SpectraSuite Data File
++++++++++++++++++++++++++++++++++++
Date: Fri Jun 02 14:51:11 CEST 2017
User: INFO_000
Dark Spectrum Present: No
Reference Spectrum Present: No
Number of Sampled Component Spectra: 1
Spectrometers: USB4H00879
Integration Time (usec): 80000 (USB4H00879)
Spectra Averaged: 1 (USB4H00879)
Boxcar Smoothing: 0 (USB4H00879)
Correct for Electrical Dark: No (USB4H00879)
Strobe/Lamp Enabled: No (USB4H00879)
Correct for Detector Non-linearity: No (USB4H00879)
Correct for Stray Light: No (USB4H00879)
Number of Pixels in Processed Spectrum: 3648
>>>>>Begin Processed Spectral Data<<<<<
345.13	1273.84
345.34	1273.84
345.56	1273.84
345.78	1290.22
345.99	1314.80
346.21	1699.81
346.42	1691.62
346.64	1656.81
346.86	1761.25
347.07	1703.91
347.29	1714.15
347.50	1609.70
347.72	1699.81
347.94	1744.87
348.15	1607.66
348.37	1646.57
348.59	1701.86
348.80	1642.47
349.02	1781.73
349.23	1920.99
349.45	1822.69
349.67	1886.18
349.88	1834.98
350.10	1990.63
350.31	1789.92
350.53	1832.93
350.75	1998.82
350.96	1791.97
351.18	1857.51
351.39	1857.51
351.61	1847.27
351.82	1869.80
352.04	1935.33
352.26	1820.64
352.47	1890.28
352.69	1894.37
352.90	1718.25
353.12	1923.04
353.34	1880.04
353.55	1945.57
353.77	1939.43
353.98	1828.84
354.20	1800.16
354.41	1945.57
354.63	1941.47
354.85	2058.21
355.06	1914.85
355.28	1763.30
355.49	1871.84
355.71	1877.99
355.92	1945.57
356.14	1900.52
356.35	1867.75
356.57	1832.93
356.79	1925.09
357.00	1812.45
357.22	1927.14
357.43	1916.90
357.65	1906.66
357.86	1849.32
358.08	1890.28
358.29	1929.19
358.51	1986.53
358.72	2002.91
358.94	1904.61
359.16	1890.28
359.37	1935.33
359.59	1970.15
359.80	1964.00
360.02	1894.37
360.23	1957.86
360.45	2007.01
360.66	1845.22
360.88	1910.75
361.09	1865.70
361.31	1961.95
361.52	1968.10
361.74	2082.78
361.95	2152.42
362.17	1986.53
362.38	2131.94
362.60	2015.20
362.81	1894.37
363.03	1929.19
363.24	1941.47
363.46	2027.49
363.67	2021.35
363.89	2013.15
364.10	2080.74
364.32	1986.53
364.53	2084.83
364.75	1824.74
364.96	2041.82
365.18	2064.35
365.39	1974.24
365.61	1943.52
365.82	2174.94
366.04	1994.72
366.25	1916.90
366.47	2000.87
366.68	2080.74
366.90	2002.91
367.11	2007.01
367.33	1968.10
367.54	2072.54
367.76	2000.87
367.97	2109.41
368.19	2002.91
368.40	2066.40
368.62	1945.57
368.83	2031.58
369.05	2156.51
369.26	1937.38
369.48	2047.97
369.69	2007.01
369.91	2103.26
370.12	2025.44
370.33	2117.60
370.55	2027.49
370.76	1994.72
370.98	2127.84
371.19	2117.60
371.41	1953.76
371.62	1994.72
371.84	1998.82
372.05	2222.05
372.27	2023.39
372.48	2150.37
372.69	2025.44
372.91	2131.94
373.12	2174.94
373.34	2131.94
373.55	2191.33
373.77	2248.67
373.98	2115.55
374.20	2174.94
374.41	2183.13
374.62	2136.03
374.84	2070.50
375.05	2183.13
375.27	2156.51
375.48	2250.72
375.70	2146.27
375.91	2220.00
376.12	2312.16
376.34	2168.80
376.55	2174.94
376.77	2306.01
376.98	2142.18
377.19	2164.70
377.41	2209.76
377.62	2203.61
377.84	2222.05
378.05	2293.72
378.27	2109.41
378.48	2246.62
378.69	2342.88
378.91	2359.26
379.12	2217.95
379.34	2228.19
379.55	2293.72
379.76	2277.34
379.98	2217.95
380.19	2246.62
380.41	2273.25
380.62	2150.37
380.83	2203.61
381.05	2228.19
381.26	2326.49
381.47	2203.61
381.69	2254.81
381.90	2336.73
382.12	2301.92
382.33	2283.49
382.54	2136.03
382.76	2344.92
382.97	2269.15
383.19	2260.96
383.40	2303.96
383.61	2326.49
383.83	2285.53
384.04	2252.77
384.25	2416.60
384.47	2328.54
384.68	2394.08
384.89	2183.13
385.11	2357.21
385.32	2273.25
385.54	2342.88
385.75	2418.65
385.96	2400.22
386.18	2435.03
386.39	2346.97
386.60	2389.98
386.82	2414.56
387.03	2330.59
387.24	2633.69
387.46	2463.71
387.67	2502.62
387.88	2545.63
388.10	2447.32
388.31	2463.71
388.52	2543.58
388.74	2484.19
388.95	2475.99
389.16	2510.81
389.38	2473.95
389.59	2519.00
389.80	2580.44
390.02	2490.33
390.23	2588.63
390.44	2623.45
390.66	2551.77
390.87	2459.61
391.08	2488.28
391.30	2652.12
391.51	2662.36
391.72	2615.26
391.94	2664.41
392.15	2691.03
392.36	2725.85
392.58	2590.68
392.79	2641.88
393.00	2764.76
393.22	2723.80
393.43	2744.28
393.64	2799.57
393.85	2820.05
394.07	2684.89
394.28	2772.95
394.49	2779.09
394.71	2797.53
394.92	2758.61
395.13	2785.24
395.35	2725.85
395.56	2760.66
395.77	2787.29
395.98	2785.24
396.20	2852.82
396.41	2846.68
396.62	2869.20
396.84	2828.24
397.05	2803.67
397.26	2822.10
397.47	2953.17
397.69	2756.57
397.90	3004.37
398.11	2959.31
398.32	2877.40
398.54	2818.00
398.75	2834.39
398.96	2904.02
399.18	3016.66
399.39	2916.31
399.60	3022.80
399.81	2895.83
400.03	2963.41
400.24	3155.92
400.45	3045.33
400.66	3114.96
400.88	2955.22
401.09	3102.67
401.30	3035.09
401.51	3104.72
401.73	3160.02
401.94	3160.02
402.15	2992.08
402.36	3041.23
402.58	3160.02
402.79	3276.75
403.00	3248.08
403.21	3129.30
403.43	3141.58
403.64	3200.98
403.85	3080.14
404.06	3330.00
404.27	3055.57
404.49	3147.73
404.70	3145.68
404.91	3190.74
405.12	3186.64
405.34	3207.12
405.55	3393.48
405.76	3295.18
405.97	3180.50
406.19	3440.59
406.40	3178.45
406.61	3239.89
406.82	3289.04
407.03	3325.90
407.25	3246.03
407.46	3436.49
407.67	3446.73
407.88	3401.68
408.09	3289.04
408.31	3319.76
408.52	3436.49
408.73	3327.95
408.94	3336.14
409.15	3411.92
409.37	3571.66
409.58	3395.53
409.79	3430.35
410.00	3442.64
410.21	3401.68
410.43	3583.95
410.64	3360.72
410.85	3495.88
411.06	3585.99
411.27	3624.90
411.48	3592.14
411.70	3506.12
411.91	3473.36
412.12	3694.54
412.33	3573.71
412.54	3518.41
412.76	3614.66
412.97	3641.29
413.18	3551.18
413.39	3614.66
413.60	3690.44
413.81	3522.51
414.03	3637.19
414.24	3565.51
414.45	3719.11
414.66	3579.85
414.87	3606.47
415.08	3698.63
415.30	3694.54
415.51	3727.30
415.72	3719.11
415.93	3694.54
416.14	3813.32
416.35	3848.13
416.56	3715.02
416.78	3819.46
416.99	3874.76
417.20	3794.89
417.41	3811.27
417.62	3885.00
417.83	3813.32
418.04	3905.48
418.26	3788.74
418.47	3749.83
418.68	3936.20
418.89	3923.91
419.10	4175.81
419.31	3952.58
419.52	4048.83
419.73	3899.33
419.95	4079.55
420.16	4061.12
420.37	3993.54
420.58	3999.68
420.79	3915.72
421.00	4130.75
421.21	4151.23
421.42	3911.62
421.63	4052.93
421.85	4009.92
422.06	4147.14
422.27	4181.95
422.48	4181.95
422.69	4372.41
422.90	4177.86
423.11	4231.10
423.32	4194.24
423.53	4259.78
423.75	4255.68
423.96	4390.84
424.17	4382.65
424.38	4528.06
424.59	4329.41
424.80	4476.86
425.01	4374.46
425.22	4374.46
425.43	4255.68
425.64	4718.52
425.85	4528.06
426.06	4579.26
426.28	4579.26
426.49	4427.71
426.70	4493.24
426.91	4558.78
427.12	4546.49
427.33	4691.90
427.54	4489.15
427.75	4640.70
427.96	4827.06
428.17	4652.98
428.38	4769.72
428.59	4624.31
428.80	4657.08
429.01	4757.43
429.23	4792.25
429.44	5027.76
429.65	4894.65
429.86	4972.47
430.07	4704.18
430.28	4743.10
430.49	4923.32
430.70	5040.05
430.91	5066.67
431.12	4855.73
431.33	5064.63
431.54	5007.28
431.75	5025.72
431.96	5128.11
432.17	5066.67
432.38	5107.63
432.59	5339.05
432.80	5189.55
433.01	5302.19
433.22	5322.67
433.43	5296.05
433.64	5271.47
433.85	5197.74
434.06	5349.29
434.27	5341.10
434.49	5406.64
434.70	5449.64
434.91	5386.16
435.12	5423.02
435.33	5478.32
435.54	5369.77
435.75	5205.94
435.96	5353.39
436.17	5312.43
436.38	5566.38
436.59	5574.57
436.80	5506.99
437.01	5705.64
437.22	5803.94
437.43	5674.92
437.64	5593.00
437.85	5619.63
438.06	5662.63
438.27	5570.48
438.48	5603.24
438.69	5750.70
438.90	5679.02
439.11	5599.15
439.32	5777.32
439.53	5752.74
439.74	5908.39
439.95	5910.44
440.16	5984.16
440.37	5750.70
440.57	5832.62
440.78	5873.57
440.99	5818.28
441.20	6010.79
441.41	5978.02
441.62	5996.45
441.83	5824.42
442.04	6035.36
442.25	5971.88
442.46	6027.17
442.67	6109.09
442.88	6479.77
443.09	6031.27
443.30	6180.77
443.51	6133.67
443.72	6383.52
443.93	6086.56
444.14	6203.30
444.35	5957.54
444.56	6246.30
444.77	6227.87
444.98	6399.90
445.19	6483.87
445.40	6365.09
445.61	6358.94
445.81	6506.40
446.02	6315.94
446.23	6365.09
446.44	6188.96
446.65	6543.26
446.86	6455.20
447.07	6506.40
447.28	6727.58
447.49	6664.09
447.70	6475.68
447.91	6748.06
448.12	6571.93
448.33	6721.43
448.54	6772.63
448.74	6655.90
448.95	6870.94
449.16	6733.72
449.37	6942.61
449.58	6717.34
449.79	6995.86
450.00	6735.77
450.21	6879.13
450.42	7014.29
450.63	7067.54
450.84	6723.48
451.05	7008.15
451.25	6979.48
451.46	6924.18
451.67	7206.80
451.88	7104.40
452.09	7186.32
452.30	7122.84
452.51	7157.65
452.72	7149.46
452.93	7325.58
453.13	7018.39
453.34	7307.15
453.55	7227.28
453.76	7149.46
453.97	7649.16
454.18	7444.37
454.39	7491.47
454.60	7430.03
454.81	7413.65
455.01	7538.57
455.22	7186.32
455.43	7497.61
455.64	7706.51
455.85	7810.95
456.06	8028.04
456.27	7780.23
456.48	7604.11
456.68	7819.14
456.89	7886.73
457.10	7827.34
457.31	8066.95
457.52	7985.03
457.73	8105.86
457.94	8243.07
458.14	7878.54
458.35	8415.10
458.56	8193.92
458.77	8052.61
458.98	8179.59
459.19	8146.82
459.39	8292.23
459.60	8413.06
459.81	8198.02
460.02	8253.31
460.23	8472.45
460.44	8624.00
460.65	8699.77
460.85	8812.41
461.06	8761.21
461.27	8515.45
461.48	8853.37
461.69	9027.45
461.89	8535.93
462.10	8968.06
462.31	8488.83
462.52	8750.97
462.73	8961.91
462.94	9144.18
463.14	9080.69
463.35	8849.27
463.56	9412.46
463.77	9428.85
463.98	8963.96
464.18	9396.08
464.39	9330.55
464.60	9521.01
464.81	9391.98
465.02	9549.68
465.23	9623.41
465.43	9387.89
465.64	9656.17
465.85	9549.68
466.06	9672.56
466.27	10061.67
466.47	9834.35
466.68	9895.78
466.89	9996.14
467.10	10012.52
467.30	9973.61
467.51	10155.88
467.72	10536.80
467.93	10129.25
468.14	10198.88
468.34	10323.81
468.55	10604.38
468.76	10592.09
468.97	10293.09
469.17	10528.61
469.38	10710.88
469.59	10823.51
469.80	10641.25
470.01	10807.13
470.21	10764.12
470.42	10954.58
470.63	11099.99
470.84	11075.42
471.04	11235.16
471.25	11267.92
471.46	11016.02
471.67	11507.54
471.87	11321.17
472.08	11517.78
472.29	11730.76
472.50	11333.46
472.70	11384.66
472.91	11700.05
473.12	11857.74
473.33	11886.41
473.53	11808.59
473.74	12070.73
473.95	12117.83
474.16	12300.10
474.36	12343.11
474.57	12308.29
474.78	12478.27
474.99	12422.98
475.19	12474.18
475.40	12607.30
475.61	12730.17
475.81	12832.57
476.02	13211.45
476.23	13104.95
476.44	13164.34
476.64	13248.31
476.85	13367.09
477.06	13328.18
477.27	13696.82
477.47	13702.96
477.68	13668.14
477.89	13934.38
478.09	13770.54
478.30	13700.91
478.51	13739.82
478.71	13946.67
478.92	14173.99
479.13	14321.45
479.34	14358.31
479.54	14438.18
479.75	14421.80
479.96	14354.21
480.16	14790.43
480.37	14878.49
480.58	14907.16
480.78	15193.88
480.99	15046.43
481.20	15161.11
481.41	15384.34
481.61	15437.59
481.82	15576.85
482.03	15351.57
482.23	15632.15
482.44	15705.87
482.65	15922.96
482.85	16193.29
483.06	15904.53
483.27	15882.00
483.47	16105.23
483.68	16244.49
483.89	16473.86
484.09	16162.57
484.30	16539.40
484.51	16666.37
484.71	16664.32
484.92	16709.38
485.13	17059.58
485.33	17014.52
485.54	17125.11
485.75	17166.07
485.95	17141.50
486.16	17153.79
486.37	17518.32
486.57	17284.86
486.78	17555.19
486.98	17235.70
487.19	17915.63
487.40	17987.31
487.60	17852.14
487.81	18329.32
488.02	18036.46
488.22	17999.60
488.43	18245.35
488.64	18507.49
488.84	18446.05
489.05	18616.04
489.25	18579.17
489.46	18884.32
489.67	18519.78
489.87	19037.92
490.08	18956.00
490.29	19048.16
490.49	19171.04
490.70	19234.52
490.90	19396.31
491.11	19244.76
491.32	19584.73
491.52	19523.29
491.73	19560.15
491.94	19777.23
492.14	19558.10
492.35	19939.02
492.55	19986.13
492.76	20066.00
492.97	20344.52
493.17	20225.74
493.38	20516.55
493.58	20524.74
493.79	20432.58
494.00	20555.46
494.20	20999.87
494.41	21046.97
494.61	20958.91
494.82	20926.14
495.02	21198.52
495.23	21094.08
495.44	21184.19
495.64	21348.03
495.85	21182.14
496.05	21399.23
496.26	21524.15
496.47	21755.57
496.67	21681.85
496.88	22228.65
497.08	21591.73
497.29	22126.25
497.49	22038.19
497.70	22208.17
497.91	22488.74
498.11	22093.49
498.32	22286.00
498.52	22118.06
498.73	22474.41
498.93	22458.03
499.14	22519.46
499.34	22591.14
499.55	23062.18
499.76	22990.50
499.96	22978.21
500.17	23217.82
500.37	23013.02
500.58	23082.66
500.78	23318.17
500.99	23174.81
501.19	23565.98
501.40	23568.02
501.60	23232.16
501.81	23531.16
502.02	23488.15
502.22	23404.19
502.43	23850.64
502.63	23596.70
502.84	23971.47
503.04	23996.05
503.25	23864.98
503.45	23897.75
503.66	24376.97
503.86	24151.70
504.07	24301.20
504.27	23991.95
504.48	24653.45
504.68	24602.25
504.89	24878.72
505.09	24637.06
505.30	24940.16
505.50	24702.60
505.71	24866.44
505.91	25126.53
506.12	25159.30
506.32	24911.49
506.53	25161.34
506.73	25497.21
506.94	24962.69
507.14	25286.27
507.35	25312.89
507.55	25472.64
507.76	25622.14
507.96	25224.83
508.17	25353.85
508.37	25884.28
508.58	25675.38
508.78	26009.20
508.99	25958.00
509.19	25960.05
509.40	26029.68
509.60	25908.85
509.81	26195.57
510.01	25917.04
510.22	26310.25
510.42	26041.97
510.63	26484.33
510.83	26336.88
511.04	26216.05
511.24	26949.22
511.44	26207.86
511.65	26863.21
511.85	26580.59
512.06	26549.87
512.26	26826.34
512.47	26975.84
512.67	26728.04
512.88	26699.37
513.08	26619.50
513.29	27346.53
513.49	26523.24
513.69	26936.93
513.90	27133.54
514.10	27190.88
514.31	27180.64
514.51	27475.55
514.72	27145.83
514.92	27336.29
515.13	27479.64
515.33	27731.54
515.53	27526.75
515.74	27412.06
515.94	27881.05
516.15	27731.54
516.35	27465.31
516.56	27829.85
516.76	27721.30
516.96	27932.25
517.17	27887.19
517.37	27809.37
517.58	27987.54
517.78	28024.40
517.99	28329.55
518.19	28532.30
518.39	28468.81
518.60	28477.01
518.80	28847.69
519.01	28362.32
519.21	28464.72
519.41	28538.44
519.62	28655.18
519.82	28923.46
520.03	29042.24
520.23	29050.44
520.43	29013.57
520.64	29322.82
520.84	29298.24
521.05	28989.00
521.25	29410.88
521.45	29279.81
521.66	29476.41
521.86	29142.60
522.07	29558.33
522.27	29795.90
522.47	29482.56
522.68	30131.76
522.88	29589.05
523.08	30047.80
523.29	30064.18
523.49	29863.48
523.70	30115.38
523.90	30361.14
524.10	30492.21
524.31	30514.73
524.51	30172.72
524.71	30787.11
524.92	30533.17
525.12	31055.40
525.33	31061.54
525.53	31106.60
525.73	30918.18
525.94	31161.89
526.14	31145.51
526.34	31368.74
526.55	31202.85
526.75	31120.93
526.95	31143.46
527.16	31667.74
527.36	31688.22
527.56	31704.60
527.77	31731.23
527.97	31999.51
528.17	31809.05
528.38	32273.94
528.58	32318.99
528.78	32036.38
528.99	32304.66
529.19	32470.54
529.39	32183.83
529.60	32425.49
529.80	32661.01
530.00	32456.21
530.21	32833.04
530.41	32896.52
530.61	32757.26
530.82	33279.49
531.02	32982.54
531.22	33013.26
531.43	33304.07
531.63	33336.84
531.83	33791.48
532.04	33674.75
532.24	33308.16
532.44	34186.74
532.64	33959.42
532.85	34031.10
533.05	34074.10
533.25	33895.93
533.46	34248.18
533.66	34553.33
533.86	34203.13
534.07	34930.16
534.27	34256.37
534.47	35083.75
534.67	34547.18
534.88	34921.96
535.08	34588.14
535.28	34954.73
535.49	35259.88
535.69	35573.22
535.89	35237.35
536.09	35427.81
536.30	35659.23
536.50	35495.39
536.70	35696.10
536.91	35757.53
537.11	35728.86
537.31	35890.65
537.51	36097.50
537.72	36337.11
537.92	36253.14
538.12	36754.90
538.32	36187.61
538.53	36492.76
538.73	36283.86
538.93	36449.75
539.13	36781.52
539.34	36666.83
539.54	36754.90
539.74	37197.26
539.94	36961.74
540.15	36474.32
540.35	37184.97
540.55	36943.31
540.75	37400.01
540.96	37535.17
541.16	37438.92
541.36	37711.30
541.56	37660.10
541.77	37707.20
541.97	37727.68
542.17	37914.05
542.37	37598.66
542.58	38004.16
542.78	38030.78
542.98	37719.49
543.18	38223.29
543.38	38741.42
543.59	38626.74
543.79	37830.08
543.99	38223.29
544.19	38434.23
544.40	38481.33
544.60	39134.63
544.80	38747.57
545.00	38761.90
545.20	38997.42
545.41	38770.10
545.61	38958.51
545.81	39204.27
546.01	39081.39
546.21	39087.53
546.42	39187.88
546.62	39544.23
546.82	39427.49
547.02	39392.68
547.22	39386.54
547.43	39511.46
547.63	39519.65
547.83	39646.63
548.03	39419.30
548.23	40088.99
548.44	39837.09
548.64	39738.79
548.84	39974.30
549.04	39859.62
549.24	40424.86
549.45	40342.94
549.65	39818.66
549.85	40043.93
550.05	40297.88
550.25	39929.25
550.45	40852.88
550.66	39785.89
550.86	40379.80
551.06	40660.37
551.26	40646.04
551.46	40824.21
551.66	40379.80
551.87	40787.35
552.07	40723.86
552.27	40895.89
552.47	40885.65
552.67	40899.98
552.87	40768.91
553.07	41127.31
553.28	41278.86
553.48	41354.63
553.68	41510.28
553.88	41983.36
554.08	41543.05
554.28	41325.96
554.48	41098.64
554.69	41164.17
554.89	41606.53
555.09	41604.49
555.29	41364.87
555.49	42032.51
555.69	41762.18
555.89	41495.94
556.10	42040.70
556.30	41872.77
556.50	41801.09
556.70	41735.56
556.90	42235.26
557.10	41831.81
557.30	42100.09
557.50	42540.41
557.70	42530.17
557.91	42347.90
558.11	42397.05
558.31	42577.27
558.51	41899.39
558.71	42460.54
558.91	42847.60
559.11	42403.19
559.31	42005.89
559.51	42261.88
559.72	42513.78
559.92	42431.86
560.12	42392.95
560.32	43122.03
560.52	42128.77
560.72	42673.52
560.92	42972.53
561.12	42775.92
561.32	43076.97
561.52	42900.85
561.72	43761.00
561.93	43085.17
562.13	43083.12
562.33	43132.27
562.53	43537.77
562.73	42859.89
562.93	42618.23
563.13	43625.83
563.33	43206.00
563.53	43505.00
563.73	43175.28
563.93	43339.11
564.13	43363.69
564.33	43595.11
564.53	43644.26
564.74	43619.69
564.94	43386.22
565.14	43986.27
565.34	43502.95
565.54	43918.69
565.74	43461.99
565.94	44072.29
566.14	43740.52
566.34	43703.65
566.54	43793.76
566.74	43736.42
566.94	44045.66
567.14	44375.39
567.34	44088.67
567.54	44131.68
567.74	44242.27
567.94	43705.70
568.14	44385.63
568.34	44668.25
568.54	44125.53
568.74	44580.18
568.94	44221.79
569.14	44774.74
569.34	44442.97
569.54	44260.70
569.75	44197.21
569.95	44260.70
570.15	45045.07
570.35	44746.07
570.55	44887.38
570.75	44721.49
570.95	45069.65
571.15	44612.95
571.35	44807.51
571.55	45067.60
571.75	44967.25
571.95	44840.28
572.15	45061.46
572.35	45137.23
572.55	45077.84
572.75	45299.02
572.95	45249.87
573.15	45432.14
573.35	45258.06
573.55	44772.69
573.75	45346.12
573.95	45847.88
574.15	45393.23
574.35	45344.08
574.55	45233.49
574.75	45094.22
574.95	45727.05
575.15	45243.73
575.34	45595.98
575.54	45589.83
575.74	45649.22
575.94	46333.24
576.14	45917.51
576.34	46105.92
576.54	46130.50
576.74	46234.94
576.94	46167.36
577.14	46114.11
577.34	46396.73
577.54	45835.59
577.74	46128.45
577.94	45874.50
578.14	46310.72
578.34	46603.58
578.54	45993.28
578.74	46398.78
578.94	46902.58
579.14	46437.69
579.34	46683.45
579.54	46929.20
579.74	46884.15
579.94	47064.37
580.13	47129.90
580.33	46880.05
580.53	46755.13
580.73	47250.74
580.93	47019.31
581.13	46837.05
581.33	47215.92
581.53	46959.92
581.73	47433.00
581.93	47396.14
582.13	47588.65
582.33	47322.41
582.53	47457.58
582.73	47318.32
582.92	47439.15
583.12	47998.24
583.32	47469.87
583.52	47170.86
583.72	47951.14
583.92	47463.72
584.12	47562.03
584.32	48176.42
584.52	48178.46
584.72	48456.99
584.92	48223.52
585.11	48745.75
585.31	48325.92
585.51	48211.23
585.71	48448.80
585.91	48477.47
586.11	48356.64
586.31	48569.63
586.51	48583.96
586.71	48493.85
586.91	48831.77
587.10	48723.22
587.30	48733.46
587.50	48932.12
587.70	49022.23
587.90	49267.98
588.10	48635.16
588.30	48674.07
588.50	49141.01
588.69	48819.48
588.89	48895.25
589.09	49310.99
589.29	49089.81
589.49	49616.14
589.69	49067.28
589.89	49616.14
590.08	49241.36
590.28	49526.03
590.48	49161.49
590.68	49370.38
590.88	49274.13
591.08	49861.90
591.28	49210.64
591.47	49906.95
591.67	49571.08
591.87	49720.59
592.07	49865.99
592.27	49929.48
592.47	49818.89
592.67	49964.29
592.86	49485.07
593.06	50044.16
593.26	50099.46
593.46	49874.18
593.66	50089.22
593.86	50134.28
594.05	50488.57
594.25	50435.33
594.45	49773.83
594.65	50167.04
594.85	50033.92
595.05	50613.50
595.24	50806.01
595.44	50578.68
595.64	50582.78
595.84	50889.98
596.04	50529.53
596.23	50840.82
596.43	51045.62
596.63	50676.99
596.83	50857.21
597.03	50984.18
597.22	51557.61
597.42	51258.61
597.62	51141.88
597.82	51016.95
598.02	51483.89
598.21	51420.40
598.41	50900.22
598.61	51422.45
598.81	51700.97
599.01	51483.89
599.20	51672.30
599.40	51680.49
599.60	51756.27
599.80	51938.54
600.00	51801.32
600.19	52026.60
600.39	51641.58
600.59	52182.24
600.79	51576.04
600.98	51453.17
601.18	51868.90
601.38	52159.72
601.58	52352.23
601.78	52202.72
601.97	52237.54
602.17	52294.88
602.37	52384.99
602.57	52395.23
602.76	52821.21
602.96	52346.08
603.16	52659.42
603.36	52708.57
603.55	52884.70
603.75	52401.38
603.95	52933.85
604.15	52976.86
604.34	52716.76
604.54	52929.75
604.74	52956.38
604.94	52942.04
605.13	53116.12
605.33	53552.33
605.53	52995.29
605.73	53195.99
605.92	53343.44
606.12	53869.77
606.32	53636.30
606.52	53564.62
606.71	53449.94
606.91	53734.60
607.11	53105.88
607.30	53650.64
607.50	53728.46
607.70	54244.55
607.90	53681.36
608.09	53605.58
608.29	53800.14
608.49	53834.95
608.68	53548.24
608.88	53869.77
609.08	54078.66
609.28	54133.96
609.47	53654.73
609.67	54691.01
609.87	54086.85
610.06	54539.46
610.26	54009.03
610.46	54281.41
610.66	54398.15
610.85	54359.23
611.05	54281.41
611.25	54109.38
611.44	54418.63
611.64	54779.07
611.84	54023.37
612.03	54600.89
612.23	54351.04
612.43	54385.86
612.62	54150.34
612.82	54527.17
613.02	54531.26
613.21	54389.95
613.41	54473.92
613.61	54705.34
613.80	53837.00
614.00	54691.01
614.20	54557.89
614.39	54498.50
614.59	54795.45
614.79	54615.23
614.98	54588.61
615.18	54334.66
615.38	54637.76
615.57	54260.93
615.77	55010.49
615.97	55088.31
616.16	54580.42
616.36	54516.93
616.56	54607.04
616.75	54564.03
616.95	54353.09
617.15	54555.84
617.34	54695.10
617.54	54715.58
617.74	54719.68
617.93	54709.44
618.13	54863.03
618.32	54850.75
618.52	54899.90
618.72	54699.20
618.91	54680.77
619.11	54326.47
619.31	54637.76
619.50	54858.94
619.70	54443.20
619.90	54752.44
620.09	54682.81
620.29	54850.75
620.48	54672.57
620.68	54899.90
620.88	54207.68
621.07	54576.32
621.27	55035.06
621.46	54547.65
621.66	54805.69
621.86	54256.84
622.05	54404.29
622.25	55047.35
622.44	54992.06
622.64	54566.08
622.84	55119.03
623.03	54060.23
623.23	54768.83
623.42	54557.89
623.62	54830.27
623.82	54611.13
624.01	54863.03
624.21	55084.22
624.40	54625.47
624.60	54684.86
624.80	54670.53
624.99	54570.18
625.19	54277.32
625.38	55028.92
625.58	54838.46
625.77	54854.84
625.97	54918.33
626.17	54428.87
626.36	54617.28
626.56	54719.68
626.75	54547.65
626.95	55030.97
627.14	54639.81
627.34	55102.65
627.54	54293.70
627.73	54744.25
627.93	54801.60
628.12	54543.55
628.32	55348.40
628.51	55035.06
628.71	54752.44
628.90	54465.73
629.10	55307.44
629.30	54836.41
629.49	54815.93
629.69	54799.55
629.88	54609.09
630.08	55237.81
630.27	54744.25
630.47	55006.39
630.66	54621.37
630.86	55080.12
631.05	54545.60
631.25	55323.83
631.44	54924.47
631.64	54914.23
631.84	54865.08
632.03	55037.11
632.23	54568.13
632.42	55219.38
632.62	55022.78
632.81	54998.20
633.01	54998.20
633.20	55334.07
633.40	55033.02
633.59	54871.23
633.79	54762.68
633.98	54953.15
634.18	54785.21
634.37	55243.96
634.57	55143.61
634.76	55796.91
634.96	55139.51
635.15	55125.17
635.35	54705.34
635.54	55008.44
635.74	55135.41
635.93	54584.51
636.13	55303.35
636.32	55286.96
636.52	54715.58
636.71	55297.20
636.91	54865.08
637.10	55356.60
637.30	55219.38
637.49	55332.02
637.69	55174.33
637.88	55395.51
638.08	55207.09
638.27	55698.61
638.46	55035.06
638.66	55102.65
638.85	55080.12
639.05	54785.21
639.24	55194.81
639.44	54869.18
639.63	55047.35
639.83	55284.92
640.02	55465.14
640.22	55196.85
640.41	55743.66
640.61	54996.15
640.80	55434.42
640.99	55284.92
641.19	55874.73
641.38	55671.98
641.58	55180.47
641.77	55383.22
641.97	55135.41
642.16	55442.61
642.36	55411.89
642.55	55766.19
642.74	55024.82
642.94	56112.30
643.13	55172.28
643.33	55786.67
643.52	56009.90
643.72	55651.50
643.91	55628.98
644.10	55821.48
644.30	55827.63
644.49	55209.14
644.69	56317.09
644.88	55731.37
645.08	55614.64
645.27	55592.11
645.46	56022.19
645.66	56245.41
645.85	55481.52
646.05	56186.02
646.24	56163.50
646.43	56186.02
646.63	56304.80
646.82	56358.05
647.02	56343.72
647.21	56218.79
647.40	55841.96
647.60	55760.05
647.79	56159.40
647.99	56345.76
648.18	55686.32
648.37	56595.62
648.57	56153.26
648.76	55897.26
648.96	55606.45
649.15	56161.45
649.34	56276.13
649.54	56480.93
649.73	55596.21
649.92	56458.40
650.12	56157.35
650.31	56226.98
650.51	56591.52
650.70	56407.20
650.89	56241.32
651.09	56945.82
651.28	56439.97
651.47	56833.18
651.67	56712.35
651.86	56837.28
652.06	56501.41
652.25	56548.51
652.44	56405.16
652.64	56386.72
652.83	56132.78
653.02	55997.61
653.22	56636.58
653.41	56458.40
653.60	56599.71
653.80	56460.45
653.99	56636.58
654.18	56917.15
654.38	56423.59
654.57	56392.87
654.76	56489.12
654.96	56544.42
655.15	56509.60
655.34	56222.89
655.54	55884.97
655.73	56489.12
655.92	56476.83
656.12	56964.25
656.31	56949.92
656.50	56859.80
656.70	56605.86
656.89	56669.34
657.08	57062.55
657.28	56829.08
657.47	56763.55
657.66	56669.34
657.86	56812.70
658.05	56534.18
658.24	56814.75
658.43	56640.67
658.63	56972.44
658.82	56708.25
659.01	57240.73
659.21	56974.49
659.40	56538.27
659.59	56587.42
659.79	56882.33
659.98	57332.89
660.17	57341.08
660.36	57162.90
660.56	56980.63
660.75	56657.06
660.94	56771.74
661.14	56734.88
661.33	56976.54
661.52	56362.15
661.71	57062.55
661.91	56603.81
662.10	56847.52
662.29	57255.06
662.49	56390.82
662.68	56847.52
662.87	56992.92
663.06	57154.71
663.26	56648.86
663.45	57119.90
663.64	56865.95
663.83	57443.48
664.03	57220.25
664.22	56956.06
664.41	57062.55
664.60	56640.67
664.80	56538.27
664.99	57316.50
665.18	57044.12
665.37	56941.72
665.57	57160.86
665.76	57070.75
665.95	57279.64
666.14	56691.87
666.34	57222.29
666.53	57052.31
666.72	56698.01
666.91	57025.69
667.11	56964.25
667.30	56851.61
667.49	56796.32
667.68	57236.63
667.87	56554.66
668.07	57181.34
668.26	57046.17
668.45	57113.75
668.64	56335.52
668.84	57533.59
669.03	56853.66
669.22	56743.07
669.41	57117.85
669.60	57025.69
669.80	56415.40
669.99	57162.90
670.18	56964.25
670.37	57310.36
670.57	57394.32
670.76	56824.99
670.95	57175.19
671.14	56972.44
671.33	56460.45
671.53	57279.64
671.72	56824.99
671.91	57189.53
672.10	56487.07
672.29	56908.96
672.48	56929.44
672.68	57205.91
672.87	57042.07
673.06	57152.66
673.25	56726.69
673.44	56757.41
673.64	56874.14
673.83	56599.71
674.02	56403.11
674.21	56235.17
674.40	56954.01
674.59	56431.78
674.79	56935.58
674.98	56202.41
675.17	56992.92
675.36	56679.58
675.55	56736.93
675.74	56005.80
675.94	56345.76
676.13	56751.26
676.32	56908.96
676.51	57021.59
676.70	56755.36
676.89	56263.85
677.08	56820.89
677.28	56591.52
677.47	56784.03
677.66	56947.87
677.85	56788.13
678.04	56833.18
678.23	57160.86
678.42	56816.80
678.62	56396.96
678.81	57037.98
679.00	56421.54
679.19	57302.17
679.38	56462.50
679.57	56759.45
679.76	56958.11
679.96	56929.44
680.15	56851.61
680.34	56644.77
680.53	56497.31
680.72	56525.99
680.91	56790.17
681.10	56269.99
681.29	56407.20
681.48	56607.90
681.68	56583.33
681.87	56360.10
682.06	56550.56
682.25	56341.67
682.44	56407.20
682.63	57158.81
682.82	55956.65
683.01	56429.73
683.20	55805.10
683.39	56194.21
683.59	56562.85
683.78	56173.73
683.97	55952.55
684.16	56153.26
684.35	56194.21
684.54	55944.36
684.73	55956.65
684.92	55801.00
685.11	55848.11
685.30	56194.21
685.49	56368.29
685.69	56190.12
685.88	56030.38
686.07	56089.77
686.26	56181.93
686.45	56063.14
686.64	56091.82
686.83	55801.00
687.02	55944.36
687.21	56077.48
687.40	55688.37
687.59	55723.18
687.78	56218.79
687.97	56218.79
688.16	55821.48
688.35	55452.85
688.54	55776.43
688.74	56022.19
688.93	56097.96
689.12	55907.50
689.31	55698.61
689.50	56325.28
689.69	55506.10
689.88	55102.65
690.07	55575.73
690.26	55841.96
690.45	55925.93
690.64	55643.31
690.83	55657.65
691.02	55311.54
691.21	55547.06
691.40	55506.10
691.59	55784.62
691.78	55604.40
691.97	55458.99
692.16	55534.77
692.35	55708.85
692.54	56167.59
692.73	55143.61
692.92	55344.31
693.11	55401.65
693.30	55170.23
693.49	55362.74
693.68	55178.42
693.87	54774.97
694.06	54529.22
694.25	54957.24
694.44	54918.33
694.63	55203.00
694.82	55340.21
695.01	55084.22
695.20	55153.85
695.39	54748.35
695.58	54850.75
695.77	54809.79
695.96	54394.05
696.15	55170.23
696.34	54834.36
696.53	54432.96
696.72	55211.19
696.91	55155.89
697.10	54983.86
697.29	55057.59
697.48	55194.81
697.67	54674.62
697.86	53998.79
698.05	54578.37
698.24	54961.34
698.43	54299.84
698.62	54285.51
698.81	54191.30
699.00	54936.76
699.19	54369.47
699.38	54811.84
699.57	54379.71
699.76	54574.27
699.95	54607.04
700.14	54244.55
700.32	54424.77
700.51	54604.99
700.70	54809.79
700.89	54662.33
701.08	54654.14
701.27	54082.76
701.46	54334.66
701.65	54355.14
701.84	54080.71
702.03	54242.50
702.22	53949.64
702.41	54287.56
702.60	54115.53
702.79	54023.37
702.98	53855.43
703.17	54002.89
703.35	53724.36
703.54	53796.04
703.73	54549.70
703.92	53646.54
704.11	54195.40
704.30	53445.84
704.49	53329.11
704.68	53679.31
704.87	53626.06
705.06	53589.20
705.25	53685.45
705.43	53312.72
705.62	53771.47
705.81	53794.00
706.00	53597.39
706.19	53339.35
706.38	52655.32
706.57	53193.94
706.76	53105.88
706.95	53406.93
707.14	52974.81
707.32	53001.43
707.51	53425.36
707.70	53097.69
707.89	52823.26
708.08	53290.19
708.27	53380.31
708.46	53394.64
708.65	53120.21
708.84	53497.04
709.02	53220.56
709.21	52950.23
709.40	53236.95
709.59	52966.62
709.78	52374.75
709.97	53239.00
710.16	52663.52
710.34	52731.10
710.53	52911.32
710.72	52716.76
710.91	52884.70
711.10	52671.71
711.29	53079.25
711.48	52462.82
711.66	52892.89
711.85	52489.44
712.04	52499.68
712.23	52624.60
712.42	52567.26
712.61	52393.18
712.80	52118.76
712.98	52557.02
713.17	52198.63
713.36	52491.49
713.55	52618.46
713.74	52407.52
713.93	52315.36
714.11	52225.25
714.30	52073.70
714.49	51977.45
714.68	52198.63
714.87	52587.74
715.06	52499.68
715.24	51336.43
715.43	52225.25
715.62	51854.57
715.81	51827.95
716.00	51977.45
716.18	51854.57
716.37	51754.22
716.56	51053.81
716.75	52198.63
716.94	51438.83
717.12	51391.73
717.31	51842.28
717.50	51221.75
717.69	51442.93
717.88	51475.69
718.06	51217.65
718.25	51944.68
718.44	51389.68
718.63	51227.89
718.82	51297.52
719.00	50873.59
719.19	50693.37
719.38	51049.72
719.57	50844.92
719.76	50590.97
719.94	50523.39
720.13	50965.75
720.32	50664.70
720.51	50332.93
720.69	50611.45
720.88	50836.73
721.07	50359.55
721.26	49992.97
721.44	50535.68
721.63	50164.99
721.82	50433.28
722.01	50003.20
722.20	49935.62
722.38	49931.53
722.57	49667.34
722.76	50390.27
722.95	49847.56
723.13	49325.33
723.32	49349.90
723.51	49747.21
723.70	49689.87
723.88	50062.60
724.07	49603.85
724.26	49513.74
724.44	48954.64
724.63	49917.19
724.82	49689.87
725.01	49440.01
725.19	49358.09
725.38	49435.92
725.57	49358.09
725.76	49280.27
725.94	49204.50
726.13	48899.35
726.32	49366.29
726.51	49210.64
726.69	49425.68
726.88	49487.12
727.07	48971.03
727.25	49151.25
727.44	49231.12
727.63	48999.70
727.82	48913.69
728.00	49108.24
728.19	48366.88
728.38	49046.80
728.56	48262.43
728.75	49186.07
728.94	48968.98
729.12	49102.10
729.31	49200.40
729.50	48706.84
729.69	49104.15
729.87	48866.58
730.06	48872.73
730.25	48477.47
730.43	49372.43
730.62	48553.24
730.81	48753.94
730.99	49386.77
731.18	48809.24
731.37	49052.95
731.55	48831.77
731.74	49231.12
731.93	48968.98
732.11	49206.55
732.30	48565.53
732.49	48616.73
732.67	48760.09
732.86	48749.85
733.05	48809.24
733.23	48215.33
733.42	48878.87
733.61	48336.16
733.79	48856.34
733.98	49040.66
734.17	48661.79
734.35	48182.56
734.54	48602.39
734.73	48801.05
734.91	48244.00
735.10	48452.89
735.29	48870.68
735.47	48356.64
735.66	48788.76
735.84	48399.65
736.03	48289.06
736.22	48506.14
736.40	47977.76
736.59	48622.87
736.78	48399.65
736.96	48268.58
737.15	48096.55
737.33	48090.40
737.52	47969.57
737.71	47990.05
737.89	48145.70
738.08	47521.07
738.27	47914.28
738.45	48354.59
738.64	48391.45
738.82	48061.73
739.01	47789.35
739.20	47996.20
739.38	48059.68
739.57	48065.83
739.75	47936.80
739.94	47899.94
740.13	47850.79
740.31	48020.77
740.50	47672.62
740.68	47525.16
740.87	47654.18
741.06	47815.97
741.24	47576.36
741.43	47297.84
741.61	47770.92
741.80	47402.28
741.99	47598.89
742.17	47277.36
742.36	47387.95
742.54	47568.17
742.73	47478.06
742.91	47588.65
743.10	46847.29
743.29	47441.20
743.47	47443.24
743.66	47422.76
743.84	47803.69
744.03	47439.15
744.21	47363.37
744.40	47398.19
744.59	47338.80
744.77	46837.05
744.96	47723.82
745.14	47478.06
745.33	47461.68
745.51	47367.47
745.70	46992.69
745.88	47168.82
746.07	47117.62
746.26	46945.59
746.44	46730.55
746.63	46890.29
746.81	47222.06
747.00	46748.98
747.18	46939.44
747.37	46933.30
747.55	46791.99
747.74	47093.04
747.92	46464.32
748.11	47054.13
748.29	46544.19
748.48	46941.49
748.66	46222.65
748.85	46218.56
749.03	46714.17
749.22	46495.03
749.41	46402.88
749.59	46581.05
749.78	45933.89
749.96	45974.85
750.15	46351.68
750.33	46005.57
750.52	45925.70
750.70	46095.68
750.89	46382.40
751.07	45905.22
751.26	46167.36
751.44	45624.65
751.63	45692.23
751.81	45888.84
752.00	45542.73
752.18	46007.62
752.37	46134.59
752.55	45585.74
752.74	45659.46
752.92	45694.28
753.10	45477.19
753.29	45655.37
753.47	45241.68
753.66	45096.27
753.84	45958.47
754.03	45436.23
754.21	45120.85
754.40	45659.46
754.58	45534.54
754.77	45315.40
754.95	45385.04
755.14	45030.74
755.32	45165.90
755.51	44844.37
755.69	44762.45
755.88	44787.03
756.06	44959.06
756.24	44782.93
756.43	44879.19
756.61	45155.66
756.80	45104.46
756.98	44483.93
757.17	45086.03
757.35	44911.95
757.54	44957.01
757.72	45000.02
757.90	44672.34
758.09	44447.07
758.27	44490.07
758.46	43976.03
758.64	44508.50
758.83	44541.27
759.01	44447.07
759.19	44543.32
759.38	44571.99
759.56	44590.42
759.75	44713.30
759.93	44455.26
760.12	44275.04
760.30	44438.87
760.48	44285.28
760.67	44373.34
760.85	44344.67
761.04	44258.65
761.22	43978.08
761.40	44049.76
761.59	43980.13
761.77	43670.89
761.96	44125.53
762.14	44070.24
762.32	43683.17
762.51	43728.23
762.69	44162.40
762.88	43943.27
763.06	43117.93
763.24	43951.46
763.43	43251.05
763.61	43529.58
763.80	43703.65
763.98	43865.44
764.16	43543.91
764.35	43128.17
764.53	42898.80
764.72	43054.45
764.90	43191.66
765.08	43144.56
765.27	42900.85
765.45	43234.67
765.63	42861.94
765.82	42919.28
766.00	43060.59
766.18	42894.71
766.37	43531.62
766.55	43312.49
766.74	42988.91
766.92	42722.68
767.10	42644.85
767.29	42988.91
767.47	42632.57
767.65	43015.54
767.84	42243.45
768.02	42956.14
768.20	42216.83
768.39	42610.04
768.57	42816.88
768.75	42732.92
768.94	42288.51
769.12	42370.43
769.30	42325.37
769.49	42284.41
769.67	41833.86
769.85	41442.70
770.04	41809.28
770.22	41674.12
770.40	41911.68
770.59	41960.83
770.77	42073.47
770.95	42165.63
771.14	41198.99
771.32	41647.49
771.50	41442.70
771.69	41274.76
771.87	41909.63
772.05	41416.07
772.24	41137.55
772.42	41338.25
772.60	41117.07
772.78	41059.73
772.97	41049.49
773.15	41295.24
773.33	40983.95
773.52	41285.00
773.70	40883.60
773.88	41405.83
774.07	41260.43
774.25	40908.18
774.43	41516.42
774.61	41147.79
774.80	41569.67
774.98	41346.44
775.16	41170.32
775.34	41268.62
775.53	40879.50
775.71	41375.11
775.89	41125.26
776.08	41465.22
776.26	41561.48
776.44	41336.20
776.62	41221.52
776.81	41317.77
776.99	41422.22
777.17	40977.81
777.35	41147.79
777.54	41672.07
777.72	41352.58
777.90	41385.35
778.08	41561.48
778.27	41479.56
778.45	41678.21
778.63	41926.02
778.81	41375.11
779.00	42059.13
779.18	41541.00
779.36	41678.21
779.54	41131.40
779.73	41739.65
779.91	41749.89
780.09	41592.20
780.27	42003.84
780.46	42024.32
780.64	41854.34
780.82	41710.98
781.00	41627.01
781.19	41932.16
781.37	42368.38
781.55	42200.44
781.73	41936.26
781.91	41950.59
782.10	41905.54
782.28	41633.16
782.46	42122.62
782.64	42284.41
782.82	41950.59
783.01	42386.81
783.19	42003.84
783.37	42126.72
783.55	42169.72
783.74	42505.59
783.92	41874.82
784.10	42358.14
784.28	42300.79
784.46	41893.25
784.64	41932.16
784.83	42186.11
785.01	42096.00
785.19	42182.01
785.37	42294.65
785.55	42425.72
785.74	41686.40
785.92	41887.10
786.10	42204.54
786.28	42052.99
786.46	41743.75
786.64	41764.23
786.83	42169.72
787.01	41989.50
787.19	41919.87
787.37	42071.42
787.55	41657.73
787.74	41545.09
787.92	41440.65
788.10	41420.17
788.28	41524.61
788.46	41799.04
788.64	41469.32
788.82	41653.64
789.01	41377.16
789.19	41764.23
789.37	41631.11
789.55	41049.49
789.73	41098.64
789.91	41368.97
790.09	40963.47
790.28	41178.51
790.46	40996.24
790.64	40977.81
790.82	41018.77
791.00	40936.85
791.18	40824.21
791.36	40721.81
791.55	41143.69
791.73	40416.66
791.91	40338.84
792.09	40203.67
792.27	40172.96
792.45	40263.07
792.63	40160.67
792.81	40052.12
793.00	39892.38
793.18	39560.61
793.36	39490.98
793.54	39775.65
793.72	39542.18
793.90	39531.94
794.08	39675.30
794.26	39658.91
794.44	39302.57
794.62	39583.14
794.81	39253.42
794.99	39603.62
795.17	38997.42
795.35	39450.02
795.53	39304.62
795.71	39333.29
795.89	38884.78
796.07	38999.47
796.25	38598.07
796.43	38374.84
796.61	38198.71
796.80	38147.51
796.98	38514.10
797.16	38178.23
797.34	38081.98
797.52	37912.00
797.70	38413.75
797.88	37666.24
798.06	37709.25
798.24	37832.13
798.42	38016.44
798.60	37404.10
798.78	37453.25
798.96	37682.62
799.14	37313.99
799.32	37127.63
799.51	37150.15
799.69	37428.68
799.87	37234.12
800.05	36746.70
800.23	37342.66
800.41	36564.43
800.59	36978.12
800.77	36812.24
800.95	36060.63
801.13	36541.91
801.31	36617.68
801.49	36480.47
801.67	36361.69
801.85	36089.31
802.03	35945.95
802.21	36070.87
802.39	35722.72
802.57	35950.04
802.75	35948.00
802.93	35534.31
803.11	35366.37
803.29	35501.54
803.47	35601.89
803.65	35724.77
803.83	35374.56
804.01	35669.47
804.19	35081.70
804.37	35102.18
804.55	35001.83
804.73	35010.03
804.91	35026.41
805.09	35225.06
805.27	35050.99
805.45	35010.03
805.63	34577.90
805.81	34727.41
805.99	34536.94
806.17	34657.78
806.35	34629.10
806.53	34309.62
806.71	34463.22
806.89	34237.94
807.07	34336.24
807.25	34459.12
807.43	33859.07
807.61	34248.18
807.79	33988.09
807.97	33994.23
808.15	33568.26
808.33	34012.66
808.51	33818.11
808.69	33750.52
808.87	32955.91
809.05	33164.81
809.23	33267.20
809.41	33150.47
809.59	33043.98
809.77	33132.04
809.95	33074.70
810.13	32857.61
810.31	33177.09
810.49	33236.48
810.67	32773.64
810.84	33017.35
811.02	32890.38
811.20	32605.71
811.38	32755.21
811.56	32419.35
811.74	32726.54
811.92	32409.11
812.10	32380.43
812.28	32628.24
812.46	32230.93
812.64	32312.85
812.82	32005.66
813.00	32075.29
813.18	32073.24
813.36	32183.83
813.53	31667.74
813.71	32128.53
813.89	31567.39
814.07	31966.74
814.25	31632.93
814.43	31512.10
814.61	31923.74
814.79	31303.20
814.97	31338.02
815.15	30942.76
815.33	31196.71
815.50	31116.84
815.68	30961.19
815.86	31473.18
816.04	30981.67
816.22	30746.15
816.40	30797.35
816.58	30905.90
816.76	30934.57
816.94	30897.70
817.11	30600.75
817.29	30395.95
817.47	30654.00
817.65	30709.29
817.83	30676.52
818.01	30398.00
818.19	30604.84
818.37	30504.49
818.54	30033.46
818.72	30158.39
818.90	30088.76
819.08	30174.77
819.26	30178.87
819.44	30232.11
819.62	30156.34
819.80	30010.93
819.97	30033.46
820.15	29916.73
820.33	29994.55
820.51	29787.71
820.69	29636.16
820.87	29908.54
821.05	29935.16
821.22	29750.84
821.40	29484.61
821.58	29455.93
821.76	29265.47
821.94	29331.01
822.12	29451.84
822.29	29400.64
822.47	29314.62
822.65	29136.45
822.83	29525.57
823.01	29189.70
823.19	29085.25
823.36	29158.98
823.54	28935.75
823.72	28728.91
823.90	29005.38
824.08	29189.70
824.25	29105.73
824.43	28665.42
824.61	28423.76
824.79	28884.55
824.97	28464.72
825.15	28550.73
825.32	28632.65
825.50	28603.98
825.68	28284.50
825.86	28583.50
826.04	28540.49
826.21	28522.06
826.39	28442.19
826.57	28005.97
826.75	28110.42
826.93	27817.56
827.10	27995.73
827.28	28210.77
827.46	28434.00
827.64	27999.83
827.81	28075.60
827.99	28106.32
828.17	27756.12
828.35	27618.91
828.53	27919.96
828.70	27653.72
828.88	27711.07
829.06	27795.03
829.24	27690.59
829.41	27586.14
829.59	27876.95
829.77	27434.59
829.95	27573.85
830.12	27659.87
830.30	27623.00
830.48	27702.87
830.66	27516.51
830.84	27426.40
831.01	27369.05
831.19	27194.98
831.37	27280.99
831.55	27309.66
831.72	27481.69
831.90	26973.80
832.08	27010.66
832.25	27203.17
832.43	26973.80
832.61	26732.14
832.79	26664.55
832.96	26951.27
833.14	27063.91
833.32	27166.31
833.50	27031.14
833.67	27012.71
833.85	26654.31
834.03	26674.79
834.20	26682.98
834.38	26648.17
834.56	26701.42
834.74	26588.78
834.91	26478.19
835.09	26652.27
835.27	26170.99
835.44	26420.84
835.62	26035.83
835.80	25931.38
835.98	26426.99
836.15	25939.57
836.33	26216.05
836.51	26670.70
836.68	25986.68
836.86	25808.50
837.04	26093.17
837.21	26166.90
837.39	25796.21
837.57	26146.42
837.75	26091.12
837.92	25904.76
838.10	26130.03
838.28	25595.51
838.45	25575.03
838.63	25761.40
838.81	25818.74
838.98	25603.71
839.16	25308.80
839.34	25644.66
839.51	25470.59
839.69	25429.63
839.87	25507.45
840.04	25663.10
840.22	25534.07
840.40	25312.89
840.57	25101.95
840.75	25718.39
840.93	25218.69
841.10	25314.94
841.28	25419.39
841.46	25323.13
841.63	25472.64
841.81	25052.80
841.98	25136.77
842.16	25071.23
842.34	25314.94
842.51	24942.21
842.69	25335.42
842.87	24944.26
843.04	24997.51
843.22	24600.20
843.40	24790.66
843.57	25007.75
843.75	24815.24
843.92	25144.96
844.10	24921.73
844.28	24880.77
844.45	24798.85
844.63	24669.83
844.81	24776.33
844.98	24718.98
845.16	24379.02
845.33	24833.67
845.51	24581.77
845.69	24493.71
845.86	24508.04
846.04	24428.17
846.21	24585.86
846.39	24290.96
846.57	23989.91
846.74	24274.57
846.92	24297.10
847.09	24358.54
847.27	24118.93
847.45	24026.77
847.62	24305.29
847.80	24440.46
847.97	24536.71
848.15	23803.54
848.32	24110.74
848.50	23969.43
848.68	23748.25
848.85	23762.58
849.03	23639.70
849.20	23662.23
849.38	23793.30
849.56	23684.76
849.73	23754.39
849.91	23531.16
850.08	23910.04
850.26	23424.67
850.43	23541.40
850.61	23586.46
850.78	23301.79
850.96	23301.79
851.14	23287.45
851.31	23518.87
851.49	23160.48
851.66	23336.60
851.84	23598.74
852.01	23525.02
852.19	23166.62
852.36	23344.80
852.54	23103.14
852.71	23086.75
852.89	23025.31
853.07	23314.08
853.24	23324.32
853.42	22871.72
853.59	23176.86
853.77	23111.33
853.94	22943.39
854.12	23056.03
854.29	22732.45
854.47	23121.57
854.64	23094.94
854.82	22873.76
854.99	23013.02
855.17	22945.44
855.34	22892.19
855.52	22984.35
855.69	23021.22
855.87	22630.05
856.04	22795.94
856.22	22787.75
856.39	22681.25
856.57	22474.41
856.74	22294.19
856.92	22595.24
857.09	22406.83
857.27	22468.27
857.44	22466.22
857.62	22386.35
857.79	22476.46
857.97	22607.53
858.14	22476.46
858.32	22335.15
858.49	22613.67
858.67	22476.46
858.84	21849.78
859.02	22107.82
859.19	21886.64
859.37	21847.73
859.54	21708.47
859.72	22197.93
859.89	21956.27
860.06	22064.82
860.24	21966.51
860.41	22159.02
860.59	21782.20
860.76	22075.06
860.94	21620.41
861.11	22267.56
861.29	21880.50
861.46	21860.02
861.64	21634.74
861.81	21753.52
861.98	21757.62
862.16	21630.65
862.33	21446.33
862.51	21374.65
862.68	21825.20
862.86	21663.41
863.03	21501.62
863.21	21118.65
863.38	21698.23
863.55	21497.53
863.73	21139.13
863.90	21362.36
864.08	21198.52
864.25	21350.07
864.43	21313.21
864.60	20946.62
864.77	20958.91
864.95	21159.61
865.12	20817.60
865.30	20975.30
865.47	21085.89
865.64	20960.96
865.82	21032.64
865.99	21116.61
866.17	20903.62
866.34	20807.36
866.51	20649.67
866.69	20899.52
866.86	20606.66
867.04	20997.82
867.21	20657.86
867.38	20559.56
867.56	20455.11
867.73	20633.29
867.91	20395.72
868.08	20741.83
868.25	20444.87
868.43	20412.10
868.60	20469.45
868.78	20252.36
868.95	20524.74
869.12	20145.87
869.30	20164.30
869.47	20557.51
869.64	19947.22
869.82	20225.74
869.99	20096.72
870.16	20301.51
870.34	20025.04
870.51	20014.80
870.69	20119.24
870.86	20115.15
871.03	19973.84
871.21	19955.41
871.38	20059.85
871.55	19791.57
871.73	19760.85
871.90	19697.36
872.07	19789.52
872.25	19660.50
872.42	19627.73
872.59	19752.66
872.77	19580.63
872.94	19529.43
873.11	19656.40
873.29	19580.63
873.46	19373.78
873.63	19455.70
873.81	19541.72
873.98	19248.86
874.15	19298.01
874.33	18908.90
874.50	19242.71
874.67	19140.32
874.85	19209.95
875.02	18872.03
875.19	18970.33
875.37	18908.90
875.54	18853.60
875.71	18826.98
875.88	18783.97
876.06	18695.91
876.23	18853.60
876.40	18704.10
876.58	18843.36
876.75	18632.42
876.92	18589.41
877.10	18401.00
877.27	18665.19
877.44	18583.27
877.61	18478.82
877.79	18239.21
877.96	18472.68
878.13	18218.73
878.31	18321.13
878.48	17968.88
878.65	18071.28
878.82	17833.71
879.00	18142.96
879.17	18077.42
879.34	17970.93
879.51	18095.85
879.69	18083.56
879.86	17833.71
880.03	18104.04
880.21	17850.10
880.38	18188.01
880.55	18151.15
880.72	18134.76
880.90	17874.67
881.07	17723.12
881.24	17772.27
881.41	17934.06
881.59	17786.61
881.76	17841.90
881.93	17536.76
882.10	17448.69
882.28	17612.53
882.45	17491.70
882.62	17772.27
882.79	17587.96
882.96	17458.93
883.14	17350.39
883.31	17671.92
883.48	17524.47
883.65	17276.66
883.83	17356.54
884.00	17393.40
884.17	17395.45
884.34	17669.87
884.51	17456.89
884.69	17301.24
884.86	17155.83
885.03	17311.48
885.20	16844.54
885.38	17166.07
885.55	17125.11
885.72	17180.41
885.89	17157.88
886.06	17141.50
886.24	17301.24
886.41	17065.72
886.58	17299.19
886.75	17131.26
886.92	16750.34
887.10	17098.49
887.27	16846.59
887.44	17065.72
887.61	17096.44
887.78	17067.77
887.95	16971.52
888.13	16926.46
888.30	16701.19
888.47	16662.27
888.64	16899.84
888.81	16615.17
888.99	16824.06
889.16	16434.95
889.33	16592.64
889.50	16549.64
889.67	16289.54
889.84	16563.97
890.01	16535.30
890.19	16445.19
890.36	16400.13
890.53	16604.93
890.70	16426.76
890.87	16230.15
891.04	16598.79
891.22	16373.51
891.39	16035.60
891.56	16213.77
891.73	16068.36
891.90	15990.54
892.07	16203.53
892.24	16146.19
892.42	15877.90
892.59	16181.00
892.76	16037.64
892.93	16031.50
893.10	15920.91
893.27	15779.60
893.44	15841.04
893.61	15703.82
893.79	15798.03
893.96	15879.95
894.13	15816.46
894.30	15902.48
894.47	15851.28
894.64	16205.58
894.81	16047.88
894.98	15888.14
895.15	15980.30
895.33	15769.36
895.50	15851.28
895.67	16082.70
895.84	15779.60
896.01	15886.09
896.18	15636.24
896.35	16094.99
896.52	15638.29
896.69	15896.33
896.86	15720.21
897.04	15785.74
897.21	15535.89
897.38	15517.46
897.55	15791.89
897.72	15875.85
897.89	15705.87
898.06	15900.43
898.23	15531.80
898.40	15707.92
898.57	15537.94
898.74	15568.66
898.91	15533.84
899.08	15591.19
899.26	15638.29
899.43	15599.38
899.60	15718.16
899.77	15652.63
899.94	15591.19
900.11	15417.11
900.28	15533.84
900.45	15548.18
900.62	15468.31
900.79	15783.70
900.96	15703.82
901.13	15525.65
901.30	15496.98
901.47	15560.47
901.64	15316.76
901.81	15691.54
901.98	15386.39
902.15	15640.34
902.32	15273.75
902.49	15644.43
902.66	15576.85
902.83	15470.36
903.01	15306.52
903.18	15478.55
903.35	15298.33
903.52	15525.65
903.69	15666.96
903.86	15701.78
904.03	15552.27
904.20	15427.35
904.37	15628.05
904.54	15415.06
904.71	15458.07
904.88	15515.41
905.05	15222.55
905.22	15451.92
905.39	15363.86
905.56	15394.58
905.73	15492.88
905.90	15662.86
906.07	15601.43
906.24	15716.11
906.41	15245.08
906.58	15408.92
906.75	15494.93
906.92	15261.46
907.09	15437.59
907.26	15394.58
907.43	15124.25
907.60	15433.49
907.77	15638.29
907.93	15363.86
908.10	15404.82
908.27	15462.16
908.44	15212.31
908.61	15128.35
908.78	15165.21
908.95	15392.53
909.12	15015.71
909.29	15421.20
909.46	15478.55
909.63	15402.77
909.80	15329.05
909.97	15230.74
910.14	15214.36
910.31	15171.35
910.48	15327.00
910.65	15169.30
910.82	15347.48
910.99	15214.36
911.16	15021.85
911.33	15044.38
911.50	15206.17
911.66	15208.22
911.83	14970.65
912.00	14968.60
912.17	14888.73
912.34	15220.50
912.51	14880.54
912.68	15015.71
912.85	15189.78
913.02	14888.73
913.19	14815.01
913.36	15107.87
913.53	14786.33
913.70	14794.53
913.86	14769.95
914.03	14823.20
914.20	14704.42
914.37	14905.12
914.54	14677.79
914.71	14698.27
914.88	14565.15
915.05	14548.77
915.22	14499.62
915.39	14403.36
915.55	14454.56
915.72	14626.59
915.89	14466.85
916.06	14292.77
916.23	14120.74
916.40	14126.89
916.57	14196.52
916.74	14167.85
916.91	14038.83
917.07	14161.70
917.24	14028.59
917.41	14049.07
917.58	14235.43
917.75	13926.19
917.92	13975.34
918.09	13987.63
918.26	13823.79
918.42	13840.17
918.59	13817.65
918.76	13889.32
918.93	13567.79
919.10	13668.14
919.27	13590.32
919.44	13618.99
919.60	13510.45
919.77	13565.74
919.94	13664.05
920.11	13428.53
920.28	13422.39
920.45	13532.98
920.61	13176.63
920.78	13387.57
920.95	13166.39
921.12	13053.75
921.29	13152.06
921.46	13143.86
921.62	13137.72
921.79	12912.44
921.96	12977.98
922.13	13080.38
922.30	12857.15
922.47	12789.56
922.63	12664.64
922.80	12957.50
922.97	12627.78
923.14	12730.17
923.31	12654.40
923.47	12560.19
923.64	12762.94
923.81	12281.67
923.98	12560.19
924.15	12488.51
924.32	12463.94
924.48	12353.35
924.65	12306.24
924.82	12367.68
924.99	12158.79
925.15	12191.56
925.32	12154.69
925.49	11804.49
925.66	11796.30
925.83	11845.45
925.99	11892.55
926.16	11855.69
926.33	11900.75
926.50	11872.07
926.67	11618.13
926.83	11845.45
927.00	11710.29
927.17	11898.70
927.34	11442.00
927.50	11530.06
927.67	11706.19
927.84	11427.67
928.01	11409.23
928.17	11415.38
928.34	11310.93
928.51	11401.04
928.68	11212.63
928.84	11341.65
929.01	11081.56
929.18	10917.72
929.35	11026.26
929.51	10950.49
929.68	10809.18
929.85	10848.09
930.02	10762.08
930.18	10796.89
930.35	10669.92
930.52	10645.34
930.69	10710.88
930.85	10555.23
931.02	10456.93
931.19	10493.79
931.36	10413.92
931.52	10465.12
931.69	10350.43
931.86	10352.48
932.02	10149.73
932.19	10307.43
932.36	10151.78
932.53	9989.99
932.69	10094.44
932.86	10227.56
933.03	10119.01
933.19	9989.99
933.36	9856.87
933.53	10006.38
933.70	9838.44
933.86	9981.80
934.03	9779.05
934.20	9467.76
934.36	9734.00
934.53	9568.11
934.70	9588.59
934.86	9381.74
935.03	9238.39
935.20	9262.96
935.36	9328.50
935.53	9297.78
935.70	8939.38
935.86	9080.69
936.03	8941.43
936.20	8841.08
936.36	8710.01
936.53	8847.22
936.70	8646.52
936.86	8812.41
937.03	8531.84
937.20	8300.42
937.36	8505.21
937.53	8069.00
937.70	8241.03
937.86	8042.37
938.03	8003.46
938.20	8218.50
938.36	7899.02
938.53	7708.55
938.70	7505.81
938.86	7612.30
939.03	7632.78
939.20	7384.98
939.36	7245.71
939.53	7266.19
939.70	7466.89
939.86	7163.79
940.03	7081.88
940.19	6809.50
940.36	6997.91
940.53	7030.68
940.69	6631.32
940.86	6758.30
941.03	6647.71
941.19	6487.96
941.36	6528.92
941.52	6383.52
941.69	6330.27
941.86	6426.53
942.02	6303.65
942.19	6162.34
942.35	6172.58
942.52	6170.53
942.69	6049.70
942.85	5937.06
943.02	6037.41
943.18	6061.99
943.35	5918.63
943.52	5943.21
943.68	5795.75
943.85	5787.56
944.01	5705.64
944.18	5758.89
944.35	5687.21
944.51	5654.44
944.68	5533.61
944.84	5453.74
945.01	5517.23
945.17	5535.66
945.34	5533.61
945.51	5537.71
945.67	5539.76
945.84	5531.56
946.00	5332.91
946.17	5449.64
946.33	5482.41
946.50	5537.71
946.67	5412.78
946.83	5367.73
947.00	5437.36
947.16	5420.97
947.33	5371.82
947.49	5420.97
947.66	5357.49
947.82	5439.40
947.99	5390.25
948.16	5418.93
948.32	5248.94
948.49	5406.64
948.65	5437.36
948.82	5355.44
948.98	5418.93
949.15	5248.94
949.31	5414.83
949.48	5345.20
949.64	5283.76
949.81	5433.26
949.97	5404.59
950.14	5425.07
950.30	5349.29
950.47	5418.93
950.63	5330.86
950.80	5455.79
950.96	5369.77
951.13	5476.27
951.30	5457.84
951.46	5291.95
951.63	5429.17
951.79	5410.73
951.96	5447.60
952.12	5517.23
952.29	5461.93
952.45	5404.59
952.62	5631.91
952.78	5443.50
952.94	5377.97
953.11	5388.21
953.27	5408.69
953.44	5607.34
953.60	5560.24
953.77	5621.67
953.93	5539.76
954.10	5527.47
954.26	5562.28
954.43	5488.56
954.59	5619.63
954.76	5468.08
954.92	5625.77
955.09	5687.21
955.25	5468.08
955.42	5603.24
955.58	5631.91
955.75	5480.36
955.91	5506.99
956.07	5461.93
956.24	5556.14
956.40	5560.24
956.57	5533.61
956.73	5414.83
956.90	5687.21
957.06	5605.29
957.23	5537.71
957.39	5539.76
957.56	5613.48
957.72	5392.30
957.88	5427.12
958.05	5570.48
958.21	5752.74
958.38	5588.91
958.54	5547.95
958.71	5689.26
958.87	5425.07
959.03	5533.61
959.20	5470.12
959.36	5568.43
959.53	5461.93
959.69	5525.42
959.85	5502.89
960.02	5482.41
960.18	5603.24
960.35	5498.80
960.51	5547.95
960.68	5361.58
960.84	5672.87
961.00	5496.75
961.17	5476.27
961.33	5402.54
961.50	5328.81
961.66	5580.71
961.82	5396.40
961.99	5529.52
962.15	5541.80
962.31	5394.35
962.48	5482.41
962.64	5556.14
962.81	5586.86
962.97	5580.71
963.13	5566.38
963.30	5441.45
963.46	5529.52
963.62	5386.16
963.79	5482.41
963.95	5382.06
964.12	5369.77
964.28	5298.10
964.44	5330.86
964.61	5371.82
964.77	5437.36
964.93	5615.53
965.10	5498.80
965.26	5334.96
965.42	5492.65
965.59	5349.29
965.75	5357.49
965.92	5425.07
966.08	5367.73
966.24	5431.21
966.41	5410.73
966.57	5406.64
966.73	5386.16
966.90	5394.35
967.06	5373.87
967.22	5222.32
967.39	5345.20
967.55	5255.09
967.71	5291.95
967.88	5367.73
968.04	5214.13
968.20	5355.44
968.37	5275.57
968.53	5277.62
968.69	5203.89
968.85	5287.86
969.02	5476.27
969.18	5296.05
969.34	5189.55
969.51	5248.94
969.67	5234.61
969.83	5099.44
970.00	5214.13
970.16	5146.55
970.32	5058.48
970.48	5158.83
970.65	5199.79
970.81	5142.45
970.97	5095.35
971.14	5007.28
971.30	5212.08
971.46	5132.21
971.63	5087.15
971.79	5111.73
971.95	5140.40
972.11	4984.76
972.28	4999.09
972.44	5144.50
972.60	4902.84
972.76	5105.59
972.93	5005.24
973.09	5074.87
973.25	5054.39
973.42	5029.81
973.58	5015.48
973.74	5068.72
973.90	5064.63
974.07	4892.60
974.23	4835.25
974.39	4833.21
974.55	4818.87
974.72	4954.04
974.88	4913.08
975.04	4911.03
975.20	4843.45
975.37	4927.41
975.53	4763.58
975.69	4851.64
975.85	4839.35
976.01	4880.31
976.18	4640.70
976.34	4722.62
976.50	4800.44
976.66	4857.78
976.83	4855.73
976.99	4640.70
977.15	4720.57
977.31	4530.11
977.47	4693.94
977.64	4759.48
977.80	4716.47
977.96	4743.10
978.12	4581.31
978.29	4681.66
978.45	4630.46
978.61	4579.26
978.77	4638.65
978.93	4556.73
979.10	4616.12
979.26	4493.24
979.42	4632.51
979.58	4601.79
979.74	4495.29
979.91	4593.59
980.07	4485.05
980.23	4446.14
980.39	4542.39
980.55	4456.38
980.71	4419.52
980.88	4493.24
981.04	4423.61
981.20	4509.63
981.36	4499.39
981.52	4437.95
981.68	4356.03
981.85	4497.34
982.01	4415.42
982.17	4419.52
982.33	4417.47
982.49	4542.39
982.65	4290.49
982.82	4405.18
982.98	4466.62
983.14	4294.59
983.30	4468.67
983.46	4317.12
983.62	4218.82
983.79	4276.16
983.95	4296.64
984.11	4161.47
984.27	4241.34
984.43	4335.55
984.59	4351.93
984.75	4347.84
984.91	4194.24
985.08	4243.39
985.24	4075.46
985.40	4132.80
985.56	4196.29
985.72	4140.99
985.88	4181.95
986.04	4050.88
986.20	4061.12
986.37	4050.88
986.53	3962.82
986.69	4136.90
986.85	3989.44
987.01	4042.69
987.17	4048.83
987.33	4028.35
987.49	4067.27
987.65	4030.40
987.82	3999.68
987.98	3952.58
988.14	4061.12
988.30	4149.18
988.46	4104.13
988.62	4005.83
988.78	3887.04
988.94	3928.00
989.10	3913.67
989.26	3928.00
989.42	3819.46
989.59	3735.50
989.75	3962.82
989.91	3946.44
990.07	3764.17
990.23	3841.99
990.39	3813.32
990.55	3837.89
990.71	3774.41
990.87	3950.53
991.03	3786.69
991.19	3928.00
991.35	3844.04
991.51	3868.61
991.67	3807.17
991.83	3835.85
992.00	3833.80
992.16	3745.73
992.32	3837.89
992.48	3819.46
992.64	3661.77
992.80	3768.26
992.96	3686.34
993.12	3811.27
993.28	3778.50
993.44	3686.34
993.60	3708.87
993.76	3782.60
993.92	3645.38
994.08	3653.58
994.24	3755.97
994.40	3596.23
994.56	3672.01
994.72	3426.25
994.88	3579.85
995.04	3536.84
995.20	3588.04
995.36	3502.03
995.52	3585.99
995.68	3669.96
995.84	3391.44
996.00	3725.26
996.16	3540.94
996.32	3401.68
996.48	3475.40
996.64	3575.75
996.80	3547.08
996.96	3461.07
997.12	3524.55
997.28	3375.05
997.44	3366.86
997.60	3504.07
997.76	3395.53
997.92	3346.38
998.08	3473.36
998.24	3334.09
998.40	3448.78
998.56	3364.81
998.72	3436.49
998.88	3477.45
999.04	3426.25
999.20	3471.31
999.36	3352.52
999.52	3313.61
999.68	3420.11
999.84	3307.47
1000.00	3305.42
1000.16	3416.01
1000.32	3225.55
1000.48	3428.30
1000.64	3166.16
1000.80	3237.84
1000.95	3104.72
1001.11	3227.60
1001.27	3133.39
1001.43	3311.57
1001.59	3188.69
1001.75	3188.69
1001.91	3157.97
1002.07	3135.44
1002.23	3219.41
1002.39	3215.31
1002.55	3102.67
1002.71	3149.78
1002.87	3139.54
1003.03	3074.00
1003.19	3215.31
1003.34	3127.25
1003.50	3065.81
1003.66	3155.92
1003.82	3106.77
1003.98	2987.99
1004.14	3129.30
1004.30	3043.28
1004.46	3047.38
1004.62	3104.72
1004.78	3035.09
1004.94	3043.28
1005.09	3039.19
1005.25	2975.70
1005.41	2955.22
1005.57	2983.89
1005.73	2983.89
1005.89	2985.94
1006.05	3063.76
1006.21	3082.19
1006.37	2977.75
1006.52	3000.27
1006.68	2836.44
1006.84	3057.62
1007.00	2824.15
1007.16	3051.47
1007.32	2789.33
1007.48	2875.35
1007.64	2992.08
1007.79	2910.16
1007.95	2885.59
1008.11	3059.67
1008.27	2891.73
1008.43	2914.26
1008.59	2865.11
1008.75	2813.91
1008.91	2922.45
1009.06	2893.78
1009.22	2781.14
1009.38	2973.65
1009.54	2840.53
1009.70	2850.77
1009.86	2924.50
1010.01	2822.10
1010.17	2775.00
1010.33	2754.52
1010.49	2852.82
1010.65	2856.92
1010.81	2834.39
1010.96	2768.85
1011.12	2736.09
1011.28	2760.66
1011.44	2736.09
1011.60	2822.10
1011.76	2682.84
1011.91	2725.85
1012.07	2650.07
1012.23	2666.46
1012.39	2553.82
1012.55	2660.31
1012.71	2625.50
1012.86	2557.91
1013.02	2607.06
1013.18	2662.36
1013.34	2672.60
1013.50	2709.46
1013.65	2748.37
1013.81	2635.74
1013.97	2600.92
1014.13	2654.17
1014.29	2602.97
1014.44	2723.80
1014.60	2527.19
1014.76	2478.04
1014.92	2557.91
1015.07	2596.82
1015.23	2539.48
1015.39	2564.06
1015.55	2537.43
1015.71	2523.10
1015.86	2549.72
1016.02	2465.75
1016.18	2396.12
1016.34	2496.47
1016.49	2592.73
1016.65	2578.39
1016.81	2539.48
1016.97	2553.82
1017.12	2559.96
1017.28	2437.08
1017.44	2469.85
1017.60	2490.33
1017.75	2430.94
1017.91	2484.19
1018.07	2492.38
1018.23	2480.09
1018.38	2432.99
1018.54	2484.19
1018.70	2484.19
1018.86	2328.54
1019.01	2469.85
1019.17	2510.81
1019.33	2465.75
1019.49	2371.55
1019.64	2379.74
1019.80	2408.41
1019.96	2445.27
1020.12	2435.03
1020.27	2398.17
1020.43	2389.98
1020.59	2406.36
1020.74	2392.03
1020.90	2385.88
1021.06	2351.07
1021.22	2365.40
1021.37	2387.93
1021.53	2375.64
1021.69	2377.69
1021.84	2179.04
1022.00	2295.77
1022.16	2353.12
1022.31	2375.64
1022.47	2338.78
1022.63	2344.92
1022.79	2279.39
1022.94	2283.49
1023.10	2355.16
1023.26	2381.79
1023.41	2273.25
1023.57	2240.48
1023.73	2250.72
1023.88	2320.35
1024.04	2297.82
1024.20	2213.85
1024.35	2263.01
1024.51	2256.86
1024.67	2230.24
1024.82	2285.53
1024.98	2207.71
1025.14	2234.33
1025.29	2162.66
1025.45	2172.89
1025.61	2170.85
1025.76	2183.13
1025.92	2279.39
1026.08	2217.95
1026.23	2295.77
1026.39	2260.96
1026.55	2095.07
1026.70	2170.85
1026.86	2176.99
1027.02	2154.46
1027.17	2260.96
1027.33	2205.66
1027.48	2197.47
1027.64	2111.46
1027.80	2142.18
1027.95	2232.29
1028.11	2072.54
1028.27	2125.79
1028.42	2203.61
1028.58	2136.03
1028.73	2068.45
1028.89	2115.55
1029.05	2289.63
1029.20	2213.85
>>>>>End Processed Spectral Data<<<<<
