SpectraSuite Data File
++++++++++++++++++++++++++++++++++++
Date: Fri Jun 02 14:51:07 CEST 2017
User: INFO_000
Dark Spectrum Present: No
Reference Spectrum Present: No
Number of Sampled Component Spectra: 1
Spectrometers: USB4H00879
Integration Time (usec): 80000 (USB4H00879)
Spectra Averaged: 1 (USB4H00879)
Boxcar Smoothing: 0 (USB4H00879)
Correct for Electrical Dark: No (USB4H00879)
Strobe/Lamp Enabled: No (USB4H00879)
Correct for Detector Non-linearity: No (USB4H00879)
Correct for Stray Light: No (USB4H00879)
Number of Pixels in Processed Spectrum: 3648
>>>>>Begin Processed Spectral Data<<<<<
345.13	1308.65
345.34	1308.65
345.56	1308.65
345.78	1320.94
345.99	1261.55
346.21	1691.62
346.42	1658.85
346.64	1677.29
346.86	1730.53
347.07	1667.05
347.29	1722.34
347.50	1650.66
347.72	1722.34
347.94	1730.53
348.15	1587.18
348.37	1642.47
348.59	1720.29
348.80	1673.19
349.02	1816.55
349.23	1849.32
349.45	1773.54
349.67	1839.08
349.88	1810.40
350.10	1953.76
350.31	1894.37
350.53	1892.32
350.75	1947.62
350.96	1746.92
351.18	1863.65
351.39	1808.36
351.61	1822.69
351.82	1892.32
352.04	1871.84
352.26	1869.80
352.47	1849.32
352.69	1916.90
352.90	1816.55
353.12	1738.73
353.34	1818.60
353.55	1894.37
353.77	1814.50
353.98	1800.16
354.20	1863.65
354.41	1832.93
354.63	1908.71
354.85	2109.41
355.06	1871.84
355.28	1828.84
355.49	1861.60
355.71	1867.75
355.92	1822.69
356.14	1910.75
356.35	1861.60
356.57	1804.26
356.79	1955.81
357.00	1863.65
357.22	1957.86
357.43	1824.74
357.65	1980.39
357.86	1943.52
358.08	1845.22
358.29	1927.14
358.51	1970.15
358.72	1976.29
358.94	1843.17
359.16	1943.52
359.37	1890.28
359.59	1990.63
359.80	2013.15
360.02	1943.52
360.23	1920.99
360.45	1980.39
360.66	1943.52
360.88	1812.45
361.09	1923.04
361.31	1959.91
361.52	1966.05
361.74	2021.35
361.95	2088.93
362.17	1968.10
362.38	2072.54
362.60	2019.30
362.81	1990.63
363.03	1877.99
363.24	1980.39
363.46	2058.21
363.67	1961.95
363.89	1918.95
364.10	2015.20
364.32	1939.43
364.53	2070.50
364.75	1814.50
364.96	2037.73
365.18	2045.92
365.39	2039.78
365.61	1945.57
365.82	2054.11
366.04	1945.57
366.25	2031.58
366.47	2027.49
366.68	2000.87
366.90	2019.30
367.11	2080.74
367.33	2074.59
367.54	2125.79
367.76	1904.61
367.97	2093.02
368.19	2011.11
368.40	2002.91
368.62	1906.66
368.83	1925.09
369.05	1961.95
369.26	1902.56
369.48	1908.71
369.69	1976.29
369.91	2123.74
370.12	1984.48
370.33	2068.45
370.55	1980.39
370.76	2013.15
370.98	2052.06
371.19	2080.74
371.41	2000.87
371.62	2086.88
371.84	1937.38
372.05	2179.04
372.27	1984.48
372.48	2121.70
372.69	2078.69
372.91	2142.18
373.12	2127.84
373.34	2031.58
373.55	2084.83
373.77	2138.08
373.98	2136.03
374.20	2197.47
374.41	2222.05
374.62	2189.28
374.84	2121.70
375.05	2133.98
375.27	2183.13
375.48	2191.33
375.70	2131.94
375.91	2193.37
376.12	2263.01
376.34	2109.41
376.55	2115.55
376.77	2258.91
376.98	2142.18
377.19	2176.99
377.41	2121.70
377.62	2154.46
377.84	2256.86
378.05	2236.38
378.27	2203.61
378.48	2312.16
378.69	2355.16
378.91	2260.96
379.12	2242.53
379.34	2291.68
379.55	2299.87
379.76	2113.50
379.98	2154.46
380.19	2215.90
380.41	2181.09
380.62	2256.86
380.83	2291.68
381.05	2232.29
381.26	2338.78
381.47	2248.67
381.69	2330.59
381.90	2357.21
382.12	2310.11
382.33	2295.77
382.54	2217.95
382.76	2277.34
382.97	2279.39
383.19	2248.67
383.40	2404.32
383.61	2199.52
383.83	2285.53
384.04	2318.30
384.25	2318.30
384.47	2330.59
384.68	2330.59
384.89	2277.34
385.11	2308.06
385.32	2265.05
385.54	2314.20
385.75	2265.05
385.96	2412.51
386.18	2418.65
386.39	2334.68
386.60	2334.68
386.82	2371.55
387.03	2389.98
387.24	2351.07
387.46	2340.83
387.67	2447.32
387.88	2508.76
388.10	2510.81
388.31	2478.04
388.52	2498.52
388.74	2535.39
388.95	2557.91
389.16	2426.84
389.38	2426.84
389.59	2516.95
389.80	2605.02
390.02	2553.82
390.23	2643.93
390.44	2404.32
390.66	2475.99
390.87	2498.52
391.08	2615.26
391.30	2639.83
391.51	2568.15
391.72	2672.60
391.94	2557.91
392.15	2461.66
392.36	2514.91
392.58	2543.58
392.79	2562.01
393.00	2643.93
393.22	2566.10
393.43	2609.11
393.64	2779.09
393.85	2715.61
394.07	2541.53
394.28	2641.88
394.49	2682.84
394.71	2721.75
394.92	2736.09
395.13	2682.84
395.35	2596.82
395.56	2766.81
395.77	2699.22
395.98	2760.66
396.20	2818.00
396.41	2707.41
396.62	2752.47
396.84	2727.89
397.05	2754.52
397.26	2824.15
397.47	2861.01
397.69	2815.96
397.90	2912.21
398.11	2824.15
398.32	2809.81
398.54	2822.10
398.75	2863.06
398.96	2836.44
399.18	2944.98
399.39	2955.22
399.60	2971.60
399.81	2850.77
400.03	2875.35
400.24	3194.83
400.45	2899.92
400.66	2932.69
400.88	3002.32
401.09	3092.43
401.30	3016.66
401.51	3010.51
401.73	3026.90
401.94	2953.17
402.15	2987.99
402.36	3129.30
402.58	3067.86
402.79	3160.02
403.00	3151.82
403.21	3082.19
403.43	3045.33
403.64	3100.62
403.85	3184.59
404.06	3098.58
404.27	3092.43
404.49	3196.88
404.70	3084.24
404.91	3235.79
405.12	3248.08
405.34	3147.73
405.55	3387.34
405.76	3035.09
405.97	3164.11
406.19	3321.81
406.40	3178.45
406.61	3260.37
406.82	3205.07
407.03	3338.19
407.25	3274.70
407.46	3377.10
407.67	3368.91
407.88	3311.57
408.09	3309.52
408.31	3334.09
408.52	3268.56
408.73	3239.89
408.94	3352.52
409.15	3346.38
409.37	3420.11
409.58	3411.92
409.79	3364.81
410.00	3542.99
410.21	3397.58
410.43	3350.48
410.64	3358.67
410.85	3407.82
411.06	3481.55
411.27	3563.47
411.48	3557.32
411.70	3534.79
411.91	3534.79
412.12	3481.55
412.33	3563.47
412.54	3477.45
412.76	3753.93
412.97	3526.60
413.18	3526.60
413.39	3499.98
413.60	3649.48
413.81	3680.20
414.03	3489.74
414.24	3606.47
414.45	3768.26
414.66	3452.88
414.87	3573.71
415.08	3641.29
415.30	3657.67
415.51	3704.78
415.72	3700.68
415.93	3743.69
416.14	3669.96
416.35	3588.04
416.56	3723.21
416.78	3803.08
416.99	3717.06
417.20	3772.36
417.41	3821.51
417.62	3841.99
417.83	3917.76
418.04	3753.93
418.26	3882.95
418.47	3788.74
418.68	3946.44
418.89	3936.20
419.10	3975.11
419.31	3932.10
419.52	3913.67
419.73	3880.90
419.95	3858.37
420.16	3868.61
420.37	3921.86
420.58	4034.50
420.79	3860.42
421.00	3999.68
421.21	3958.72
421.42	3977.16
421.63	3993.54
421.85	3930.05
422.06	4124.61
422.27	4091.84
422.48	4044.74
422.69	4136.90
422.90	4095.94
423.11	4089.79
423.32	4272.06
423.53	4284.35
423.75	4177.86
423.96	4288.45
424.17	4204.48
424.38	4347.84
424.59	4362.17
424.80	4487.10
425.01	4343.74
425.22	4315.07
425.43	4304.83
425.64	4573.11
425.85	4577.21
426.06	4319.17
426.28	4419.52
426.49	4388.80
426.70	4370.37
426.91	4429.76
427.12	4523.96
427.33	4485.05
427.54	4444.09
427.75	4501.44
427.96	4730.81
428.17	4685.75
428.38	4605.88
428.59	4638.65
428.80	4716.47
429.01	4548.54
429.23	4609.98
429.44	4911.03
429.65	4763.58
429.86	4739.00
430.07	4679.61
430.28	4837.30
430.49	4794.29
430.70	4968.37
430.91	4915.12
431.12	4782.01
431.33	4884.41
431.54	4976.56
431.75	5001.14
431.96	5031.86
432.17	4841.40
432.38	5089.20
432.59	5087.15
432.80	5015.48
433.01	5072.82
433.22	5115.83
433.43	5173.17
433.64	5142.45
433.85	5081.01
434.06	5265.33
434.27	4954.04
434.49	5222.32
434.70	5296.05
434.91	5197.74
435.12	5197.74
435.33	5277.62
435.54	5343.15
435.75	5019.57
435.96	5236.66
436.17	5177.26
436.38	5380.01
436.59	5306.29
436.80	5167.03
437.01	5593.00
437.22	5470.12
437.43	5463.98
437.64	5259.18
437.85	5676.97
438.06	5494.70
438.27	5377.97
438.48	5566.38
438.69	5623.72
438.90	5492.65
439.11	5439.40
439.32	5638.06
439.53	5603.24
439.74	5664.68
439.95	5705.64
440.16	5560.24
440.37	5529.52
440.57	5552.04
440.78	5814.18
440.99	5752.74
441.20	5683.11
441.41	5582.76
441.62	5767.08
441.83	5697.45
442.04	5928.87
442.25	5844.90
442.46	5943.21
442.67	6100.90
442.88	6277.02
443.09	5695.40
443.30	5935.01
443.51	6082.47
443.72	6107.04
443.93	5949.35
444.14	6158.24
444.35	5959.59
444.56	6088.61
444.77	6057.89
444.98	6113.19
445.19	6242.21
445.40	6258.59
445.61	6139.81
445.81	6277.02
446.02	6385.57
446.23	6184.87
446.44	6188.96
446.65	6217.63
446.86	6358.94
447.07	6557.60
447.28	6545.31
447.49	6465.44
447.70	6279.07
447.91	6438.81
448.12	6479.77
448.33	6578.08
448.54	6422.43
448.74	6490.01
448.95	6623.13
449.16	6420.38
449.37	6776.73
449.58	6496.16
449.79	6825.88
450.00	6588.32
450.21	6977.43
450.42	6844.31
450.63	6961.05
450.84	6782.87
451.05	7032.72
451.25	6967.19
451.46	6825.88
451.67	7030.68
451.88	6999.96
452.09	7155.60
452.30	6850.46
452.51	6932.37
452.72	7145.36
452.93	7419.79
453.13	6864.79
453.34	7016.34
453.55	7286.67
453.76	7149.46
453.97	7475.09
454.18	7384.98
454.39	7436.17
454.60	7382.93
454.81	7235.47
455.01	7591.82
455.22	7272.34
455.43	7475.09
455.64	7769.99
455.85	7706.51
456.06	7778.19
456.27	7552.91
456.48	7499.66
456.68	7669.64
456.89	7610.25
457.10	7690.12
457.31	7671.69
457.52	7827.34
457.73	7833.48
457.94	8148.87
458.14	7825.29
458.35	8124.29
458.56	7942.02
458.77	7937.93
458.98	8069.00
459.19	8066.95
459.39	8161.16
459.60	8271.75
459.81	8171.40
460.02	8257.41
460.23	8363.90
460.44	8568.70
460.65	8415.10
460.85	8570.75
461.06	8535.93
461.27	8032.13
461.48	8464.25
461.69	8761.21
461.89	8599.42
462.10	8660.86
462.31	8546.17
462.52	8486.78
462.73	8667.00
462.94	8701.82
463.14	8693.63
463.35	8675.20
463.56	9168.76
463.77	9013.11
463.98	8929.14
464.18	8982.39
464.39	9097.08
464.60	9238.39
464.81	9146.23
465.02	9148.28
465.23	9371.50
465.43	9310.07
465.64	9574.25
465.85	9334.64
466.06	9279.35
466.27	9668.46
466.47	9480.05
466.68	9516.91
466.89	9643.88
467.10	9871.21
467.30	9523.05
467.51	9854.83
467.72	10121.06
467.93	9582.45
468.14	9901.93
468.34	10114.92
468.55	9944.94
468.76	10082.15
468.97	9873.26
469.17	10340.19
469.38	10356.58
469.59	10571.61
469.80	10235.75
470.01	10270.56
470.21	10467.17
470.42	10530.66
470.63	10665.82
470.84	10686.30
471.04	10557.28
471.25	10680.16
471.46	10665.82
471.67	10864.47
471.87	10831.71
472.08	10981.21
472.29	11237.20
472.50	10925.91
472.70	11026.26
472.91	11087.70
473.12	11296.60
473.33	11431.76
473.53	11595.60
473.74	11407.19
473.95	11503.44
474.16	11822.92
474.36	11880.27
474.57	11937.61
474.78	11921.23
474.99	12033.86
475.19	12007.24
475.40	12044.10
475.61	12349.25
475.81	12332.87
476.02	12461.89
476.23	12416.83
476.44	12474.18
476.64	12701.50
476.85	12842.81
477.06	12947.26
477.27	12939.07
477.47	13080.38
477.68	13029.18
477.89	13242.17
478.09	13111.10
478.30	13279.03
478.51	13236.02
478.71	13494.07
478.92	13690.67
479.13	13575.98
479.34	13975.34
479.54	13928.24
479.75	13649.71
479.96	13987.63
480.16	14120.74
480.37	13950.76
480.58	14331.69
480.78	14563.11
480.99	14460.71
481.20	14731.04
481.41	14489.38
481.61	14761.76
481.82	14878.49
482.03	14903.07
482.23	14808.86
482.44	14964.51
482.65	15204.12
482.85	15226.65
483.06	15363.86
483.27	15335.19
483.47	15406.87
483.68	15529.75
483.89	15570.71
484.09	15683.34
484.30	15795.98
484.51	15970.06
484.71	16037.64
484.92	15988.49
485.13	16586.50
485.33	16336.65
485.54	16428.81
485.75	16596.74
485.95	16664.32
486.16	16709.38
486.37	16955.13
486.57	16817.92
486.78	16789.25
486.98	16912.13
487.19	17026.81
487.40	17413.88
487.60	17049.34
487.81	17542.90
488.02	17522.42
488.22	17516.28
488.43	17510.13
488.64	17784.56
488.84	17833.71
489.05	18179.82
489.25	18079.47
489.46	18251.50
489.67	18382.57
489.87	18558.69
490.08	18740.96
490.29	18538.21
490.49	18833.12
490.70	18820.83
490.90	18958.05
491.11	18841.31
491.32	19295.96
491.52	18980.57
491.73	19117.79
491.94	19207.90
492.14	19310.30
492.35	19302.11
492.55	19635.92
492.76	19621.59
492.97	19883.73
493.17	19744.47
493.38	19959.50
493.58	20123.34
493.79	20061.90
494.00	20178.64
494.20	20010.70
494.41	20326.09
494.61	20547.27
494.82	20500.17
495.02	20530.89
495.23	20770.50
495.44	20764.36
495.64	20754.12
495.85	20889.28
496.05	21110.46
496.26	21145.28
496.47	21421.75
496.67	21147.33
496.88	21083.84
497.08	21319.35
497.29	21563.06
497.49	21405.37
497.70	21905.07
497.91	21986.99
498.11	21851.83
498.32	22030.00
498.52	21968.56
498.73	22242.99
498.93	22150.83
499.14	22378.15
499.34	22431.40
499.55	22396.59
499.76	22386.35
499.96	22445.74
500.17	22668.97
500.37	22523.56
500.58	22554.28
500.78	22828.71
500.99	22959.78
501.19	22859.43
501.40	23178.91
501.60	23217.82
501.81	23389.85
502.02	23279.26
502.22	23242.40
502.43	23668.37
502.63	23553.69
502.84	23633.56
503.04	23465.63
503.25	23344.80
503.45	23631.51
503.66	23871.12
503.86	23875.22
504.07	24295.05
504.27	24129.17
504.48	23875.22
504.68	24206.99
504.89	24319.63
505.09	24649.35
505.30	24485.51
505.50	24491.66
505.71	24655.50
505.91	24561.29
506.12	24598.15
506.32	24620.68
506.53	24833.67
506.73	24678.02
506.94	24774.28
507.14	25038.47
507.35	25038.47
507.55	24592.01
507.76	25108.10
507.96	24866.44
508.17	24897.16
508.37	25124.48
508.58	25020.03
508.78	25280.13
508.99	25611.90
509.19	25425.53
509.40	25532.03
509.60	25591.42
509.81	25489.02
510.01	25323.13
510.22	25435.77
510.42	25640.57
510.63	25714.30
510.83	25620.09
511.04	25669.24
511.24	25749.11
511.44	25759.35
511.65	25851.51
511.85	26099.31
512.06	25759.35
512.26	26095.22
512.47	25980.53
512.67	26164.85
512.88	26416.75
513.08	25960.05
513.29	26345.07
513.49	26328.69
513.69	26195.57
513.90	26101.36
514.10	26457.71
514.31	26044.02
514.51	26338.93
514.72	26639.98
514.92	26269.30
515.13	26252.91
515.33	26807.91
515.53	26269.30
515.74	26910.31
515.94	26947.17
516.15	26816.10
516.35	26685.03
516.56	27004.52
516.76	26680.94
516.96	27111.01
517.17	27158.11
517.37	27158.11
517.58	26885.73
517.78	27102.82
517.99	26990.18
518.19	27244.13
518.39	27485.79
518.60	27522.65
518.80	27166.31
519.01	27524.70
519.21	27178.59
519.41	27407.97
519.62	27633.24
519.82	27383.39
520.03	27592.28
520.23	27858.52
520.43	27725.40
520.64	27885.14
520.84	28061.27
521.05	27842.14
521.25	28116.56
521.45	28536.40
521.66	28245.58
521.86	28036.69
522.07	28057.17
522.27	28333.65
522.47	28210.77
522.68	28606.03
522.88	28241.49
523.08	28659.27
523.29	28941.89
523.49	28724.81
523.70	28644.94
523.90	28966.47
524.10	29107.78
524.31	29222.47
524.51	28644.94
524.71	29472.32
524.92	28964.42
525.12	29308.48
525.33	29509.18
525.53	29283.91
525.73	29910.58
525.94	29656.64
526.14	29480.51
526.34	29908.54
526.55	29603.39
526.75	29830.71
526.95	29937.21
527.16	29718.07
527.36	29926.97
527.56	30477.87
527.77	30486.06
527.97	30379.57
528.17	30115.38
528.38	30422.58
528.58	30631.47
528.78	30764.59
528.99	30447.15
529.19	31053.35
529.39	30678.57
529.60	31104.55
529.80	30905.90
530.00	30893.61
530.21	31192.61
530.41	31368.74
530.61	31059.49
530.82	31233.57
531.02	31190.56
531.22	31440.42
531.43	31594.01
531.63	31921.69
531.83	31981.08
532.04	32402.96
532.24	31954.46
532.44	32187.92
532.64	32079.38
532.85	32675.34
533.05	32226.84
533.25	32581.13
533.46	32366.10
533.66	32994.82
533.86	32706.06
534.07	32855.56
534.27	33046.02
534.47	32886.28
534.67	33156.61
534.88	33138.18
535.08	33076.74
535.28	33138.18
535.49	33388.03
535.69	33801.72
535.89	33816.06
536.09	34016.76
536.30	34145.78
536.50	34145.78
536.70	34125.30
536.91	34303.48
537.11	34377.20
537.31	34326.00
537.51	34559.47
537.72	34608.62
537.92	34792.94
538.12	35083.75
538.32	34794.99
538.53	34921.96
538.73	34868.72
538.93	34706.93
539.13	35190.25
539.34	34764.27
539.54	35053.03
539.74	35487.20
539.94	35362.28
540.15	35239.40
540.35	35661.28
540.55	35438.05
540.75	35519.97
540.96	35935.71
541.16	36158.94
541.36	36058.59
541.56	36298.20
541.77	36353.49
541.97	36173.27
542.17	36660.69
542.37	36570.58
542.58	36607.44
542.78	36455.89
542.98	36718.03
543.18	36855.25
543.38	37012.94
543.59	37256.65
543.79	36808.14
543.99	36994.51
544.19	37338.57
544.40	37182.92
544.60	37348.81
544.80	37252.55
545.00	37555.65
545.20	37729.73
545.41	37350.85
545.61	37281.22
545.81	37963.20
546.01	37916.09
546.21	38094.27
546.42	38221.24
546.62	38462.90
546.82	37889.47
547.02	38184.38
547.22	38378.93
547.43	38307.26
547.63	38503.86
547.83	38559.16
548.03	38417.85
548.23	38872.49
548.44	38684.08
548.64	38657.46
548.84	38766.00
549.04	38708.66
549.24	38954.41
549.45	39503.27
549.65	39073.20
549.85	38868.40
550.05	39304.62
550.25	39476.65
550.45	39775.65
550.66	39533.99
550.86	39517.60
551.06	40191.39
551.26	39777.70
551.46	39902.62
551.66	40025.50
551.87	40002.97
552.07	40314.26
552.27	39978.40
552.47	40361.37
552.67	40535.45
552.87	40404.38
553.07	40719.76
553.28	40699.28
553.48	40541.59
553.68	40355.22
553.88	41188.75
554.08	40383.90
554.28	40670.61
554.48	40279.45
554.69	40664.47
554.89	40791.44
555.09	40816.02
555.29	40506.77
555.49	40953.23
555.69	40682.90
555.89	40983.95
556.10	41026.96
556.30	41041.29
556.50	41395.59
556.70	41108.88
556.90	40981.90
557.10	41424.26
557.30	41401.74
557.50	41225.61
557.70	41710.98
557.91	41846.15
558.11	41528.71
558.31	41577.86
558.51	41862.53
558.71	41635.20
558.91	42091.90
559.11	41422.22
559.31	41883.01
559.51	41868.67
559.72	41846.15
559.92	42177.92
560.12	42007.94
560.32	42311.03
560.52	42016.13
560.72	42065.28
560.92	42440.06
561.12	42339.71
561.32	42333.56
561.52	41659.78
561.72	43103.60
561.93	42128.77
562.13	42526.07
562.33	42032.51
562.53	42614.13
562.73	42067.33
562.93	42337.66
563.13	42833.27
563.33	42311.03
563.53	42610.04
563.73	42055.04
563.93	42429.82
564.13	42702.20
564.33	42900.85
564.53	42929.52
564.74	42782.07
564.94	42898.80
565.14	42952.05
565.34	43040.11
565.54	43048.30
565.74	42970.48
565.94	43337.07
566.14	43244.91
566.34	43183.47
566.54	43562.34
566.74	42915.19
566.94	43238.76
567.14	43365.74
567.34	43128.17
567.54	43285.87
567.74	43107.69
567.94	42986.86
568.14	43588.97
568.34	43357.55
568.54	43414.89
568.74	44014.94
568.94	43627.88
569.14	43748.71
569.34	43875.68
569.54	43535.72
569.75	43674.98
569.95	43758.95
570.15	44174.69
570.35	43615.59
570.55	43730.28
570.75	44029.28
570.95	43896.16
571.15	43709.80
571.35	43892.07
571.55	44162.40
571.75	43496.81
571.95	43709.80
572.15	43449.70
572.35	44178.78
572.55	43859.30
572.75	43890.02
572.95	44201.31
573.15	44103.01
573.35	44031.33
573.55	43836.77
573.75	44528.98
573.95	44205.41
574.15	44205.41
574.35	44434.78
574.55	44359.00
574.75	43767.14
574.95	43660.65
575.15	44428.63
575.34	44445.02
575.54	44508.50
575.74	44465.50
575.94	44571.99
576.14	44473.69
576.34	44766.55
576.54	44526.94
576.74	44559.70
576.94	44666.20
577.14	45090.13
577.34	44709.21
577.54	44518.74
577.74	44741.97
577.94	44995.92
578.14	44672.34
578.34	45055.31
578.54	44567.90
578.74	45403.47
578.94	45374.80
579.14	44920.15
579.34	44782.93
579.54	45241.68
579.74	45258.06
579.94	45466.95
580.13	45208.91
580.33	45176.14
580.53	45397.32
580.73	45483.34
580.93	45223.25
581.13	45057.36
581.33	45694.28
581.53	45577.54
581.73	45608.26
581.93	45456.71
582.13	45759.81
582.33	45657.42
582.53	45088.08
582.73	46021.95
582.92	45784.39
583.12	45901.12
583.32	45843.78
583.52	45851.97
583.72	45847.88
583.92	45970.75
584.12	45733.19
584.32	46396.73
584.52	45954.37
584.72	45933.89
584.92	46443.84
585.11	46527.80
585.31	46304.57
585.51	46310.72
585.71	45901.12
585.91	46499.13
586.11	46099.78
586.31	45987.14
586.51	46196.03
586.71	46388.54
586.91	46683.45
587.10	46855.48
587.30	46599.48
587.50	46589.24
587.70	46667.06
587.90	46529.85
588.10	46677.30
588.30	46355.77
588.50	47093.04
588.69	46568.76
588.89	46513.47
589.09	46787.89
589.29	46828.85
589.49	46994.74
589.69	46595.38
589.89	47023.41
590.08	47314.22
590.28	46777.65
590.48	46884.15
590.68	46671.16
590.88	47195.44
591.08	47166.77
591.28	46861.62
591.47	47858.98
591.67	47197.49
591.87	47107.38
592.07	47058.23
592.27	47406.38
592.47	47244.59
592.67	47357.23
592.86	47125.81
593.06	47680.81
593.26	47693.10
593.46	47705.38
593.66	47322.41
593.86	47600.94
594.05	47615.27
594.25	48008.48
594.45	47439.15
594.65	47631.66
594.85	47717.67
595.05	48332.06
595.24	48366.88
595.44	47725.86
595.64	48252.19
595.84	47969.57
596.04	47815.97
596.23	48196.90
596.43	48624.92
596.63	48207.14
596.83	48291.10
597.03	48495.90
597.22	48583.96
597.42	48563.48
597.62	49118.48
597.82	48368.93
598.02	48454.94
598.21	48919.83
598.41	48549.15
598.61	48309.53
598.81	48686.36
599.01	48745.75
599.20	48522.52
599.40	48667.93
599.60	49333.52
599.80	49181.97
600.00	49157.39
600.19	49184.02
600.39	49095.95
600.59	49468.69
600.79	49198.35
600.98	49042.71
601.18	49847.56
601.38	49857.80
601.58	49685.77
601.78	49681.67
601.97	49825.03
602.17	50021.64
602.37	49945.86
602.57	49589.52
602.76	49845.51
602.96	49947.91
603.16	50470.14
603.36	50054.40
603.55	50461.95
603.75	50167.04
603.95	50547.96
604.15	50656.51
604.34	50244.87
604.54	50377.98
604.74	50685.18
604.94	50922.74
605.13	50615.55
605.33	50984.18
605.53	50504.96
605.73	51180.79
605.92	51158.26
606.12	50980.09
606.32	51139.83
606.52	50658.56
606.71	50947.32
606.91	51348.72
607.11	50885.88
607.30	51401.97
607.50	50744.57
607.70	51299.57
607.90	50722.04
608.09	51328.24
608.29	51555.57
608.49	51502.32
608.68	51619.05
608.88	51741.93
609.08	51748.07
609.28	51690.73
609.47	51660.01
609.67	52247.78
609.87	51561.71
610.06	52204.77
610.26	51809.51
610.46	52270.31
610.66	51819.75
610.85	52020.45
611.05	51821.80
611.25	52292.83
611.44	52010.21
611.64	52528.35
611.84	52307.17
612.03	51928.30
612.23	52704.48
612.43	52438.24
612.62	52368.61
612.82	52753.63
613.02	52356.32
613.21	52483.30
613.41	52473.06
613.61	52653.28
613.80	52090.09
614.00	52329.70
614.20	52423.90
614.39	52759.77
614.59	52733.15
614.79	52819.16
614.98	52507.87
615.18	52360.42
615.38	52518.11
615.57	52909.27
615.77	52937.94
615.97	52944.09
616.16	52901.08
616.36	52724.96
616.56	53265.62
616.75	52976.86
616.95	52999.38
617.15	52745.44
617.34	52647.13
617.54	53069.01
617.74	53146.84
617.93	53187.80
618.13	52747.48
618.32	53376.21
618.52	52794.59
618.72	53251.28
618.91	53030.10
619.11	52684.00
619.31	53417.17
619.50	53130.45
619.70	52958.42
619.90	53445.84
620.09	53343.44
620.29	52899.03
620.48	53091.54
620.68	53677.26
620.88	53073.11
621.07	53406.93
621.27	53675.21
621.46	53222.61
621.66	52942.04
621.86	52876.51
622.05	53425.36
622.25	53636.30
622.44	53675.21
622.64	53253.33
622.84	53458.13
623.03	53253.33
623.23	53466.32
623.42	53933.26
623.62	53806.28
623.82	53662.93
624.01	53499.09
624.21	53777.61
624.40	53421.26
624.60	53638.35
624.80	53232.85
624.99	53673.16
625.19	53296.34
625.38	53494.99
625.58	54277.32
625.77	53691.60
625.97	54019.27
626.17	53744.84
626.36	53769.42
626.56	53691.60
626.75	53531.86
626.95	54011.08
627.14	53697.74
627.34	53818.57
627.54	53888.20
627.73	54197.44
627.93	54086.85
628.12	53851.34
628.32	53517.52
628.51	53675.21
628.71	53705.93
628.90	54082.76
629.10	53277.91
629.30	53773.52
629.49	53877.96
629.69	53867.72
629.88	53808.33
630.08	54367.43
630.27	54478.02
630.47	53968.07
630.66	53884.11
630.86	54369.47
631.05	53728.46
631.25	54422.72
631.44	54236.36
631.64	53927.11
631.84	54179.01
632.03	54940.86
632.23	54060.23
632.42	54064.33
632.62	53994.70
632.81	54187.21
633.01	54191.30
633.20	54521.02
633.40	54488.26
633.59	54164.68
633.79	54310.08
633.98	54408.39
634.18	54174.92
634.37	54422.72
634.57	54533.31
634.76	54334.66
634.96	54621.37
635.15	54557.89
635.35	54140.10
635.54	54324.42
635.74	54613.18
635.93	54412.48
636.13	54588.61
636.32	54869.18
636.52	54367.43
636.71	54760.64
636.91	54480.06
637.10	54830.27
637.30	54844.60
637.49	53992.65
637.69	54523.07
637.88	55063.74
638.08	54944.95
638.27	55096.50
638.46	54723.77
638.66	54353.09
638.85	54303.94
639.05	54779.07
639.24	54938.81
639.44	54432.96
639.63	54887.61
639.83	54895.80
640.02	54590.66
640.22	54525.12
640.41	54674.62
640.61	54506.69
640.80	54846.65
640.99	54711.49
641.19	55401.65
641.38	55084.22
641.58	54703.29
641.77	54631.61
641.97	54484.16
642.16	54428.87
642.36	54699.20
642.55	54871.23
642.74	54348.99
642.94	55039.16
643.13	54758.59
643.33	55129.27
643.52	55303.35
643.72	55219.38
643.91	54707.39
644.10	55186.61
644.30	55405.75
644.49	54502.59
644.69	55149.75
644.88	55035.06
645.08	55354.55
645.27	55170.23
645.46	55180.47
645.66	55571.63
645.85	54623.42
646.05	54779.07
646.24	54510.78
646.43	54858.94
646.63	55272.63
646.82	55231.67
647.02	55284.92
647.21	55182.52
647.40	55186.61
647.60	55145.65
647.79	55395.51
647.99	55655.60
648.18	55035.06
648.37	55491.76
648.57	55422.13
648.76	55147.70
648.96	54439.11
649.15	55110.84
649.34	55504.05
649.54	55366.84
649.73	55000.25
649.92	55764.14
650.12	54723.77
650.31	55764.14
650.51	54869.18
650.70	55999.66
650.89	55456.95
651.09	55923.88
651.28	55436.47
651.47	55424.18
651.67	55329.97
651.86	55694.51
652.06	55047.35
652.25	55530.67
652.44	55114.94
652.64	55389.36
652.83	55172.28
653.02	55026.87
653.22	55428.27
653.41	55176.37
653.60	54881.47
653.80	55092.41
653.99	55321.78
654.18	54860.99
654.38	54731.96
654.57	55276.72
654.76	55573.68
654.96	55016.63
655.15	55192.76
655.34	55284.92
655.54	54959.29
655.73	55336.12
655.92	55590.06
656.12	55289.01
656.31	55008.44
656.50	54920.38
656.70	55375.03
656.89	54811.84
657.08	55043.26
657.28	55137.46
657.47	55403.70
657.66	55352.50
657.86	54928.57
658.05	55121.08
658.24	55559.34
658.43	54858.94
658.63	55555.25
658.82	55178.42
659.01	55250.10
659.21	55569.58
659.40	55088.31
659.59	55047.35
659.79	54852.80
659.98	55415.99
660.17	55229.62
660.36	55139.51
660.56	54877.37
660.75	54912.19
660.94	55366.84
661.14	54666.43
661.33	55094.46
661.52	54695.10
661.71	55325.88
661.91	54969.53
662.10	54600.89
662.29	55170.23
662.49	55080.12
662.68	54924.47
662.87	55006.39
663.06	55276.72
663.26	54811.84
663.45	54981.82
663.64	54695.10
663.83	55350.45
664.03	54695.10
664.22	54815.93
664.41	54807.74
664.60	54789.31
664.80	55010.49
664.99	54854.84
665.18	54926.52
665.37	54555.84
665.57	55164.09
665.76	54719.68
665.95	55121.08
666.14	54478.02
666.34	54455.49
666.53	54453.44
666.72	54228.16
666.91	54430.91
667.11	54469.82
667.30	54910.14
667.49	54330.56
667.68	54645.95
667.87	54518.98
668.07	54826.17
668.26	54836.41
668.45	54688.96
668.64	54484.16
668.84	55104.70
669.03	54627.52
669.22	54596.80
669.41	54516.93
669.60	54482.11
669.80	54346.95
669.99	54543.55
670.18	54582.46
670.37	54400.19
670.57	54453.44
670.76	54289.60
670.95	54699.20
671.14	54498.50
671.33	54025.42
671.53	54654.14
671.72	54367.43
671.91	54133.96
672.10	54084.81
672.29	54338.75
672.48	54414.53
672.68	54441.15
672.87	54205.64
673.06	54138.05
673.25	54295.75
673.44	54465.73
673.64	54289.60
673.83	54131.91
674.02	53843.15
674.21	53658.83
674.40	54088.90
674.59	53773.52
674.79	53906.63
674.98	53828.81
675.17	53771.47
675.36	53673.16
675.55	54226.12
675.74	53796.04
675.94	53660.88
676.13	53908.68
676.32	53740.75
676.51	54195.40
676.70	53882.06
676.89	53560.53
677.08	54262.98
677.28	53392.59
677.47	53925.07
677.66	54023.37
677.85	53947.59
678.04	53945.54
678.23	53931.21
678.42	54066.38
678.62	53654.73
678.81	54037.70
679.00	53552.33
679.19	54265.03
679.38	53722.32
679.57	53843.15
679.76	53853.39
679.96	53775.56
680.15	53689.55
680.34	53572.81
680.53	53327.06
680.72	53628.11
680.91	53746.89
681.10	53363.92
681.29	54031.56
681.48	53511.38
681.68	53581.01
681.87	53617.87
682.06	53357.78
682.25	53339.35
682.44	53103.83
682.63	53560.53
682.82	53417.17
683.01	53376.21
683.20	53064.92
683.39	53343.44
683.59	53236.95
683.78	52786.39
683.97	53146.84
684.16	53515.47
684.35	52622.56
684.54	52991.19
684.73	53071.06
684.92	53261.52
685.11	52825.31
685.30	53142.74
685.49	53155.03
685.69	53148.88
685.88	53089.49
686.07	53007.58
686.26	52937.94
686.45	52792.54
686.64	52974.81
686.83	53165.27
687.02	52927.70
687.21	53312.72
687.40	53023.96
687.59	53075.16
687.78	53015.77
687.97	53282.00
688.16	52864.22
688.35	52888.79
688.54	53093.59
688.74	53048.53
688.93	52661.47
689.12	52729.05
689.31	52597.98
689.50	52655.32
689.69	52421.86
689.88	52200.68
690.07	52796.63
690.26	53060.82
690.45	52475.10
690.64	52724.96
690.83	52401.38
691.02	52751.58
691.21	52899.03
691.40	52585.69
691.59	52393.18
691.78	52597.98
691.97	52688.09
692.16	52393.18
692.35	52694.24
692.54	52684.00
692.73	52896.98
692.92	52411.62
693.11	51895.53
693.30	52655.32
693.49	51995.88
693.68	52204.77
693.87	52663.52
694.06	52403.42
694.25	52182.24
694.44	51801.32
694.63	52475.10
694.82	52106.47
695.01	52106.47
695.20	52196.58
695.39	52034.79
695.58	52008.17
695.77	52139.24
695.96	52102.37
696.15	52270.31
696.34	52063.46
696.53	52262.11
696.72	52401.38
696.91	52262.11
697.10	51971.30
697.29	51707.12
697.48	52008.17
697.67	52133.09
697.86	51662.06
698.05	51678.44
698.24	52030.69
698.43	51442.93
698.62	51789.03
698.81	51502.32
699.00	52270.31
699.19	51318.00
699.38	51901.67
699.57	51651.82
699.76	52333.79
699.95	51602.67
700.14	51967.21
700.32	52145.38
700.51	51793.13
700.70	52055.27
700.89	51922.15
701.08	51805.42
701.27	51942.63
701.46	51889.38
701.65	51188.98
701.84	51528.94
702.03	51397.87
702.22	51705.07
702.41	51500.27
702.60	51963.11
702.79	51743.98
702.98	51414.26
703.17	51657.96
703.35	51385.58
703.54	51459.31
703.73	51899.62
703.92	51674.35
704.11	51229.94
704.30	51422.45
704.49	51629.29
704.68	51223.79
704.87	51762.41
705.06	51434.74
705.25	51264.75
705.43	51404.02
705.62	51537.13
705.81	50973.94
706.00	51215.60
706.19	51057.91
706.38	50924.79
706.57	50908.41
706.76	51363.06
706.95	51141.88
707.14	50877.69
707.32	51279.09
707.51	50771.19
707.70	51291.38
707.89	51469.55
708.08	50930.93
708.27	51195.12
708.46	51578.09
708.65	50703.61
708.84	51234.03
709.02	50914.55
709.21	51381.49
709.40	51123.44
709.59	50746.62
709.78	50689.27
709.97	51152.12
710.16	50767.10
710.34	50588.92
710.53	50820.34
710.72	50691.32
710.91	51049.72
711.10	51328.24
711.29	51094.77
711.48	51010.81
711.66	51102.96
711.85	50640.12
712.04	51086.58
712.23	50857.21
712.42	50748.67
712.61	50795.77
712.80	51201.27
712.98	50806.01
713.17	50703.61
713.36	50781.43
713.55	50849.02
713.74	50736.38
713.93	50824.44
714.11	50820.34
714.30	50314.50
714.49	50507.01
714.68	50648.32
714.87	50597.12
715.06	50629.88
715.24	50455.81
715.43	50324.74
715.62	50271.49
715.81	50251.01
716.00	50238.72
716.18	50222.34
716.37	50017.54
716.56	50271.49
716.75	51129.59
716.94	49980.68
717.12	49968.39
717.31	50500.86
717.50	50195.71
717.69	50160.90
717.88	50044.16
718.06	50429.18
718.25	50609.40
718.44	49687.82
718.63	50173.19
718.82	49661.19
719.00	50167.04
719.19	49767.69
719.38	49646.86
719.57	49208.59
719.76	49685.77
719.94	49327.38
720.13	49589.52
720.32	49790.22
720.51	49646.86
720.69	49077.52
720.88	49272.08
721.07	49644.81
721.26	49071.38
721.44	49388.81
721.63	48948.50
721.82	49222.93
722.01	48854.29
722.20	49632.52
722.38	49235.22
722.57	49091.86
722.76	48956.69
722.95	48928.02
723.13	48561.44
723.32	48583.96
723.51	48577.82
723.70	48469.28
723.88	49036.56
724.07	48655.64
724.26	48891.16
724.44	48129.31
724.63	48604.44
724.82	48827.67
725.01	48510.24
725.19	48563.48
725.38	48510.24
725.57	48088.35
725.76	48235.81
725.94	48207.14
726.13	48098.59
726.32	48078.11
726.51	47955.24
726.69	48571.67
726.88	48135.46
727.07	48174.37
727.25	48141.60
727.44	48102.69
727.63	48303.39
727.82	48055.59
728.00	48420.13
728.19	48008.48
728.38	48289.06
728.56	47709.48
728.75	48639.26
728.94	47799.59
729.12	48182.56
729.31	48346.40
729.50	47922.47
729.69	48391.45
729.87	48387.36
730.06	48178.46
730.25	47674.66
730.43	48575.77
730.62	48094.50
730.81	48168.22
730.99	48203.04
731.18	47951.14
731.37	48233.76
731.55	48547.10
731.74	48526.62
731.93	48241.95
732.11	48684.31
732.30	48108.83
732.49	47824.17
732.67	47988.00
732.86	48059.68
733.05	48096.55
733.23	48000.29
733.42	47623.47
733.61	48278.82
733.79	48141.60
733.98	48379.17
734.17	48594.20
734.35	47936.80
734.54	47949.09
734.73	48260.38
734.91	47971.62
735.10	48000.29
735.29	48227.62
735.47	47357.23
735.66	48010.53
735.84	47981.86
736.03	47641.90
736.22	48379.17
736.40	47430.96
736.59	47863.08
736.78	47803.69
736.96	48063.78
737.15	47725.86
737.33	47643.94
737.52	47525.16
737.71	47492.40
737.89	47506.73
738.08	47539.50
738.27	47222.06
738.45	48094.50
738.64	47701.29
738.82	47674.66
739.01	47527.21
739.20	47750.44
739.38	47594.79
739.57	47516.97
739.75	47922.47
739.94	47674.66
740.13	47318.32
740.31	47828.26
740.50	47424.81
740.68	47508.78
740.87	47908.13
741.06	47469.87
741.24	47052.08
741.43	46699.83
741.61	47510.83
741.80	47037.75
741.99	47033.65
742.17	46869.81
742.36	46843.19
742.54	46570.81
742.73	46996.79
742.91	47543.59
743.10	46617.91
743.29	46882.10
743.47	47148.34
743.66	47074.61
743.84	47142.19
744.03	46681.40
744.21	46708.02
744.40	47121.71
744.59	46724.41
744.77	46724.41
744.96	46568.76
745.14	46552.38
745.33	46835.00
745.51	46865.72
745.70	46585.15
745.88	46746.93
746.07	46832.95
746.26	46263.61
746.44	46417.21
746.63	46591.29
746.81	46404.92
747.00	46415.16
747.18	46519.61
747.37	46363.96
747.55	46130.50
747.74	46429.50
747.92	46347.58
748.11	46198.08
748.29	46325.05
748.48	46449.98
748.66	45856.07
748.85	45995.33
749.03	46083.39
749.22	46024.00
749.41	45792.58
749.59	45512.01
749.78	45704.52
749.96	45344.08
750.15	45651.27
750.33	45743.43
750.52	45397.32
750.70	45622.60
750.89	45653.32
751.07	45489.48
751.26	45526.35
751.44	45344.08
751.63	45563.21
751.81	45249.87
752.00	45319.50
752.18	45407.56
752.37	45069.65
752.55	44737.88
752.74	45038.93
752.92	44952.91
753.10	44795.22
753.29	44975.44
753.47	44871.00
753.66	44920.15
753.84	44688.73
754.03	44625.24
754.21	44483.93
754.40	44711.25
754.58	44811.60
754.77	44569.94
754.95	44610.90
755.14	44389.72
755.32	44799.32
755.51	44322.14
755.69	44182.88
755.88	44432.73
756.06	44311.90
756.24	43973.98
756.43	43855.20
756.61	44248.41
756.80	44064.10
756.98	43933.03
757.17	43914.59
757.35	44172.64
757.54	43591.01
757.72	44359.00
757.90	43951.46
758.09	44016.99
758.27	43994.46
758.46	43804.00
758.64	43582.82
758.83	44195.17
759.01	43611.49
759.19	43967.84
759.38	44002.66
759.56	43963.75
759.75	43668.84
759.93	43281.77
760.12	43634.02
760.30	43648.36
760.48	43728.23
760.67	43359.59
760.85	43515.24
761.04	43416.94
761.22	43482.47
761.40	42909.04
761.59	42829.17
761.77	43023.73
761.96	42915.19
762.14	42843.51
762.32	42775.92
762.51	43036.02
762.69	42573.17
762.88	42624.37
763.06	43007.34
763.24	42982.77
763.43	42710.39
763.61	42722.68
763.80	42569.08
763.98	42849.65
764.16	42581.37
764.35	42071.42
764.53	42030.46
764.72	42413.43
764.90	42737.01
765.08	42136.96
765.27	41823.62
765.45	42102.14
765.63	41422.22
765.82	42194.30
766.00	41717.12
766.18	41969.02
766.37	42063.23
766.55	41700.74
766.74	41620.87
766.92	41782.66
767.10	41766.27
767.29	41641.35
767.47	41643.40
767.65	41616.77
767.84	41287.05
768.02	41551.24
768.20	41178.51
768.39	41590.15
768.57	41487.75
768.75	41063.82
768.94	41348.49
769.12	41328.01
769.30	40953.23
769.49	40826.26
769.67	40949.14
769.85	40517.01
770.04	40773.01
770.22	40584.60
770.40	40412.57
770.59	40699.28
770.77	40592.79
770.95	40719.76
771.14	40252.83
771.32	40113.56
771.50	39986.59
771.69	40023.45
771.87	40433.05
772.05	40179.10
772.24	40064.41
772.42	40080.80
772.60	39972.25
772.78	40045.98
772.97	39937.44
773.15	39962.01
773.33	39269.80
773.52	39548.32
773.70	39884.19
773.88	39851.42
774.07	39646.63
774.25	39976.35
774.43	40048.03
774.61	39896.48
774.80	39781.79
774.98	39724.45
775.16	40387.99
775.34	39904.67
775.53	39515.56
775.71	39921.05
775.89	39792.03
776.08	39720.35
776.26	40062.36
776.44	39396.77
776.62	40025.50
776.81	39413.16
776.99	39757.22
777.17	39648.68
777.35	39280.04
777.54	40039.84
777.72	39732.64
777.90	39994.78
778.08	39933.34
778.27	39617.96
778.45	40000.93
778.63	39966.11
778.81	39792.03
779.00	40492.44
779.18	39794.08
779.36	40144.28
779.54	40140.19
779.73	39658.91
779.91	40250.78
780.09	39775.65
780.27	40125.85
780.46	40105.37
780.64	40162.72
780.82	40078.75
781.00	40070.56
781.19	40123.80
781.37	40611.22
781.55	40467.86
781.73	40783.25
781.91	39847.33
782.10	40291.74
782.28	40435.10
782.46	40553.88
782.64	40572.31
782.82	39970.21
783.01	40408.47
783.19	40580.50
783.37	40414.62
783.55	40172.96
783.74	40451.48
783.92	40041.88
784.10	40773.01
784.28	40476.05
784.46	39933.34
784.64	40371.61
784.83	40248.73
785.01	40361.37
785.19	40306.07
785.37	40500.63
785.55	40285.59
785.74	39572.90
785.92	40072.60
786.10	40306.07
786.28	40037.79
786.46	40228.25
786.64	39767.46
786.83	39921.05
787.01	39587.24
787.19	39714.21
787.37	39724.45
787.55	39736.74
787.74	39935.39
787.92	39744.93
788.10	39585.19
788.28	39110.06
788.46	39456.17
788.64	39130.54
788.82	39312.81
789.01	39527.84
789.19	39622.05
789.37	39437.73
789.55	39589.28
789.73	39169.45
789.91	38901.17
790.09	38976.94
790.28	38817.20
790.46	38333.88
790.64	38868.40
790.82	38753.71
791.00	38456.76
791.18	38405.56
791.36	38763.95
791.55	38438.33
791.73	38276.54
791.91	37717.44
792.09	38587.83
792.27	38575.54
792.45	38315.45
792.63	38370.74
792.81	37987.77
793.00	38294.97
793.18	37821.89
793.36	37664.19
793.54	37516.74
793.72	37424.58
793.90	37627.33
794.08	37361.09
794.26	37678.53
794.44	37141.96
794.62	36877.77
794.81	37277.13
794.99	36802.00
795.17	36830.67
795.35	37000.65
795.53	37289.42
795.71	36902.35
795.89	36732.37
796.07	36648.40
796.25	36306.39
796.43	36629.97
796.61	36134.36
796.80	36193.75
796.98	36208.09
797.16	35726.81
797.34	36025.82
797.52	35888.60
797.70	36152.79
797.88	35505.63
798.06	35458.53
798.24	35829.21
798.42	35739.10
798.60	35526.11
798.78	35528.16
798.96	35272.17
799.14	35202.53
799.32	35280.36
799.51	35044.84
799.69	35069.42
799.87	34940.39
800.05	34584.05
800.23	34973.16
800.41	34473.46
800.59	34645.49
800.77	34502.13
800.95	34571.76
801.13	34334.20
801.31	34270.71
801.49	34674.16
801.67	34323.96
801.85	34295.28
802.03	33758.72
802.21	34014.71
802.39	33674.75
802.57	33695.23
802.75	33721.85
802.93	33756.67
803.11	33457.67
803.29	33586.69
803.47	33447.43
803.65	33035.78
803.83	33320.45
804.01	33246.72
804.19	32781.84
804.37	32790.03
804.55	33089.03
804.73	33060.36
804.91	32943.63
805.09	32972.30
805.27	32994.82
805.45	32806.41
805.63	32974.34
805.81	32646.67
805.99	32476.69
806.17	32509.46
806.35	32654.86
806.53	32198.16
806.71	32638.48
806.89	31936.02
807.07	32138.77
807.25	32337.43
807.43	31938.07
807.61	32296.47
807.79	31727.13
807.97	31530.53
808.15	31784.48
808.33	31546.91
808.51	31559.20
808.69	31700.51
808.87	31421.98
809.05	31235.62
809.23	31141.41
809.41	31174.18
809.59	31221.28
809.77	31360.55
809.95	30895.66
810.13	31256.10
810.31	30893.61
810.49	31319.59
810.67	30866.98
810.84	31055.40
811.02	30797.35
811.20	30684.72
811.38	30711.34
811.56	30459.44
811.74	30672.43
811.92	30346.80
812.10	30461.49
812.28	30565.93
812.46	30346.80
812.64	30541.36
812.82	30119.48
813.00	30209.59
813.18	30105.14
813.36	29939.26
813.53	29873.72
813.71	30082.61
813.89	30039.61
814.07	30092.85
814.25	30109.24
814.43	29709.88
814.61	29591.10
814.79	29429.31
814.97	29662.78
815.15	29605.44
815.33	29349.44
815.50	29099.59
815.68	29183.55
815.86	29619.77
816.04	28976.71
816.22	29070.92
816.40	29144.64
816.58	29113.92
816.76	28943.94
816.94	29240.90
817.11	29148.74
817.29	28902.98
817.47	28769.86
817.65	28966.47
817.83	28808.78
818.01	28733.00
818.19	28261.97
818.37	29015.62
818.54	28507.72
818.72	28528.20
818.90	28321.36
819.08	28646.99
819.26	28614.22
819.44	28042.84
819.62	28274.26
819.80	28657.23
819.97	28175.95
820.15	28227.15
820.33	28079.70
820.51	27977.30
820.69	27881.05
820.87	28257.87
821.05	27989.59
821.22	27709.02
821.40	27893.33
821.58	28008.02
821.76	28040.79
821.94	27756.12
822.12	28065.36
822.29	27942.49
822.47	27455.07
822.65	28206.67
822.83	27704.92
823.01	27573.85
823.19	27416.16
823.36	27508.32
823.54	27463.26
823.72	27354.72
823.90	27424.35
824.08	27078.24
824.25	27362.91
824.43	27293.28
824.61	27264.61
824.79	27704.92
824.97	27049.57
825.15	27407.97
825.32	26969.70
825.50	27113.06
825.68	26689.13
825.86	27135.59
826.04	27184.74
826.21	26926.69
826.39	26957.41
826.57	26943.08
826.75	26900.07
826.93	26642.03
827.10	26576.49
827.28	26754.66
827.46	26568.30
827.64	26820.20
827.81	26615.40
827.99	26410.60
828.17	26314.35
828.35	26478.19
828.53	26547.82
828.70	26435.18
828.88	26404.46
829.06	26207.86
829.24	26445.42
829.41	26570.35
829.59	26613.35
829.77	26250.86
829.95	26160.75
830.12	26199.66
830.30	26220.14
830.48	26257.01
830.66	26117.75
830.84	26248.82
831.01	25937.52
831.19	26097.27
831.37	25783.93
831.55	25738.87
831.72	25941.62
831.90	26105.46
832.08	26025.59
832.25	25757.30
832.43	25509.50
832.61	25982.58
832.79	25554.55
832.96	25788.02
833.14	25575.03
833.32	25798.26
833.50	25708.15
833.67	25575.03
833.85	25716.34
834.03	25464.44
834.20	25347.71
834.38	25630.33
834.56	25654.90
834.74	25108.10
834.91	25472.64
835.09	25433.72
835.27	25044.61
835.44	25220.74
835.62	25147.01
835.80	25114.24
835.98	25142.91
836.15	25183.87
836.33	25226.88
836.51	25063.04
836.68	24991.36
836.86	25151.10
837.04	25216.64
837.21	25161.34
837.39	25058.95
837.57	25101.95
837.75	25011.84
837.92	24653.45
838.10	24759.94
838.28	24518.28
838.45	24680.07
838.63	24749.70
838.81	24571.53
838.98	24868.48
839.16	24417.93
839.34	24391.31
839.51	24520.33
839.69	24051.34
839.87	24575.62
840.04	24458.89
840.22	24725.13
840.40	24397.45
840.57	24452.75
840.75	24370.83
840.93	23842.45
841.10	24452.75
841.28	24379.02
841.46	24192.65
841.63	24282.77
841.81	24438.41
841.98	24321.68
842.16	24432.27
842.34	24303.25
842.51	24104.59
842.69	24120.98
842.87	24340.11
843.04	24221.33
843.22	23676.57
843.40	23934.61
843.57	24067.73
843.75	24123.02
843.92	23975.57
844.10	24194.70
844.28	24178.32
844.45	24168.08
844.63	23809.68
844.81	23895.70
844.98	23893.65
845.16	23541.40
845.33	23889.56
845.51	23938.71
845.69	23676.57
845.86	23885.46
846.04	23602.84
846.21	23740.05
846.39	23539.35
846.57	23330.46
846.74	23615.13
846.92	23199.39
847.09	23735.96
847.27	23412.38
847.45	23500.44
847.62	23631.51
847.80	23326.36
847.97	23396.00
848.15	23398.04
848.32	23295.64
848.50	22937.25
848.68	23107.23
848.85	22949.54
849.03	22873.76
849.20	23174.81
849.38	22965.92
849.56	23078.56
849.73	22959.78
849.91	23129.76
850.08	23385.76
850.26	22832.80
850.43	22912.67
850.61	23051.94
850.78	22947.49
850.96	23094.94
851.14	22791.84
851.31	22834.85
851.49	23101.09
851.66	22791.84
851.84	22701.73
852.01	23027.36
852.19	22742.69
852.36	22359.72
852.54	22701.73
852.71	22562.47
852.89	22726.31
853.07	22597.29
853.24	22560.42
853.42	22548.14
853.59	22322.86
853.77	22845.09
853.94	22394.54
854.12	22519.46
854.29	22374.06
854.47	22492.84
854.64	22408.87
854.82	22214.32
854.99	22509.22
855.17	22353.58
855.34	22437.55
855.52	22498.98
855.69	22515.37
855.87	22019.76
856.04	21915.31
856.22	22240.94
856.39	21952.18
856.57	22017.71
856.74	22146.73
856.92	22013.62
857.09	21837.49
857.27	21943.99
857.44	22154.93
857.62	22107.82
857.79	21921.46
857.97	21968.56
858.14	21898.93
858.32	21634.74
858.49	21958.32
858.67	21751.48
858.84	21831.35
859.02	22093.49
859.19	21673.65
859.37	21561.02
859.54	21608.12
859.72	21825.20
859.89	21642.93
860.06	21812.92
860.24	21552.82
860.41	21571.25
860.59	21391.03
860.76	21399.23
860.94	21352.12
861.11	21669.56
861.29	21255.87
861.46	21278.40
861.64	21405.37
861.81	21325.50
861.98	21102.27
862.16	21024.45
862.33	20958.91
862.51	21128.89
862.68	21364.41
862.86	21343.93
863.03	21266.11
863.21	21096.13
863.38	21034.69
863.55	20981.44
863.73	20874.95
863.90	20858.56
864.08	20891.33
864.25	20889.28
864.43	20872.90
864.60	20956.86
864.77	20846.27
864.95	20819.65
865.12	20489.93
865.30	20723.40
865.47	20799.17
865.64	20786.88
865.82	20475.59
865.99	20739.78
866.17	20680.39
866.34	20821.70
866.51	20457.16
866.69	20702.92
866.86	20577.99
867.04	20680.39
867.21	20422.34
867.38	20238.03
867.56	20141.77
867.73	20358.86
867.91	20254.41
868.08	20391.62
868.25	20010.70
868.43	20063.95
868.60	19881.68
868.78	19920.59
868.95	20246.22
869.12	20319.95
869.30	19914.45
869.47	20133.58
869.64	19791.57
869.82	19814.10
869.99	19959.50
870.16	20235.98
870.34	19689.17
870.51	20156.11
870.69	19969.74
870.86	19861.20
871.03	19687.12
871.21	19787.47
871.38	20043.47
871.55	19461.85
871.73	19660.50
871.90	19500.76
872.07	19332.82
872.25	19404.50
872.42	19543.77
872.59	19316.44
872.77	19599.06
872.94	19369.69
873.11	19648.21
873.29	19519.19
873.46	19250.91
873.63	19592.92
873.81	19160.80
873.98	19244.76
874.15	19099.36
874.33	19119.84
874.50	18923.23
874.67	19222.23
874.85	18925.28
875.02	18943.71
875.19	18999.01
875.37	18956.00
875.54	18665.19
875.71	18708.19
875.88	18540.26
876.06	18626.28
876.23	18560.74
876.40	18751.20
876.58	18683.62
876.75	18581.22
876.92	18409.19
877.10	18441.96
877.27	18704.10
877.44	18349.80
877.61	18079.47
877.79	18314.98
877.96	18495.21
878.13	18233.07
878.31	18239.21
878.48	17997.55
878.65	17923.82
878.82	17708.79
879.00	18153.20
879.17	17897.20
879.34	18110.19
879.51	18001.65
879.69	17770.22
879.86	17850.10
880.03	17921.77
880.21	17864.43
880.38	17966.83
880.55	17860.34
880.72	17798.90
880.90	17755.89
881.07	17620.72
881.24	17721.07
881.41	17759.98
881.59	17637.11
881.76	17762.03
881.93	17530.61
882.10	17407.73
882.28	17379.06
882.45	17528.56
882.62	17444.60
882.79	17452.79
882.96	17213.18
883.14	17585.91
883.31	17323.77
883.48	17420.02
883.65	17460.98
883.83	17399.54
884.00	17282.81
884.17	16918.27
884.34	17284.86
884.51	17026.81
884.69	17133.31
884.86	17145.59
885.03	17219.32
885.20	17032.96
885.38	17299.19
885.55	17002.24
885.72	17215.23
885.89	17006.33
886.06	17065.72
886.24	16877.31
886.41	16936.70
886.58	17200.89
886.75	16994.04
886.92	16799.49
887.10	17047.29
887.27	16826.11
887.44	16625.41
887.61	16887.55
887.78	16918.27
887.95	16848.64
888.13	16713.47
888.30	16629.51
888.47	16566.02
888.64	16457.48
888.81	16592.64
888.99	16613.12
889.16	16246.54
889.33	16551.68
889.50	16461.57
889.67	16332.55
889.84	16412.42
890.01	16461.57
890.19	16488.20
890.36	16350.98
890.53	16420.61
890.70	16187.14
890.87	16101.13
891.04	15963.92
891.22	16449.28
891.39	16258.82
891.56	16002.83
891.73	16127.75
891.90	16164.62
892.07	15871.76
892.24	16039.69
892.42	15865.61
892.59	16109.32
892.76	15628.05
892.93	15705.87
893.10	15838.99
893.27	15830.80
893.44	15634.19
893.61	15660.82
893.79	15777.55
893.96	15593.23
894.13	15761.17
894.30	15742.74
894.47	15910.67
894.64	16029.45
894.81	15654.67
894.98	15832.85
895.15	15912.72
895.33	15589.14
895.50	15601.43
895.67	15906.57
895.84	15642.39
896.01	15726.35
896.18	15531.80
896.35	15804.17
896.52	15560.47
896.69	15648.53
896.86	15437.59
897.04	15757.07
897.21	15591.19
897.38	15464.21
897.55	15740.69
897.72	15642.39
897.89	15437.59
898.06	15757.07
898.23	15587.09
898.40	15236.89
898.57	15615.76
898.74	15697.68
898.91	15357.72
899.08	15417.11
899.26	15423.25
899.43	15646.48
899.60	15255.32
899.77	15417.11
899.94	15197.98
900.11	15148.82
900.28	15519.51
900.45	15380.25
900.62	15562.51
900.79	15478.55
900.96	15527.70
901.13	15103.77
901.30	15310.61
901.47	15355.67
901.64	15372.05
901.81	15380.25
901.98	15128.35
902.15	15603.47
902.32	15359.77
902.49	15263.51
902.66	15222.55
902.83	15365.91
903.01	15449.88
903.18	15251.22
903.35	15181.59
903.52	15296.28
903.69	15398.68
903.86	15382.29
904.03	15318.81
904.20	15539.99
904.37	15675.15
904.54	15271.70
904.71	15036.19
904.88	15423.25
905.05	15140.63
905.22	15249.18
905.39	15183.64
905.56	15099.67
905.73	15075.10
905.90	15140.63
906.07	15318.81
906.24	15257.37
906.41	15251.22
906.58	15390.49
906.75	15240.98
906.92	15290.13
907.09	15003.42
907.26	15243.03
907.43	15095.58
907.60	15300.37
907.77	15161.11
907.93	15118.11
908.10	15114.01
908.27	15193.88
908.44	15290.13
908.61	14987.04
908.78	14905.12
908.95	14987.04
909.12	15068.95
909.29	15001.37
909.46	14999.32
909.63	15175.45
909.80	14901.02
909.97	15183.64
910.14	15003.42
910.31	14886.68
910.48	15165.21
910.65	15023.90
910.82	14997.28
910.99	15025.95
911.16	14667.55
911.33	14999.32
911.50	14792.48
911.66	14694.18
911.83	14778.14
912.00	14982.94
912.17	15095.58
912.34	14640.93
912.51	14669.60
912.68	14540.58
912.85	14878.49
913.02	14622.50
913.19	14352.16
913.36	14823.20
913.53	14692.13
913.70	14337.83
913.86	14550.82
914.03	14669.60
914.20	14241.57
914.37	14622.50
914.54	14292.77
914.71	14352.16
914.88	14425.89
915.05	14399.27
915.22	14262.05
915.39	14155.56
915.55	14180.14
915.72	13936.43
915.89	14143.27
916.06	14276.39
916.23	13989.67
916.40	13938.48
916.57	14001.96
916.74	14108.46
916.91	14001.96
917.07	13803.31
917.24	13766.45
917.41	13811.50
917.58	13856.56
917.75	13870.89
917.92	13455.15
918.09	13647.66
918.26	13483.83
918.42	13487.92
918.59	13670.19
918.76	13401.91
918.93	13231.93
919.10	13346.61
919.27	13211.45
919.44	13309.75
919.60	13426.48
919.77	13489.97
919.94	13248.31
920.11	13016.89
920.28	13414.20
920.45	13086.52
920.61	12912.44
920.78	13070.14
920.95	13113.14
921.12	12758.85
921.29	12902.20
921.46	12857.15
921.62	12762.94
921.79	12932.92
921.96	12549.95
922.13	12959.55
922.30	12457.79
922.47	12601.15
922.63	12451.65
922.80	12476.23
922.97	12388.16
923.14	12259.14
923.31	12451.65
923.47	12314.44
923.64	12398.40
923.81	12314.44
923.98	12298.05
924.15	11882.31
924.32	12093.26
924.48	12136.26
924.65	12015.43
924.82	12011.34
924.99	11794.25
925.15	11906.89
925.32	11904.84
925.49	11558.74
925.66	11706.19
925.83	11626.32
925.99	11433.81
926.16	11536.21
926.33	11337.56
926.50	11290.45
926.67	11642.70
926.83	11407.19
927.00	11480.91
927.17	11282.26
927.34	11265.88
927.50	11104.09
927.67	11501.39
927.84	11272.02
928.01	11153.24
928.17	10973.02
928.34	11169.62
928.51	10913.63
928.68	10973.02
928.84	10962.78
929.01	10653.53
929.18	10839.90
929.35	10571.61
929.51	10714.97
929.68	10534.75
929.85	10614.62
930.02	10352.48
930.18	10434.40
930.35	10473.31
930.52	10344.29
930.69	10534.75
930.85	10342.24
931.02	10194.79
931.19	10069.86
931.36	10135.40
931.52	10315.62
931.69	10178.40
931.86	9910.12
932.02	10026.86
932.19	10069.86
932.36	9883.50
932.53	9883.50
932.69	10041.19
932.86	10006.38
933.03	9752.43
933.19	9465.71
933.36	9654.12
933.53	9672.56
933.70	9418.61
933.86	9564.01
934.03	9391.98
934.20	9289.59
934.36	9258.87
934.53	9043.83
934.70	9135.99
934.86	9023.35
935.03	8935.29
935.20	8851.32
935.36	8742.78
935.53	8912.76
935.70	8826.75
935.86	8793.98
936.03	8673.15
936.20	8540.03
936.36	8423.30
936.53	8505.21
936.70	8427.39
936.86	8425.34
937.03	8224.64
937.20	8130.44
937.36	8206.21
937.53	7772.04
937.70	7884.68
937.86	7681.93
938.03	7645.07
938.20	7702.41
938.36	7657.36
938.53	7673.74
938.70	7384.98
938.86	7339.92
939.03	7108.50
939.20	7366.54
939.36	7157.65
939.53	7038.87
939.70	7194.51
939.86	6897.56
940.03	6700.95
940.19	6746.01
940.36	6700.95
940.53	6705.05
940.69	6481.82
940.86	6444.96
941.03	6422.43
941.19	6326.18
941.36	6434.72
941.52	6248.35
941.69	6082.47
941.86	6102.95
942.02	5939.11
942.19	6004.64
942.35	6066.08
942.52	5883.81
942.69	5873.57
942.85	5797.80
943.02	5752.74
943.18	5824.42
943.35	5738.41
943.52	5701.54
943.68	5537.71
943.85	5683.11
944.01	5529.52
944.18	5529.52
944.35	5597.10
944.51	5468.08
944.68	5525.42
944.84	5361.58
945.01	5339.05
945.17	5230.51
945.34	5463.98
945.51	5322.67
945.67	5250.99
945.84	5242.80
946.00	5128.11
946.17	5289.90
946.33	5234.61
946.50	5337.01
946.67	5212.08
946.83	5224.37
947.00	5320.62
947.16	5201.84
947.33	5164.98
947.49	5216.18
947.66	5162.93
947.82	5337.01
947.99	5218.22
948.16	5328.81
948.32	5017.52
948.49	5320.62
948.65	5214.13
948.82	5068.72
948.98	5314.48
949.15	4956.08
949.31	5273.52
949.48	5238.70
949.64	5119.92
949.81	5175.22
949.97	5126.07
950.14	5173.17
950.30	5066.67
950.47	4970.42
950.63	5279.66
950.80	5343.15
950.96	5142.45
951.13	5302.19
951.30	5226.42
951.46	5246.90
951.63	5373.87
951.79	5230.51
951.96	5287.86
952.12	5203.89
952.29	5226.42
952.45	5244.85
952.62	5187.50
952.78	5234.61
952.94	5283.76
953.11	5236.66
953.27	5087.15
953.44	5285.81
953.60	5349.29
953.77	5369.77
953.93	5328.81
954.10	5146.55
954.26	5365.68
954.43	5283.76
954.59	5216.18
954.76	5377.97
954.92	5255.09
955.09	5353.39
955.25	5322.67
955.42	5373.87
955.58	5371.82
955.75	5375.92
955.91	5289.90
956.07	5359.53
956.24	5248.94
956.40	5439.40
956.57	5377.97
956.73	5238.70
956.90	5388.21
957.06	5146.55
957.23	5349.29
957.39	5203.89
957.56	5130.16
957.72	5144.50
957.88	5339.05
958.05	5324.72
958.21	5406.64
958.38	5324.72
958.54	5312.43
958.71	5410.73
958.87	5410.73
959.03	5369.77
959.20	5396.40
959.36	5179.31
959.53	5347.25
959.69	5085.11
959.85	5478.32
960.02	5283.76
960.18	5242.80
960.35	5177.26
960.51	5416.88
960.68	5283.76
960.84	5304.24
961.00	5246.90
961.17	5228.46
961.33	5173.17
961.50	5353.39
961.66	5308.34
961.82	5349.29
961.99	5386.16
962.15	5132.21
962.31	5244.85
962.48	5257.14
962.64	5296.05
962.81	5179.31
962.97	5337.01
963.13	5343.15
963.30	5328.81
963.46	5238.70
963.62	5316.53
963.79	5230.51
963.95	5218.22
964.12	5119.92
964.28	5279.66
964.44	5240.75
964.61	5246.90
964.77	5283.76
964.93	5197.74
965.10	5099.44
965.26	5146.55
965.42	5242.80
965.59	5150.64
965.75	5154.74
965.92	5201.84
966.08	5171.12
966.24	5091.25
966.41	5126.07
966.57	5044.15
966.73	5187.50
966.90	5179.31
967.06	5138.35
967.22	5017.52
967.39	5033.91
967.55	5027.76
967.71	5109.68
967.88	5048.24
968.04	4947.89
968.20	5005.24
968.37	4976.56
968.53	5060.53
968.69	5160.88
968.85	5048.24
969.02	4984.76
969.18	5050.29
969.34	4978.61
969.51	5023.67
969.67	5052.34
969.83	4931.51
970.00	5072.82
970.16	4982.71
970.32	5005.24
970.48	5058.48
970.65	4855.73
970.81	4874.17
970.97	4835.25
971.14	4708.28
971.30	4968.37
971.46	4804.53
971.63	4827.06
971.79	4872.12
971.95	4802.49
972.11	4712.38
972.28	4736.95
972.44	4804.53
972.60	4644.79
972.76	4767.67
972.93	4802.49
973.09	4976.56
973.25	4790.20
973.42	4693.94
973.58	4808.63
973.74	4728.76
973.90	4628.41
974.07	4777.91
974.23	4822.97
974.39	4849.59
974.55	4642.75
974.72	4814.77
974.88	4595.64
975.04	4706.23
975.20	4556.73
975.37	4794.29
975.53	4689.85
975.69	4734.90
975.85	4562.87
976.01	4427.71
976.18	4620.22
976.34	4646.84
976.50	4487.10
976.66	4583.35
976.83	4442.04
976.99	4595.64
977.15	4454.33
977.31	4353.98
977.47	4427.71
977.64	4581.31
977.80	4485.05
977.96	4409.28
978.12	4446.14
978.29	4409.28
978.45	4310.97
978.61	4374.46
978.77	4556.73
978.93	4411.32
979.10	4374.46
979.26	4325.31
979.42	4370.37
979.58	4317.12
979.74	4313.02
979.91	4392.89
980.07	4356.03
980.23	4245.44
980.39	4282.30
980.55	4396.99
980.71	4392.89
980.88	4179.90
981.04	4222.91
981.20	4356.03
981.36	4341.69
981.52	4306.88
981.68	4114.37
981.85	4169.66
982.01	4130.75
982.17	4132.80
982.33	4081.60
982.49	4251.58
982.65	4110.27
982.82	4165.57
982.98	4175.81
983.14	4057.03
983.30	4138.94
983.46	4153.28
983.62	4143.04
983.79	4143.04
983.95	4112.32
984.11	4095.94
984.27	3989.44
984.43	4100.03
984.59	4038.59
984.75	4089.79
984.91	4089.79
985.08	4231.10
985.24	3952.58
985.40	4081.60
985.56	4104.13
985.72	3973.06
985.88	3993.54
986.04	3891.14
986.20	3868.61
986.37	4120.51
986.53	3903.43
986.69	3921.86
986.85	3878.85
987.01	3891.14
987.17	4030.40
987.33	3942.34
987.49	3907.52
987.65	3948.48
987.82	3911.62
987.98	3827.65
988.14	3833.80
988.30	3860.42
988.46	3729.35
988.62	3858.37
988.78	3794.89
988.94	3770.31
989.10	3653.58
989.26	3696.58
989.42	3704.78
989.59	3725.26
989.75	3678.15
989.91	3813.32
990.07	3700.68
990.23	3651.53
990.39	3741.64
990.55	3686.34
990.71	3690.44
990.87	3704.78
991.03	3772.36
991.19	3629.00
991.35	3657.67
991.51	3624.90
991.67	3643.34
991.83	3516.36
992.00	3540.94
992.16	3553.23
992.32	3608.52
992.48	3530.70
992.64	3559.37
992.80	3604.42
992.96	3561.42
993.12	3633.10
993.28	3616.71
993.44	3530.70
993.60	3532.75
993.76	3528.65
993.92	3542.99
994.08	3573.71
994.24	3592.14
994.40	3456.97
994.56	3620.81
994.72	3456.97
994.88	3454.92
995.04	3438.54
995.20	3403.72
995.36	3473.36
995.52	3416.01
995.68	3542.99
995.84	3278.80
996.00	3588.04
996.16	3330.00
996.32	3373.00
996.48	3383.24
996.64	3547.08
996.80	3319.76
996.96	3448.78
997.12	3428.30
997.28	3256.27
997.44	3338.19
997.60	3416.01
997.76	3366.86
997.92	3319.76
998.08	3338.19
998.24	3270.61
998.40	3336.14
998.56	3254.22
998.72	3184.59
998.88	3286.99
999.04	3184.59
999.20	3309.52
999.36	3295.18
999.52	3284.94
999.68	3225.55
999.84	3280.85
1000.00	3215.31
1000.16	3192.78
1000.32	3055.57
1000.48	3315.66
1000.64	3219.41
1000.80	3028.95
1000.95	3086.29
1001.11	3157.97
1001.27	3121.10
1001.43	3143.63
1001.59	3149.78
1001.75	3139.54
1001.91	3186.64
1002.07	3139.54
1002.23	3096.53
1002.39	2983.89
1002.55	3090.38
1002.71	3010.51
1002.87	3026.90
1003.03	3008.47
1003.19	3014.61
1003.34	3063.76
1003.50	3018.71
1003.66	3086.29
1003.82	3004.37
1003.98	2981.84
1004.14	3035.09
1004.30	2959.31
1004.46	2936.79
1004.62	2973.65
1004.78	2994.13
1004.94	3071.95
1005.09	2983.89
1005.25	2953.17
1005.41	2944.98
1005.57	2863.06
1005.73	2987.99
1005.89	2828.24
1006.05	2920.40
1006.21	2910.16
1006.37	2875.35
1006.52	2818.00
1006.68	2809.81
1006.84	3024.85
1007.00	2813.91
1007.16	2918.36
1007.32	2813.91
1007.48	2838.48
1007.64	2867.16
1007.79	2887.64
1007.95	2762.71
1008.11	2852.82
1008.27	2795.48
1008.43	2828.24
1008.59	2807.77
1008.75	2863.06
1008.91	2875.35
1009.06	2674.65
1009.22	2738.13
1009.38	2772.95
1009.54	2715.61
1009.70	2693.08
1009.86	2734.04
1010.01	2811.86
1010.17	2721.75
1010.33	2762.71
1010.49	2734.04
1010.65	2824.15
1010.81	2734.04
1010.96	2658.26
1011.12	2586.58
1011.28	2656.22
1011.44	2684.89
1011.60	2613.21
1011.76	2693.08
1011.91	2699.22
1012.07	2666.46
1012.23	2529.24
1012.39	2541.53
1012.55	2666.46
1012.71	2555.86
1012.86	2559.96
1013.02	2566.10
1013.18	2572.25
1013.34	2705.37
1013.50	2615.26
1013.65	2652.12
1013.81	2533.34
1013.97	2592.73
1014.13	2590.68
1014.29	2619.35
1014.44	2627.54
1014.60	2613.21
1014.76	2508.76
1014.92	2549.72
1015.07	2535.39
1015.23	2648.02
1015.39	2471.90
1015.55	2576.34
1015.71	2586.58
1015.86	2420.70
1016.02	2387.93
1016.18	2404.32
1016.34	2447.32
1016.49	2592.73
1016.65	2529.24
1016.81	2449.37
1016.97	2574.30
1017.12	2490.33
1017.28	2328.54
1017.44	2492.38
1017.60	2377.69
1017.75	2473.95
1017.91	2445.27
1018.07	2432.99
1018.23	2426.84
1018.38	2428.89
1018.54	2385.88
1018.70	2432.99
1018.86	2379.74
1019.01	2344.92
1019.17	2414.56
1019.33	2469.85
1019.49	2424.80
1019.64	2351.07
1019.80	2355.16
1019.96	2414.56
1020.12	2312.16
1020.27	2256.86
1020.43	2408.41
1020.59	2392.03
1020.74	2412.51
1020.90	2318.30
1021.06	2375.64
1021.22	2314.20
1021.37	2351.07
1021.53	2273.25
1021.69	2330.59
1021.84	2215.90
1022.00	2301.92
1022.16	2226.14
1022.31	2285.53
1022.47	2328.54
1022.63	2301.92
1022.79	2260.96
1022.94	2303.96
1023.10	2283.49
1023.26	2215.90
1023.41	2326.49
1023.57	2273.25
1023.73	2334.68
1023.88	2297.82
1024.04	2154.46
1024.20	2258.91
1024.35	2279.39
1024.51	2201.57
1024.67	2187.23
1024.82	2246.62
1024.98	2164.70
1025.14	2279.39
1025.29	2183.13
1025.45	2301.92
1025.61	2068.45
1025.76	2224.09
1025.92	2213.85
1026.08	2201.57
1026.23	2170.85
1026.39	2207.71
1026.55	2144.22
1026.70	2111.46
1026.86	2230.24
1027.02	2209.76
1027.17	2265.05
1027.33	2088.93
1027.48	2111.46
1027.64	2115.55
1027.80	2121.70
1027.95	2101.22
1028.11	2035.68
1028.27	2158.56
1028.42	2174.94
1028.58	2072.54
1028.73	2074.59
1028.89	2074.59
1029.05	2181.09
1029.20	2164.70
>>>>>End Processed Spectral Data<<<<<
