SpectraSuite Data File
++++++++++++++++++++++++++++++++++++
Date: Fri Jun 02 14:51:09 CEST 2017
User: INFO_000
Dark Spectrum Present: No
Reference Spectrum Present: No
Number of Sampled Component Spectra: 1
Spectrometers: USB4H00879
Integration Time (usec): 80000 (USB4H00879)
Spectra Averaged: 1 (USB4H00879)
Boxcar Smoothing: 0 (USB4H00879)
Correct for Electrical Dark: No (USB4H00879)
Strobe/Lamp Enabled: No (USB4H00879)
Correct for Detector Non-linearity: No (USB4H00879)
Correct for Stray Light: No (USB4H00879)
Number of Pixels in Processed Spectrum: 3648
>>>>>Begin Processed Spectral Data<<<<<
345.13	1257.45
345.34	1257.45
345.56	1257.45
345.78	1296.36
345.99	1294.32
346.21	1732.58
346.42	1728.49
346.64	1607.66
346.86	1761.25
347.07	1665.00
347.29	1712.10
347.50	1642.47
347.72	1650.66
347.94	1724.39
348.15	1546.22
348.37	1656.81
348.59	1734.63
348.80	1718.25
349.02	1701.86
349.23	1984.48
349.45	1771.49
349.67	1886.18
349.88	1824.74
350.10	1961.95
350.31	1882.08
350.53	1810.40
350.75	1927.14
350.96	1804.26
351.18	1853.41
351.39	1828.84
351.61	1830.88
351.82	1880.04
352.04	1906.66
352.26	1863.65
352.47	1923.04
352.69	1890.28
352.90	1710.05
353.12	1798.12
353.34	1843.17
353.55	1882.08
353.77	1880.04
353.98	1906.66
354.20	1773.54
354.41	1918.95
354.63	1843.17
354.85	2023.39
355.06	1841.12
355.28	1834.98
355.49	1880.04
355.71	1943.52
355.92	1896.42
356.14	1896.42
356.35	1951.71
356.57	1839.08
356.79	1857.51
357.00	1884.13
357.22	1955.81
357.43	1787.88
357.65	2025.44
357.86	1853.41
358.08	1857.51
358.29	1882.08
358.51	2000.87
358.72	1933.28
358.94	1873.89
359.16	1863.65
359.37	1898.47
359.59	1904.61
359.80	1941.47
360.02	1910.75
360.23	1988.58
360.45	1994.72
360.66	1896.42
360.88	1929.19
361.09	1877.99
361.31	1933.28
361.52	1957.86
361.74	2056.16
361.95	2011.11
362.17	1978.34
362.38	2041.82
362.60	2019.30
362.81	1959.91
363.03	1857.51
363.24	1951.71
363.46	2039.78
363.67	1996.77
363.89	2013.15
364.10	1978.34
364.32	1916.90
364.53	2033.63
364.75	1898.47
364.96	2064.35
365.18	1976.29
365.39	2015.20
365.61	1988.58
365.82	2109.41
366.04	1986.53
366.25	1955.81
366.47	2138.08
366.68	1996.77
366.90	1970.15
367.11	2011.11
367.33	2000.87
367.54	2088.93
367.76	1937.38
367.97	2007.01
368.19	2080.74
368.40	2084.83
368.62	1988.58
368.83	1966.05
369.05	1996.77
369.26	2015.20
369.48	1974.24
369.69	1933.28
369.91	2011.11
370.12	2021.35
370.33	2105.31
370.55	1966.05
370.76	2037.73
370.98	2058.21
371.19	1984.48
371.41	1978.34
371.62	2017.25
371.84	2076.64
372.05	2199.52
372.27	2033.63
372.48	2037.73
372.69	1976.29
372.91	2148.32
373.12	2119.65
373.34	2015.20
373.55	2082.78
373.77	2119.65
373.98	2019.30
374.20	2013.15
374.41	2252.77
374.62	2207.71
374.84	2179.04
375.05	2232.29
375.27	2201.57
375.48	2152.42
375.70	2236.38
375.91	2174.94
376.12	2197.47
376.34	2115.55
376.55	2148.32
376.77	2150.37
376.98	2023.39
377.19	2088.93
377.41	2103.26
377.62	2179.04
377.84	2156.51
378.05	2283.49
378.27	2078.69
378.48	2351.07
378.69	2459.61
378.91	2224.09
379.12	2179.04
379.34	2131.94
379.55	2314.20
379.76	2195.42
379.98	2195.42
380.19	2176.99
380.41	2287.58
380.62	2234.33
380.83	2222.05
381.05	2248.67
381.26	2322.40
381.47	2236.38
381.69	2181.09
381.90	2396.12
382.12	2310.11
382.33	2344.92
382.54	2275.29
382.76	2260.96
382.97	2258.91
383.19	2269.15
383.40	2422.75
383.61	2254.81
383.83	2224.09
384.04	2230.24
384.25	2373.60
384.47	2363.36
384.68	2344.92
384.89	2265.05
385.11	2312.16
385.32	2342.88
385.54	2361.31
385.75	2369.50
385.96	2389.98
386.18	2412.51
386.39	2447.32
386.60	2371.55
386.82	2306.01
387.03	2349.02
387.24	2432.99
387.46	2344.92
387.67	2389.98
387.88	2441.18
388.10	2412.51
388.31	2437.08
388.52	2531.29
388.74	2492.38
388.95	2527.19
389.16	2432.99
389.38	2473.95
389.59	2519.00
389.80	2529.24
390.02	2486.23
390.23	2590.68
390.44	2543.58
390.66	2420.70
390.87	2510.81
391.08	2510.81
391.30	2576.34
391.51	2619.35
391.72	2678.74
391.94	2605.02
392.15	2637.78
392.36	2525.15
392.58	2486.23
392.79	2615.26
393.00	2688.98
393.22	2639.83
393.43	2648.02
393.64	2664.41
393.85	2654.17
394.07	2598.87
394.28	2791.38
394.49	2701.27
394.71	2691.03
394.92	2785.24
395.13	2590.68
395.35	2678.74
395.56	2629.59
395.77	2766.81
395.98	2807.77
396.20	2815.96
396.41	2781.14
396.62	2846.68
396.84	2736.09
397.05	2772.95
397.26	2813.91
397.47	2893.78
397.69	2789.33
397.90	2924.50
398.11	2811.86
398.32	2711.51
398.54	2754.52
398.75	2750.42
398.96	2736.09
399.18	2949.08
399.39	2828.24
399.60	3004.37
399.81	2838.48
400.03	2777.05
400.24	3117.01
400.45	2822.10
400.66	2963.41
400.88	2885.59
401.09	3088.34
401.30	2918.36
401.51	2967.51
401.73	3084.24
401.94	2977.75
402.15	3076.05
402.36	3082.19
402.58	3096.53
402.79	3059.67
403.00	3006.42
403.21	3106.77
403.43	3071.95
403.64	3149.78
403.85	3020.75
404.06	3119.06
404.27	3018.71
404.49	3125.20
404.70	3030.99
404.91	3145.68
405.12	3100.62
405.34	3141.58
405.55	3389.39
405.76	3067.86
405.97	3108.82
406.19	3254.22
406.40	3139.54
406.61	3223.50
406.82	3280.85
407.03	3219.41
407.25	3168.21
407.46	3305.42
407.67	3350.48
407.88	3399.63
408.09	3272.65
408.31	3229.65
408.52	3354.57
408.73	3229.65
408.94	3317.71
409.15	3338.19
409.37	3338.19
409.58	3461.07
409.79	3450.83
410.00	3485.64
410.21	3420.11
410.43	3342.28
410.64	3262.41
410.85	3467.21
411.06	3393.48
411.27	3497.93
411.48	3438.54
411.70	3479.50
411.91	3479.50
412.12	3577.80
412.33	3512.27
412.54	3573.71
412.76	3563.47
412.97	3551.18
413.18	3411.92
413.39	3518.41
413.60	3581.90
413.81	3674.06
414.03	3696.58
414.24	3549.13
414.45	3684.30
414.66	3456.97
414.87	3680.20
415.08	3647.43
415.30	3532.75
415.51	3694.54
415.72	3614.66
415.93	3637.19
416.14	3745.73
416.35	3790.79
416.56	3768.26
416.78	3641.29
416.99	3854.28
417.20	3770.31
417.41	3803.08
417.62	3911.62
417.83	3893.19
418.04	3809.22
418.26	3958.72
418.47	3846.09
418.68	3891.14
418.89	3862.47
419.10	4054.98
419.31	3934.15
419.52	3983.30
419.73	3850.18
419.95	4179.90
420.16	3878.85
420.37	3946.44
420.58	3981.25
420.79	3917.76
421.00	4030.40
421.21	3973.06
421.42	3993.54
421.63	4024.26
421.85	4063.17
422.06	4069.31
422.27	3946.44
422.48	4114.37
422.69	4122.56
422.90	4059.07
423.11	4184.00
423.32	4194.24
423.53	4186.05
423.75	4161.47
423.96	4409.28
424.17	4147.14
424.38	4382.65
424.59	4337.60
424.80	4478.91
425.01	4251.58
425.22	4435.90
425.43	4370.37
425.64	4638.65
425.85	4460.48
426.06	4440.00
426.28	4464.57
426.49	4386.75
426.70	4499.39
426.91	4431.80
427.12	4489.15
427.33	4493.24
427.54	4560.83
427.75	4573.11
427.96	4556.73
428.17	4614.07
428.38	4677.56
428.59	4728.76
428.80	4626.36
429.01	4671.42
429.23	4616.12
429.44	4827.06
429.65	4724.66
429.86	4892.60
430.07	4642.75
430.28	4804.53
430.49	4779.96
430.70	4913.08
430.91	5017.52
431.12	4779.96
431.33	4980.66
431.54	5025.72
431.75	4990.90
431.96	4902.84
432.17	4876.21
432.38	4978.61
432.59	5023.67
432.80	5017.52
433.01	4990.90
433.22	5173.17
433.43	5003.19
433.64	4992.95
433.85	5015.48
434.06	5058.48
434.27	5054.39
434.49	5154.74
434.70	5304.24
434.91	5175.22
435.12	5373.87
435.33	5205.94
435.54	5066.67
435.75	5093.30
435.96	5216.18
436.17	5050.29
436.38	5341.10
436.59	5386.16
436.80	5291.95
437.01	5554.09
437.22	5384.11
437.43	5566.38
437.64	5267.38
437.85	5504.94
438.06	5513.13
438.27	5361.58
438.48	5361.58
438.69	5537.71
438.90	5486.51
439.11	5394.35
439.32	5502.89
439.53	5570.48
439.74	5558.19
439.95	5550.00
440.16	5703.59
440.37	5515.18
440.57	5441.45
440.78	5767.08
440.99	5640.11
441.20	5736.36
441.41	5633.96
441.62	5765.03
441.83	5582.76
442.04	5863.33
442.25	5746.60
442.46	5824.42
442.67	5855.14
442.88	6274.98
443.09	5652.39
443.30	5937.06
443.51	5822.38
443.72	6084.52
443.93	5859.24
444.14	6160.29
444.35	5824.42
444.56	6160.29
444.77	5988.26
444.98	6096.80
445.19	6254.50
445.40	5992.36
445.61	6102.95
445.81	6066.08
446.02	6102.95
446.23	6182.82
446.44	6094.76
446.65	6236.06
446.86	6322.08
447.07	6346.66
447.28	6367.13
447.49	6395.81
447.70	6379.42
447.91	6395.81
448.12	6283.17
448.33	6504.35
448.54	6657.95
448.74	6487.96
448.95	6563.74
449.16	6496.16
449.37	6748.06
449.58	6584.22
449.79	6809.50
450.00	6500.25
450.21	6594.46
450.42	6746.01
450.63	6684.57
450.84	6682.52
451.05	6762.39
451.25	6877.08
451.46	6737.82
451.67	6915.99
451.88	6924.18
452.09	6834.07
452.30	6825.88
452.51	6975.38
452.72	7049.11
452.93	7161.75
453.13	6918.04
453.34	6985.62
453.55	7104.40
453.76	7249.81
453.97	7450.51
454.18	7118.74
454.39	7264.15
454.60	7192.47
454.81	7217.04
455.01	7477.13
455.22	7225.23
455.43	7540.62
455.64	7653.26
455.85	7712.65
456.06	7731.08
456.27	7602.06
456.48	7647.12
456.68	7669.64
456.89	7780.23
457.10	7735.18
457.31	7901.06
457.52	7806.86
457.73	7915.40
457.94	8085.38
458.14	7909.26
458.35	8187.78
458.56	8048.52
458.77	7769.99
458.98	8146.82
459.19	8189.83
459.39	8273.79
459.60	8333.18
459.81	8148.87
460.02	8419.20
460.23	8171.40
460.44	8533.89
460.65	8365.95
460.85	8474.49
461.06	8429.44
461.27	8327.04
461.48	8757.11
461.69	8830.84
461.89	8361.86
462.10	8720.25
462.31	8480.64
462.52	8699.77
462.73	8587.13
462.94	8851.32
463.14	8890.23
463.35	9023.35
463.56	9394.03
463.77	9277.30
463.98	8992.63
464.18	9121.65
464.39	9265.01
464.60	9428.85
464.81	9367.41
465.02	9312.11
465.23	9703.28
465.43	9217.91
465.64	9488.24
465.85	9594.73
466.06	9396.08
466.27	9742.19
466.47	9686.89
466.68	9744.24
466.89	9809.77
467.10	9994.09
467.30	9670.51
467.51	10035.05
467.72	10162.02
467.93	9936.74
468.14	10006.38
468.34	10223.46
468.55	10166.12
468.76	10237.80
468.97	10145.64
469.17	10479.46
469.38	10504.03
469.59	10399.59
469.80	10391.39
470.01	10463.07
470.21	10596.19
470.42	10596.19
470.63	10727.26
470.84	10694.49
471.04	10837.85
471.25	10952.54
471.46	10970.97
471.67	11235.16
471.87	11102.04
472.08	11229.01
472.29	11249.49
472.50	11046.74
472.70	11480.91
472.91	11188.05
473.12	11515.73
473.33	11732.81
473.53	11495.25
473.74	11591.50
473.95	11884.36
474.16	11947.85
474.36	12040.01
474.57	12087.11
474.78	11904.84
474.99	11958.09
475.19	11941.71
475.40	12351.30
475.61	12427.07
475.81	12341.06
476.02	12758.85
476.23	12529.47
476.44	12898.11
476.64	12816.19
476.85	13000.51
477.06	12869.44
477.27	13025.08
477.47	12844.86
477.68	13055.80
477.89	13238.07
478.09	13274.93
478.30	13139.77
478.51	13254.45
478.71	13422.39
478.92	13571.89
479.13	13563.70
479.34	13965.10
479.54	13733.68
479.75	13883.18
479.96	13903.66
480.16	14049.07
480.37	14069.55
480.58	14395.17
480.78	14575.39
480.99	14397.22
481.20	14741.28
481.41	14421.80
481.61	14743.33
481.82	14733.09
482.03	14712.61
482.23	14692.13
482.44	14765.85
482.65	15173.40
482.85	15159.06
483.06	14987.04
483.27	15316.76
483.47	15300.37
483.68	15277.85
483.89	15408.92
484.09	15539.99
484.30	15529.75
484.51	15595.28
484.71	15853.33
484.92	15865.61
485.13	16004.88
485.33	15976.20
485.54	16068.36
485.75	16273.16
485.95	16393.99
486.16	16373.51
486.37	16758.53
486.57	16711.42
486.78	16441.09
486.98	16807.68
487.19	16873.21
487.40	17010.43
487.60	16989.95
487.81	17135.35
488.02	17051.39
488.22	17288.95
488.43	17311.48
488.64	17379.06
488.84	17536.76
489.05	17514.23
489.25	17647.35
489.46	17753.84
489.67	17958.64
489.87	17886.96
490.08	18018.03
490.29	17938.16
490.49	18423.53
490.70	18446.05
490.90	18695.91
491.11	18370.28
491.32	18511.59
491.52	18421.48
491.73	18767.59
491.94	18554.60
492.14	18743.01
492.35	18874.08
492.55	19074.78
492.76	19017.44
492.97	19168.99
493.17	19205.85
493.38	19271.39
493.58	19238.62
493.79	19523.29
494.00	19525.33
494.20	19572.44
494.41	19896.02
494.61	19996.37
494.82	19801.81
495.02	19685.08
495.23	20113.10
495.44	20221.64
495.64	20369.10
495.85	20190.92
496.05	20506.31
496.26	20391.62
496.47	20778.69
496.67	20604.61
496.88	20889.28
497.08	20424.39
497.29	21061.31
497.49	20977.34
497.70	21206.72
497.91	21288.64
498.11	21403.32
498.32	21382.84
498.52	21622.45
498.73	21616.31
498.93	21739.19
499.14	21804.72
499.34	21907.12
499.55	22128.30
499.76	21765.81
499.96	21954.22
500.17	22329.00
500.37	22341.29
500.58	22445.74
500.78	22433.45
500.99	22666.92
501.19	22656.68
501.40	22435.50
501.60	22423.21
501.81	22470.31
502.02	22711.97
502.22	22560.42
502.43	22953.63
502.63	23053.98
502.84	23389.85
503.04	23236.25
503.25	23056.03
503.45	23434.91
503.66	23582.36
503.86	23611.03
504.07	23938.71
504.27	23299.74
504.48	23750.29
504.68	23733.91
504.89	24233.61
505.09	23910.04
505.30	23836.31
505.50	24411.79
505.71	23965.33
505.91	24452.75
506.12	24055.44
506.32	23987.86
506.53	24565.39
506.73	24469.13
506.94	24493.71
507.14	24837.76
507.35	24868.48
507.55	24729.22
507.76	25138.82
507.96	24829.57
508.17	25040.51
508.37	25056.90
508.58	25329.28
508.78	25187.97
508.99	25421.44
509.19	25224.83
509.40	25448.06
509.60	25411.20
509.81	25325.18
510.01	25480.83
510.22	25659.00
510.42	25611.90
510.63	25761.40
510.83	25912.95
511.04	25826.93
511.24	26191.47
511.44	26132.08
511.65	25953.91
511.85	26119.79
512.06	26422.89
512.26	26150.51
512.47	26261.10
512.67	26179.18
512.88	26400.37
513.08	26111.60
513.29	26586.73
513.49	26805.86
513.69	26562.15
513.90	26562.15
514.10	26756.71
514.31	26592.87
514.51	26891.88
514.72	26807.91
514.92	26852.97
515.13	26963.56
515.33	27209.31
515.53	27170.40
515.74	27436.64
515.94	27627.10
516.15	27338.33
516.35	27137.63
516.56	27485.79
516.76	27334.24
516.96	27340.38
517.17	27883.09
517.37	27620.95
517.58	27725.40
517.78	27620.95
517.99	27741.78
518.19	28206.67
518.39	27838.04
518.60	28018.26
518.80	27776.60
519.01	28300.88
519.21	27942.49
519.41	28231.25
519.62	28079.70
519.82	28544.59
520.03	28585.55
520.23	28659.27
520.43	28466.77
520.64	28759.63
520.84	28573.26
521.05	28634.70
521.25	29128.26
521.45	28917.32
521.66	29034.05
521.86	28757.58
522.07	29083.20
522.27	29152.84
522.47	29206.08
522.68	29177.41
522.88	29380.16
523.08	29627.96
523.29	29548.09
523.49	29474.37
523.70	29713.98
523.90	29779.51
524.10	29492.80
524.31	29769.27
524.51	29572.67
524.71	30176.82
524.92	29935.16
525.12	30354.99
525.33	29890.10
525.53	30197.30
525.73	30379.57
525.94	30389.81
526.14	30264.88
526.34	30213.68
526.55	30770.73
526.75	30293.55
526.95	30783.02
527.16	31006.25
527.36	30776.87
527.56	31229.48
527.77	31190.56
527.97	30776.87
528.17	31092.26
528.38	31303.20
528.58	31268.39
528.78	31419.94
528.99	31211.04
529.19	31514.14
529.39	31184.42
529.60	31368.74
529.80	31737.37
530.00	31295.01
530.21	31909.40
530.41	31933.98
530.61	31434.27
530.82	32159.25
531.02	31991.32
531.22	32015.90
531.43	32196.12
531.63	32433.68
531.83	32693.77
532.04	32675.34
532.24	32390.67
532.44	32830.99
532.64	32974.34
532.85	32904.71
533.05	32534.03
533.25	32785.93
533.46	32892.43
533.66	33441.28
533.86	33187.33
534.07	33269.25
534.27	33334.79
534.47	33494.53
534.67	33768.96
534.88	33230.34
535.08	33654.27
535.28	33484.29
535.49	33834.49
535.69	34029.05
535.89	33820.16
536.09	33844.73
536.30	34045.43
536.50	34303.48
536.70	34295.28
536.91	34489.84
537.11	34608.62
537.31	34285.04
537.51	34682.35
537.72	34743.79
537.92	34786.80
538.12	35036.65
538.32	34995.69
538.53	35063.27
538.73	34651.63
538.93	34641.39
539.13	34768.37
539.34	35089.90
539.54	34960.87
539.74	35323.36
539.94	34926.06
540.15	35134.95
540.35	35374.56
540.55	35814.88
540.75	35431.91
540.96	35548.64
541.16	35444.20
541.36	35620.32
541.56	35655.14
541.77	35886.56
541.97	35870.17
542.17	35673.57
542.37	36036.06
542.58	35945.95
542.78	35755.49
542.98	36179.42
543.18	36038.11
543.38	36400.60
543.59	36672.98
543.79	36390.36
543.99	36330.97
544.19	36285.91
544.40	36224.47
544.60	36758.99
544.80	36279.77
545.00	36634.06
545.20	36875.73
545.41	37107.15
545.61	36650.45
545.81	36881.87
546.01	36904.40
546.21	36726.22
546.42	36916.68
546.62	37080.52
546.82	36992.46
547.02	36926.92
547.22	37361.09
547.43	36963.79
547.63	37168.58
547.83	37529.03
548.03	36994.51
548.23	37957.05
548.44	37684.67
548.64	37680.58
548.84	37584.32
549.04	37733.82
549.24	37746.11
549.45	38022.59
549.65	37598.66
549.85	37891.52
550.05	37928.38
550.25	37959.10
550.45	38657.46
550.66	38051.26
550.86	38000.06
551.06	38395.32
551.26	38544.82
551.46	38542.77
551.66	38419.89
551.87	37940.67
552.07	38434.23
552.27	38358.45
552.47	38759.86
552.67	38866.35
552.87	38573.49
553.07	38942.13
553.28	38933.93
553.48	39091.63
553.68	38929.84
553.88	38962.61
554.08	39132.59
554.28	38819.25
554.48	39304.62
554.69	39321.00
554.89	39083.44
555.09	38950.32
555.29	39167.40
555.49	39366.06
555.69	39318.95
555.89	39493.03
556.10	39634.34
556.30	39001.52
556.50	39341.48
556.70	39607.72
556.90	39957.92
557.10	40074.65
557.30	39544.23
557.50	40015.26
557.70	39894.43
557.91	40244.63
558.11	40033.69
558.31	40179.10
558.51	39886.24
558.71	40134.04
558.91	40674.71
559.11	40209.82
559.31	40189.34
559.51	40019.36
559.72	40226.20
559.92	40713.62
560.12	40387.99
560.32	40512.92
560.52	40322.46
560.72	40387.99
560.92	40670.61
561.12	41004.43
561.32	41362.82
561.52	40643.99
561.72	40668.56
561.93	40566.16
562.13	41104.78
562.33	40912.27
562.53	41489.80
562.73	40764.82
562.93	41278.86
563.13	41278.86
563.33	41475.46
563.53	41385.35
563.73	41178.51
563.93	41616.77
564.13	41729.41
564.33	41870.72
564.53	41743.75
564.74	41725.32
564.94	41702.79
565.14	41729.41
565.34	41770.37
565.54	41729.41
565.74	42179.96
565.94	42005.89
566.14	41680.26
566.34	41815.43
566.54	42227.07
566.74	41993.60
566.94	42243.45
567.14	42286.46
567.34	42126.72
567.54	42501.50
567.74	41842.05
567.94	42820.98
568.14	42683.76
568.34	43115.89
568.54	42694.00
568.74	42595.70
568.94	42376.57
569.14	43019.63
569.34	43335.02
569.54	42827.12
569.75	42915.19
569.95	43130.22
570.15	43609.45
570.35	43607.40
570.55	43275.63
570.75	42984.82
570.95	43570.54
571.15	43533.67
571.35	43361.64
571.55	43613.54
571.75	43777.38
571.95	43591.01
572.15	43732.32
572.35	43615.59
572.55	43982.18
572.75	43754.85
572.95	43787.62
573.15	44377.43
573.35	43861.35
573.55	43789.67
573.75	44152.16
573.95	44322.14
574.15	44035.42
574.35	44348.76
574.55	44385.63
574.75	43914.59
574.95	44475.74
575.15	44170.59
575.34	44612.95
575.54	44868.95
575.74	44696.92
575.94	44662.10
576.14	44893.52
576.34	45057.36
576.54	45284.68
576.74	44991.83
576.94	45026.64
577.14	45038.93
577.34	46069.06
577.54	44598.62
577.74	45471.05
577.94	45092.18
578.14	45299.02
578.34	46046.53
578.54	44946.77
578.74	45661.51
578.94	45815.11
579.14	45647.18
579.34	45698.37
579.54	45727.05
579.74	46601.53
579.94	46204.22
580.13	46374.20
580.33	45968.71
580.53	46206.27
580.73	46157.12
580.93	46574.91
581.13	46646.58
581.33	46783.80
581.53	46486.84
581.73	46667.06
581.93	46404.92
582.13	46806.33
582.33	46798.13
582.53	46667.06
582.73	47045.94
582.92	46906.68
583.12	47090.99
583.32	46529.85
583.52	47097.14
583.72	47494.44
583.92	46925.11
584.12	47478.06
584.32	47693.10
584.52	47293.74
584.72	47416.62
584.92	47211.82
585.11	47828.26
585.31	47873.32
585.51	47519.02
585.71	47103.28
585.91	48080.16
586.11	47867.17
586.31	47543.59
586.51	48102.69
586.71	47834.41
586.91	48080.16
587.10	48268.58
587.30	48454.94
587.50	48540.96
587.70	48305.44
587.90	48190.75
588.10	48244.00
588.30	48401.69
588.50	48825.62
588.69	48839.96
588.89	48489.76
589.09	48868.63
589.29	48850.20
589.49	48805.14
589.69	48436.51
589.89	48674.07
590.08	48915.73
590.28	48807.19
590.48	48577.82
590.68	48481.56
590.88	48788.76
591.08	48874.77
591.28	48846.10
591.47	49480.97
591.67	48936.21
591.87	49186.07
592.07	49001.75
592.27	49300.75
592.47	49046.80
592.67	49071.38
592.86	49011.99
593.06	49331.47
593.26	49544.46
593.46	49597.71
593.66	49638.67
593.86	49906.95
594.05	49673.48
594.25	49534.22
594.45	49214.74
594.65	49732.87
594.85	49437.97
595.05	49906.95
595.24	49673.48
595.44	49736.97
595.64	49917.19
595.84	49810.70
596.04	49675.53
596.23	50007.30
596.43	50124.04
596.63	49667.34
596.83	50060.55
597.03	50437.37
597.22	50517.25
597.42	50255.11
597.62	50517.25
597.82	50281.73
598.02	50646.27
598.21	50756.86
598.41	50326.78
598.61	50486.53
598.81	50529.53
599.01	50765.05
599.20	50154.75
599.40	50367.74
599.60	51111.16
599.80	51021.05
600.00	50515.20
600.19	51062.00
600.39	50541.82
600.59	51172.60
600.79	50914.55
600.98	50840.82
601.18	51074.29
601.38	51191.03
601.58	51174.64
601.78	50994.42
601.97	51786.99
602.17	51666.16
602.37	51182.84
602.57	51164.40
602.76	51571.95
602.96	51086.58
603.16	51283.19
603.36	51444.98
603.55	51387.63
603.75	51197.17
603.95	51891.43
604.15	51674.35
604.34	51463.41
604.54	51598.57
604.74	51774.70
604.94	51557.61
605.13	51709.16
605.33	51483.89
605.53	51574.00
605.73	51868.90
605.92	51789.03
606.12	52081.89
606.32	52243.68
606.52	51766.51
606.71	51733.74
606.91	52063.46
607.11	51598.57
607.30	51762.41
607.50	52167.91
607.70	52088.04
607.90	51997.93
608.09	52112.61
608.29	52024.55
608.49	52274.40
608.68	52131.04
608.88	51985.64
609.08	52012.26
609.28	51887.34
609.47	51729.64
609.67	52520.16
609.87	52352.23
610.06	52532.45
610.26	52409.57
610.46	52581.60
610.66	52053.22
610.85	51803.37
611.05	52042.98
611.25	52483.30
611.44	52006.12
611.64	52278.50
611.84	52454.62
612.03	52051.17
612.23	52974.81
612.43	52440.29
612.62	52182.24
612.82	52561.12
613.02	52731.10
613.21	52409.57
613.41	52378.85
613.61	52387.04
613.80	51700.97
614.00	52581.60
614.20	52305.12
614.39	52309.22
614.59	52786.39
614.79	52131.04
614.98	51979.49
615.18	52362.46
615.38	52163.81
615.57	51913.96
615.77	52079.85
615.97	52471.01
616.16	52364.51
616.36	52155.62
616.56	52014.31
616.75	52024.55
616.95	51715.31
617.15	52262.11
617.34	52083.94
617.54	52040.93
617.74	51987.69
617.93	52321.51
618.13	51786.99
618.32	51643.63
618.52	51959.02
618.72	52145.38
618.91	52303.07
619.11	51877.10
619.31	52253.92
619.50	52167.91
619.70	51492.08
619.90	51991.78
620.09	52047.08
620.29	51881.19
620.48	51959.02
620.68	52268.26
620.88	51414.26
621.07	52165.86
621.27	52026.60
621.46	51553.52
621.66	52012.26
621.86	51948.78
622.05	51864.81
622.25	52278.50
622.44	51705.07
622.64	51778.79
622.84	52192.48
623.03	51328.24
623.23	51709.16
623.42	51883.24
623.62	51678.44
623.82	51770.60
624.01	51803.37
624.21	51574.00
624.40	51897.58
624.60	51969.26
624.80	51668.20
624.99	51584.24
625.19	51528.94
625.38	51854.57
625.58	51610.86
625.77	51846.38
625.97	51844.33
626.17	51328.24
626.36	51823.85
626.56	51918.06
626.75	51246.32
626.95	51748.07
627.14	51791.08
627.34	51635.44
627.54	51549.42
627.73	51838.18
627.93	52106.47
628.12	51528.94
628.32	51885.29
628.51	51424.50
628.71	51653.87
628.90	51698.92
629.10	51672.30
629.30	51508.46
629.49	52026.60
629.69	51408.11
629.88	51229.94
630.08	51758.31
630.27	51750.12
630.47	51301.62
630.66	51485.93
630.86	51338.48
631.05	51578.09
631.25	51866.86
631.44	51889.38
631.64	51354.86
631.84	52026.60
632.03	51916.01
632.23	51592.43
632.42	51836.14
632.62	52040.93
632.81	51799.27
633.01	52102.37
633.20	51961.06
633.40	51571.95
633.59	51746.03
633.79	51553.52
633.98	51606.76
634.18	51993.83
634.37	51600.62
634.57	51889.38
634.76	52491.49
634.96	51778.79
635.15	52026.60
635.35	52018.41
635.54	51959.02
635.74	52151.52
635.93	51852.52
636.13	52274.40
636.32	52071.65
636.52	51389.68
636.71	51922.15
636.91	52081.89
637.10	52212.96
637.30	51971.30
637.49	51995.88
637.69	52188.39
637.88	52477.15
638.08	51995.88
638.27	51981.54
638.46	51975.40
638.66	51825.90
638.85	51891.43
639.05	52069.61
639.24	52112.61
639.44	52327.65
639.63	52501.73
639.83	52440.29
640.02	52307.17
640.22	52139.24
640.41	52671.71
640.61	52294.88
640.80	52548.83
640.99	52335.84
641.19	52925.66
641.38	52692.19
641.58	52659.42
641.77	52237.54
641.97	52823.26
642.16	52317.41
642.36	52708.57
642.55	52958.42
642.74	52659.42
642.94	53036.25
643.13	52542.69
643.33	52763.87
643.52	53028.05
643.72	53036.25
643.91	52561.12
644.10	53069.01
644.30	53150.93
644.49	52618.46
644.69	53040.34
644.88	53195.99
645.08	52686.04
645.27	53003.48
645.46	52505.82
645.66	52999.38
645.85	53036.25
646.05	53069.01
646.24	53228.76
646.43	53128.41
646.63	53822.67
646.82	53603.53
647.02	53341.39
647.21	53355.73
647.40	53007.58
647.60	53957.83
647.79	53421.26
647.99	53804.24
648.18	53228.76
648.37	53968.07
648.57	53761.23
648.76	53716.17
648.96	53253.33
649.15	53613.77
649.34	53589.20
649.54	53980.36
649.73	53724.36
649.92	53597.39
650.12	53886.15
650.31	54400.19
650.51	54179.01
650.70	54273.22
650.89	54260.93
651.09	54518.98
651.28	54162.63
651.47	53916.87
651.67	54035.66
651.86	54240.45
652.06	54039.75
652.25	54287.56
652.44	54197.44
652.64	53732.56
652.83	53875.91
653.02	53892.30
653.22	54150.34
653.41	54191.30
653.60	53945.54
653.80	53843.15
653.99	54414.53
654.18	54209.73
654.38	54500.54
654.57	54482.11
654.76	54394.05
654.96	54254.79
655.15	54488.26
655.34	54691.01
655.54	53949.64
655.73	54592.70
655.92	54310.08
656.12	54441.15
656.31	54648.00
656.50	54912.19
656.70	54334.66
656.89	54371.52
657.08	54672.57
657.28	55078.07
657.47	55057.59
657.66	54568.13
657.86	54903.99
658.05	54566.08
658.24	55018.68
658.43	54375.62
658.63	55116.98
658.82	54924.47
659.01	54652.09
659.21	55057.59
659.40	54957.24
659.59	54967.48
659.79	54963.39
659.98	55583.92
660.17	55155.89
660.36	55323.83
660.56	55557.30
660.75	55237.81
660.94	55383.22
661.14	55071.93
661.33	55633.07
661.52	54590.66
661.71	55571.63
661.91	55088.31
662.10	54981.82
662.29	55923.88
662.49	55458.99
662.68	55717.04
662.87	55753.90
663.06	55493.81
663.26	55178.42
663.45	55364.79
663.64	55430.32
663.83	55637.17
664.03	55813.29
664.22	55399.60
664.41	56136.87
664.60	55698.61
664.80	56001.71
664.99	55723.18
665.18	55784.62
665.37	55919.79
665.57	55925.93
665.76	55774.38
665.95	56143.02
666.14	55604.40
666.34	55706.80
666.53	55964.84
666.72	55690.41
666.91	55786.67
667.11	55512.24
667.30	55858.35
667.49	55196.85
667.68	55899.31
667.87	55776.43
668.07	55854.25
668.26	55868.59
668.45	56122.54
668.64	55778.48
668.84	56243.37
669.03	55913.64
669.22	55915.69
669.41	56253.61
669.60	56286.37
669.80	55813.29
669.99	56151.21
670.18	56063.14
670.37	55995.56
670.57	55936.17
670.76	56274.09
670.95	56353.96
671.14	56026.28
671.33	55762.09
671.53	56603.81
671.72	56116.39
671.91	56300.71
672.10	56292.52
672.29	56603.81
672.48	55807.15
672.68	56599.71
672.87	56239.27
673.06	56177.83
673.25	55997.61
673.44	56018.09
673.64	55833.77
673.83	55841.96
674.02	56093.86
674.21	55710.89
674.40	56485.03
674.59	55456.95
674.79	55921.83
674.98	55915.69
675.17	56050.86
675.36	55790.76
675.55	56317.09
675.74	55841.96
675.94	55796.91
676.13	56308.90
676.32	56327.33
676.51	56267.94
676.70	56003.75
676.89	55993.51
677.08	56423.59
677.28	56089.77
677.47	56585.38
677.66	56589.47
677.85	56030.38
678.04	56243.37
678.23	56546.47
678.42	56186.02
678.62	56153.26
678.81	56419.49
679.00	56054.95
679.19	56523.94
679.38	56435.87
679.57	56411.30
679.76	56073.38
679.96	56704.16
680.15	56005.80
680.34	56036.52
680.53	55841.96
680.72	56325.28
680.91	56317.09
681.10	56218.79
681.29	56161.45
681.48	56300.71
681.68	55882.92
681.87	55954.60
682.06	56048.81
682.25	55645.36
682.44	55860.40
682.63	55788.72
682.82	55252.15
683.01	55497.91
683.20	55635.12
683.39	55729.33
683.59	55729.33
683.78	55461.04
683.97	55481.52
684.16	55620.78
684.35	55458.99
684.54	55577.78
684.73	55784.62
684.92	55858.35
685.11	55645.36
685.30	55401.65
685.49	55891.12
685.69	55415.99
685.88	55704.75
686.07	55475.38
686.26	55327.92
686.45	55477.43
686.64	55727.28
686.83	55745.71
687.02	55796.91
687.21	55620.78
687.40	55600.30
687.59	55825.58
687.78	55542.96
687.97	55561.39
688.16	55526.58
688.35	55016.63
688.54	55555.25
688.74	55315.64
688.93	55557.30
689.12	55426.23
689.31	55127.22
689.50	55280.82
689.69	55073.98
689.88	54564.03
690.07	54965.43
690.26	54803.64
690.45	55413.94
690.64	55137.46
690.83	55162.04
691.02	54674.62
691.21	55080.12
691.40	54721.72
691.59	54844.60
691.78	54899.90
691.97	55317.68
692.16	54848.70
692.35	55129.27
692.54	54928.57
692.73	54521.02
692.92	54715.58
693.11	54738.11
693.30	54723.77
693.49	54629.57
693.68	54492.35
693.87	55076.02
694.06	54455.49
694.25	53882.06
694.44	54238.40
694.63	54478.02
694.82	54269.12
695.01	54174.92
695.20	54527.17
695.39	54138.05
695.58	54310.08
695.77	54342.85
695.96	54039.75
696.15	54121.67
696.34	54072.52
696.53	53968.07
696.72	54287.56
696.91	54105.29
697.10	54166.73
697.29	53798.09
697.48	54346.95
697.67	53589.20
697.86	53714.12
698.05	53591.25
698.24	54269.12
698.43	53064.92
698.62	53996.74
698.81	53781.71
699.00	53978.31
699.19	53826.76
699.38	53757.13
699.57	53220.56
699.76	53830.86
699.95	53427.41
700.14	53535.95
700.32	53148.88
700.51	53214.42
700.70	53150.93
700.89	53359.83
701.08	53396.69
701.27	52770.01
701.46	53128.41
701.65	52534.49
701.84	53327.06
702.03	53075.16
702.22	52999.38
702.41	52894.94
702.60	52817.11
702.79	52864.22
702.98	52630.75
703.17	52774.11
703.35	52419.81
703.54	52665.56
703.73	52845.79
703.92	52696.28
704.11	52161.76
704.30	52083.94
704.49	52376.80
704.68	52384.99
704.87	52204.77
705.06	52135.14
705.25	51991.78
705.43	52188.39
705.62	52237.54
705.81	52188.39
706.00	52397.28
706.19	51817.71
706.38	51741.93
706.57	51819.75
706.76	51580.14
706.95	51703.02
707.14	51793.13
707.32	51561.71
707.51	51586.28
707.70	51528.94
707.89	51758.31
708.08	51156.21
708.27	51762.41
708.46	51809.51
708.65	51647.72
708.84	52010.21
709.02	51645.68
709.21	51211.51
709.40	51328.24
709.59	51713.26
709.78	51029.24
709.97	51272.95
710.16	51080.44
710.34	51334.38
710.53	51215.60
710.72	50810.10
710.91	51168.50
711.10	50971.89
711.29	51113.20
711.48	50824.44
711.66	50793.72
711.85	50418.94
712.04	50992.37
712.23	50892.02
712.42	50279.68
712.61	50863.35
712.80	50402.56
712.98	50416.89
713.17	50396.42
713.36	50543.87
713.55	50656.51
713.74	50607.36
713.93	50709.75
714.11	50040.07
714.30	49992.97
714.49	50357.50
714.68	50089.22
714.87	50689.27
715.06	50263.30
715.24	49992.97
715.43	50001.16
715.62	49919.24
715.81	49466.64
716.00	49941.77
716.18	49566.99
716.37	49587.47
716.56	49792.26
716.75	49605.90
716.94	49691.91
717.12	49020.18
717.31	49497.36
717.50	49331.47
717.69	49489.16
717.88	49272.08
718.06	49411.34
718.25	49497.36
718.44	49003.80
718.63	49014.04
718.82	49069.33
719.00	49091.86
719.19	49177.87
719.38	48710.94
719.57	48569.63
719.76	48350.49
719.94	48258.34
720.13	48401.69
720.32	48133.41
720.51	48114.98
720.69	48383.26
720.88	48194.85
721.07	48583.96
721.26	48012.58
721.44	48123.17
721.63	48112.93
721.82	47801.64
722.01	47809.83
722.20	48010.53
722.38	47906.08
722.57	47396.14
722.76	47693.10
722.95	47744.30
723.13	47209.78
723.32	47205.68
723.51	46947.64
723.70	47115.57
723.88	47009.07
724.07	47197.49
724.26	47015.22
724.44	46247.23
724.63	47162.67
724.82	47308.08
725.01	46992.69
725.19	46710.07
725.38	46736.69
725.57	46589.24
725.76	46832.95
725.94	46607.67
726.13	46650.68
726.32	46576.95
726.51	46425.40
726.69	46800.18
726.88	46558.52
727.07	46576.95
727.25	46404.92
727.44	46259.52
727.63	46298.43
727.82	46525.75
728.00	46654.78
728.19	46021.95
728.38	46808.37
728.56	46087.49
728.75	46093.63
728.94	46005.57
729.12	46228.80
729.31	46640.44
729.50	46038.34
729.69	46564.67
729.87	46083.39
730.06	46173.50
730.25	45991.23
730.43	46607.67
730.62	45763.91
730.81	46359.87
730.99	46097.73
731.18	45741.38
731.37	46208.32
731.55	46767.41
731.74	46249.28
731.93	46091.58
732.11	46019.91
732.30	45913.41
732.49	45917.51
732.67	45950.27
732.86	46021.95
733.05	46005.57
733.23	45757.77
733.42	45897.03
733.61	45876.55
733.79	45823.30
733.98	46028.10
734.17	45880.64
734.35	45921.60
734.54	45651.27
734.73	46122.30
734.91	45681.99
735.10	45698.37
735.29	46093.63
735.47	45479.24
735.66	45573.45
735.84	45487.43
736.03	45417.80
736.22	45831.49
736.40	45272.40
736.59	45925.70
736.78	45606.22
736.96	45264.21
737.15	45079.89
737.33	45170.00
737.52	45135.18
737.71	44987.73
737.89	44887.38
738.08	45143.38
738.27	44729.69
738.45	45565.26
738.64	45299.02
738.82	45231.44
739.01	45290.83
739.20	45002.07
739.38	45356.36
739.57	45552.97
739.75	45182.29
739.94	45327.69
740.13	44914.00
740.31	44688.73
740.50	44991.83
740.68	44911.95
740.87	44717.40
741.06	44850.52
741.24	44934.48
741.43	44596.57
741.61	44799.32
741.80	44442.97
741.99	44803.41
742.17	44168.54
742.36	44545.37
742.54	44197.21
742.73	44717.40
742.91	44823.89
743.10	44653.91
743.29	44619.10
743.47	44578.14
743.66	44375.39
743.84	44692.82
744.03	44062.05
744.21	44096.86
744.40	44266.84
744.59	44293.47
744.77	43890.02
744.96	44133.73
745.14	44272.99
745.33	44703.06
745.51	44516.70
745.70	44080.48
745.88	43873.63
746.07	44197.21
746.26	44105.06
746.44	43763.04
746.63	44154.21
746.81	44184.93
747.00	43322.73
747.18	44035.42
747.37	44021.09
747.55	44051.81
747.74	44297.56
747.92	43775.33
748.11	43591.01
748.29	43662.69
748.48	43527.53
748.66	43918.69
748.85	43818.34
749.03	43498.86
749.22	43691.37
749.41	43556.20
749.59	43578.73
749.78	43421.03
749.96	43095.41
750.15	43402.60
750.33	43275.63
750.52	43824.48
750.70	43373.93
750.89	43046.26
751.07	43140.46
751.26	43558.25
751.44	43433.32
751.63	43240.81
751.81	42859.89
752.00	42866.03
752.18	43197.80
752.37	43201.90
752.55	42671.48
752.74	42685.81
752.92	42986.86
753.10	42587.51
753.29	43183.47
753.47	42835.31
753.66	42274.17
753.84	42833.27
754.03	42945.90
754.21	42397.05
754.40	42673.52
754.58	42845.55
754.77	42681.72
754.95	42644.85
755.14	42409.34
755.32	42710.39
755.51	42431.86
755.69	42235.26
755.88	42579.32
756.06	42595.70
756.24	42450.30
756.43	42184.06
756.61	42349.95
756.80	42259.84
756.98	42503.54
757.17	42612.09
757.35	42241.40
757.54	42237.31
757.72	42173.82
757.90	41964.93
758.09	42372.47
758.27	42136.96
758.46	42175.87
758.64	41893.25
758.83	42456.44
759.01	42407.29
759.19	42130.81
759.38	42163.58
759.56	42392.95
759.75	42151.29
759.93	41903.49
760.12	41764.23
760.30	41821.57
760.48	41856.39
760.67	41981.31
760.85	41954.69
761.04	42259.84
761.22	41805.19
761.40	41653.64
761.59	41653.64
761.77	41454.98
761.96	41463.18
762.14	41317.77
762.32	41475.46
762.51	41883.01
762.69	41731.46
762.88	41311.63
763.06	41620.87
763.24	41530.76
763.43	41504.13
763.61	40942.99
763.80	41424.26
763.98	41096.59
764.16	41291.15
764.35	41252.23
764.53	40629.65
764.72	41366.92
764.90	41041.29
765.08	41049.49
765.27	40965.52
765.45	40662.42
765.63	40261.02
765.82	40764.82
766.00	40590.74
766.18	40899.98
766.37	41057.68
766.55	40836.50
766.74	40856.98
766.92	40369.56
767.10	40478.10
767.29	40740.24
767.47	40734.10
767.65	40428.95
767.84	40136.09
768.02	40502.68
768.20	40353.18
768.39	40633.75
768.57	40740.24
768.75	40424.86
768.94	40764.82
769.12	40637.84
769.30	39769.51
769.49	40400.28
769.67	40056.22
769.85	39806.37
770.04	40002.97
770.22	39896.48
770.40	40119.71
770.59	39724.45
770.77	39622.05
770.95	39888.29
771.14	39695.78
771.32	39566.76
771.50	39523.75
771.69	39779.74
771.87	39525.80
772.05	39474.60
772.24	39284.14
772.42	39931.29
772.60	39226.79
772.78	39220.65
772.97	39577.00
773.15	39796.13
773.33	39364.01
773.52	39275.94
773.70	39630.24
773.88	39450.02
774.07	39441.83
774.25	39316.90
774.43	39669.15
774.61	40023.45
774.80	39556.52
774.98	39865.76
775.16	39855.52
775.34	39157.16
775.53	39648.68
775.71	39980.45
775.89	39693.73
776.08	40015.26
776.26	39785.89
776.44	39525.80
776.62	39708.07
776.81	39693.73
776.99	39611.81
777.17	39710.11
777.35	39876.00
777.54	39951.77
777.72	39921.05
777.90	39892.38
778.08	39935.39
778.27	39925.15
778.45	39927.20
778.63	40269.21
778.81	39761.31
779.00	40439.19
779.18	40410.52
779.36	40373.66
779.54	40400.28
779.73	39908.77
779.91	40465.81
780.09	40613.27
780.27	40738.19
780.46	40557.97
780.64	40674.71
780.82	40519.06
781.00	40183.19
781.19	40840.59
781.37	40498.58
781.55	40910.22
781.73	40719.76
781.91	40830.35
782.10	40689.04
782.28	40902.03
782.46	40732.05
782.64	40859.02
782.82	40656.28
783.01	41041.29
783.19	40973.71
783.37	41106.83
783.55	41051.53
783.74	40730.00
783.92	40672.66
784.10	41278.86
784.28	40955.28
784.46	40781.20
784.64	40400.28
784.83	40826.26
785.01	41401.74
785.19	40850.83
785.37	40938.90
785.55	41321.87
785.74	40613.27
785.92	40619.41
786.10	40971.66
786.28	40672.66
786.46	40689.04
786.64	40529.30
786.83	40883.60
787.01	41026.96
787.19	40697.24
787.37	40598.93
787.55	40885.65
787.74	40754.58
787.92	40889.74
788.10	40875.41
788.28	40627.60
788.46	40574.36
788.64	39998.88
788.82	40689.04
789.01	40541.59
789.19	40592.79
789.37	40535.45
789.55	40539.54
789.73	40191.39
789.91	40211.87
790.09	40121.76
790.28	39861.66
790.46	39759.27
790.64	40007.07
790.82	40232.35
791.00	39806.37
791.18	39769.51
791.36	39599.52
791.55	39968.16
791.73	40023.45
791.91	39642.53
792.09	39861.66
792.27	39253.42
792.45	39826.85
792.63	39445.93
792.81	39437.73
793.00	39558.56
793.18	38958.51
793.36	39003.56
793.54	39069.10
793.72	38933.93
793.90	39368.10
794.08	38858.16
794.26	39103.92
794.44	38503.86
794.62	38374.84
794.81	38649.27
794.99	38645.17
795.17	38438.33
795.35	38419.89
795.53	38561.20
795.71	38856.11
795.89	38309.30
796.07	38026.68
796.25	37615.04
796.43	37918.14
796.61	37801.41
796.80	37639.62
796.98	37838.27
797.16	37539.27
797.34	37604.80
797.52	37559.75
797.70	37281.22
797.88	37752.26
798.06	37254.60
798.24	37447.11
798.42	37070.28
798.60	37279.18
798.78	36879.82
798.96	36920.78
799.14	36701.65
799.32	36877.77
799.51	36621.78
799.69	37180.87
799.87	36898.25
800.05	36533.71
800.23	36589.01
800.41	36324.82
800.59	36257.24
800.77	36160.98
800.95	36120.02
801.13	36304.34
801.31	36081.11
801.49	36091.35
801.67	35894.75
801.85	36191.70
802.03	35485.15
802.21	35560.93
802.39	35831.26
802.57	35210.73
802.75	35446.24
802.93	35266.02
803.11	35249.64
803.29	35098.09
803.47	35040.75
803.65	35034.60
803.83	35192.30
804.01	34805.23
804.19	34844.14
804.37	34674.16
804.55	34412.02
804.73	34760.17
804.91	34610.67
805.09	34749.93
805.27	34618.86
805.45	34711.02
805.63	34704.88
805.81	34338.29
805.99	34592.24
806.17	34215.41
806.35	34176.50
806.53	34113.02
806.71	34297.33
806.89	34010.62
807.07	33713.66
807.25	34129.40
807.43	33719.81
807.61	33934.84
807.79	33639.93
807.97	33510.91
808.15	33482.24
808.33	33533.44
808.51	33435.14
808.69	33336.84
808.87	33019.40
809.05	32951.82
809.23	32917.00
809.41	32949.77
809.59	32699.92
809.77	33021.45
809.95	32525.84
810.13	32845.32
810.31	32917.00
810.49	32904.71
810.67	32411.15
810.84	32648.72
811.02	32515.60
811.20	32175.64
811.38	32345.62
811.56	32224.79
811.74	32249.36
811.92	32142.87
812.10	32140.82
812.28	32347.67
812.46	32048.66
812.64	32437.78
812.82	31577.63
813.00	32028.18
813.18	32091.67
813.36	31514.14
813.53	31061.54
813.71	31585.82
813.89	31548.96
814.07	31735.32
814.25	31510.05
814.43	31403.55
814.61	31209.00
814.79	31548.96
814.97	31153.70
815.15	31295.01
815.33	31100.45
815.50	30809.64
815.68	31055.40
815.86	31100.45
816.04	31043.11
816.22	30785.07
816.40	30639.66
816.58	30707.24
816.76	30479.92
816.94	30600.75
817.11	30563.89
817.29	30455.34
817.47	30367.28
817.65	30459.44
817.83	30725.68
818.01	30303.79
818.19	30299.70
818.37	30299.70
818.54	30045.75
818.72	29947.45
818.90	30160.44
819.08	30117.43
819.26	29638.20
819.44	29793.85
819.62	29922.87
819.80	29855.29
819.97	29728.31
820.15	29771.32
820.33	29503.04
820.51	29533.76
820.69	29259.33
820.87	29392.45
821.05	29498.94
821.22	29263.43
821.40	29214.27
821.58	29425.22
821.76	29236.80
821.94	28937.80
822.12	29122.12
822.29	29322.82
822.47	28790.34
822.65	29181.51
822.83	29085.25
823.01	29097.54
823.19	28911.17
823.36	28876.36
823.54	28505.68
823.72	28646.99
823.90	28436.05
824.08	28386.89
824.25	28585.55
824.43	28677.71
824.61	28694.09
824.79	28733.00
824.97	28735.05
825.15	28440.14
825.32	28544.59
825.50	28079.70
825.68	27971.16
825.86	28714.57
826.04	28335.70
826.21	28038.74
826.39	28403.28
826.57	27962.97
826.75	28010.07
826.93	27831.90
827.10	27883.09
827.28	27987.54
827.46	28096.08
827.64	27809.37
827.81	27590.24
827.99	27786.84
828.17	27440.73
828.35	27330.14
828.53	27559.52
828.70	27324.00
828.88	27270.75
829.06	27274.85
829.24	27729.50
829.41	27596.38
829.59	27084.39
829.77	27008.61
829.95	27063.91
830.12	26910.31
830.30	27192.93
830.48	27469.40
830.66	26984.04
830.84	27115.11
831.01	27131.49
831.19	27227.74
831.37	26910.31
831.55	26955.36
831.72	27018.85
831.90	26549.87
832.08	26871.40
832.25	26715.75
832.43	26658.41
832.61	26465.90
832.79	26611.31
832.96	26318.45
833.14	26633.83
833.32	26801.77
833.50	26596.97
833.67	26660.46
833.85	26357.36
834.03	26142.32
834.20	26496.62
834.38	26695.27
834.56	26596.97
834.74	26449.52
834.91	25978.48
835.09	26160.75
835.27	25839.22
835.44	25681.53
835.62	25634.42
835.80	25587.32
835.98	26044.02
836.15	26013.30
836.33	25759.35
836.51	25865.85
836.68	25339.52
836.86	25714.30
837.04	25828.98
837.21	25749.11
837.39	25982.58
837.57	25804.41
837.75	25280.13
837.92	25296.51
838.10	25632.38
838.28	25124.48
838.45	25357.95
838.63	25247.36
838.81	25552.51
838.98	25300.61
839.16	25190.02
839.34	25177.73
839.51	24950.40
839.69	25063.04
839.87	25013.89
840.04	25073.28
840.22	25075.33
840.40	25181.82
840.57	24739.46
840.75	25011.84
840.93	24473.23
841.10	25122.43
841.28	25044.61
841.46	24731.27
841.63	24956.55
841.81	24651.40
841.98	24522.38
842.16	24735.37
842.34	24604.30
842.51	24473.23
842.69	24667.78
842.87	24209.04
843.04	24393.36
843.22	24282.77
843.40	24168.08
843.57	24309.39
843.75	24266.38
843.92	24217.23
844.10	24170.13
844.28	24542.86
844.45	24526.47
844.63	24387.21
844.81	24129.17
844.98	24319.63
845.16	24065.68
845.33	24135.31
845.51	24159.89
845.69	24037.01
845.86	23848.60
846.04	23735.96
846.21	24010.39
846.39	23719.57
846.57	23412.38
846.74	23637.66
846.92	23479.96
847.09	23717.53
847.27	23449.24
847.45	23858.84
847.62	23453.34
847.80	23578.26
847.97	23387.80
848.15	23393.95
848.32	23471.77
848.50	23322.27
848.68	23338.65
848.85	23160.48
849.03	23123.62
849.20	23461.53
849.38	22980.26
849.56	23324.32
849.73	22757.03
849.91	23168.67
850.08	23262.88
850.26	22843.04
850.43	22806.18
850.61	23051.94
850.78	22525.61
850.96	22728.36
851.14	22941.35
851.31	22912.67
851.49	22795.94
851.66	22595.24
851.84	22464.17
852.01	22664.87
852.19	22589.10
852.36	22566.57
852.54	22652.58
852.71	22445.74
852.89	22458.03
853.07	22623.91
853.24	22574.76
853.42	22236.84
853.59	22382.25
853.77	22558.38
853.94	22331.05
854.12	22423.21
854.29	22116.01
854.47	22023.86
854.64	22191.79
854.82	22550.18
854.99	22146.73
855.17	22165.17
855.34	22023.86
855.52	21884.59
855.69	22369.96
855.87	21862.07
856.04	21839.54
856.22	22109.87
856.39	21771.96
856.57	21847.73
856.74	21796.53
856.92	21931.70
857.09	21685.94
857.27	21714.61
857.44	21720.76
857.62	21747.38
857.79	21761.72
857.97	21599.93
858.14	21575.35
858.32	21509.82
858.49	21565.11
858.67	21511.86
858.84	21417.66
859.02	21587.64
859.19	21368.51
859.37	21198.52
859.54	21272.25
859.72	21282.49
859.89	21171.90
860.06	21206.72
860.24	21284.54
860.41	21055.17
860.59	21272.25
860.76	21264.06
860.94	20727.49
861.11	21237.44
861.29	21106.37
861.46	20850.37
861.64	21118.65
861.81	20862.66
861.98	21034.69
862.16	20618.95
862.33	20852.42
862.51	20829.89
862.68	20725.44
862.86	20444.87
863.03	20459.21
863.21	20639.43
863.38	20360.91
863.55	20616.90
863.73	20647.62
863.90	20348.62
864.08	20479.69
864.25	19996.37
864.43	20491.98
864.60	20555.46
864.77	20401.86
864.95	20180.68
865.12	19998.41
865.30	20297.42
865.47	20238.03
865.64	20260.55
865.82	20395.72
865.99	20131.53
866.17	19830.48
866.34	19998.41
866.51	19599.06
866.69	19916.50
866.86	19918.54
867.04	19928.78
867.21	20018.89
867.38	19404.50
867.56	19723.99
867.73	19414.74
867.91	19766.99
868.08	19556.05
868.25	19580.63
868.43	19570.39
868.60	19353.30
868.78	19341.02
868.95	19601.11
869.12	19496.66
869.30	19357.40
869.47	19295.96
869.64	19369.69
869.82	19402.46
869.99	19207.90
870.16	19304.15
870.34	19164.89
870.51	19492.57
870.69	19187.42
870.86	19132.12
871.03	19220.19
871.21	18962.14
871.38	19058.40
871.55	18642.66
871.73	18917.09
871.90	18743.01
872.07	18669.28
872.25	18618.08
872.42	18657.00
872.59	18763.49
872.77	18652.90
872.94	18613.99
873.11	18693.86
873.29	18466.53
873.46	18530.02
873.63	18550.50
873.81	18466.53
873.98	18239.21
874.15	18478.82
874.33	18188.01
874.50	18247.40
874.67	18245.35
874.85	18003.69
875.02	18165.48
875.19	18114.28
875.37	17960.69
875.54	18099.95
875.71	17919.73
875.88	17944.30
876.06	17772.27
876.23	18011.89
876.40	17620.72
876.58	17819.38
876.75	17590.00
876.92	17329.91
877.10	17850.10
877.27	17499.89
877.44	17491.70
877.61	17460.98
877.79	17403.64
877.96	17524.47
878.13	17186.55
878.31	17235.70
878.48	17512.18
878.65	17329.91
878.82	17135.35
879.00	17200.89
879.17	17164.03
879.34	17227.51
879.51	17112.83
879.69	17123.07
879.86	17008.38
880.03	16957.18
880.21	17004.28
880.38	16905.98
880.55	17174.27
880.72	17002.24
880.90	16908.03
881.07	16615.17
881.24	16838.40
881.41	17008.38
881.59	16719.62
881.76	16951.04
881.93	16733.95
882.10	16674.56
882.28	16512.77
882.45	16779.01
882.62	16453.38
882.79	16727.81
882.96	16396.04
883.14	16764.67
883.31	16619.27
883.48	16606.98
883.65	16633.60
883.83	16590.59
884.00	16453.38
884.17	16334.60
884.34	16379.65
884.51	16312.07
884.69	16086.79
884.86	16453.38
885.03	16443.14
885.20	15988.49
885.38	16307.98
885.55	16445.19
885.72	16303.88
885.89	16215.82
886.06	16123.66
886.24	16258.82
886.41	16158.47
886.58	16174.86
886.75	16174.86
886.92	15879.95
887.10	15898.38
887.27	15703.82
887.44	15998.73
887.61	15920.91
887.78	15937.29
887.95	15941.39
888.13	15857.42
888.30	15816.46
888.47	15816.46
888.64	15828.75
888.81	15646.48
888.99	15554.32
889.16	15484.69
889.33	15669.01
889.50	15560.47
889.67	15466.26
889.84	15482.64
890.01	15546.13
890.19	15671.06
890.36	15560.47
890.53	15240.98
890.70	15316.76
890.87	15349.53
891.04	15339.29
891.22	15318.81
891.39	15451.92
891.56	15146.78
891.73	15277.85
891.90	15132.44
892.07	15306.52
892.24	15050.52
892.42	14858.01
892.59	15116.06
892.76	14903.07
892.93	14890.78
893.10	15167.26
893.27	14868.25
893.44	14843.68
893.61	14997.28
893.79	15146.78
893.96	14956.32
894.13	14946.08
894.30	14950.17
894.47	15066.91
894.64	14991.13
894.81	14851.87
894.98	14903.07
895.15	14937.88
895.33	14855.97
895.50	14935.84
895.67	15019.80
895.84	14819.10
896.01	14679.84
896.18	14804.77
896.35	15007.52
896.52	14587.68
896.69	14956.32
896.86	14868.25
897.04	14548.77
897.21	14683.94
897.38	14704.42
897.55	14837.53
897.72	14788.38
897.89	14821.15
898.06	14733.09
898.23	14604.07
898.40	14829.34
898.57	14939.93
898.74	14718.75
898.91	14739.23
899.08	14622.50
899.26	14702.37
899.43	14704.42
899.60	14491.43
899.77	14612.26
899.94	14374.69
900.11	14790.43
900.28	14716.70
900.45	14382.88
900.62	14655.26
900.79	14663.46
900.96	14364.45
901.13	14772.00
901.30	14403.36
901.47	14507.81
901.64	14800.67
901.81	14944.03
901.98	14401.32
902.15	14634.78
902.32	14579.49
902.49	14497.57
902.66	14409.51
902.83	14391.08
903.01	14550.82
903.18	14587.68
903.35	14692.13
903.52	14370.60
903.69	14905.12
903.86	14757.66
904.03	14417.70
904.20	15013.66
904.37	14612.26
904.54	14395.17
904.71	14556.96
904.88	14417.70
905.05	14513.95
905.22	14421.80
905.39	14432.04
905.56	14503.71
905.73	14456.61
905.90	14413.60
906.07	14526.24
906.24	14384.93
906.41	14376.74
906.58	14423.84
906.75	14602.02
906.92	14563.11
907.09	14546.72
907.26	14468.90
907.43	14346.02
907.60	14391.08
907.77	14454.56
907.93	14372.64
908.10	14495.52
908.27	14460.71
908.44	14214.95
908.61	14155.56
908.78	14485.28
908.95	14421.80
909.12	14337.83
909.29	14358.31
909.46	14380.84
909.63	14487.33
909.80	14155.56
909.97	14456.61
910.14	14307.11
910.31	14354.21
910.48	14354.21
910.65	14458.66
910.82	14212.90
910.99	14221.10
911.16	14214.95
911.33	14124.84
911.50	14323.49
911.66	14016.30
911.83	14145.32
912.00	14176.04
912.17	14044.97
912.34	14112.55
912.51	14161.70
912.68	13905.71
912.85	14053.16
913.02	13670.19
913.19	13674.29
913.36	14118.70
913.53	13879.08
913.70	13791.02
913.86	14008.11
914.03	13870.89
914.20	13682.48
914.37	13895.47
914.54	13868.84
914.71	13940.52
914.88	13727.53
915.05	13680.43
915.22	13788.97
915.39	13801.26
915.55	13870.89
915.72	13594.42
915.89	13494.07
916.06	13289.27
916.23	13575.98
916.40	13395.76
916.57	13442.87
916.74	13272.89
916.91	13387.57
917.07	13240.12
917.24	13223.73
917.41	13305.65
917.58	13338.42
917.75	13193.01
917.92	13025.08
918.09	13094.71
918.26	13131.58
918.42	13268.79
918.59	13035.32
918.76	13098.81
918.93	12652.35
919.10	12676.93
919.27	12996.41
919.44	13047.61
919.60	12873.53
919.77	12932.92
919.94	12824.38
920.11	12693.31
920.28	12662.59
920.45	12658.49
920.61	12578.62
920.78	12554.05
920.95	12562.24
921.12	12570.43
921.29	12390.21
921.46	12271.43
921.62	12386.12
921.79	12425.03
921.96	12205.89
922.13	12269.38
922.30	12248.90
922.47	12060.49
922.63	12060.49
922.80	12009.29
922.97	12087.11
923.14	11779.92
923.31	11992.90
923.47	11908.94
923.64	12023.62
923.81	11913.03
923.98	11716.43
924.15	11685.71
924.32	11581.26
924.48	11642.70
924.65	11683.66
924.82	11611.98
924.99	11571.02
925.15	11241.30
925.32	11513.68
925.49	11300.69
925.66	11276.12
925.83	11143.00
925.99	11286.36
926.16	11329.36
926.33	11241.30
926.50	10964.82
926.67	11261.78
926.83	11065.18
927.00	10839.90
927.17	10907.48
927.34	10870.62
927.50	10850.14
927.67	11157.33
927.84	10835.80
928.01	10823.51
928.17	10817.37
928.34	10895.19
928.51	10708.83
928.68	10796.89
928.84	10577.76
929.01	10258.28
929.18	10286.95
929.35	10491.74
929.51	10473.31
929.68	10178.40
929.85	10315.62
930.02	10340.19
930.18	10325.86
930.35	10116.97
930.52	10213.22
930.69	10125.16
930.85	10186.60
931.02	9985.90
931.19	9981.80
931.36	9965.42
931.52	9983.85
931.69	9875.31
931.86	9830.25
932.02	9717.61
932.19	9719.66
932.36	9592.69
932.53	9588.59
932.69	9461.62
932.86	9670.51
933.03	9443.18
933.19	9305.97
933.36	9420.66
933.53	9525.10
933.70	9369.46
933.86	9219.96
934.03	9314.16
934.20	9234.29
934.36	9234.29
934.53	9052.02
934.70	8748.92
934.86	8998.77
935.03	8884.09
935.20	8929.14
935.36	8818.55
935.53	8763.26
935.70	8519.55
935.86	8607.61
936.03	8396.67
936.20	8499.07
936.36	8380.29
936.53	8275.84
936.70	8226.69
936.86	8376.19
937.03	8042.37
937.20	8001.41
937.36	8050.57
937.53	7624.59
937.70	7896.97
937.86	7726.99
938.03	7765.90
938.20	7753.61
938.36	7296.91
938.53	7509.90
938.70	7157.65
938.86	7495.57
939.03	7315.34
939.20	7120.79
939.36	7221.14
939.53	7061.40
939.70	7149.46
939.86	6729.63
940.03	6653.85
940.19	6545.31
940.36	6616.99
940.53	6662.04
940.69	6668.19
940.86	6506.40
941.03	6352.80
941.19	6229.92
941.36	6385.57
941.52	6203.30
941.69	6064.04
941.86	6141.86
942.02	6098.85
942.19	5959.59
942.35	5814.18
942.52	5828.52
942.69	5758.89
942.85	5638.06
943.02	5775.27
943.18	5760.94
943.35	5619.63
943.52	5754.79
943.68	5572.52
943.85	5568.43
944.01	5441.45
944.18	5490.60
944.35	5511.08
944.51	5423.02
944.68	5357.49
944.84	5377.97
945.01	5451.69
945.17	5273.52
945.34	5390.25
945.51	5324.72
945.67	5304.24
945.84	5296.05
946.00	5175.22
946.17	5150.64
946.33	5187.50
946.50	5353.39
946.67	5222.32
946.83	5320.62
947.00	5240.75
947.16	5230.51
947.33	5244.85
947.49	5011.38
947.66	5210.03
947.82	5216.18
947.99	5183.41
948.16	5212.08
948.32	5017.52
948.49	5230.51
948.65	5244.85
948.82	5255.09
948.98	5160.88
949.15	5126.07
949.31	5087.15
949.48	5167.03
949.64	5042.10
949.81	5279.66
949.97	5035.96
950.14	5242.80
950.30	5154.74
950.47	5271.47
950.63	5199.79
950.80	5310.38
950.96	5132.21
951.13	5261.23
951.30	5240.75
951.46	5236.66
951.63	5443.50
951.79	5214.13
951.96	5296.05
952.12	5277.62
952.29	5214.13
952.45	5162.93
952.62	5265.33
952.78	5351.34
952.94	5257.14
953.11	5314.48
953.27	5224.37
953.44	5447.60
953.60	5351.34
953.77	5398.45
953.93	5289.90
954.10	5361.58
954.26	5328.81
954.43	5228.46
954.59	5418.93
954.76	5490.60
954.92	5334.96
955.09	5410.73
955.25	5390.25
955.42	5296.05
955.58	5410.73
955.75	5318.57
955.91	5263.28
956.07	5459.88
956.24	5552.04
956.40	5537.71
956.57	5476.27
956.73	5312.43
956.90	5423.02
957.06	5218.22
957.23	5318.57
957.39	5384.11
957.56	5416.88
957.72	5302.19
957.88	5263.28
958.05	5468.08
958.21	5521.32
958.38	5310.38
958.54	5320.62
958.71	5457.84
958.87	5334.96
959.03	5394.35
959.20	5339.05
959.36	5334.96
959.53	5347.25
959.69	5171.12
959.85	5439.40
960.02	5359.53
960.18	5443.50
960.35	5474.22
960.51	5400.49
960.68	5232.56
960.84	5357.49
961.00	5324.72
961.17	5371.82
961.33	5441.45
961.50	5351.34
961.66	5410.73
961.82	5324.72
961.99	5435.31
962.15	5283.76
962.31	5408.69
962.48	5388.21
962.64	5255.09
962.81	5289.90
962.97	5285.81
963.13	5400.49
963.30	5396.40
963.46	5433.26
963.62	5345.20
963.79	5363.63
963.95	5191.60
964.12	5306.29
964.28	5461.93
964.44	5224.37
964.61	5386.16
964.77	5388.21
964.93	5410.73
965.10	5437.36
965.26	5349.29
965.42	5384.11
965.59	5457.84
965.75	5302.19
965.92	5361.58
966.08	5244.85
966.24	5199.79
966.41	5312.43
966.57	5300.14
966.73	5339.05
966.90	5468.08
967.06	5212.08
967.22	5091.25
967.39	5236.66
967.55	5216.18
967.71	5210.03
967.88	5070.77
968.04	5076.91
968.20	5068.72
968.37	5107.63
968.53	5154.74
968.69	5023.67
968.85	5224.37
969.02	5222.32
969.18	5099.44
969.34	5232.56
969.51	5158.83
969.67	5021.62
969.83	4962.23
970.00	5171.12
970.16	4974.52
970.32	5009.33
970.48	5201.84
970.65	5007.28
970.81	4988.85
970.97	4992.95
971.14	5003.19
971.30	5015.48
971.46	5052.34
971.63	4915.12
971.79	5091.25
971.95	5035.96
972.11	4954.04
972.28	4947.89
972.44	4999.09
972.60	4820.92
972.76	4964.28
972.93	4892.60
973.09	4919.22
973.25	4933.56
973.42	4745.14
973.58	4900.79
973.74	4843.45
973.90	4966.32
974.07	4874.17
974.23	4786.10
974.39	4726.71
974.55	4861.88
974.72	4820.92
974.88	4655.03
975.04	4878.26
975.20	4646.84
975.37	4745.14
975.53	4761.53
975.69	4724.66
975.85	4736.95
976.01	4634.55
976.18	4714.42
976.34	4814.77
976.50	4657.08
976.66	4775.86
976.83	4652.98
976.99	4665.27
977.15	4702.14
977.31	4626.36
977.47	4800.44
977.64	4583.35
977.80	4665.27
977.96	4562.87
978.12	4634.55
978.29	4523.96
978.45	4489.15
978.61	4462.52
978.77	4634.55
978.93	4577.21
979.10	4579.26
979.26	4571.07
979.42	4483.00
979.58	4523.96
979.74	4335.55
979.91	4526.01
980.07	4493.24
980.23	4468.67
980.39	4399.04
980.55	4493.24
980.71	4364.22
980.88	4382.65
981.04	4495.29
981.20	4376.51
981.36	4456.38
981.52	4270.01
981.68	4351.93
981.85	4335.55
982.01	4444.09
982.17	4382.65
982.33	4317.12
982.49	4491.20
982.65	4444.09
982.82	4401.08
982.98	4388.80
983.14	4192.19
983.30	4386.75
983.46	4270.01
983.62	4368.32
983.79	4274.11
983.95	4241.34
984.11	4116.42
984.27	4075.46
984.43	4218.82
984.59	4229.06
984.75	4171.71
984.91	4036.55
985.08	4239.30
985.24	4081.60
985.40	4054.98
985.56	4229.06
985.72	4257.73
985.88	4132.80
986.04	4108.23
986.20	4044.74
986.37	4214.72
986.53	4110.27
986.69	4077.51
986.85	4073.41
987.01	3966.92
987.17	4032.45
987.33	3991.49
987.49	3915.72
987.65	4122.56
987.82	3940.29
987.98	3954.63
988.14	3932.10
988.30	3989.44
988.46	3841.99
988.62	4071.36
988.78	3903.43
988.94	3893.19
989.10	3981.25
989.26	3921.86
989.42	3938.24
989.59	3780.55
989.75	3825.61
989.91	3882.95
990.07	3692.49
990.23	3801.03
990.39	3772.36
990.55	3825.61
990.71	3731.40
990.87	3762.12
991.03	3821.51
991.19	3782.60
991.35	3649.48
991.51	3895.24
991.67	3887.04
991.83	3731.40
992.00	3784.65
992.16	3774.41
992.32	3762.12
992.48	3710.92
992.64	3637.19
992.80	3616.71
992.96	3737.54
993.12	3637.19
993.28	3629.00
993.44	3631.05
993.60	3549.13
993.76	3571.66
993.92	3674.06
994.08	3694.54
994.24	3661.77
994.40	3645.38
994.56	3616.71
994.72	3512.27
994.88	3608.52
995.04	3528.65
995.20	3575.75
995.36	3497.93
995.52	3563.47
995.68	3569.61
995.84	3393.48
996.00	3639.24
996.16	3481.55
996.32	3553.23
996.48	3385.29
996.64	3563.47
996.80	3379.15
996.96	3413.96
997.12	3481.55
997.28	3491.79
997.44	3391.44
997.60	3485.64
997.76	3424.20
997.92	3497.93
998.08	3409.87
998.24	3321.81
998.40	3444.68
998.56	3428.30
998.72	3284.94
998.88	3338.19
999.04	3327.95
999.20	3373.00
999.36	3299.28
999.52	3440.59
999.68	3334.09
999.84	3274.70
1000.00	3358.67
1000.16	3356.62
1000.32	3211.22
1000.48	3442.64
1000.64	3153.87
1000.80	3145.68
1000.95	3157.97
1001.11	3153.87
1001.27	3176.40
1001.43	3276.75
1001.59	3192.78
1001.75	3174.35
1001.91	3246.03
1002.07	3028.95
1002.23	3100.62
1002.39	3213.26
1002.55	3143.63
1002.71	3080.14
1002.87	3147.73
1003.03	3112.91
1003.19	3071.95
1003.34	3176.40
1003.50	3104.72
1003.66	3117.01
1003.82	3186.64
1003.98	3057.62
1004.14	3090.38
1004.30	3024.85
1004.46	3059.67
1004.62	3135.44
1004.78	3000.27
1004.94	2920.40
1005.09	3039.19
1005.25	3035.09
1005.41	2983.89
1005.57	2953.17
1005.73	3057.62
1005.89	2926.55
1006.05	2990.03
1006.21	3067.86
1006.37	2936.79
1006.52	2922.45
1006.68	2861.01
1006.84	2994.13
1007.00	2887.64
1007.16	2965.46
1007.32	2996.18
1007.48	2834.39
1007.64	3053.52
1007.79	2969.55
1007.95	2897.88
1008.11	2953.17
1008.27	2885.59
1008.43	2852.82
1008.59	2836.44
1008.75	2809.81
1008.91	2910.16
1009.06	2850.77
1009.22	2879.44
1009.38	2789.33
1009.54	2844.63
1009.70	2787.29
1009.86	2844.63
1010.01	2906.07
1010.17	2779.09
1010.33	2768.85
1010.49	2813.91
1010.65	2809.81
1010.81	2758.61
1010.96	2818.00
1011.12	2756.57
1011.28	2748.37
1011.44	2883.54
1011.60	2756.57
1011.76	2703.32
1011.91	2691.03
1012.07	2629.59
1012.23	2574.30
1012.39	2580.44
1012.55	2740.18
1012.71	2617.30
1012.86	2531.29
1013.02	2609.11
1013.18	2701.27
1013.34	2619.35
1013.50	2701.27
1013.65	2643.93
1013.81	2555.86
1013.97	2547.67
1014.13	2592.73
1014.29	2680.79
1014.44	2652.12
1014.60	2539.48
1014.76	2656.22
1014.92	2531.29
1015.07	2580.44
1015.23	2541.53
1015.39	2574.30
1015.55	2598.87
1015.71	2508.76
1015.86	2471.90
1016.02	2484.19
1016.18	2381.79
1016.34	2473.95
1016.49	2492.38
1016.65	2486.23
1016.81	2521.05
1016.97	2551.77
1017.12	2488.28
1017.28	2410.46
1017.44	2502.62
1017.60	2412.51
1017.75	2430.94
1017.91	2562.01
1018.07	2449.37
1018.23	2494.43
1018.38	2459.61
1018.54	2373.60
1018.70	2359.26
1018.86	2410.46
1019.01	2381.79
1019.17	2396.12
1019.33	2602.97
1019.49	2387.93
1019.64	2494.43
1019.80	2457.56
1019.96	2451.42
1020.12	2340.83
1020.27	2367.45
1020.43	2355.16
1020.59	2465.75
1020.74	2510.81
1020.90	2396.12
1021.06	2289.63
1021.22	2383.84
1021.37	2447.32
1021.53	2215.90
1021.69	2410.46
1021.84	2240.48
1022.00	2312.16
1022.16	2267.10
1022.31	2320.35
1022.47	2289.63
1022.63	2312.16
1022.79	2232.29
1022.94	2250.72
1023.10	2293.72
1023.26	2263.01
1023.41	2222.05
1023.57	2271.20
1023.73	2232.29
1023.88	2289.63
1024.04	2217.95
1024.20	2213.85
1024.35	2224.09
1024.51	2246.62
1024.67	2263.01
1024.82	2297.82
1024.98	2199.52
1025.14	2203.61
1025.29	2211.81
1025.45	2301.92
1025.61	2209.76
1025.76	2213.85
1025.92	2199.52
1026.08	2228.19
1026.23	2246.62
1026.39	2232.29
1026.55	2236.38
1026.70	2117.60
1026.86	2170.85
1027.02	2273.25
1027.17	2179.04
1027.33	2240.48
1027.48	2101.22
1027.64	2086.88
1027.80	2146.27
1027.95	2213.85
1028.11	2072.54
1028.27	2131.94
1028.42	2193.37
1028.58	2148.32
1028.73	2154.46
1028.89	2084.83
1029.05	2217.95
1029.20	2084.83
>>>>>End Processed Spectral Data<<<<<
