SpectraSuite Data File
++++++++++++++++++++++++++++++++++++
Date: Fri Jun 02 14:51:12 CEST 2017
User: INFO_000
Dark Spectrum Present: No
Reference Spectrum Present: No
Number of Sampled Component Spectra: 1
Spectrometers: USB4H00879
Integration Time (usec): 80000 (USB4H00879)
Spectra Averaged: 1 (USB4H00879)
Boxcar Smoothing: 0 (USB4H00879)
Correct for Electrical Dark: No (USB4H00879)
Strobe/Lamp Enabled: No (USB4H00879)
Correct for Detector Non-linearity: No (USB4H00879)
Correct for Stray Light: No (USB4H00879)
Number of Pixels in Processed Spectrum: 3648
>>>>>Begin Processed Spectral Data<<<<<
345.13	1335.28
345.34	1335.28
345.56	1335.28
345.78	1273.84
345.99	1327.08
346.21	1667.05
346.42	1710.05
346.64	1626.09
346.86	1699.81
347.07	1662.95
347.29	1720.29
347.50	1603.56
347.72	1683.43
347.94	1753.06
348.15	1652.71
348.37	1644.52
348.59	1753.06
348.80	1617.90
349.02	1783.78
349.23	1839.08
349.45	1806.31
349.67	1845.22
349.88	1751.01
350.10	1945.57
350.31	1853.41
350.53	1822.69
350.75	1957.86
350.96	1837.03
351.18	1853.41
351.39	1849.32
351.61	1818.60
351.82	1949.67
352.04	1863.65
352.26	1871.84
352.47	1970.15
352.69	1861.60
352.90	1701.86
353.12	1783.78
353.34	1830.88
353.55	1927.14
353.77	1847.27
353.98	1847.27
354.20	1847.27
354.41	1949.67
354.63	1884.13
354.85	2052.06
355.06	1896.42
355.28	1830.88
355.49	1912.80
355.71	1918.95
355.92	1935.33
356.14	1970.15
356.35	1875.94
356.57	1918.95
356.79	1918.95
357.00	1937.38
357.22	1943.52
357.43	1822.69
357.65	1849.32
357.86	1828.84
358.08	1964.00
358.29	1964.00
358.51	1990.63
358.72	1933.28
358.94	1920.99
359.16	1988.58
359.37	1927.14
359.59	1937.38
359.80	2000.87
360.02	1978.34
360.23	1900.52
360.45	1945.57
360.66	1941.47
360.88	1855.46
361.09	1880.04
361.31	1980.39
361.52	2011.11
361.74	2052.06
361.95	2080.74
362.17	1908.71
362.38	2121.70
362.60	2035.68
362.81	1896.42
363.03	1918.95
363.24	1925.09
363.46	2027.49
363.67	1974.24
363.89	2113.50
364.10	2000.87
364.32	1982.43
364.53	2023.39
364.75	1966.05
364.96	1996.77
365.18	2029.54
365.39	2004.96
365.61	1968.10
365.82	2090.98
366.04	2045.92
366.25	2017.25
366.47	2123.74
366.68	2043.87
366.90	1925.09
367.11	2033.63
367.33	2062.30
367.54	2095.07
367.76	1955.81
367.97	2117.60
368.19	2000.87
368.40	2119.65
368.62	2150.37
368.83	1974.24
369.05	2054.11
369.26	2002.91
369.48	2090.98
369.69	2052.06
369.91	2066.40
370.12	1966.05
370.33	2166.75
370.55	1961.95
370.76	2066.40
370.98	2070.50
371.19	2015.20
371.41	2033.63
371.62	1953.76
371.84	1935.33
372.05	2154.46
372.27	2045.92
372.48	2138.08
372.69	2045.92
372.91	2168.80
373.12	2127.84
373.34	2107.36
373.55	2144.22
373.77	2148.32
373.98	2088.93
374.20	2195.42
374.41	2252.77
374.62	2144.22
374.84	2172.89
375.05	2160.61
375.27	2236.38
375.48	2093.02
375.70	2136.03
375.91	2230.24
376.12	2256.86
376.34	2113.50
376.55	2279.39
376.77	2232.29
376.98	2129.89
377.19	2125.79
377.41	2207.71
377.62	2107.36
377.84	2232.29
378.05	2291.68
378.27	2226.14
378.48	2353.12
378.69	2342.88
378.91	2320.35
379.12	2236.38
379.34	2162.66
379.55	2320.35
379.76	2328.54
379.98	2234.33
380.19	2164.70
380.41	2260.96
380.62	2267.10
380.83	2303.96
381.05	2238.43
381.26	2365.40
381.47	2211.81
381.69	2340.83
381.90	2357.21
382.12	2369.50
382.33	2256.86
382.54	2283.49
382.76	2263.01
382.97	2328.54
383.19	2265.05
383.40	2273.25
383.61	2303.96
383.83	2265.05
384.04	2267.10
384.25	2361.31
384.47	2357.21
384.68	2404.32
384.89	2246.62
385.11	2330.59
385.32	2344.92
385.54	2332.64
385.75	2336.73
385.96	2486.23
386.18	2392.03
386.39	2365.40
386.60	2256.86
386.82	2465.75
387.03	2342.88
387.24	2471.90
387.46	2471.90
387.67	2486.23
387.88	2523.10
388.10	2443.23
388.31	2404.32
388.52	2502.62
388.74	2578.39
388.95	2500.57
389.16	2455.51
389.38	2414.56
389.59	2533.34
389.80	2623.45
390.02	2527.19
390.23	2600.92
390.44	2600.92
390.66	2564.06
390.87	2469.85
391.08	2557.91
391.30	2703.32
391.51	2625.50
391.72	2625.50
391.94	2641.88
392.15	2641.88
392.36	2641.88
392.58	2607.06
392.79	2564.06
393.00	2588.63
393.22	2783.19
393.43	2705.37
393.64	2750.42
393.85	2863.06
394.07	2645.98
394.28	2701.27
394.49	2652.12
394.71	2664.41
394.92	2789.33
395.13	2625.50
395.35	2746.33
395.56	2686.94
395.77	2729.94
395.98	2783.19
396.20	2924.50
396.41	2754.52
396.62	2924.50
396.84	2807.77
397.05	2754.52
397.26	2803.67
397.47	2963.41
397.69	2826.20
397.90	3051.47
398.11	2912.21
398.32	2799.57
398.54	3016.66
398.75	2873.30
398.96	2869.20
399.18	3030.99
399.39	2975.70
399.60	2842.58
399.81	2869.20
400.03	2877.40
400.24	3157.97
400.45	2920.40
400.66	3065.81
400.88	3063.76
401.09	3190.74
401.30	2967.51
401.51	3131.34
401.73	3084.24
401.94	3145.68
402.15	3168.21
402.36	3106.77
402.58	3061.71
402.79	3172.30
403.00	3211.22
403.21	3200.98
403.43	3237.84
403.64	3264.46
403.85	3123.15
404.06	3274.70
404.27	3074.00
404.49	3184.59
404.70	3227.60
404.91	3223.50
405.12	3286.99
405.34	3131.34
405.55	3532.75
405.76	3108.82
405.97	3278.80
406.19	3370.96
406.40	3168.21
406.61	3153.87
406.82	3264.46
407.03	3317.71
407.25	3317.71
407.46	3286.99
407.67	3383.24
407.88	3385.29
408.09	3284.94
408.31	3393.48
408.52	3366.86
408.73	3325.90
408.94	3319.76
409.15	3409.87
409.37	3489.74
409.58	3592.14
409.79	3483.59
410.00	3465.16
410.21	3428.30
410.43	3387.34
410.64	3436.49
410.85	3577.80
411.06	3418.06
411.27	3610.57
411.48	3524.55
411.70	3526.60
411.91	3471.31
412.12	3624.90
412.33	3434.44
412.54	3559.37
412.76	3614.66
412.97	3565.51
413.18	3459.02
413.39	3606.47
413.60	3557.32
413.81	3641.29
414.03	3547.08
414.24	3393.48
414.45	3764.17
414.66	3530.70
414.87	3704.78
415.08	3694.54
415.30	3647.43
415.51	3741.64
415.72	3649.48
415.93	3731.40
416.14	3745.73
416.35	3907.52
416.56	3704.78
416.78	3694.54
416.99	3932.10
417.20	3848.13
417.41	3901.38
417.62	3907.52
417.83	3999.68
418.04	3874.76
418.26	3913.67
418.47	3803.08
418.68	3940.29
418.89	3878.85
419.10	4134.85
419.31	3975.11
419.52	3999.68
419.73	3979.20
419.95	3975.11
420.16	3780.55
420.37	3977.16
420.58	4059.07
420.79	3907.52
421.00	4054.98
421.21	4095.94
421.42	3993.54
421.63	4149.18
421.85	4108.23
422.06	4140.99
422.27	4091.84
422.48	4200.38
422.69	4278.21
422.90	4155.33
423.11	4128.70
423.32	4286.40
423.53	4460.48
423.75	4280.25
423.96	4341.69
424.17	4323.26
424.38	4476.86
424.59	4239.30
424.80	4571.07
425.01	4382.65
425.22	4382.65
425.43	4501.44
425.64	4571.07
425.85	4360.13
426.06	4460.48
426.28	4548.54
426.49	4390.84
426.70	4327.36
426.91	4542.39
427.12	4691.90
427.33	4671.42
427.54	4648.89
427.75	4665.27
427.96	4759.48
428.17	4689.85
428.38	4769.72
428.59	4841.40
428.80	4753.34
429.01	4855.73
429.23	4698.04
429.44	4958.13
429.65	4782.01
429.86	4935.60
430.07	4843.45
430.28	4843.45
430.49	4964.28
430.70	5033.91
430.91	4935.60
431.12	4876.21
431.33	5195.70
431.54	5054.39
431.75	5068.72
431.96	5070.77
432.17	5064.63
432.38	5062.58
432.59	5310.38
432.80	5207.98
433.01	5164.98
433.22	5359.53
433.43	5179.31
433.64	5228.46
433.85	5269.42
434.06	5439.40
434.27	5226.42
434.49	5363.63
434.70	5474.22
434.91	5343.15
435.12	5345.20
435.33	5312.43
435.54	5449.64
435.75	5285.81
435.96	5369.77
436.17	5361.58
436.38	5584.81
436.59	5490.60
436.80	5558.19
437.01	5762.98
437.22	5570.48
437.43	5543.85
437.64	5451.69
437.85	5746.60
438.06	5808.04
438.27	5668.78
438.48	5660.59
438.69	5660.59
438.90	5640.11
439.11	5689.26
439.32	5935.01
439.53	5853.09
439.74	5922.73
439.95	5924.77
440.16	5791.66
440.37	5742.50
440.57	5717.93
440.78	5967.78
440.99	5896.10
441.20	6053.80
441.41	5863.33
441.62	5943.21
441.83	5889.96
442.04	6049.70
442.25	6176.67
442.46	5902.25
442.67	6033.32
442.88	6330.27
443.09	6021.03
443.30	5961.64
443.51	6272.93
443.72	6266.78
443.93	6109.09
444.14	6444.96
444.35	6064.04
444.56	6332.32
444.77	6211.49
444.98	6272.93
445.19	6270.88
445.40	6363.04
445.61	6252.45
445.81	6309.79
446.02	6418.33
446.23	6514.59
446.44	6311.84
446.65	6526.88
446.86	6537.12
447.07	6621.08
447.28	6651.80
447.49	6533.02
447.70	6573.98
447.91	6662.04
448.12	6473.63
448.33	6770.58
448.54	6690.71
448.74	6492.06
448.95	6680.47
449.16	6614.94
449.37	6944.66
449.58	6891.41
449.79	6942.61
450.00	6729.63
450.21	6907.80
450.42	7010.20
450.63	6821.78
450.84	6821.78
451.05	6950.81
451.25	6940.57
451.46	6967.19
451.67	7012.24
451.88	7171.99
452.09	7075.73
452.30	6959.00
452.51	7055.25
452.72	7276.43
452.93	7612.30
453.13	7120.79
453.34	7169.94
453.55	7165.84
453.76	7106.45
453.97	7712.65
454.18	7450.51
454.39	7585.68
454.60	7358.35
454.81	7489.42
455.01	7714.70
455.22	7395.22
455.43	7579.53
455.64	7767.95
455.85	7778.19
456.06	7757.71
456.27	7769.99
456.48	7616.40
456.68	7663.50
456.89	7554.96
457.10	7954.31
457.31	7718.79
457.52	7798.66
457.73	8116.10
457.94	8193.92
458.14	7888.78
458.35	8341.38
458.56	8085.38
458.77	8011.65
458.98	8357.76
459.19	8232.83
459.39	8380.29
459.60	8408.96
459.81	8152.96
460.02	8466.30
460.23	8447.87
460.44	8531.84
460.65	8636.28
460.85	8740.73
461.06	8673.15
461.27	8611.71
461.48	8976.25
461.69	8779.64
461.89	8497.02
462.10	8800.12
462.31	8597.37
462.52	8681.34
462.73	8875.90
462.94	9181.04
463.14	9004.92
463.35	9103.22
463.56	9525.10
463.77	9318.26
463.98	9049.97
464.18	9232.24
464.39	9402.22
464.60	9588.59
464.81	9705.32
465.02	9303.92
465.23	9791.34
465.43	9557.87
465.64	9963.37
465.85	9594.73
466.06	9508.72
466.27	9899.88
466.47	9840.49
466.68	10041.19
466.89	9734.00
467.10	10149.73
467.30	9797.48
467.51	10131.30
467.72	10321.76
467.93	9963.37
468.14	10096.49
468.34	10340.19
468.55	10354.53
468.76	10438.50
468.97	10442.59
469.17	10534.75
469.38	10698.59
469.59	10792.80
469.80	10555.23
470.01	10706.78
470.21	10872.67
470.42	10915.67
470.63	11044.70
470.84	10915.67
471.04	11183.96
471.25	11016.02
471.46	11013.98
471.67	11347.79
471.87	11173.72
472.08	11540.30
472.29	11564.88
472.50	11392.85
472.70	11425.62
472.91	11695.95
473.12	11765.58
473.33	11882.31
473.53	11831.12
473.74	11726.67
473.95	12179.27
474.16	12339.01
474.36	12363.59
474.57	12343.11
474.78	12644.16
474.99	12427.07
475.19	12492.61
475.40	12521.28
475.61	12828.48
475.81	12937.02
476.02	13107.00
476.23	12984.12
476.44	13117.24
476.64	13426.48
476.85	13549.36
477.06	13313.84
477.27	13741.87
477.47	13588.27
477.68	13553.46
477.89	13973.29
478.09	13614.90
478.30	13889.32
478.51	13780.78
478.71	14090.02
478.92	14012.20
479.13	14262.05
479.34	14421.80
479.54	14331.69
479.75	14552.87
479.96	14477.09
480.16	14614.30
480.37	14593.83
480.58	14862.11
480.78	15240.98
480.99	14880.54
481.20	15068.95
481.41	15077.15
481.61	15355.67
481.82	15324.95
482.03	15271.70
482.23	15705.87
482.44	15800.08
482.65	15996.68
482.85	15908.62
483.06	15968.01
483.27	15763.22
483.47	16207.62
483.68	16236.30
483.89	16156.43
484.09	16398.09
484.30	16269.06
484.51	16830.21
484.71	16656.13
484.92	16547.59
485.13	16875.26
485.33	16883.45
485.54	16977.66
485.75	17231.61
485.95	17336.06
486.16	17446.65
486.37	17327.86
486.57	17313.53
486.78	17551.09
486.98	17635.06
487.19	17821.42
487.40	17762.03
487.60	17749.75
487.81	18218.73
488.02	17882.86
488.22	18179.82
488.43	18319.08
488.64	18237.16
488.84	18366.18
489.05	18491.11
489.25	18601.70
489.46	18642.66
489.67	18779.87
489.87	18919.14
490.08	19211.99
490.29	19015.39
490.49	19338.97
490.70	19232.47
490.90	19558.10
491.11	19207.90
491.32	19482.33
491.52	19390.17
491.73	19504.85
491.94	19687.12
492.14	19738.32
492.35	19920.59
492.55	20217.55
492.76	20321.99
492.97	20240.08
493.17	20377.29
493.38	20477.64
493.58	20596.42
493.79	20491.98
494.00	20534.98
494.20	20670.15
494.41	20950.72
494.61	20897.47
494.82	21259.96
495.02	20950.72
495.23	21008.06
495.44	21180.09
495.64	21311.16
495.85	21446.33
496.05	21409.47
496.26	21454.52
496.47	21943.99
496.67	21634.74
496.88	22048.43
497.08	21700.28
497.29	21972.66
497.49	21911.22
497.70	21843.63
497.91	22034.10
498.11	22306.48
498.32	22445.74
498.52	22382.25
498.73	22728.36
498.93	22372.01
499.14	22730.41
499.34	22943.39
499.55	23078.56
499.76	22843.04
499.96	22924.96
500.17	22666.92
500.37	23199.39
500.58	23150.24
500.78	23101.09
500.99	23379.61
501.19	23371.42
501.40	23482.01
501.60	23205.53
501.81	23680.66
502.02	23764.63
502.22	23668.37
502.43	24116.88
502.63	23834.26
502.84	24344.20
503.04	23684.76
503.25	23967.38
503.45	23891.60
503.66	24022.67
503.86	24061.58
504.07	24675.98
504.27	24196.75
504.48	24655.50
504.68	24383.12
504.89	25108.10
505.09	24925.83
505.30	24682.12
505.50	24888.96
505.71	25034.37
505.91	25065.09
506.12	25026.18
506.32	24704.65
506.53	24903.30
506.73	25288.32
506.94	25394.81
507.14	25341.57
507.35	25249.41
507.55	25357.95
507.76	25325.18
507.96	25298.56
508.17	25446.01
508.37	25519.74
508.58	25853.56
508.78	25640.57
508.99	26132.08
509.19	25613.95
509.40	26074.74
509.60	25937.52
509.81	26207.86
510.01	25841.27
510.22	26177.14
510.42	26125.94
510.63	26250.86
510.83	26039.92
511.04	26404.46
511.24	26451.56
511.44	26326.64
511.65	26623.59
511.85	26545.77
512.06	26883.69
512.26	26971.75
512.47	26560.11
512.67	27043.43
512.88	26793.58
513.08	26429.04
513.29	27074.15
513.49	26928.74
513.69	27086.43
513.90	26906.21
514.10	27139.68
514.31	27268.70
514.51	27514.46
514.72	27041.38
514.92	27420.25
515.13	27080.29
515.33	27563.61
515.53	27360.86
515.74	27594.33
515.94	27700.83
516.15	27692.63
516.35	27770.46
516.56	27612.76
516.76	27801.18
516.96	27846.23
517.17	27979.35
517.37	28094.04
517.58	28161.62
517.78	28395.09
517.99	28137.04
518.19	28292.69
518.39	28474.96
518.60	28550.73
518.80	28333.65
519.01	28712.52
519.21	28474.96
519.41	28628.56
519.62	28356.18
519.82	28896.84
520.03	28788.30
520.23	28900.94
520.43	28687.95
520.64	29345.34
520.84	29544.00
521.05	29015.62
521.25	29025.86
521.45	29093.44
521.66	29365.82
521.86	29494.85
522.07	29402.69
522.27	29500.99
522.47	29587.00
522.68	29949.50
522.88	29668.92
523.08	29828.66
523.29	29824.57
523.49	30211.64
523.70	30373.42
523.90	30379.57
524.10	30316.08
524.31	30518.83
524.51	30109.24
524.71	30586.41
524.92	30588.46
525.12	30576.17
525.33	30846.51
525.53	30770.73
525.73	30918.18
525.94	30885.42
526.14	30674.48
526.34	31022.63
526.55	31581.73
526.75	31008.29
526.95	31594.01
527.16	31608.35
527.36	31399.46
527.56	31692.32
527.77	31931.93
527.97	32161.30
528.17	32106.01
528.38	32192.02
528.58	31843.87
528.78	32069.14
528.99	32325.14
529.19	32218.64
529.39	31927.83
529.60	32267.80
529.80	32251.41
530.00	32630.29
530.21	32810.51
530.41	33015.30
530.61	32622.09
530.82	33177.09
531.02	32759.31
531.22	33140.23
531.43	33164.81
531.63	33154.57
531.83	33887.74
532.04	34227.70
532.24	33715.71
532.44	33996.28
532.64	34072.06
532.85	33986.04
533.05	33895.93
533.25	34117.11
533.46	34186.74
533.66	34463.22
533.86	34399.73
534.07	34622.96
534.27	34555.38
534.47	34821.61
534.67	34651.63
534.88	34424.31
535.08	35079.66
535.28	35026.41
535.49	35362.28
535.69	35403.24
535.89	35194.34
536.09	35409.38
536.30	35665.38
536.50	35624.42
536.70	35739.10
536.91	35663.33
537.11	36070.87
537.31	35911.13
537.51	35995.10
537.72	36115.93
537.92	36322.77
538.12	36505.04
538.32	35872.22
538.53	36503.00
538.73	36128.22
538.93	36404.69
539.13	36515.28
539.34	36447.70
539.54	36679.12
539.74	37041.61
539.94	36836.81
540.15	36916.68
540.35	36781.52
540.55	37010.89
540.75	37131.72
540.96	37180.87
541.16	37426.63
541.36	37705.15
541.56	37293.51
541.77	37901.76
541.97	37707.20
542.17	37791.17
542.37	38096.31
542.58	37844.41
542.78	38319.54
542.98	37838.27
543.18	38368.69
543.38	38516.15
543.59	38340.02
543.79	38135.23
543.99	38380.98
544.19	38659.51
544.40	38469.04
544.60	39220.65
544.80	38553.01
545.00	39069.10
545.20	39200.17
545.41	38428.09
545.61	38624.69
545.81	38829.49
546.01	39216.55
546.21	39056.81
546.42	39159.21
546.62	39433.64
546.82	39296.42
547.02	39400.87
547.22	39828.90
547.43	39073.20
547.63	39597.48
547.83	39804.32
548.03	39392.68
548.23	39865.76
548.44	39810.46
548.64	39894.43
548.84	39945.63
549.04	39728.55
549.24	39992.73
549.45	40191.39
549.65	39789.98
549.85	40152.48
550.05	40490.39
550.25	40156.57
550.45	40787.35
550.66	40392.09
550.86	40283.55
551.06	40912.27
551.26	40799.63
551.46	40535.45
551.66	40674.71
551.87	40431.00
552.07	40879.50
552.27	41090.44
552.47	41166.22
552.67	41059.73
552.87	41188.75
553.07	41002.38
553.28	41164.17
553.48	41194.89
553.68	41063.82
553.88	41710.98
554.08	41541.00
554.28	41260.43
554.48	41059.73
554.69	41182.60
554.89	41088.40
555.09	41334.15
555.29	41211.28
555.49	41799.04
555.69	41407.88
555.89	41612.68
556.10	41809.28
556.30	41354.63
556.50	41786.75
556.70	41989.50
556.90	41983.36
557.10	42237.31
557.30	41778.56
557.50	42091.90
557.70	42034.56
557.91	42020.22
558.11	42030.46
558.31	42022.27
558.51	42386.81
558.71	42220.92
558.91	42694.00
559.11	42413.43
559.31	42646.90
559.51	42132.86
559.72	42237.31
559.92	42433.91
560.12	41999.74
560.32	42657.14
560.52	42335.61
560.72	42704.24
560.92	42886.51
561.12	42784.12
561.32	42726.77
561.52	42464.63
561.72	43226.48
561.93	42816.88
562.13	42898.80
562.33	42792.31
562.53	43541.86
562.73	42794.36
562.93	43038.06
563.13	43638.12
563.33	43115.89
563.53	43326.83
563.73	43179.37
563.93	43511.14
564.13	43914.59
564.33	43234.67
564.53	43562.34
564.74	43824.48
564.94	43758.95
565.14	43527.53
565.34	43244.91
565.54	43562.34
565.74	43730.28
565.94	44189.02
566.14	43603.30
566.34	43992.42
566.54	44217.69
566.74	43543.91
566.94	44160.35
567.14	44129.63
567.34	43750.76
567.54	43935.07
567.74	43943.27
567.94	44193.12
568.14	44475.74
568.34	44469.59
568.54	44205.41
568.74	44334.43
568.94	44146.01
569.14	44115.29
569.34	44445.02
569.54	44569.94
569.75	43914.59
569.95	44997.97
570.15	44735.83
570.35	44766.55
570.55	44561.75
570.75	44737.88
570.95	44758.36
571.15	44602.71
571.35	44676.44
571.55	45112.66
571.75	45065.55
571.95	45036.88
572.15	44739.93
572.35	45319.50
572.55	44727.64
572.75	44854.61
572.95	45118.80
573.15	45233.49
573.35	44793.17
573.55	44862.80
573.75	44823.89
573.95	45415.76
574.15	45137.23
574.35	45174.09
574.55	45151.57
574.75	45331.79
574.95	45718.85
575.15	45309.26
575.34	45518.15
575.54	45765.96
575.74	45995.33
575.94	45851.97
576.14	45653.32
576.34	46142.78
576.54	46093.63
576.74	46204.22
576.94	46085.44
577.14	46388.54
577.34	46361.92
577.54	46116.16
577.74	46609.72
577.94	46548.28
578.14	46470.46
578.34	46587.19
578.54	45886.79
578.74	46079.30
578.94	46355.77
579.14	46441.79
579.34	46417.21
579.54	46933.30
579.74	46937.40
579.94	46734.65
580.13	46878.00
580.33	46912.82
580.53	46871.86
580.73	47144.24
580.93	46959.92
581.13	46566.71
581.33	47346.99
581.53	47123.76
581.73	47449.39
581.93	47437.10
582.13	47340.85
582.33	47592.75
582.53	47529.26
582.73	47861.03
582.92	47594.79
583.12	48045.35
583.32	47760.68
583.52	47365.42
583.72	47854.89
583.92	47629.61
584.12	48123.17
584.32	48233.76
584.52	48248.10
584.72	47949.09
584.92	47834.41
585.11	48870.68
585.31	48125.22
585.51	48436.51
585.71	48131.36
585.91	48178.46
586.11	48360.73
586.31	48291.10
586.51	48055.59
586.71	48315.68
586.91	49149.20
587.10	48471.32
587.30	48598.30
587.50	48653.59
587.70	48715.03
587.90	48571.67
588.10	49104.15
588.30	49212.69
588.50	49466.64
588.69	49173.78
588.89	48872.73
589.09	49173.78
589.29	48893.21
589.49	49569.04
589.69	49190.16
589.89	49526.03
590.08	49433.87
590.28	49712.39
590.48	49038.61
590.68	49218.83
590.88	49388.81
591.08	49276.18
591.28	49100.05
591.47	50001.16
591.67	50066.69
591.87	49675.53
592.07	50167.04
592.27	49968.39
592.47	49698.06
592.67	49714.44
592.86	49743.11
593.06	49962.25
593.26	49855.75
593.46	50019.59
593.66	50275.58
593.86	49960.20
594.05	50130.18
594.25	50296.06
594.45	50164.99
594.65	50195.71
594.85	49782.02
595.05	50599.16
595.24	50707.71
595.44	50644.22
595.64	50375.94
595.84	50574.59
596.04	50255.11
596.23	50398.46
596.43	50779.39
596.63	50625.79
596.83	50937.08
597.03	50873.59
597.22	51346.67
597.42	51166.45
597.62	51164.40
597.82	51021.05
598.02	51037.43
598.21	51045.62
598.41	51172.60
598.61	51270.90
598.81	51655.92
599.01	51500.27
599.20	51037.43
599.40	51072.24
599.60	51508.46
599.80	51918.06
600.00	51549.42
600.19	51950.82
600.39	51199.22
600.59	52059.37
600.79	51920.10
600.98	51909.86
601.18	51901.67
601.38	52282.59
601.58	52407.52
601.78	52356.32
601.97	52245.73
602.17	52968.66
602.37	52337.89
602.57	52395.23
602.76	52761.82
602.96	52298.98
603.16	52925.66
603.36	52468.96
603.55	52792.54
603.75	52714.72
603.95	52892.89
604.15	52733.15
604.34	53005.53
604.54	53032.15
604.74	53169.36
604.94	52651.23
605.13	53351.63
605.33	52868.31
605.53	53040.34
605.73	53333.20
605.92	52995.29
606.12	53302.48
606.32	53265.62
606.52	53376.21
606.71	53507.28
606.91	53886.15
607.11	53206.23
607.30	53875.91
607.50	53357.78
607.70	53828.81
607.90	53390.55
608.09	53933.26
608.29	53548.24
608.49	53949.64
608.68	53755.08
608.88	53388.50
609.08	54099.14
609.28	53882.06
609.47	54015.18
609.67	54547.65
609.87	54023.37
610.06	54166.73
610.26	54224.07
610.46	54222.02
610.66	54002.89
610.85	54068.42
611.05	54234.31
611.25	54531.26
611.44	54131.91
611.64	54590.66
611.84	54191.30
612.03	54277.32
612.23	54422.72
612.43	54475.97
612.62	54232.26
612.82	54297.80
613.02	54015.18
613.21	54316.23
613.41	54219.97
613.61	54527.17
613.80	54297.80
614.00	54205.64
614.20	54531.26
614.39	54645.95
614.59	54744.25
614.79	54330.56
614.98	54514.88
615.18	54914.23
615.38	54574.27
615.57	54639.81
615.77	54910.14
615.97	54668.48
616.16	54699.20
616.36	54695.10
616.56	55008.44
616.75	54527.17
616.95	54627.52
617.15	54697.15
617.34	54498.50
617.54	54596.80
617.74	54746.30
617.93	54992.06
618.13	54478.02
618.32	54648.00
618.52	54703.29
618.72	54893.75
618.91	54566.08
619.11	55094.46
619.31	54813.88
619.50	54435.01
619.70	54371.52
619.90	54785.21
620.09	54529.22
620.29	54785.21
620.48	54623.42
620.68	55450.80
620.88	54471.87
621.07	54680.77
621.27	54875.32
621.46	54019.27
621.66	55041.21
621.86	54830.27
622.05	54539.46
622.25	55309.49
622.44	54752.44
622.64	54748.35
622.84	55430.32
623.03	54744.25
623.23	54639.81
623.42	54789.31
623.62	54881.47
623.82	54533.31
624.01	54793.40
624.21	54916.28
624.40	54863.03
624.60	54418.63
624.80	54533.31
624.99	54670.53
625.19	54252.74
625.38	54891.71
625.58	54756.54
625.77	54951.10
625.97	54539.46
626.17	54588.61
626.36	54629.57
626.56	55198.90
626.75	53882.06
626.95	55121.08
627.14	54731.96
627.34	55030.97
627.54	54289.60
627.73	55012.54
627.93	54736.06
628.12	54197.44
628.32	54834.36
628.51	54777.02
628.71	54183.11
628.90	54940.86
629.10	54645.95
629.30	54787.26
629.49	54903.99
629.69	54543.55
629.88	54686.91
630.08	54920.38
630.27	54629.57
630.47	55090.36
630.66	54586.56
630.86	55194.81
631.05	54351.04
631.25	55291.06
631.44	54617.28
631.64	55071.93
631.84	54787.26
632.03	55096.50
632.23	54541.50
632.42	55383.22
632.62	55071.93
632.81	54936.76
633.01	54811.84
633.20	55022.78
633.40	55252.15
633.59	54863.03
633.79	54834.36
633.98	54502.59
634.18	55137.46
634.37	55051.45
634.57	54842.56
634.76	55258.29
634.96	55252.15
635.15	55555.25
635.35	54703.29
635.54	54899.90
635.74	55411.89
635.93	54793.40
636.13	55198.90
636.32	55123.13
636.52	54756.54
636.71	55194.81
636.91	55141.56
637.10	55186.61
637.30	55000.25
637.49	55213.24
637.69	55180.47
637.88	55409.84
638.08	55018.68
638.27	55332.02
638.46	54967.48
638.66	54961.34
638.85	55178.42
639.05	55399.60
639.24	55596.21
639.44	55192.76
639.63	55334.07
639.83	55162.04
640.02	55270.58
640.22	55176.37
640.41	55506.10
640.61	54951.10
640.80	55551.15
640.99	55307.44
641.19	55686.32
641.38	55571.63
641.58	55538.86
641.77	55286.96
641.97	55186.61
642.16	55809.20
642.36	55516.34
642.55	55981.23
642.74	55506.10
642.94	55852.20
643.13	55473.33
643.33	55409.84
643.52	56378.53
643.72	55780.52
643.91	55489.71
644.10	56061.10
644.30	55774.38
644.49	55831.72
644.69	56046.76
644.88	55966.89
645.08	55557.30
645.27	55610.54
645.46	55755.95
645.66	55825.58
645.85	55485.62
646.05	55813.29
646.24	55647.41
646.43	55729.33
646.63	55991.47
646.82	56118.44
647.02	55921.83
647.21	56251.56
647.40	55837.87
647.60	56120.49
647.79	56032.42
647.99	56206.50
648.18	55975.08
648.37	56519.84
648.57	56036.52
648.76	56171.69
648.96	55911.59
649.15	56210.60
649.34	56642.72
649.54	56296.61
649.73	55829.68
649.92	56247.46
650.12	56290.47
650.31	56665.25
650.51	56827.04
650.70	56237.22
650.89	55989.42
651.09	56499.36
651.28	56788.13
651.47	56644.77
651.67	56263.85
651.86	56612.00
652.06	56155.30
652.25	56433.83
652.44	56145.06
652.64	56040.62
652.83	56149.16
653.02	56138.92
653.22	56431.78
653.41	56169.64
653.60	56280.23
653.80	56261.80
653.99	56669.34
654.18	56655.01
654.38	56591.52
654.57	56689.82
654.76	56505.51
654.96	56190.12
655.15	56370.34
655.34	56401.06
655.54	56362.15
655.73	56505.51
655.92	56595.62
656.12	56677.54
656.31	56636.58
656.50	56513.70
656.70	56470.69
656.89	56593.57
657.08	56767.65
657.28	56847.52
657.47	56417.44
657.66	56718.49
657.86	56493.22
658.05	56833.18
658.24	56640.67
658.43	56050.86
658.63	56476.83
658.82	56708.25
659.01	56982.68
659.21	57003.16
659.40	56935.58
659.59	56800.41
659.79	57087.13
659.98	56777.89
660.17	57214.10
660.36	56851.61
660.56	56648.86
660.75	57040.03
660.94	56786.08
661.14	56978.59
661.33	56548.51
661.52	56165.54
661.71	57259.16
661.91	56833.18
662.10	56579.23
662.29	56951.96
662.49	56753.31
662.68	56710.30
662.87	56888.48
663.06	57031.83
663.26	56769.69
663.45	57246.87
663.64	56908.96
663.83	57486.48
664.03	56931.48
664.22	56997.02
664.41	57099.42
664.60	56511.65
664.80	57513.11
664.99	56876.19
665.18	57156.76
665.37	56988.83
665.57	57533.59
665.76	57271.45
665.95	57119.90
666.14	57050.27
666.34	56968.35
666.53	56538.27
666.72	56718.49
666.91	56954.01
667.11	56837.28
667.30	56884.38
667.49	56700.06
667.68	56767.65
667.87	57009.31
668.07	57035.93
668.26	57048.22
668.45	56896.67
668.64	56571.04
668.84	57261.21
669.03	57236.63
669.22	57056.41
669.41	57099.42
669.60	57027.74
669.80	56605.86
669.99	56835.23
670.18	56689.82
670.37	56970.39
670.57	56906.91
670.76	57373.84
670.95	57146.52
671.14	57060.51
671.33	56339.62
671.53	57414.80
671.72	56794.27
671.91	56947.87
672.10	57179.29
672.29	57033.88
672.48	56736.93
672.68	57488.53
672.87	56808.61
673.06	57230.49
673.25	56710.30
673.44	56931.48
673.64	56530.08
673.83	56519.84
674.02	56368.29
674.21	56687.78
674.40	56915.10
674.59	56521.89
674.79	56136.87
674.98	56546.47
675.17	56865.95
675.36	56812.70
675.55	56868.00
675.74	56382.63
675.94	56251.56
676.13	56612.00
676.32	56675.49
676.51	56929.44
676.70	56374.44
676.89	56198.31
677.08	57005.21
677.28	56345.76
677.47	56677.54
677.66	56917.15
677.85	56626.34
678.04	57195.67
678.23	56870.04
678.42	56599.71
678.62	56841.37
678.81	56769.69
679.00	56272.04
679.19	57265.30
679.38	56706.21
679.57	56313.00
679.76	56423.59
679.96	56892.57
680.15	56591.52
680.34	56712.35
680.53	56620.19
680.72	56857.76
680.91	56595.62
681.10	56571.04
681.29	56927.39
681.48	56435.87
681.68	56390.82
681.87	55977.13
682.06	56681.63
682.25	56353.96
682.44	56091.82
682.63	56603.81
682.82	56120.49
683.01	56341.67
683.20	55809.20
683.39	56034.47
683.59	55768.24
683.78	56173.73
683.97	56075.43
684.16	56339.62
684.35	56081.58
684.54	56030.38
684.73	55932.07
684.92	56089.77
685.11	55858.35
685.30	55997.61
685.49	56126.63
685.69	55751.85
685.88	56042.66
686.07	56468.64
686.26	56147.11
686.45	56030.38
686.64	55989.42
686.83	56161.45
687.02	56095.91
687.21	56022.19
687.40	56151.21
687.59	56030.38
687.78	55977.13
687.97	56487.07
688.16	55923.88
688.35	56007.85
688.54	55889.07
688.74	55762.09
688.93	55688.37
689.12	55966.89
689.31	55389.36
689.50	55860.40
689.69	55186.61
689.88	55446.71
690.07	55674.03
690.26	55223.48
690.45	55745.71
690.64	55545.01
690.83	55403.70
691.02	55073.98
691.21	55524.53
691.40	55391.41
691.59	55493.81
691.78	55329.97
691.97	55674.03
692.16	55739.57
692.35	55463.09
692.54	55131.32
692.73	55477.43
692.92	55481.52
693.11	55538.86
693.30	55295.16
693.49	55293.11
693.68	55340.21
693.87	55061.69
694.06	55121.08
694.25	54811.84
694.44	55106.74
694.63	55135.41
694.82	55327.92
695.01	55196.85
695.20	54731.96
695.39	55006.39
695.58	55225.53
695.77	54852.80
695.96	54740.16
696.15	54574.27
696.34	54686.91
696.53	54783.16
696.72	55063.74
696.91	54897.85
697.10	54809.79
697.29	54664.38
697.48	55258.29
697.67	54727.87
697.86	54428.87
698.05	54346.95
698.24	55014.58
698.43	53943.50
698.62	54572.22
698.81	54125.77
699.00	55061.69
699.19	53968.07
699.38	54559.94
699.57	54277.32
699.76	54826.17
699.95	54449.35
700.14	54076.61
700.32	54283.46
700.51	54287.56
700.70	54457.54
700.89	54430.91
701.08	54707.39
701.27	54009.03
701.46	54387.91
701.65	53542.10
701.84	54224.07
702.03	54451.39
702.22	53974.22
702.41	54140.10
702.60	54435.01
702.79	53933.26
702.98	53681.36
703.17	53892.30
703.35	53656.78
703.54	53951.69
703.73	54596.80
703.92	53785.80
704.11	53701.84
704.30	53769.42
704.49	53705.93
704.68	53621.97
704.87	53697.74
705.06	53564.62
705.25	53720.27
705.43	53454.03
705.62	53554.38
705.81	53454.03
706.00	53415.12
706.19	53494.99
706.38	53140.69
706.57	52614.37
706.76	53411.02
706.95	53193.94
707.14	53312.72
707.32	53198.04
707.51	52757.72
707.70	53335.25
707.89	53165.27
708.08	53064.92
708.27	53191.89
708.46	53195.99
708.65	52980.95
708.84	53335.25
709.02	53064.92
709.21	53574.86
709.40	52985.05
709.59	52757.72
709.78	52540.64
709.97	53525.71
710.16	52917.46
710.34	52499.68
710.53	52872.41
710.72	52419.81
710.91	52778.20
711.10	52798.68
711.29	52741.34
711.48	52661.47
711.66	52432.10
711.85	52348.13
712.04	52477.15
712.23	52970.71
712.42	52401.38
712.61	52784.35
712.80	52456.67
712.98	52372.70
713.17	52366.56
713.36	52137.19
713.55	52473.06
713.74	52530.40
713.93	51760.36
714.11	52208.87
714.30	51967.21
714.49	51819.75
714.68	52432.10
714.87	52245.73
715.06	52155.62
715.24	52221.16
715.43	51946.73
715.62	51709.16
715.81	51393.78
716.00	51909.86
716.18	51920.10
716.37	51805.42
716.56	51662.06
716.75	51670.25
716.94	51516.65
717.12	51299.57
717.31	51797.23
717.50	50994.42
717.69	51397.87
717.88	51348.72
718.06	51842.28
718.25	51954.92
718.44	50881.78
718.63	51195.12
718.82	51240.18
719.00	51115.25
719.19	51148.02
719.38	50613.50
719.57	50869.50
719.76	50437.37
719.94	50429.18
720.13	50468.09
720.32	50955.51
720.51	50564.35
720.69	50593.02
720.88	50363.65
721.07	50826.49
721.26	50269.44
721.44	50117.89
721.63	50625.79
721.82	50111.75
722.01	50208.00
722.20	50349.31
722.38	50005.25
722.57	49454.35
722.76	49974.53
722.95	50093.32
723.13	49294.61
723.32	49435.92
723.51	49571.08
723.70	49362.19
723.88	49677.58
724.07	49272.08
724.26	49607.95
724.44	48917.78
724.63	49673.48
724.82	49587.47
725.01	49614.09
725.19	49218.83
725.38	49280.27
725.57	49378.57
725.76	49468.69
725.94	48862.49
726.13	49329.42
726.32	49239.31
726.51	48979.22
726.69	49173.78
726.88	48829.72
727.07	48923.93
727.25	48862.49
727.44	49188.11
727.63	48989.46
727.82	48633.11
728.00	49110.29
728.19	48858.39
728.38	49282.32
728.56	48483.61
728.75	49214.74
728.94	48948.50
729.12	48946.45
729.31	48784.66
729.50	48936.21
729.69	48774.42
729.87	48622.87
730.06	48880.92
730.25	48641.31
730.43	49192.21
730.62	48805.14
730.81	48921.88
730.99	48923.93
731.18	48854.29
731.37	48905.49
731.55	48747.80
731.74	48962.84
731.93	48350.49
732.11	48764.18
732.30	48948.50
732.49	48665.88
732.67	48872.73
732.86	48477.47
733.05	48456.99
733.23	48147.75
733.42	48698.65
733.61	48940.31
733.79	48755.99
733.98	48678.17
734.17	48635.16
734.35	48805.14
734.54	48796.95
734.73	49036.56
734.91	48495.90
735.10	48334.11
735.29	48583.96
735.47	47914.28
735.66	48395.55
735.84	48475.42
736.03	47871.27
736.22	48559.39
736.40	47977.76
736.59	48346.40
736.78	48518.43
736.96	48186.66
737.15	48061.73
737.33	48135.46
737.52	48200.99
737.71	48043.30
737.89	47920.42
738.08	47813.93
738.27	47758.63
738.45	48246.05
738.64	48012.58
738.82	48010.53
739.01	47504.68
739.20	47705.38
739.38	48241.95
739.57	48311.58
739.75	48155.94
739.94	47639.85
740.13	47848.74
740.31	47893.80
740.50	47754.54
740.68	47787.30
740.87	48411.93
741.06	47820.07
741.24	47674.66
741.43	47365.42
741.61	47981.86
741.80	47037.75
741.99	47318.32
742.17	47494.44
742.36	47355.18
742.54	47516.97
742.73	47295.79
742.91	47519.02
743.10	47074.61
743.29	47424.81
743.47	47791.40
743.66	47197.49
743.84	47748.39
744.03	47365.42
744.21	46857.52
744.40	47461.68
744.59	46816.57
744.77	46726.46
744.96	47095.09
745.14	47576.36
745.33	47162.67
745.51	47019.31
745.70	46996.79
745.88	46617.91
746.07	47328.56
746.26	47125.81
746.44	47058.23
746.63	46595.38
746.81	46830.90
747.00	46822.71
747.18	47330.61
747.37	46579.00
747.55	46376.25
747.74	47359.28
747.92	46533.95
748.11	46753.08
748.29	46777.65
748.48	46595.38
748.66	46781.75
748.85	46210.37
749.03	46605.62
749.22	46464.32
749.41	46169.41
749.59	46116.16
749.78	46200.13
749.96	45763.91
750.15	46097.73
750.33	46366.01
750.52	46372.16
750.70	45882.69
750.89	45997.38
751.07	45874.50
751.26	46019.91
751.44	46085.44
751.63	46005.57
751.81	45684.04
752.00	45776.20
752.18	45788.49
752.37	45876.55
752.55	45344.08
752.74	45522.25
752.92	45360.46
753.10	45110.61
753.29	45659.46
753.47	45587.78
753.66	45172.05
753.84	45700.42
754.03	45313.36
754.21	45231.44
754.40	45462.86
754.58	45493.58
754.77	44989.78
754.95	45008.21
755.14	45348.17
755.32	45118.80
755.51	44975.44
755.69	44905.81
755.88	45253.97
756.06	45161.81
756.24	45184.33
756.43	44815.70
756.61	44932.43
756.80	44827.99
756.98	44897.62
757.17	44789.08
757.35	45081.94
757.54	45010.26
757.72	44557.66
757.90	44680.53
758.09	44483.93
758.27	44567.90
758.46	44270.94
758.64	44402.01
758.83	44522.84
759.01	44897.62
759.19	44610.90
759.38	44598.62
759.56	44852.56
759.75	44428.63
759.93	44516.70
760.12	44336.48
760.30	44559.70
760.48	44279.13
760.67	44178.78
760.85	44647.77
761.04	44012.90
761.22	44389.72
761.40	44311.90
761.59	44090.72
761.77	43818.34
761.96	43722.08
762.14	43644.26
762.32	43320.68
762.51	44082.53
762.69	43466.09
762.88	43345.26
763.06	43631.97
763.24	43709.80
763.43	43593.06
763.61	43738.47
763.80	43881.83
763.98	43457.90
764.16	43435.37
764.35	43660.65
764.53	43332.97
764.72	43746.66
764.90	43324.78
765.08	43302.25
765.27	43160.94
765.45	42952.05
765.63	42896.75
765.82	43152.75
766.00	42933.62
766.18	42767.73
766.37	43390.31
766.55	42968.43
766.74	42855.79
766.92	42894.71
767.10	42923.38
767.29	42751.35
767.47	42507.64
767.65	42769.78
767.84	41977.22
768.02	42648.95
768.20	42507.64
768.39	42214.78
768.57	42544.50
768.75	42438.01
768.94	42384.76
769.12	42325.37
769.30	41876.86
769.49	42081.66
769.67	42218.88
769.85	41864.58
770.04	41860.48
770.22	41923.97
770.40	41610.63
770.59	42036.61
770.77	42169.72
770.95	41878.91
771.14	41436.55
771.32	41522.57
771.50	41328.01
771.69	41495.94
771.87	41325.96
772.05	41311.63
772.24	41178.51
772.42	41239.95
772.60	41282.95
772.78	41223.56
772.97	40887.70
773.15	41477.51
773.33	41280.91
773.52	41024.91
773.70	41422.22
773.88	41194.89
774.07	40936.85
774.25	40983.95
774.43	41524.61
774.61	40934.80
774.80	41020.81
774.98	40945.04
775.16	41596.29
775.34	41295.24
775.53	40756.63
775.71	41285.00
775.89	41373.06
776.08	41307.53
776.26	41119.12
776.44	41223.56
776.62	41252.23
776.81	41225.61
776.99	41674.12
777.17	41348.49
777.35	41244.04
777.54	41860.48
777.72	40922.51
777.90	41225.61
778.08	41758.08
778.27	41497.99
778.45	41436.55
778.63	41956.74
778.81	41186.70
779.00	41874.82
779.18	41680.26
779.36	41837.95
779.54	41682.31
779.73	41758.08
779.91	41837.95
780.09	41913.73
780.27	41762.18
780.46	42057.09
780.64	41923.97
780.82	41692.55
781.00	41719.17
781.19	42118.53
781.37	42227.07
781.55	41829.76
781.73	42349.95
781.91	42026.37
782.10	41934.21
782.28	42159.48
782.46	42030.46
782.64	41907.58
782.82	41903.49
783.01	42050.94
783.19	42251.64
783.37	42212.73
783.55	41938.30
783.74	42081.66
783.92	41858.43
784.10	42519.93
784.28	42214.78
784.46	41538.95
784.64	41846.15
784.83	42130.81
785.01	42323.32
785.19	41891.20
785.37	42411.38
785.55	42345.85
785.74	41774.47
785.92	41604.49
786.10	42001.79
786.28	42096.00
786.46	41844.10
786.64	41596.29
786.83	42032.51
787.01	42276.22
787.19	42028.41
787.37	42194.30
787.55	41917.82
787.74	41702.79
787.92	41870.72
788.10	41328.01
788.28	41356.68
788.46	41764.23
788.64	41289.10
788.82	41776.51
789.01	41694.60
789.19	41579.91
789.37	41248.14
789.55	41637.25
789.73	40973.71
789.91	41237.90
790.09	40875.41
790.28	40889.74
790.46	41026.96
790.64	40990.09
790.82	40699.28
791.00	40480.15
791.18	40920.46
791.36	40637.84
791.55	40658.32
791.73	40283.55
791.91	40252.83
792.09	40420.76
792.27	40453.53
792.45	40527.25
792.63	39900.58
792.81	40127.90
793.00	39830.94
793.18	40123.80
793.36	39740.83
793.54	39392.68
793.72	39304.62
793.90	39818.66
794.08	39355.82
794.26	39296.42
794.44	38952.37
794.62	39425.45
794.81	39136.68
794.99	39402.92
795.17	39269.80
795.35	38884.78
795.53	38938.03
795.71	39314.86
795.89	38671.79
796.07	38442.42
796.25	38622.64
796.43	38182.33
796.61	38243.77
796.80	38294.97
796.98	38438.33
797.16	38407.61
797.34	38340.02
797.52	37891.52
797.70	38507.96
797.88	38016.44
798.06	37850.56
798.24	37901.76
798.42	37711.30
798.60	37455.30
798.78	37328.33
798.96	37598.66
799.14	37166.54
799.32	37625.28
799.51	37254.60
799.69	37199.30
799.87	37426.63
800.05	36728.27
800.23	37197.26
800.41	36496.85
800.59	37031.37
800.77	36912.59
800.95	36529.62
801.13	36505.04
801.31	36263.38
801.49	36552.15
801.67	36224.47
801.85	36216.28
802.03	36150.74
802.21	35759.58
802.39	35773.92
802.57	35976.67
802.75	35798.49
802.93	35737.05
803.11	35569.12
803.29	35597.79
803.47	35657.18
803.65	35837.41
803.83	34997.74
804.01	35589.60
804.19	35210.73
804.37	35116.52
804.55	34788.85
804.73	35360.23
804.91	35120.62
805.09	34960.87
805.27	34706.93
805.45	35059.18
805.63	34825.71
805.81	34817.52
805.99	34770.41
806.17	34745.84
806.35	34766.32
806.53	34387.44
806.71	34512.37
806.89	33799.68
807.07	34115.06
807.25	34117.11
807.43	34283.00
807.61	34184.69
807.79	34088.44
807.97	34057.72
808.15	33766.91
808.33	33678.85
808.51	33490.43
808.69	33744.38
808.87	33312.26
809.05	33101.32
809.23	33416.71
809.41	33097.22
809.59	33193.48
809.77	33283.59
809.95	32818.70
810.13	33177.09
810.31	32751.12
810.49	33222.15
810.67	32908.81
810.84	32892.43
811.02	32826.89
811.20	32288.28
811.38	32577.04
811.56	31985.18
811.74	32400.91
811.92	32126.49
812.10	32218.64
812.28	32699.92
812.46	32364.05
812.64	32282.13
812.82	32282.13
813.00	32144.92
813.18	32060.95
813.36	31931.93
813.53	31931.93
813.71	31886.87
813.89	31809.05
814.07	31661.60
814.25	31962.65
814.43	31366.69
814.61	31385.12
814.79	31653.40
814.97	31499.81
815.15	31641.12
815.33	31059.49
815.50	31039.01
815.68	31233.57
815.86	31628.83
816.04	31092.26
816.22	31075.88
816.40	31026.73
816.58	31153.70
816.76	30506.54
816.94	30664.24
817.11	30512.69
817.29	31118.89
817.47	30314.03
817.65	30357.04
817.83	30535.21
818.01	30434.86
818.19	30391.86
818.37	30252.59
818.54	30346.80
818.72	30195.25
818.90	30101.04
819.08	30189.11
819.26	30182.96
819.44	30264.88
819.62	29793.85
819.80	29937.21
819.97	29951.54
820.15	29857.34
820.33	29646.40
820.51	29838.90
820.69	29451.84
820.87	29703.74
821.05	29611.58
821.22	29488.70
821.40	29490.75
821.58	29419.07
821.76	29388.35
821.94	29294.14
822.12	29382.21
822.29	29353.54
822.47	29152.84
822.65	29480.51
822.83	29244.99
823.01	29312.58
823.19	29109.83
823.36	28771.91
823.54	28954.18
823.72	28868.17
823.90	29064.77
824.08	29056.58
824.25	28792.39
824.43	28794.44
824.61	28909.13
824.79	28776.01
824.97	28403.28
825.15	28751.43
825.32	28589.64
825.50	28464.72
825.68	28599.88
825.86	28626.51
826.04	28501.58
826.21	28606.03
826.39	28311.12
826.57	28233.30
826.75	28182.10
826.93	27735.64
827.10	27973.21
827.28	28022.36
827.46	28425.81
827.64	28018.26
827.81	27928.15
827.99	27840.09
828.17	27983.44
828.35	27690.59
828.53	27786.84
828.70	27743.83
828.88	27737.69
829.06	27715.16
829.24	27754.07
829.41	27424.35
829.59	27840.09
829.77	27735.64
829.95	27369.05
830.12	27453.02
830.30	27395.68
830.48	27483.74
830.66	27643.48
830.84	27602.52
831.01	27344.48
831.19	27248.22
831.37	27213.41
831.55	27287.14
831.72	27225.70
831.90	27145.83
832.08	27047.52
832.25	26846.82
832.43	27217.50
832.61	26926.69
832.79	26566.25
832.96	27063.91
833.14	27258.46
833.32	26975.84
833.50	26660.46
833.67	26844.77
833.85	26904.17
834.03	26525.29
834.20	26881.64
834.38	26566.25
834.56	26599.02
834.74	26279.54
834.91	26525.29
835.09	26441.32
835.27	26146.42
835.44	26138.23
835.62	25925.24
835.80	26044.02
835.98	26400.37
836.15	26013.30
836.33	26154.61
836.51	26351.21
836.68	26148.46
836.86	26101.36
837.04	26125.94
837.21	26320.49
837.39	26070.64
837.57	26195.57
837.75	26234.48
837.92	25245.31
838.10	26136.18
838.28	25777.78
838.45	26070.64
838.63	25790.07
838.81	25503.35
838.98	25613.95
839.16	25777.78
839.34	25615.99
839.51	25357.95
839.69	25411.20
839.87	25269.89
840.04	25394.81
840.22	25773.69
840.40	25640.57
840.57	24882.82
840.75	25599.61
840.93	24958.60
841.10	25306.75
841.28	25808.50
841.46	25312.89
841.63	25224.83
841.81	25237.12
841.98	25071.23
842.16	25245.31
842.34	25185.92
842.51	24759.94
842.69	25300.61
842.87	24848.00
843.04	25167.49
843.22	24956.55
843.40	24561.29
843.57	24721.03
843.75	25173.63
843.92	24993.41
844.10	24585.86
844.28	24868.48
844.45	24770.18
844.63	25030.27
844.81	24745.61
844.98	24604.30
845.16	24702.60
845.33	24772.23
845.51	24483.47
845.69	24477.32
845.86	24149.65
846.04	24274.57
846.21	24360.59
846.39	24247.95
846.57	23776.92
846.74	24155.79
846.92	24192.65
847.09	24417.93
847.27	24026.77
847.45	24157.84
847.62	24268.43
847.80	24166.03
847.97	23985.81
848.15	23809.68
848.32	24127.12
848.50	23955.09
848.68	23778.97
848.85	23793.30
849.03	23600.79
849.20	23729.81
849.38	23948.95
849.56	23754.39
849.73	23639.70
849.91	23545.50
850.08	23793.30
850.26	23670.42
850.43	23709.33
850.61	23486.11
850.78	23518.87
850.96	23512.73
851.14	23219.87
851.31	23479.96
851.49	23107.23
851.66	23520.92
851.84	23264.92
852.01	23498.39
852.19	23326.36
852.36	23008.93
852.54	23314.08
852.71	23295.64
852.89	23135.90
853.07	23189.15
853.24	23275.16
853.42	23158.43
853.59	23004.83
853.77	22998.69
853.94	22914.72
854.12	23344.80
854.29	22804.13
854.47	22781.60
854.64	22832.80
854.82	22871.72
854.99	22959.78
855.17	22623.91
855.34	22650.53
855.52	23105.18
855.69	23262.88
855.87	22711.97
856.04	22511.27
856.22	22650.53
856.39	22695.59
856.57	22503.08
856.74	22488.74
856.92	22304.43
857.09	22169.26
857.27	22410.92
857.44	22605.48
857.62	22517.42
857.79	22513.32
857.97	22447.79
858.14	22341.29
858.32	22257.32
858.49	22197.93
858.67	22281.90
858.84	22099.63
859.02	22105.77
859.19	22234.80
859.37	22154.93
859.54	22048.43
859.72	22292.14
859.89	21769.91
860.06	22091.44
860.24	22044.34
860.41	22075.06
860.59	21796.53
860.76	22152.88
860.94	21784.24
861.11	21952.18
861.29	21364.41
861.46	21542.58
861.64	21337.79
861.81	21581.49
861.98	21647.03
862.16	21454.52
862.33	21208.76
862.51	21266.11
862.68	21659.32
862.86	21817.01
863.03	21460.66
863.21	21182.14
863.38	21038.78
863.55	21335.74
863.73	21552.82
863.90	21444.28
864.08	21354.17
864.25	21251.77
864.43	20895.43
864.60	21051.07
864.77	20745.92
864.95	21245.63
865.12	20989.63
865.30	21188.28
865.47	20979.39
865.64	21126.85
865.82	21259.96
865.99	21202.62
866.17	21163.71
866.34	20842.18
866.51	20381.38
866.69	20930.24
866.86	21036.74
867.04	20852.42
867.21	20440.78
867.38	20555.46
867.56	20430.54
867.73	20545.22
867.91	20408.01
868.08	20424.39
868.25	20102.86
868.43	20301.51
868.60	20448.97
868.78	20410.06
868.95	20485.83
869.12	20477.64
869.30	20180.68
869.47	20168.40
869.64	20117.20
869.82	20358.86
869.99	20051.66
870.16	20278.99
870.34	19945.17
870.51	20346.57
870.69	19828.43
870.86	20080.33
871.03	20246.22
871.21	19924.69
871.38	20264.65
871.55	19877.58
871.73	19836.63
871.90	19900.11
872.07	19781.33
872.25	19478.23
872.42	19504.85
872.59	19611.35
872.77	19629.78
872.94	19244.76
873.11	19515.09
873.29	19453.66
873.46	19439.32
873.63	19541.72
873.81	19392.22
873.98	19162.84
874.15	19134.17
874.33	19295.96
874.50	19134.17
874.67	19351.26
874.85	19082.97
875.02	18990.81
875.19	19076.83
875.37	18917.09
875.54	18718.43
875.71	19031.77
875.88	19056.35
876.06	18507.49
876.23	18759.39
876.40	18548.45
876.58	18935.52
876.75	18642.66
876.92	18585.32
877.10	18628.32
877.27	18478.82
877.44	18648.80
877.61	18595.56
877.79	18214.63
877.96	18249.45
878.13	18388.71
878.31	18335.46
878.48	18372.33
878.65	18151.15
878.82	18065.13
879.00	18388.71
879.17	18104.04
879.34	17977.07
879.51	17944.30
879.69	17850.10
879.86	17774.32
880.03	18046.70
880.21	17895.15
880.38	17823.47
880.55	18003.69
880.72	17866.48
880.90	17889.01
881.07	17915.63
881.24	17612.53
881.41	17977.07
881.59	17743.60
881.76	17872.62
881.93	17348.34
882.10	17565.43
882.28	17463.03
882.45	17610.48
882.62	17612.53
882.79	17694.45
882.96	17424.12
883.14	17510.13
883.31	17417.97
883.48	17157.88
883.65	17436.41
883.83	17405.69
884.00	17428.21
884.17	17508.08
884.34	17286.90
884.51	17348.34
884.69	17395.45
884.86	17247.99
885.03	17178.36
885.20	16971.52
885.38	17092.35
885.55	17147.64
885.72	17235.70
885.89	17045.24
886.06	17112.83
886.24	16983.80
886.41	16795.39
886.58	16963.33
886.75	17166.07
886.92	16944.89
887.10	17022.72
887.27	16822.02
887.44	16764.67
887.61	16934.65
887.78	16940.80
887.95	16948.99
888.13	16871.17
888.30	16498.44
888.47	16625.41
888.64	16789.25
888.81	16512.77
888.99	16502.53
889.16	16508.68
889.33	16654.08
889.50	16713.47
889.67	16549.64
889.84	16377.61
890.01	16543.49
890.19	16561.92
890.36	16426.76
890.53	16518.92
890.70	16437.00
890.87	16291.59
891.04	16162.57
891.22	16383.75
891.39	16195.34
891.56	15904.53
891.73	16080.65
891.90	16160.52
892.07	15847.18
892.24	16074.51
892.42	16084.75
892.59	15953.68
892.76	15886.09
892.93	15755.02
893.10	15904.53
893.27	15652.63
893.44	15845.13
893.61	15896.33
893.79	15734.54
893.96	15925.00
894.13	15808.27
894.30	15978.25
894.47	15611.67
894.64	15775.50
894.81	15728.40
894.98	15953.68
895.15	15843.09
895.33	15781.65
895.50	15847.18
895.67	15980.30
895.84	15918.86
896.01	15875.85
896.18	15726.35
896.35	15798.03
896.52	15564.56
896.69	15687.44
896.86	16101.13
897.04	15683.34
897.21	15580.95
897.38	15556.37
897.55	15777.55
897.72	15761.17
897.89	15591.19
898.06	15662.86
898.23	15529.75
898.40	15634.19
898.57	15580.95
898.74	15595.28
898.91	15712.02
899.08	15656.72
899.26	15843.09
899.43	15828.75
899.60	15365.91
899.77	15724.30
899.94	15462.16
900.11	15517.46
900.28	15365.91
900.45	15408.92
900.62	15691.54
900.79	15793.94
900.96	15867.66
901.13	15636.24
901.30	15703.82
901.47	15396.63
901.64	15513.36
901.81	15456.02
901.98	15496.98
902.15	15626.00
902.32	15611.67
902.49	15726.35
902.66	15527.70
902.83	15464.21
903.01	15607.57
903.18	15542.03
903.35	15726.35
903.52	15480.60
903.69	15644.43
903.86	15654.67
904.03	15318.81
904.20	15517.46
904.37	15671.06
904.54	15589.14
904.71	15515.41
904.88	15521.56
905.05	15580.95
905.22	15396.63
905.39	15316.76
905.56	15400.72
905.73	15499.03
905.90	15423.25
906.07	15384.34
906.24	15425.30
906.41	15410.96
906.58	15478.55
906.75	15271.70
906.92	15329.05
907.09	15193.88
907.26	15425.30
907.43	15281.94
907.60	15171.35
907.77	15464.21
907.93	15423.25
908.10	15249.18
908.27	15392.53
908.44	15171.35
908.61	15296.28
908.78	15095.58
908.95	15374.10
909.12	15185.69
909.29	15253.27
909.46	15386.39
909.63	15312.66
909.80	15355.67
909.97	15404.82
910.14	15396.63
910.31	15208.22
910.48	15337.24
910.65	15161.11
910.82	15202.07
910.99	14964.51
911.16	15261.46
911.33	15175.45
911.50	14915.36
911.66	14964.51
911.83	15150.87
912.00	14991.13
912.17	14774.05
912.34	14855.97
912.51	14962.46
912.68	14941.98
912.85	14776.09
913.02	14845.73
913.19	14831.39
913.36	15042.33
913.53	15081.24
913.70	14722.85
913.86	14878.49
914.03	14839.58
914.20	14618.40
914.37	14739.23
914.54	14767.90
914.71	14739.23
914.88	14741.28
915.05	14597.92
915.22	14638.88
915.39	14792.48
915.55	14540.58
915.72	14305.06
915.89	14454.56
916.06	14311.21
916.23	14440.23
916.40	14292.77
916.57	14278.44
916.74	14247.72
916.91	14133.03
917.07	14059.31
917.24	14106.41
917.41	14079.79
917.58	14008.11
917.75	13932.33
917.92	13698.86
918.09	13895.47
918.26	13690.67
918.42	13735.73
918.59	13799.21
918.76	13573.94
918.93	13600.56
919.10	13651.76
919.27	13760.30
919.44	13659.95
919.60	13561.65
919.77	13500.21
919.94	13348.66
920.11	13610.80
920.28	13600.56
920.45	13221.69
920.61	13223.73
920.78	13565.74
920.95	13219.64
921.12	13233.97
921.29	13287.22
921.46	13121.34
921.62	12721.98
921.79	12971.83
921.96	12898.11
922.13	13031.23
922.30	12922.68
922.47	12767.04
922.63	12724.03
922.80	12873.53
922.97	12547.90
923.14	12605.25
923.31	12879.68
923.47	12478.27
923.64	12855.10
923.81	12597.06
923.98	12674.88
924.15	12500.80
924.32	12316.48
924.48	12418.88
924.65	12347.20
924.82	12195.65
924.99	12195.65
925.15	11972.43
925.32	12304.20
925.49	12173.13
925.66	12015.43
925.83	11913.03
925.99	11831.12
926.16	11829.07
926.33	11865.93
926.50	11743.05
926.67	11824.97
926.83	11558.74
927.00	11671.37
927.17	11487.06
927.34	11595.60
927.50	11321.17
927.67	11538.26
927.84	11353.94
928.01	11470.67
928.17	11439.95
928.34	11243.35
928.51	10977.11
928.68	11173.72
928.84	11245.40
929.01	11122.52
929.18	11147.09
929.35	10993.50
929.51	11052.89
929.68	11032.41
929.85	10895.19
930.02	10989.40
930.18	10805.08
930.35	10678.11
930.52	10610.53
930.69	10827.61
930.85	10631.01
931.02	10669.92
931.19	10452.83
931.36	10585.95
931.52	10516.32
931.69	10565.47
931.86	10274.66
932.02	10395.49
932.19	10227.56
932.36	10313.57
932.53	10082.15
932.69	9912.17
932.86	10325.86
933.03	10028.90
933.19	9844.59
933.36	9985.90
933.53	9983.85
933.70	9654.12
933.86	9897.83
934.03	9697.13
934.20	9469.81
934.36	9662.32
934.53	9430.90
934.70	9312.11
934.86	9377.65
935.03	9226.10
935.20	9248.63
935.36	9391.98
935.53	9187.19
935.70	8998.77
935.86	9219.96
936.03	8855.42
936.20	8796.03
936.36	8822.65
936.53	8863.61
936.70	8646.52
936.86	8746.87
937.03	8335.23
937.20	8398.72
937.36	8527.74
937.53	8236.93
937.70	8169.35
937.86	8032.13
938.03	8017.80
938.20	8050.57
938.36	7802.76
938.53	7819.14
938.70	7536.52
938.86	7683.98
939.03	7436.17
939.20	7425.93
939.36	7188.37
939.53	7358.35
939.70	7446.41
939.86	7149.46
940.03	6936.47
940.19	6985.62
940.36	6944.66
940.53	6825.88
940.69	6690.71
940.86	6748.06
941.03	6565.79
941.19	6485.92
941.36	6545.31
941.52	6596.51
941.69	6369.18
941.86	6348.70
942.02	6350.75
942.19	6215.59
942.35	6289.31
942.52	6148.00
942.69	6090.66
942.85	6027.17
943.02	6092.71
943.18	5957.54
943.35	5855.14
943.52	5877.67
943.68	5773.22
943.85	5836.71
944.01	5726.12
944.18	5693.35
944.35	5668.78
944.51	5574.57
944.68	5621.67
944.84	5476.27
945.01	5511.08
945.17	5537.71
945.34	5425.07
945.51	5693.35
945.67	5484.46
945.84	5574.57
946.00	5425.07
946.17	5570.48
946.33	5382.06
946.50	5445.55
946.67	5347.25
946.83	5431.21
947.00	5578.67
947.16	5400.49
947.33	5468.08
947.49	5318.57
947.66	5314.48
947.82	5404.59
947.99	5324.72
948.16	5226.42
948.32	5326.77
948.49	5470.12
948.65	5402.54
948.82	5398.45
948.98	5353.39
949.15	5308.34
949.31	5455.79
949.48	5439.40
949.64	5435.31
949.81	5261.23
949.97	5205.94
950.14	5490.60
950.30	5146.55
950.47	5334.96
950.63	5326.77
950.80	5320.62
950.96	5418.93
951.13	5304.24
951.30	5502.89
951.46	5384.11
951.63	5363.63
951.79	5386.16
951.96	5410.73
952.12	5593.00
952.29	5384.11
952.45	5478.32
952.62	5513.13
952.78	5451.69
952.94	5390.25
953.11	5349.29
953.27	5463.98
953.44	5550.00
953.60	5486.51
953.77	5420.97
953.93	5504.94
954.10	5423.02
954.26	5474.22
954.43	5500.84
954.59	5482.41
954.76	5554.09
954.92	5506.99
955.09	5453.74
955.25	5382.06
955.42	5504.94
955.58	5722.02
955.75	5531.56
955.91	5461.93
956.07	5416.88
956.24	5498.80
956.40	5572.52
956.57	5451.69
956.73	5615.53
956.90	5597.10
957.06	5334.96
957.23	5545.90
957.39	5343.15
957.56	5392.30
957.72	5558.19
957.88	5420.97
958.05	5646.25
958.21	5558.19
958.38	5650.35
958.54	5490.60
958.71	5631.91
958.87	5554.09
959.03	5382.06
959.20	5515.18
959.36	5554.09
959.53	5420.97
959.69	5478.32
959.85	5468.08
960.02	5400.49
960.18	5617.58
960.35	5447.60
960.51	5468.08
960.68	5408.69
960.84	5496.75
961.00	5490.60
961.17	5377.97
961.33	5552.04
961.50	5560.24
961.66	5500.84
961.82	5474.22
961.99	5545.90
962.15	5394.35
962.31	5441.45
962.48	5343.15
962.64	5494.70
962.81	5441.45
962.97	5476.27
963.13	5568.43
963.30	5703.59
963.46	5513.13
963.62	5509.04
963.79	5375.92
963.95	5478.32
964.12	5533.61
964.28	5427.12
964.44	5341.10
964.61	5349.29
964.77	5478.32
964.93	5531.56
965.10	5494.70
965.26	5463.98
965.42	5261.23
965.59	5332.91
965.75	5339.05
965.92	5394.35
966.08	5332.91
966.24	5566.38
966.41	5283.76
966.57	5349.29
966.73	5353.39
966.90	5328.81
967.06	5390.25
967.22	5224.37
967.39	5463.98
967.55	5210.03
967.71	5257.14
967.88	5261.23
968.04	5207.98
968.20	5259.18
968.37	5244.85
968.53	5191.60
968.69	5269.42
968.85	5134.26
969.02	5240.75
969.18	5304.24
969.34	5253.04
969.51	5369.77
969.67	5345.20
969.83	4974.52
970.00	5216.18
970.16	5066.67
970.32	5074.87
970.48	5294.00
970.65	5050.29
970.81	4935.60
970.97	5097.39
971.14	5042.10
971.30	5173.17
971.46	5042.10
971.63	5093.30
971.79	5146.55
971.95	5003.19
972.11	4962.23
972.28	4956.08
972.44	5142.45
972.60	4997.04
972.76	4972.47
972.93	4865.97
973.09	4960.18
973.25	4927.41
973.42	4999.09
973.58	5042.10
973.74	5015.48
973.90	4939.70
974.07	4882.36
974.23	4997.04
974.39	4898.74
974.55	4900.79
974.72	4853.69
974.88	4841.40
975.04	5083.06
975.20	4806.58
975.37	4820.92
975.53	4818.87
975.69	4857.78
975.85	4736.95
976.01	4695.99
976.18	4667.32
976.34	4784.06
976.50	4786.10
976.66	4863.93
976.83	4714.42
976.99	4689.85
977.15	4718.52
977.31	4640.70
977.47	4835.25
977.64	4835.25
977.80	4753.34
977.96	4558.78
978.12	4577.21
978.29	4659.13
978.45	4485.05
978.61	4620.22
978.77	4657.08
978.93	4632.51
979.10	4569.02
979.26	4558.78
979.42	4566.97
979.58	4534.20
979.74	4493.24
979.91	4466.62
980.07	4489.15
980.23	4519.87
980.39	4577.21
980.55	4603.83
980.71	4286.40
980.88	4425.66
981.04	4431.80
981.20	4583.35
981.36	4480.96
981.52	4313.02
981.68	4425.66
981.85	4458.43
982.01	4450.24
982.17	4366.27
982.33	4446.14
982.49	4399.04
982.65	4388.80
982.82	4421.56
982.98	4356.03
983.14	4239.30
983.30	4329.41
983.46	4278.21
983.62	4319.17
983.79	4241.34
983.95	4364.22
984.11	4165.57
984.27	4374.46
984.43	4278.21
984.59	4138.94
984.75	4208.58
984.91	4315.07
985.08	4321.21
985.24	4124.61
985.40	3968.96
985.56	4255.68
985.72	4227.01
985.88	4157.38
986.04	4206.53
986.20	4171.71
986.37	4120.51
986.53	4032.45
986.69	4022.21
986.85	4097.99
987.01	4071.36
987.17	4132.80
987.33	4030.40
987.49	3938.24
987.65	4069.31
987.82	4014.02
987.98	3868.61
988.14	3944.39
988.30	4030.40
988.46	4048.83
988.62	3973.06
988.78	3995.59
988.94	3946.44
989.10	4014.02
989.26	3891.14
989.42	3956.68
989.59	3809.22
989.75	3940.29
989.91	3936.20
990.07	3846.09
990.23	3811.27
990.39	3811.27
990.55	3878.85
990.71	3780.55
990.87	3811.27
991.03	3995.59
991.19	3676.10
991.35	3755.97
991.51	3909.57
991.67	3870.66
991.83	3764.17
992.00	3725.26
992.16	3819.46
992.32	3768.26
992.48	3846.09
992.64	3592.14
992.80	3762.12
992.96	3661.77
993.12	3663.82
993.28	3743.69
993.44	3629.00
993.60	3784.65
993.76	3760.07
993.92	3590.09
994.08	3755.97
994.24	3610.57
994.40	3659.72
994.56	3612.62
994.72	3624.90
994.88	3530.70
995.04	3643.34
995.20	3585.99
995.36	3612.62
995.52	3514.31
995.68	3508.17
995.84	3579.85
996.00	3663.82
996.16	3561.42
996.32	3442.64
996.48	3590.09
996.64	3637.19
996.80	3559.37
996.96	3471.31
997.12	3495.88
997.28	3502.03
997.44	3442.64
997.60	3360.72
997.76	3493.83
997.92	3446.73
998.08	3373.00
998.24	3434.44
998.40	3426.25
998.56	3442.64
998.72	3332.05
998.88	3370.96
999.04	3465.16
999.20	3385.29
999.36	3323.85
999.52	3536.84
999.68	3299.28
999.84	3385.29
1000.00	3383.24
1000.16	3323.85
1000.32	3336.14
1000.48	3418.06
1000.64	3217.36
1000.80	3196.88
1000.95	3133.39
1001.11	3280.85
1001.27	3155.92
1001.43	3235.79
1001.59	3227.60
1001.75	3182.54
1001.91	3235.79
1002.07	3274.70
1002.23	3227.60
1002.39	3209.17
1002.55	3117.01
1002.71	3063.76
1002.87	3198.93
1003.03	3164.11
1003.19	2981.84
1003.34	3278.80
1003.50	3020.75
1003.66	3217.36
1003.82	3155.92
1003.98	3149.78
1004.14	2977.75
1004.30	2947.03
1004.46	3055.57
1004.62	3057.62
1004.78	3006.42
1004.94	3059.67
1005.09	3010.51
1005.25	3047.38
1005.41	3057.62
1005.57	2998.23
1005.73	3026.90
1005.89	2918.36
1006.05	3055.57
1006.21	3059.67
1006.37	2906.07
1006.52	2904.02
1006.68	2924.50
1006.84	3033.04
1007.00	2918.36
1007.16	3033.04
1007.32	2942.93
1007.48	2981.84
1007.64	2914.26
1007.79	2865.11
1007.95	2867.16
1008.11	2947.03
1008.27	2746.33
1008.43	2826.20
1008.59	2908.12
1008.75	2955.22
1008.91	2858.96
1009.06	2834.39
1009.22	2818.00
1009.38	2760.66
1009.54	2981.84
1009.70	2879.44
1009.86	2731.99
1010.01	2805.72
1010.17	2783.19
1010.33	2930.64
1010.49	2768.85
1010.65	2922.45
1010.81	2838.48
1010.96	2824.15
1011.12	2715.61
1011.28	2674.65
1011.44	2711.51
1011.60	2731.99
1011.76	2676.70
1011.91	2731.99
1012.07	2729.94
1012.23	2619.35
1012.39	2688.98
1012.55	2734.04
1012.71	2674.65
1012.86	2691.03
1013.02	2668.50
1013.18	2701.27
1013.34	2637.78
1013.50	2729.94
1013.65	2684.89
1013.81	2623.45
1013.97	2691.03
1014.13	2699.22
1014.29	2555.86
1014.44	2600.92
1014.60	2564.06
1014.76	2619.35
1014.92	2705.37
1015.07	2607.06
1015.23	2576.34
1015.39	2516.95
1015.55	2660.31
1015.71	2529.24
1015.86	2564.06
1016.02	2508.76
1016.18	2572.25
1016.34	2549.72
1016.49	2500.57
1016.65	2588.63
1016.81	2516.95
1016.97	2562.01
1017.12	2478.04
1017.28	2408.41
1017.44	2418.65
1017.60	2402.27
1017.75	2508.76
1017.91	2392.03
1018.07	2494.43
1018.23	2484.19
1018.38	2443.23
1018.54	2457.56
1018.70	2369.50
1018.86	2420.70
1019.01	2406.36
1019.17	2375.64
1019.33	2494.43
1019.49	2404.32
1019.64	2398.17
1019.80	2469.85
1019.96	2383.84
1020.12	2379.74
1020.27	2428.89
1020.43	2435.03
1020.59	2412.51
1020.74	2379.74
1020.90	2414.56
1021.06	2267.10
1021.22	2310.11
1021.37	2361.31
1021.53	2338.78
1021.69	2404.32
1021.84	2263.01
1022.00	2277.34
1022.16	2316.25
1022.31	2359.26
1022.47	2285.53
1022.63	2299.87
1022.79	2215.90
1022.94	2310.11
1023.10	2398.17
1023.26	2287.58
1023.41	2242.53
1023.57	2240.48
1023.73	2306.01
1023.88	2271.20
1024.04	2189.28
1024.20	2240.48
1024.35	2279.39
1024.51	2310.11
1024.67	2232.29
1024.82	2314.20
1024.98	2197.47
1025.14	2269.15
1025.29	2242.53
1025.45	2263.01
1025.61	2248.67
1025.76	2226.14
1025.92	2220.00
1026.08	2183.13
1026.23	2273.25
1026.39	2207.71
1026.55	2248.67
1026.70	2156.51
1026.86	2166.75
1027.02	2271.20
1027.17	2265.05
1027.33	2209.76
1027.48	2148.32
1027.64	2129.89
1027.80	2078.69
1027.95	2256.86
1028.11	2068.45
1028.27	2220.00
1028.42	2183.13
1028.58	2150.37
1028.73	2099.17
1028.89	2029.54
1029.05	2289.63
1029.20	2117.60
>>>>>End Processed Spectral Data<<<<<
