SpectraSuite Data File
++++++++++++++++++++++++++++++++++++
Date: Fri Jun 02 14:51:08 CEST 2017
User: INFO_000
Dark Spectrum Present: No
Reference Spectrum Present: No
Number of Sampled Component Spectra: 1
Spectrometers: USB4H00879
Integration Time (usec): 80000 (USB4H00879)
Spectra Averaged: 1 (USB4H00879)
Boxcar Smoothing: 0 (USB4H00879)
Correct for Electrical Dark: No (USB4H00879)
Strobe/Lamp Enabled: No (USB4H00879)
Correct for Detector Non-linearity: No (USB4H00879)
Correct for Stray Light: No (USB4H00879)
Number of Pixels in Processed Spectrum: 3648
>>>>>Begin Processed Spectral Data<<<<<
345.13	1255.40
345.34	1255.40
345.56	1255.40
345.78	1327.08
345.99	1228.78
346.21	1732.58
346.42	1669.09
346.64	1648.61
346.86	1722.34
347.07	1634.28
347.29	1693.67
347.50	1607.66
347.72	1675.24
347.94	1789.92
348.15	1572.84
348.37	1589.22
348.59	1718.25
348.80	1691.62
349.02	1773.54
349.23	1880.04
349.45	1720.29
349.67	1853.41
349.88	1800.16
350.10	1953.76
350.31	1798.12
350.53	1783.78
350.75	1972.19
350.96	1789.92
351.18	1900.52
351.39	1841.12
351.61	1787.88
351.82	1927.14
352.04	1943.52
352.26	1863.65
352.47	1898.47
352.69	1910.75
352.90	1822.69
353.12	1726.44
353.34	1818.60
353.55	1916.90
353.77	1863.65
353.98	1787.88
354.20	1902.56
354.41	1955.81
354.63	1890.28
354.85	1996.77
355.06	1943.52
355.28	1781.73
355.49	1859.56
355.71	1869.80
355.92	1796.07
356.14	1877.99
356.35	1843.17
356.57	1863.65
356.79	1892.32
357.00	1888.23
357.22	1980.39
357.43	1779.68
357.65	1978.34
357.86	1877.99
358.08	1931.23
358.29	1931.23
358.51	1941.47
358.72	1968.10
358.94	2009.06
359.16	1888.23
359.37	1941.47
359.59	1873.89
359.80	1947.62
360.02	1937.38
360.23	1974.24
360.45	1978.34
360.66	1902.56
360.88	1855.46
361.09	1941.47
361.31	1976.29
361.52	1923.04
361.74	2111.46
361.95	2017.25
362.17	1959.91
362.38	1996.77
362.60	2023.39
362.81	2002.91
363.03	1892.32
363.24	2011.11
363.46	1951.71
363.67	1998.82
363.89	2027.49
364.10	1964.00
364.32	1890.28
364.53	1998.82
364.75	1849.32
364.96	2007.01
365.18	2066.40
365.39	2023.39
365.61	1894.37
365.82	2101.22
366.04	2027.49
366.25	1884.13
366.47	1990.63
366.68	1978.34
366.90	1920.99
367.11	2113.50
367.33	2047.97
367.54	2052.06
367.76	1896.42
367.97	2136.03
368.19	2056.16
368.40	2066.40
368.62	1970.15
368.83	1990.63
369.05	1994.72
369.26	2002.91
369.48	1935.33
369.69	1998.82
369.91	2101.22
370.12	1994.72
370.33	2047.97
370.55	2019.30
370.76	1996.77
370.98	2133.98
371.19	1986.53
371.41	2029.54
371.62	1968.10
371.84	2082.78
372.05	2127.84
372.27	1998.82
372.48	2084.83
372.69	2070.50
372.91	2142.18
373.12	2117.60
373.34	2076.64
373.55	2168.80
373.77	2107.36
373.98	2097.12
374.20	2123.74
374.41	2209.76
374.62	2150.37
374.84	2166.75
375.05	2131.94
375.27	2201.57
375.48	2240.48
375.70	2129.89
375.91	2236.38
376.12	2250.72
376.34	2142.18
376.55	1996.77
376.77	2193.37
376.98	2097.12
377.19	2158.56
377.41	2234.33
377.62	2185.18
377.84	2217.95
378.05	2271.20
378.27	2207.71
378.48	2281.44
378.69	2371.55
378.91	2291.68
379.12	2217.95
379.34	2201.57
379.55	2297.82
379.76	2242.53
379.98	2256.86
380.19	2158.56
380.41	2195.42
380.62	2260.96
380.83	2230.24
381.05	2248.67
381.26	2324.44
381.47	2236.38
381.69	2236.38
381.90	2299.87
382.12	2273.25
382.33	2201.57
382.54	2224.09
382.76	2330.59
382.97	2295.77
383.19	2234.33
383.40	2322.40
383.61	2273.25
383.83	2314.20
384.04	2299.87
384.25	2346.97
384.47	2322.40
384.68	2355.16
384.89	2256.86
385.11	2220.00
385.32	2324.44
385.54	2287.58
385.75	2381.79
385.96	2334.68
386.18	2318.30
386.39	2406.36
386.60	2303.96
386.82	2365.40
387.03	2406.36
387.24	2473.95
387.46	2439.13
387.67	2437.08
387.88	2475.99
388.10	2367.45
388.31	2295.77
388.52	2535.39
388.74	2478.04
388.95	2406.36
389.16	2410.46
389.38	2422.75
389.59	2588.63
389.80	2553.82
390.02	2420.70
390.23	2594.78
390.44	2590.68
390.66	2437.08
390.87	2435.03
391.08	2580.44
391.30	2711.51
391.51	2527.19
391.72	2574.30
391.94	2645.98
392.15	2600.92
392.36	2592.73
392.58	2494.43
392.79	2586.58
393.00	2660.31
393.22	2684.89
393.43	2666.46
393.64	2707.41
393.85	2617.30
394.07	2613.21
394.28	2631.64
394.49	2691.03
394.71	2621.40
394.92	2779.09
395.13	2566.10
395.35	2766.81
395.56	2680.79
395.77	2686.94
395.98	2711.51
396.20	2787.29
396.41	2729.94
396.62	2820.05
396.84	2715.61
397.05	2721.75
397.26	2811.86
397.47	2893.78
397.69	2836.44
397.90	2930.64
398.11	2990.03
398.32	2861.01
398.54	2879.44
398.75	2801.62
398.96	2901.97
399.18	3035.09
399.39	2871.25
399.60	2965.46
399.81	2891.73
400.03	2932.69
400.24	3233.74
400.45	2963.41
400.66	2944.98
400.88	2932.69
401.09	3135.44
401.30	2928.60
401.51	3067.86
401.73	2977.75
401.94	3180.50
402.15	2885.59
402.36	2992.08
402.58	3057.62
402.79	3182.54
403.00	3172.30
403.21	3137.49
403.43	3024.85
403.64	3178.45
403.85	3035.09
404.06	3221.45
404.27	3078.10
404.49	3121.10
404.70	3151.82
404.91	3268.56
405.12	3168.21
405.34	3135.44
405.55	3313.61
405.76	3133.39
405.97	3080.14
406.19	3321.81
406.40	3100.62
406.61	3233.74
406.82	3391.44
407.03	3205.07
407.25	3246.03
407.46	3430.35
407.67	3446.73
407.88	3420.11
408.09	3327.95
408.31	3213.26
408.52	3278.80
408.73	3327.95
408.94	3280.85
409.15	3418.06
409.37	3325.90
409.58	3387.34
409.79	3393.48
410.00	3600.33
410.21	3340.24
410.43	3364.81
410.64	3284.94
410.85	3540.94
411.06	3487.69
411.27	3452.88
411.48	3499.98
411.70	3569.61
411.91	3450.83
412.12	3506.12
412.33	3583.95
412.54	3438.54
412.76	3585.99
412.97	3604.42
413.18	3399.63
413.39	3583.95
413.60	3618.76
413.81	3524.55
414.03	3516.36
414.24	3542.99
414.45	3721.16
414.66	3518.41
414.87	3655.62
415.08	3743.69
415.30	3604.42
415.51	3735.50
415.72	3796.93
415.93	3712.97
416.14	3663.82
416.35	3733.45
416.56	3741.64
416.78	3712.97
416.99	3678.15
417.20	3753.93
417.41	3837.89
417.62	3811.27
417.83	3854.28
418.04	3850.18
418.26	3792.84
418.47	3891.14
418.68	3880.90
418.89	3837.89
419.10	3975.11
419.31	3848.13
419.52	3928.00
419.73	3872.71
419.95	3889.09
420.16	3796.93
420.37	3874.76
420.58	3993.54
420.79	3766.21
421.00	3934.15
421.21	3975.11
421.42	3885.00
421.63	3946.44
421.85	3923.91
422.06	4011.97
422.27	4083.65
422.48	4097.99
422.69	4059.07
422.90	3995.59
423.11	4009.92
423.32	4186.05
423.53	4362.17
423.75	4124.61
423.96	4306.88
424.17	4161.47
424.38	4343.74
424.59	4184.00
424.80	4286.40
425.01	4278.21
425.22	4327.36
425.43	4333.50
425.64	4483.00
425.85	4452.28
426.06	4335.55
426.28	4327.36
426.49	4245.44
426.70	4341.69
426.91	4384.70
427.12	4487.10
427.33	4560.83
427.54	4390.84
427.75	4521.92
427.96	4673.46
428.17	4695.99
428.38	4691.90
428.59	4640.70
428.80	4546.49
429.01	4603.83
429.23	4603.83
429.44	4808.63
429.65	4755.38
429.86	4693.94
430.07	4675.51
430.28	4564.92
430.49	4831.16
430.70	4816.82
430.91	4786.10
431.12	4745.14
431.33	4982.71
431.54	5007.28
431.75	4978.61
431.96	4964.28
432.17	4923.32
432.38	4888.50
432.59	5046.20
432.80	5119.92
433.01	5009.33
433.22	4958.13
433.43	5048.24
433.64	5033.91
433.85	5052.34
434.06	5146.55
434.27	4904.89
434.49	5212.08
434.70	5146.55
434.91	5314.48
435.12	5306.29
435.33	5156.79
435.54	5234.61
435.75	5236.66
435.96	5300.14
436.17	5119.92
436.38	5332.91
436.59	5402.54
436.80	5367.73
437.01	5687.21
437.22	5482.41
437.43	5459.88
437.64	5427.12
437.85	5423.02
438.06	5607.34
438.27	5519.28
438.48	5609.39
438.69	5736.36
438.90	5541.80
439.11	5558.19
439.32	5697.45
439.53	5603.24
439.74	5642.15
439.95	5793.70
440.16	5660.59
440.37	5785.51
440.57	5609.39
440.78	5865.38
440.99	5799.85
441.20	5799.85
441.41	5797.80
441.62	5916.58
441.83	5636.01
442.04	5838.76
442.25	5986.21
442.46	5834.66
442.67	5994.40
442.88	6334.37
443.09	5922.73
443.30	5992.36
443.51	5930.92
443.72	6201.25
443.93	6100.90
444.14	6223.78
444.35	5959.59
444.56	6277.02
444.77	6248.35
444.98	6125.47
445.19	6178.72
445.40	6236.06
445.61	6344.61
445.81	6463.39
446.02	6305.70
446.23	6301.60
446.44	6043.56
446.65	6373.28
446.86	6348.70
447.07	6516.64
447.28	6537.12
447.49	6430.62
447.70	6414.24
447.91	6406.05
448.12	6492.06
448.33	6668.19
448.54	6717.34
448.74	6590.36
448.95	6719.39
449.16	6492.06
449.37	6789.02
449.58	6725.53
449.79	6793.11
450.00	6565.79
450.21	6715.29
450.42	7006.10
450.63	6920.09
450.84	6578.08
451.05	6836.12
451.25	6741.91
451.46	6696.86
451.67	6817.69
451.88	6989.72
452.09	7006.10
452.30	6997.91
452.51	6764.44
452.72	6983.57
452.93	7317.39
453.13	6846.36
453.34	7002.01
453.55	7057.30
453.76	6891.41
453.97	7514.00
454.18	7313.30
454.39	7262.10
454.60	7171.99
454.81	7180.18
455.01	7407.50
455.22	7176.08
455.43	7370.64
455.64	7489.42
455.85	7587.72
456.06	7743.37
456.27	7595.92
456.48	7481.23
456.68	7499.66
456.89	7683.98
457.10	7624.59
457.31	7792.52
457.52	7581.58
457.73	7548.81
457.94	8054.66
458.14	7718.79
458.35	8042.37
458.56	7874.44
458.77	7860.10
458.98	7950.21
459.19	8036.23
459.39	8048.52
459.60	8216.45
459.81	7970.69
460.02	8077.19
460.23	8261.51
460.44	8357.76
460.65	8322.94
460.85	8255.36
461.06	8357.76
461.27	8179.59
461.48	8507.26
461.69	8589.18
461.89	8265.60
462.10	8609.66
462.31	8308.61
462.52	8560.51
462.73	8449.92
462.94	8697.72
463.14	8617.85
463.35	8509.31
463.56	9029.49
463.77	9195.38
463.98	8728.44
464.18	8892.28
464.39	9017.21
464.60	9170.80
464.81	9105.27
465.02	9090.93
465.23	9195.38
465.43	9226.10
465.64	9385.84
465.85	9185.14
466.06	9158.52
466.27	9539.44
466.47	9701.23
466.68	9426.80
466.89	9391.98
467.10	9731.95
467.30	9363.31
467.51	9914.22
467.72	9924.46
467.93	9463.66
468.14	9731.95
468.34	9813.87
468.55	9998.18
468.76	10006.38
468.97	9756.52
469.17	10143.59
469.38	10094.44
469.59	10456.93
469.80	10194.79
470.01	10305.38
470.21	10334.05
470.42	10495.84
470.63	10690.40
470.84	10530.66
471.04	10676.06
471.25	10674.01
471.46	10696.54
471.67	11204.44
471.87	10780.51
472.08	11001.69
472.29	11130.71
472.50	11018.07
472.70	11032.41
472.91	11069.27
473.12	11296.60
473.33	11456.34
473.53	11566.93
473.74	11421.52
473.95	11724.62
474.16	11630.41
474.36	11894.60
474.57	11843.40
474.78	12111.69
474.99	11927.37
475.19	11900.75
475.40	12269.38
475.61	12410.69
475.81	12619.58
476.02	12408.64
476.23	12582.72
476.44	12547.90
476.64	12830.52
476.85	12764.99
477.06	12910.40
477.27	13033.27
477.47	12848.96
477.68	12928.83
477.89	13205.30
478.09	13193.01
478.30	13356.85
478.51	13420.34
478.71	13526.83
478.92	13559.60
479.13	13748.01
479.34	13858.60
479.54	13862.70
479.75	13862.70
479.96	14069.55
480.16	14249.77
480.37	13967.15
480.58	14366.50
480.78	14513.95
480.99	14583.59
481.20	14524.19
481.41	14671.65
481.61	14796.57
481.82	14839.58
482.03	14874.40
482.23	14851.87
482.44	15310.61
482.65	14964.51
482.85	15367.96
483.06	15392.53
483.27	15437.59
483.47	15417.11
483.68	15820.56
483.89	15808.27
484.09	15769.36
484.30	16047.88
484.51	16410.37
484.71	16029.45
484.92	16232.20
485.13	16598.79
485.33	16295.69
485.54	16183.05
485.75	16822.02
485.95	17012.48
486.16	17002.24
486.37	16955.13
486.57	16973.56
486.78	17059.58
486.98	17071.87
487.19	17362.68
487.40	17399.54
487.60	17485.56
487.81	17647.35
488.02	17397.49
488.22	17673.97
488.43	17792.75
488.64	17698.55
488.84	17772.27
489.05	18034.41
489.25	18007.79
489.46	18423.53
489.67	18163.43
489.87	18532.07
490.08	18554.60
490.29	18777.83
490.49	19033.82
490.70	18814.69
490.90	19082.97
491.11	18798.31
491.32	18960.09
491.52	19181.28
491.73	19295.96
491.94	19359.45
492.14	19341.02
492.35	19617.49
492.55	19674.84
492.76	19787.47
492.97	19814.10
493.17	19685.08
493.38	19961.55
493.58	19977.94
493.79	20129.48
494.00	20125.39
494.20	20147.92
494.41	20420.30
494.61	20524.74
494.82	20809.41
495.02	20608.71
495.23	20721.35
495.44	20750.02
495.64	20776.64
495.85	20799.17
496.05	21114.56
496.26	21159.61
496.47	21198.52
496.67	21298.88
496.88	21733.04
497.08	21108.41
497.29	21622.45
497.49	21526.20
497.70	21935.79
497.91	21599.93
498.11	22152.88
498.32	21950.13
498.52	21786.29
498.73	22322.86
498.93	22216.36
499.14	22322.86
499.34	22214.32
499.55	22658.73
499.76	22113.97
499.96	22406.83
500.17	22312.62
500.37	22675.11
500.58	22623.91
500.78	22705.83
500.99	23045.79
501.19	22754.98
501.40	22826.66
501.60	22838.95
501.81	23013.02
502.02	23002.78
502.22	22793.89
502.43	22943.39
502.63	23467.67
502.84	23285.40
503.04	23221.92
503.25	23598.74
503.45	23445.15
503.66	23522.97
503.86	23365.28
504.07	23967.38
504.27	23494.30
504.48	23963.28
504.68	23799.44
504.89	24096.40
505.09	23715.48
505.30	24065.68
505.50	24086.16
505.71	24163.98
505.91	24065.68
506.12	24149.65
506.32	24202.89
506.53	24237.71
506.73	24305.29
506.94	24170.13
507.14	24252.05
507.35	24503.95
507.55	24567.43
507.76	24446.60
507.96	24503.95
508.17	24510.09
508.37	24870.53
508.58	24886.92
508.78	24745.61
508.99	24876.68
509.19	25063.04
509.40	24848.00
509.60	24979.07
509.81	25136.77
510.01	25149.06
510.22	25013.89
510.42	25140.86
510.63	25351.81
510.83	25134.72
511.04	25243.26
511.24	25204.35
511.44	25360.00
511.65	25495.16
511.85	25568.89
512.06	26062.45
512.26	25394.81
512.47	25663.10
512.67	25464.44
512.88	25648.76
513.08	25839.22
513.29	25699.96
513.49	25771.64
513.69	25683.58
513.90	26138.23
514.10	25892.47
514.31	25962.10
514.51	26156.66
514.72	26087.03
514.92	26306.16
515.13	26068.59
515.33	26451.56
515.53	26271.34
515.74	26351.21
515.94	26080.88
516.15	26474.09
516.35	26160.75
516.56	26457.71
516.76	26414.70
516.96	26519.15
517.17	26662.51
517.37	26410.60
517.58	26371.69
517.78	26766.95
517.99	26889.83
518.19	26707.56
518.39	27233.89
518.60	27016.80
518.80	27063.91
519.01	27059.81
519.21	26949.22
519.41	27285.09
519.62	27229.79
519.82	27059.81
520.03	27373.15
520.23	27401.82
520.43	27563.61
520.64	27780.70
520.84	27809.37
521.05	27729.50
521.25	28030.55
521.45	27729.50
521.66	27874.90
521.86	27989.59
522.07	28171.86
522.27	27811.42
522.47	28034.64
522.68	28477.01
522.88	28016.21
523.08	28526.16
523.29	28380.75
523.49	28462.67
523.70	28464.72
523.90	28550.73
524.10	28810.82
524.31	29339.20
524.51	28802.63
524.71	28991.05
524.92	29040.20
525.12	29347.39
525.33	28886.60
525.53	29328.96
525.73	29439.55
525.94	29300.29
526.14	29423.17
526.34	29658.68
526.55	29517.37
526.75	29863.48
526.95	29922.87
527.16	29640.25
527.36	29857.34
527.56	30090.80
527.77	30463.54
527.97	30281.27
528.17	30248.50
528.38	30717.48
528.58	31000.10
528.78	30770.73
528.99	30506.54
529.19	30901.80
529.39	30537.26
529.60	31114.79
529.80	31147.56
530.00	30778.92
530.21	31256.10
530.41	31585.82
530.61	31370.79
530.82	31546.91
531.02	31518.24
531.22	31997.46
531.43	31727.13
531.63	31843.87
531.83	32198.16
532.04	32382.48
532.24	32106.01
532.44	32474.64
532.64	32517.65
532.85	32618.00
533.05	32658.96
533.25	32814.60
533.46	32642.57
533.66	33289.73
533.86	32675.34
534.07	33173.00
534.27	33005.06
534.47	33420.80
534.67	33287.68
534.88	33265.16
535.08	33334.79
535.28	33728.00
535.49	33566.21
535.69	34088.44
535.89	33967.61
536.09	34162.17
536.30	34491.89
536.50	34170.36
536.70	34235.89
536.91	34500.08
537.11	34500.08
537.31	34770.41
537.51	34864.62
537.72	35120.62
537.92	34985.45
538.12	35524.07
538.32	35120.62
538.53	35251.69
538.73	34964.97
538.93	35384.80
539.13	35374.56
539.34	35567.07
539.54	35368.42
539.74	35790.30
539.94	35593.70
540.15	35976.67
540.35	36050.39
540.55	35796.45
540.75	36038.11
540.96	36099.55
541.16	36543.95
541.36	36320.73
541.56	36382.16
541.77	36957.64
541.97	36466.13
542.17	36744.66
542.37	36974.03
542.58	37019.08
542.78	36922.83
542.98	36787.66
543.18	37164.49
543.38	37633.47
543.59	37338.57
543.79	37197.26
543.99	37373.38
544.19	37539.27
544.40	37473.73
544.60	37838.27
544.80	37483.97
545.00	37584.32
545.20	38041.02
545.41	37701.06
545.61	37967.29
545.81	38141.37
546.01	38448.57
546.21	37844.41
546.42	38286.78
546.62	38329.78
546.82	38348.21
547.02	38262.20
547.22	38417.85
547.43	38278.58
547.63	38856.11
547.83	38905.26
548.03	38303.16
548.23	38954.41
548.44	39108.01
548.64	39116.20
548.84	38966.70
549.04	39095.72
549.24	39222.70
549.45	39179.69
549.65	39085.48
549.85	39376.30
550.05	39626.15
550.25	39409.06
550.45	39935.39
550.66	39538.08
550.86	39591.33
551.06	39959.97
551.26	40070.56
551.46	39947.68
551.66	40246.68
551.87	39898.53
552.07	40277.40
552.27	39925.15
552.47	40312.22
552.67	40545.69
552.87	40170.91
553.07	40326.55
553.28	40770.96
553.48	40529.30
553.68	40443.29
553.88	41155.98
554.08	40568.21
554.28	40629.65
554.48	40471.96
554.69	40471.96
554.89	40306.07
555.09	40830.35
555.29	40682.90
555.49	40820.11
555.69	40611.22
555.89	40586.64
556.10	41051.53
556.30	40912.27
556.50	41155.98
556.70	41078.16
556.90	41256.33
557.10	41065.87
557.30	41102.73
557.50	41473.42
557.70	41528.71
557.91	41770.37
558.11	41215.37
558.31	41612.68
558.51	41524.61
558.71	41375.11
558.91	41837.95
559.11	41532.81
559.31	41422.22
559.51	41602.44
559.72	41270.67
559.92	41860.48
560.12	41692.55
560.32	41657.73
560.52	41696.64
560.72	41878.91
560.92	42042.75
561.12	41584.01
561.32	41792.90
561.52	41788.80
561.72	42319.23
561.93	41825.67
562.13	42204.54
562.33	41809.28
562.53	42302.84
562.73	42057.09
562.93	41878.91
563.13	42423.67
563.33	41952.64
563.53	42245.50
563.73	42171.77
563.93	41915.78
564.13	42395.00
564.33	42351.99
564.53	42204.54
564.74	42440.06
564.94	42059.13
565.14	42706.29
565.34	42206.59
565.54	42196.35
565.74	42544.50
565.94	42808.69
566.14	42556.79
566.34	42229.12
566.54	42890.61
566.74	42419.58
566.94	42376.57
567.14	42906.99
567.34	42696.05
567.54	43253.10
567.74	42270.08
567.94	42325.37
568.14	43185.52
568.34	42931.57
568.54	42763.64
568.74	42900.85
568.94	42749.30
569.14	43672.93
569.34	42984.82
569.54	42997.10
569.75	42454.39
569.95	43089.26
570.15	43472.23
570.35	43281.77
570.55	43083.12
570.75	43068.78
570.95	43193.71
571.15	43230.57
571.35	43021.68
571.55	43445.61
571.75	43412.84
571.95	43859.30
572.15	43138.41
572.35	43025.78
572.55	43312.49
572.75	43443.56
572.95	43287.92
573.15	43271.53
573.35	43261.29
573.55	43013.49
573.75	43269.48
573.95	43529.58
574.15	43646.31
574.35	43451.75
574.55	43357.55
574.75	43550.06
574.95	43722.08
575.15	43378.03
575.34	43836.77
575.54	43812.20
575.74	43959.65
575.94	43963.75
576.14	43879.78
576.34	43754.85
576.54	44184.93
576.74	44121.44
576.94	43814.24
577.14	44238.17
577.34	44676.44
577.54	43726.18
577.74	44268.89
577.94	43916.64
578.14	44303.71
578.34	44537.18
578.54	43697.51
578.74	44438.87
578.94	44424.54
579.14	44604.76
579.34	44469.59
579.54	44062.05
579.74	44752.21
579.94	44436.83
580.13	44877.14
580.33	44649.81
580.53	44827.99
580.73	44598.62
580.93	44864.85
581.13	44737.88
581.33	45364.56
581.53	45077.84
581.73	44928.34
581.93	45479.24
582.13	45004.11
582.33	45155.66
582.53	44760.40
582.73	45045.07
582.92	45229.39
583.12	45380.94
583.32	45102.42
583.52	45112.66
583.72	45344.08
583.92	45034.83
584.12	45540.68
584.32	45788.49
584.52	45657.42
584.72	45536.59
584.92	45813.06
585.11	45786.44
585.31	45833.54
585.51	46024.00
585.71	45849.92
585.91	46071.10
586.11	45819.20
586.31	46101.82
586.51	46062.91
586.71	45989.19
586.91	45999.43
587.10	46230.85
587.30	46533.95
587.50	46341.44
587.70	46179.65
587.90	46404.92
588.10	46255.42
588.30	46239.04
588.50	46503.23
588.69	46626.10
588.89	46486.84
589.09	46560.57
589.29	46695.74
589.49	46677.30
589.69	46507.32
589.89	47248.69
590.08	46814.52
590.28	46914.87
590.48	46648.63
590.68	46955.83
590.88	47043.89
591.08	47019.31
591.28	46771.51
591.47	47516.97
591.67	46880.05
591.87	47215.92
592.07	47355.18
592.27	46994.74
592.47	47056.18
592.67	47459.63
592.86	47062.32
593.06	47410.48
593.26	47858.98
593.46	47424.81
593.66	47215.92
593.86	47828.26
594.05	47559.98
594.25	47605.03
594.45	47936.80
594.65	48006.44
594.85	47555.88
595.05	48061.73
595.24	47998.24
595.44	47846.69
595.64	47934.76
595.84	48516.38
596.04	47955.24
596.23	48168.22
596.43	48821.53
596.63	48313.63
596.83	48315.68
597.03	49028.37
597.22	48729.37
597.42	48323.87
597.62	48495.90
597.82	48663.83
598.02	48583.96
598.21	48964.88
598.41	48620.83
598.61	48915.73
598.81	49276.18
599.01	49241.36
599.20	49061.14
599.40	49116.43
599.60	49427.73
599.80	49206.55
600.00	49323.28
600.19	49440.01
600.39	49284.37
600.59	49405.20
600.79	49476.88
600.98	49354.00
601.18	49900.81
601.38	50048.26
601.58	49986.82
601.78	49751.30
601.97	50156.80
602.17	50156.80
602.37	50095.36
602.57	50103.56
602.76	50511.10
602.96	50179.33
603.16	50547.96
603.36	50322.69
603.55	50869.50
603.75	50711.80
603.95	50844.92
604.15	51270.90
604.34	50468.09
604.54	50810.10
604.74	51066.10
604.94	50722.04
605.13	51074.29
605.33	51209.46
605.53	51197.17
605.73	51420.40
605.92	50945.27
606.12	51150.07
606.32	51700.97
606.52	51711.21
606.71	51186.93
606.91	51762.41
607.11	51606.76
607.30	52090.09
607.50	51438.83
607.70	51803.37
607.90	51401.97
608.09	51703.02
608.29	52079.85
608.49	52059.37
608.68	52143.33
608.88	52100.32
609.08	52475.10
609.28	52442.34
609.47	51993.83
609.67	52704.48
609.87	52241.63
610.06	52774.11
610.26	52096.23
610.46	52362.46
610.66	51942.63
610.85	52544.73
611.05	52499.68
611.25	52999.38
611.44	52528.35
611.64	52561.12
611.84	52706.52
612.03	52436.19
612.23	52899.03
612.43	52827.35
612.62	53183.70
612.82	53193.94
613.02	52899.03
613.21	52804.83
613.41	52827.35
613.61	53322.96
613.80	52706.52
614.00	52995.29
614.20	53220.56
614.39	52872.41
614.59	53368.02
614.79	53286.10
614.98	53130.45
615.18	53310.67
615.38	53560.53
615.57	52956.38
615.77	53308.63
615.97	53427.41
616.16	53288.15
616.36	53404.88
616.56	53380.31
616.75	53353.68
616.95	53245.14
617.15	53318.87
617.34	53411.02
617.54	53488.85
617.74	53857.48
617.93	53220.56
618.13	53282.00
618.32	53718.22
618.52	53126.36
618.72	53716.17
618.91	53597.39
619.11	52954.33
619.31	53507.28
619.50	53490.90
619.70	53087.45
619.90	53628.11
620.09	53892.30
620.29	53486.80
620.48	53896.39
620.68	54260.93
620.88	53333.20
621.07	53646.54
621.27	54041.80
621.46	53355.73
621.66	53939.40
621.86	53753.04
622.05	53294.29
622.25	54021.32
622.44	53720.27
622.64	53757.13
622.84	54002.89
623.03	53748.94
623.23	53664.97
623.42	53873.87
623.62	53716.17
623.82	53830.86
624.01	53433.55
624.21	54242.50
624.40	53877.96
624.60	53607.63
624.80	53525.71
624.99	54039.75
625.19	53781.71
625.38	53834.95
625.58	53796.04
625.77	53843.15
625.97	54142.15
626.17	53650.64
626.36	53816.52
626.56	53900.49
626.75	53411.02
626.95	54123.72
627.14	53386.45
627.34	54297.80
627.54	53849.29
627.73	53884.11
627.93	53955.78
628.12	53456.08
628.32	54017.22
628.51	53685.45
628.71	53841.10
628.90	53687.50
629.10	54164.68
629.30	53757.13
629.49	53966.02
629.69	54107.33
629.88	53615.82
630.08	54357.19
630.27	54226.12
630.47	53761.23
630.66	53570.77
630.86	53920.97
631.05	53740.75
631.25	54232.26
631.44	54127.81
631.64	53765.32
631.84	54338.75
632.03	54340.80
632.23	54076.61
632.42	54277.32
632.62	54238.40
632.81	53777.61
633.01	53875.91
633.20	54496.45
633.40	54035.66
633.59	54023.37
633.79	54084.81
633.98	54314.18
634.18	54072.52
634.37	54269.12
634.57	54222.02
634.76	54408.39
634.96	54338.75
635.15	54389.95
635.35	54275.27
635.54	53777.61
635.74	54301.89
635.93	53976.26
636.13	54095.05
636.32	54074.57
636.52	53818.57
636.71	54111.43
636.91	54269.12
637.10	53955.78
637.30	54367.43
637.49	53927.11
637.69	53957.83
637.88	54527.17
638.08	53785.80
638.27	54373.57
638.46	53976.26
638.66	54156.49
638.85	53966.02
639.05	54082.76
639.24	54633.66
639.44	53871.82
639.63	54338.75
639.83	54314.18
640.02	54256.84
640.22	54064.33
640.41	54492.35
640.61	53892.30
640.80	54387.91
640.99	54027.46
641.19	54215.88
641.38	54617.28
641.58	53963.98
641.77	54295.75
641.97	53773.52
642.16	54371.52
642.36	54035.66
642.55	54795.45
642.74	54117.57
642.94	54924.47
643.13	53863.63
643.33	54322.37
643.52	54242.50
643.72	54437.06
643.91	54146.25
644.10	54308.04
644.30	54547.65
644.49	53781.71
644.69	54193.35
644.88	54555.84
645.08	54197.44
645.27	53695.69
645.46	54006.98
645.66	54633.66
645.85	54648.00
646.05	54451.39
646.24	54215.88
646.43	54369.47
646.63	54809.79
646.82	54267.08
647.02	54291.65
647.21	54514.88
647.40	54226.12
647.60	54189.25
647.79	54867.13
647.99	54549.70
648.18	54244.55
648.37	54645.95
648.57	54463.68
648.76	54490.30
648.96	54000.84
649.15	54637.76
649.34	54482.11
649.54	54940.86
649.73	54189.25
649.92	54131.91
650.12	54392.00
650.31	54422.72
650.51	54467.78
650.70	54949.05
650.89	54525.12
651.09	55205.05
651.28	54439.11
651.47	54332.61
651.67	54582.46
651.86	54619.33
652.06	54156.49
652.25	54543.55
652.44	54164.68
652.64	53992.65
652.83	54287.56
653.02	54336.71
653.22	54338.75
653.41	54322.37
653.60	54164.68
653.80	54156.49
653.99	54604.99
654.18	54207.68
654.38	54443.20
654.57	54377.67
654.76	54189.25
654.96	54320.32
655.15	54002.89
655.34	53894.35
655.54	54230.21
655.73	54285.51
655.92	54183.11
656.12	54760.64
656.31	54371.52
656.50	54117.57
656.70	54383.81
656.89	54019.27
657.08	54660.29
657.28	54039.75
657.47	54498.50
657.66	54273.22
657.86	54189.25
658.05	54359.23
658.24	54432.96
658.43	53771.47
658.63	54133.96
658.82	54756.54
659.01	54572.22
659.21	54572.22
659.40	54289.60
659.59	54383.81
659.79	54613.18
659.98	54273.22
660.17	54648.00
660.36	54580.42
660.56	54289.60
660.75	54437.06
660.94	54129.86
661.14	54133.96
661.33	53818.57
661.52	53716.17
661.71	54072.52
661.91	53894.35
662.10	54146.25
662.29	53974.22
662.49	54299.84
662.68	54260.93
662.87	54279.36
663.06	54392.00
663.26	53849.29
663.45	54183.11
663.64	54174.92
663.83	54584.51
664.03	54465.73
664.22	54211.78
664.41	53937.35
664.60	54113.48
664.80	54097.09
664.99	54097.09
665.18	54138.05
665.37	54482.11
665.57	54213.83
665.76	54082.76
665.95	54338.75
666.14	54209.73
666.34	54265.03
666.53	53703.88
666.72	53771.47
666.91	53925.07
667.11	54105.29
667.30	54076.61
667.49	53673.16
667.68	53937.35
667.87	53703.88
668.07	54240.45
668.26	54449.35
668.45	54654.14
668.64	53492.94
668.84	54463.68
669.03	53933.26
669.22	53794.00
669.41	53839.05
669.60	54179.01
669.80	53759.18
669.99	54281.41
670.18	53460.18
670.37	53990.60
670.57	54201.54
670.76	53757.13
670.95	53918.92
671.14	53884.11
671.33	53470.42
671.53	54301.89
671.72	54099.14
671.91	53738.70
672.10	53986.50
672.29	53691.60
672.48	53632.21
672.68	54052.04
672.87	54207.68
673.06	53236.95
673.25	53806.28
673.44	53572.81
673.64	53499.09
673.83	53746.89
674.02	53939.40
674.21	53155.03
674.40	53564.62
674.59	53398.74
674.79	53056.73
674.98	53736.65
675.17	53408.98
675.36	53296.34
675.55	53794.00
675.74	53460.18
675.94	53239.00
676.13	53724.36
676.32	53757.13
676.51	53984.46
676.70	53822.67
676.89	53933.26
677.08	53544.14
677.28	53249.24
677.47	53482.70
677.66	54041.80
677.85	53482.70
678.04	53794.00
678.23	53712.08
678.42	53927.11
678.62	53771.47
678.81	54064.33
679.00	53253.33
679.19	54265.03
679.38	53587.15
679.57	53449.94
679.76	53288.15
679.96	53771.47
680.15	53830.86
680.34	53126.36
680.53	53435.60
680.72	53900.49
680.91	53845.19
681.10	53507.28
681.29	54107.33
681.48	53275.86
681.68	53548.24
681.87	53173.46
682.06	53671.12
682.25	53089.49
682.44	53486.80
682.63	53400.79
682.82	53155.03
683.01	53189.84
683.20	53001.43
683.39	53155.03
683.59	53179.60
683.78	52987.10
683.97	53048.53
684.16	53396.69
684.35	53239.00
684.54	53150.93
684.73	53736.65
684.92	53005.53
685.11	53179.60
685.30	52987.10
685.49	53619.92
685.69	53261.52
685.88	53093.59
686.07	53208.28
686.26	53261.52
686.45	53128.41
686.64	53255.38
686.83	52837.59
687.02	53648.59
687.21	53394.64
687.40	53017.82
687.59	53165.27
687.78	53134.55
687.97	52978.90
688.16	53216.47
688.35	53277.91
688.54	53109.97
688.74	52888.79
688.93	53040.34
689.12	52983.00
689.31	53212.37
689.50	53388.50
689.69	52884.70
689.88	52301.03
690.07	52311.27
690.26	52978.90
690.45	53402.83
690.64	53183.70
690.83	52892.89
691.02	52262.11
691.21	53222.61
691.40	52978.90
691.59	52698.33
691.78	52958.42
691.97	52931.80
692.16	53265.62
692.35	53343.44
692.54	53343.44
692.73	52905.18
692.92	52946.14
693.11	53083.35
693.30	52845.79
693.49	53191.89
693.68	53048.53
693.87	52608.22
694.06	52755.68
694.25	52618.46
694.44	52796.63
694.63	52663.52
694.82	52446.43
695.01	53066.97
695.20	52436.19
695.39	52743.39
695.58	53296.34
695.77	52264.16
695.96	52632.80
696.15	52831.45
696.34	52432.10
696.53	52260.07
696.72	52409.57
696.91	52665.56
697.10	53200.08
697.29	52710.62
697.48	53009.62
697.67	52614.37
697.86	52667.61
698.05	52348.13
698.24	52665.56
698.43	52520.16
698.62	52638.94
698.81	52157.67
699.00	52669.66
699.19	52004.07
699.38	52348.13
699.57	52309.22
699.76	52907.22
699.95	52153.57
700.14	52452.58
700.32	52362.46
700.51	52413.66
700.70	52831.45
700.89	52944.09
701.08	52290.79
701.27	52131.04
701.46	52860.12
701.65	51909.86
701.84	52341.99
702.03	52567.26
702.22	51786.99
702.41	52288.74
702.60	52298.98
702.79	52315.36
702.98	52059.37
703.17	52051.17
703.35	51899.62
703.54	51930.34
703.73	52384.99
703.92	51913.96
704.11	52129.00
704.30	51784.94
704.49	51631.34
704.68	52020.45
704.87	52012.26
705.06	51938.54
705.25	51901.67
705.43	51979.49
705.62	51999.97
705.81	51823.85
706.00	51688.68
706.19	51686.64
706.38	51430.64
706.57	52460.77
706.76	51789.03
706.95	52270.31
707.14	51799.27
707.32	51741.93
707.51	51723.50
707.70	51719.40
707.89	51819.75
708.08	51420.40
708.27	51832.04
708.46	52018.41
708.65	51537.13
708.84	52382.94
709.02	51731.69
709.21	51780.84
709.40	51647.72
709.59	51375.34
709.78	51205.36
709.97	51891.43
710.16	51287.28
710.34	51526.89
710.53	51574.00
710.72	51221.75
710.91	51678.44
711.10	51565.81
711.29	51666.16
711.48	50967.80
711.66	51655.92
711.85	51082.48
712.04	51123.44
712.23	51303.67
712.42	50975.99
712.61	51078.39
712.80	51152.12
712.98	51320.05
713.17	50912.50
713.36	51315.95
713.55	51373.30
713.74	51090.68
713.93	51082.48
714.11	51295.47
714.30	50691.32
714.49	51385.58
714.68	51231.99
714.87	51582.19
715.06	51201.27
715.24	50771.19
715.43	51049.72
715.62	50674.94
715.81	50672.89
716.00	51168.50
716.18	51182.84
716.37	50480.38
716.56	50353.41
716.75	51217.65
716.94	50928.89
717.12	50484.48
717.31	50906.36
717.50	50885.88
717.69	50521.34
717.88	50453.76
718.06	50646.27
718.25	50480.38
718.44	50091.27
718.63	50308.35
718.82	49960.20
719.00	50255.11
719.19	50236.67
719.38	50085.12
719.57	49954.05
719.76	49855.75
719.94	49669.39
720.13	49937.67
720.32	49734.92
720.51	49827.08
720.69	49984.77
720.88	49644.81
721.07	49812.74
721.26	49120.53
721.44	49753.35
721.63	49657.10
721.82	49446.16
722.01	49186.07
722.20	49853.70
722.38	49575.18
722.57	48764.18
722.76	49501.45
722.95	49009.94
723.13	48995.60
723.32	48987.41
723.51	48731.42
723.70	48776.47
723.88	49128.72
724.07	48866.58
724.26	48917.78
724.44	48602.39
724.63	49016.08
724.82	48891.16
725.01	48751.90
725.19	48837.91
725.38	48682.27
725.57	48536.86
725.76	48516.38
725.94	48579.87
726.13	48624.92
726.32	48528.67
726.51	48112.93
726.69	48282.91
726.88	48633.11
727.07	48346.40
727.25	48170.27
727.44	48493.85
727.63	48108.83
727.82	48018.72
728.00	48430.36
728.19	48309.53
728.38	48745.75
728.56	48035.11
728.75	48796.95
728.94	48010.53
729.12	48184.61
729.31	48774.42
729.50	48190.75
729.69	48426.27
729.87	48428.32
730.06	48035.11
730.25	48000.29
730.43	48196.90
730.62	47897.89
730.81	48117.03
730.99	48268.58
731.18	48039.20
731.37	48305.44
731.55	48563.48
731.74	48108.83
731.93	48340.25
732.11	48166.18
732.30	48272.67
732.49	47951.14
732.67	48137.51
732.86	47856.93
733.05	47934.76
733.23	47807.78
733.42	48098.59
733.61	47580.46
733.79	47877.41
733.98	48391.45
734.17	47883.56
734.35	48033.06
734.54	48258.34
734.73	48395.55
734.91	47924.52
735.10	47465.77
735.29	48157.99
735.47	47457.58
735.66	47840.55
735.84	47961.38
736.03	47564.07
736.22	47977.76
736.40	47691.05
736.59	47740.20
736.78	47611.18
736.96	47564.07
737.15	47328.56
737.33	47504.68
737.52	47287.60
737.71	47400.24
737.89	47058.23
738.08	47109.43
738.27	46976.31
738.45	47809.83
738.64	47453.48
738.82	47342.89
739.01	47568.17
739.20	47074.61
739.38	47439.15
739.57	47217.97
739.75	47621.42
739.94	47349.04
740.13	47428.91
740.31	46937.40
740.50	46814.52
740.68	47168.82
740.87	46884.15
741.06	46880.05
741.24	47015.22
741.43	46437.69
741.61	47142.19
741.80	46898.48
741.99	46359.87
742.17	46810.42
742.36	46669.11
742.54	46355.77
742.73	46675.26
742.91	46675.26
743.10	46822.71
743.29	46980.40
743.47	46511.42
743.66	46282.05
743.84	46591.29
744.03	46314.81
744.21	46277.95
744.40	46585.15
744.59	46443.84
744.77	46140.74
744.96	46251.33
745.14	46378.30
745.33	46462.27
745.51	46259.52
745.70	46015.81
745.88	45901.12
746.07	46261.57
746.26	46050.63
746.44	45770.05
746.63	45925.70
746.81	46075.20
747.00	45675.85
747.18	45937.99
747.37	46075.20
747.55	45743.43
747.74	46126.40
747.92	45671.75
748.11	45481.29
748.29	45595.98
748.48	45716.81
748.66	45589.83
748.85	45501.77
749.03	45323.60
749.22	45399.37
749.41	45086.03
749.59	45288.78
749.78	45253.97
749.96	44858.71
750.15	44877.14
750.33	45272.40
750.52	44916.05
750.70	44748.12
750.89	44692.82
751.07	44346.72
751.26	44926.29
751.44	44647.77
751.63	44926.29
751.81	44817.75
752.00	44721.49
752.18	45075.79
752.37	44889.43
752.55	44559.70
752.74	44191.07
752.92	44027.23
753.10	44156.25
753.29	44301.66
753.47	44651.86
753.66	44252.51
753.84	44410.20
754.03	43699.56
754.21	43947.36
754.40	44320.09
754.58	44168.54
754.77	43984.22
754.95	43963.75
755.14	43619.69
755.32	44070.24
755.51	43912.55
755.69	43818.34
755.88	43625.83
756.06	43967.84
756.24	43466.09
756.43	43394.41
756.61	43681.13
756.80	43439.47
756.98	43398.51
757.17	43349.35
757.35	43740.52
757.54	43416.94
757.72	43566.44
757.90	42978.67
758.09	43277.68
758.27	43189.61
758.46	43296.11
758.64	43140.46
758.83	42929.52
759.01	43165.04
759.19	43201.90
759.38	42749.30
759.56	43177.33
759.75	43187.56
759.93	42993.01
760.12	42714.48
760.30	42667.38
760.48	42554.74
760.67	42675.57
760.85	42515.83
761.04	42741.11
761.22	42331.51
761.40	42698.10
761.59	42395.00
761.77	42317.18
761.96	42245.50
762.14	42202.49
762.32	42417.53
762.51	41842.05
762.69	41964.93
762.88	41868.67
763.06	42177.92
763.24	41809.28
763.43	42392.95
763.61	42165.63
763.80	42022.27
763.98	42081.66
764.16	41835.91
764.35	41665.92
764.53	41536.90
764.72	41577.86
764.90	41747.84
765.08	41440.65
765.27	41938.30
765.45	41426.31
765.63	41135.50
765.82	41618.82
766.00	41346.44
766.18	41121.16
766.37	41319.82
766.55	40996.24
766.74	41051.53
766.92	41045.39
767.10	40928.66
767.29	41059.73
767.47	40592.79
767.65	41119.12
767.84	40654.23
768.02	40883.60
768.20	40523.16
768.39	40486.29
768.57	40574.36
768.75	40322.46
768.94	40768.91
769.12	40510.87
769.30	40344.98
769.49	40306.07
769.67	40224.15
769.85	40140.19
770.04	40015.26
770.22	39972.25
770.40	39798.18
770.59	39849.38
770.77	39902.62
770.95	39876.00
771.14	39617.96
771.32	39159.21
771.50	39353.77
771.69	39589.28
771.87	39525.80
772.05	39687.59
772.24	39273.90
772.42	39521.70
772.60	39210.41
772.78	39054.76
772.97	39189.93
773.15	39277.99
773.33	39019.95
773.52	39280.04
773.70	39181.74
773.88	39368.10
774.07	38882.73
774.25	38903.21
774.43	39243.18
774.61	39015.85
774.80	39232.94
774.98	38929.84
775.16	39134.63
775.34	39325.10
775.53	39146.92
775.71	39349.67
775.89	39359.91
776.08	39124.40
776.26	39048.62
776.44	39267.75
776.62	39202.22
776.81	39056.81
776.99	39441.83
777.17	39050.67
777.35	39296.42
777.54	39835.04
777.72	39331.24
777.90	39163.31
778.08	39361.96
778.27	39175.59
778.45	39574.95
778.63	39411.11
778.81	39310.76
779.00	39781.79
779.18	39548.32
779.36	39724.45
779.54	39159.21
779.73	39460.26
779.91	39312.81
780.09	39675.30
780.27	39490.98
780.46	39589.28
780.64	39605.67
780.82	39517.60
781.00	39601.57
781.19	39986.59
781.37	40027.55
781.55	39703.97
781.73	39947.68
781.91	39503.27
782.10	39589.28
782.28	40052.12
782.46	39525.80
782.64	39574.95
782.82	39499.17
783.01	39837.09
783.19	39792.03
783.37	39945.63
783.55	39781.79
783.74	40107.42
783.92	39347.62
784.10	40519.06
784.28	39968.16
784.46	39710.11
784.64	39456.17
784.83	39912.86
785.01	40158.62
785.19	39744.93
785.37	39744.93
785.55	39845.28
785.74	39495.08
785.92	39679.39
786.10	39579.04
786.28	39910.82
786.46	39329.19
786.64	39566.76
786.83	39540.13
787.01	39372.20
787.19	39464.36
787.37	39450.02
787.55	39384.49
787.74	39339.43
787.92	39337.38
788.10	39022.00
788.28	38974.89
788.46	38942.13
788.64	39015.85
788.82	39300.52
789.01	39052.72
789.19	39185.83
789.37	39261.61
789.55	39177.64
789.73	38491.57
789.91	38729.14
790.09	38849.97
790.28	38473.14
790.46	38399.41
790.64	38618.55
790.82	38483.38
791.00	38284.73
791.18	38100.41
791.36	38159.80
791.55	38385.08
791.73	38120.89
791.91	37868.99
792.09	38079.93
792.27	37801.41
792.45	37983.68
792.63	37866.94
792.81	37268.94
793.00	37785.02
793.18	37811.65
793.36	37709.25
793.54	36939.21
793.72	37219.78
793.90	37246.41
794.08	37443.01
794.26	37262.79
794.44	37051.85
794.62	36722.13
794.81	37342.66
794.99	36605.39
795.17	37037.51
795.35	36701.65
795.53	36838.86
795.71	37125.58
795.89	36326.87
796.07	36261.33
796.25	36199.90
796.43	36017.63
796.61	36019.67
796.80	35960.28
796.98	36382.16
797.16	35653.09
797.34	36070.87
797.52	35909.08
797.70	36132.31
797.88	35872.22
798.06	35433.96
798.24	35710.43
798.42	35335.65
798.60	35390.95
798.78	35270.12
798.96	35419.62
799.14	35079.66
799.32	35120.62
799.51	34989.55
799.69	35149.29
799.87	34842.09
800.05	34817.52
800.23	34600.43
800.41	34661.87
800.59	34457.07
800.77	34758.13
800.95	34518.51
801.13	34477.55
801.31	34223.61
801.49	34596.34
801.67	34373.11
801.85	34104.82
802.03	33828.35
802.21	34014.71
802.39	33889.79
802.57	33857.02
802.75	33519.10
802.93	33678.85
803.11	33541.63
803.29	33674.75
803.47	33596.93
803.65	33893.88
803.83	33598.98
804.01	33187.33
804.19	33041.93
804.37	32976.39
804.55	32939.53
804.73	32935.43
804.91	33084.94
805.09	32579.09
805.27	32822.80
805.45	32861.71
805.63	33011.21
805.81	32552.46
805.99	32679.44
806.17	32669.20
806.35	32544.27
806.53	32413.20
806.71	32540.18
806.89	31917.59
807.07	32441.87
807.25	32439.82
807.43	32222.74
807.61	32790.03
807.79	32114.20
807.97	31825.43
808.15	32019.99
808.33	31561.25
808.51	31438.37
808.69	31743.52
808.87	31174.18
809.05	31618.59
809.23	31536.67
809.41	31022.63
809.59	31047.21
809.77	31241.76
809.95	31239.72
810.13	31219.24
810.31	31454.75
810.49	31274.53
810.67	31477.28
810.84	30885.42
811.02	30989.86
811.20	30725.68
811.38	31082.02
811.56	30602.80
811.74	30621.23
811.92	30617.13
812.10	30602.80
812.28	30889.51
812.46	30658.09
812.64	30484.01
812.82	30506.54
813.00	30420.53
813.18	30385.71
813.36	30139.96
813.53	30152.24
813.71	30187.06
813.89	30244.40
814.07	29969.97
814.25	30152.24
814.43	29906.49
814.61	29738.55
814.79	29996.60
814.97	29935.16
815.15	30080.56
815.33	29726.27
815.50	29670.97
815.68	29685.31
815.86	29648.44
816.04	29408.83
816.22	29388.35
816.40	29386.30
816.58	29052.48
816.76	28995.14
816.94	29318.72
817.11	29156.93
817.29	29232.71
817.47	28952.13
817.65	28755.53
817.83	29267.52
818.01	29038.15
818.19	28894.79
818.37	28941.89
818.54	28778.06
818.72	28679.75
818.90	28917.32
819.08	28649.03
819.26	28429.90
819.44	28585.55
819.62	28532.30
819.80	28712.52
819.97	28378.70
820.15	28323.41
820.33	28300.88
820.51	28304.98
820.69	27987.54
820.87	28382.80
821.05	28608.08
821.22	28335.70
821.40	28419.66
821.58	28098.13
821.76	28145.23
821.94	27995.73
822.12	28223.06
822.29	28204.63
822.47	27659.87
822.65	28264.02
822.83	27897.43
823.01	28149.33
823.19	27774.55
823.36	27747.93
823.54	27739.74
823.72	27670.11
823.90	27518.56
824.08	27498.08
824.25	27745.88
824.43	27428.45
824.61	27588.19
824.79	27446.88
824.97	27508.32
825.15	27553.37
825.32	27491.93
825.50	27057.76
825.68	27172.45
825.86	27440.73
826.04	27633.24
826.21	27430.49
826.39	27268.70
826.57	27166.31
826.75	27172.45
826.93	26984.04
827.10	27328.10
827.28	27174.50
827.46	27205.22
827.64	26756.71
827.81	26543.72
827.99	26926.69
828.17	26560.11
828.35	26666.60
828.53	26228.34
828.70	26986.08
828.88	26644.07
829.06	26805.86
829.24	27037.28
829.41	26510.96
829.59	26764.90
829.77	26345.07
829.95	26467.95
830.12	26523.24
830.30	26689.13
830.48	26214.00
830.66	26297.97
830.84	26238.58
831.01	26527.34
831.19	26457.71
831.37	26203.76
831.55	26082.93
831.72	26168.94
831.90	26316.40
832.08	26441.32
832.25	26308.21
832.43	26236.53
832.61	26048.11
832.79	25945.72
832.96	26009.20
833.14	25859.70
833.32	26035.83
833.50	25978.48
833.67	26044.02
833.85	25839.22
834.03	25673.34
834.20	25863.80
834.38	25710.20
834.56	25714.30
834.74	25800.31
834.91	25962.10
835.09	26023.54
835.27	25360.00
835.44	25497.21
835.62	25122.43
835.80	25392.76
835.98	25464.44
836.15	25394.81
836.33	25269.89
836.51	25503.35
836.68	25128.58
836.86	25468.54
837.04	25462.40
837.21	25306.75
837.39	25128.58
837.57	25450.11
837.75	25675.38
837.92	25269.89
838.10	25020.03
838.28	24901.25
838.45	25323.13
838.63	24788.61
838.81	25095.81
838.98	24741.51
839.16	24870.53
839.34	24989.31
839.51	25179.78
839.69	24536.71
839.87	24589.96
840.04	24444.56
840.22	24546.95
840.40	24995.46
840.57	24583.82
840.75	24737.41
840.93	24512.14
841.10	24571.53
841.28	24901.25
841.46	24546.95
841.63	24684.17
841.81	24370.83
841.98	24499.85
842.16	24581.77
842.34	24137.36
842.51	24311.44
842.69	24661.64
842.87	24358.54
843.04	24495.75
843.22	24096.40
843.40	24139.41
843.57	24303.25
843.75	24325.77
843.92	24213.13
844.10	24393.36
844.28	24077.97
844.45	24303.25
844.63	24307.34
844.81	24123.02
844.98	24217.23
845.16	23858.84
845.33	24080.02
845.51	23998.10
845.69	24151.70
845.86	23826.07
846.04	23625.37
846.21	23871.12
846.39	23783.06
846.57	23608.98
846.74	23793.30
846.92	23772.82
847.09	23793.30
847.27	23219.87
847.45	23740.05
847.62	23889.56
847.80	23639.70
847.97	23342.75
848.15	23727.77
848.32	23402.14
848.50	23533.21
848.68	23150.24
848.85	23512.73
849.03	23178.91
849.20	23543.45
849.38	23340.70
849.56	23045.79
849.73	23107.23
849.91	23121.57
850.08	23275.16
850.26	23076.51
850.43	23352.99
850.61	23000.74
850.78	22902.43
850.96	23047.84
851.14	22947.49
851.31	23017.12
851.49	22816.42
851.66	23060.13
851.84	23307.93
852.01	23029.41
852.19	22779.56
852.36	22675.11
852.54	22652.58
852.71	23002.78
852.89	22886.05
853.07	22853.28
853.24	22804.13
853.42	22687.40
853.59	22699.69
853.77	22752.93
853.94	22617.77
854.12	22845.09
854.29	22535.85
854.47	22654.63
854.64	22711.97
854.82	22474.41
854.99	22724.26
855.17	22501.03
855.34	22242.99
855.52	22671.01
855.69	22814.37
855.87	22320.81
856.04	22103.73
856.22	22429.35
856.39	22136.49
856.57	22173.36
856.74	22171.31
856.92	22281.90
857.09	21993.14
857.27	22294.19
857.44	22085.30
857.62	22255.28
857.79	22263.47
857.97	22251.18
858.14	22208.17
858.32	21847.73
858.49	21978.80
858.67	21845.68
858.84	21937.84
859.02	21731.00
859.19	21984.94
859.37	21837.49
859.54	21706.42
859.72	21880.50
859.89	21907.12
860.06	21917.36
860.24	21327.55
860.41	21821.11
860.59	21622.45
860.76	21851.83
860.94	21460.66
861.11	21853.87
861.29	21630.65
861.46	21698.23
861.64	21382.84
861.81	21401.27
861.98	21302.97
862.16	21419.71
862.33	21333.69
862.51	21434.04
862.68	21259.96
862.86	21044.93
863.03	21237.44
863.21	21161.66
863.38	21147.33
863.55	21245.63
863.73	21051.07
863.90	21094.08
864.08	21104.32
864.25	21020.35
864.43	20977.34
864.60	21176.00
864.77	20930.24
864.95	21122.75
865.12	20811.46
865.30	20698.82
865.47	20627.14
865.64	20891.33
865.82	20842.18
865.99	20795.07
866.17	20664.00
866.34	20717.25
866.51	20684.48
866.69	20635.33
866.86	20496.07
867.04	20571.85
867.21	20498.12
867.38	20395.72
867.56	20373.19
867.73	20358.86
867.91	20213.45
868.08	20362.95
868.25	20178.64
868.43	20260.55
868.60	20293.32
868.78	20252.36
868.95	20401.86
869.12	20303.56
869.30	20313.80
869.47	19906.26
869.64	20109.01
869.82	19914.45
869.99	19934.93
870.16	20260.55
870.34	20006.61
870.51	20049.61
870.69	19850.96
870.86	20037.33
871.03	19982.03
871.21	19521.24
871.38	19795.67
871.55	19592.92
871.73	19752.66
871.90	19564.25
872.07	19781.33
872.25	19314.39
872.42	19328.73
872.59	19488.47
872.77	19406.55
872.94	19556.05
873.11	19513.05
873.29	19498.71
873.46	19310.30
873.63	19185.37
873.81	19125.98
873.98	18980.57
874.15	19123.93
874.33	19273.43
874.50	18675.43
874.67	18894.56
874.85	19115.74
875.02	18845.41
875.19	18765.54
875.37	18638.56
875.54	18581.22
875.71	18845.41
875.88	18798.31
876.06	18732.77
876.23	18509.54
876.40	18466.53
876.58	18437.86
876.75	18446.05
876.92	18509.54
877.10	18503.40
877.27	18310.89
877.44	18398.95
877.61	18097.90
877.79	18267.88
877.96	18271.98
878.13	18249.45
878.31	18097.90
878.48	18001.65
878.65	18245.35
878.82	18030.32
879.00	18036.46
879.17	18032.36
879.34	18136.81
879.51	17979.12
879.69	17620.72
879.86	17927.92
880.03	18005.74
880.21	17501.94
880.38	17594.10
880.55	17968.88
880.72	17424.12
880.90	17534.71
881.07	17551.09
881.24	17524.47
881.41	17305.34
881.59	17587.96
881.76	17569.52
881.93	17633.01
882.10	17346.30
882.28	17161.98
882.45	17495.80
882.62	17538.80
882.79	17506.04
882.96	16987.90
883.14	17516.28
883.31	17377.01
883.48	17256.18
883.65	17346.30
883.83	17266.42
884.00	17297.14
884.17	17239.80
884.34	17379.06
884.51	16914.17
884.69	17114.87
884.86	17022.72
885.03	17047.29
885.20	16740.10
885.38	17057.53
885.55	16881.41
885.72	16893.69
885.89	16727.81
886.06	16887.55
886.24	16680.71
886.41	16787.20
886.58	17092.35
886.75	17204.99
886.92	16916.22
887.10	16641.79
887.27	16609.03
887.44	16449.28
887.61	16916.22
887.78	16797.44
887.95	16744.19
888.13	16383.75
888.30	16330.50
888.47	16381.70
888.64	16271.11
888.81	16471.81
888.99	16484.10
889.16	16275.21
889.33	16250.63
889.50	16199.43
889.67	16398.09
889.84	16398.09
890.01	16064.27
890.19	16047.88
890.36	16137.99
890.53	16160.52
890.70	16082.70
890.87	16097.03
891.04	15929.10
891.22	15931.15
891.39	16037.64
891.56	15986.44
891.73	15879.95
891.90	15931.15
892.07	15619.86
892.24	15773.46
892.42	15851.28
892.59	15716.11
892.76	15812.37
892.93	15724.30
893.10	15816.46
893.27	15638.29
893.44	15810.32
893.61	15630.10
893.79	15820.56
893.96	15675.15
894.13	15730.45
894.30	15744.78
894.47	15666.96
894.64	15752.98
894.81	15388.44
894.98	15484.69
895.15	15451.92
895.33	15318.81
895.50	15343.38
895.67	15648.53
895.84	15333.14
896.01	15626.00
896.18	15404.82
896.35	15378.20
896.52	15509.27
896.69	15415.06
896.86	15353.62
897.04	15378.20
897.21	15460.12
897.38	15410.96
897.55	15228.70
897.72	15544.08
897.89	15394.58
898.06	15404.82
898.23	15331.09
898.40	15574.80
898.57	15314.71
898.74	15419.16
898.91	15111.96
899.08	15304.47
899.26	15128.35
899.43	15304.47
899.60	15216.41
899.77	15236.89
899.94	15228.70
900.11	15228.70
900.28	15191.83
900.45	15056.67
900.62	15009.56
900.79	15306.52
900.96	15224.60
901.13	15413.01
901.30	15271.70
901.47	15052.57
901.64	15226.65
901.81	15267.61
901.98	15265.56
902.15	15417.11
902.32	14989.08
902.49	15042.33
902.66	15191.83
902.83	15175.45
903.01	15232.79
903.18	15214.36
903.35	15216.41
903.52	14944.03
903.69	15204.12
903.86	15077.15
904.03	15068.95
904.20	15195.93
904.37	15394.58
904.54	15218.46
904.71	15161.11
904.88	15456.02
905.05	14913.31
905.22	15212.31
905.39	14950.17
905.56	14874.40
905.73	15030.04
905.90	15062.81
906.07	15030.04
906.24	14950.17
906.41	15138.58
906.58	15027.99
906.75	15218.46
906.92	14898.97
907.09	14886.68
907.26	15114.01
907.43	15046.43
907.60	14882.59
907.77	15030.04
907.93	14833.44
908.10	14782.24
908.27	15073.05
908.44	14812.96
908.61	14765.85
908.78	14933.79
908.95	14835.49
909.12	14708.51
909.29	14702.37
909.46	14851.87
909.63	14935.84
909.80	14870.30
909.97	15060.76
910.14	14784.29
910.31	14956.32
910.48	15011.61
910.65	14798.62
910.82	14661.41
910.99	14718.75
911.16	14640.93
911.33	14753.57
911.50	14606.11
911.66	14571.30
911.83	14733.09
912.00	14536.48
912.17	14352.16
912.34	14464.80
912.51	14384.93
912.68	14405.41
912.85	14671.65
913.02	14577.44
913.19	14337.83
913.36	14262.05
913.53	14391.08
913.70	14149.42
913.86	14278.44
914.03	14241.57
914.20	14178.09
914.37	14083.88
914.54	14196.52
914.71	14339.88
914.88	14214.95
915.05	13961.00
915.22	14085.93
915.39	14188.33
915.55	14151.46
915.72	13805.36
915.89	13987.63
916.06	13827.88
916.23	14065.45
916.40	13778.73
916.57	13657.90
916.74	13762.35
916.91	13741.87
917.07	13666.10
917.24	13551.41
917.41	13651.76
917.58	13553.46
917.75	13582.13
917.92	13334.32
918.09	13504.31
918.26	13352.76
918.42	13375.28
918.59	13229.88
918.76	13408.05
918.93	13098.81
919.10	13160.25
919.27	13051.70
919.44	13129.53
919.60	13313.84
919.77	13190.97
919.94	13082.42
920.11	13094.71
920.28	13135.67
920.45	12922.68
920.61	12889.92
920.78	12853.05
920.95	12672.83
921.12	12775.23
921.29	12703.55
921.46	12474.18
921.62	12660.54
921.79	12601.15
921.96	12341.06
922.13	12523.33
922.30	12439.36
922.47	12441.41
922.63	12554.05
922.80	12326.72
922.97	11988.81
923.14	12160.84
923.31	12164.93
923.47	12021.58
923.64	12226.37
923.81	11997.00
923.98	11851.60
924.15	12050.25
924.32	11892.55
924.48	11853.64
924.65	12019.53
924.82	11659.09
924.99	11554.64
925.15	11595.60
925.32	11773.77
925.49	11437.91
925.66	11525.97
925.83	11571.02
925.99	11454.29
926.16	11636.56
926.33	11485.01
926.50	11110.23
926.67	11341.65
926.83	11132.76
927.00	11136.85
927.17	11243.35
927.34	10973.02
927.50	11077.46
927.67	11087.70
927.84	11018.07
928.01	10895.19
928.17	10721.12
928.34	10868.57
928.51	10592.09
928.68	10551.14
928.84	10798.94
929.01	10614.62
929.18	10512.22
929.35	10391.39
929.51	10499.94
929.68	10245.99
929.85	10323.81
930.02	10299.23
930.18	10372.96
930.35	10293.09
930.52	10291.04
930.69	10342.24
930.85	10039.14
931.02	9885.55
931.19	9846.63
931.36	10080.10
931.52	10153.83
931.69	9965.42
931.86	9879.40
932.02	9969.51
932.19	9766.76
932.36	9807.72
932.53	9680.75
932.69	9506.67
932.86	9609.07
933.03	9631.60
933.19	9469.81
933.36	9408.37
933.53	9342.83
933.70	9527.15
933.86	9314.16
934.03	9277.30
934.20	9193.33
934.36	9344.88
934.53	8951.67
934.70	9035.64
934.86	9179.00
935.03	9060.21
935.20	8703.87
935.36	8918.90
935.53	8603.52
935.70	8705.92
935.86	8503.17
936.03	8675.20
936.20	8380.29
936.36	8345.47
936.53	8335.23
936.70	8337.28
936.86	8425.34
937.03	8382.34
937.20	7776.14
937.36	8140.68
937.53	7743.37
937.70	7843.72
937.86	7571.34
938.03	7544.72
938.20	7720.84
938.36	7395.22
938.53	7423.89
938.70	7186.32
938.86	7325.58
939.03	7094.16
939.20	7112.60
939.36	7155.60
939.53	7071.64
939.70	7126.93
939.86	6801.30
940.03	6895.51
940.19	6600.60
940.36	6680.47
940.53	6637.47
940.69	6492.06
940.86	6555.55
941.03	6342.56
941.19	6244.26
941.36	6166.43
941.52	6252.45
941.69	6186.91
941.86	5959.59
942.02	6000.55
942.19	6037.41
942.35	5869.48
942.52	5812.14
942.69	5867.43
942.85	5781.42
943.02	5717.93
943.18	5754.79
943.35	5738.41
943.52	5683.11
943.68	5513.13
943.85	5586.86
944.01	5515.18
944.18	5425.07
944.35	5531.56
944.51	5449.64
944.68	5283.76
944.84	5322.67
945.01	5250.99
945.17	5197.74
945.34	5345.20
945.51	5429.17
945.67	5343.15
945.84	5312.43
946.00	5222.32
946.17	5181.36
946.33	5113.78
946.50	5250.99
946.67	5193.65
946.83	5060.53
947.00	5150.64
947.16	5025.72
947.33	5158.83
947.49	5134.26
947.66	5023.67
947.82	5261.23
947.99	5171.12
948.16	5197.74
948.32	5203.89
948.49	5152.69
948.65	5097.39
948.82	5119.92
948.98	5097.39
949.15	4999.09
949.31	5232.56
949.48	5119.92
949.64	5152.69
949.81	5222.32
949.97	5095.35
950.14	5148.59
950.30	5105.59
950.47	5074.87
950.63	5050.29
950.80	5197.74
950.96	5191.60
951.13	5003.19
951.30	5033.91
951.46	5162.93
951.63	5386.16
951.79	5156.79
951.96	5257.14
952.12	5212.08
952.29	5152.69
952.45	5171.12
952.62	5212.08
952.78	5265.33
952.94	5005.24
953.11	5107.63
953.27	5121.97
953.44	5328.81
953.60	5185.46
953.77	5222.32
953.93	5287.86
954.10	5222.32
954.26	5343.15
954.43	5271.47
954.59	5302.19
954.76	5377.97
954.92	5324.72
955.09	5367.73
955.25	5152.69
955.42	5146.55
955.58	5392.30
955.75	5324.72
955.91	5234.61
956.07	5339.05
956.24	5377.97
956.40	5441.45
956.57	5308.34
956.73	5203.89
956.90	5310.38
957.06	5250.99
957.23	5189.55
957.39	5367.73
957.56	5328.81
957.72	5162.93
957.88	5210.03
958.05	5396.40
958.21	5398.45
958.38	5353.39
958.54	5314.48
958.71	5318.57
958.87	5283.76
959.03	5273.52
959.20	5246.90
959.36	5253.04
959.53	5250.99
959.69	5179.31
959.85	5371.82
960.02	5195.70
960.18	5349.29
960.35	5060.53
960.51	5314.48
960.68	5193.65
960.84	5164.98
961.00	5316.53
961.17	5164.98
961.33	5361.58
961.50	5273.52
961.66	5255.09
961.82	5121.97
961.99	5224.37
962.15	5103.54
962.31	5326.77
962.48	5267.38
962.64	5312.43
962.81	5109.68
962.97	5275.57
963.13	5404.59
963.30	5238.70
963.46	5236.66
963.62	5111.73
963.79	5226.42
963.95	5337.01
964.12	5154.74
964.28	5316.53
964.44	5083.06
964.61	5158.83
964.77	5199.79
964.93	5171.12
965.10	5224.37
965.26	5160.88
965.42	5121.97
965.59	5126.07
965.75	5003.19
965.92	5124.02
966.08	5228.46
966.24	5173.17
966.41	5119.92
966.57	5109.68
966.73	5128.11
966.90	5218.22
967.06	4992.95
967.22	5009.33
967.39	5212.08
967.55	5054.39
967.71	5089.20
967.88	5093.30
968.04	4951.99
968.20	4941.75
968.37	5113.78
968.53	4990.90
968.69	4941.75
968.85	5062.58
969.02	5085.11
969.18	5040.05
969.34	5050.29
969.51	5021.62
969.67	4923.32
969.83	4841.40
970.00	4943.80
970.16	5035.96
970.32	4995.00
970.48	5007.28
970.65	4876.21
970.81	4820.92
970.97	4863.93
971.14	4706.23
971.30	4917.17
971.46	4947.89
971.63	4863.93
971.79	4917.17
971.95	4865.97
972.11	4790.20
972.28	4790.20
972.44	4804.53
972.60	4691.90
972.76	4845.49
972.93	4648.89
973.09	4782.01
973.25	4837.30
973.42	4673.46
973.58	4777.91
973.74	4753.34
973.90	4677.56
974.07	4732.86
974.23	4579.26
974.39	4818.87
974.55	4779.96
974.72	4706.23
974.88	4634.55
975.04	4634.55
975.20	4601.79
975.37	4755.38
975.53	4550.59
975.69	4636.60
975.85	4569.02
976.01	4597.69
976.18	4652.98
976.34	4501.44
976.50	4569.02
976.66	4566.97
976.83	4542.39
976.99	4558.78
977.15	4612.03
977.31	4390.84
977.47	4550.59
977.64	4593.59
977.80	4503.48
977.96	4431.80
978.12	4442.04
978.29	4489.15
978.45	4353.98
978.61	4384.70
978.77	4444.09
978.93	4458.43
979.10	4442.04
979.26	4405.18
979.42	4472.76
979.58	4337.60
979.74	4378.56
979.91	4341.69
980.07	4331.45
980.23	4308.93
980.39	4396.99
980.55	4411.32
980.71	4364.22
980.88	4310.97
981.04	4468.67
981.20	4310.97
981.36	4396.99
981.52	4263.87
981.68	4315.07
981.85	4304.83
982.01	4341.69
982.17	4186.05
982.33	4261.82
982.49	4251.58
982.65	4265.92
982.82	4243.39
982.98	4171.71
983.14	4120.51
983.30	4130.75
983.46	4247.49
983.62	4079.55
983.79	4036.55
983.95	4136.90
984.11	4009.92
984.27	4134.85
984.43	4100.03
984.59	4085.70
984.75	4091.84
984.91	4063.17
985.08	4159.42
985.24	3968.96
985.40	3936.20
985.56	4016.07
985.72	4140.99
985.88	4140.99
986.04	3989.44
986.20	4091.84
986.37	3930.05
986.53	3897.28
986.69	3968.96
986.85	3964.87
987.01	3968.96
987.17	3938.24
987.33	3841.99
987.49	3805.13
987.65	3962.82
987.82	3862.47
987.98	3637.19
988.14	3825.61
988.30	4001.73
988.46	3735.50
988.62	3821.51
988.78	3696.58
988.94	3708.87
989.10	3788.74
989.26	3751.88
989.42	3772.36
989.59	3659.72
989.75	3792.84
989.91	3819.46
990.07	3598.28
990.23	3727.30
990.39	3594.19
990.55	3776.45
990.71	3663.82
990.87	3657.67
991.03	3708.87
991.19	3622.86
991.35	3565.51
991.51	3710.92
991.67	3794.89
991.83	3639.24
992.00	3715.02
992.16	3704.78
992.32	3788.74
992.48	3608.52
992.64	3526.60
992.80	3592.14
992.96	3635.14
993.12	3592.14
993.28	3620.81
993.44	3516.36
993.60	3590.09
993.76	3649.48
993.92	3532.75
994.08	3495.88
994.24	3588.04
994.40	3450.83
994.56	3614.66
994.72	3454.92
994.88	3477.45
995.04	3332.05
995.20	3469.26
995.36	3358.67
995.52	3448.78
995.68	3360.72
995.84	3352.52
996.00	3471.31
996.16	3506.12
996.32	3375.05
996.48	3389.39
996.64	3430.35
996.80	3442.64
996.96	3540.94
997.12	3438.54
997.28	3370.96
997.44	3354.57
997.60	3330.00
997.76	3358.67
997.92	3327.95
998.08	3360.72
998.24	3262.41
998.40	3264.46
998.56	3291.09
998.72	3254.22
998.88	3188.69
999.04	3256.27
999.20	3342.28
999.36	3282.89
999.52	3358.67
999.68	3246.03
999.84	3315.66
1000.00	3262.41
1000.16	3252.17
1000.32	3149.78
1000.48	3237.84
1000.64	3145.68
1000.80	3041.23
1000.95	3074.00
1001.11	3184.59
1001.27	3094.48
1001.43	3188.69
1001.59	3055.57
1001.75	3074.00
1001.91	3074.00
1002.07	3123.15
1002.23	3096.53
1002.39	3043.28
1002.55	3084.24
1002.71	2942.93
1002.87	3131.34
1003.03	3024.85
1003.19	3030.99
1003.34	3090.38
1003.50	3039.19
1003.66	3198.93
1003.82	3104.72
1003.98	2992.08
1004.14	3016.66
1004.30	2932.69
1004.46	2949.08
1004.62	2951.12
1004.78	2994.13
1004.94	2973.65
1005.09	3008.47
1005.25	2977.75
1005.41	2955.22
1005.57	2897.88
1005.73	2949.08
1005.89	3014.61
1006.05	2983.89
1006.21	2912.21
1006.37	2783.19
1006.52	2830.29
1006.68	2807.77
1006.84	2987.99
1007.00	2793.43
1007.16	2856.92
1007.32	2965.46
1007.48	2846.68
1007.64	2901.97
1007.79	2873.30
1007.95	2805.72
1008.11	2883.54
1008.27	2871.25
1008.43	2809.81
1008.59	2779.09
1008.75	2822.10
1008.91	2723.80
1009.06	2682.84
1009.22	2721.75
1009.38	2779.09
1009.54	2793.43
1009.70	2793.43
1009.86	2813.91
1010.01	2803.67
1010.17	2645.98
1010.33	2731.99
1010.49	2723.80
1010.65	2844.63
1010.81	2648.02
1010.96	2627.54
1011.12	2629.59
1011.28	2531.29
1011.44	2709.46
1011.60	2611.16
1011.76	2596.82
1011.91	2637.78
1012.07	2633.69
1012.23	2678.74
1012.39	2609.11
1012.55	2580.44
1012.71	2584.54
1012.86	2617.30
1013.02	2594.78
1013.18	2557.91
1013.34	2557.91
1013.50	2615.26
1013.65	2613.21
1013.81	2566.10
1013.97	2535.39
1014.13	2527.19
1014.29	2545.63
1014.44	2594.78
1014.60	2504.67
1014.76	2570.20
1014.92	2553.82
1015.07	2588.63
1015.23	2551.77
1015.39	2486.23
1015.55	2598.87
1015.71	2435.03
1015.86	2496.47
1016.02	2451.42
1016.18	2457.56
1016.34	2559.96
1016.49	2557.91
1016.65	2531.29
1016.81	2404.32
1016.97	2496.47
1017.12	2545.63
1017.28	2400.22
1017.44	2445.27
1017.60	2453.47
1017.75	2426.84
1017.91	2381.79
1018.07	2385.88
1018.23	2447.32
1018.38	2408.41
1018.54	2445.27
1018.70	2369.50
1018.86	2361.31
1019.01	2392.03
1019.17	2310.11
1019.33	2375.64
1019.49	2428.89
1019.64	2318.30
1019.80	2469.85
1019.96	2443.23
1020.12	2355.16
1020.27	2263.01
1020.43	2289.63
1020.59	2377.69
1020.74	2355.16
1020.90	2359.26
1021.06	2340.83
1021.22	2291.68
1021.37	2285.53
1021.53	2310.11
1021.69	2398.17
1021.84	2295.77
1022.00	2340.83
1022.16	2273.25
1022.31	2289.63
1022.47	2365.40
1022.63	2318.30
1022.79	2217.95
1022.94	2279.39
1023.10	2414.56
1023.26	2217.95
1023.41	2267.10
1023.57	2168.80
1023.73	2271.20
1023.88	2215.90
1024.04	2238.43
1024.20	2109.41
1024.35	2260.96
1024.51	2222.05
1024.67	2238.43
1024.82	2273.25
1024.98	2195.42
1025.14	2265.05
1025.29	2170.85
1025.45	2209.76
1025.61	2234.33
1025.76	2172.89
1025.92	2193.37
1026.08	2172.89
1026.23	2191.33
1026.39	2166.75
1026.55	2144.22
1026.70	2164.70
1026.86	2211.81
1027.02	2164.70
1027.17	2207.71
1027.33	2222.05
1027.48	2129.89
1027.64	2181.09
1027.80	2109.41
1027.95	2191.33
1028.11	2113.50
1028.27	2226.14
1028.42	2213.85
1028.58	2011.11
1028.73	2017.25
1028.89	2090.98
1029.05	2140.13
1029.20	2138.08
>>>>>End Processed Spectral Data<<<<<
