SpectraSuite Data File
++++++++++++++++++++++++++++++++++++
Date: Fri Jun 02 14:51:07 CEST 2017
User: INFO_000
Dark Spectrum Present: No
Reference Spectrum Present: No
Number of Sampled Component Spectra: 1
Spectrometers: USB4H00879
Integration Time (usec): 80000 (USB4H00879)
Spectra Averaged: 1 (USB4H00879)
Boxcar Smoothing: 0 (USB4H00879)
Correct for Electrical Dark: No (USB4H00879)
Strobe/Lamp Enabled: No (USB4H00879)
Correct for Detector Non-linearity: No (USB4H00879)
Correct for Stray Light: No (USB4H00879)
Number of Pixels in Processed Spectrum: 3648
>>>>>Begin Processed Spectral Data<<<<<
345.13	1296.36
345.34	1296.36
345.56	1296.36
345.78	1232.88
345.99	1347.56
346.21	1658.85
346.42	1626.09
346.64	1599.46
346.86	1781.73
347.07	1685.48
347.29	1728.49
347.50	1634.28
347.72	1687.53
347.94	1761.25
348.15	1562.60
348.37	1568.74
348.59	1689.57
348.80	1683.43
349.02	1712.10
349.23	1871.84
349.45	1759.21
349.67	1869.80
349.88	1910.75
350.10	1978.34
350.31	1843.17
350.53	1789.92
350.75	1964.00
350.96	1828.84
351.18	1882.08
351.39	1853.41
351.61	1804.26
351.82	1888.23
352.04	1877.99
352.26	1796.07
352.47	1912.80
352.69	1955.81
352.90	1814.50
353.12	1765.35
353.34	1839.08
353.55	1945.57
353.77	1832.93
353.98	1841.12
354.20	1796.07
354.41	1916.90
354.63	1947.62
354.85	2072.54
355.06	1916.90
355.28	1810.40
355.49	1904.61
355.71	1918.95
355.92	1800.16
356.14	1871.84
356.35	1851.36
356.57	1744.87
356.79	1847.27
357.00	1800.16
357.22	1943.52
357.43	1857.51
357.65	1927.14
357.86	1914.85
358.08	1957.86
358.29	1894.37
358.51	1992.67
358.72	2009.06
358.94	1976.29
359.16	1837.03
359.37	1892.32
359.59	1910.75
359.80	2004.96
360.02	1945.57
360.23	1939.43
360.45	1908.71
360.66	1972.19
360.88	1853.41
361.09	1900.52
361.31	1974.24
361.52	1998.82
361.74	2017.25
361.95	2093.02
362.17	1988.58
362.38	2072.54
362.60	2007.01
362.81	1957.86
363.03	1918.95
363.24	2011.11
363.46	2066.40
363.67	1964.00
363.89	1980.39
364.10	1927.14
364.32	1953.76
364.53	2160.61
364.75	1869.80
364.96	2062.30
365.18	2019.30
365.39	1976.29
365.61	2033.63
365.82	2103.26
366.04	2019.30
366.25	1941.47
366.47	2013.15
366.68	2109.41
366.90	1986.53
367.11	2047.97
367.33	2082.78
367.54	2031.58
367.76	1998.82
367.97	2047.97
368.19	1978.34
368.40	2025.44
368.62	2017.25
368.83	1984.48
369.05	2056.16
369.26	1951.71
369.48	1933.28
369.69	1904.61
369.91	2074.59
370.12	1970.15
370.33	2129.89
370.55	1884.13
370.76	2080.74
370.98	2117.60
371.19	2054.11
371.41	2009.06
371.62	2047.97
371.84	1955.81
372.05	2111.46
372.27	2021.35
372.48	2080.74
372.69	2062.30
372.91	2150.37
373.12	2166.75
373.34	2084.83
373.55	2068.45
373.77	2156.51
373.98	2138.08
374.20	2113.50
374.41	2242.53
374.62	2131.94
374.84	2172.89
375.05	2109.41
375.27	2228.19
375.48	2158.56
375.70	2111.46
375.91	2164.70
376.12	2263.01
376.34	2136.03
376.55	2203.61
376.77	2160.61
376.98	2035.68
377.19	2086.88
377.41	2043.87
377.62	2199.52
377.84	2232.29
378.05	2344.92
378.27	2142.18
378.48	2394.08
378.69	2273.25
378.91	2248.67
379.12	2195.42
379.34	2174.94
379.55	2349.02
379.76	2252.77
379.98	2093.02
380.19	2158.56
380.41	2277.34
380.62	2275.29
380.83	2310.11
381.05	2199.52
381.26	2453.47
381.47	2265.05
381.69	2263.01
381.90	2377.69
382.12	2211.81
382.33	2256.86
382.54	2256.86
382.76	2254.81
382.97	2301.92
383.19	2250.72
383.40	2357.21
383.61	2246.62
383.83	2275.29
384.04	2344.92
384.25	2346.97
384.47	2387.93
384.68	2301.92
384.89	2287.58
385.11	2269.15
385.32	2236.38
385.54	2263.01
385.75	2355.16
385.96	2365.40
386.18	2381.79
386.39	2404.32
386.60	2379.74
386.82	2394.08
387.03	2349.02
387.24	2359.26
387.46	2426.84
387.67	2432.99
387.88	2432.99
388.10	2430.94
388.31	2410.46
388.52	2498.52
388.74	2392.03
388.95	2482.14
389.16	2502.62
389.38	2439.13
389.59	2572.25
389.80	2619.35
390.02	2508.76
390.23	2590.68
390.44	2580.44
390.66	2484.19
390.87	2459.61
391.08	2537.43
391.30	2574.30
391.51	2533.34
391.72	2650.07
391.94	2678.74
392.15	2611.16
392.36	2469.85
392.58	2543.58
392.79	2648.02
393.00	2619.35
393.22	2666.46
393.43	2770.90
393.64	2740.18
393.85	2762.71
394.07	2512.86
394.28	2641.88
394.49	2664.41
394.71	2660.31
394.92	2807.77
395.13	2721.75
395.35	2613.21
395.56	2607.06
395.77	2723.80
395.98	2799.57
396.20	2850.77
396.41	2734.04
396.62	2897.88
396.84	2789.33
397.05	2707.41
397.26	2797.53
397.47	2807.77
397.69	2793.43
397.90	2961.36
398.11	2891.73
398.32	2795.48
398.54	2838.48
398.75	2791.38
398.96	2852.82
399.18	3004.37
399.39	2854.87
399.60	3020.75
399.81	2883.54
400.03	2869.20
400.24	3139.54
400.45	2922.45
400.66	2994.13
400.88	2961.36
401.09	3121.10
401.30	2979.79
401.51	3135.44
401.73	3114.96
401.94	3078.10
402.15	3041.23
402.36	3059.67
402.58	3053.52
402.79	3096.53
403.00	3084.24
403.21	3028.95
403.43	3088.34
403.64	3209.17
403.85	2985.94
404.06	3110.86
404.27	2996.18
404.49	3080.14
404.70	3076.05
404.91	3198.93
405.12	3151.82
405.34	3291.09
405.55	3354.57
405.76	2953.17
405.97	3196.88
406.19	3215.31
406.40	3121.10
406.61	3274.70
406.82	3342.28
407.03	3303.37
407.25	3235.79
407.46	3311.57
407.67	3338.19
407.88	3358.67
408.09	3299.28
408.31	3286.99
408.52	3330.00
408.73	3270.61
408.94	3246.03
409.15	3354.57
409.37	3399.63
409.58	3489.74
409.79	3370.96
410.00	3485.64
410.21	3364.81
410.43	3403.72
410.64	3334.09
410.85	3502.03
411.06	3583.95
411.27	3461.07
411.48	3573.71
411.70	3491.79
411.91	3514.31
412.12	3635.14
412.33	3477.45
412.54	3475.40
412.76	3602.38
412.97	3641.29
413.18	3542.99
413.39	3471.31
413.60	3577.80
413.81	3540.94
414.03	3514.31
414.24	3719.11
414.45	3753.93
414.66	3518.41
414.87	3604.42
415.08	3553.23
415.30	3676.10
415.51	3665.86
415.72	3743.69
415.93	3803.08
416.14	3667.91
416.35	3674.06
416.56	3669.96
416.78	3688.39
416.99	3850.18
417.20	3831.75
417.41	3792.84
417.62	3852.23
417.83	3950.53
418.04	3770.31
418.26	3878.85
418.47	3755.97
418.68	3782.60
418.89	3833.80
419.10	4026.31
419.31	3887.04
419.52	3848.13
419.73	3995.59
419.95	3909.57
420.16	3844.04
420.37	3999.68
420.58	3885.00
420.79	3796.93
421.00	3831.75
421.21	4067.27
421.42	3962.82
421.63	3928.00
421.85	4075.46
422.06	4270.01
422.27	4071.36
422.48	3981.25
422.69	4190.14
422.90	4153.28
423.11	4075.46
423.32	4132.80
423.53	4335.55
423.75	4265.92
423.96	4272.06
424.17	4280.25
424.38	4450.24
424.59	4218.82
424.80	4419.52
425.01	4343.74
425.22	4296.64
425.43	4298.69
425.64	4470.72
425.85	4499.39
426.06	4452.28
426.28	4405.18
426.49	4282.30
426.70	4399.04
426.91	4466.62
427.12	4458.43
427.33	4507.58
427.54	4429.76
427.75	4405.18
427.96	4579.26
428.17	4550.59
428.38	4554.68
428.59	4626.36
428.80	4536.25
429.01	4558.78
429.23	4620.22
429.44	4896.69
429.65	4702.14
429.86	4755.38
430.07	4687.80
430.28	4753.34
430.49	4763.58
430.70	4902.84
430.91	4865.97
431.12	4722.62
431.33	4911.03
431.54	4825.01
431.75	4900.79
431.96	4999.09
432.17	4806.58
432.38	4945.84
432.59	5144.50
432.80	5029.81
433.01	5197.74
433.22	5193.65
433.43	4974.52
433.64	5066.67
433.85	4990.90
434.06	5164.98
434.27	4999.09
434.49	5185.46
434.70	5328.81
434.91	5150.64
435.12	5271.47
435.33	5308.34
435.54	5238.70
435.75	5195.70
435.96	5244.85
436.17	5185.46
436.38	5410.73
436.59	5339.05
436.80	5347.25
437.01	5601.19
437.22	5586.86
437.43	5427.12
437.64	5472.17
437.85	5504.94
438.06	5613.48
438.27	5449.64
438.48	5418.93
438.69	5595.05
438.90	5709.74
439.11	5369.77
439.32	5750.70
439.53	5515.18
439.74	5633.96
439.95	5722.02
440.16	5670.83
440.37	5640.11
440.57	5580.71
440.78	5810.09
440.99	5765.03
441.20	5869.48
441.41	5769.13
441.62	5738.41
441.83	5670.83
442.04	5742.50
442.25	5982.12
442.46	5818.28
442.67	5889.96
442.88	6094.76
443.09	5943.21
443.30	5943.21
443.51	5971.88
443.72	6293.41
443.93	5914.53
444.14	6178.72
444.35	5871.53
444.56	6113.19
444.77	6059.94
444.98	6104.99
445.19	6197.15
445.40	6152.10
445.61	6133.67
445.81	6264.74
446.02	6281.12
446.23	6211.49
446.44	6322.08
446.65	6287.26
446.86	6344.61
447.07	6420.38
447.28	6547.36
447.49	6449.05
447.70	6490.01
447.91	6498.20
448.12	6526.88
448.33	6639.51
448.54	6631.32
448.74	6549.40
448.95	6719.39
449.16	6487.96
449.37	6872.98
449.58	6637.47
449.79	6975.38
450.00	6614.94
450.21	6934.42
450.42	6754.20
450.63	6854.55
450.84	6815.64
451.05	6907.80
451.25	6893.46
451.46	6868.89
451.67	7004.05
451.88	7151.51
452.09	7098.26
452.30	6889.37
452.51	7030.68
452.72	7081.88
452.93	7264.15
453.13	6995.86
453.34	6975.38
453.55	7124.88
453.76	7141.27
453.97	7524.24
454.18	7221.14
454.39	7233.43
454.60	7270.29
454.81	7280.53
455.01	7462.80
455.22	7098.26
455.43	7438.22
455.64	7763.85
455.85	7548.81
456.06	7774.09
456.27	7430.03
456.48	7645.07
456.68	7485.33
456.89	7559.05
457.10	7751.56
457.31	7735.18
457.52	7745.42
457.73	7798.66
457.94	7913.35
458.14	7638.92
458.35	8138.63
458.56	8028.04
458.77	7942.02
458.98	8150.92
459.19	8011.65
459.39	8058.76
459.60	8226.69
459.81	8163.20
460.02	8165.25
460.23	8093.57
460.44	8243.07
460.65	8343.42
460.85	8527.74
461.06	8490.88
461.27	8189.83
461.48	8433.54
461.69	8750.97
461.89	8263.55
462.10	8593.28
462.31	8349.57
462.52	8499.07
462.73	8542.08
462.94	8828.79
463.14	8787.83
463.35	8697.72
463.56	9035.64
463.77	8929.14
463.98	8740.73
464.18	8937.34
464.39	9080.69
464.60	9185.14
464.81	9297.78
465.02	9060.21
465.23	9375.60
465.43	9265.01
465.64	9426.80
465.85	9369.46
466.06	9412.46
466.27	9752.43
466.47	9480.05
466.68	9461.62
466.89	9437.04
467.10	9625.45
467.30	9490.29
467.51	9805.67
467.72	9725.80
467.93	9631.60
468.14	9873.26
468.34	10049.38
468.55	9936.74
468.76	10059.62
468.97	9918.31
469.17	10123.11
469.38	10202.98
469.59	10428.26
469.80	10366.82
470.01	10176.36
470.21	10299.23
470.42	10467.17
470.63	10481.50
470.84	10643.29
471.04	10800.99
471.25	10755.93
471.46	10823.51
471.67	10823.51
471.87	11091.80
472.08	10913.63
472.29	11235.16
472.50	10970.97
472.70	10925.91
472.91	11073.37
473.12	11450.19
473.33	11458.39
473.53	11517.78
473.74	11339.60
473.95	11577.17
474.16	11798.35
474.36	11661.13
474.57	11884.36
474.78	12013.38
474.99	11915.08
475.19	11728.72
475.40	12308.29
475.61	12253.00
475.81	12339.01
476.02	12531.52
476.23	12361.54
476.44	12521.28
476.64	12619.58
476.85	12984.12
477.06	12920.63
477.27	13078.33
477.47	12859.20
477.68	12994.36
477.89	13287.22
478.09	12959.55
478.30	13403.96
478.51	13274.93
478.71	13506.35
478.92	13535.03
479.13	13766.45
479.34	13819.69
479.54	13936.43
479.75	13823.79
479.96	14180.14
480.16	14047.02
480.37	14024.49
480.58	14108.46
480.78	14468.90
480.99	14468.90
481.20	14511.91
481.41	14792.48
481.61	14733.09
481.82	14845.73
482.03	14812.96
482.23	14786.33
482.44	15273.75
482.65	15085.34
482.85	15372.05
483.06	15224.60
483.27	15570.71
483.47	15527.70
483.68	15705.87
483.89	15673.10
484.09	15836.94
484.30	15681.30
484.51	16135.95
484.71	16172.81
484.92	16185.10
485.13	16246.54
485.33	16207.62
485.54	16418.57
485.75	16668.42
485.95	16897.79
486.16	16813.82
486.37	16897.79
486.57	17026.81
486.78	16969.47
486.98	17198.84
487.19	17010.43
487.40	17383.16
487.60	17434.36
487.81	17774.32
488.02	17401.59
488.22	17481.46
488.43	17846.00
488.64	17823.47
488.84	18231.02
489.05	18081.52
489.25	18087.66
489.46	18370.28
489.67	18212.59
489.87	18489.06
490.08	18577.12
490.29	18550.50
490.49	19003.10
490.70	18919.14
490.90	19166.94
491.11	19201.76
491.32	19089.12
491.52	19363.54
491.73	19316.44
491.94	19226.33
492.14	19252.95
492.35	19771.09
492.55	19689.17
492.76	19629.78
492.97	19828.43
493.17	20088.53
493.38	19885.78
493.58	20018.89
493.79	20127.44
494.00	20178.64
494.20	20399.82
494.41	20479.69
494.61	20612.81
494.82	20588.23
495.02	20479.69
495.23	20666.05
495.44	20876.99
495.64	20741.83
495.85	21102.27
496.05	21184.19
496.26	21108.41
496.47	21259.96
496.67	21110.46
496.88	21548.73
497.08	21329.59
497.29	21581.49
497.49	21364.41
497.70	21663.41
497.91	21706.42
498.11	22058.67
498.32	21886.64
498.52	22107.82
498.73	22240.94
498.93	22410.92
499.14	22462.12
499.34	22345.39
499.55	22529.70
499.76	22298.28
499.96	22460.07
500.17	22378.15
500.37	22632.10
500.58	22623.91
500.78	23025.31
500.99	22724.26
501.19	23158.43
501.40	23041.70
501.60	22896.29
501.81	22978.21
502.02	23127.71
502.22	22888.10
502.43	23393.95
502.63	23654.04
502.84	23510.68
503.04	23326.36
503.25	23443.10
503.45	23490.20
503.66	23668.37
503.86	23787.16
504.07	24159.89
504.27	23883.41
504.48	24456.84
504.68	24303.25
504.89	24252.05
505.09	23959.19
505.30	24135.31
505.50	24186.51
505.71	24356.49
505.91	24303.25
506.12	24237.71
506.32	24528.52
506.53	24424.08
506.73	24661.64
506.94	24563.34
507.14	24624.78
507.35	24778.37
507.55	24647.30
507.76	24903.30
507.96	24542.86
508.17	25083.52
508.37	24792.71
508.58	24987.27
508.78	25171.58
508.99	25202.30
509.19	25302.65
509.40	25169.54
509.60	25163.39
509.81	25157.25
510.01	25386.62
510.22	25060.99
510.42	25208.45
510.63	25405.05
510.83	25515.64
511.04	25548.41
511.24	25540.22
511.44	25411.20
511.65	25837.17
511.85	25757.30
512.06	26037.87
512.26	25841.27
512.47	25857.65
512.67	25884.28
512.88	26134.13
513.08	25794.17
513.29	26252.91
513.49	26101.36
513.69	26033.78
513.90	25998.96
514.10	26224.24
514.31	26064.50
514.51	26461.80
514.72	26113.65
514.92	26185.33
515.13	26179.18
515.33	26572.39
515.53	26517.10
515.74	26736.23
515.94	26416.75
516.15	26635.88
516.35	26306.16
516.56	26586.73
516.76	26498.67
516.96	26601.07
517.17	26816.10
517.37	26728.04
517.58	27025.00
517.78	26844.77
517.99	27084.39
518.19	27084.39
518.39	27205.22
518.60	27467.36
518.80	27258.46
519.01	27301.47
519.21	27348.57
519.41	27055.72
519.62	27457.12
519.82	27586.14
520.03	27512.41
520.23	27387.49
520.43	27743.83
520.64	28044.88
520.84	27967.06
521.05	27821.66
521.25	27887.19
521.45	27844.18
521.66	28206.67
521.86	28091.99
522.07	28114.52
522.27	28087.89
522.47	28079.70
522.68	28284.50
522.88	28434.00
523.08	28491.34
523.29	28608.08
523.49	28528.20
523.70	28362.32
523.90	28884.55
524.10	28739.15
524.31	29173.31
524.51	28603.98
524.71	29298.24
524.92	28958.28
525.12	29427.26
525.33	28962.37
525.53	29236.80
525.73	29644.35
525.94	29414.98
526.14	29390.40
526.34	29515.33
526.55	29693.50
526.75	29763.13
526.95	29820.47
527.16	29601.34
527.36	29953.59
527.56	30195.25
527.77	30318.13
527.97	30561.84
528.17	30236.21
528.38	30363.18
528.58	30473.78
528.78	30604.84
528.99	30711.34
529.19	31149.60
529.39	30498.35
529.60	30883.37
529.80	30821.93
530.00	30809.64
530.21	31104.55
530.41	31411.74
530.61	31409.70
530.82	31401.50
531.02	31217.19
531.22	31436.32
531.43	31333.92
531.63	31669.79
531.83	32157.21
532.04	32106.01
532.24	32036.38
532.44	32312.85
532.64	32376.34
532.85	32681.49
533.05	32609.81
533.25	32531.98
533.46	32695.82
533.66	32652.81
533.86	32501.26
534.07	33220.10
534.27	32968.20
534.47	33289.73
534.67	33142.28
534.88	33048.07
535.08	33531.39
535.28	33519.10
535.49	33420.80
535.69	34002.43
535.89	33580.54
536.09	33965.56
536.30	34164.21
536.50	34137.59
536.70	34522.61
536.91	34391.54
537.11	34358.77
537.31	34801.13
537.51	34455.03
537.72	35177.96
537.92	34838.00
538.12	35368.42
538.32	35057.13
538.53	34809.32
538.73	35272.17
538.93	35419.62
539.13	35184.10
539.34	35438.05
539.54	35247.59
539.74	35362.28
539.94	35429.86
540.15	35362.28
540.35	36160.98
540.55	35935.71
540.75	35698.14
540.96	36234.71
541.16	36220.38
541.36	36283.86
541.56	36498.90
541.77	36539.86
541.97	36629.97
542.17	36300.25
542.37	36470.23
542.58	36715.98
542.78	36799.95
542.98	36642.26
543.18	37086.67
543.38	37475.78
543.59	37334.47
543.79	37273.03
543.99	37180.87
544.19	37400.01
544.40	37152.20
544.60	37494.21
544.80	37533.12
545.00	37692.86
545.20	37895.61
545.41	37588.42
545.61	38090.17
545.81	37944.76
546.01	38194.62
546.21	38321.59
546.42	38057.40
546.62	38399.41
546.82	38399.41
547.02	38712.75
547.22	38575.54
547.43	38761.90
547.63	38712.75
547.83	38766.00
548.03	38761.90
548.23	39079.34
548.44	38458.81
548.64	38860.21
548.84	39251.37
549.04	39140.78
549.24	39808.42
549.45	39245.23
549.65	39226.79
549.85	39462.31
550.05	39835.04
550.25	39384.49
550.45	39908.77
550.66	39765.41
550.86	39806.37
551.06	39732.64
551.26	39910.82
551.46	39863.71
551.66	40078.75
551.87	40238.49
552.07	40140.19
552.27	40293.79
552.47	40541.59
552.67	40535.45
552.87	40072.60
553.07	40183.19
553.28	40658.32
553.48	40463.77
553.68	40621.46
553.88	40727.95
554.08	40820.11
554.28	40117.66
554.48	40746.39
554.69	40803.73
554.89	40662.42
555.09	40813.97
555.29	40924.56
555.49	41256.33
555.69	41016.72
555.89	40687.00
556.10	41131.40
556.30	41112.97
556.50	41371.02
556.70	41112.97
556.90	41416.07
557.10	41545.09
557.30	41155.98
557.50	41461.13
557.70	41403.78
557.91	41842.05
558.11	41317.77
558.31	41811.33
558.51	41616.77
558.71	41788.80
558.91	41932.16
559.11	41334.15
559.31	41596.29
559.51	41624.96
559.72	41401.74
559.92	42018.17
560.12	41727.36
560.32	41827.71
560.52	41792.90
560.72	42130.81
560.92	41899.39
561.12	42599.80
561.32	42102.14
561.52	42202.49
561.72	42423.67
561.93	41932.16
562.13	42220.92
562.33	42323.32
562.53	42597.75
562.73	42274.17
562.93	42257.79
563.13	42599.80
563.33	42423.67
563.53	43015.54
563.73	42321.27
563.93	42702.20
564.13	43050.35
564.33	42499.45
564.53	42476.92
564.74	42724.72
564.94	42651.00
565.14	42964.34
565.34	42646.90
565.54	42691.96
565.74	42839.41
565.94	43046.26
566.14	42655.09
566.34	42894.71
566.54	42980.72
566.74	42491.26
566.94	42958.19
567.14	43009.39
567.34	42354.04
567.54	42921.33
567.74	43050.35
567.94	42765.68
568.14	42964.34
568.34	43548.01
568.54	43083.12
568.74	43560.30
568.94	42857.84
569.14	43687.27
569.34	43314.54
569.54	43543.91
569.75	43183.47
569.95	43212.14
570.15	43662.69
570.35	43451.75
570.55	43406.70
570.75	43179.37
570.95	43885.92
571.15	43677.03
571.35	43654.50
571.55	43685.22
571.75	43668.84
571.95	43599.21
572.15	43552.10
572.35	44002.66
572.55	43838.82
572.75	43605.35
572.95	43500.90
573.15	43427.18
573.35	43998.56
573.55	44002.66
573.75	43371.88
573.95	44072.29
574.15	43644.26
574.35	43844.96
574.55	43951.46
574.75	43930.98
574.95	44158.30
575.15	43769.19
575.34	43781.48
575.54	44326.24
575.74	44260.70
575.94	44703.06
576.14	44070.24
576.34	44488.03
576.54	44442.97
576.74	44428.63
576.94	44434.78
577.14	44475.74
577.34	44733.78
577.54	44238.17
577.74	44637.53
577.94	44840.28
578.14	44506.46
578.34	44909.91
578.54	44053.86
578.74	44307.80
578.94	44793.17
579.14	44313.95
579.34	44784.98
579.54	44844.37
579.74	45139.28
579.94	44971.35
580.13	45417.80
580.33	45000.02
580.53	44862.80
580.73	44848.47
580.93	44985.68
581.13	44926.29
581.33	45282.64
581.53	45170.00
581.73	45006.16
581.93	45528.39
582.13	45749.57
582.33	45313.36
582.53	45227.34
582.73	45221.20
582.92	45559.11
583.12	45452.62
583.32	45833.54
583.52	45184.33
583.72	45876.55
583.92	46028.10
584.12	45440.33
584.32	46060.87
584.52	45942.08
584.72	45718.85
584.92	46114.11
585.11	46517.56
585.31	46095.68
585.51	45890.88
585.71	45849.92
585.91	46439.74
586.11	46146.88
586.31	46118.21
586.51	45841.73
586.71	46226.75
586.91	46425.40
587.10	46335.29
587.30	46404.92
587.50	46599.48
587.70	46464.32
587.90	46474.55
588.10	46822.71
588.30	46654.78
588.50	46095.68
588.69	46468.41
588.89	46847.29
589.09	46638.39
589.29	46675.26
589.49	47506.73
589.69	46257.47
589.89	46824.76
590.08	46855.48
590.28	46622.01
590.48	46425.40
590.68	46984.50
590.88	46767.41
591.08	47064.37
591.28	46599.48
591.47	47324.46
591.67	46945.59
591.87	47428.91
592.07	47084.85
592.27	46841.14
592.47	47367.47
592.67	47633.71
592.86	47269.17
593.06	47045.94
593.26	47643.94
593.46	47631.66
593.66	47541.55
593.86	47486.25
594.05	47559.98
594.25	47959.33
594.45	47334.70
594.65	47639.85
594.85	47545.64
595.05	47793.45
595.24	48043.30
595.44	47924.52
595.64	47766.82
595.84	47527.21
596.04	47885.61
596.23	48393.50
596.43	48510.24
596.63	48035.11
596.83	48082.21
597.03	48168.22
597.22	48786.71
597.42	48483.61
597.62	48579.87
597.82	48712.98
598.02	48608.54
598.21	48768.28
598.41	48479.52
598.61	49003.80
598.81	48985.36
599.01	49038.61
599.20	49052.95
599.40	48733.46
599.60	48739.61
599.80	48993.56
600.00	48833.81
600.19	49116.43
600.39	49204.50
600.59	49452.30
600.79	49157.39
600.98	49267.98
601.18	49765.64
601.38	49538.32
601.58	49450.25
601.78	49614.09
601.97	49728.78
602.17	49755.40
602.37	50060.55
602.57	49749.26
602.76	50179.33
602.96	50011.40
603.16	50259.20
603.36	50083.08
603.55	50521.34
603.75	50124.04
603.95	50287.87
604.15	50765.05
604.34	50443.52
604.54	51041.53
604.74	50732.28
604.94	50627.84
605.13	50486.53
605.33	50730.23
605.53	50726.14
605.73	50975.99
605.92	50898.17
606.12	51176.69
606.32	51420.40
606.52	50687.23
606.71	51240.18
606.91	51289.33
607.11	51191.03
607.30	51703.02
607.50	51123.44
607.70	51426.54
607.90	51508.46
608.09	51686.64
608.29	51541.23
608.49	51705.07
608.68	52149.48
608.88	51551.47
609.08	51657.96
609.28	51817.71
609.47	51502.32
609.67	52438.24
609.87	52071.65
610.06	52317.41
610.26	51832.04
610.46	52057.32
610.66	52188.39
610.85	52036.84
611.05	51905.77
611.25	52376.80
611.44	52186.34
611.64	52430.05
611.84	52229.35
612.03	52276.45
612.23	52679.90
612.43	52638.94
612.62	52262.11
612.82	52960.47
613.02	52845.79
613.21	52714.72
613.41	52581.60
613.61	52786.39
613.80	52266.21
614.00	52956.38
614.20	53003.48
614.39	52829.40
614.59	53040.34
614.79	52815.07
614.98	52876.51
615.18	52921.56
615.38	53136.60
615.57	53003.48
615.77	53216.47
615.97	53374.16
616.16	53306.58
616.36	53093.59
616.56	53435.60
616.75	53312.72
616.95	52888.79
617.15	52999.38
617.34	53165.27
617.54	53241.04
617.74	53669.07
617.93	53408.98
618.13	52810.97
618.32	53384.40
618.52	53458.13
618.72	53302.48
618.91	53560.53
619.11	53339.35
619.31	53632.21
619.50	53595.34
619.70	53062.87
619.90	53550.29
620.09	53263.57
620.29	53492.94
620.48	53564.62
620.68	54017.22
620.88	53284.05
621.07	53462.22
621.27	53413.07
621.46	53613.77
621.66	53509.33
621.86	53794.00
622.05	53394.64
622.25	54281.41
622.44	53509.33
622.64	53724.36
622.84	53886.15
623.03	53484.75
623.23	53935.30
623.42	53701.84
623.62	53892.30
623.82	54473.92
624.01	53679.31
624.21	53830.86
624.40	54031.56
624.60	53871.82
624.80	53673.16
624.99	53875.91
625.19	53312.72
625.38	53593.29
625.58	53726.41
625.77	54129.86
625.97	54144.20
626.17	53755.08
626.36	53613.77
626.56	54342.85
626.75	53286.10
626.95	54230.21
627.14	54232.26
627.34	54351.04
627.54	53867.72
627.73	53931.21
627.93	53998.79
628.12	53621.97
628.32	54013.13
628.51	53941.45
628.71	53892.30
628.90	54125.77
629.10	54117.57
629.30	54031.56
629.49	53957.83
629.69	53693.64
629.88	53718.22
630.08	54461.63
630.27	53959.88
630.47	54369.47
630.66	53988.55
630.86	54410.43
631.05	53773.52
631.25	53986.50
631.44	53994.70
631.64	54156.49
631.84	54066.38
632.03	54875.32
632.23	54201.54
632.42	54736.06
632.62	54254.79
632.81	53920.97
633.01	54049.99
633.20	54258.88
633.40	54187.21
633.59	54471.87
633.79	53898.44
633.98	54027.46
634.18	54367.43
634.37	54297.80
634.57	54435.01
634.76	54916.28
634.96	54070.47
635.15	54691.01
635.35	54381.76
635.54	54293.70
635.74	54629.57
635.93	54377.67
636.13	54848.70
636.32	54518.98
636.52	54080.71
636.71	54740.16
636.91	54631.61
637.10	54822.08
637.30	54308.04
637.49	54846.65
637.69	54252.74
637.88	54908.09
638.08	54402.24
638.27	54557.89
638.46	54824.12
638.66	54248.64
638.85	54629.57
639.05	54471.87
639.24	54752.44
639.44	54148.29
639.63	54455.49
639.83	54824.12
640.02	54926.52
640.22	55274.68
640.41	54746.30
640.61	54373.57
640.80	54553.79
640.99	54215.88
641.19	54744.25
641.38	54674.62
641.58	54488.26
641.77	54525.12
641.97	54596.80
642.16	54273.22
642.36	54928.57
642.55	54897.85
642.74	54674.62
642.94	55024.82
643.13	54582.46
643.33	55110.84
643.52	55090.36
643.72	54875.32
643.91	54580.42
644.10	54932.67
644.30	54877.37
644.49	54783.16
644.69	54985.91
644.88	54834.36
645.08	54564.03
645.27	54873.27
645.46	54445.25
645.66	55030.97
645.85	54654.14
646.05	54928.57
646.24	55026.87
646.43	54873.27
646.63	55207.09
646.82	55022.78
647.02	54604.99
647.21	55272.63
647.40	54938.81
647.60	54912.19
647.79	55123.13
647.99	54906.04
648.18	54564.03
648.37	55004.34
648.57	54736.06
648.76	55073.98
648.96	55063.74
649.15	54531.26
649.34	55063.74
649.54	54756.54
649.73	55035.06
649.92	55049.40
650.12	54967.48
650.31	55203.00
650.51	55227.57
650.70	55026.87
650.89	54785.21
651.09	55334.07
651.28	55237.81
651.47	54934.71
651.67	54789.31
651.86	55110.84
652.06	54482.11
652.25	54903.99
652.44	55006.39
652.64	54760.64
652.83	54615.23
653.02	54817.98
653.22	54752.44
653.41	54705.34
653.60	54588.61
653.80	54523.07
653.99	55055.54
654.18	54781.12
654.38	54572.22
654.57	54920.38
654.76	55104.70
654.96	54686.91
655.15	54566.08
655.34	54803.64
655.54	54619.33
655.73	54713.53
655.92	55047.35
656.12	54973.63
656.31	54664.38
656.50	54865.08
656.70	54852.80
656.89	54459.58
657.08	54953.15
657.28	54457.54
657.47	54828.22
657.66	54785.21
657.86	54715.58
658.05	54744.25
658.24	54875.32
658.43	54469.82
658.63	55022.78
658.82	54961.34
659.01	55002.30
659.21	54564.03
659.40	54748.35
659.59	54621.37
659.79	54691.01
659.98	54441.15
660.17	54928.57
660.36	54820.03
660.56	54408.39
660.75	55084.22
660.94	54975.67
661.14	54860.99
661.33	54586.56
661.52	54590.66
661.71	54850.75
661.91	54570.18
662.10	54105.29
662.29	54537.41
662.49	54385.86
662.68	54387.91
662.87	54641.85
663.06	54867.13
663.26	54435.01
663.45	55088.31
663.64	54342.85
663.83	54676.67
664.03	54543.55
664.22	54738.11
664.41	54076.61
664.60	54396.10
664.80	54678.72
664.99	54650.05
665.18	54262.98
665.37	54107.33
665.57	54715.58
665.76	54514.88
665.95	54461.63
666.14	54318.28
666.34	53863.63
666.53	54160.58
666.72	54238.40
666.91	54254.79
667.11	54275.27
667.30	54523.07
667.49	53968.07
667.68	54375.62
667.87	54602.94
668.07	54232.26
668.26	54451.39
668.45	54318.28
668.64	53849.29
668.84	54496.45
669.03	54367.43
669.22	54113.48
669.41	54355.14
669.60	54392.00
669.80	54002.89
669.99	53886.15
670.18	54025.42
670.37	53925.07
670.57	54457.54
670.76	54420.67
670.95	54115.53
671.14	53978.31
671.33	53920.97
671.53	54598.85
671.72	54289.60
671.91	54033.61
672.10	53980.36
672.29	53767.37
672.48	53564.62
672.68	53888.20
672.87	53974.22
673.06	54129.86
673.25	54013.13
673.44	53591.25
673.64	53761.23
673.83	53877.96
674.02	53738.70
674.21	53681.36
674.40	53990.60
674.59	53525.71
674.79	53789.90
674.98	53329.11
675.17	54197.44
675.36	53494.99
675.55	54054.09
675.74	53408.98
675.94	53781.71
676.13	53982.41
676.32	53941.45
676.51	54187.21
676.70	54066.38
676.89	53875.91
677.08	53873.87
677.28	53589.20
677.47	53869.77
677.66	54000.84
677.85	53482.70
678.04	53810.38
678.23	53990.60
678.42	53574.86
678.62	53535.95
678.81	53798.09
679.00	53677.26
679.19	54031.56
679.38	53441.74
679.57	53507.28
679.76	53621.97
679.96	53402.83
680.15	53466.32
680.34	53087.45
680.53	53437.65
680.72	53892.30
680.91	53716.17
681.10	53425.36
681.29	53882.06
681.48	53603.53
681.68	53155.03
681.87	53359.83
682.06	53427.41
682.25	53140.69
682.44	53130.45
682.63	53462.22
682.82	53294.29
683.01	53351.63
683.20	52593.89
683.39	53093.59
683.59	52980.95
683.78	52546.78
683.97	53220.56
684.16	53392.59
684.35	52384.99
684.54	53015.77
684.73	53195.99
684.92	52780.25
685.11	52983.00
685.30	53245.14
685.49	53335.25
685.69	53101.78
685.88	53101.78
686.07	53073.11
686.26	52753.63
686.45	52944.09
686.64	53179.60
686.83	52991.19
687.02	52876.51
687.21	53032.15
687.40	52939.99
687.59	52948.18
687.78	52802.78
687.97	53263.57
688.16	53335.25
688.35	52692.19
688.54	52903.13
688.74	52825.31
688.93	52944.09
689.12	52802.78
689.31	52790.49
689.50	53329.11
689.69	52370.66
689.88	52303.07
690.07	52681.95
690.26	52456.67
690.45	53359.83
690.64	52688.09
690.83	52237.54
691.02	52473.06
691.21	52401.38
691.40	52911.32
691.59	52704.48
691.78	52983.00
691.97	52956.38
692.16	52464.86
692.35	53048.53
692.54	53011.67
692.73	52677.85
692.92	52593.89
693.11	52720.86
693.30	52442.34
693.49	53019.86
693.68	52073.70
693.87	52376.80
694.06	52161.76
694.25	52337.89
694.44	52401.38
694.63	52219.11
694.82	52745.44
695.01	52284.64
695.20	52339.94
695.39	52327.65
695.58	52456.67
695.77	52208.87
695.96	51918.06
696.15	52622.56
696.34	52522.21
696.53	52397.28
696.72	52436.19
696.91	52069.61
697.10	52772.06
697.29	52233.44
697.48	52602.08
697.67	51803.37
697.86	52360.42
698.05	52045.03
698.24	52479.20
698.43	51678.44
698.62	52389.09
698.81	51729.64
699.00	52008.17
699.19	52067.56
699.38	52106.47
699.57	51780.84
699.76	52477.15
699.95	52196.58
700.14	51602.67
700.32	52049.13
700.51	52049.13
700.70	52798.68
700.89	52288.74
701.08	52389.09
701.27	51188.98
701.46	51954.92
701.65	51512.56
701.84	52079.85
702.03	52110.56
702.22	51578.09
702.41	52126.95
702.60	51842.28
702.79	51780.84
702.98	51543.28
703.17	51598.57
703.35	51907.82
703.54	51535.09
703.73	51971.30
703.92	51805.42
704.11	51571.95
704.30	51471.60
704.49	51336.43
704.68	51356.91
704.87	51588.33
705.06	51272.95
705.25	51467.50
705.43	51666.16
705.62	51530.99
705.81	51625.20
706.00	51453.17
706.19	51115.25
706.38	51459.31
706.57	51363.06
706.76	51600.62
706.95	51410.16
707.14	51420.40
707.32	51582.19
707.51	50951.41
707.70	51127.54
707.89	51172.60
708.08	51543.28
708.27	51786.99
708.46	51672.30
708.65	51336.43
708.84	51297.52
709.02	51555.57
709.21	51490.03
709.40	51508.46
709.59	51340.53
709.78	50894.07
709.97	51389.68
710.16	51217.65
710.34	50980.09
710.53	51223.79
710.72	50709.75
710.91	51428.59
711.10	51328.24
711.29	51434.74
711.48	51156.21
711.66	51014.90
711.85	51019.00
712.04	51205.36
712.23	51148.02
712.42	51188.98
712.61	50904.31
712.80	51035.38
712.98	50980.09
713.17	51066.10
713.36	51008.76
713.55	50812.15
713.74	51281.14
713.93	50783.48
714.11	51059.96
714.30	51072.24
714.49	50728.19
714.68	50857.21
714.87	50865.40
715.06	51186.93
715.24	50697.47
715.43	50210.05
715.62	50369.79
715.81	50517.25
716.00	50937.08
716.18	50322.69
716.37	50523.39
716.56	50124.04
716.75	50996.47
716.94	50396.42
717.12	50101.51
717.31	50679.03
717.50	50828.54
717.69	50441.47
717.88	50523.39
718.06	50181.38
718.25	50740.47
718.44	50044.16
718.63	50300.16
718.82	49833.22
719.00	50341.12
719.19	49997.06
719.38	49888.52
719.57	49939.72
719.76	49706.25
719.94	49210.64
720.13	49847.56
720.32	49986.82
720.51	49790.22
720.69	49614.09
720.88	49245.46
721.07	49595.66
721.26	49530.12
721.44	49270.03
721.63	49665.29
721.82	49704.20
722.01	49313.04
722.20	49497.36
722.38	49448.21
722.57	48874.77
722.76	48993.56
722.95	49095.95
723.13	49210.64
723.32	48559.39
723.51	48952.60
723.70	48868.63
723.88	48946.45
724.07	48727.32
724.26	49046.80
724.44	48485.66
724.63	48696.60
724.82	48686.36
725.01	48770.33
725.19	48862.49
725.38	48903.45
725.57	48710.94
725.76	48680.22
725.94	48182.56
726.13	48432.41
726.32	48434.46
726.51	48151.84
726.69	48837.91
726.88	48794.90
727.07	48543.00
727.25	48270.62
727.44	48069.92
727.63	48207.14
727.82	48090.40
728.00	48534.81
728.19	48506.14
728.38	48598.30
728.56	47955.24
728.75	48741.66
728.94	48270.62
729.12	48712.98
729.31	48446.75
729.50	48659.74
729.69	48760.09
729.87	48370.97
730.06	48221.47
730.25	48012.58
730.43	48518.43
730.62	47543.59
730.81	48315.68
730.99	48022.82
731.18	48157.99
731.37	48649.50
731.55	48512.28
731.74	48366.88
731.93	48045.35
732.11	48518.43
732.30	48446.75
732.49	48227.62
732.67	47869.22
732.86	48213.28
733.05	48176.42
733.23	48272.67
733.42	48078.11
733.61	47938.85
733.79	48323.87
733.98	48610.59
734.17	47863.08
734.35	47832.36
734.54	48112.93
734.73	48147.75
734.91	48387.36
735.10	48067.87
735.29	48526.62
735.47	47635.75
735.66	47893.80
735.84	48006.44
736.03	47815.97
736.22	48313.63
736.40	47818.02
736.59	47875.37
736.78	47846.69
736.96	47574.31
737.15	47783.21
737.33	47725.86
737.52	47471.92
737.71	47707.43
737.89	47639.85
738.08	47369.52
738.27	47303.98
738.45	47971.62
738.64	47629.61
738.82	47433.00
739.01	47600.94
739.20	47541.55
739.38	47283.50
739.57	47856.93
739.75	47617.32
739.94	47185.20
740.13	47144.24
740.31	47490.35
740.50	47142.19
740.68	47879.46
740.87	47486.25
741.06	47492.40
741.24	47779.11
741.43	46806.33
741.61	47113.52
741.80	47148.34
741.99	46867.76
742.17	46990.64
742.36	47166.77
742.54	46855.48
742.73	47002.93
742.91	47324.46
743.10	46724.41
743.29	47103.28
743.47	47033.65
743.66	46839.09
743.84	46908.72
744.03	46544.19
744.21	46425.40
744.40	47009.07
744.59	46519.61
744.77	46128.45
744.96	46570.81
745.14	46521.66
745.33	46970.16
745.51	46312.77
745.70	46517.56
745.88	46796.09
746.07	46765.37
746.26	46396.73
746.44	46187.84
746.63	46503.23
746.81	46503.23
747.00	45862.21
747.18	46441.79
747.37	46200.13
747.55	46363.96
747.74	46452.03
747.92	45993.28
748.11	46028.10
748.29	45825.35
748.48	45974.85
748.66	45618.50
748.85	46013.76
749.03	45620.55
749.22	45720.90
749.41	45714.76
749.59	45995.33
749.78	45358.41
749.96	45532.49
750.15	45198.67
750.33	45485.39
750.52	45217.10
750.70	45450.57
750.89	45137.23
751.07	45380.94
751.26	45290.83
751.44	45040.98
751.63	45419.85
751.81	44860.76
752.00	44875.09
752.18	45454.67
752.37	45237.58
752.55	44754.26
752.74	44633.43
752.92	44971.35
753.10	44598.62
753.29	45014.35
753.47	44518.74
753.66	44471.64
753.84	44897.62
754.03	44698.97
754.21	44430.68
754.40	44223.84
754.58	44524.89
754.77	44281.18
754.95	44174.69
755.14	44086.62
755.32	44461.40
755.51	44035.42
755.69	43996.51
755.88	43779.43
756.06	43933.03
756.24	43969.89
756.43	43627.88
756.61	44199.26
756.80	44070.24
756.98	43660.65
757.17	43588.97
757.35	44297.56
757.54	43615.59
757.72	44127.58
757.90	43597.16
758.09	43627.88
758.27	43660.65
758.46	43543.91
758.64	43218.28
758.83	43816.29
759.01	43457.90
759.19	43486.57
759.38	43349.35
759.56	43744.61
759.75	43609.45
759.93	43355.50
760.12	42716.53
760.30	43251.05
760.48	43216.24
760.67	43249.00
760.85	43117.93
761.04	43165.04
761.22	43244.91
761.40	42675.57
761.59	42657.14
761.77	42802.55
761.96	42751.35
762.14	42521.98
762.32	42403.19
762.51	42384.76
762.69	42636.66
762.88	42747.25
763.06	42433.91
763.24	42478.97
763.43	42610.04
763.61	42368.38
763.80	42476.92
763.98	42306.94
764.16	42562.93
764.35	41975.17
764.53	41631.11
764.72	42048.89
764.90	41981.31
765.08	41923.97
765.27	42104.19
765.45	41995.65
765.63	41661.83
765.82	42085.76
766.00	41577.86
766.18	41401.74
766.37	41878.91
766.55	41717.12
766.74	41821.57
766.92	41348.49
767.10	41489.80
767.29	41432.46
767.47	40801.68
767.65	41254.28
767.84	41002.38
768.02	41055.63
768.20	40617.36
768.39	40787.35
768.57	41072.01
768.75	40740.24
768.94	41026.96
769.12	40768.91
769.30	40633.75
769.49	40600.98
769.67	40580.50
769.85	40187.29
770.04	40322.46
770.22	40230.30
770.40	40426.90
770.59	40246.68
770.77	40787.35
770.95	40211.87
771.14	39867.81
771.32	40035.74
771.50	39927.20
771.69	40066.46
771.87	40154.52
772.05	39845.28
772.24	39509.41
772.42	39749.03
772.60	39652.77
772.78	39577.00
772.97	39232.94
773.15	39658.91
773.33	39224.75
773.52	39269.80
773.70	39579.04
773.88	39837.09
774.07	39714.21
774.25	39732.64
774.43	39335.34
774.61	39650.72
774.80	39822.75
774.98	39439.78
775.16	39646.63
775.34	39388.58
775.53	39234.99
775.71	39736.74
775.89	39577.00
776.08	39544.23
776.26	39652.77
776.44	39493.03
776.62	39171.50
776.81	39329.19
776.99	39568.80
777.17	39286.18
777.35	39179.69
777.54	39640.48
777.72	39345.58
777.90	39517.60
778.08	39697.83
778.27	39462.31
778.45	39787.94
778.63	40469.91
778.81	39364.01
779.00	40058.27
779.18	39603.62
779.36	39945.63
779.54	39753.12
779.73	39810.46
779.91	40039.84
780.09	39878.05
780.27	40172.96
780.46	40224.15
780.64	40132.00
780.82	39919.01
781.00	39976.35
781.19	40084.89
781.37	39984.54
781.55	39859.62
781.73	40211.87
781.91	40301.98
782.10	40005.02
782.28	39974.30
782.46	40134.04
782.64	39599.52
782.82	40019.36
783.01	40420.76
783.19	40093.08
783.37	40261.02
783.55	39867.81
783.74	40111.52
783.92	39665.06
784.10	40560.02
784.28	39826.85
784.46	39851.42
784.64	39898.53
784.83	39808.42
785.01	40150.43
785.19	40164.76
785.37	39611.81
785.55	39935.39
785.74	39736.74
785.92	39482.79
786.10	39579.04
786.28	39986.59
786.46	39462.31
786.64	39558.56
786.83	39611.81
787.01	39712.16
787.19	39828.90
787.37	39818.66
787.55	39349.67
787.74	39409.06
787.92	39329.19
788.10	39347.62
788.28	39271.85
788.46	39482.79
788.64	39255.46
788.82	39861.66
789.01	38995.37
789.19	39505.32
789.37	39108.01
789.55	39185.83
789.73	38438.33
789.91	38927.79
790.09	38700.47
790.28	38622.64
790.46	38708.66
790.64	38481.33
790.82	38385.08
791.00	38249.91
791.18	38462.90
791.36	38340.02
791.55	38733.23
791.73	38313.40
791.91	38325.69
792.09	38075.84
792.27	38159.80
792.45	37987.77
792.63	38063.55
792.81	37674.43
793.00	37901.76
793.18	37408.20
793.36	37688.77
793.54	37660.10
793.72	37539.27
793.90	37414.34
794.08	37414.34
794.26	37131.72
794.44	36806.09
794.62	36926.92
794.81	37037.51
794.99	36943.31
795.17	37010.89
795.35	36615.63
795.53	36849.10
795.71	36955.60
795.89	36756.94
796.07	35909.08
796.25	35950.04
796.43	36275.67
796.61	35808.73
796.80	35954.14
796.98	36226.52
797.16	35745.25
797.34	35911.13
797.52	35800.54
797.70	36128.22
797.88	35651.04
798.06	35419.62
798.24	35755.49
798.42	35229.16
798.60	35530.21
798.78	35464.67
798.96	35507.68
799.14	35130.86
799.32	34983.40
799.51	34653.68
799.69	34958.83
799.87	34934.25
800.05	34647.54
800.23	34928.11
800.41	34784.75
800.59	34756.08
800.77	34549.23
800.95	34313.72
801.13	34401.78
801.31	34217.46
801.49	34692.59
801.67	34280.95
801.85	34108.92
802.03	33717.76
802.21	33897.98
802.39	33889.79
802.57	33869.31
802.75	33795.58
802.93	33660.41
803.11	33781.24
803.29	33539.58
803.47	33027.59
803.65	33334.79
803.83	33134.09
804.01	33277.44
804.19	32835.08
804.37	33039.88
804.55	33017.35
804.73	33187.33
804.91	32742.92
805.09	32593.42
805.27	33101.32
805.45	32597.52
805.63	32890.38
805.81	32544.27
805.99	32822.80
806.17	32353.81
806.35	32427.54
806.53	32267.80
806.71	32728.59
806.89	32218.64
807.07	31913.50
807.25	31995.42
807.43	32026.14
807.61	32470.54
807.79	31733.28
807.97	31438.37
808.15	31694.36
808.33	31436.32
808.51	31606.30
808.69	31704.60
808.87	31432.22
809.05	31243.81
809.23	31303.20
809.41	31090.21
809.59	31419.94
809.77	31501.86
809.95	31260.20
810.13	31204.90
810.31	31071.78
810.49	31090.21
810.67	31260.20
810.84	31096.36
811.02	31092.26
811.20	30856.75
811.38	30631.47
811.56	30465.58
811.74	30445.10
811.92	30379.57
812.10	30354.99
812.28	30684.72
812.46	30127.67
812.64	30817.83
812.82	30137.91
813.00	30385.71
813.18	30389.81
813.36	29955.64
813.53	30000.69
813.71	29955.64
813.89	29853.24
814.07	30053.94
814.25	29982.26
814.43	29668.92
814.61	29881.91
814.79	29513.28
814.97	29613.63
815.15	29705.79
815.33	29406.78
815.50	29386.30
815.68	29783.61
815.86	29808.19
816.04	29238.85
816.22	29503.04
816.40	29242.95
816.58	29075.01
816.76	29036.10
816.94	28915.27
817.11	29314.62
817.29	28968.52
817.47	28972.61
817.65	29077.06
817.83	28984.90
818.01	28489.29
818.19	28628.56
818.37	28696.14
818.54	28393.04
818.72	28436.05
818.90	28808.78
819.08	28812.87
819.26	28380.75
819.44	28550.73
819.62	28434.00
819.80	28513.87
819.97	28186.19
820.15	28188.24
820.33	28352.08
820.51	28382.80
820.69	27977.30
820.87	28296.78
821.05	27995.73
821.22	28288.59
821.40	27985.49
821.58	27967.06
821.76	27706.97
821.94	27745.88
822.12	27795.03
822.29	28161.62
822.47	27911.77
822.65	28083.80
822.83	27774.55
823.01	27854.42
823.19	27919.96
823.36	27401.82
823.54	27686.49
823.72	27321.95
823.90	27596.38
824.08	27379.29
824.25	27637.34
824.43	27119.20
824.61	27383.39
824.79	27809.37
824.97	27246.18
825.15	27313.76
825.32	27240.03
825.50	26969.70
825.68	27170.40
825.86	27350.62
826.04	27274.85
826.21	27137.63
826.39	26846.82
826.57	26969.70
826.75	27047.52
826.93	26711.66
827.10	26594.92
827.28	26734.18
827.46	26691.18
827.64	26637.93
827.81	26850.92
827.99	26795.62
828.17	26353.26
828.35	26533.48
828.53	26472.04
828.70	26537.58
828.88	26295.92
829.06	26480.24
829.24	26656.36
829.41	26500.72
829.59	26496.62
829.77	26310.25
829.95	26046.07
830.12	26543.72
830.30	26248.82
830.48	26402.41
830.66	26162.80
830.84	26109.55
831.01	26310.25
831.19	25980.53
831.37	26125.94
831.55	25935.48
831.72	25996.92
831.90	26164.85
832.08	25923.19
832.25	25958.00
832.43	25953.91
832.61	26005.11
832.79	25740.92
832.96	25792.12
833.14	25640.57
833.32	25675.38
833.50	25982.58
833.67	25689.72
833.85	25845.37
834.03	25595.51
834.20	25742.97
834.38	25814.65
834.56	25677.43
834.74	25527.93
834.91	25826.93
835.09	25257.60
835.27	25482.88
835.44	25458.30
835.62	25280.13
835.80	25230.98
835.98	25192.06
836.15	25550.46
836.33	25304.70
836.51	25353.85
836.68	25271.93
836.86	25425.53
837.04	25187.97
837.21	25394.81
837.39	25435.77
837.57	25185.92
837.75	25345.66
837.92	24786.57
838.10	24886.92
838.28	24848.00
838.45	24915.59
838.63	24802.95
838.81	24764.04
838.98	25013.89
839.16	24415.88
839.34	24794.76
839.51	24524.43
839.69	24647.30
839.87	24481.42
840.04	24473.23
840.22	24833.67
840.40	24333.96
840.57	24514.19
840.75	24577.67
840.93	24143.50
841.10	24589.96
841.28	24465.03
841.46	24192.65
841.63	24649.35
841.81	24596.10
841.98	24364.68
842.16	24301.20
842.34	24012.43
842.51	24090.26
842.69	24491.66
842.87	23987.86
843.04	24229.52
843.22	24063.63
843.40	24108.69
843.57	23897.75
843.75	24168.08
843.92	23981.71
844.10	24053.39
844.28	24286.86
844.45	23991.95
844.63	24098.45
844.81	23692.95
844.98	24002.19
845.16	23813.78
845.33	23815.83
845.51	23838.36
845.69	23899.80
845.86	23584.41
846.04	23850.64
846.21	23731.86
846.39	23705.24
846.57	23647.90
846.74	23635.61
846.92	23688.85
847.09	23494.30
847.27	23391.90
847.45	23537.30
847.62	23563.93
847.80	23555.74
847.97	23662.23
848.15	23430.81
848.32	23043.74
848.50	23695.00
848.68	23269.02
848.85	23168.67
849.03	22902.43
849.20	23404.19
849.38	22912.67
849.56	23330.46
849.73	23056.03
849.91	23066.27
850.08	23514.78
850.26	23023.26
850.43	23101.09
850.61	23191.20
850.78	22791.84
850.96	23084.70
851.14	23092.90
851.31	22648.49
851.49	22683.30
851.66	22810.28
851.84	22761.12
852.01	22853.28
852.19	22857.38
852.36	22611.62
852.54	22859.43
852.71	22666.92
852.89	22793.89
853.07	22576.81
853.24	22525.61
853.42	22498.98
853.59	22564.52
853.77	22593.19
853.94	22679.21
854.12	22679.21
854.29	22652.58
854.47	22269.61
854.64	22496.94
854.82	22552.23
854.99	22603.43
855.17	22585.00
855.34	22431.40
855.52	22415.02
855.69	22406.83
855.87	22396.59
856.04	22212.27
856.22	22011.57
856.39	22081.20
856.57	22253.23
856.74	22093.49
856.92	22019.76
857.09	21837.49
857.27	22089.39
857.44	22343.34
857.62	22232.75
857.79	22199.98
857.97	22052.53
858.14	21968.56
858.32	21892.79
858.49	21786.29
858.67	21741.24
858.84	21808.82
859.02	21804.72
859.19	21630.65
859.37	21622.45
859.54	21892.79
859.72	21710.52
859.89	21796.53
860.06	21538.49
860.24	21552.82
860.41	21929.65
860.59	21360.31
860.76	21753.52
860.94	21468.86
861.11	21505.72
861.29	21468.86
861.46	21354.17
861.64	21505.72
861.81	21421.75
861.98	21395.13
862.16	21575.35
862.33	21219.00
862.51	21100.22
862.68	21038.78
862.86	21325.50
863.03	21259.96
863.21	21087.93
863.38	21368.51
863.55	21124.80
863.73	21319.35
863.90	21001.92
864.08	21145.28
864.25	20885.19
864.43	21083.84
864.60	20874.95
864.77	20899.52
864.95	20797.12
865.12	20616.90
865.30	20934.34
865.47	20721.35
865.64	20487.88
865.82	20485.83
865.99	20889.28
866.17	20690.63
866.34	20569.80
866.51	20612.81
866.69	20641.48
866.86	20854.47
867.04	20608.71
867.21	20639.43
867.38	20219.60
867.56	20264.65
867.73	20168.40
867.91	20049.61
868.08	20238.03
868.25	20225.74
868.43	20045.52
868.60	20063.95
868.78	20002.51
868.95	20221.64
869.12	20082.38
869.30	20137.68
869.47	20059.85
869.64	19896.02
869.82	19902.16
869.99	20029.13
870.16	20272.84
870.34	19992.27
870.51	20066.00
870.69	19885.78
870.86	19807.95
871.03	20063.95
871.21	19816.15
871.38	19691.22
871.55	19427.03
871.73	19662.55
871.90	19740.37
872.07	19513.05
872.25	19250.91
872.42	19590.87
872.59	19408.60
872.77	19431.13
872.94	19566.29
873.11	19322.59
873.29	19422.94
873.46	19269.34
873.63	19291.87
873.81	19179.23
873.98	19222.23
874.15	19060.45
874.33	19058.40
874.50	19017.44
874.67	19050.21
874.85	19177.18
875.02	18716.39
875.19	18757.35
875.37	18779.87
875.54	18558.69
875.71	18798.31
875.88	18505.45
876.06	18616.04
876.23	18523.88
876.40	18501.35
876.58	18480.87
876.75	18542.31
876.92	18300.65
877.10	18521.83
877.27	18542.31
877.44	18519.78
877.61	18497.25
877.79	18308.84
877.96	18421.48
878.13	18067.18
878.31	18188.01
878.48	18136.81
878.65	18073.32
878.82	17952.49
879.00	18251.50
879.17	17987.31
879.34	18018.03
879.51	17915.63
879.69	17653.49
879.86	17862.38
880.03	18185.96
880.21	17698.55
880.38	18116.33
880.55	17727.22
880.72	17772.27
880.90	17516.28
881.07	17921.77
881.24	17751.79
881.41	17764.08
881.59	17420.02
881.76	17520.37
881.93	17477.37
882.10	17540.85
882.28	17352.44
882.45	17592.05
882.62	17440.50
882.79	17518.32
882.96	17245.94
883.14	17510.13
883.31	17370.87
883.48	17221.37
883.65	17264.38
883.83	17399.54
884.00	17151.74
884.17	17346.30
884.34	17272.57
884.51	17129.21
884.69	17313.53
884.86	17346.30
885.03	16914.17
885.20	16965.37
885.38	17047.29
885.55	16977.66
885.72	16897.79
885.89	16711.42
886.06	16934.65
886.24	16701.19
886.41	16639.75
886.58	16920.32
886.75	17241.85
886.92	16742.14
887.10	16932.61
887.27	16862.97
887.44	16975.61
887.61	17086.20
887.78	16883.45
887.95	16623.36
888.13	16502.53
888.30	16719.62
888.47	16627.46
888.64	16557.83
888.81	16867.07
888.99	16631.55
889.16	16363.27
889.33	16396.04
889.50	16393.99
889.67	16398.09
889.84	16226.06
890.01	16447.24
890.19	16324.36
890.36	16389.89
890.53	16310.02
890.70	16289.54
890.87	16363.27
891.04	16277.26
891.22	16307.98
891.39	16187.14
891.56	15869.71
891.73	16209.67
891.90	16187.14
892.07	15925.00
892.24	16045.84
892.42	15824.65
892.59	15752.98
892.76	15617.81
892.93	15845.13
893.10	15755.02
893.27	15695.63
893.44	15771.41
893.61	15623.95
893.79	15970.06
893.96	15785.74
894.13	15759.12
894.30	15861.52
894.47	15605.52
894.64	15988.49
894.81	15671.06
894.98	15666.96
895.15	15626.00
895.33	15642.39
895.50	15615.76
895.67	15724.30
895.84	15699.73
896.01	15601.43
896.18	15531.80
896.35	15757.07
896.52	15562.51
896.69	15324.95
896.86	15607.57
897.04	15601.43
897.21	15499.03
897.38	15408.92
897.55	15267.61
897.72	15421.20
897.89	15306.52
898.06	15535.89
898.23	15466.26
898.40	15492.88
898.57	15408.92
898.74	15476.50
898.91	15460.12
899.08	15449.88
899.26	15374.10
899.43	15388.44
899.60	15204.12
899.77	15447.83
899.94	15351.57
900.11	15038.23
900.28	15382.29
900.45	15308.57
900.62	15337.24
900.79	15255.32
900.96	15429.40
901.13	15462.16
901.30	15286.04
901.47	15204.12
901.64	15382.29
901.81	15513.36
901.98	15107.87
902.15	15435.54
902.32	15107.87
902.49	15312.66
902.66	15337.24
902.83	15275.80
903.01	15306.52
903.18	15304.47
903.35	15152.92
903.52	15064.86
903.69	15351.57
903.86	15478.55
904.03	15304.47
904.20	15367.96
904.37	15263.51
904.54	15265.56
904.71	15132.44
904.88	15249.18
905.05	15142.68
905.22	15251.22
905.39	15093.53
905.56	14892.83
905.73	15126.30
905.90	15474.45
906.07	15042.33
906.24	15206.17
906.41	15114.01
906.58	15150.87
906.75	15130.39
906.92	14968.60
907.09	15079.19
907.26	15277.85
907.43	14995.23
907.60	15091.48
907.77	15314.71
907.93	15224.60
908.10	14999.32
908.27	15238.94
908.44	15075.10
908.61	14964.51
908.78	14948.12
908.95	15128.35
909.12	14903.07
909.29	14835.49
909.46	15159.06
909.63	15048.47
909.80	14929.69
909.97	14952.22
910.14	14923.55
910.31	14984.99
910.48	15083.29
910.65	14782.24
910.82	14806.81
910.99	14829.34
911.16	14810.91
911.33	14696.22
911.50	14706.46
911.66	14749.47
911.83	14769.95
912.00	14966.56
912.17	14499.62
912.34	14681.89
912.51	14694.18
912.68	14364.45
912.85	14452.52
913.02	14563.11
913.19	14559.01
913.36	14473.00
913.53	14524.19
913.70	14374.69
913.86	14626.59
914.03	14569.25
914.20	14313.25
914.37	14176.04
914.54	14386.98
914.71	14169.90
914.88	14251.81
915.05	14161.70
915.22	14229.29
915.39	14212.90
915.55	14180.14
915.72	14151.46
915.89	14128.94
916.06	13725.49
916.23	14040.87
916.40	13883.18
916.57	14173.99
916.74	13870.89
916.91	13645.62
917.07	13731.63
917.24	13709.10
917.41	13856.56
917.58	13664.05
917.75	13803.31
917.92	13584.18
918.09	13442.87
918.26	13403.96
918.42	13578.03
918.59	13440.82
918.76	13291.32
918.93	13264.69
919.10	13330.23
919.27	13262.65
919.44	13543.22
919.60	13401.91
919.77	13297.46
919.94	13291.32
920.11	13072.18
920.28	13293.37
920.45	12877.63
920.61	12994.36
920.78	12730.17
920.95	12879.68
921.12	12975.93
921.29	12707.65
921.46	12721.98
921.62	12576.58
921.79	12781.37
921.96	12707.65
922.13	12707.65
922.30	12592.96
922.47	12537.66
922.63	12332.87
922.80	12496.71
922.97	12506.95
923.14	12101.45
923.31	12308.29
923.47	12437.31
923.64	12537.66
923.81	12101.45
923.98	12173.13
924.15	11929.42
924.32	12142.41
924.48	12166.98
924.65	12023.62
924.82	11738.96
924.99	11603.79
925.15	11661.13
925.32	11777.87
925.49	11513.68
925.66	11736.91
925.83	11571.02
925.99	11546.45
926.16	11507.54
926.33	11511.63
926.50	11376.47
926.67	11462.48
926.83	11433.81
927.00	11276.12
927.17	11202.39
927.34	11192.15
927.50	11181.91
927.67	11003.74
927.84	11007.83
928.01	11028.31
928.17	11130.71
928.34	10882.91
928.51	10665.82
928.68	10858.33
928.84	10641.25
929.01	10624.86
929.18	10624.86
929.35	10735.45
929.51	10565.47
929.68	10522.46
929.85	10567.52
930.02	10360.67
930.18	10270.56
930.35	10323.81
930.52	10245.99
930.69	10018.66
930.85	10159.97
931.02	10198.88
931.19	10229.60
931.36	10198.88
931.52	10243.94
931.69	10053.48
931.86	10018.66
932.02	10086.25
932.19	9748.33
932.36	9799.53
932.53	9715.56
932.69	9867.11
932.86	9836.39
933.03	9897.83
933.19	9537.39
933.36	9533.29
933.53	9697.13
933.70	9338.74
933.86	9437.04
934.03	9467.76
934.20	9457.52
934.36	9437.04
934.53	9113.46
934.70	8929.14
934.86	9062.26
935.03	8855.42
935.20	8908.66
935.36	8914.81
935.53	8812.41
935.70	8738.68
935.86	8836.99
936.03	8636.28
936.20	8509.31
936.36	8357.76
936.53	8501.12
936.70	8281.99
936.86	8204.16
937.03	8277.89
937.20	8150.92
937.36	8025.99
937.53	7851.91
937.70	7800.71
937.86	7786.38
938.03	7698.31
938.20	7618.44
938.36	7540.62
938.53	7591.82
938.70	7321.49
938.86	7233.43
939.03	7204.75
939.20	7219.09
939.36	7065.49
939.53	6975.38
939.70	7266.19
939.86	6688.67
940.03	6754.20
940.19	6678.43
940.36	6698.91
940.53	6565.79
940.69	6494.11
940.86	6483.87
941.03	6346.66
941.19	6277.02
941.36	6211.49
941.52	6150.05
941.69	6227.87
941.86	6041.51
942.02	6193.06
942.19	6000.55
942.35	6043.56
942.52	5939.11
942.69	6018.98
942.85	5851.05
943.02	5797.80
943.18	5818.28
943.35	5550.00
943.52	5676.97
943.68	5679.02
943.85	5713.83
944.01	5539.76
944.18	5300.14
944.35	5515.18
944.51	5388.21
944.68	5300.14
944.84	5414.83
945.01	5261.23
945.17	5394.35
945.34	5248.94
945.51	5390.25
945.67	5144.50
945.84	5203.89
946.00	5210.03
946.17	5148.59
946.33	5095.35
946.50	5097.39
946.67	5199.79
946.83	5193.65
947.00	5201.84
947.16	5169.07
947.33	5187.50
947.49	5160.88
947.66	4968.37
947.82	5138.35
947.99	5072.82
948.16	5212.08
948.32	5136.31
948.49	5154.74
948.65	5222.32
948.82	5205.94
948.98	5255.09
949.15	4999.09
949.31	5173.17
949.48	5105.59
949.64	5076.91
949.81	5158.83
949.97	5021.62
950.14	5154.74
950.30	5173.17
950.47	5222.32
950.63	5171.12
950.80	5117.87
950.96	5171.12
951.13	5193.65
951.30	5107.63
951.46	5160.88
951.63	5357.49
951.79	5207.98
951.96	5195.70
952.12	5187.50
952.29	5203.89
952.45	5158.83
952.62	5173.17
952.78	5373.87
952.94	5273.52
953.11	5154.74
953.27	5244.85
953.44	5377.97
953.60	5207.98
953.77	5259.18
953.93	5175.22
954.10	5189.55
954.26	5337.01
954.43	5117.87
954.59	5369.77
954.76	5414.83
954.92	5255.09
955.09	5244.85
955.25	5263.28
955.42	5210.03
955.58	5427.12
955.75	5400.49
955.91	5232.56
956.07	5337.01
956.24	5187.50
956.40	5244.85
956.57	5347.25
956.73	5236.66
956.90	5240.75
957.06	5197.74
957.23	5269.42
957.39	5281.71
957.56	5386.16
957.72	5248.94
957.88	5212.08
958.05	5449.64
958.21	5406.64
958.38	5240.75
958.54	5283.76
958.71	5500.84
958.87	5183.41
959.03	5279.66
959.20	5261.23
959.36	5304.24
959.53	5226.42
959.69	5289.90
959.85	5416.88
960.02	5218.22
960.18	5250.99
960.35	5250.99
960.51	5324.72
960.68	5148.59
960.84	5384.11
961.00	5291.95
961.17	5242.80
961.33	5222.32
961.50	5314.48
961.66	5236.66
961.82	5275.57
961.99	5207.98
962.15	5173.17
962.31	5183.41
962.48	5240.75
962.64	5277.62
962.81	5302.19
962.97	5222.32
963.13	5406.64
963.30	5306.29
963.46	5183.41
963.62	5269.42
963.79	5121.97
963.95	5183.41
964.12	5242.80
964.28	5148.59
964.44	5128.11
964.61	5330.86
964.77	5185.46
964.93	5355.44
965.10	5222.32
965.26	5152.69
965.42	5066.67
965.59	5044.15
965.75	5230.51
965.92	5214.13
966.08	5144.50
966.24	5228.46
966.41	5097.39
966.57	5193.65
966.73	5132.21
966.90	5205.94
967.06	5111.73
967.22	5142.45
967.39	5048.24
967.55	4997.04
967.71	4972.47
967.88	5048.24
968.04	5164.98
968.20	5076.91
968.37	4958.13
968.53	4943.80
968.69	4949.94
968.85	4995.00
969.02	4964.28
969.18	4937.65
969.34	4997.04
969.51	5029.81
969.67	4919.22
969.83	4806.58
970.00	5095.35
970.16	4831.16
970.32	4851.64
970.48	5042.10
970.65	4935.60
970.81	4759.48
970.97	4771.77
971.14	4829.11
971.30	4921.27
971.46	4847.54
971.63	4945.84
971.79	4892.60
971.95	4767.67
972.11	4732.86
972.28	4878.26
972.44	4874.17
972.60	4816.82
972.76	4745.14
972.93	4855.73
973.09	4782.01
973.25	4788.15
973.42	4767.67
973.58	4806.58
973.74	4538.30
973.90	4759.48
974.07	4636.60
974.23	4827.06
974.39	4763.58
974.55	4609.98
974.72	4605.88
974.88	4579.26
975.04	4577.21
975.20	4505.53
975.37	4698.04
975.53	4644.79
975.69	4679.61
975.85	4607.93
976.01	4671.42
976.18	4562.87
976.34	4655.03
976.50	4638.65
976.66	4736.95
976.83	4435.90
976.99	4540.35
977.15	4454.33
977.31	4394.94
977.47	4677.56
977.64	4452.28
977.80	4376.51
977.96	4442.04
978.12	4456.38
978.29	4460.48
978.45	4386.75
978.61	4306.88
978.77	4540.35
978.93	4302.78
979.10	4511.68
979.26	4370.37
979.42	4247.49
979.58	4306.88
979.74	4343.74
979.91	4409.28
980.07	4349.89
980.23	4280.25
980.39	4188.10
980.55	4284.35
980.71	4145.09
980.88	4194.24
981.04	4267.97
981.20	4167.62
981.36	4300.73
981.52	4306.88
981.68	4227.01
981.85	4239.30
982.01	4204.48
982.17	4149.18
982.33	4270.01
982.49	4261.82
982.65	4165.57
982.82	4198.34
982.98	4165.57
983.14	4083.65
983.30	4206.53
983.46	4161.47
983.62	4165.57
983.79	4005.83
983.95	3964.87
984.11	4083.65
984.27	4214.72
984.43	3985.35
984.59	4130.75
984.75	4124.61
984.91	4050.88
985.08	4073.41
985.24	3901.38
985.40	4061.12
985.56	4069.31
985.72	4038.59
985.88	4077.51
986.04	3981.25
986.20	3868.61
986.37	3985.35
986.53	3850.18
986.69	3962.82
986.85	3885.00
987.01	3870.66
987.17	3880.90
987.33	3862.47
987.49	3907.52
987.65	3874.76
987.82	3823.56
987.98	3731.40
988.14	3747.78
988.30	3950.53
988.46	3753.93
988.62	4022.21
988.78	3850.18
988.94	3868.61
989.10	3729.35
989.26	3751.88
989.42	3715.02
989.59	3643.34
989.75	3796.93
989.91	3739.59
990.07	3575.75
990.23	3733.45
990.39	3796.93
990.55	3839.94
990.71	3674.06
990.87	3690.44
991.03	3676.10
991.19	3592.14
991.35	3667.91
991.51	3614.66
991.67	3829.70
991.83	3641.29
992.00	3674.06
992.16	3655.62
992.32	3723.21
992.48	3602.38
992.64	3565.51
992.80	3735.50
992.96	3612.62
993.12	3575.75
993.28	3538.89
993.44	3432.40
993.60	3459.02
993.76	3590.09
993.92	3577.80
994.08	3641.29
994.24	3551.18
994.40	3567.56
994.56	3620.81
994.72	3545.03
994.88	3448.78
995.04	3465.16
995.20	3549.13
995.36	3407.82
995.52	3518.41
995.68	3442.64
995.84	3403.72
996.00	3485.64
996.16	3403.72
996.32	3356.62
996.48	3338.19
996.64	3399.63
996.80	3336.14
996.96	3368.91
997.12	3469.26
997.28	3295.18
997.44	3327.95
997.60	3452.88
997.76	3416.01
997.92	3268.56
998.08	3311.57
998.24	3309.52
998.40	3360.72
998.56	3428.30
998.72	3229.65
998.88	3209.17
999.04	3203.02
999.20	3262.41
999.36	3143.63
999.52	3223.50
999.68	3155.92
999.84	3370.96
1000.00	3254.22
1000.16	3196.88
1000.32	3155.92
1000.48	3305.42
1000.64	3082.19
1000.80	3088.34
1000.95	3030.99
1001.11	3149.78
1001.27	3080.14
1001.43	3149.78
1001.59	2998.23
1001.75	3090.38
1001.91	3151.82
1002.07	3076.05
1002.23	3170.26
1002.39	3006.42
1002.55	2996.18
1002.71	3008.47
1002.87	3069.91
1003.03	3028.95
1003.19	2996.18
1003.34	3160.02
1003.50	2990.03
1003.66	3082.19
1003.82	3039.19
1003.98	2928.60
1004.14	3069.91
1004.30	2949.08
1004.46	3026.90
1004.62	2955.22
1004.78	2973.65
1004.94	2926.55
1005.09	3010.51
1005.25	2965.46
1005.41	2906.07
1005.57	2901.97
1005.73	2969.55
1005.89	2830.29
1006.05	2990.03
1006.21	2895.83
1006.37	2965.46
1006.52	2832.34
1006.68	2795.48
1006.84	2998.23
1007.00	2844.63
1007.16	2942.93
1007.32	2809.81
1007.48	2867.16
1007.64	2904.02
1007.79	2752.47
1007.95	2748.37
1008.11	2885.59
1008.27	2795.48
1008.43	2840.53
1008.59	2813.91
1008.75	2758.61
1008.91	2842.58
1009.06	2818.00
1009.22	2858.96
1009.38	2871.25
1009.54	2801.62
1009.70	2756.57
1009.86	2734.04
1010.01	2746.33
1010.17	2658.26
1010.33	2725.85
1010.49	2627.54
1010.65	2707.41
1010.81	2559.96
1010.96	2715.61
1011.12	2623.45
1011.28	2580.44
1011.44	2703.32
1011.60	2674.65
1011.76	2629.59
1011.91	2709.46
1012.07	2541.53
1012.23	2498.52
1012.39	2549.72
1012.55	2656.22
1012.71	2680.79
1012.86	2478.04
1013.02	2709.46
1013.18	2564.06
1013.34	2568.15
1013.50	2670.55
1013.65	2670.55
1013.81	2559.96
1013.97	2572.25
1014.13	2584.54
1014.29	2578.39
1014.44	2729.94
1014.60	2514.91
1014.76	2611.16
1014.92	2568.15
1015.07	2617.30
1015.23	2545.63
1015.39	2519.00
1015.55	2420.70
1015.71	2461.66
1015.86	2453.47
1016.02	2498.52
1016.18	2426.84
1016.34	2494.43
1016.49	2445.27
1016.65	2584.54
1016.81	2443.23
1016.97	2402.27
1017.12	2482.14
1017.28	2367.45
1017.44	2402.27
1017.60	2412.51
1017.75	2449.37
1017.91	2445.27
1018.07	2461.66
1018.23	2383.84
1018.38	2437.08
1018.54	2383.84
1018.70	2367.45
1018.86	2432.99
1019.01	2426.84
1019.17	2406.36
1019.33	2408.41
1019.49	2301.92
1019.64	2375.64
1019.80	2367.45
1019.96	2363.36
1020.12	2387.93
1020.27	2277.34
1020.43	2334.68
1020.59	2406.36
1020.74	2400.22
1020.90	2342.88
1021.06	2285.53
1021.22	2306.01
1021.37	2400.22
1021.53	2277.34
1021.69	2273.25
1021.84	2271.20
1022.00	2232.29
1022.16	2289.63
1022.31	2217.95
1022.47	2258.91
1022.63	2269.15
1022.79	2232.29
1022.94	2265.05
1023.10	2318.30
1023.26	2238.43
1023.41	2226.14
1023.57	2199.52
1023.73	2287.58
1023.88	2287.58
1024.04	2228.19
1024.20	2252.77
1024.35	2234.33
1024.51	2252.77
1024.67	2238.43
1024.82	2263.01
1024.98	2193.37
1025.14	2263.01
1025.29	2148.32
1025.45	2267.10
1025.61	2125.79
1025.76	2174.94
1025.92	2076.64
1026.08	2201.57
1026.23	2303.96
1026.39	2220.00
1026.55	2142.18
1026.70	2125.79
1026.86	2131.94
1027.02	2207.71
1027.17	2082.78
1027.33	2162.66
1027.48	2127.84
1027.64	2166.75
1027.80	2068.45
1027.95	2207.71
1028.11	2023.39
1028.27	2174.94
1028.42	2133.98
1028.58	2076.64
1028.73	2103.26
1028.89	2064.35
1029.05	2197.47
1029.20	2111.46
>>>>>End Processed Spectral Data<<<<<
