SpectraSuite Data File
++++++++++++++++++++++++++++++++++++
Date: Fri Jun 02 14:51:12 CEST 2017
User: INFO_000
Dark Spectrum Present: No
Reference Spectrum Present: No
Number of Sampled Component Spectra: 1
Spectrometers: USB4H00879
Integration Time (usec): 80000 (USB4H00879)
Spectra Averaged: 1 (USB4H00879)
Boxcar Smoothing: 0 (USB4H00879)
Correct for Electrical Dark: No (USB4H00879)
Strobe/Lamp Enabled: No (USB4H00879)
Correct for Detector Non-linearity: No (USB4H00879)
Correct for Stray Light: No (USB4H00879)
Number of Pixels in Processed Spectrum: 3648
>>>>>Begin Processed Spectral Data<<<<<
345.13	1245.16
345.34	1245.16
345.56	1245.16
345.78	1257.45
345.99	1277.93
346.21	1646.57
346.42	1708.01
346.64	1642.47
346.86	1783.78
347.07	1695.72
347.29	1773.54
347.50	1609.70
347.72	1660.90
347.94	1791.97
348.15	1519.59
348.37	1626.09
348.59	1736.68
348.80	1644.52
349.02	1728.49
349.23	1861.60
349.45	1839.08
349.67	1861.60
349.88	1794.02
350.10	2000.87
350.31	1886.18
350.53	1884.13
350.75	1972.19
350.96	1789.92
351.18	1888.23
351.39	1830.88
351.61	1757.16
351.82	1867.75
352.04	1925.09
352.26	1834.98
352.47	1820.64
352.69	1894.37
352.90	1787.88
353.12	1863.65
353.34	1861.60
353.55	1937.38
353.77	1888.23
353.98	1746.92
354.20	1791.97
354.41	2002.91
354.63	1910.75
354.85	2025.44
355.06	1888.23
355.28	1744.87
355.49	1953.76
355.71	1861.60
355.92	1875.94
356.14	2015.20
356.35	1980.39
356.57	1847.27
356.79	1961.95
357.00	1937.38
357.22	1882.08
357.43	1804.26
357.65	1970.15
357.86	1826.79
358.08	1906.66
358.29	1953.76
358.51	1957.86
358.72	1910.75
358.94	1970.15
359.16	1910.75
359.37	1945.57
359.59	1996.77
359.80	2025.44
360.02	1961.95
360.23	1943.52
360.45	2025.44
360.66	1861.60
360.88	1896.42
361.09	1843.17
361.31	1992.67
361.52	2033.63
361.74	2068.45
361.95	2101.22
362.17	1882.08
362.38	2047.97
362.60	2136.03
362.81	1941.47
363.03	1927.14
363.24	1959.91
363.46	2129.89
363.67	2066.40
363.89	2035.68
364.10	1951.71
364.32	1994.72
364.53	2054.11
364.75	1884.13
364.96	2039.78
365.18	2019.30
365.39	1998.82
365.61	1961.95
365.82	2136.03
366.04	1970.15
366.25	1998.82
366.47	2060.26
366.68	2011.11
366.90	2007.01
367.11	2125.79
367.33	2052.06
367.54	2072.54
367.76	2013.15
367.97	2111.46
368.19	1998.82
368.40	1994.72
368.62	1935.33
368.83	1966.05
369.05	2004.96
369.26	1986.53
369.48	1984.48
369.69	2019.30
369.91	1970.15
370.12	2045.92
370.33	2199.52
370.55	1923.04
370.76	2047.97
370.98	2064.35
371.19	1966.05
371.41	2015.20
371.62	2045.92
371.84	1955.81
372.05	2115.55
372.27	2099.17
372.48	1992.67
372.69	2097.12
372.91	2133.98
373.12	2215.90
373.34	2068.45
373.55	2072.54
373.77	2195.42
373.98	2101.22
374.20	2209.76
374.41	2334.68
374.62	2140.13
374.84	2076.64
375.05	2185.18
375.27	2127.84
375.48	2185.18
375.70	2088.93
375.91	2191.33
376.12	2156.51
376.34	2246.62
376.55	2185.18
376.77	2160.61
376.98	2168.80
377.19	2070.50
377.41	2107.36
377.62	2205.66
377.84	2244.57
378.05	2340.83
378.27	2138.08
378.48	2281.44
378.69	2435.03
378.91	2260.96
379.12	2289.63
379.34	2191.33
379.55	2179.04
379.76	2252.77
379.98	2252.77
380.19	2228.19
380.41	2146.27
380.62	2295.77
380.83	2224.09
381.05	2199.52
381.26	2439.13
381.47	2293.72
381.69	2279.39
381.90	2369.50
382.12	2330.59
382.33	2279.39
382.54	2246.62
382.76	2220.00
382.97	2336.73
383.19	2222.05
383.40	2326.49
383.61	2314.20
383.83	2217.95
384.04	2265.05
384.25	2412.51
384.47	2379.74
384.68	2312.16
384.89	2365.40
385.11	2340.83
385.32	2303.96
385.54	2303.96
385.75	2328.54
385.96	2367.45
386.18	2463.71
386.39	2379.74
386.60	2471.90
386.82	2467.80
387.03	2420.70
387.24	2418.65
387.46	2463.71
387.67	2469.85
387.88	2516.95
388.10	2535.39
388.31	2516.95
388.52	2553.82
388.74	2486.23
388.95	2420.70
389.16	2488.28
389.38	2537.43
389.59	2594.78
389.80	2580.44
390.02	2533.34
390.23	2641.88
390.44	2492.38
390.66	2570.20
390.87	2543.58
391.08	2635.74
391.30	2641.88
391.51	2660.31
391.72	2531.29
391.94	2580.44
392.15	2598.87
392.36	2682.84
392.58	2668.50
392.79	2707.41
393.00	2668.50
393.22	2549.72
393.43	2789.33
393.64	2764.76
393.85	2875.35
394.07	2617.30
394.28	2691.03
394.49	2834.39
394.71	2713.56
394.92	2828.24
395.13	2738.13
395.35	2711.51
395.56	2723.80
395.77	2824.15
395.98	2766.81
396.20	2799.57
396.41	2803.67
396.62	2844.63
396.84	2721.75
397.05	2858.96
397.26	2877.40
397.47	2961.36
397.69	2740.18
397.90	3059.67
398.11	2930.64
398.32	2820.05
398.54	2768.85
398.75	2744.28
398.96	2871.25
399.18	3059.67
399.39	2910.16
399.60	2961.36
399.81	2951.12
400.03	2824.15
400.24	3125.20
400.45	2899.92
400.66	3057.62
400.88	2963.41
401.09	3203.02
401.30	3055.57
401.51	3112.91
401.73	3166.16
401.94	3129.30
402.15	3041.23
402.36	3108.82
402.58	3129.30
402.79	3114.96
403.00	2994.13
403.21	3117.01
403.43	3114.96
403.64	3229.65
403.85	3030.99
404.06	3215.31
404.27	3094.48
404.49	3250.13
404.70	3151.82
404.91	3282.89
405.12	3149.78
405.34	3309.52
405.55	3360.72
405.76	3078.10
405.97	3260.37
406.19	3319.76
406.40	3305.42
406.61	3280.85
406.82	3229.65
407.03	3301.33
407.25	3211.22
407.46	3301.33
407.67	3459.02
407.88	3391.44
408.09	3246.03
408.31	3352.52
408.52	3387.34
408.73	3358.67
408.94	3280.85
409.15	3469.26
409.37	3475.40
409.58	3452.88
409.79	3383.24
410.00	3487.69
410.21	3448.78
410.43	3467.21
410.64	3385.29
410.85	3557.32
411.06	3540.94
411.27	3571.66
411.48	3561.42
411.70	3563.47
411.91	3514.31
412.12	3637.19
412.33	3665.86
412.54	3555.27
412.76	3755.97
412.97	3706.82
413.18	3504.07
413.39	3575.75
413.60	3604.42
413.81	3653.58
414.03	3618.76
414.24	3620.81
414.45	3692.49
414.66	3567.56
414.87	3805.13
415.08	3571.66
415.30	3542.99
415.51	3768.26
415.72	3803.08
415.93	3831.75
416.14	3809.22
416.35	3743.69
416.56	3772.36
416.78	3831.75
416.99	3841.99
417.20	3811.27
417.41	3887.04
417.62	3985.35
417.83	3956.68
418.04	3917.76
418.26	3813.32
418.47	3792.84
418.68	3936.20
418.89	3897.28
419.10	4167.62
419.31	3934.15
419.52	4083.65
419.73	3991.49
419.95	4065.22
420.16	3975.11
420.37	3905.48
420.58	3958.72
420.79	3950.53
421.00	4151.23
421.21	4018.11
421.42	3983.30
421.63	4089.79
421.85	4106.18
422.06	4247.49
422.27	3979.20
422.48	4149.18
422.69	4167.62
422.90	4171.71
423.11	4136.90
423.32	4229.06
423.53	4401.08
423.75	4255.68
423.96	4489.15
424.17	4333.50
424.38	4380.61
424.59	4253.63
424.80	4444.09
425.01	4444.09
425.22	4483.00
425.43	4384.70
425.64	4550.59
425.85	4712.38
426.06	4595.64
426.28	4577.21
426.49	4401.08
426.70	4517.82
426.91	4587.45
427.12	4698.04
427.33	4595.64
427.54	4605.88
427.75	4663.22
427.96	4855.73
428.17	4804.53
428.38	4646.84
428.59	4751.29
428.80	4626.36
429.01	4853.69
429.23	4777.91
429.44	5038.00
429.65	4872.12
429.86	4906.93
430.07	4878.26
430.28	4911.03
430.49	4921.27
430.70	5015.48
430.91	5115.83
431.12	5017.52
431.33	5187.50
431.54	5117.87
431.75	5109.68
431.96	5103.54
432.17	5042.10
432.38	5093.30
432.59	5318.57
432.80	5279.66
433.01	5300.14
433.22	5167.03
433.43	5363.63
433.64	5392.30
433.85	5222.32
434.06	5406.64
434.27	5255.09
434.49	5404.59
434.70	5425.07
434.91	5371.82
435.12	5361.58
435.33	5459.88
435.54	5498.80
435.75	5210.03
435.96	5400.49
436.17	5408.69
436.38	5595.05
436.59	5535.66
436.80	5447.60
437.01	5771.18
437.22	5775.27
437.43	5408.69
437.64	5498.80
437.85	5660.59
438.06	5683.11
438.27	5648.30
438.48	5601.19
438.69	5877.67
438.90	5787.56
439.11	5689.26
439.32	5859.24
439.53	5973.92
439.74	5867.43
439.95	5855.14
440.16	5887.91
440.37	5937.06
440.57	5803.94
440.78	5937.06
440.99	5861.29
441.20	5865.38
441.41	5826.47
441.62	5861.29
441.83	5799.85
442.04	6010.79
442.25	5957.54
442.46	5791.66
442.67	5986.21
442.88	6371.23
443.09	5982.12
443.30	6031.27
443.51	6156.19
443.72	6432.67
443.93	6139.81
444.14	6248.35
444.35	6053.80
444.56	6234.02
444.77	6336.42
444.98	6191.01
445.19	6401.95
445.40	6348.70
445.61	6326.18
445.81	6426.53
446.02	6367.13
446.23	6279.07
446.44	6244.26
446.65	6459.29
446.86	6502.30
447.07	6360.99
447.28	6694.81
447.49	6557.60
447.70	6420.38
447.91	6649.75
448.12	6737.82
448.33	6717.34
448.54	6717.34
448.74	6651.80
448.95	6682.52
449.16	6678.43
449.37	6922.13
449.58	6770.58
449.79	7049.11
450.00	6686.62
450.21	6819.74
450.42	6977.43
450.63	6762.39
450.84	6930.33
451.05	6903.70
451.25	6897.56
451.46	7016.34
451.67	7131.03
451.88	7159.70
452.09	7161.75
452.30	7057.30
452.51	7034.77
452.72	7219.09
452.93	7489.42
453.13	7081.88
453.34	7030.68
453.55	7169.94
453.76	7184.27
453.97	7444.37
454.18	7243.67
454.39	7575.44
454.60	7483.28
454.81	7305.10
455.01	7575.44
455.22	7227.28
455.43	7423.89
455.64	7567.24
455.85	7667.60
456.06	7810.95
456.27	7761.80
456.48	7567.24
456.68	7671.69
456.89	7659.40
457.10	7739.27
457.31	8054.66
457.52	7999.37
457.73	7933.83
457.94	8138.63
458.14	7931.78
458.35	8320.90
458.56	8003.46
458.77	8073.09
458.98	8253.31
459.19	8370.05
459.39	8193.92
459.60	8292.23
459.81	8112.00
460.02	8462.21
460.23	8392.58
460.44	8671.10
460.65	8591.23
460.85	8818.55
461.06	8726.39
461.27	8466.30
461.48	8714.11
461.69	9000.82
461.89	8656.76
462.10	8857.46
462.31	8773.50
462.52	8624.00
462.73	8806.27
462.94	9111.41
463.14	9009.01
463.35	8955.77
463.56	9248.63
463.77	9394.03
463.98	9248.63
464.18	9305.97
464.39	9330.55
464.60	9400.18
464.81	9514.86
465.02	9310.07
465.23	9531.25
465.43	9414.51
465.64	9805.67
465.85	9447.28
466.06	9637.74
466.27	9897.83
466.47	9899.88
466.68	9856.87
466.89	9736.04
467.10	10094.44
467.30	9920.36
467.51	10266.47
467.72	10356.58
467.93	10159.97
468.14	10192.74
468.34	10547.04
468.55	10538.85
468.76	10479.46
468.97	10454.88
469.17	10565.47
469.38	10483.55
469.59	10833.75
469.80	10461.02
470.01	10839.90
470.21	10835.80
470.42	10989.40
470.63	11110.23
470.84	10854.23
471.04	11081.56
471.25	11175.77
471.46	11065.18
471.67	11407.19
471.87	11280.21
472.08	11439.95
472.29	11530.06
472.50	11368.27
472.70	11497.30
472.91	11730.76
473.12	11839.31
473.33	11755.34
473.53	11943.75
473.74	11841.36
473.95	12199.75
474.16	12300.10
474.36	12263.24
474.57	12269.38
474.78	12441.41
474.99	12291.91
475.19	12386.12
475.40	12654.40
475.61	12627.78
475.81	13016.89
476.02	13076.28
476.23	12732.22
476.44	13053.75
476.64	13520.69
476.85	13379.38
477.06	13403.96
477.27	13582.13
477.47	13575.98
477.68	13670.19
477.89	13862.70
478.09	13731.63
478.30	13827.88
478.51	13864.75
478.71	14036.78
478.92	14104.36
479.13	14350.12
479.34	14145.32
479.54	14380.84
479.75	14485.28
479.96	14663.46
480.16	14550.82
480.37	14544.67
480.58	14790.43
480.78	15240.98
480.99	14933.79
481.20	15120.15
481.41	15214.36
481.61	15380.25
481.82	15517.46
482.03	15410.96
482.23	15271.70
482.44	15626.00
482.65	15812.37
482.85	15914.77
483.06	15765.26
483.27	16109.32
483.47	16068.36
483.68	16240.39
483.89	16271.11
484.09	16338.69
484.30	16596.74
484.51	16520.96
484.71	16779.01
484.92	16664.32
485.13	16975.61
485.33	16807.68
485.54	17006.33
485.75	17028.86
485.95	17368.82
486.16	17219.32
486.37	17583.86
486.57	17153.79
486.78	17524.47
486.98	17639.15
487.19	17708.79
487.40	17870.58
487.60	18036.46
487.81	18192.11
488.02	18077.42
488.22	18218.73
488.43	18048.75
488.64	18224.87
488.84	18370.28
489.05	18337.51
489.25	18515.69
489.46	18591.46
489.67	18845.41
489.87	18859.74
490.08	18992.86
490.29	18941.66
490.49	19502.81
490.70	18953.95
490.90	19261.15
491.11	19410.65
491.32	19576.53
491.52	19592.92
491.73	19543.77
491.94	19748.56
492.14	19713.75
492.35	20055.76
492.55	20027.09
492.76	20176.59
492.97	20262.60
493.17	20287.18
493.38	20469.45
493.58	20754.12
493.79	20594.37
494.00	20770.50
494.20	20537.03
494.41	20618.95
494.61	20786.88
494.82	20874.95
495.02	20991.68
495.23	21274.30
495.44	21067.45
495.64	21311.16
495.85	21237.44
496.05	21591.73
496.26	21417.66
496.47	21665.46
496.67	21567.16
496.88	22013.62
497.08	21620.41
497.29	22212.27
497.49	21972.66
497.70	22079.15
497.91	22138.54
498.11	22345.39
498.32	22083.25
498.52	22505.13
498.73	22728.36
498.93	22570.66
499.14	22734.50
499.34	22740.64
499.55	22875.81
499.76	22742.69
499.96	22937.25
500.17	23049.89
500.37	23041.70
500.58	23189.15
500.78	23051.94
500.99	23086.75
501.19	23488.15
501.40	23518.87
501.60	23324.32
501.81	23744.15
502.02	23355.04
502.22	23629.46
502.43	23637.66
502.63	24055.44
502.84	24063.63
503.04	23791.25
503.25	23922.32
503.45	24231.57
503.66	24372.88
503.86	24053.39
504.07	24389.26
504.27	24217.23
504.48	24710.79
504.68	24583.82
504.89	24942.21
505.09	24768.13
505.30	24997.51
505.50	24848.00
505.71	25060.99
505.91	24708.74
506.12	24870.53
506.32	25089.67
506.53	25075.33
506.73	25155.20
506.94	25081.47
507.14	25241.21
507.35	25519.74
507.55	25159.30
507.76	25728.63
507.96	25187.97
508.17	25788.02
508.37	25196.16
508.58	25607.80
508.78	25720.44
508.99	26336.88
509.19	25960.05
509.40	25970.29
509.60	25917.04
509.81	26214.00
510.01	26062.45
510.22	26324.59
510.42	26226.29
510.63	26150.51
510.83	26234.48
511.04	26338.93
511.24	26709.61
511.44	26367.60
511.65	26373.74
511.85	26541.68
512.06	26814.05
512.26	26725.99
512.47	26914.41
512.67	26699.37
512.88	26769.00
513.08	26484.33
513.29	27092.58
513.49	27039.33
513.69	26865.25
513.90	27043.43
514.10	27434.59
514.31	27373.15
514.51	27194.98
514.72	27248.22
514.92	27111.01
515.13	27332.19
515.33	27285.09
515.53	27274.85
515.74	27725.40
515.94	27858.52
516.15	28130.90
516.35	27602.52
516.56	27774.55
516.76	28102.23
516.96	27901.53
517.17	28216.91
517.37	27811.42
517.58	27930.20
517.78	28048.98
517.99	28188.24
518.19	28040.79
518.39	28761.67
518.60	28530.25
518.80	28466.77
519.01	28634.70
519.21	28776.01
519.41	28646.99
519.62	28935.75
519.82	28808.78
520.03	28761.67
520.23	28859.98
520.43	28675.66
520.64	29140.55
520.84	29251.14
521.05	29156.93
521.25	29013.57
521.45	29679.16
521.66	29517.37
521.86	29425.22
522.07	29507.13
522.27	29662.78
522.47	29398.59
522.68	30012.98
522.88	29560.38
523.08	30166.58
523.29	29906.49
523.49	29933.11
523.70	29963.83
523.90	30352.94
524.10	30150.20
524.31	30656.04
524.51	30379.57
524.71	30733.87
524.92	30555.69
525.12	30385.71
525.33	30654.00
525.53	30871.08
525.73	31256.10
525.94	30711.34
526.14	30760.49
526.34	31424.03
526.55	31387.17
526.75	31260.20
526.95	31508.00
527.16	31315.49
527.36	31319.59
527.56	31551.01
527.77	32040.47
527.97	31747.61
528.17	31798.81
528.38	31874.59
528.58	32083.48
528.78	32658.96
528.99	32155.16
529.19	32577.04
529.39	32302.61
529.60	32243.22
529.80	32661.01
530.00	32681.49
530.21	32749.07
530.41	33121.80
530.61	33115.65
530.82	32976.39
531.02	32650.77
531.22	33216.01
531.43	33148.42
531.63	33336.84
531.83	33308.16
532.04	33910.27
532.24	33531.39
532.44	33916.41
532.64	34119.16
532.85	33971.71
533.05	33949.18
533.25	33834.49
533.46	34031.10
533.66	34184.69
533.86	34272.76
534.07	34723.31
534.27	34745.84
534.47	35073.51
534.67	34733.55
534.88	34498.03
535.08	34887.15
535.28	34805.23
535.49	34993.64
535.69	35167.72
535.89	35175.91
536.09	35579.36
536.30	35423.72
536.50	35462.63
536.70	35681.76
536.91	35585.50
537.11	35773.92
537.31	35964.38
537.51	35589.60
537.72	36548.05
537.92	36097.50
538.12	36484.56
538.32	36115.93
538.53	36619.73
538.73	36234.71
538.93	36845.01
539.13	36804.05
539.34	36601.30
539.54	36357.59
539.74	37045.71
539.94	36767.18
540.15	37033.42
540.35	37262.79
540.55	37189.06
540.75	37311.94
540.96	37567.94
541.16	37393.86
541.36	37690.82
541.56	37270.98
541.77	37893.57
541.97	37418.44
542.17	37993.92
542.37	37993.92
542.58	38159.80
542.78	37776.83
542.98	37918.14
543.18	38462.90
543.38	38221.24
543.59	38602.16
543.79	38143.42
543.99	38172.09
544.19	38708.66
544.40	38514.10
544.60	39085.48
544.80	38704.56
545.00	38557.11
545.20	39105.96
545.41	38745.52
545.61	38817.20
545.81	39216.55
546.01	38948.27
546.21	39177.64
546.42	39126.44
546.62	38972.85
546.82	39396.77
547.02	39570.85
547.22	39599.52
547.43	39058.86
547.63	39933.34
547.83	39450.02
548.03	39019.95
548.23	39832.99
548.44	40142.24
548.64	39654.82
548.84	39906.72
549.04	39724.45
549.24	40306.07
549.45	40420.76
549.65	39675.30
549.85	40422.81
550.05	40461.72
550.25	40287.64
550.45	40867.22
550.66	40717.71
550.86	40293.79
551.06	40549.78
551.26	40648.08
551.46	40781.20
551.66	40742.29
551.87	41051.53
552.07	40992.14
552.27	40609.17
552.47	40992.14
552.67	41133.45
552.87	41084.30
553.07	40910.22
553.28	41110.92
553.48	41207.18
553.68	40887.70
553.88	41692.55
554.08	41166.22
554.28	41244.04
554.48	41516.42
554.69	41530.76
554.89	41557.38
555.09	41387.40
555.29	41538.95
555.49	41645.44
555.69	41545.09
555.89	41778.56
556.10	42186.11
556.30	41950.59
556.50	41915.78
556.70	41737.60
556.90	41846.15
557.10	41756.03
557.30	41743.75
557.50	42372.47
557.70	41975.17
557.91	42374.52
558.11	42169.72
558.31	42380.67
558.51	42333.56
558.71	42452.34
558.91	42458.49
559.11	42261.88
559.31	42505.59
559.51	42421.62
559.72	42593.65
559.92	42354.04
560.12	42114.43
560.32	42679.67
560.52	42622.33
560.72	42743.16
560.92	42911.09
561.12	42767.73
561.32	42734.96
561.52	42759.54
561.72	43070.83
561.93	42878.32
562.13	42798.45
562.33	42685.81
562.53	43439.47
562.73	42861.94
562.93	42939.76
563.13	43390.31
563.33	42966.38
563.53	43294.06
563.73	42724.72
563.93	43572.58
564.13	43629.93
564.33	43183.47
564.53	43511.14
564.74	43519.34
564.94	43275.63
565.14	43332.97
565.34	43378.03
565.54	43554.15
565.74	43582.82
565.94	43564.39
566.14	43550.06
566.34	43634.02
566.54	44250.46
566.74	43742.56
566.94	43996.51
567.14	43904.35
567.34	43849.06
567.54	44037.47
567.74	43920.74
567.94	44066.14
568.14	44260.70
568.34	44246.36
568.54	44207.45
568.74	44002.66
568.94	44170.59
569.14	44522.84
569.34	44103.01
569.54	44115.29
569.75	44336.48
569.95	44316.00
570.15	45149.52
570.35	44684.63
570.55	44553.56
570.75	44641.62
570.95	44619.10
571.15	44799.32
571.35	45114.70
571.55	45028.69
571.75	44569.94
571.95	44946.77
572.15	44653.91
572.35	45157.71
572.55	44936.53
572.75	45049.17
572.95	44807.51
573.15	44987.73
573.35	45079.89
573.55	45030.74
573.75	45323.60
573.95	45403.47
574.15	45395.28
574.35	45669.70
574.55	45374.80
574.75	45208.91
574.95	45839.68
575.15	45290.83
575.34	45737.29
575.54	45860.16
575.74	45626.70
575.94	46185.79
576.14	45428.04
576.34	46093.63
576.54	45935.94
576.74	46413.12
576.94	45917.51
577.14	46153.02
577.34	46466.36
577.54	46097.73
577.74	46294.33
577.94	46423.36
578.14	46290.24
578.34	46603.58
578.54	45987.14
578.74	46167.36
578.94	46441.79
579.14	46337.34
579.34	46486.84
579.54	46351.68
579.74	46804.28
579.94	46634.30
580.13	46693.69
580.33	46882.10
580.53	47123.76
580.73	46896.44
580.93	47076.66
581.13	46800.18
581.33	47355.18
581.53	47480.11
581.73	47072.56
581.93	47146.29
582.13	47619.37
582.33	47959.33
582.53	47285.55
582.73	47441.20
582.92	47797.54
583.12	47918.37
583.32	47740.20
583.52	47510.83
583.72	47928.61
583.92	47748.39
584.12	47551.79
584.32	48162.08
584.52	47959.33
584.72	47975.72
584.92	48127.27
585.11	48157.99
585.31	48264.48
585.51	48600.35
585.71	47969.57
585.91	49124.63
586.11	48217.38
586.31	48487.71
586.51	48678.17
586.71	48403.74
586.91	48708.89
587.10	48545.05
587.30	48940.31
587.50	48831.77
587.70	48891.16
587.90	48829.72
588.10	48669.98
588.30	49034.52
588.50	49247.50
588.69	49167.63
588.89	48958.74
589.09	49476.88
589.29	49001.75
589.49	49581.32
589.69	48907.54
589.89	49339.66
590.08	49597.71
590.28	49511.69
590.48	49605.90
590.68	49384.72
590.88	49171.73
591.08	49491.21
591.28	49356.05
591.47	49677.58
591.67	49673.48
591.87	49667.34
592.07	49796.36
592.27	49931.53
592.47	49562.89
592.67	49767.69
592.86	49808.65
593.06	50341.12
593.26	49575.18
593.46	49921.29
593.66	50009.35
593.86	50320.64
594.05	50353.41
594.25	50332.93
594.45	50246.91
594.65	50117.89
594.85	50349.31
595.05	50414.85
595.24	50361.60
595.44	50660.60
595.64	50609.40
595.84	50337.02
596.04	50455.81
596.23	50851.06
596.43	51305.71
596.63	50877.69
596.83	50883.83
597.03	51287.28
597.22	51047.67
597.42	51328.24
597.62	51064.05
597.82	51129.59
598.02	51500.27
598.21	51537.13
598.41	50877.69
598.61	50994.42
598.81	51197.17
599.01	51739.88
599.20	51455.21
599.40	51592.43
599.60	52122.85
599.80	51709.16
600.00	51649.77
600.19	51934.44
600.39	51530.99
600.59	51803.37
600.79	51786.99
600.98	51823.85
601.18	52042.98
601.38	52004.07
601.58	52485.34
601.78	52096.23
601.97	52329.70
602.17	52622.56
602.37	52765.91
602.57	52544.73
602.76	52464.86
602.96	52743.39
603.16	52577.50
603.36	52620.51
603.55	52886.74
603.75	52624.60
603.95	52677.85
604.15	52583.65
604.34	52858.07
604.54	53009.62
604.74	53253.33
604.94	53044.44
605.13	53007.58
605.33	53267.67
605.53	53353.68
605.73	53470.42
605.92	53085.40
606.12	53765.32
606.32	53781.71
606.52	53249.24
606.71	53486.80
606.91	53837.00
607.11	53474.51
607.30	53298.39
607.50	53404.88
607.70	54256.84
607.90	53765.32
608.09	53609.68
608.29	53648.59
608.49	54396.10
608.68	53849.29
608.88	53830.86
609.08	54238.40
609.28	54148.29
609.47	53542.10
609.67	54414.53
609.87	54049.99
610.06	54369.47
610.26	54156.49
610.46	54394.05
610.66	53980.36
610.85	54529.22
611.05	54516.93
611.25	54375.62
611.44	53890.25
611.64	54293.70
611.84	53990.60
612.03	53900.49
612.23	54764.73
612.43	54179.01
612.62	54351.04
612.82	54901.95
613.02	54445.25
613.21	54289.60
613.41	54074.57
613.61	54666.43
613.80	54285.51
614.00	54621.37
614.20	54414.53
614.39	54760.64
614.59	54703.29
614.79	54502.59
614.98	54523.07
615.18	54248.64
615.38	54645.95
615.57	54652.09
615.77	55129.27
615.97	54826.17
616.16	54459.58
616.36	54715.58
616.56	55209.14
616.75	54973.63
616.95	53959.88
617.15	54711.49
617.34	54543.55
617.54	54222.02
617.74	54877.37
617.93	54621.37
618.13	54480.06
618.32	54691.01
618.52	54392.00
618.72	55121.08
618.91	54543.55
619.11	54013.13
619.31	55080.12
619.50	54461.63
619.70	54498.50
619.90	55030.97
620.09	54899.90
620.29	54701.25
620.48	54553.79
620.68	55059.64
620.88	54703.29
621.07	54744.25
621.27	54949.05
621.46	54574.27
621.66	54658.24
621.86	55143.61
622.05	54738.11
622.25	55098.55
622.44	54860.99
622.64	54660.29
622.84	54504.64
623.03	54572.22
623.23	54799.55
623.42	54752.44
623.62	54815.93
623.82	55065.78
624.01	55116.98
624.21	54760.64
624.40	54445.25
624.60	54236.36
624.80	54533.31
624.99	54656.19
625.19	54588.61
625.38	55018.68
625.58	54813.88
625.77	54842.56
625.97	54764.73
626.17	54549.70
626.36	54551.74
626.56	55039.16
626.75	54299.84
626.95	55188.66
627.14	54645.95
627.34	54779.07
627.54	54926.52
627.73	54514.88
627.93	54576.32
628.12	54432.96
628.32	54777.02
628.51	54834.36
628.71	54373.57
628.90	54310.08
629.10	54541.50
629.30	54867.13
629.49	55024.82
629.69	54174.92
629.88	54338.75
630.08	54750.40
630.27	54934.71
630.47	54944.95
630.66	54736.06
630.86	54815.93
631.05	54334.66
631.25	54822.08
631.44	54600.89
631.64	54895.80
631.84	54955.19
632.03	55278.77
632.23	54557.89
632.42	54949.05
632.62	54834.36
632.81	54441.15
633.01	54887.61
633.20	55194.81
633.40	54768.83
633.59	55368.88
633.79	54803.64
633.98	55258.29
634.18	55203.00
634.37	55329.97
634.57	55274.68
634.76	55180.47
634.96	54891.71
635.15	55162.04
635.35	55125.17
635.54	54916.28
635.74	55403.70
635.93	54660.29
636.13	55178.42
636.32	55035.06
636.52	54985.91
636.71	54707.39
636.91	55004.34
637.10	55053.50
637.30	55155.89
637.49	55106.74
637.69	55047.35
637.88	55723.18
638.08	54944.95
638.27	55397.55
638.46	54891.71
638.66	54766.78
638.85	54961.34
639.05	55276.72
639.24	55694.51
639.44	54953.15
639.63	55418.03
639.83	55970.99
640.02	55438.51
640.22	55153.85
640.41	55577.78
640.61	54842.56
640.80	55213.24
640.99	55608.50
641.19	55585.97
641.38	55317.68
641.58	55465.14
641.77	55772.33
641.97	55293.11
642.16	55377.08
642.36	55446.71
642.55	55569.58
642.74	55065.78
642.94	55833.77
643.13	55295.16
643.33	55555.25
643.52	55639.22
643.72	55385.27
643.91	55655.60
644.10	55362.74
644.30	55921.83
644.49	55719.09
644.69	56065.19
644.88	55903.40
645.08	55682.22
645.27	55944.36
645.46	55598.26
645.66	56212.65
645.85	55596.21
646.05	55631.02
646.24	56024.23
646.43	55841.96
646.63	55899.31
646.82	55811.24
647.02	55936.17
647.21	55784.62
647.40	55729.33
647.60	56155.30
647.79	56444.07
647.99	55954.60
648.18	55768.24
648.37	56251.56
648.57	56196.26
648.76	55760.05
648.96	55895.21
649.15	56153.26
649.34	55882.92
649.54	56173.73
649.73	55973.03
649.92	56382.63
650.12	56429.73
650.31	56368.29
650.51	56517.79
650.70	56317.09
650.89	55907.50
651.09	57037.98
651.28	56599.71
651.47	56095.91
651.67	56358.05
651.86	56792.22
652.06	55921.83
652.25	56360.10
652.44	56636.58
652.64	56030.38
652.83	56081.58
653.02	56222.89
653.22	56239.27
653.41	56179.88
653.60	55948.46
653.80	56204.45
653.99	56771.74
654.18	56390.82
654.38	56513.70
654.57	56652.96
654.76	56167.59
654.96	56313.00
655.15	56507.55
655.34	56487.07
655.54	55856.30
655.73	56325.28
655.92	56925.34
656.12	56474.79
656.31	56767.65
656.50	56597.66
656.70	56898.72
656.89	56485.03
657.08	56947.87
657.28	56599.71
657.47	56616.10
657.66	57056.41
657.86	56497.31
658.05	56736.93
658.24	56749.21
658.43	56591.52
658.63	56804.51
658.82	56382.63
659.01	57078.94
659.21	56888.48
659.40	56571.04
659.59	56425.64
659.79	56861.85
659.98	56736.93
660.17	56927.39
660.36	57130.14
660.56	57009.31
660.75	56751.26
660.94	56947.87
661.14	57062.55
661.33	56487.07
661.52	56636.58
661.71	57177.24
661.91	56890.52
662.10	56579.23
662.29	56999.07
662.49	56595.62
662.68	56982.68
662.87	57300.12
663.06	56999.07
663.26	56650.91
663.45	57549.97
663.64	56859.80
663.83	57310.36
664.03	56763.55
664.22	57173.14
664.41	56939.68
664.60	56247.46
664.80	56837.28
664.99	56861.85
665.18	57226.39
665.37	57025.69
665.57	56900.76
665.76	56759.45
665.95	57382.04
666.14	57138.33
666.34	57103.51
666.53	57320.60
666.72	56898.72
666.91	56652.96
667.11	57037.98
667.30	56980.63
667.49	56763.55
667.68	57242.77
667.87	56892.57
668.07	56812.70
668.26	56454.31
668.45	56906.91
668.64	56448.16
668.84	57808.01
669.03	57248.92
669.22	57029.79
669.41	57107.61
669.60	56644.77
669.80	56759.45
669.99	56818.84
670.18	57040.03
670.37	56960.15
670.57	57390.23
670.76	56874.14
670.95	57431.19
671.14	57281.69
671.33	56865.95
671.53	57152.66
671.72	56644.77
671.91	57181.34
672.10	56853.66
672.29	57093.27
672.48	56673.44
672.68	57210.01
672.87	57205.91
673.06	56827.04
673.25	56695.97
673.44	56530.08
673.64	56876.19
673.83	56595.62
674.02	56259.75
674.21	56591.52
674.40	56562.85
674.59	56630.43
674.79	56710.30
674.98	56448.16
675.17	56745.12
675.36	56515.75
675.55	56798.37
675.74	56597.66
675.94	56349.86
676.13	56992.92
676.32	56964.25
676.51	56757.41
676.70	57095.32
676.89	56616.10
677.08	56704.16
677.28	56427.68
677.47	56865.95
677.66	56800.41
677.85	56980.63
678.04	57013.40
678.23	56679.58
678.42	56431.78
678.62	56353.96
678.81	56960.15
679.00	56460.45
679.19	57267.35
679.38	56769.69
679.57	56366.24
679.76	56728.73
679.96	56917.15
680.15	56843.42
680.34	56759.45
680.53	56632.48
680.72	56900.76
680.91	56728.73
681.10	56595.62
681.29	56646.82
681.48	56607.90
681.68	56243.37
681.87	56396.96
682.06	56429.73
682.25	56018.09
682.44	56100.01
682.63	56847.52
682.82	56362.15
683.01	56274.09
683.20	56263.85
683.39	56439.97
683.59	56140.97
683.78	55930.03
683.97	56147.11
684.16	56079.53
684.35	55876.78
684.54	55966.89
684.73	55983.27
684.92	55645.36
685.11	56261.80
685.30	55680.17
685.49	56562.85
685.69	55981.23
685.88	55735.47
686.07	56159.40
686.26	55870.64
686.45	55841.96
686.64	56247.46
686.83	55925.93
687.02	56284.33
687.21	56194.21
687.40	55616.69
687.59	56116.39
687.78	56057.00
687.97	55780.52
688.16	56317.09
688.35	55753.90
688.54	56083.62
688.74	55553.20
688.93	55723.18
689.12	55690.41
689.31	55362.74
689.50	56071.34
689.69	55846.06
689.88	55518.38
690.07	55315.64
690.26	55452.85
690.45	55970.99
690.64	55645.36
690.83	55491.76
691.02	55473.33
691.21	54969.53
691.40	55293.11
691.59	55786.67
691.78	55317.68
691.97	55487.67
692.16	55153.85
692.35	55852.20
692.54	55182.52
692.73	55764.14
692.92	55362.74
693.11	55475.38
693.30	54922.43
693.49	55350.45
693.68	55203.00
693.87	55176.37
694.06	55426.23
694.25	55145.65
694.44	55024.82
694.63	55415.99
694.82	55534.77
695.01	55110.84
695.20	55114.94
695.39	54811.84
695.58	55215.29
695.77	54834.36
695.96	55100.60
696.15	54764.73
696.34	54635.71
696.53	55012.54
696.72	54965.43
696.91	54834.36
697.10	54912.19
697.29	54473.92
697.48	55098.55
697.67	54746.30
697.86	54467.78
698.05	54723.77
698.24	54871.23
698.43	54441.15
698.62	54752.44
698.81	54523.07
699.00	54650.05
699.19	54394.05
699.38	54344.90
699.57	54033.61
699.76	54748.35
699.95	54283.46
700.14	54168.77
700.32	54111.43
700.51	54498.50
700.70	54695.10
700.89	54465.73
701.08	54408.39
701.27	53978.31
701.46	54510.78
701.65	53662.93
701.84	53953.74
702.03	54000.84
702.22	54136.01
702.41	54283.46
702.60	54064.33
702.79	54015.18
702.98	53925.07
703.17	53648.59
703.35	53822.67
703.54	53947.59
703.73	54049.99
703.92	54015.18
704.11	53769.42
704.30	53675.21
704.49	53599.44
704.68	53306.58
704.87	53689.55
705.06	53126.36
705.25	53343.44
705.43	53662.93
705.62	53587.15
705.81	53484.75
706.00	53433.55
706.19	52813.02
706.38	53251.28
706.57	53206.23
706.76	53263.57
706.95	53544.14
707.14	53511.38
707.32	53464.27
707.51	53236.95
707.70	52962.52
707.89	52718.81
708.08	53200.08
708.27	53224.66
708.46	53435.60
708.65	53263.57
708.84	53005.53
709.02	53257.43
709.21	52983.00
709.40	53277.91
709.59	53384.40
709.78	52405.47
709.97	52792.54
710.16	52618.46
710.34	52671.71
710.53	53026.01
710.72	52618.46
710.91	52909.27
711.10	53077.21
711.29	52821.21
711.48	52612.32
711.66	52540.64
711.85	52352.23
712.04	52712.67
712.23	52585.69
712.42	52675.80
712.61	52686.04
712.80	52223.20
712.98	52384.99
713.17	52139.24
713.36	52524.25
713.55	52581.60
713.74	52323.55
713.93	52290.79
714.11	52153.57
714.30	52110.56
714.49	52258.02
714.68	52090.09
714.87	52395.23
715.06	52141.28
715.24	51821.80
715.43	51686.64
715.62	51748.07
715.81	52004.07
716.00	51817.71
716.18	51860.71
716.37	51506.41
716.56	51930.34
716.75	52057.32
716.94	51739.88
717.12	51674.35
717.31	51516.65
717.50	51713.26
717.69	51021.05
717.88	51541.23
718.06	51418.35
718.25	51711.21
718.44	50900.22
718.63	50844.92
718.82	50889.98
719.00	51250.42
719.19	51375.34
719.38	51107.06
719.57	50447.61
719.76	50285.82
719.94	50572.54
720.13	50722.04
720.32	51012.85
720.51	50715.90
720.69	50701.56
720.88	50306.30
721.07	50689.27
721.26	50289.92
721.44	50560.25
721.63	50337.02
721.82	49804.55
722.01	50156.80
722.20	50468.09
722.38	50208.00
722.57	49423.63
722.76	50117.89
722.95	49886.47
723.13	49210.64
723.32	49534.22
723.51	49435.92
723.70	49118.48
723.88	49657.10
724.07	49782.02
724.26	49960.20
724.44	48948.50
724.63	49698.06
724.82	49863.94
725.01	49329.42
725.19	49245.46
725.38	49143.06
725.57	49227.02
725.76	49542.41
725.94	48698.65
726.13	49011.99
726.32	49009.94
726.51	48921.88
726.69	49204.50
726.88	49265.94
727.07	48921.88
727.25	48526.62
727.44	49063.19
727.63	48596.25
727.82	49102.10
728.00	48698.65
728.19	48708.89
728.38	49153.30
728.56	48065.83
728.75	48805.14
728.94	48932.12
729.12	49061.14
729.31	49206.55
729.50	48784.66
729.69	48862.49
729.87	48755.99
730.06	48477.47
730.25	48723.22
730.43	49192.21
730.62	48368.93
730.81	48989.46
730.99	48799.00
731.18	48456.99
731.37	49157.39
731.55	49231.12
731.74	48854.29
731.93	49175.83
732.11	48981.27
732.30	48506.14
732.49	48528.67
732.67	48637.21
732.86	48866.58
733.05	48743.70
733.23	48579.87
733.42	49018.13
733.61	48659.74
733.79	48428.32
733.98	48848.15
734.17	48588.06
734.35	48522.52
734.54	48921.88
734.73	48489.76
734.91	48452.89
735.10	48147.75
735.29	49042.71
735.47	48237.86
735.66	48682.27
735.84	48514.33
736.03	48526.62
736.22	48522.52
736.40	48258.34
736.59	48764.18
736.78	48651.55
736.96	48301.34
737.15	48157.99
737.33	47838.50
737.52	47998.24
737.71	48176.42
737.89	47844.65
738.08	47443.24
738.27	47613.23
738.45	47856.93
738.64	47834.41
738.82	48186.66
739.01	48121.12
739.20	47785.25
739.38	47912.23
739.57	47783.21
739.75	48184.61
739.94	47631.66
740.13	47748.39
740.31	47570.22
740.50	47762.73
740.68	47834.41
740.87	48200.99
741.06	48092.45
741.24	47998.24
741.43	47482.16
741.61	47637.80
741.80	47086.90
741.99	47283.50
742.17	47592.75
742.36	47580.46
742.54	47076.66
742.73	47385.90
742.91	47875.37
743.10	47578.41
743.29	47519.02
743.47	47545.64
743.66	47316.27
743.84	47330.61
744.03	47410.48
744.21	47195.44
744.40	47514.92
744.59	46884.15
744.77	47230.26
744.96	47322.41
745.14	47478.06
745.33	47211.82
745.51	47047.99
745.70	47162.67
745.88	47435.05
746.07	46804.28
746.26	46579.00
746.44	46783.80
746.63	46916.92
746.81	47361.33
747.00	46523.71
747.18	46933.30
747.37	46931.25
747.55	46886.20
747.74	46738.74
747.92	46626.10
748.11	46535.99
748.29	46568.76
748.48	46421.31
748.66	46544.19
748.85	46402.88
749.03	46689.59
749.22	46581.05
749.41	46228.80
749.59	46335.29
749.78	46038.34
749.96	45620.55
750.15	46200.13
750.33	46050.63
750.52	46337.34
750.70	46167.36
750.89	45927.75
751.07	45933.89
751.26	46042.43
751.44	45661.51
751.63	46058.82
751.81	46243.13
752.00	45880.64
752.18	45964.61
752.37	46069.06
752.55	45442.38
752.74	45876.55
752.92	45524.30
753.10	45360.46
753.29	45360.46
753.47	45495.63
753.66	45262.16
753.84	45677.90
754.03	45407.56
754.21	45438.28
754.40	45466.95
754.58	45643.08
754.77	45266.25
754.95	44860.76
755.14	44801.36
755.32	45178.19
755.51	44719.45
755.69	45075.79
755.88	44954.96
756.06	45094.22
756.24	45110.61
756.43	44590.42
756.61	44967.25
756.80	44856.66
756.98	44629.34
757.17	44615.00
757.35	44651.86
757.54	44512.60
757.72	44694.87
757.90	44500.31
758.09	44578.14
758.27	44256.60
758.46	44336.48
758.64	44367.20
758.83	44424.54
759.01	44827.99
759.19	44553.56
759.38	44543.32
759.56	44488.03
759.75	44582.23
759.93	44340.57
760.12	44270.94
760.30	44471.64
760.48	44160.35
760.67	43756.90
760.85	44176.73
761.04	44256.60
761.22	44025.18
761.40	44242.27
761.59	44426.59
761.77	43898.21
761.96	43611.49
762.14	43910.50
762.32	43482.47
762.51	43703.65
762.69	43634.02
762.88	44074.34
763.06	44029.28
763.24	43738.47
763.43	44051.81
763.61	43371.88
763.80	43722.08
763.98	43478.38
764.16	43451.75
764.35	43222.38
764.53	42859.89
764.72	43165.04
764.90	43269.48
765.08	43234.67
765.27	43369.83
765.45	43193.71
765.63	42655.09
765.82	43640.17
766.00	43263.34
766.18	43128.17
766.37	42970.48
766.55	43398.51
766.74	42986.86
766.92	42947.95
767.10	42786.16
767.29	43085.17
767.47	42450.30
767.65	42607.99
767.84	42417.53
768.02	42843.51
768.20	42374.52
768.39	42280.31
768.57	42136.96
768.75	42302.84
768.94	42251.64
769.12	42149.24
769.30	41807.23
769.49	42247.55
769.67	42134.91
769.85	41465.22
770.04	41923.97
770.22	41934.21
770.40	41325.96
770.59	41833.86
770.77	42159.48
770.95	41893.25
771.14	41563.53
771.32	41520.52
771.50	41227.66
771.69	41444.74
771.87	41428.36
772.05	41381.26
772.24	41008.53
772.42	41622.92
772.60	40963.47
772.78	41057.68
772.97	41162.12
773.15	41041.29
773.33	41131.40
773.52	40922.51
773.70	41203.08
773.88	41397.64
774.07	41006.48
774.25	41086.35
774.43	41360.78
774.61	41182.60
774.80	41227.66
774.98	41282.95
775.16	41418.12
775.34	41006.48
775.53	41094.54
775.71	41438.60
775.89	41190.80
776.08	41364.87
776.26	41295.24
776.44	41440.65
776.62	41362.82
776.81	41180.56
776.99	41575.81
777.17	41289.10
777.35	41362.82
777.54	41473.42
777.72	41244.04
777.90	40873.36
778.08	41635.20
778.27	41270.67
778.45	41735.56
778.63	41637.25
778.81	41227.66
779.00	42126.72
779.18	41502.09
779.36	41784.71
779.54	41563.53
779.73	41690.50
779.91	41907.58
780.09	41541.00
780.27	41727.36
780.46	41999.74
780.64	41821.57
780.82	41749.89
781.00	41729.41
781.19	41731.46
781.37	41973.12
781.55	41827.71
781.73	42243.45
781.91	42075.52
782.10	42298.75
782.28	42403.19
782.46	42184.06
782.64	42325.37
782.82	42440.06
783.01	42184.06
783.19	42339.71
783.37	42079.61
783.55	41928.06
783.74	41932.16
783.92	41805.19
784.10	42456.44
784.28	42198.40
784.46	42126.72
784.64	42184.06
784.83	42114.43
785.01	42616.18
785.19	42167.68
785.37	42382.71
785.55	42333.56
785.74	41772.42
785.92	41829.76
786.10	42214.78
786.28	42206.59
786.46	41991.55
786.64	41500.04
786.83	41545.09
787.01	42005.89
787.19	41899.39
787.37	41940.35
787.55	41946.50
787.74	41530.76
787.92	41932.16
788.10	41594.25
788.28	41336.20
788.46	41874.82
788.64	41176.46
788.82	41762.18
789.01	41575.81
789.19	41737.60
789.37	41416.07
789.55	41563.53
789.73	40916.37
789.91	40879.50
790.09	40883.60
790.28	40990.09
790.46	40830.35
790.64	40830.35
790.82	40711.57
791.00	41022.86
791.18	40666.52
791.36	40398.23
791.55	40689.04
791.73	40543.64
791.91	40175.00
792.09	40514.97
792.27	40326.55
792.45	40154.52
792.63	40310.17
792.81	39843.23
793.00	39734.69
793.18	40074.65
793.36	40007.07
793.54	39798.18
793.72	39781.79
793.90	39357.86
794.08	39312.81
794.26	39290.28
794.44	39482.79
794.62	38997.42
794.81	39478.69
794.99	39286.18
795.17	39130.54
795.35	39245.23
795.53	39294.38
795.71	39415.21
795.89	38710.71
796.07	38503.86
796.25	38475.19
796.43	38184.38
796.61	38139.32
796.80	38184.38
796.98	38694.32
797.16	38264.25
797.34	38290.87
797.52	37961.15
797.70	38317.50
797.88	37735.87
798.06	37938.62
798.24	37701.06
798.42	37934.53
798.60	37594.56
798.78	37459.40
798.96	37627.33
799.14	37617.09
799.32	37598.66
799.51	36984.27
799.69	37176.78
799.87	37139.91
800.05	37160.39
800.23	37053.90
800.41	36808.14
800.59	36675.02
800.77	36672.98
800.95	36376.02
801.13	36926.92
801.31	36505.04
801.49	35988.95
801.67	36126.17
801.85	35948.00
802.03	36015.58
802.21	36005.34
802.39	36054.49
802.57	35612.13
802.75	35505.63
802.93	35943.90
803.11	35272.17
803.29	35802.59
803.47	35139.05
803.65	35368.42
803.83	35491.30
804.01	35227.11
804.19	34874.86
804.37	35153.38
804.55	35206.63
804.73	34971.11
804.91	35046.89
805.09	34971.11
805.27	34792.94
805.45	34883.05
805.63	35034.60
805.81	34809.32
805.99	34543.09
806.17	34631.15
806.35	34674.16
806.53	34520.56
806.71	34536.94
806.89	34332.15
807.07	34334.20
807.25	34285.04
807.43	34141.69
807.61	34250.23
807.79	33992.19
807.97	33736.19
808.15	33850.88
808.33	33482.24
808.51	33603.07
808.69	33451.52
808.87	33127.94
809.05	33168.90
809.23	33156.61
809.41	32951.82
809.59	33138.18
809.77	33502.72
809.95	33328.64
810.13	33146.37
810.31	32830.99
810.49	32935.43
810.67	33140.23
810.84	32861.71
811.02	33035.78
811.20	32630.29
811.38	32460.30
811.56	32579.09
811.74	32421.39
811.92	32560.66
812.10	32570.90
812.28	32904.71
812.46	32134.68
812.64	32118.29
812.82	32116.25
813.00	32106.01
813.18	31979.03
813.36	32261.65
813.53	31948.31
813.71	32005.66
813.89	31555.10
814.07	31700.51
814.25	32040.47
814.43	31653.40
814.61	31870.49
814.79	31528.48
814.97	31290.91
815.15	31151.65
815.33	30973.48
815.50	30975.53
815.68	31243.81
815.86	31225.38
816.04	31157.80
816.22	30950.95
816.40	31200.80
816.58	31022.63
816.76	30744.11
816.94	30625.32
817.11	30805.55
817.29	30934.57
817.47	30299.70
817.65	30926.38
817.83	30688.81
818.01	30572.08
818.19	30488.11
818.37	30516.78
818.54	30340.66
818.72	29943.35
818.90	30438.96
819.08	29980.21
819.26	29935.16
819.44	29838.90
819.62	29845.05
819.80	29865.53
819.97	29988.41
820.15	29580.86
820.33	29640.25
820.51	29738.55
820.69	29756.99
820.87	29730.36
821.05	29740.60
821.22	29578.81
821.40	29570.62
821.58	29449.79
821.76	29300.29
821.94	29132.36
822.12	29304.38
822.29	29382.21
822.47	29175.36
822.65	29781.56
822.83	29386.30
823.01	29023.81
823.19	29066.82
823.36	28868.17
823.54	28714.57
823.72	28782.15
823.90	29140.55
824.08	28913.22
824.25	28896.84
824.43	28776.01
824.61	28603.98
824.79	28608.08
824.97	28800.58
825.15	28972.61
825.32	28548.68
825.50	28724.81
825.68	28593.74
825.86	28976.71
826.04	28446.29
826.21	28610.12
826.39	28407.37
826.57	28307.02
826.75	28380.75
826.93	27786.84
827.10	28415.57
827.28	28081.75
827.46	28071.51
827.64	28053.08
827.81	27692.63
827.99	28108.37
828.17	27829.85
828.35	27727.45
828.53	27702.87
828.70	27786.84
828.88	27856.47
829.06	27723.35
829.24	27706.97
829.41	27813.46
829.59	27735.64
829.77	27534.94
829.95	27211.36
830.12	27467.36
830.30	27172.45
830.48	27813.46
830.66	27567.71
830.84	27414.11
831.01	27250.27
831.19	27356.77
831.37	27137.63
831.55	26846.82
831.72	26986.08
831.90	27135.59
832.08	27192.93
832.25	26908.26
832.43	26953.32
832.61	27018.85
832.79	26654.31
832.96	26701.42
833.14	26928.74
833.32	26959.46
833.50	27055.72
833.67	26865.25
833.85	26736.23
834.03	26498.67
834.20	26801.77
834.38	26791.53
834.56	26910.31
834.74	26521.20
834.91	26596.97
835.09	26488.43
835.27	26066.55
835.44	26273.39
835.62	25878.13
835.80	26324.59
835.98	26216.05
836.15	26445.42
836.33	26318.45
836.51	26543.72
836.68	26107.51
836.86	26390.13
837.04	25845.37
837.21	26211.95
837.39	25980.53
837.57	26322.54
837.75	26490.48
837.92	25593.47
838.10	25628.28
838.28	25599.61
838.45	25865.85
838.63	25507.45
838.81	25697.91
838.98	25597.56
839.16	25745.02
839.34	25577.08
839.51	25650.81
839.69	25179.78
839.87	25288.32
840.04	25511.55
840.22	25462.40
840.40	25374.33
840.57	25380.48
840.75	25316.99
840.93	24782.47
841.10	25405.05
841.28	25568.89
841.46	25132.67
841.63	25120.38
841.81	25198.21
841.98	25282.17
842.16	25136.77
842.34	25220.74
842.51	24721.03
842.69	25267.84
842.87	25007.75
843.04	24598.15
843.22	24854.15
843.40	24893.06
843.57	24624.78
843.75	24622.73
843.92	24968.84
844.10	24819.33
844.28	24602.25
844.45	24512.14
844.63	24700.55
844.81	24827.53
844.98	24841.86
845.16	24436.36
845.33	24557.19
845.51	24397.45
845.69	24376.97
845.86	24528.52
846.04	24272.53
846.21	24491.66
846.39	24221.33
846.57	24385.16
846.74	24546.95
846.92	24202.89
847.09	23901.84
847.27	23969.43
847.45	24206.99
847.62	24280.72
847.80	24032.91
847.97	24090.26
848.15	24131.22
848.32	23852.69
848.50	23905.94
848.68	23750.29
848.85	23805.59
849.03	23604.89
849.20	23961.23
849.38	23539.35
849.56	23758.49
849.73	23416.47
849.91	23658.14
850.08	23727.77
850.26	23551.64
850.43	23553.69
850.61	23453.34
850.78	23201.44
850.96	23473.82
851.14	23223.97
851.31	23578.26
851.49	23293.60
851.66	23307.93
851.84	23461.53
852.01	23410.33
852.19	23123.62
852.36	22965.92
852.54	23140.00
852.71	23201.44
852.89	23215.77
853.07	23305.88
853.24	23363.23
853.42	23084.70
853.59	23051.94
853.77	23205.53
853.94	22970.02
854.12	23275.16
854.29	22857.38
854.47	22812.32
854.64	22832.80
854.82	22855.33
854.99	22984.35
855.17	22693.54
855.34	22566.57
855.52	22959.78
855.69	22972.07
855.87	22458.03
856.04	22503.08
856.22	22455.98
856.39	22398.63
856.57	22554.28
856.74	22275.76
856.92	22636.20
857.09	22120.11
857.27	22433.45
857.44	22650.53
857.62	22283.95
857.79	22486.70
857.97	22337.20
858.14	22116.01
858.32	22322.86
858.49	22126.25
858.67	22171.31
858.84	21925.55
859.02	21991.09
859.19	22451.88
859.37	22050.48
859.54	21882.55
859.72	22075.06
859.89	21771.96
860.06	22337.20
860.24	21825.20
860.41	22138.54
860.59	21851.83
860.76	21980.85
860.94	21542.58
861.11	22165.17
861.29	21796.53
861.46	21747.38
861.64	21380.79
861.81	21620.41
861.98	21661.37
862.16	21444.28
862.33	21495.48
862.51	21339.83
862.68	21788.34
862.86	21450.42
863.03	21550.78
863.21	21317.31
863.38	21614.26
863.55	21436.09
863.73	21651.13
863.90	21384.89
864.08	21130.94
864.25	21022.40
864.43	21208.76
864.60	21180.09
864.77	20963.01
864.95	21266.11
865.12	20969.15
865.30	21116.61
865.47	20922.05
865.64	20598.47
865.82	20944.58
865.99	21096.13
866.17	21008.06
866.34	21112.51
866.51	20680.39
866.69	20704.96
866.86	20823.75
867.04	20881.09
867.21	20692.68
867.38	20637.38
867.56	20686.53
867.73	20395.72
867.91	20516.55
868.08	20274.89
868.25	20487.88
868.43	20465.35
868.60	20473.54
868.78	20209.36
868.95	20586.18
869.12	20362.95
869.30	20174.54
869.47	20281.03
869.64	20213.45
869.82	20211.40
869.99	20061.90
870.16	20436.68
870.34	20393.67
870.51	20098.77
870.69	20109.01
870.86	19961.55
871.03	20250.32
871.21	19984.08
871.38	20033.23
871.55	20049.61
871.73	19857.10
871.90	19840.72
872.07	19633.88
872.25	19896.02
872.42	19523.29
872.59	19672.79
872.77	19640.02
872.94	19551.96
873.11	19461.85
873.29	19631.83
873.46	19355.35
873.63	19111.64
873.81	19470.04
873.98	19240.67
874.15	19590.87
874.33	18994.91
874.50	19453.66
874.67	18984.67
874.85	19074.78
875.02	18792.16
875.19	18910.94
875.37	18978.53
875.54	18788.07
875.71	18771.68
875.88	18908.90
876.06	18945.76
876.23	18786.02
876.40	18685.67
876.58	18779.87
876.75	18730.72
876.92	18390.76
877.10	18616.04
877.27	18460.39
877.44	18534.12
877.61	18474.73
877.79	18556.64
877.96	18245.35
878.13	18444.01
878.31	18251.50
878.48	18210.54
878.65	18124.52
878.82	18075.37
879.00	18015.98
879.17	18308.84
879.34	18282.22
879.51	17964.78
879.69	18042.60
879.86	18065.13
880.03	18097.90
880.21	17833.71
880.38	18153.20
880.55	17725.17
880.72	17678.07
880.90	18210.54
881.07	18024.17
881.24	17932.01
881.41	17909.49
881.59	17790.70
881.76	17688.31
881.93	17481.46
882.10	17612.53
882.28	17336.06
882.45	17473.27
882.62	17579.76
882.79	17616.63
882.96	17172.22
883.14	17569.52
883.31	17762.03
883.48	17145.59
883.65	17409.78
883.83	17452.79
884.00	17280.76
884.17	17452.79
884.34	17178.36
884.51	17219.32
884.69	17311.48
884.86	17190.65
885.03	17391.35
885.20	16942.85
885.38	17149.69
885.55	16979.71
885.72	17256.18
885.89	17184.51
886.06	17030.91
886.24	17061.63
886.41	16996.09
886.58	17364.73
886.75	17166.07
886.92	16824.06
887.10	17325.82
887.27	16973.56
887.44	16750.34
887.61	17233.66
887.78	17049.34
887.95	17266.42
888.13	16793.34
888.30	16897.79
888.47	16592.64
888.64	16764.67
888.81	16811.78
888.99	16645.89
889.16	16594.69
889.33	16566.02
889.50	16322.31
889.67	16797.44
889.84	16588.55
890.01	16469.76
890.19	16572.16
890.36	16461.57
890.53	16246.54
890.70	16426.76
890.87	16258.82
891.04	16420.61
891.22	16242.44
891.39	16197.38
891.56	16168.71
891.73	16160.52
891.90	16207.62
892.07	15888.14
892.24	16150.28
892.42	16011.02
892.59	15920.91
892.76	16107.27
892.93	15916.81
893.10	16039.69
893.27	16078.60
893.44	15988.49
893.61	15787.79
893.79	15728.40
893.96	15836.94
894.13	16154.38
894.30	15988.49
894.47	16137.99
894.64	15912.72
894.81	15759.12
894.98	15740.69
895.15	16047.88
895.33	15656.72
895.50	15742.74
895.67	15947.53
895.84	15636.24
896.01	16004.88
896.18	15810.32
896.35	15611.67
896.52	15644.43
896.69	15703.82
896.86	15544.08
897.04	15795.98
897.21	15611.67
897.38	15669.01
897.55	15757.07
897.72	15759.12
897.89	15757.07
898.06	15642.39
898.23	15554.32
898.40	15779.60
898.57	15582.99
898.74	15574.80
898.91	15449.88
899.08	15601.43
899.26	15554.32
899.43	15476.50
899.60	15415.06
899.77	15669.01
899.94	15507.22
900.11	15548.18
900.28	15591.19
900.45	15466.26
900.62	15298.33
900.79	15798.03
900.96	15677.20
901.13	15470.36
901.30	15566.61
901.47	15304.47
901.64	15656.72
901.81	15714.06
901.98	15294.23
902.15	15718.16
902.32	15318.81
902.49	15591.19
902.66	15499.03
902.83	15535.89
903.01	15271.70
903.18	15537.94
903.35	15474.45
903.52	15529.75
903.69	15552.27
903.86	15529.75
904.03	15679.25
904.20	15740.69
904.37	15439.64
904.54	15357.72
904.71	15580.95
904.88	15240.98
905.05	15556.37
905.22	15523.60
905.39	15468.31
905.56	15275.80
905.73	15392.53
905.90	15560.47
906.07	15566.61
906.24	15623.95
906.41	15447.83
906.58	15490.84
906.75	15410.96
906.92	15245.08
907.09	15345.43
907.26	15408.92
907.43	15453.97
907.60	15273.75
907.77	15347.48
907.93	15327.00
908.10	15374.10
908.27	15642.39
908.44	15085.34
908.61	15243.03
908.78	15212.31
908.95	15372.05
909.12	15460.12
909.29	15138.58
909.46	15365.91
909.63	15353.62
909.80	15222.55
909.97	15191.83
910.14	15267.61
910.31	15230.74
910.48	15179.54
910.65	15427.35
910.82	15177.50
910.99	15060.76
911.16	15075.10
911.33	15052.57
911.50	14935.84
911.66	15032.09
911.83	15118.11
912.00	15013.66
912.17	14876.44
912.34	15118.11
912.51	15038.23
912.68	14862.11
912.85	14937.88
913.02	14933.79
913.19	14577.44
913.36	14751.52
913.53	14843.68
913.70	14868.25
913.86	14843.68
914.03	14946.08
914.20	14583.59
914.37	14624.54
914.54	14739.23
914.71	14475.04
914.88	14759.71
915.05	14468.90
915.22	14585.63
915.39	14331.69
915.55	14436.13
915.72	14450.47
915.89	14300.97
916.06	14106.41
916.23	14323.49
916.40	14090.02
916.57	14120.74
916.74	14214.95
916.91	14169.90
917.07	14186.28
917.24	13864.75
917.41	14151.46
917.58	14032.68
917.75	14063.40
917.92	13774.64
918.09	14051.11
918.26	13934.38
918.42	13643.57
918.59	13836.08
918.76	13655.86
918.93	13471.54
919.10	13412.15
919.27	13514.55
919.44	13596.46
919.60	13784.88
919.77	13389.62
919.94	13475.63
920.11	13477.68
920.28	13547.31
920.45	13438.77
920.61	13078.33
920.78	13182.77
920.95	13102.90
921.12	13172.54
921.29	13043.51
921.46	13063.99
921.62	12853.05
921.79	13363.00
921.96	12902.20
922.13	13225.78
922.30	12990.27
922.47	12894.01
922.63	12871.48
922.80	12617.54
922.97	12607.30
923.14	12578.62
923.31	12613.44
923.47	12625.73
923.64	12906.30
923.81	12564.29
923.98	12447.55
924.15	12580.67
924.32	12300.10
924.48	12414.79
924.65	12367.68
924.82	12173.13
924.99	12136.26
925.15	12130.12
925.32	12193.61
925.49	11855.69
925.66	12025.67
925.83	11968.33
925.99	11855.69
926.16	12019.53
926.33	11904.84
926.50	11671.37
926.67	11667.28
926.83	11853.64
927.00	11671.37
927.17	11632.46
927.34	11517.78
927.50	11657.04
927.67	11530.06
927.84	11317.08
928.01	11310.93
928.17	11296.60
928.34	11280.21
928.51	11327.32
928.68	11274.07
928.84	11186.01
929.01	11003.74
929.18	10964.82
929.35	11081.56
929.51	11284.31
929.68	10880.86
929.85	10848.09
930.02	10825.56
930.18	10905.43
930.35	10729.31
930.52	10880.86
930.69	10567.52
930.85	10647.39
931.02	10456.93
931.19	10491.74
931.36	10514.27
931.52	10456.93
931.69	10436.45
931.86	10344.29
932.02	10319.71
932.19	10168.16
932.36	10383.20
932.53	10104.68
932.69	10123.11
932.86	10129.25
933.03	10096.49
933.19	10110.82
933.36	9924.46
933.53	9983.85
933.70	9791.34
933.86	9633.64
934.03	9611.12
934.20	9584.49
934.36	9523.05
934.53	9361.27
934.70	9252.72
934.86	9377.65
935.03	9287.54
935.20	9170.80
935.36	9174.90
935.53	9275.25
935.70	9129.84
935.86	9095.03
936.03	8873.85
936.20	8646.52
936.36	8736.63
936.53	8568.70
936.70	8607.61
936.86	8828.79
937.03	8613.76
937.20	8406.91
937.36	8462.21
937.53	8236.93
937.70	8071.04
937.86	8050.57
938.03	7962.50
938.20	7980.93
938.36	7841.67
938.53	7651.21
938.70	7577.48
938.86	7559.05
939.03	7518.09
939.20	7413.65
939.36	7503.76
939.53	7440.27
939.70	7380.88
939.86	6977.43
940.03	6991.77
940.19	7016.34
940.36	6854.55
940.53	6918.04
940.69	6731.67
940.86	6809.50
941.03	6600.60
941.19	6494.11
941.36	6537.12
941.52	6559.64
941.69	6334.37
941.86	6320.03
942.02	6227.87
942.19	6313.89
942.35	6270.88
942.52	6186.91
942.69	6078.37
942.85	6098.85
943.02	6002.60
943.18	5969.83
943.35	5986.21
943.52	5900.20
943.68	5838.76
943.85	5793.70
944.01	5670.83
944.18	5711.78
944.35	5803.94
944.51	5683.11
944.68	5545.90
944.84	5435.31
945.01	5386.16
945.17	5662.63
945.34	5564.33
945.51	5578.67
945.67	5545.90
945.84	5621.67
946.00	5371.82
946.17	5351.34
946.33	5337.01
946.50	5552.04
946.67	5439.40
946.83	5470.12
947.00	5396.40
947.16	5492.65
947.33	5308.34
947.49	5511.08
947.66	5216.18
947.82	5380.01
947.99	5392.30
948.16	5279.66
948.32	5328.81
948.49	5513.13
948.65	5494.70
948.82	5269.42
948.98	5345.20
949.15	5369.77
949.31	5367.73
949.48	5433.26
949.64	5441.45
949.81	5347.25
949.97	5291.95
950.14	5361.58
950.30	5289.90
950.47	5363.63
950.63	5380.01
950.80	5523.37
950.96	5455.79
951.13	5349.29
951.30	5306.29
951.46	5472.17
951.63	5554.09
951.79	5351.34
951.96	5480.36
952.12	5517.23
952.29	5459.88
952.45	5291.95
952.62	5361.58
952.78	5408.69
952.94	5509.04
953.11	5461.93
953.27	5402.54
953.44	5543.85
953.60	5347.25
953.77	5576.62
953.93	5332.91
954.10	5492.65
954.26	5386.16
954.43	5433.26
954.59	5525.42
954.76	5629.87
954.92	5652.39
955.09	5574.57
955.25	5601.19
955.42	5527.47
955.58	5558.19
955.75	5599.15
955.91	5388.21
956.07	5474.22
956.24	5621.67
956.40	5699.50
956.57	5590.95
956.73	5459.88
956.90	5484.46
957.06	5506.99
957.23	5539.76
957.39	5650.35
957.56	5521.32
957.72	5586.86
957.88	5431.21
958.05	5687.21
958.21	5636.01
958.38	5539.76
958.54	5496.75
958.71	5603.24
958.87	5517.23
959.03	5496.75
959.20	5513.13
959.36	5455.79
959.53	5527.47
959.69	5521.32
959.85	5582.76
960.02	5449.64
960.18	5562.28
960.35	5586.86
960.51	5601.19
960.68	5474.22
960.84	5560.24
961.00	5517.23
961.17	5525.42
961.33	5402.54
961.50	5554.09
961.66	5541.80
961.82	5535.66
961.99	5492.65
962.15	5476.27
962.31	5443.50
962.48	5472.17
962.64	5468.08
962.81	5578.67
962.97	5513.13
963.13	5586.86
963.30	5429.17
963.46	5461.93
963.62	5547.95
963.79	5400.49
963.95	5472.17
964.12	5396.40
964.28	5496.75
964.44	5357.49
964.61	5398.45
964.77	5509.04
964.93	5486.51
965.10	5267.38
965.26	5347.25
965.42	5367.73
965.59	5439.40
965.75	5410.73
965.92	5506.99
966.08	5386.16
966.24	5406.64
966.41	5435.31
966.57	5312.43
966.73	5400.49
966.90	5218.22
967.06	5332.91
967.22	5377.97
967.39	5246.90
967.55	5347.25
967.71	5316.53
967.88	5324.72
968.04	5244.85
968.20	5154.74
968.37	5261.23
968.53	5021.62
968.69	5351.34
968.85	5117.87
969.02	5273.52
969.18	5150.64
969.34	5234.61
969.51	5128.11
969.67	5232.56
969.83	5175.22
970.00	5253.04
970.16	5146.55
970.32	5044.15
970.48	5316.53
970.65	5072.82
970.81	5167.03
970.97	5015.48
971.14	5007.28
971.30	5093.30
971.46	5134.26
971.63	5017.52
971.79	4911.03
971.95	5040.05
972.11	4984.76
972.28	5060.53
972.44	5115.83
972.60	4974.52
972.76	5074.87
972.93	4966.32
973.09	5083.06
973.25	4894.65
973.42	4878.26
973.58	4992.95
973.74	4935.60
973.90	5050.29
974.07	4976.56
974.23	4845.49
974.39	4911.03
974.55	4976.56
974.72	4796.34
974.88	4810.68
975.04	4984.76
975.20	4847.54
975.37	4812.73
975.53	4812.73
975.69	5040.05
975.85	4708.28
976.01	4857.78
976.18	4784.06
976.34	4853.69
976.50	4898.74
976.66	4876.21
976.83	4755.38
976.99	4739.00
977.15	4714.42
977.31	4622.27
977.47	4751.29
977.64	4779.96
977.80	4722.62
977.96	4704.18
978.12	4607.93
978.29	4638.65
978.45	4544.44
978.61	4599.74
978.77	4739.00
978.93	4462.52
979.10	4536.25
979.26	4536.25
979.42	4583.35
979.58	4380.61
979.74	4583.35
979.91	4474.81
980.07	4444.09
980.23	4493.24
980.39	4589.50
980.55	4458.43
980.71	4415.42
980.88	4374.46
981.04	4415.42
981.20	4470.72
981.36	4601.79
981.52	4462.52
981.68	4464.57
981.85	4464.57
982.01	4374.46
982.17	4515.77
982.33	4374.46
982.49	4587.45
982.65	4296.64
982.82	4376.51
982.98	4401.08
983.14	4343.74
983.30	4552.63
983.46	4382.65
983.62	4362.17
983.79	4239.30
983.95	4224.96
984.11	4231.10
984.27	4175.81
984.43	4302.78
984.59	4265.92
984.75	4317.12
984.91	4280.25
985.08	4364.22
985.24	4257.73
985.40	4095.94
985.56	4177.86
985.72	4290.49
985.88	4345.79
986.04	4077.51
986.20	4147.14
986.37	4169.66
986.53	4001.73
986.69	4052.93
986.85	4100.03
987.01	4224.96
987.17	4108.23
987.33	4153.28
987.49	3917.76
987.65	4106.18
987.82	4009.92
987.98	3889.09
988.14	3960.77
988.30	4022.21
988.46	3895.24
988.62	3977.16
988.78	3897.28
988.94	3905.48
989.10	3909.57
989.26	3708.87
989.42	3909.57
989.59	3694.54
989.75	3917.76
989.91	3971.01
990.07	3856.33
990.23	3747.78
990.39	3778.50
990.55	3839.94
990.71	3805.13
990.87	3805.13
991.03	3837.89
991.19	3919.81
991.35	3776.45
991.51	3764.17
991.67	3870.66
991.83	3788.74
992.00	3815.37
992.16	3815.37
992.32	3698.63
992.48	3710.92
992.64	3573.71
992.80	3682.25
992.96	3719.11
993.12	3710.92
993.28	3811.27
993.44	3663.82
993.60	3803.08
993.76	3674.06
993.92	3604.42
994.08	3624.90
994.24	3686.34
994.40	3557.32
994.56	3661.77
994.72	3547.08
994.88	3561.42
995.04	3504.07
995.20	3551.18
995.36	3542.99
995.52	3624.90
995.68	3559.37
995.84	3444.68
996.00	3647.43
996.16	3489.74
996.32	3510.22
996.48	3475.40
996.64	3590.09
996.80	3424.20
996.96	3377.10
997.12	3530.70
997.28	3385.29
997.44	3411.92
997.60	3567.56
997.76	3467.21
997.92	3407.82
998.08	3514.31
998.24	3252.17
998.40	3438.54
998.56	3428.30
998.72	3360.72
998.88	3354.57
999.04	3395.53
999.20	3385.29
999.36	3327.95
999.52	3479.50
999.68	3346.38
999.84	3332.05
1000.00	3313.61
1000.16	3213.26
1000.32	3354.57
1000.48	3411.92
1000.64	3196.88
1000.80	3340.24
1000.95	3174.35
1001.11	3305.42
1001.27	3157.97
1001.43	3227.60
1001.59	3194.83
1001.75	3198.93
1001.91	3178.45
1002.07	3092.43
1002.23	3135.44
1002.39	3190.74
1002.55	3168.21
1002.71	3203.02
1002.87	3117.01
1003.03	3129.30
1003.19	3127.25
1003.34	3250.13
1003.50	3188.69
1003.66	3153.87
1003.82	3127.25
1003.98	3051.47
1004.14	3162.06
1004.30	3106.77
1004.46	2926.55
1004.62	3096.53
1004.78	3055.57
1004.94	3078.10
1005.09	3139.54
1005.25	3047.38
1005.41	2975.70
1005.57	2930.64
1005.73	2947.03
1005.89	2979.79
1006.05	3033.04
1006.21	3006.42
1006.37	2842.58
1006.52	2965.46
1006.68	2811.86
1006.84	2901.97
1007.00	2936.79
1007.16	2955.22
1007.32	2934.74
1007.48	3002.32
1007.64	3026.90
1007.79	2877.40
1007.95	2801.62
1008.11	2951.12
1008.27	2846.68
1008.43	2858.96
1008.59	2877.40
1008.75	2920.40
1008.91	2854.87
1009.06	2854.87
1009.22	2850.77
1009.38	2836.44
1009.54	2822.10
1009.70	2740.18
1009.86	2852.82
1010.01	2781.14
1010.17	2834.39
1010.33	2768.85
1010.49	2744.28
1010.65	2840.53
1010.81	2691.03
1010.96	2682.84
1011.12	2764.76
1011.28	2699.22
1011.44	2818.00
1011.60	2713.56
1011.76	2717.65
1011.91	2748.37
1012.07	2645.98
1012.23	2609.11
1012.39	2691.03
1012.55	2711.51
1012.71	2748.37
1012.86	2596.82
1013.02	2721.75
1013.18	2639.83
1013.34	2609.11
1013.50	2676.70
1013.65	2617.30
1013.81	2492.38
1013.97	2586.58
1014.13	2699.22
1014.29	2574.30
1014.44	2705.37
1014.60	2658.26
1014.76	2537.43
1014.92	2590.68
1015.07	2551.77
1015.23	2582.49
1015.39	2650.07
1015.55	2555.86
1015.71	2549.72
1015.86	2422.75
1016.02	2449.37
1016.18	2443.23
1016.34	2594.78
1016.49	2506.71
1016.65	2617.30
1016.81	2449.37
1016.97	2410.46
1017.12	2537.43
1017.28	2486.23
1017.44	2408.41
1017.60	2412.51
1017.75	2551.77
1017.91	2494.43
1018.07	2437.08
1018.23	2455.51
1018.38	2459.61
1018.54	2420.70
1018.70	2498.52
1018.86	2437.08
1019.01	2443.23
1019.17	2387.93
1019.33	2484.19
1019.49	2387.93
1019.64	2385.88
1019.80	2439.13
1019.96	2457.56
1020.12	2398.17
1020.27	2297.82
1020.43	2449.37
1020.59	2441.18
1020.74	2422.75
1020.90	2373.60
1021.06	2373.60
1021.22	2338.78
1021.37	2396.12
1021.53	2297.82
1021.69	2432.99
1021.84	2226.14
1022.00	2336.73
1022.16	2283.49
1022.31	2318.30
1022.47	2363.36
1022.63	2437.08
1022.79	2222.05
1022.94	2246.62
1023.10	2340.83
1023.26	2326.49
1023.41	2316.25
1023.57	2254.81
1023.73	2308.06
1023.88	2269.15
1024.04	2260.96
1024.20	2236.38
1024.35	2275.29
1024.51	2207.71
1024.67	2246.62
1024.82	2373.60
1024.98	2181.09
1025.14	2289.63
1025.29	2195.42
1025.45	2256.86
1025.61	2174.94
1025.76	2232.29
1025.92	2199.52
1026.08	2226.14
1026.23	2234.33
1026.39	2285.53
1026.55	2273.25
1026.70	2109.41
1026.86	2174.94
1027.02	2242.53
1027.17	2220.00
1027.33	2228.19
1027.48	2156.51
1027.64	2066.40
1027.80	2211.81
1027.95	2258.91
1028.11	2080.74
1028.27	2125.79
1028.42	2211.81
1028.58	2121.70
1028.73	2035.68
1028.89	1859.56
1029.05	2226.14
1029.20	2172.89
>>>>>End Processed Spectral Data<<<<<
