SpectraSuite Data File
++++++++++++++++++++++++++++++++++++
Date: Fri Jun 02 14:51:08 CEST 2017
User: INFO_000
Dark Spectrum Present: No
Reference Spectrum Present: No
Number of Sampled Component Spectra: 1
Spectrometers: USB4H00879
Integration Time (usec): 80000 (USB4H00879)
Spectra Averaged: 1 (USB4H00879)
Boxcar Smoothing: 0 (USB4H00879)
Correct for Electrical Dark: No (USB4H00879)
Strobe/Lamp Enabled: No (USB4H00879)
Correct for Detector Non-linearity: No (USB4H00879)
Correct for Stray Light: No (USB4H00879)
Number of Pixels in Processed Spectrum: 3648
>>>>>Begin Processed Spectral Data<<<<<
345.13	1290.22
345.34	1290.22
345.56	1290.22
345.78	1269.74
345.99	1296.36
346.21	1742.82
346.42	1783.78
346.64	1613.80
346.86	1804.26
347.07	1652.71
347.29	1773.54
347.50	1562.60
347.72	1712.10
347.94	1839.08
348.15	1605.61
348.37	1617.90
348.59	1683.43
348.80	1587.18
349.02	1781.73
349.23	1847.27
349.45	1853.41
349.67	1847.27
349.88	1796.07
350.10	1961.95
350.31	1828.84
350.53	1779.68
350.75	1900.52
350.96	1783.78
351.18	1865.70
351.39	1816.55
351.61	1736.68
351.82	1933.28
352.04	1916.90
352.26	1863.65
352.47	1959.91
352.69	1910.75
352.90	1796.07
353.12	1806.31
353.34	1828.84
353.55	1912.80
353.77	1912.80
353.98	1898.47
354.20	1863.65
354.41	1910.75
354.63	1914.85
354.85	2111.46
355.06	1828.84
355.28	1714.15
355.49	1839.08
355.71	1933.28
355.92	1832.93
356.14	1918.95
356.35	1855.46
356.57	1882.08
356.79	1957.86
357.00	1822.69
357.22	1939.43
357.43	1863.65
357.65	2013.15
357.86	1853.41
358.08	1935.33
358.29	1910.75
358.51	1916.90
358.72	2002.91
358.94	1884.13
359.16	1910.75
359.37	1896.42
359.59	1933.28
359.80	1920.99
360.02	1927.14
360.23	1896.42
360.45	1988.58
360.66	1964.00
360.88	1841.12
361.09	2007.01
361.31	1957.86
361.52	1894.37
361.74	2084.83
361.95	2033.63
362.17	1882.08
362.38	2072.54
362.60	2039.78
362.81	1927.14
363.03	1861.60
363.24	1923.04
363.46	2080.74
363.67	2047.97
363.89	1996.77
364.10	1984.48
364.32	1914.85
364.53	1984.48
364.75	1828.84
364.96	2037.73
365.18	1945.57
365.39	1964.00
365.61	1929.19
365.82	2076.64
366.04	2084.83
366.25	1822.69
366.47	2084.83
366.68	2074.59
366.90	2015.20
367.11	2011.11
367.33	2090.98
367.54	2021.35
367.76	2021.35
367.97	2058.21
368.19	1998.82
368.40	2127.84
368.62	1894.37
368.83	1941.47
369.05	1998.82
369.26	1976.29
369.48	2027.49
369.69	1929.19
369.91	1990.63
370.12	1972.19
370.33	2078.69
370.55	1920.99
370.76	2093.02
370.98	2043.87
371.19	2070.50
371.41	2002.91
371.62	1966.05
371.84	1955.81
372.05	2123.74
372.27	1990.63
372.48	2058.21
372.69	2035.68
372.91	2093.02
373.12	2148.32
373.34	2041.82
373.55	2058.21
373.77	2150.37
373.98	2054.11
374.20	2146.27
374.41	2279.39
374.62	2131.94
374.84	2197.47
375.05	2123.74
375.27	2191.33
375.48	2109.41
375.70	2111.46
375.91	2131.94
376.12	2263.01
376.34	2115.55
376.55	2271.20
376.77	2246.62
376.98	2131.94
377.19	2158.56
377.41	2156.51
377.62	2170.85
377.84	2185.18
378.05	2234.33
378.27	2176.99
378.48	2295.77
378.69	2365.40
378.91	2242.53
379.12	2258.91
379.34	2215.90
379.55	2295.77
379.76	2281.44
379.98	2250.72
380.19	2189.28
380.41	2201.57
380.62	2295.77
380.83	2197.47
381.05	2170.85
381.26	2344.92
381.47	2207.71
381.69	2224.09
381.90	2359.26
382.12	2293.72
382.33	2234.33
382.54	2281.44
382.76	2265.05
382.97	2322.40
383.19	2207.71
383.40	2336.73
383.61	2271.20
383.83	2271.20
384.04	2256.86
384.25	2289.63
384.47	2400.22
384.68	2428.89
384.89	2234.33
385.11	2332.64
385.32	2334.68
385.54	2291.68
385.75	2353.12
385.96	2338.78
386.18	2365.40
386.39	2383.84
386.60	2320.35
386.82	2432.99
387.03	2355.16
387.24	2402.27
387.46	2389.98
387.67	2441.18
387.88	2398.17
388.10	2498.52
388.31	2469.85
388.52	2428.89
388.74	2486.23
388.95	2453.47
389.16	2502.62
389.38	2330.59
389.59	2514.91
389.80	2590.68
390.02	2494.43
390.23	2629.59
390.44	2516.95
390.66	2461.66
390.87	2416.60
391.08	2588.63
391.30	2605.02
391.51	2609.11
391.72	2703.32
391.94	2568.15
392.15	2557.91
392.36	2451.42
392.58	2539.48
392.79	2611.16
393.00	2656.22
393.22	2662.36
393.43	2652.12
393.64	2791.38
393.85	2648.02
394.07	2605.02
394.28	2627.54
394.49	2641.88
394.71	2686.94
394.92	2699.22
395.13	2531.29
395.35	2723.80
395.56	2607.06
395.77	2762.71
395.98	2688.98
396.20	2775.00
396.41	2797.53
396.62	2830.29
396.84	2768.85
397.05	2768.85
397.26	2811.86
397.47	2828.24
397.69	2746.33
397.90	2996.18
398.11	2727.89
398.32	2858.96
398.54	2772.95
398.75	2852.82
398.96	2889.68
399.18	2949.08
399.39	2877.40
399.60	2908.12
399.81	2924.50
400.03	2850.77
400.24	3153.87
400.45	2865.11
400.66	2987.99
400.88	2924.50
401.09	3043.28
401.30	3000.27
401.51	3114.96
401.73	3076.05
401.94	2992.08
402.15	3004.37
402.36	3059.67
402.58	3192.78
402.79	3084.24
403.00	3053.52
403.21	3108.82
403.43	3121.10
403.64	3205.07
403.85	3020.75
404.06	3170.26
404.27	3094.48
404.49	3170.26
404.70	3065.81
404.91	3106.77
405.12	3258.32
405.34	3160.02
405.55	3375.05
405.76	3069.91
405.97	3117.01
406.19	3307.47
406.40	3147.73
406.61	3293.13
406.82	3293.13
407.03	3274.70
407.25	3280.85
407.46	3303.37
407.67	3373.00
407.88	3456.97
408.09	3278.80
408.31	3284.94
408.52	3413.96
408.73	3375.05
408.94	3286.99
409.15	3313.61
409.37	3454.92
409.58	3444.68
409.79	3438.54
410.00	3418.06
410.21	3350.48
410.43	3379.15
410.64	3485.64
410.85	3475.40
411.06	3508.17
411.27	3547.08
411.48	3579.85
411.70	3477.45
411.91	3616.71
412.12	3588.04
412.33	3508.17
412.54	3514.31
412.76	3639.24
412.97	3655.62
413.18	3373.00
413.39	3581.90
413.60	3577.80
413.81	3575.75
414.03	3538.89
414.24	3608.52
414.45	3629.00
414.66	3551.18
414.87	3643.34
415.08	3567.56
415.30	3581.90
415.51	3598.28
415.72	3712.97
415.93	3635.14
416.14	3661.77
416.35	3727.30
416.56	3745.73
416.78	3813.32
416.99	3715.02
417.20	3696.58
417.41	3698.63
417.62	3792.84
417.83	3837.89
418.04	3766.21
418.26	3805.13
418.47	3796.93
418.68	3794.89
418.89	3942.34
419.10	3893.19
419.31	3827.65
419.52	3983.30
419.73	3764.17
419.95	4042.69
420.16	3833.80
420.37	3866.56
420.58	3979.20
420.79	3719.11
421.00	3946.44
421.21	3930.05
421.42	3950.53
421.63	4016.07
421.85	3991.49
422.06	4075.46
422.27	4065.22
422.48	4087.75
422.69	4050.88
422.90	4001.73
423.11	4067.27
423.32	4147.14
423.53	4274.11
423.75	4220.86
423.96	4317.12
424.17	4165.57
424.38	4321.21
424.59	4298.69
424.80	4458.43
425.01	4163.52
425.22	4196.29
425.43	4255.68
425.64	4378.56
425.85	4454.33
426.06	4388.80
426.28	4360.13
426.49	4315.07
426.70	4399.04
426.91	4396.99
427.12	4499.39
427.33	4448.19
427.54	4417.47
427.75	4483.00
427.96	4616.12
428.17	4530.11
428.38	4657.08
428.59	4693.94
428.80	4433.85
429.01	4790.20
429.23	4540.35
429.44	4849.59
429.65	4784.06
429.86	4593.59
430.07	4599.74
430.28	4640.70
430.49	4859.83
430.70	4800.44
430.91	5029.81
431.12	4898.74
431.33	4951.99
431.54	4861.88
431.75	4988.85
431.96	4874.17
432.17	4792.25
432.38	4933.56
432.59	5136.31
432.80	5083.06
433.01	5148.59
433.22	5121.97
433.43	5160.88
433.64	5066.67
433.85	5042.10
434.06	5238.70
434.27	5040.05
434.49	5144.50
434.70	5273.52
434.91	5310.38
435.12	5220.27
435.33	5306.29
435.54	5287.86
435.75	5160.88
435.96	5302.19
436.17	5136.31
436.38	5361.58
436.59	5400.49
436.80	5310.38
437.01	5511.08
437.22	5492.65
437.43	5384.11
437.64	5220.27
437.85	5603.24
438.06	5582.76
438.27	5515.18
438.48	5681.07
438.69	5642.15
438.90	5650.35
439.11	5533.61
439.32	5672.87
439.53	5754.79
439.74	5668.78
439.95	5697.45
440.16	5545.90
440.37	5728.17
440.57	5701.54
440.78	5740.46
440.99	5975.97
441.20	5760.94
441.41	5715.88
441.62	5889.96
441.83	5658.54
442.04	5904.29
442.25	6057.89
442.46	5887.91
442.67	6145.95
442.88	6346.66
443.09	5967.78
443.30	6041.51
443.51	6010.79
443.72	6393.76
443.93	5988.26
444.14	6391.71
444.35	6057.89
444.56	6207.39
444.77	6141.86
444.98	6281.12
445.19	6322.08
445.40	6385.57
445.61	6254.50
445.81	6408.09
446.02	6473.63
446.23	6250.40
446.44	6158.24
446.65	6416.29
446.86	6283.17
447.07	6399.90
447.28	6537.12
447.49	6457.25
447.70	6569.88
447.91	6727.58
448.12	6639.51
448.33	6616.99
448.54	6672.28
448.74	6590.36
448.95	6707.10
449.16	6633.37
449.37	6782.87
449.58	6748.06
449.79	6858.65
450.00	6623.13
450.21	6899.61
450.42	6678.43
450.63	6961.05
450.84	6668.19
451.05	6868.89
451.25	6739.87
451.46	6764.44
451.67	6999.96
451.88	7047.06
452.09	7038.87
452.30	6784.92
452.51	7049.11
452.72	7202.71
452.93	7524.24
453.13	6907.80
453.34	6934.42
453.55	7143.32
453.76	7057.30
453.97	7557.00
454.18	7323.54
454.39	7233.43
454.60	7348.11
454.81	7352.21
455.01	7444.37
455.22	7182.23
455.43	7331.73
455.64	7620.49
455.85	7597.96
456.06	7503.76
456.27	7522.19
456.48	7501.71
456.68	7593.87
456.89	7600.01
457.10	7765.90
457.31	7800.71
457.52	7833.48
457.73	7843.72
457.94	7997.32
458.14	7702.41
458.35	7978.89
458.56	7880.58
458.77	7804.81
458.98	7931.78
459.19	7909.26
459.39	8019.85
459.60	8030.09
459.81	8064.90
460.02	8216.45
460.23	8079.24
460.44	8269.70
460.65	8294.27
460.85	8355.71
461.06	8361.86
461.27	8165.25
461.48	8509.31
461.69	8632.19
461.89	8165.25
462.10	8458.11
462.31	8419.20
462.52	8456.06
462.73	8423.30
462.94	8830.84
463.14	8716.16
463.35	8589.18
463.56	9111.41
463.77	9029.49
463.98	8601.47
464.18	8818.55
464.39	9023.35
464.60	8953.72
464.81	9197.43
465.02	8959.86
465.23	9138.04
465.43	9152.37
465.64	9449.33
465.85	9232.24
466.06	9090.93
466.27	9504.62
466.47	9318.26
466.68	9473.90
466.89	9346.93
467.10	9576.30
467.30	9322.35
467.51	9512.81
467.72	9779.05
467.93	9635.69
468.14	9846.63
468.34	9961.32
468.55	9885.55
468.76	9998.18
468.97	9893.74
469.17	10033.00
469.38	10141.54
469.59	10211.17
469.80	10262.37
470.01	10252.13
470.21	10202.98
470.42	10493.79
470.63	10655.58
470.84	10383.20
471.04	10581.85
471.25	10667.87
471.46	10680.16
471.67	10895.19
471.87	10708.83
472.08	10745.69
472.29	11175.77
472.50	10835.80
472.70	10968.92
472.91	11046.74
473.12	11204.44
473.33	11151.19
473.53	11509.58
473.74	11298.64
473.95	11642.70
474.16	11581.26
474.36	11581.26
474.57	11882.31
474.78	12068.68
474.99	11710.29
475.19	11814.73
475.40	12130.12
475.61	12400.45
475.81	12439.36
476.02	12486.47
476.23	12246.85
476.44	12285.76
476.64	12754.75
476.85	12971.83
477.06	12836.67
477.27	12959.55
477.47	13227.83
477.68	13004.60
477.89	13254.45
478.09	13285.17
478.30	13137.72
478.51	13492.02
478.71	13649.71
478.92	13750.06
479.13	13684.53
479.34	13938.48
479.54	14063.40
479.75	14065.45
479.96	14151.46
480.16	14223.14
480.37	14225.19
480.58	14425.89
480.78	14485.28
480.99	14335.78
481.20	14663.46
481.41	15079.19
481.61	14950.17
481.82	15007.52
482.03	14878.49
482.23	15228.70
482.44	15316.76
482.65	15415.06
482.85	15386.39
483.06	15568.66
483.27	15533.84
483.47	15638.29
483.68	15568.66
483.89	16070.41
484.09	15863.57
484.30	16047.88
484.51	16049.93
484.71	16201.48
484.92	16303.88
485.13	16432.90
485.33	16570.12
485.54	16545.54
485.75	16789.25
485.95	16824.06
486.16	17276.66
486.37	17325.82
486.57	17073.92
486.78	17149.69
486.98	17102.59
487.19	17381.11
487.40	17682.16
487.60	17569.52
487.81	17757.94
488.02	17764.08
488.22	17669.87
488.43	17817.33
488.64	17917.68
488.84	18024.17
489.05	18177.77
489.25	17954.54
489.46	18409.19
489.67	18417.38
489.87	18736.87
490.08	18585.32
490.29	18847.46
490.49	19060.45
490.70	19279.58
490.90	19304.15
491.11	18986.72
491.32	19224.28
491.52	19451.61
491.73	19357.40
491.94	19605.20
492.14	19365.59
492.35	20045.52
492.55	19820.24
492.76	19955.41
492.97	19832.53
493.17	20129.48
493.38	20102.86
493.58	20291.27
493.79	20410.06
494.00	20319.95
494.20	20524.74
494.41	20731.59
494.61	20629.19
494.82	20745.92
495.02	20563.65
495.23	21063.36
495.44	20960.96
495.64	21219.00
495.85	21186.24
496.05	21364.41
496.26	21208.76
496.47	21636.79
496.67	21272.25
496.88	21728.95
497.08	21515.96
497.29	21528.25
497.49	21405.37
497.70	21685.94
497.91	21735.09
498.11	22036.14
498.32	22253.23
498.52	22175.41
498.73	22247.08
498.93	22544.04
499.14	22552.23
499.34	22302.38
499.55	22695.59
499.76	22507.18
499.96	22462.12
500.17	22544.04
500.37	22675.11
500.58	22791.84
500.78	22976.16
500.99	22922.91
501.19	23080.61
501.40	22865.57
501.60	22978.21
501.81	22976.16
502.02	22873.76
502.22	23117.47
502.43	23434.91
502.63	23488.15
502.84	23512.73
503.04	23572.12
503.25	23600.79
503.45	23365.28
503.66	23776.92
503.86	23805.59
504.07	23850.64
504.27	23695.00
504.48	23848.60
504.68	23772.82
504.89	24123.02
505.09	23891.60
505.30	24028.82
505.50	23918.23
505.71	24250.00
505.91	24209.04
506.12	24272.53
506.32	24325.77
506.53	24385.16
506.73	24549.00
506.94	24428.17
507.14	24403.60
507.35	24686.22
507.55	24669.83
507.76	24403.60
507.96	24532.62
508.17	24755.85
508.37	24942.21
508.58	24753.80
508.78	24768.13
508.99	25124.48
509.19	24880.77
509.40	24878.72
509.60	25159.30
509.81	25073.28
510.01	24798.85
510.22	25020.03
510.42	25048.71
510.63	25192.06
510.83	25204.35
511.04	25224.83
511.24	25337.47
511.44	25433.72
511.65	25403.00
511.85	25190.02
512.06	25527.93
512.26	25814.65
512.47	25611.90
512.67	25601.66
512.88	25554.55
513.08	25187.97
513.29	25726.58
513.49	25650.81
513.69	25822.84
513.90	25722.49
514.10	25800.31
514.31	25855.61
514.51	25869.94
514.72	25894.52
514.92	26003.06
515.13	26070.64
515.33	26091.12
515.53	26078.83
515.74	26302.06
515.94	26351.21
516.15	26349.17
516.35	26211.95
516.56	26601.07
516.76	26197.62
516.96	26572.39
517.17	26578.54
517.37	26355.31
517.58	26639.98
517.78	26738.28
517.99	26572.39
518.19	26697.32
518.39	26764.90
518.60	26779.24
518.80	26926.69
519.01	26943.08
519.21	26955.36
519.41	27162.21
519.62	26723.94
519.82	27266.66
520.03	27049.57
520.23	27530.84
520.43	27125.35
520.64	27723.35
520.84	27780.70
521.05	27571.80
521.25	27534.94
521.45	27762.26
521.66	27956.82
521.86	27889.24
522.07	27811.42
522.27	28141.14
522.47	28132.95
522.68	28282.45
522.88	28208.72
523.08	28259.92
523.29	28233.30
523.49	28593.74
523.70	28214.87
523.90	28534.35
524.10	28614.22
524.31	28704.33
524.51	28569.16
524.71	28718.67
524.92	28980.81
525.12	28882.50
525.33	29335.10
525.53	29201.99
525.73	29402.69
525.94	29288.00
526.14	29226.56
526.34	29521.47
526.55	29716.03
526.75	29425.22
526.95	29709.88
527.16	29681.21
527.36	29759.03
527.56	30166.58
527.77	30332.47
527.97	30424.62
528.17	30039.61
528.38	30545.45
528.58	30357.04
528.78	30451.25
528.99	30508.59
529.19	30983.72
529.39	30637.61
529.60	31014.44
529.80	31002.15
530.00	30971.43
530.21	31424.03
530.41	31411.74
530.61	30993.96
530.82	31381.03
531.02	31569.44
531.22	31692.32
531.43	31723.04
531.63	31684.12
531.83	32019.99
532.04	32140.82
532.24	32171.54
532.44	32347.67
532.64	32560.66
532.85	33005.06
533.05	32495.12
533.25	32802.32
533.46	32605.71
533.66	33183.24
533.86	32917.00
534.07	33302.02
534.27	33013.26
534.47	33416.71
534.67	33349.12
534.88	33029.64
535.08	33635.84
535.28	33693.18
535.49	33629.69
535.69	33656.32
535.89	33842.68
536.09	34283.00
536.30	34395.64
536.50	34039.29
536.70	34731.50
536.91	34444.79
537.11	34770.41
537.31	34997.74
537.51	34565.62
537.72	34987.50
537.92	35093.99
538.12	35503.59
538.32	34928.11
538.53	35517.92
538.73	35196.39
538.93	35411.43
539.13	35706.34
539.34	35626.46
539.54	35747.29
539.74	35917.28
539.94	36036.06
540.15	35821.02
540.35	36191.70
540.55	36083.16
540.75	35941.85
540.96	36576.72
541.16	36392.40
541.36	36664.78
541.56	36466.13
541.77	36906.44
541.97	36849.10
542.17	36945.36
542.37	37101.00
542.58	36828.62
542.78	36806.09
542.98	37078.47
543.18	37246.41
543.38	37780.93
543.59	37533.12
543.79	37328.33
543.99	37469.64
544.19	37936.57
544.40	37529.03
544.60	38215.10
544.80	37883.33
545.00	37993.92
545.20	38284.73
545.41	37879.23
545.61	38211.00
545.81	38288.82
546.01	38673.84
546.21	38526.39
546.42	38487.48
546.62	38372.79
546.82	38616.50
547.02	38602.16
547.22	38942.13
547.43	38886.83
547.63	39327.14
547.83	39138.73
548.03	39124.40
548.23	39439.78
548.44	38985.13
548.64	39425.45
548.84	39337.38
549.04	39585.19
549.24	39564.71
549.45	39509.41
549.65	39292.33
549.85	39312.81
550.05	39978.40
550.25	39828.90
550.45	40236.44
550.66	40041.88
550.86	39962.01
551.06	40355.22
551.26	40093.08
551.46	40111.52
551.66	40478.10
551.87	40478.10
552.07	40459.67
552.27	40084.89
552.47	40205.72
552.67	40162.72
552.87	40621.46
553.07	40832.40
553.28	40662.42
553.48	40789.39
553.68	40363.42
553.88	40895.89
554.08	40785.30
554.28	40545.69
554.48	40730.00
554.69	41020.81
554.89	41362.82
555.09	40889.74
555.29	40897.94
555.49	41424.26
555.69	41438.60
555.89	41194.89
556.10	41649.54
556.30	41293.19
556.50	41411.98
556.70	40889.74
556.90	41530.76
557.10	41530.76
557.30	41467.27
557.50	41547.14
557.70	41399.69
557.91	41627.01
558.11	41358.73
558.31	42085.76
558.51	41426.31
558.71	41874.82
558.91	41829.76
559.11	41983.36
559.31	41987.46
559.51	41665.92
559.72	41647.49
559.92	42141.05
560.12	41731.46
560.32	42358.14
560.52	41756.03
560.72	41868.67
560.92	41596.29
561.12	42225.02
561.32	42319.23
561.52	42245.50
561.72	42321.27
561.93	42165.63
562.13	42227.07
562.33	42083.71
562.53	42972.53
562.73	41880.96
562.93	42472.82
563.13	42159.48
563.33	42425.72
563.53	42562.93
563.73	42159.48
563.93	42124.67
564.13	42538.36
564.33	42745.20
564.53	42636.66
564.74	42835.31
564.94	42628.47
565.14	42546.55
565.34	42333.56
565.54	42687.86
565.74	42915.19
565.94	42888.56
566.14	42954.10
566.34	42431.86
566.54	42976.62
566.74	42843.51
566.94	42888.56
567.14	43007.34
567.34	42790.26
567.54	42827.12
567.74	42917.23
567.94	42808.69
568.14	43085.17
568.34	43169.13
568.54	42732.92
568.74	42964.34
568.94	43130.22
569.14	42968.43
569.34	42714.48
569.54	43132.27
569.75	42773.88
569.95	43193.71
570.15	43234.67
570.35	43212.14
570.55	42861.94
570.75	42904.95
570.95	43539.82
571.15	43234.67
571.35	43570.54
571.55	43439.47
571.75	43222.38
571.95	43191.66
572.15	42784.12
572.35	43257.20
572.55	43371.88
572.75	43281.77
572.95	43091.31
573.15	43496.81
573.35	43418.99
573.55	43324.78
573.75	43578.73
573.95	43302.25
574.15	43468.14
574.35	43162.99
574.55	43124.08
574.75	43238.76
574.95	43969.89
575.15	43203.95
575.34	43842.92
575.54	43568.49
575.74	43965.79
575.94	43666.79
576.14	43277.68
576.34	44103.01
576.54	44336.48
576.74	44031.33
576.94	43476.33
577.14	44170.59
577.34	44072.29
577.54	43449.70
577.74	44107.10
577.94	43871.59
578.14	44387.67
578.34	44524.89
578.54	43550.06
578.74	44090.72
578.94	44371.29
579.14	43963.75
579.34	44100.96
579.54	44467.55
579.74	44264.80
579.94	44488.03
580.13	44557.66
580.33	44516.70
580.53	44821.84
580.73	44555.61
580.93	44647.77
581.13	44473.69
581.33	44670.29
581.53	44807.51
581.73	44866.90
581.93	44807.51
582.13	44602.71
582.33	45147.47
582.53	44973.39
582.73	44979.54
582.92	44754.26
583.12	45106.51
583.32	45026.64
583.52	45094.22
583.72	45385.04
583.92	45024.59
584.12	45106.51
584.32	45604.17
584.52	45675.85
584.72	45669.70
584.92	45434.19
585.11	45784.39
585.31	45569.35
585.51	45956.42
585.71	45493.58
585.91	45919.56
586.11	45626.70
586.31	45335.88
586.51	45503.82
586.71	46196.03
586.91	45989.19
587.10	45940.04
587.30	46208.32
587.50	45952.32
587.70	46306.62
587.90	46073.15
588.10	45948.23
588.30	46300.48
588.50	46454.08
588.69	46323.01
588.89	46564.67
589.09	46716.22
589.29	46388.54
589.49	46904.63
589.69	46159.17
589.89	46697.78
590.08	46236.99
590.28	46617.91
590.48	46449.98
590.68	46437.69
590.88	46609.72
591.08	46542.14
591.28	46607.67
591.47	46921.01
591.67	46863.67
591.87	47164.72
592.07	46783.80
592.27	46988.60
592.47	47203.63
592.67	46857.52
592.86	46816.57
593.06	47150.38
593.26	47476.01
593.46	47037.75
593.66	47596.84
593.86	47744.30
594.05	47435.05
594.25	47586.60
594.45	47375.66
594.65	47801.64
594.85	47424.81
595.05	47858.98
595.24	47988.00
595.44	47840.55
595.64	47844.65
595.84	47912.23
596.04	47969.57
596.23	47711.53
596.43	48176.42
596.63	47750.44
596.83	48205.09
597.03	48766.23
597.22	48794.90
597.42	48155.94
597.62	48874.77
597.82	48657.69
598.02	48899.35
598.21	48631.07
598.41	48456.99
598.61	49073.43
598.81	48977.17
599.01	49224.98
599.20	48647.45
599.40	48543.00
599.60	49247.50
599.80	49325.33
600.00	49560.84
600.19	49493.26
600.39	48907.54
600.59	49650.95
600.79	49616.14
600.98	49583.37
601.18	49599.76
601.38	49835.27
601.58	49685.77
601.78	49870.09
601.97	49933.57
602.17	50472.19
602.37	50365.70
602.57	49622.28
602.76	50287.87
602.96	50197.76
603.16	50527.48
603.36	50642.17
603.55	50750.71
603.75	50283.78
603.95	50570.49
604.15	50212.10
604.34	50752.76
604.54	50914.55
604.74	50644.22
604.94	51145.97
605.13	51119.35
605.33	51016.95
605.53	51293.43
605.73	51518.70
605.92	51105.01
606.12	51434.74
606.32	51694.83
606.52	51518.70
606.71	51518.70
606.91	51567.85
607.11	51416.30
607.30	51844.33
607.50	51776.75
607.70	52106.47
607.90	51680.49
608.09	51528.94
608.29	52008.17
608.49	51766.51
608.68	52075.75
608.88	52528.35
609.08	52303.07
609.28	52438.24
609.47	52282.59
609.67	52614.37
609.87	52540.64
610.06	52260.07
610.26	52677.85
610.46	52757.72
610.66	52286.69
610.85	52516.06
611.05	52557.02
611.25	52651.23
611.44	52825.31
611.64	52704.48
611.84	52901.08
612.03	52927.70
612.23	52630.75
612.43	53075.16
612.62	52888.79
612.82	52899.03
613.02	53054.68
613.21	53224.66
613.41	52860.12
613.61	53314.77
613.80	52901.08
614.00	53251.28
614.20	53365.97
614.39	53447.89
614.59	53744.84
614.79	53241.04
614.98	53419.22
615.18	53568.72
615.38	53400.79
615.57	53607.63
615.77	53859.53
615.97	54021.32
616.16	53595.34
616.36	53228.76
616.56	53724.36
616.75	53398.74
616.95	53365.97
617.15	53939.40
617.34	53638.35
617.54	53417.17
617.74	54166.73
617.93	53785.80
618.13	53474.51
618.32	53990.60
618.52	54062.28
618.72	54103.24
618.91	53898.44
619.11	53814.47
619.31	53929.16
619.50	53710.03
619.70	53742.80
619.90	53355.73
620.09	53652.69
620.29	53540.05
620.48	53982.41
620.68	54297.80
620.88	53669.07
621.07	54109.38
621.27	53984.46
621.46	53492.94
621.66	53990.60
621.86	53650.64
622.05	53935.30
622.25	54498.50
622.44	53847.24
622.64	53832.91
622.84	54367.43
623.03	53769.42
623.23	53988.55
623.42	54273.22
623.62	54189.25
623.82	54271.17
624.01	53757.13
624.21	54492.35
624.40	54185.16
624.60	54093.00
624.80	53824.71
624.99	54049.99
625.19	53875.91
625.38	54580.42
625.58	54402.24
625.77	54432.96
625.97	54080.71
626.17	54195.40
626.36	53800.14
626.56	54246.60
626.75	53720.27
626.95	54502.59
627.14	54344.90
627.34	54621.37
627.54	54441.15
627.73	53972.17
627.93	54416.58
628.12	53914.83
628.32	54424.77
628.51	54041.80
628.71	53943.50
628.90	53912.78
629.10	54449.35
629.30	54240.45
629.49	54318.28
629.69	54392.00
629.88	54588.61
630.08	55024.82
630.27	54658.24
630.47	54430.91
630.66	54156.49
630.86	54473.92
631.05	53972.17
631.25	54490.30
631.44	54269.12
631.64	54322.37
631.84	54244.55
632.03	55016.63
632.23	53837.00
632.42	54797.50
632.62	54604.99
632.81	53669.07
633.01	54369.47
633.20	54860.99
633.40	54703.29
633.59	54619.33
633.79	53806.28
633.98	54521.02
634.18	54924.47
634.37	54541.50
634.57	54715.58
634.76	54623.42
634.96	54668.48
635.15	54903.99
635.35	54518.98
635.54	54303.94
635.74	54734.01
635.93	54281.41
636.13	54637.76
636.32	54596.80
636.52	54002.89
636.71	54355.14
636.91	54858.94
637.10	54645.95
637.30	54049.99
637.49	54396.10
637.69	54314.18
637.88	54961.34
638.08	54060.23
638.27	54361.28
638.46	54734.01
638.66	54648.00
638.85	54480.06
639.05	54406.34
639.24	54832.32
639.44	54469.82
639.63	54492.35
639.83	54639.81
640.02	54191.30
640.22	54330.56
640.41	55014.58
640.61	54119.62
640.80	54279.36
640.99	54699.20
641.19	55080.12
641.38	54598.85
641.58	54572.22
641.77	54555.84
641.97	54295.75
642.16	54717.63
642.36	54598.85
642.55	54848.70
642.74	54289.60
642.94	55348.40
643.13	54535.36
643.33	54920.38
643.52	54674.62
643.72	54883.51
643.91	54680.77
644.10	54963.39
644.30	54975.67
644.49	53853.39
644.69	55045.30
644.88	54856.89
645.08	54572.22
645.27	54408.39
645.46	54779.07
645.66	54547.65
645.85	54224.07
646.05	54631.61
646.24	54486.21
646.43	54633.66
646.63	54955.19
646.82	55096.50
647.02	54596.80
647.21	54789.31
647.40	54484.16
647.60	54711.49
647.79	54736.06
647.99	54459.58
648.18	54320.32
648.37	55274.68
648.57	54863.03
648.76	54860.99
648.96	54643.90
649.15	54668.48
649.34	54949.05
649.54	54328.52
649.73	54385.86
649.92	54916.28
650.12	54326.47
650.31	54650.05
650.51	55016.63
650.70	54977.72
650.89	54443.20
651.09	55024.82
651.28	54447.30
651.47	54736.06
651.67	54875.32
651.86	55260.34
652.06	54299.84
652.25	54541.50
652.44	54490.30
652.64	54228.16
652.83	54453.44
653.02	54189.25
653.22	54320.32
653.41	54557.89
653.60	54168.77
653.80	54277.32
653.99	55065.78
654.18	54258.88
654.38	54410.43
654.57	54627.52
654.76	54469.82
654.96	54166.73
655.15	54138.05
655.34	54748.35
655.54	53875.91
655.73	54564.03
655.92	54441.15
656.12	54420.67
656.31	54506.69
656.50	54590.66
656.70	54574.27
656.89	54248.64
657.08	54484.16
657.28	54158.53
657.47	54013.13
657.66	54461.63
657.86	54150.34
658.05	54166.73
658.24	54447.30
658.43	54308.04
658.63	54213.83
658.82	54465.73
659.01	54572.22
659.21	54236.36
659.40	54093.00
659.59	54359.23
659.79	54686.91
659.98	54072.52
660.17	54314.18
660.36	54146.25
660.56	54396.10
660.75	54379.71
660.94	54305.99
661.14	54523.07
661.33	53998.79
661.52	53574.86
661.71	54269.12
661.91	53982.41
662.10	54011.08
662.29	54295.75
662.49	54201.54
662.68	54068.42
662.87	53923.02
663.06	53822.67
663.26	54142.15
663.45	54346.95
663.64	53845.19
663.83	54064.33
664.03	54459.58
664.22	54258.88
664.41	54197.44
664.60	53781.71
664.80	53875.91
664.99	53941.45
665.18	54254.79
665.37	54265.03
665.57	54224.07
665.76	53726.41
665.95	53841.10
666.14	54025.42
666.34	53875.91
666.53	54039.75
666.72	53644.49
666.91	53755.08
667.11	53806.28
667.30	53732.56
667.49	53832.91
667.68	54148.29
667.87	53712.08
668.07	54144.20
668.26	53675.21
668.45	54179.01
668.64	53896.39
668.84	54557.89
669.03	53699.79
669.22	54004.94
669.41	53687.50
669.60	53767.37
669.80	53857.48
669.99	54285.51
670.18	53720.27
670.37	54031.56
670.57	54035.66
670.76	53875.91
670.95	54131.91
671.14	53419.22
671.33	53198.04
671.53	54060.23
671.72	53697.74
671.91	54072.52
672.10	53619.92
672.29	53748.94
672.48	53703.88
672.68	54064.33
672.87	53970.12
673.06	53779.66
673.25	52894.94
673.44	53550.29
673.64	53451.98
673.83	53544.14
674.02	53349.59
674.21	52944.09
674.40	53394.64
674.59	52970.71
674.79	53175.51
674.98	53294.29
675.17	53652.69
675.36	53062.87
675.55	53169.36
675.74	53361.87
675.94	53306.58
676.13	53609.68
676.32	53564.62
676.51	53900.49
676.70	53621.97
676.89	53589.20
677.08	53769.42
677.28	53318.87
677.47	53341.39
677.66	53462.22
677.85	53064.92
678.04	53775.56
678.23	53710.03
678.42	53597.39
678.62	53435.60
678.81	53310.67
679.00	53605.58
679.19	53996.74
679.38	53730.51
679.57	53597.39
679.76	53396.69
679.96	53335.25
680.15	53318.87
680.34	53163.22
680.53	53619.92
680.72	53085.40
680.91	53529.81
681.10	53288.15
681.29	53466.32
681.48	53372.11
681.68	52868.31
681.87	53249.24
682.06	52929.75
682.25	52917.46
682.44	53292.24
682.63	53298.39
682.82	53062.87
683.01	52956.38
683.20	52939.99
683.39	53044.44
683.59	52970.71
683.78	53300.43
683.97	52888.79
684.16	53001.43
684.35	52872.41
684.54	53241.04
684.73	52980.95
684.92	52774.11
685.11	53206.23
685.30	52868.31
685.49	53091.54
685.69	53040.34
685.88	53081.30
686.07	53009.62
686.26	52919.51
686.45	52958.42
686.64	52737.24
686.83	53157.08
687.02	53392.59
687.21	52823.26
687.40	53198.04
687.59	52747.48
687.78	53066.97
687.97	53030.10
688.16	53126.36
688.35	52765.91
688.54	52804.83
688.74	52901.08
688.93	52581.60
689.12	52884.70
689.31	53007.58
689.50	53034.20
689.69	52868.31
689.88	52225.25
690.07	53220.56
690.26	52643.04
690.45	53400.79
690.64	52858.07
690.83	52694.24
691.02	52696.28
691.21	52651.23
691.40	52694.24
691.59	52815.07
691.78	53071.06
691.97	52987.10
692.16	52917.46
692.35	52737.24
692.54	52712.67
692.73	52614.37
692.92	53114.07
693.11	53028.05
693.30	52442.34
693.49	52921.56
693.68	52724.96
693.87	52684.00
694.06	52802.78
694.25	52534.49
694.44	52573.41
694.63	52475.10
694.82	53122.26
695.01	52671.71
695.20	52597.98
695.39	52761.82
695.58	52628.70
695.77	52559.07
695.96	52264.16
696.15	52606.17
696.34	52559.07
696.53	52815.07
696.72	52774.11
696.91	52507.87
697.10	52454.62
697.29	52266.21
697.48	52286.69
697.67	52503.77
697.86	52552.93
698.05	52618.46
698.24	52600.03
698.43	51850.47
698.62	52577.50
698.81	52376.80
699.00	52880.60
699.19	52126.95
699.38	52448.48
699.57	51907.82
699.76	52770.01
699.95	52335.84
700.14	52192.48
700.32	52561.12
700.51	52497.63
700.70	52516.06
700.89	52813.02
701.08	52597.98
701.27	51920.10
701.46	52739.29
701.65	51676.40
701.84	52200.68
702.03	52516.06
702.22	51991.78
702.41	52632.80
702.60	52131.04
702.79	52217.06
702.98	51975.40
703.17	52403.42
703.35	52270.31
703.54	52024.55
703.73	52157.67
703.92	51987.69
704.11	51842.28
704.30	52036.84
704.49	51791.08
704.68	52131.04
704.87	51784.94
705.06	52077.80
705.25	51664.11
705.43	52178.15
705.62	52376.80
705.81	51965.16
706.00	52071.65
706.19	51172.60
706.38	51782.89
706.57	51942.63
706.76	51711.21
706.95	51778.79
707.14	51825.90
707.32	51598.57
707.51	51533.04
707.70	51668.20
707.89	51688.68
708.08	51604.72
708.27	51858.66
708.46	52198.63
708.65	51993.83
708.84	52378.85
709.02	51946.73
709.21	51715.31
709.40	51741.93
709.59	52090.09
709.78	51846.38
709.97	51956.97
710.16	51766.51
710.34	51561.71
710.53	51530.99
710.72	51580.14
710.91	51494.13
711.10	51879.14
711.29	51696.88
711.48	51463.41
711.66	51713.26
711.85	51262.71
712.04	51262.71
712.23	51401.97
712.42	51692.78
712.61	51594.48
712.80	51569.90
712.98	51242.23
713.17	50844.92
713.36	51315.95
713.55	51342.58
713.74	51227.89
713.93	51160.31
714.11	50971.89
714.30	51072.24
714.49	51105.01
714.68	51533.04
714.87	51043.57
715.06	51516.65
715.24	50814.20
715.43	50887.93
715.62	50736.38
715.81	50914.55
716.00	51291.38
716.18	50844.92
716.37	51111.16
716.56	50838.78
716.75	51647.72
716.94	50558.20
717.12	50425.09
717.31	50951.41
717.50	50564.35
717.69	50715.90
717.88	51049.72
718.06	51019.00
718.25	50623.74
718.44	50654.46
718.63	50412.80
718.82	50158.85
719.00	50590.97
719.19	50464.00
719.38	50537.72
719.57	50486.53
719.76	50132.23
719.94	49878.28
720.13	50124.04
720.32	49915.14
720.51	50281.73
720.69	50142.47
720.88	50208.00
721.07	49734.92
721.26	49472.78
721.44	49919.24
721.63	49569.04
721.82	49458.45
722.01	49661.19
722.20	50005.25
722.38	49616.14
722.57	49030.42
722.76	49186.07
722.95	49206.55
723.13	49327.38
723.32	49603.85
723.51	49272.08
723.70	48915.73
723.88	49337.62
724.07	49095.95
724.26	49603.85
724.44	48852.25
724.63	49014.04
724.82	49108.24
725.01	49159.44
725.19	48764.18
725.38	48860.44
725.57	48280.86
725.76	49124.63
725.94	48917.78
726.13	48622.87
726.32	48635.16
726.51	48776.47
726.69	48846.10
726.88	48874.77
727.07	48809.24
727.25	48463.13
727.44	48559.39
727.63	48411.93
727.82	48262.43
728.00	48567.58
728.19	48368.93
728.38	49202.45
728.56	48735.51
728.75	48676.12
728.94	48588.06
729.12	48749.85
729.31	48674.07
729.50	48452.89
729.69	48637.21
729.87	48348.45
730.06	48348.45
730.25	48553.24
730.43	49018.13
730.62	48258.34
730.81	48500.00
730.99	48604.44
731.18	48268.58
731.37	48975.12
731.55	48694.55
731.74	48477.47
731.93	48622.87
732.11	48379.17
732.30	48594.20
732.49	48360.73
732.67	48117.03
732.86	48147.75
733.05	48297.25
733.23	47635.75
733.42	48215.33
733.61	48026.92
733.79	48078.11
733.98	48669.98
734.17	48262.43
734.35	48102.69
734.54	48252.19
734.73	48579.87
734.91	48272.67
735.10	47885.61
735.29	48631.07
735.47	48018.72
735.66	48114.98
735.84	48233.76
736.03	47889.70
736.22	47922.47
736.40	47478.06
736.59	47856.93
736.78	48215.33
736.96	47488.30
737.15	47693.10
737.33	47938.85
737.52	47797.54
737.71	47691.05
737.89	47869.22
738.08	47449.39
738.27	47275.31
738.45	47856.93
738.64	47508.78
738.82	47471.92
739.01	47668.52
739.20	47648.04
739.38	47379.76
739.57	47781.16
739.75	47594.79
739.94	46998.83
740.13	47252.78
740.31	47330.61
740.50	47752.49
740.68	47502.64
740.87	47340.85
741.06	47269.17
741.24	47265.07
741.43	46824.76
741.61	47361.33
741.80	46605.62
741.99	47062.32
742.17	47025.46
742.36	46773.56
742.54	46925.11
742.73	46970.16
742.91	46931.25
743.10	46691.64
743.29	47134.00
743.47	46916.92
743.66	46675.26
743.84	47037.75
744.03	47142.19
744.21	46812.47
744.40	46501.18
744.59	46572.86
744.77	46349.63
744.96	46445.88
745.14	46411.07
745.33	46603.58
745.51	46390.59
745.70	46722.36
745.88	45991.23
746.07	46531.90
746.26	46323.01
746.44	46273.85
746.63	46155.07
746.81	46232.89
747.00	46200.13
747.18	46341.44
747.37	46105.92
747.55	45968.71
747.74	46052.67
747.92	45641.03
748.11	46005.57
748.29	45985.09
748.48	46138.69
748.66	45937.99
748.85	45487.43
749.03	45520.20
749.22	45606.22
749.41	45419.85
749.59	45548.87
749.78	45765.96
749.96	44758.36
750.15	44766.55
750.33	45673.80
750.52	45342.03
750.70	45315.40
750.89	44928.34
751.07	44778.84
751.26	45204.81
751.44	45053.26
751.63	45180.24
751.81	44680.53
752.00	44979.54
752.18	44787.03
752.37	44627.29
752.55	44369.24
752.74	44475.74
752.92	44766.55
753.10	44488.03
753.29	44678.49
753.47	44504.41
753.66	44197.21
753.84	44592.47
754.03	44418.39
754.21	44344.67
754.40	44557.66
754.58	44262.75
754.77	44174.69
754.95	44266.84
755.14	43638.12
755.32	44174.69
755.51	43533.67
755.69	43548.01
755.88	43629.93
756.06	43586.92
756.24	43812.20
756.43	43435.37
756.61	44135.77
756.80	43533.67
756.98	43746.66
757.17	43779.43
757.35	43625.83
757.54	43535.72
757.72	43613.54
757.90	43711.84
758.09	43425.13
758.27	43433.32
758.46	42950.00
758.64	43275.63
758.83	43128.17
759.01	43478.38
759.19	42933.62
759.38	43144.56
759.56	43259.24
759.75	43156.85
759.93	43226.48
760.12	42532.22
760.30	42646.90
760.48	42790.26
760.67	42501.50
760.85	42624.37
761.04	43128.17
761.22	42640.76
761.40	42718.58
761.59	42538.36
761.77	42509.69
761.96	42462.58
762.14	42124.67
762.32	42360.19
762.51	42128.77
762.69	42237.31
762.88	42089.85
763.06	42110.33
763.24	42136.96
763.43	42343.80
763.61	41760.13
763.80	41743.75
763.98	42167.68
764.16	41749.89
764.35	41629.06
764.53	41670.02
764.72	41657.73
764.90	41573.77
765.08	41684.36
765.27	41354.63
765.45	41469.32
765.63	41485.70
765.82	41246.09
766.00	40660.37
766.18	41354.63
766.37	41692.55
766.55	40947.09
766.74	41534.85
766.92	41119.12
767.10	41135.50
767.29	40983.95
767.47	40709.52
767.65	40818.07
767.84	40957.33
768.02	40969.61
768.20	40390.04
768.39	40541.59
768.57	40490.39
768.75	40553.88
768.94	41090.44
769.12	40648.08
769.30	40000.93
769.49	40744.34
769.67	40070.56
769.85	39949.73
770.04	40119.71
770.22	40058.27
770.40	39968.16
770.59	40029.60
770.77	40273.31
770.95	39947.68
771.14	39548.32
771.32	39746.98
771.50	39472.55
771.69	39503.27
771.87	39796.13
772.05	39478.69
772.24	39431.59
772.42	38860.21
772.60	39577.00
772.78	39085.48
772.97	39099.82
773.15	39577.00
773.33	39292.33
773.52	39335.34
773.70	39103.92
773.88	39404.97
774.07	39003.56
774.25	38901.17
774.43	39398.82
774.61	39028.14
774.80	39247.27
774.98	39517.60
775.16	39364.01
775.34	38946.22
775.53	39015.85
775.71	39415.21
775.89	39042.48
776.08	38755.76
776.26	39175.59
776.44	39181.74
776.62	39120.30
776.81	38741.42
776.99	39222.70
777.17	38958.51
777.35	39310.76
777.54	39560.61
777.72	39509.41
777.90	39675.30
778.08	39640.48
778.27	39089.58
778.45	39787.94
778.63	39937.44
778.81	38987.18
779.00	39890.34
779.18	39261.61
779.36	39769.51
779.54	39529.89
779.73	39366.06
779.91	39581.09
780.09	39191.98
780.27	39896.48
780.46	39568.80
780.64	39630.24
780.82	39517.60
781.00	39802.27
781.19	39531.94
781.37	39716.26
781.55	39794.08
781.73	39851.42
781.91	39364.01
782.10	39474.60
782.28	39622.05
782.46	39321.00
782.64	39832.99
782.82	39339.43
783.01	40005.02
783.19	40148.38
783.37	39787.94
783.55	39642.53
783.74	39785.89
783.92	39751.07
784.10	40097.18
784.28	39996.83
784.46	39734.69
784.64	39712.16
784.83	39679.39
785.01	39749.03
785.19	39505.32
785.37	39871.90
785.55	39818.66
785.74	39284.14
785.92	39105.96
786.10	39898.53
786.28	39593.38
786.46	39376.30
786.64	39388.58
786.83	39951.77
787.01	39482.79
787.19	38931.89
787.37	39591.33
787.55	39265.70
787.74	39095.72
787.92	38815.15
788.10	38802.86
788.28	38925.74
788.46	39564.71
788.64	38647.22
788.82	39146.92
789.01	39030.19
789.19	39056.81
789.37	38819.25
789.55	38878.64
789.73	38649.27
789.91	38460.85
790.09	38856.11
790.28	38358.45
790.46	38704.56
790.64	38469.04
790.82	38153.66
791.00	37922.24
791.18	37930.43
791.36	38155.71
791.55	38251.96
791.73	38170.04
791.91	38159.80
792.09	38141.37
792.27	38118.84
792.45	37967.29
792.63	37479.88
792.81	37469.64
793.00	37404.10
793.18	37365.19
793.36	37279.18
793.54	37172.68
793.72	37041.61
793.90	37514.69
794.08	37178.82
794.26	37178.82
794.44	36779.47
794.62	36777.42
794.81	36902.35
794.99	36859.34
795.17	36941.26
795.35	36953.55
795.53	36814.29
795.71	36691.41
795.89	36562.39
796.07	36206.04
796.25	36230.62
796.43	36320.73
796.61	36134.36
796.80	35995.10
796.98	35919.32
797.16	35632.61
797.34	35612.13
797.52	35773.92
797.70	35778.01
797.88	35247.59
798.06	35317.22
798.24	35339.75
798.42	35212.77
798.60	35128.81
798.78	35026.41
798.96	35433.96
799.14	35173.86
799.32	35083.75
799.51	34657.78
799.69	34868.72
799.87	34797.04
800.05	34530.80
800.23	34788.85
800.41	34547.18
800.59	34563.57
800.77	34596.34
800.95	34088.44
801.13	34407.92
801.31	33854.97
801.49	34508.27
801.67	33908.22
801.85	34004.47
802.03	33947.13
802.21	33482.24
802.39	33633.79
802.57	33431.04
802.75	33572.35
802.93	33555.97
803.11	33054.22
803.29	33236.48
803.47	33283.59
803.65	33256.96
803.83	33201.67
804.01	33488.38
804.19	32957.96
804.37	33029.64
804.55	32927.24
804.73	32990.73
804.91	33080.84
805.09	33089.03
805.27	32708.11
805.45	32638.48
805.63	32507.41
805.81	32581.13
805.99	32773.64
806.17	32601.61
806.35	32677.39
806.53	32075.29
806.71	32806.41
806.89	32251.41
807.07	32222.74
807.25	32224.79
807.43	32077.33
807.61	32187.92
807.79	31923.74
807.97	32026.14
808.15	31710.75
808.33	31403.55
808.51	32144.92
808.69	31614.49
808.87	31317.54
809.05	31581.73
809.23	31356.45
809.41	31444.51
809.59	31268.39
809.77	31399.46
809.95	31419.94
810.13	31323.68
810.31	30768.68
810.49	30957.10
810.67	30938.66
810.84	31180.32
811.02	31041.06
811.20	30651.95
811.38	30873.13
811.56	30436.91
811.74	30670.38
811.92	30451.25
812.10	30389.81
812.28	30584.37
812.46	30006.84
812.64	30553.65
812.82	30133.81
813.00	30309.94
813.18	30258.74
813.36	30111.28
813.53	29894.20
813.71	30334.51
813.89	30033.46
814.07	29935.16
814.25	30258.74
814.43	29959.73
814.61	29681.21
814.79	29953.59
814.97	29748.79
815.15	29623.87
815.33	29488.70
815.50	29165.12
815.68	29449.79
815.86	29591.10
816.04	29492.80
816.22	29285.95
816.40	29486.65
816.58	29388.35
816.76	29228.61
816.94	29300.29
817.11	29070.92
817.29	29224.51
817.47	28902.98
817.65	28724.81
817.83	28720.71
818.01	29173.31
818.19	28618.32
818.37	28821.06
818.54	28728.91
818.72	28247.63
818.90	28964.42
819.08	29093.44
819.26	28667.47
819.44	28628.56
819.62	28579.40
819.80	28728.91
819.97	28479.05
820.15	28286.54
820.33	28368.46
820.51	28730.95
820.69	28053.08
820.87	28210.77
821.05	28276.30
821.22	27899.48
821.40	28456.53
821.58	27696.73
821.76	27897.43
821.94	27862.61
822.12	27795.03
822.29	28169.81
822.47	27575.90
822.65	28038.74
822.83	27893.33
823.01	27928.15
823.19	27690.59
823.36	27493.98
823.54	27295.33
823.72	27463.26
823.90	27506.27
824.08	27364.96
824.25	27592.28
824.43	27422.30
824.61	27442.78
824.79	27575.90
824.97	27577.95
825.15	27336.29
825.32	27369.05
825.50	27364.96
825.68	27053.67
825.86	27428.45
826.04	27457.12
826.21	26969.70
826.39	27317.86
826.57	27287.14
826.75	27088.48
826.93	26965.60
827.10	26936.93
827.28	27008.61
827.46	27225.70
827.64	26652.27
827.81	26668.65
827.99	26687.08
828.17	26631.79
828.35	26607.21
828.53	26807.91
828.70	26707.56
828.88	26721.90
829.06	26740.33
829.24	26615.40
829.41	26793.58
829.59	26650.22
829.77	26181.23
829.95	26519.15
830.12	26562.15
830.30	26406.51
830.48	26515.05
830.66	26330.73
830.84	26367.60
831.01	26416.75
831.19	26193.52
831.37	26101.36
831.55	26326.64
831.72	26320.49
831.90	25882.23
832.08	26357.36
832.25	26218.10
832.43	26072.69
832.61	26160.75
832.79	25761.40
832.96	26005.11
833.14	25992.82
833.32	26195.57
833.50	25939.57
833.67	25798.26
833.85	25771.64
834.03	25611.90
834.20	25917.04
834.38	25978.48
834.56	25837.17
834.74	25697.91
834.91	25525.88
835.09	25728.63
835.27	25677.43
835.44	25454.20
835.62	25224.83
835.80	25521.79
835.98	25302.65
836.15	25460.35
836.33	25693.82
836.51	25441.92
836.68	25509.50
836.86	25286.27
837.04	25355.90
837.21	25335.42
837.39	25282.17
837.57	25683.58
837.75	25194.11
837.92	25179.78
838.10	25063.04
838.28	24714.89
838.45	25249.41
838.63	25071.23
838.81	25208.45
838.98	24802.95
839.16	24999.55
839.34	24854.15
839.51	24608.39
839.69	24739.46
839.87	24823.43
840.04	24827.53
840.22	24948.36
840.40	24784.52
840.57	24546.95
840.75	24780.42
840.93	24276.62
841.10	24471.18
841.28	24911.49
841.46	24622.73
841.63	24766.09
841.81	24411.79
841.98	24448.65
842.16	24587.91
842.34	24415.88
842.51	24202.89
842.69	24469.13
842.87	24260.24
843.04	24456.84
843.22	24055.44
843.40	23957.14
843.57	24397.45
843.75	24321.68
843.92	24481.42
844.10	24333.96
844.28	24319.63
844.45	24399.50
844.63	24245.90
844.81	24139.41
844.98	24182.42
845.16	24383.12
845.33	24086.16
845.51	24178.32
845.69	23819.92
845.86	24016.53
846.04	23752.34
846.21	24168.08
846.39	23762.58
846.57	23778.97
846.74	23490.20
846.92	23991.95
847.09	23621.27
847.27	23709.33
847.45	23727.77
847.62	23735.96
847.80	23699.09
847.97	23514.78
848.15	23629.46
848.32	23336.60
848.50	23445.15
848.68	23301.79
848.85	23281.31
849.03	23129.76
849.20	23312.03
849.38	23178.91
849.56	23303.84
849.73	23266.97
849.91	23598.74
850.08	23508.63
850.26	23164.57
850.43	22961.83
850.61	23154.33
850.78	22900.39
850.96	23264.92
851.14	22777.51
851.31	23269.02
851.49	22795.94
851.66	23320.22
851.84	22945.44
852.01	23219.87
852.19	22607.53
852.36	22619.81
852.54	22783.65
852.71	23025.31
852.89	22933.15
853.07	22914.72
853.24	22810.28
853.42	22531.75
853.59	22957.73
853.77	22726.31
853.94	22752.93
854.12	22881.95
854.29	22625.96
854.47	22443.69
854.64	22593.19
854.82	22658.73
854.99	22888.10
855.17	22707.88
855.34	22630.05
855.52	22595.24
855.69	22400.68
855.87	22394.54
856.04	22408.87
856.22	22466.22
856.39	22083.25
856.57	22384.30
856.74	22175.41
856.92	22335.15
857.09	22048.43
857.27	22253.23
857.44	22216.36
857.62	22349.48
857.79	21962.42
857.97	21925.55
858.14	22191.79
858.32	22245.04
858.49	21946.03
858.67	21888.69
858.84	21829.30
859.02	22210.22
859.19	21909.17
859.37	21823.16
859.54	21626.55
859.72	21800.63
859.89	21864.11
860.06	21898.93
860.24	21565.11
860.41	21888.69
860.59	21436.09
860.76	21925.55
860.94	21444.28
861.11	21612.21
861.29	21616.31
861.46	21743.28
861.64	21487.29
861.81	21587.64
861.98	21341.88
862.16	21235.39
862.33	21323.45
862.51	21589.69
862.68	21395.13
862.86	21384.89
863.03	21540.54
863.21	21030.59
863.38	21233.34
863.55	21241.53
863.73	21388.99
863.90	21106.37
864.08	21520.06
864.25	20901.57
864.43	21137.09
864.60	21063.36
864.77	20827.84
864.95	21100.22
865.12	20754.12
865.30	21028.54
865.47	20647.62
865.64	20997.82
865.82	20862.66
865.99	21126.85
866.17	20608.71
866.34	20774.60
866.51	20655.81
866.69	20801.22
866.86	20647.62
867.04	20793.03
867.21	20455.11
867.38	20451.02
867.56	20338.38
867.73	20219.60
867.91	20500.17
868.08	20455.11
868.25	20123.34
868.43	20264.65
868.60	20430.54
868.78	20203.21
868.95	20414.15
869.12	20262.60
869.30	20084.43
869.47	20223.69
869.64	19934.93
869.82	20227.79
869.99	19836.63
870.16	20201.16
870.34	20068.05
870.51	20311.75
870.69	19982.03
870.86	20029.13
871.03	20008.65
871.21	20141.77
871.38	19947.22
871.55	19605.20
871.73	19513.05
871.90	19455.70
872.07	19517.14
872.25	19347.16
872.42	19498.71
872.59	19488.47
872.77	19637.97
872.94	19541.72
873.11	19381.98
873.29	19551.96
873.46	19367.64
873.63	19248.86
873.81	19191.52
873.98	19175.13
874.15	19248.86
874.33	18958.05
874.50	19013.34
874.67	19001.05
874.85	18925.28
875.02	19123.93
875.19	18808.54
875.37	18769.63
875.54	19042.01
875.71	18972.38
875.88	19011.29
876.06	18525.93
876.23	18634.47
876.40	18626.28
876.58	18568.93
876.75	18505.45
876.92	18286.31
877.10	18429.67
877.27	18411.24
877.44	18405.10
877.61	18386.66
877.79	18308.84
877.96	18353.90
878.13	18491.11
878.31	18116.33
878.48	18147.05
878.65	18239.21
878.82	18415.34
879.00	18001.65
879.17	17893.10
879.34	17966.83
879.51	17704.69
879.69	18022.12
879.86	17968.88
880.03	18110.19
880.21	18018.03
880.38	17729.27
880.55	17813.23
880.72	17901.29
880.90	17727.22
881.07	17655.54
881.24	17628.92
881.41	17647.35
881.59	17592.05
881.76	17348.34
881.93	17442.55
882.10	17452.79
882.28	17041.15
882.45	17305.34
882.62	17483.51
882.79	17219.32
882.96	17420.02
883.14	17426.17
883.31	17372.92
883.48	17284.86
883.65	17266.42
883.83	17164.03
884.00	17266.42
884.17	17096.44
884.34	17221.37
884.51	17364.73
884.69	17139.45
884.86	17116.92
885.03	17243.90
885.20	16776.96
885.38	17037.05
885.55	16756.48
885.72	17282.81
885.89	16889.60
886.06	16908.03
886.24	16953.09
886.41	16832.26
886.58	17063.68
886.75	17004.28
886.92	16719.62
887.10	16895.74
887.27	16639.75
887.44	16715.52
887.61	16889.60
887.78	16930.56
887.95	16838.40
888.13	16609.03
888.30	16498.44
888.47	16533.25
888.64	16688.90
888.81	16568.07
888.99	16453.38
889.16	16588.55
889.33	16381.70
889.50	16471.81
889.67	16291.59
889.84	16348.93
890.01	16471.81
890.19	16207.62
890.36	16299.78
890.53	16125.71
890.70	16043.79
890.87	16267.02
891.04	16361.22
891.22	16086.79
891.39	16236.30
891.56	16121.61
891.73	15775.50
891.90	16019.21
892.07	15775.50
892.24	16080.65
892.42	15619.86
892.59	15724.30
892.76	15941.39
892.93	15814.41
893.10	15795.98
893.27	15650.58
893.44	15464.21
893.61	15740.69
893.79	15523.60
893.96	15617.81
894.13	15673.10
894.30	15742.74
894.47	15849.23
894.64	15869.71
894.81	15755.02
894.98	15865.61
895.15	15689.49
895.33	15453.97
895.50	15560.47
895.67	15544.08
895.84	15529.75
896.01	15587.09
896.18	15634.19
896.35	15593.23
896.52	15597.33
896.69	15388.44
896.86	15353.62
897.04	15433.49
897.21	15421.20
897.38	15523.60
897.55	15378.20
897.72	15609.62
897.89	15148.82
898.06	15445.78
898.23	15314.71
898.40	15384.34
898.57	15302.42
898.74	15415.06
898.91	15251.22
899.08	15222.55
899.26	15245.08
899.43	15441.68
899.60	15243.03
899.77	15210.26
899.94	15402.77
900.11	15109.91
900.28	15263.51
900.45	15056.67
900.62	15544.08
900.79	15351.57
900.96	15212.31
901.13	15431.44
901.30	15406.87
901.47	15367.96
901.64	15210.26
901.81	15357.72
901.98	15204.12
902.15	15324.95
902.32	15077.15
902.49	15304.47
902.66	15316.76
902.83	15212.31
903.01	15257.37
903.18	15097.63
903.35	15140.63
903.52	15234.84
903.69	15437.59
903.86	15320.85
904.03	15398.68
904.20	15388.44
904.37	15167.26
904.54	15331.09
904.71	14833.44
904.88	15066.91
905.05	14972.70
905.22	15216.41
905.39	15114.01
905.56	15054.62
905.73	15179.54
905.90	15327.00
906.07	15304.47
906.24	15236.89
906.41	15142.68
906.58	15181.59
906.75	15173.40
906.92	14972.70
907.09	15056.67
907.26	15142.68
907.43	15056.67
907.60	15179.54
907.77	15089.43
907.93	15034.14
908.10	14782.24
908.27	15224.60
908.44	15025.95
908.61	15161.11
908.78	14716.70
908.95	14937.88
909.12	15005.47
909.29	14970.65
909.46	14917.40
909.63	14980.89
909.80	14874.40
909.97	15048.47
910.14	14946.08
910.31	14892.83
910.48	14898.97
910.65	14864.16
910.82	15007.52
910.99	14907.16
911.16	14755.61
911.33	14806.81
911.50	14552.87
911.66	14511.91
911.83	14800.67
912.00	14634.78
912.17	14393.12
912.34	14575.39
912.51	14636.83
912.68	14346.02
912.85	14389.03
913.02	14647.07
913.19	14337.83
913.36	14368.55
913.53	14581.54
913.70	14184.23
913.86	14610.21
914.03	14372.64
914.20	14407.46
914.37	14380.84
914.54	14094.12
914.71	14272.29
914.88	14176.04
915.05	14133.03
915.22	14171.94
915.39	14049.07
915.55	14292.77
915.72	13825.84
915.89	13770.54
916.06	13918.00
916.23	13788.97
916.40	13829.93
916.57	13756.21
916.74	13754.16
916.91	13557.55
917.07	13762.35
917.24	13643.57
917.41	13655.86
917.58	13467.44
917.75	13463.35
917.92	13363.00
918.09	13793.07
918.26	13561.65
918.42	13455.15
918.59	13496.11
918.76	13440.82
918.93	13107.00
919.10	13143.86
919.27	13152.06
919.44	13100.86
919.60	13385.52
919.77	13012.79
919.94	13025.08
920.11	13018.94
920.28	12926.78
920.45	13031.23
920.61	13023.03
920.78	12666.69
920.95	12625.73
921.12	12799.80
921.29	12697.41
921.46	12851.00
921.62	12674.88
921.79	12650.30
921.96	12566.34
922.13	12685.12
922.30	12502.85
922.47	12345.16
922.63	12384.07
922.80	12296.00
922.97	12074.82
923.14	12009.29
923.31	12257.09
923.47	12005.19
923.64	12263.24
923.81	12074.82
923.98	11902.79
924.15	12087.11
924.32	11849.55
924.48	12115.78
924.65	12017.48
924.82	11693.90
924.99	11624.27
925.15	11532.11
925.32	11755.34
925.49	11620.17
925.66	11550.54
925.83	11620.17
925.99	11433.81
926.16	11515.73
926.33	11366.23
926.50	11274.07
926.67	11380.56
926.83	11337.56
927.00	11204.44
927.17	11231.06
927.34	11059.03
927.50	10862.43
927.67	11366.23
927.84	10809.18
928.01	10835.80
928.17	10852.19
928.34	10755.93
928.51	10794.84
928.68	10780.51
928.84	10706.78
929.01	10514.27
929.18	10594.14
929.35	10594.14
929.51	10637.15
929.68	10411.87
929.85	10282.85
930.02	10518.37
930.18	10295.14
930.35	10309.47
930.52	10284.90
930.69	10133.35
930.85	10293.09
931.02	10043.24
931.19	10106.73
931.36	10139.49
931.52	10135.40
931.69	9899.88
931.86	9910.12
932.02	9918.31
932.19	9805.67
932.36	9842.54
932.53	9758.57
932.69	9760.62
932.86	9703.28
933.03	9629.55
933.19	9490.29
933.36	9424.75
933.53	9703.28
933.70	9402.22
933.86	9342.83
934.03	9375.60
934.20	9215.86
934.36	9318.26
934.53	9054.07
934.70	8990.58
934.86	8939.38
935.03	8963.96
935.20	8793.98
935.36	8855.42
935.53	8683.39
935.70	8703.87
935.86	8681.34
936.03	8449.92
936.20	8499.07
936.36	8390.53
936.53	8249.22
936.70	8161.16
936.86	8226.69
937.03	8183.68
937.20	8179.59
937.36	8155.01
937.53	7896.97
937.70	7849.86
937.86	7753.61
938.03	7534.48
938.20	7800.71
938.36	7536.52
938.53	7432.08
938.70	7384.98
938.86	7147.41
939.03	7141.27
939.20	7122.84
939.36	7090.07
939.53	6997.91
939.70	7098.26
939.86	6795.16
940.03	6666.14
940.19	6778.78
940.36	6676.38
940.53	6506.40
940.69	6467.49
940.86	6418.33
941.03	6311.84
941.19	6252.45
941.36	6256.54
941.52	6303.65
941.69	6115.23
941.86	6010.79
942.02	6078.37
942.19	5992.36
942.35	5916.58
942.52	5771.18
942.69	5732.26
942.85	5705.64
943.02	5889.96
943.18	5932.97
943.35	5636.01
943.52	5687.21
943.68	5650.35
943.85	5543.85
944.01	5599.15
944.18	5515.18
944.35	5455.79
944.51	5304.24
944.68	5302.19
944.84	5332.91
945.01	5326.77
945.17	5298.10
945.34	5302.19
945.51	5263.28
945.67	5316.53
945.84	5183.41
946.00	5218.22
946.17	5240.75
946.33	5064.63
946.50	5173.17
946.67	5156.79
946.83	5113.78
947.00	5345.20
947.16	5210.03
947.33	5126.07
947.49	5160.88
947.66	5011.38
947.82	5085.11
947.99	5128.11
948.16	5191.60
948.32	5130.16
948.49	5242.80
948.65	5224.37
948.82	5124.02
948.98	5115.83
949.15	4949.94
949.31	5142.45
949.48	5277.62
949.64	5138.35
949.81	5091.25
949.97	5029.81
950.14	5199.79
950.30	4954.04
950.47	5187.50
950.63	5062.58
950.80	5111.73
950.96	5216.18
951.13	5169.07
951.30	5265.33
951.46	5341.10
951.63	5205.94
951.79	5242.80
951.96	5314.48
952.12	5113.78
952.29	5300.14
952.45	5136.31
952.62	5259.18
952.78	5205.94
952.94	5255.09
953.11	5191.60
953.27	5195.70
953.44	5294.00
953.60	5310.38
953.77	5371.82
953.93	5267.38
954.10	5175.22
954.26	5279.66
954.43	5232.56
954.59	5289.90
954.76	5425.07
954.92	5339.05
955.09	5390.25
955.25	5234.61
955.42	5193.65
955.58	5312.43
955.75	5265.33
955.91	5183.41
956.07	5294.00
956.24	5242.80
956.40	5337.01
956.57	5306.29
956.73	5175.22
956.90	5298.10
957.06	5140.40
957.23	5275.57
957.39	5156.79
957.56	5365.68
957.72	5171.12
957.88	5222.32
958.05	5328.81
958.21	5390.25
958.38	5318.57
958.54	5279.66
958.71	5339.05
958.87	5265.33
959.03	5156.79
959.20	5275.57
959.36	5238.70
959.53	5273.52
959.69	5283.76
959.85	5275.57
960.02	5195.70
960.18	5177.26
960.35	5255.09
960.51	5425.07
960.68	5259.18
960.84	5324.72
961.00	5093.30
961.17	5146.55
961.33	5259.18
961.50	5345.20
961.66	5248.94
961.82	5263.28
961.99	5232.56
962.15	5279.66
962.31	5169.07
962.48	5248.94
962.64	5420.97
962.81	5281.71
962.97	5099.44
963.13	5246.90
963.30	5222.32
963.46	5255.09
963.62	5183.41
963.79	5162.93
963.95	5212.08
964.12	5191.60
964.28	5048.24
964.44	5203.89
964.61	5113.78
964.77	5167.03
964.93	5236.66
965.10	5275.57
965.26	5033.91
965.42	5021.62
965.59	5115.83
965.75	5027.76
965.92	5185.46
966.08	5101.49
966.24	5195.70
966.41	5048.24
966.57	5218.22
966.73	5214.13
966.90	5154.74
967.06	5142.45
967.22	5132.21
967.39	5054.39
967.55	4958.13
967.71	5130.16
967.88	4951.99
968.04	4984.76
968.20	5017.52
968.37	4911.03
968.53	4966.32
968.69	5052.34
968.85	5017.52
969.02	5009.33
969.18	5017.52
969.34	4976.56
969.51	5058.48
969.67	4937.65
969.83	4851.64
970.00	5027.76
970.16	4890.55
970.32	4951.99
970.48	5023.67
970.65	4888.50
970.81	4835.25
970.97	4851.64
971.14	4652.98
971.30	4943.80
971.46	4794.29
971.63	4749.24
971.79	4882.36
971.95	4843.45
972.11	4687.80
972.28	4769.72
972.44	4833.21
972.60	4745.14
972.76	4818.87
972.93	4798.39
973.09	4800.44
973.25	4706.23
973.42	4646.84
973.58	4714.42
973.74	4700.09
973.90	4589.50
974.07	4634.55
974.23	4661.18
974.39	4691.90
974.55	4642.75
974.72	4704.18
974.88	4558.78
975.04	4698.04
975.20	4624.31
975.37	4657.08
975.53	4503.48
975.69	4673.46
975.85	4499.39
976.01	4630.46
976.18	4550.59
976.34	4616.12
976.50	4542.39
976.66	4698.04
976.83	4538.30
976.99	4530.11
977.15	4558.78
977.31	4403.13
977.47	4442.04
977.64	4583.35
977.80	4476.86
977.96	4349.89
978.12	4505.53
978.29	4370.37
978.45	4313.02
978.61	4345.79
978.77	4429.76
978.93	4345.79
979.10	4270.01
979.26	4259.78
979.42	4331.45
979.58	4360.13
979.74	4317.12
979.91	4329.41
980.07	4280.25
980.23	4235.20
980.39	4319.17
980.55	4325.31
980.71	4108.23
980.88	4235.20
981.04	4274.11
981.20	4284.35
981.36	4335.55
981.52	4251.58
981.68	4224.96
981.85	4124.61
982.01	4177.86
982.17	4136.90
982.33	4116.42
982.49	4362.17
982.65	4112.32
982.82	4177.86
982.98	4220.86
983.14	4149.18
983.30	4235.20
983.46	4155.33
983.62	4126.66
983.79	4126.66
983.95	4065.22
984.11	3964.87
984.27	4145.09
984.43	4145.09
984.59	4128.70
984.75	4124.61
984.91	4007.87
985.08	4124.61
985.24	4001.73
985.40	3909.57
985.56	3950.53
985.72	3991.49
985.88	4050.88
986.04	3973.06
986.20	3946.44
986.37	4038.59
986.53	3899.33
986.69	3921.86
986.85	3958.72
987.01	3874.76
987.17	3921.86
987.33	3923.91
987.49	3825.61
987.65	3952.58
987.82	3878.85
987.98	3764.17
988.14	3872.71
988.30	3911.62
988.46	3809.22
988.62	3911.62
988.78	3729.35
988.94	3764.17
989.10	3723.21
989.26	3694.54
989.42	3737.54
989.59	3708.87
989.75	3710.92
989.91	3710.92
990.07	3659.72
990.23	3719.11
990.39	3741.64
990.55	3780.55
990.71	3710.92
990.87	3770.31
991.03	3725.26
991.19	3631.05
991.35	3602.38
991.51	3620.81
991.67	3708.87
991.83	3551.18
992.00	3598.28
992.16	3672.01
992.32	3612.62
992.48	3639.24
992.64	3583.95
992.80	3624.90
992.96	3647.43
993.12	3594.19
993.28	3532.75
993.44	3516.36
993.60	3569.61
993.76	3581.90
993.92	3583.95
994.08	3600.33
994.24	3534.79
994.40	3536.84
994.56	3604.42
994.72	3438.54
994.88	3416.01
995.04	3413.96
995.20	3434.44
995.36	3510.22
995.52	3477.45
995.68	3557.32
995.84	3450.83
996.00	3493.83
996.16	3325.90
996.32	3364.81
996.48	3416.01
996.64	3452.88
996.80	3471.31
996.96	3330.00
997.12	3264.46
997.28	3319.76
997.44	3393.48
997.60	3284.94
997.76	3211.22
997.92	3321.81
998.08	3299.28
998.24	3182.54
998.40	3301.33
998.56	3313.61
998.72	3266.51
998.88	3188.69
999.04	3250.13
999.20	3309.52
999.36	3231.69
999.52	3319.76
999.68	3274.70
999.84	3297.23
1000.00	3330.00
1000.16	3184.59
1000.32	3100.62
1000.48	3370.96
1000.64	3219.41
1000.80	3076.05
1000.95	3135.44
1001.11	3211.22
1001.27	3033.04
1001.43	3178.45
1001.59	3098.58
1001.75	3174.35
1001.91	3117.01
1002.07	3026.90
1002.23	3018.71
1002.39	2996.18
1002.55	3026.90
1002.71	3037.14
1002.87	3084.24
1003.03	3100.62
1003.19	2998.23
1003.34	3051.47
1003.50	3022.80
1003.66	3131.34
1003.82	3043.28
1003.98	3006.42
1004.14	2955.22
1004.30	2957.27
1004.46	3010.51
1004.62	2975.70
1004.78	2983.89
1004.94	2928.60
1005.09	3033.04
1005.25	2951.12
1005.41	2863.06
1005.57	3055.57
1005.73	2981.84
1005.89	2908.12
1006.05	2918.36
1006.21	3008.47
1006.37	2869.20
1006.52	2957.27
1006.68	2883.54
1006.84	3055.57
1007.00	2852.82
1007.16	2965.46
1007.32	2828.24
1007.48	2818.00
1007.64	2811.86
1007.79	2838.48
1007.95	2813.91
1008.11	2957.27
1008.27	2863.06
1008.43	2854.87
1008.59	2699.22
1008.75	2883.54
1008.91	2779.09
1009.06	2772.95
1009.22	2869.20
1009.38	2803.67
1009.54	2768.85
1009.70	2856.92
1009.86	2740.18
1010.01	2721.75
1010.17	2682.84
1010.33	2811.86
1010.49	2768.85
1010.65	2770.90
1010.81	2668.50
1010.96	2709.46
1011.12	2691.03
1011.28	2639.83
1011.44	2654.17
1011.60	2660.31
1011.76	2605.02
1011.91	2752.47
1012.07	2592.73
1012.23	2557.91
1012.39	2713.56
1012.55	2590.68
1012.71	2607.06
1012.86	2494.43
1013.02	2650.07
1013.18	2551.77
1013.34	2584.54
1013.50	2605.02
1013.65	2594.78
1013.81	2490.33
1013.97	2494.43
1014.13	2572.25
1014.29	2578.39
1014.44	2691.03
1014.60	2516.95
1014.76	2541.53
1014.92	2611.16
1015.07	2617.30
1015.23	2535.39
1015.39	2502.62
1015.55	2486.23
1015.71	2578.39
1015.86	2492.38
1016.02	2547.67
1016.18	2426.84
1016.34	2502.62
1016.49	2488.28
1016.65	2559.96
1016.81	2457.56
1016.97	2533.34
1017.12	2475.99
1017.28	2402.27
1017.44	2281.44
1017.60	2506.71
1017.75	2473.95
1017.91	2486.23
1018.07	2420.70
1018.23	2492.38
1018.38	2465.75
1018.54	2377.69
1018.70	2373.60
1018.86	2394.08
1019.01	2461.66
1019.17	2367.45
1019.33	2486.23
1019.49	2420.70
1019.64	2369.50
1019.80	2371.55
1019.96	2437.08
1020.12	2363.36
1020.27	2365.40
1020.43	2351.07
1020.59	2293.72
1020.74	2445.27
1020.90	2367.45
1021.06	2197.47
1021.22	2310.11
1021.37	2252.77
1021.53	2273.25
1021.69	2408.41
1021.84	2277.34
1022.00	2248.67
1022.16	2289.63
1022.31	2289.63
1022.47	2279.39
1022.63	2342.88
1022.79	2217.95
1022.94	2252.77
1023.10	2373.60
1023.26	2222.05
1023.41	2246.62
1023.57	2211.81
1023.73	2273.25
1023.88	2191.33
1024.04	2131.94
1024.20	2209.76
1024.35	2326.49
1024.51	2279.39
1024.67	2189.28
1024.82	2359.26
1024.98	2158.56
1025.14	2240.48
1025.29	2174.94
1025.45	2342.88
1025.61	2154.46
1025.76	2222.05
1025.92	2279.39
1026.08	2248.67
1026.23	2297.82
1026.39	2207.71
1026.55	2269.15
1026.70	2123.74
1026.86	2207.71
1027.02	2197.47
1027.17	2133.98
1027.33	2203.61
1027.48	2088.93
1027.64	2138.08
1027.80	2080.74
1027.95	2211.81
1028.11	2133.98
1028.27	2140.13
1028.42	2187.23
1028.58	2142.18
1028.73	2047.97
1028.89	2039.78
1029.05	2113.50
1029.20	2166.75
>>>>>End Processed Spectral Data<<<<<
