SpectraSuite Data File
++++++++++++++++++++++++++++++++++++
Date: Fri Jun 02 14:51:13 CEST 2017
User: INFO_000
Dark Spectrum Present: No
Reference Spectrum Present: No
Number of Sampled Component Spectra: 1
Spectrometers: USB4H00879
Integration Time (usec): 80000 (USB4H00879)
Spectra Averaged: 1 (USB4H00879)
Boxcar Smoothing: 0 (USB4H00879)
Correct for Electrical Dark: No (USB4H00879)
Strobe/Lamp Enabled: No (USB4H00879)
Correct for Detector Non-linearity: No (USB4H00879)
Correct for Stray Light: No (USB4H00879)
Number of Pixels in Processed Spectrum: 3648
>>>>>Begin Processed Spectral Data<<<<<
345.13	1316.84
345.34	1316.84
345.56	1316.84
345.78	1306.60
345.99	1269.74
346.21	1718.25
346.42	1642.47
346.64	1662.95
346.86	1841.12
347.07	1591.27
347.29	1687.53
347.50	1654.76
347.72	1695.72
347.94	1697.77
348.15	1611.75
348.37	1691.62
348.59	1667.05
348.80	1621.99
349.02	1769.44
349.23	1830.88
349.45	1843.17
349.67	1927.14
349.88	1845.22
350.10	1935.33
350.31	1832.93
350.53	1867.75
350.75	2009.06
350.96	1787.88
351.18	1863.65
351.39	1902.56
351.61	1880.04
351.82	1943.52
352.04	1953.76
352.26	1841.12
352.47	1880.04
352.69	1933.28
352.90	1757.16
353.12	1918.95
353.34	1890.28
353.55	1894.37
353.77	1896.42
353.98	1787.88
354.20	1853.41
354.41	1976.29
354.63	1933.28
354.85	2052.06
355.06	1896.42
355.28	1783.78
355.49	1847.27
355.71	1914.85
355.92	1941.47
356.14	1974.24
356.35	1753.06
356.57	1812.45
356.79	1904.61
357.00	1941.47
357.22	2015.20
357.43	1843.17
357.65	1984.48
357.86	1828.84
358.08	1927.14
358.29	1904.61
358.51	1966.05
358.72	1890.28
358.94	1976.29
359.16	1908.71
359.37	1935.33
359.59	1908.71
359.80	1972.19
360.02	1986.53
360.23	1918.95
360.45	2007.01
360.66	1867.75
360.88	1851.36
361.09	1961.95
361.31	1933.28
361.52	1951.71
361.74	2068.45
361.95	1988.58
362.17	2031.58
362.38	2078.69
362.60	2093.02
362.81	1992.67
363.03	1910.75
363.24	1943.52
363.46	2093.02
363.67	2033.63
363.89	1978.34
364.10	1992.67
364.32	1910.75
364.53	2086.88
364.75	1920.99
364.96	2011.11
365.18	2082.78
365.39	2002.91
365.61	1941.47
365.82	2179.04
366.04	2068.45
366.25	1986.53
366.47	2084.83
366.68	2031.58
366.90	1910.75
367.11	2111.46
367.33	2035.68
367.54	2017.25
367.76	2043.87
367.97	2084.83
368.19	1941.47
368.40	2064.35
368.62	1964.00
368.83	1988.58
369.05	2035.68
369.26	2011.11
369.48	1994.72
369.69	1959.91
369.91	2045.92
370.12	2076.64
370.33	2195.42
370.55	1972.19
370.76	2127.84
370.98	2031.58
371.19	2054.11
371.41	2045.92
371.62	2088.93
371.84	2015.20
372.05	2181.09
372.27	2039.78
372.48	2027.49
372.69	2084.83
372.91	2152.42
373.12	2199.52
373.34	2066.40
373.55	2148.32
373.77	2230.24
373.98	2093.02
374.20	2146.27
374.41	2236.38
374.62	2205.66
374.84	2179.04
375.05	2226.14
375.27	2097.12
375.48	2203.61
375.70	2090.98
375.91	2166.75
376.12	2289.63
376.34	2170.85
376.55	2156.51
376.77	2176.99
376.98	2189.28
377.19	2099.17
377.41	2115.55
377.62	2224.09
377.84	2201.57
378.05	2357.21
378.27	2222.05
378.48	2324.44
378.69	2295.77
378.91	2303.96
379.12	2199.52
379.34	2215.90
379.55	2367.45
379.76	2232.29
379.98	2195.42
380.19	2289.63
380.41	2273.25
380.62	2283.49
380.83	2291.68
381.05	2172.89
381.26	2371.55
381.47	2265.05
381.69	2277.34
381.90	2381.79
382.12	2344.92
382.33	2297.82
382.54	2297.82
382.76	2301.92
382.97	2324.44
383.19	2281.44
383.40	2375.64
383.61	2344.92
383.83	2283.49
384.04	2306.01
384.25	2353.12
384.47	2449.37
384.68	2344.92
384.89	2385.88
385.11	2281.44
385.32	2314.20
385.54	2299.87
385.75	2324.44
385.96	2490.33
386.18	2342.88
386.39	2404.32
386.60	2314.20
386.82	2359.26
387.03	2445.27
387.24	2453.47
387.46	2439.13
387.67	2488.28
387.88	2437.08
388.10	2457.56
388.31	2480.09
388.52	2519.00
388.74	2441.18
388.95	2516.95
389.16	2547.67
389.38	2531.29
389.59	2506.71
389.80	2508.76
390.02	2562.01
390.23	2564.06
390.44	2457.56
390.66	2572.25
390.87	2447.32
391.08	2549.72
391.30	2666.46
391.51	2629.59
391.72	2713.56
391.94	2572.25
392.15	2578.39
392.36	2535.39
392.58	2617.30
392.79	2738.13
393.00	2637.78
393.22	2777.05
393.43	2740.18
393.64	2836.44
393.85	2818.00
394.07	2711.51
394.28	2686.94
394.49	2787.29
394.71	2770.90
394.92	2807.77
395.13	2615.26
395.35	2693.08
395.56	2674.65
395.77	2740.18
395.98	2742.23
396.20	2840.53
396.41	2832.34
396.62	2797.53
396.84	2832.34
397.05	2840.53
397.26	2856.92
397.47	2920.40
397.69	2852.82
397.90	2998.23
398.11	2914.26
398.32	2934.74
398.54	2871.25
398.75	2904.02
398.96	2957.27
399.18	3080.14
399.39	2998.23
399.60	3026.90
399.81	2791.38
400.03	2932.69
400.24	3258.32
400.45	2932.69
400.66	2985.94
400.88	2955.22
401.09	3151.82
401.30	3055.57
401.51	3121.10
401.73	3108.82
401.94	3188.69
402.15	3137.49
402.36	3168.21
402.58	3135.44
402.79	3184.59
403.00	3170.26
403.21	3121.10
403.43	3117.01
403.64	3151.82
403.85	2881.49
404.06	3157.97
404.27	2987.99
404.49	3106.77
404.70	3069.91
404.91	3305.42
405.12	3207.12
405.34	3268.56
405.55	3338.19
405.76	2987.99
405.97	3098.58
406.19	3401.68
406.40	3121.10
406.61	3334.09
406.82	3280.85
407.03	3289.04
407.25	3286.99
407.46	3426.25
407.67	3477.45
407.88	3426.25
408.09	3278.80
408.31	3497.93
408.52	3264.46
408.73	3344.33
408.94	3454.92
409.15	3413.96
409.37	3444.68
409.58	3444.68
409.79	3450.83
410.00	3526.60
410.21	3428.30
410.43	3442.64
410.64	3332.05
410.85	3504.07
411.06	3547.08
411.27	3526.60
411.48	3682.25
411.70	3479.50
411.91	3563.47
412.12	3538.89
412.33	3542.99
412.54	3618.76
412.76	3676.10
412.97	3762.12
413.18	3555.27
413.39	3583.95
413.60	3575.75
413.81	3594.19
414.03	3532.75
414.24	3590.09
414.45	3825.61
414.66	3563.47
414.87	3676.10
415.08	3774.41
415.30	3743.69
415.51	3760.07
415.72	3635.14
415.93	3645.38
416.14	3647.43
416.35	3682.25
416.56	3833.80
416.78	3833.80
416.99	3817.41
417.20	3803.08
417.41	3749.83
417.62	3731.40
417.83	3903.43
418.04	3827.65
418.26	3936.20
418.47	3817.41
418.68	3936.20
418.89	3940.29
419.10	4136.90
419.31	3999.68
419.52	3966.92
419.73	3923.91
419.95	4163.52
420.16	3823.56
420.37	4052.93
420.58	4005.83
420.79	3848.13
421.00	4011.97
421.21	4112.32
421.42	3930.05
421.63	4030.40
421.85	4097.99
422.06	4081.60
422.27	3993.54
422.48	4235.20
422.69	4077.51
422.90	4110.27
423.11	4249.54
423.32	4218.82
423.53	4296.64
423.75	4198.34
423.96	4394.94
424.17	4452.28
424.38	4362.17
424.59	4399.04
424.80	4562.87
425.01	4390.84
425.22	4337.60
425.43	4384.70
425.64	4487.10
425.85	4683.70
426.06	4509.63
426.28	4423.61
426.49	4581.31
426.70	4462.52
426.91	4544.44
427.12	4704.18
427.33	4546.49
427.54	4460.48
427.75	4501.44
427.96	4868.02
428.17	4603.83
428.38	4761.53
428.59	4818.87
428.80	4753.34
429.01	4872.12
429.23	4695.99
429.44	4960.18
429.65	4906.93
429.86	5017.52
430.07	4851.64
430.28	4925.36
430.49	4925.36
430.70	5058.48
430.91	5042.10
431.12	4956.08
431.33	4966.32
431.54	5064.63
431.75	4980.66
431.96	5025.72
432.17	5248.94
432.38	5103.54
432.59	5339.05
432.80	5179.31
433.01	5179.31
433.22	5140.40
433.43	5300.14
433.64	5271.47
433.85	5138.35
434.06	5353.39
434.27	5238.70
434.49	5294.00
434.70	5429.17
434.91	5320.62
435.12	5535.66
435.33	5486.51
435.54	5224.37
435.75	5275.57
435.96	5377.97
436.17	5425.07
436.38	5390.25
436.59	5515.18
436.80	5463.98
437.01	5722.02
437.22	5791.66
437.43	5580.71
437.64	5476.27
437.85	5674.92
438.06	5722.02
438.27	5519.28
438.48	5570.48
438.69	5691.31
438.90	5705.64
439.11	5670.83
439.32	5754.79
439.53	5693.35
439.74	5889.96
439.95	5877.67
440.16	5779.37
440.37	5785.51
440.57	5797.80
440.78	5805.99
440.99	6023.08
441.20	5871.53
441.41	5914.53
441.62	5980.07
441.83	5812.14
442.04	6102.95
442.25	6074.28
442.46	6037.41
442.67	6152.10
442.88	6471.58
443.09	6123.43
443.30	5965.73
443.51	6045.60
443.72	6291.36
443.93	6061.99
444.14	6365.09
444.35	5908.39
444.56	6418.33
444.77	6289.31
444.98	6195.11
445.19	6317.98
445.40	6360.99
445.61	6401.95
445.81	6371.23
446.02	6455.20
446.23	6274.98
446.44	6266.78
446.65	6385.57
446.86	6414.24
447.07	6610.84
447.28	6666.14
447.49	6608.80
447.70	6655.90
447.91	6463.39
448.12	6707.10
448.33	6619.04
448.54	6676.38
448.74	6555.55
448.95	6746.01
449.16	6619.04
449.37	6954.90
449.58	6688.67
449.79	6944.66
450.00	6692.76
450.21	6823.83
450.42	7055.25
450.63	6926.23
450.84	6889.37
451.05	7077.78
451.25	6868.89
451.46	6864.79
451.67	7067.54
451.88	7174.03
452.09	7038.87
452.30	6999.96
452.51	6977.43
452.72	7184.27
452.93	7438.22
453.13	7188.37
453.34	7128.98
453.55	7122.84
453.76	7278.48
453.97	7557.00
454.18	7440.27
454.39	7483.28
454.60	7327.63
454.81	7548.81
455.01	7532.43
455.22	7194.51
455.43	7532.43
455.64	7683.98
455.85	7829.38
456.06	7942.02
456.27	7813.00
456.48	7724.94
456.68	7700.36
456.89	7751.56
457.10	7821.19
457.31	7915.40
457.52	7757.71
457.73	7925.64
457.94	8030.09
458.14	7974.79
458.35	8406.91
458.56	7991.17
458.77	8140.68
458.98	8116.10
459.19	8187.78
459.39	8193.92
459.60	8284.03
459.81	8081.28
460.02	8474.49
460.23	8433.54
460.44	8460.16
460.65	8466.30
460.85	8648.57
461.06	8636.28
461.27	8294.27
461.48	8836.99
461.69	8859.51
461.89	8546.17
462.10	8865.66
462.31	8583.04
462.52	8712.06
462.73	8939.38
462.94	9201.52
463.14	8828.79
463.35	9039.73
463.56	9424.75
463.77	9443.18
463.98	8982.39
464.18	9289.59
464.39	9471.86
464.60	9441.14
464.81	9408.37
465.02	9484.14
465.23	9734.00
465.43	9379.70
465.64	9699.18
465.85	9602.93
466.06	9570.16
466.27	9922.41
466.47	9875.31
466.68	9817.96
466.89	9858.92
467.10	10102.63
467.30	9891.69
467.51	9879.40
467.72	10336.10
467.93	9807.72
468.14	10135.40
468.34	10309.47
468.55	10510.18
468.76	10487.65
468.97	10334.05
469.17	10655.58
469.38	10600.29
469.59	10745.69
469.80	10643.29
470.01	10602.33
470.21	10829.66
470.42	11026.26
470.63	11061.08
470.84	10786.65
471.04	11272.02
471.25	11097.94
471.46	11069.27
471.67	11497.30
471.87	11261.78
472.08	11460.43
472.29	11769.68
472.50	11272.02
472.70	11503.44
472.91	11652.94
473.12	11839.31
473.33	11765.58
473.53	11872.07
473.74	11902.79
473.95	12152.65
474.16	12248.90
474.36	12058.44
474.57	12320.58
474.78	12568.38
474.99	12488.51
475.19	12318.53
475.40	12664.64
475.61	12775.23
475.81	12660.54
476.02	13127.48
476.23	13096.76
476.44	13072.18
476.64	13305.65
476.85	13168.44
477.06	13496.11
477.27	13721.39
477.47	13504.31
477.68	13524.79
477.89	13817.65
478.09	13715.25
478.30	13903.66
478.51	13569.84
478.71	14051.11
478.92	14178.09
479.13	14217.00
479.34	14454.56
479.54	14130.98
479.75	14298.92
479.96	14554.91
480.16	14417.70
480.37	14651.17
480.58	14901.02
480.78	15109.91
480.99	14999.32
481.20	15085.34
481.41	15183.64
481.61	15183.64
481.82	15329.05
482.03	15443.73
482.23	15329.05
482.44	15605.52
482.65	15804.17
482.85	15810.32
483.06	15787.79
483.27	16240.39
483.47	15875.85
483.68	16070.41
483.89	16197.38
484.09	16221.96
484.30	16404.23
484.51	16410.37
484.71	16559.88
484.92	16736.00
485.13	16867.07
485.33	17004.28
485.54	16918.27
485.75	17073.92
485.95	17485.56
486.16	17174.27
486.37	17432.31
486.57	17415.93
486.78	17522.42
486.98	17465.08
487.19	17839.86
487.40	17727.22
487.60	17770.22
487.81	17934.06
488.02	17846.00
488.22	17991.41
488.43	18300.65
488.64	18390.76
488.84	18427.62
489.05	18714.34
489.25	18487.01
489.46	18732.77
489.67	18681.57
489.87	18845.41
490.08	18814.69
490.29	18999.01
490.49	19154.65
490.70	19459.80
490.90	19453.66
491.11	19265.24
491.32	19529.43
491.52	19601.11
491.73	19451.61
491.94	19703.51
492.14	19736.27
492.35	19754.71
492.55	20094.67
492.76	19957.46
492.97	20459.21
493.17	20283.08
493.38	20299.47
493.58	20494.02
493.79	20383.43
494.00	20664.00
494.20	20780.74
494.41	20784.83
494.61	21003.97
494.82	20985.54
495.02	20676.29
495.23	21128.89
495.44	21083.84
495.64	21427.90
495.85	21356.22
496.05	21270.20
496.26	21251.77
496.47	21671.61
496.67	21337.79
496.88	21909.17
497.08	21694.13
497.29	21986.99
497.49	21692.08
497.70	21843.63
497.91	22347.44
498.11	22070.96
498.32	22267.56
498.52	22478.50
498.73	22685.35
498.93	22613.67
499.14	22648.49
499.34	22738.60
499.55	22789.80
499.76	22965.92
499.96	23121.57
500.17	22707.88
500.37	23000.74
500.58	23029.41
500.78	23133.86
500.99	22847.14
501.19	23271.07
501.40	23371.42
501.60	23070.37
501.81	23570.07
502.02	23697.05
502.22	23545.50
502.43	23473.82
502.63	23819.92
502.84	23871.12
503.04	23856.79
503.25	23967.38
503.45	24233.61
503.66	23871.12
503.86	24272.53
504.07	24309.39
504.27	24065.68
504.48	24637.06
504.68	24422.03
504.89	24766.09
505.09	24766.09
505.30	24618.63
505.50	24669.83
505.71	24950.40
505.91	24891.01
506.12	25003.65
506.32	24907.40
506.53	24979.07
506.73	25245.31
506.94	25106.05
507.14	25149.06
507.35	25091.71
507.55	25140.86
507.76	25579.13
507.96	25374.33
508.17	25609.85
508.37	25536.12
508.58	25648.76
508.78	25751.16
508.99	26066.55
509.19	25915.00
509.40	25857.65
509.60	25955.96
509.81	26009.20
510.01	25790.07
510.22	25765.49
510.42	25790.07
510.63	25878.13
510.83	26343.02
511.04	26146.42
511.24	26592.87
511.44	26168.94
511.65	26603.11
511.85	26426.99
512.06	26541.68
512.26	26547.82
512.47	26615.40
512.67	26668.65
512.88	26705.51
513.08	26539.63
513.29	26932.84
513.49	27090.53
513.69	26814.05
513.90	26996.32
514.10	27158.11
514.31	27043.43
514.51	27291.23
514.72	27184.74
514.92	27266.66
515.13	27471.45
515.33	27571.80
515.53	27506.27
515.74	27407.97
515.94	27694.68
516.15	27676.25
516.35	27553.37
516.56	27577.95
516.76	27612.76
516.96	28186.19
517.17	27805.27
517.37	27756.12
517.58	27903.57
517.78	28053.08
517.99	27958.87
518.19	28251.73
518.39	28067.41
518.60	28624.46
518.80	28331.60
519.01	28800.58
519.21	28481.10
519.41	28964.42
519.62	28710.47
519.82	28421.71
520.03	28755.53
520.23	29044.29
520.43	28677.71
520.64	29367.87
520.84	29015.62
521.05	29175.36
521.25	29062.72
521.45	29314.62
521.66	29724.22
521.86	29468.22
522.07	29470.27
522.27	29511.23
522.47	29496.89
522.68	29636.16
522.88	29963.83
523.08	30086.71
523.29	29699.64
523.49	29988.41
523.70	29972.02
523.90	30029.37
524.10	30242.35
524.31	30547.50
524.51	30146.10
524.71	30637.61
524.92	30557.74
525.12	30725.68
525.33	30518.83
525.53	30447.15
525.73	31186.47
525.94	30830.12
526.14	31157.80
526.34	31104.55
526.55	31120.93
526.75	31247.91
526.95	31495.71
527.16	31159.84
527.36	31276.58
527.56	31632.93
527.77	31792.67
527.97	31798.81
528.17	31477.28
528.38	31927.83
528.58	31985.18
528.78	32067.09
528.99	31901.21
529.19	32482.83
529.39	31895.07
529.60	32423.44
529.80	32249.36
530.00	32249.36
530.21	32591.37
530.41	33027.59
530.61	33023.50
530.82	32896.52
531.02	32857.61
531.22	32888.33
531.43	33193.48
531.63	33328.64
531.83	33539.58
532.04	33771.00
532.24	33203.72
532.44	33736.19
532.64	34203.13
532.85	34070.01
533.05	33893.88
533.25	33994.23
533.46	33832.44
533.66	34399.73
533.86	34440.69
534.07	34549.23
534.27	34432.50
534.47	34549.23
534.67	34950.63
534.88	34469.36
535.08	34883.05
535.28	34895.34
535.49	34885.10
535.69	35274.21
535.89	35014.12
536.09	35233.25
536.30	35405.28
536.50	35309.03
536.70	35800.54
536.91	35562.98
537.11	35438.05
537.31	35528.16
537.51	35849.69
537.72	36425.17
537.92	36224.47
538.12	36642.26
538.32	36271.57
538.53	36607.44
538.73	36283.86
538.93	36292.05
539.13	36406.74
539.34	36634.06
539.54	36646.35
539.74	37141.96
539.94	36709.84
540.15	36802.00
540.35	37170.63
540.55	37051.85
540.75	36971.98
540.96	37500.36
541.16	37131.72
541.36	36953.55
541.56	37645.76
541.77	37807.55
541.97	37361.09
542.17	37678.53
542.37	37907.90
542.58	37993.92
542.78	37719.49
542.98	38008.25
543.18	38061.50
543.38	38317.50
543.59	38389.17
543.79	38086.07
543.99	38041.02
544.19	38233.53
544.40	38430.13
544.60	38440.37
544.80	38600.12
545.00	38612.40
545.20	38860.21
545.41	38720.95
545.61	38972.85
545.81	38852.02
546.01	39237.03
546.21	39015.85
546.42	39026.09
546.62	39155.11
546.82	39130.54
547.02	39306.66
547.22	39564.71
547.43	39089.58
547.63	39529.89
547.83	39288.23
548.03	39019.95
548.23	40080.80
548.44	39730.59
548.64	39640.48
548.84	39736.74
549.04	39755.17
549.24	39953.82
549.45	40342.94
549.65	39671.20
549.85	40170.91
550.05	40025.50
550.25	39744.93
550.45	40863.12
550.66	40580.50
550.86	40052.12
551.06	40537.49
551.26	40680.85
551.46	40424.86
551.66	40725.91
551.87	40519.06
552.07	40727.95
552.27	40709.52
552.47	40416.66
552.67	40684.95
552.87	40777.11
553.07	40908.18
553.28	41055.63
553.48	40930.70
553.68	40936.85
553.88	41424.26
554.08	41293.19
554.28	41448.84
554.48	40719.76
554.69	41278.86
554.89	41723.27
555.09	41627.01
555.29	41033.10
555.49	41682.31
555.69	41764.23
555.89	41895.30
556.10	42161.53
556.30	41506.18
556.50	41756.03
556.70	41713.03
556.90	41960.83
557.10	41911.68
557.30	41694.60
557.50	42018.17
557.70	42065.28
557.91	42429.82
558.11	42104.19
558.31	42489.21
558.51	42120.57
558.71	42296.70
558.91	42302.84
559.11	42235.26
559.31	42118.53
559.51	42208.64
559.72	42124.67
559.92	42397.05
560.12	42317.18
560.32	42638.71
560.52	42161.53
560.72	42689.91
560.92	42831.22
561.12	42528.12
561.32	42945.90
561.52	42687.86
561.72	43285.87
561.93	42796.40
562.13	42720.63
562.33	42800.50
562.53	43472.23
562.73	42710.39
562.93	43285.87
563.13	43402.60
563.33	42931.57
563.53	43638.12
563.73	43011.44
563.93	43441.51
564.13	43507.05
564.33	43300.20
564.53	43412.84
564.74	43072.88
564.94	43414.89
565.14	43486.57
565.34	43214.19
565.54	43685.22
565.74	43679.08
565.94	43963.75
566.14	43853.15
566.34	43361.64
566.54	44021.09
566.74	43480.42
566.94	43668.84
567.14	43824.48
567.34	43777.38
567.54	43928.93
567.74	44094.82
567.94	43933.03
568.14	44070.24
568.34	44326.24
568.54	44127.58
568.74	44627.29
568.94	44037.47
569.14	44299.61
569.34	44232.03
569.54	44041.57
569.75	43785.57
569.95	44156.25
570.15	45032.78
570.35	44604.76
570.55	44277.08
570.75	44686.68
570.95	44414.30
571.15	44621.14
571.35	44604.76
571.55	45098.32
571.75	44971.35
571.95	44762.45
572.15	44424.54
572.35	44715.35
572.55	44541.27
572.75	44725.59
572.95	45114.70
573.15	45231.44
573.35	44766.55
573.55	44571.99
573.75	44827.99
573.95	45509.96
574.15	45047.12
574.35	45454.67
574.55	45581.64
574.75	45319.50
574.95	45356.36
575.15	45290.83
575.34	45282.64
575.54	45526.35
575.74	45501.77
575.94	45604.17
576.14	45622.60
576.34	45931.84
576.54	46155.07
576.74	45878.60
576.94	45829.44
577.14	46003.52
577.34	46128.45
577.54	45811.01
577.74	45901.12
577.94	46372.16
578.14	46167.36
578.34	46447.93
578.54	45993.28
578.74	46067.01
578.94	46548.28
579.14	46277.95
579.34	46351.68
579.54	46521.66
579.74	46943.54
579.94	46857.52
580.13	46619.96
580.33	46830.90
580.53	46896.44
580.73	46830.90
580.93	47119.66
581.13	47117.62
581.33	47117.62
581.53	47080.75
581.73	47103.28
581.93	47269.17
582.13	47191.34
582.33	47523.11
582.53	47322.41
582.73	47654.18
582.92	47301.93
583.12	47596.84
583.32	47396.14
583.52	47134.00
583.72	48037.16
583.92	47447.34
584.12	47734.06
584.32	48477.47
584.52	47660.33
584.72	48069.92
584.92	48061.73
585.11	48317.73
585.31	47996.20
585.51	48469.28
585.71	47971.62
585.91	48418.08
586.11	47908.13
586.31	48198.94
586.51	48577.82
586.71	48420.13
586.91	48432.41
587.10	48764.18
587.30	48848.15
587.50	48633.11
587.70	48925.97
587.90	48831.77
588.10	48727.32
588.30	48622.87
588.50	48651.55
588.69	49124.63
588.89	48735.51
589.09	49243.41
589.29	49222.93
589.49	49569.04
589.69	49024.28
589.89	49341.71
590.08	49755.40
590.28	49235.22
590.48	49310.99
590.68	49437.97
590.88	49562.89
591.08	49648.91
591.28	48788.76
591.47	49773.83
591.67	49485.07
591.87	49325.33
592.07	49587.47
592.27	49870.09
592.47	49550.60
592.67	49851.66
592.86	49874.18
593.06	50072.84
593.26	50326.78
593.46	49943.81
593.66	49714.44
593.86	50160.90
594.05	49980.68
594.25	50550.01
594.45	49739.02
594.65	50631.93
594.85	49745.16
595.05	50162.95
595.24	50371.84
595.44	50296.06
595.64	49984.77
595.84	50666.75
596.04	50599.16
596.23	50760.95
596.43	51195.12
596.63	50896.12
596.83	50603.26
597.03	51076.34
597.22	51248.37
597.42	50791.67
597.62	51168.50
597.82	51262.71
598.02	51459.31
598.21	51180.79
598.41	51123.44
598.61	51371.25
598.81	50951.41
599.01	51467.50
599.20	51113.20
599.40	51481.84
599.60	51674.35
599.80	52059.37
600.00	51707.12
600.19	51795.18
600.39	51172.60
600.59	52026.60
600.79	52212.96
600.98	51631.34
601.18	52077.80
601.38	51987.69
601.58	51803.37
601.78	52147.43
601.97	52163.81
602.17	52282.59
602.37	52536.54
602.57	52501.73
602.76	52475.10
602.96	52202.72
603.16	52618.46
603.36	52595.93
603.55	52589.79
603.75	52835.55
603.95	52409.57
604.15	52698.33
604.34	52817.11
604.54	52851.93
604.74	53155.03
604.94	53077.21
605.13	52757.72
605.33	53155.03
605.53	52495.58
605.73	53099.73
605.92	53146.84
606.12	53433.55
606.32	53085.40
606.52	53441.74
606.71	53007.58
606.91	53253.33
607.11	53331.15
607.30	53386.45
607.50	53372.11
607.70	53581.01
607.90	53884.11
608.09	53505.23
608.29	53581.01
608.49	53781.71
608.68	53814.47
608.88	53771.47
609.08	53857.48
609.28	53923.02
609.47	53376.21
609.67	54121.67
609.87	53474.51
610.06	54097.09
610.26	54047.94
610.46	54244.55
610.66	53808.33
610.85	54140.10
611.05	54080.71
611.25	53761.23
611.44	54265.03
611.64	54144.20
611.84	54076.61
612.03	54054.09
612.23	53867.72
612.43	54351.04
612.62	54097.09
612.82	54588.61
613.02	54068.42
613.21	54162.63
613.41	53949.64
613.61	54574.27
613.80	53994.70
614.00	54498.50
614.20	54412.48
614.39	54703.29
614.59	54742.20
614.79	54428.87
614.98	54375.62
615.18	54301.89
615.38	54779.07
615.57	54131.91
615.77	54101.19
615.97	54387.91
616.16	54555.84
616.36	54351.04
616.56	54723.77
616.75	54025.42
616.95	54437.06
617.15	54543.55
617.34	54557.89
617.54	54506.69
617.74	54785.21
617.93	54641.85
618.13	54688.96
618.32	54662.33
618.52	54574.27
618.72	54820.03
618.91	54574.27
619.11	54822.08
619.31	54699.20
619.50	54576.32
619.70	54023.37
619.90	54459.58
620.09	54666.43
620.29	54580.42
620.48	54424.77
620.68	54813.88
620.88	53828.81
621.07	54490.30
621.27	54719.68
621.46	54199.49
621.66	54731.96
621.86	54285.51
622.05	54418.63
622.25	54947.00
622.44	54187.21
622.64	54193.35
622.84	54744.25
623.03	54375.62
623.23	54576.32
623.42	54613.18
623.62	54801.60
623.82	54959.29
624.01	54500.54
624.21	54754.49
624.40	54449.35
624.60	54527.17
624.80	54392.00
624.99	54580.42
625.19	53818.57
625.38	54736.06
625.58	54756.54
625.77	54658.24
625.97	54727.87
626.17	54643.90
626.36	54416.58
626.56	54879.42
626.75	54199.49
626.95	55141.56
627.14	54664.38
627.34	55381.17
627.54	54328.52
627.73	54555.84
627.93	55307.44
628.12	54344.90
628.32	54985.91
628.51	54615.23
628.71	54531.26
628.90	54860.99
629.10	54486.21
629.30	54789.31
629.49	54430.91
629.69	54359.23
629.88	54697.15
630.08	55018.68
630.27	54967.48
630.47	54740.16
630.66	54631.61
630.86	55170.23
631.05	54416.58
631.25	54774.97
631.44	54772.92
631.64	54578.37
631.84	54914.23
632.03	55053.50
632.23	54815.93
632.42	55145.65
632.62	55008.44
632.81	54572.22
633.01	54713.53
633.20	54744.25
633.40	54990.01
633.59	54856.89
633.79	54441.15
633.98	54768.83
634.18	54811.84
634.37	55444.66
634.57	54881.47
634.76	55073.98
634.96	54932.67
635.15	55047.35
635.35	54809.79
635.54	54703.29
635.74	54998.20
635.93	54727.87
636.13	55233.72
636.32	54865.08
636.52	54920.38
636.71	54963.39
636.91	54947.00
637.10	55231.67
637.30	55159.99
637.49	55219.38
637.69	54822.08
637.88	55149.75
638.08	55076.02
638.27	55307.44
638.46	55102.65
638.66	54959.29
638.85	54992.06
639.05	55246.00
639.24	55211.19
639.44	55262.39
639.63	55211.19
639.83	55190.71
640.02	55350.45
640.22	55024.82
640.41	55600.30
640.61	54703.29
640.80	55282.87
640.99	55383.22
641.19	55801.00
641.38	55313.59
641.58	55540.91
641.77	55139.51
641.97	54899.90
642.16	55432.37
642.36	55878.83
642.55	55112.89
642.74	55000.25
642.94	56046.76
643.13	55280.82
643.33	55571.63
643.52	55899.31
643.72	55721.13
643.91	55616.69
644.10	55817.39
644.30	55825.58
644.49	55237.81
644.69	55721.13
644.88	55878.83
645.08	55086.26
645.27	55657.65
645.46	55516.34
645.66	55993.51
645.85	55905.45
646.05	55801.00
646.24	55665.84
646.43	55372.98
646.63	55731.37
646.82	55860.40
647.02	55880.88
647.21	55766.19
647.40	55665.84
647.60	55839.92
647.79	56130.73
647.99	55993.51
648.18	55719.09
648.37	56204.45
648.57	56226.98
648.76	56286.37
648.96	55708.85
649.15	55801.00
649.34	56425.64
649.54	56239.27
649.73	55579.82
649.92	56573.09
650.12	56343.72
650.31	56179.88
650.51	56226.98
650.70	56437.92
650.89	56100.01
651.09	56761.50
651.28	55985.32
651.47	56407.20
651.67	56347.81
651.86	56564.90
652.06	55952.55
652.25	56464.55
652.44	56179.88
652.64	56413.35
652.83	56616.10
653.02	55901.36
653.22	56302.76
653.41	56442.02
653.60	55968.94
653.80	56284.33
653.99	56618.14
654.18	56177.83
654.38	56347.81
654.57	56210.60
654.76	56222.89
654.96	56386.72
655.15	56267.94
655.34	56431.78
655.54	55944.36
655.73	56259.75
655.92	56857.76
656.12	56747.17
656.31	56521.89
656.50	56657.06
656.70	56525.99
656.89	56738.97
657.08	56173.73
657.28	56249.51
657.47	56724.64
657.66	56849.56
657.86	56497.31
658.05	56497.31
658.24	56251.56
658.43	56298.66
658.63	56558.75
658.82	56452.26
659.01	57158.81
659.21	56417.44
659.40	56876.19
659.59	56538.27
659.79	56556.70
659.98	56802.46
660.17	56964.25
660.36	56509.60
660.56	56804.51
660.75	56689.82
660.94	56442.02
661.14	56538.27
661.33	56607.90
661.52	56280.23
661.71	57265.30
661.91	56652.96
662.10	56411.30
662.29	56665.25
662.49	56734.88
662.68	56624.29
662.87	57021.59
663.06	56726.69
663.26	56460.45
663.45	56585.38
663.64	56581.28
663.83	56933.53
664.03	56976.54
664.22	56761.50
664.41	56810.65
664.60	57048.22
664.80	56865.95
664.99	56767.65
665.18	57134.23
665.37	56685.73
665.57	56841.37
665.76	56956.06
665.95	56923.29
666.14	56997.02
666.34	56890.52
666.53	56861.85
666.72	56534.18
666.91	56890.52
667.11	56878.24
667.30	56818.84
667.49	56824.99
667.68	56636.58
667.87	56255.65
668.07	56714.40
668.26	56812.70
668.45	56622.24
668.64	56784.03
668.84	57492.63
669.03	56915.10
669.22	56849.56
669.41	56734.88
669.60	56757.41
669.80	56669.34
669.99	56808.61
670.18	56915.10
670.37	57140.38
670.57	57152.66
670.76	56845.47
670.95	56792.22
671.14	56335.52
671.33	56632.48
671.53	56988.83
671.72	57238.68
671.91	56841.37
672.10	56644.77
672.29	56794.27
672.48	56546.47
672.68	56794.27
672.87	57054.36
673.06	56460.45
673.25	56319.14
673.44	56571.04
673.64	56431.78
673.83	56659.10
674.02	56847.52
674.21	56640.67
674.40	56646.82
674.59	56065.19
674.79	56468.64
674.98	56317.09
675.17	56624.29
675.36	56366.24
675.55	56540.32
675.74	56046.76
675.94	56435.87
676.13	56777.89
676.32	56462.50
676.51	56628.38
676.70	57015.45
676.89	56448.16
677.08	57078.94
677.28	56382.63
677.47	56730.78
677.66	56886.43
677.85	56497.31
678.04	56704.16
678.23	56939.68
678.42	57134.23
678.62	56609.95
678.81	56941.72
679.00	56003.75
679.19	56890.52
679.38	56738.97
679.57	56601.76
679.76	56339.62
679.96	57277.59
680.15	56710.30
680.34	56652.96
680.53	56466.59
680.72	56452.26
680.91	56644.77
681.10	56525.99
681.29	56648.86
681.48	56194.21
681.68	56376.48
681.87	56378.53
682.06	56321.19
682.25	56603.81
682.44	56315.04
682.63	56452.26
682.82	55696.56
683.01	56173.73
683.20	55895.21
683.39	56325.28
683.59	55813.29
683.78	56302.76
683.97	55962.79
684.16	56118.44
684.35	55768.24
684.54	56284.33
684.73	55852.20
684.92	56022.19
685.11	55905.45
685.30	56067.24
685.49	56534.18
685.69	55702.70
685.88	55981.23
686.07	55559.34
686.26	55731.37
686.45	55995.56
686.64	55952.55
686.83	55727.28
687.02	56018.09
687.21	56253.61
687.40	56016.04
687.59	56030.38
687.78	55952.55
687.97	55860.40
688.16	55497.91
688.35	55502.00
688.54	55506.10
688.74	55620.78
688.93	55495.86
689.12	55588.02
689.31	55688.37
689.50	55934.12
689.69	55379.12
689.88	55325.88
690.07	55663.79
690.26	55116.98
690.45	55882.92
690.64	55852.20
690.83	55301.30
691.02	55622.83
691.21	55450.80
691.40	54965.43
691.59	55280.82
691.78	55389.36
691.97	55407.79
692.16	55536.82
692.35	55530.67
692.54	55368.88
692.73	55090.36
692.92	55157.94
693.11	55098.55
693.30	55100.60
693.49	55450.80
693.68	55358.64
693.87	55131.32
694.06	54121.67
694.25	55260.34
694.44	54451.39
694.63	55039.16
694.82	55383.22
695.01	54648.00
695.20	54736.06
695.39	54910.14
695.58	55250.10
695.77	54531.26
695.96	54330.56
696.15	54635.71
696.34	54781.12
696.53	54643.90
696.72	55145.65
696.91	54549.70
697.10	54637.76
697.29	54723.77
697.48	54736.06
697.67	54254.79
697.86	54138.05
698.05	54633.66
698.24	54899.90
698.43	53949.64
698.62	54899.90
698.81	53886.15
699.00	54400.19
699.19	54215.88
699.38	54570.18
699.57	53630.16
699.76	54983.86
699.95	53966.02
700.14	54166.73
700.32	54117.57
700.51	54244.55
700.70	54549.70
700.89	54154.44
701.08	54256.84
701.27	53794.00
701.46	54353.09
701.65	53984.46
701.84	54250.69
702.03	54336.71
702.22	53925.07
702.41	53963.98
702.60	53945.54
702.79	53884.11
702.98	53794.00
703.17	53916.87
703.35	53982.41
703.54	53572.81
703.73	53781.71
703.92	53494.99
704.11	53425.36
704.30	53740.75
704.49	53454.03
704.68	53142.74
704.87	53296.34
705.06	53312.72
705.25	53538.00
705.43	53361.87
705.62	53302.48
705.81	53112.02
706.00	53458.13
706.19	53337.30
706.38	53288.15
706.57	52868.31
706.76	52929.75
706.95	53183.70
707.14	53120.21
707.32	52727.00
707.51	52925.66
707.70	52825.31
707.89	53161.17
708.08	53294.29
708.27	52706.52
708.46	53359.83
708.65	52688.09
708.84	52733.15
709.02	52933.85
709.21	53060.82
709.40	52991.19
709.59	52899.03
709.78	52434.14
709.97	52819.16
710.16	52610.27
710.34	52495.58
710.53	52591.84
710.72	52788.44
710.91	52569.31
711.10	52548.83
711.29	52690.14
711.48	52671.71
711.66	52264.16
711.85	52550.88
712.04	52417.76
712.23	52096.23
712.42	52389.09
712.61	52540.64
712.80	52212.96
712.98	52473.06
713.17	52376.80
713.36	52438.24
713.55	51934.44
713.74	51961.06
713.93	51668.20
714.11	52077.80
714.30	52024.55
714.49	52176.10
714.68	51983.59
714.87	51854.57
715.06	52149.48
715.24	51766.51
715.43	51737.83
715.62	51623.15
715.81	51547.37
716.00	52196.58
716.18	51801.32
716.37	51680.49
716.56	51307.76
716.75	51750.12
716.94	51825.90
717.12	51467.50
717.31	51647.72
717.50	51770.60
717.69	51016.95
717.88	51533.04
718.06	51582.19
718.25	52131.04
718.44	51186.93
718.63	50930.93
718.82	50844.92
719.00	50719.99
719.19	51213.55
719.38	50836.73
719.57	50316.54
719.76	50398.46
719.94	50410.75
720.13	50466.05
720.32	50484.48
720.51	50306.30
720.69	50406.65
720.88	50308.35
721.07	50550.01
721.26	50226.43
721.44	50259.20
721.63	50208.00
721.82	49849.61
722.01	49962.25
722.20	50277.63
722.38	50115.84
722.57	49935.62
722.76	49861.90
722.95	49704.20
723.13	49597.71
723.32	49255.70
723.51	49376.53
723.70	49063.19
723.88	49560.84
724.07	49706.25
724.26	49626.38
724.44	49218.83
724.63	49669.39
724.82	49376.53
725.01	49165.59
725.19	49308.94
725.38	49100.05
725.57	49122.58
725.76	49409.29
725.94	48977.17
726.13	49259.79
726.32	48983.32
726.51	48942.36
726.69	49216.78
726.88	49077.52
727.07	48774.42
727.25	48862.49
727.44	48586.01
727.63	48477.47
727.82	48977.17
728.00	48995.60
728.19	48932.12
728.38	48790.81
728.56	48563.48
728.75	49237.26
728.94	48686.36
729.12	48856.34
729.31	48807.19
729.50	48749.85
729.69	48919.83
729.87	49104.15
730.06	48588.06
730.25	48323.87
730.43	48481.56
730.62	48481.56
730.81	49040.66
730.99	48762.14
731.18	48702.74
731.37	48801.05
731.55	49149.20
731.74	48749.85
731.93	48620.83
732.11	48633.11
732.30	48921.88
732.49	48727.32
732.67	48508.19
732.86	48663.83
733.05	48731.42
733.23	47891.75
733.42	48833.81
733.61	48500.00
733.79	48244.00
733.98	49016.08
734.17	48348.45
734.35	48788.76
734.54	48393.50
734.73	49005.84
734.91	48256.29
735.10	48241.95
735.29	48936.21
735.47	47899.94
735.66	48393.50
735.84	48618.78
736.03	48010.53
736.22	48663.83
736.40	48244.00
736.59	48203.04
736.78	48477.47
736.96	48272.67
737.15	48059.68
737.33	47979.81
737.52	47703.34
737.71	47945.00
737.89	47785.25
738.08	47627.56
738.27	47678.76
738.45	48375.07
738.64	48143.65
738.82	47686.95
739.01	47930.66
739.20	48004.39
739.38	47588.65
739.57	48268.58
739.75	47908.13
739.94	47746.34
740.13	47717.67
740.31	47754.54
740.50	47840.55
740.68	47639.85
740.87	47918.37
741.06	47629.61
741.24	47559.98
741.43	47318.32
741.61	47572.27
741.80	47228.21
741.99	47420.72
742.17	47240.50
742.36	47643.94
742.54	46974.26
742.73	47289.65
742.91	47314.22
743.10	47258.93
743.29	47326.51
743.47	47500.59
743.66	47050.03
743.84	47076.66
744.03	47086.90
744.21	46875.96
744.40	47156.53
744.59	47078.71
744.77	47211.82
744.96	47215.92
745.14	47258.93
745.33	47408.43
745.51	46990.64
745.70	46884.15
745.88	47078.71
746.07	47334.70
746.26	46875.96
746.44	46683.45
746.63	46785.85
746.81	46824.76
747.00	46691.64
747.18	46906.68
747.37	46679.35
747.55	47002.93
747.74	46853.43
747.92	46282.05
748.11	46507.32
748.29	46908.72
748.48	46728.50
748.66	46429.50
748.85	46613.82
749.03	46441.79
749.22	46699.83
749.41	46052.67
749.59	46376.25
749.78	45675.85
749.96	45763.91
750.15	45864.26
750.33	46347.58
750.52	45735.24
750.70	46105.92
750.89	46193.98
751.07	45720.90
751.26	46036.29
751.44	45962.56
751.63	45905.22
751.81	45417.80
752.00	45702.47
752.18	45987.14
752.37	45845.83
752.55	45516.11
752.74	45712.71
752.92	45677.90
753.10	45610.31
753.29	45372.75
753.47	45360.46
753.66	44909.91
753.84	45681.99
754.03	45024.59
754.21	45006.16
754.40	45159.76
754.58	45430.09
754.77	45303.12
754.95	45028.69
755.14	45344.08
755.32	45518.15
755.51	45135.18
755.69	45262.16
755.88	44762.45
756.06	45141.33
756.24	44772.69
756.43	45006.16
756.61	45170.00
756.80	44791.12
756.98	44428.63
757.17	44881.24
757.35	44891.48
757.54	44309.85
757.72	45086.03
757.90	44485.98
758.09	44424.54
758.27	44619.10
758.46	44402.01
758.64	44522.84
758.83	44610.90
759.01	44752.21
759.19	44701.01
759.38	44045.66
759.56	44893.52
759.75	44528.98
759.93	44262.75
760.12	44264.80
760.30	44426.59
760.48	44375.39
760.67	44223.84
760.85	43976.03
761.04	44272.99
761.22	44029.28
761.40	44049.76
761.59	43939.17
761.77	43750.76
761.96	43722.08
762.14	43969.89
762.32	43421.03
762.51	43562.34
762.69	43658.60
762.88	43488.62
763.06	43808.10
763.24	43603.30
763.43	43930.98
763.61	43599.21
763.80	43576.68
763.98	43480.42
764.16	43476.33
764.35	43283.82
764.53	43079.02
764.72	43214.19
764.90	42880.37
765.08	43021.68
765.27	43369.83
765.45	43177.33
765.63	42698.10
765.82	42927.47
766.00	42792.31
766.18	42562.93
766.37	43023.73
766.55	42839.41
766.74	42556.79
766.92	42958.19
767.10	42593.65
767.29	42759.54
767.47	42104.19
767.65	42579.32
767.84	42077.57
768.02	42534.26
768.20	42124.67
768.39	42751.35
768.57	42521.98
768.75	42470.78
768.94	42421.62
769.12	42184.06
769.30	42032.51
769.49	41852.29
769.67	41813.38
769.85	41606.53
770.04	42075.52
770.22	41768.32
770.40	41985.41
770.59	41745.80
770.77	41913.73
770.95	42046.85
771.14	41485.70
771.32	41764.23
771.50	41231.75
771.69	41448.84
771.87	41727.36
772.05	41004.43
772.24	41141.64
772.42	41577.86
772.60	41194.89
772.78	40986.00
772.97	41293.19
773.15	41043.34
773.33	41162.12
773.52	40965.52
773.70	40867.22
773.88	41340.30
774.07	40846.74
774.25	41051.53
774.43	41104.78
774.61	40895.89
774.80	41074.06
774.98	41145.74
775.16	41291.15
775.34	41362.82
775.53	40777.11
775.71	41188.75
775.89	41227.66
776.08	41491.85
776.26	41379.21
776.44	41383.30
776.62	41203.08
776.81	41045.39
776.99	41352.58
777.17	41166.22
777.35	41258.38
777.54	41495.94
777.72	41219.47
777.90	41608.58
778.08	41336.20
778.27	41356.68
778.45	41674.12
778.63	41670.02
778.81	41457.03
779.00	42098.05
779.18	41588.10
779.36	41901.44
779.54	41514.37
779.73	41483.66
779.91	41805.19
780.09	41502.09
780.27	41538.95
780.46	41541.00
780.64	41536.90
780.82	41682.31
781.00	41567.62
781.19	41715.08
781.37	41989.50
781.55	42196.35
781.73	42462.58
781.91	41774.47
782.10	41874.82
782.28	41940.35
782.46	42079.61
782.64	42149.24
782.82	41885.06
783.01	41891.20
783.19	42235.26
783.37	42108.29
783.55	41923.97
783.74	42308.99
783.92	42177.92
784.10	42431.86
784.28	41915.78
784.46	41844.10
784.64	42339.71
784.83	41989.50
785.01	42182.01
785.19	41995.65
785.37	42208.64
785.55	42149.24
785.74	41801.09
785.92	41432.46
786.10	41991.55
786.28	41803.14
786.46	41794.95
786.64	41682.31
786.83	41465.22
787.01	42032.51
787.19	41659.78
787.37	41817.47
787.55	41946.50
787.74	41579.91
787.92	41186.70
788.10	41545.09
788.28	41467.27
788.46	41852.29
788.64	40750.48
788.82	41758.08
789.01	41241.99
789.19	41526.66
789.37	41383.30
789.55	41332.11
789.73	41141.64
789.91	41342.35
790.09	41346.44
790.28	40594.84
790.46	40846.74
790.64	40834.45
790.82	40699.28
791.00	40826.26
791.18	40564.12
791.36	40691.09
791.55	40367.51
791.73	40650.13
791.91	40228.25
792.09	40486.29
792.27	40168.86
792.45	40596.88
792.63	39998.88
792.81	39839.14
793.00	39544.23
793.18	39841.18
793.36	40189.34
793.54	39753.12
793.72	39163.31
793.90	39296.42
794.08	39607.72
794.26	39613.86
794.44	39026.09
794.62	39138.73
794.81	39427.49
794.99	38729.14
795.17	39288.23
795.35	38614.45
795.53	39138.73
795.71	38958.51
795.89	38647.22
796.07	38456.76
796.25	38430.13
796.43	38299.06
796.61	38272.44
796.80	38421.94
796.98	38423.99
797.16	38311.35
797.34	38172.09
797.52	38124.99
797.70	38149.56
797.88	37889.47
798.06	37600.71
798.24	37475.78
798.42	37537.22
798.60	37762.50
798.78	37408.20
798.96	37643.71
799.14	37219.78
799.32	37313.99
799.51	37088.71
799.69	37619.14
799.87	37156.30
800.05	36697.55
800.23	36951.50
800.41	36611.54
800.59	36652.50
800.77	36640.21
800.95	36632.02
801.13	36761.04
801.31	36384.21
801.49	36257.24
801.67	36249.05
801.85	36107.74
802.03	35995.10
802.21	35683.81
802.39	35911.13
802.57	35737.05
802.75	35599.84
802.93	35464.67
803.11	36007.39
803.29	35628.51
803.47	35474.91
803.65	35280.36
803.83	35155.43
804.01	35268.07
804.19	34952.68
804.37	35040.75
804.55	34794.99
804.73	34754.03
804.91	34915.82
805.09	34774.51
805.27	35362.28
805.45	34422.26
805.63	34618.86
805.81	34641.39
805.99	34758.13
806.17	34833.90
806.35	34596.34
806.53	34037.24
806.71	34229.75
806.89	34086.39
807.07	34252.28
807.25	34391.54
807.43	33756.67
807.61	34485.75
807.79	33836.54
807.97	33650.17
808.15	33531.39
808.33	33322.50
808.51	33877.50
808.69	33617.41
808.87	33254.92
809.05	32951.82
809.23	33003.02
809.41	33152.52
809.59	32749.07
809.77	33123.85
809.95	32955.91
810.13	32947.72
810.31	32890.38
810.49	32652.81
810.67	32757.26
810.84	32843.27
811.02	32644.62
811.20	32441.87
811.38	32964.10
811.56	32435.73
811.74	32149.01
811.92	32202.26
812.10	32196.12
812.28	32372.24
812.46	32460.30
812.64	32302.61
812.82	31911.45
813.00	32044.57
813.18	32056.85
813.36	32163.35
813.53	31800.86
813.71	31819.29
813.89	31370.79
814.07	31911.45
814.25	31608.35
814.43	31383.07
814.61	31577.63
814.79	31243.81
814.97	31690.27
815.15	31407.65
815.33	31020.58
815.50	30899.75
815.68	31331.87
815.86	30963.24
816.04	30967.34
816.22	30770.73
816.40	30981.67
816.58	30852.65
816.76	30832.17
816.94	30971.43
817.11	30670.38
817.29	30780.97
817.47	30617.13
817.65	30324.27
817.83	30537.26
818.01	30572.08
818.19	30486.06
818.37	30244.40
818.54	30234.16
818.72	29838.90
818.90	30182.96
819.08	30375.47
819.26	30469.68
819.44	30103.09
819.62	29939.26
819.80	30027.32
819.97	30103.09
820.15	29716.03
820.33	29845.05
820.51	29851.19
820.69	29478.46
820.87	30000.69
821.05	29849.14
821.22	29550.14
821.40	29675.07
821.58	29138.50
821.76	29371.97
821.94	29357.63
822.12	29515.33
822.29	29521.47
822.47	29236.80
822.65	29277.76
822.83	29335.10
823.01	29355.58
823.19	28870.22
823.36	29234.75
823.54	29021.77
823.72	28931.65
823.90	28913.22
824.08	28685.90
824.25	28892.74
824.43	28700.23
824.61	28862.02
824.79	28751.43
824.97	28360.27
825.15	28653.13
825.32	28575.31
825.50	28593.74
825.68	28575.31
825.86	28450.38
826.04	28302.93
826.21	28077.65
826.39	28112.47
826.57	28245.58
826.75	28161.62
826.93	28055.12
827.10	27764.31
827.28	28137.04
827.46	27895.38
827.64	28061.27
827.81	27674.20
827.99	27829.85
828.17	27729.50
828.35	27698.78
828.53	27876.95
828.70	27805.27
828.88	27573.85
829.06	27641.43
829.24	27879.00
829.41	27653.72
829.59	27672.15
829.77	27274.85
829.95	27620.95
830.12	27844.18
830.30	27485.79
830.48	27342.43
830.66	27616.86
830.84	27285.09
831.01	27317.86
831.19	27491.93
831.37	27336.29
831.55	27014.76
831.72	26904.17
831.90	26951.27
832.08	27237.98
832.25	26994.28
832.43	27057.76
832.61	26715.75
832.79	26805.86
832.96	26818.15
833.14	26873.45
833.32	26795.62
833.50	26969.70
833.67	26889.83
833.85	26846.82
834.03	26437.23
834.20	26863.21
834.38	26644.07
834.56	26766.95
834.74	26201.71
834.91	26431.08
835.09	26447.47
835.27	26142.32
835.44	26406.51
835.62	26170.99
835.80	26070.64
835.98	26011.25
836.15	26306.16
836.33	26039.92
836.51	26234.48
836.68	25900.66
836.86	25951.86
837.04	26420.84
837.21	25839.22
837.39	25949.81
837.57	26003.06
837.75	26035.83
837.92	25964.15
838.10	25577.08
838.28	25695.86
838.45	25828.98
838.63	25720.44
838.81	25667.19
838.98	25566.84
839.16	25333.37
839.34	25486.97
839.51	25353.85
839.69	25689.72
839.87	25306.75
840.04	25192.06
840.22	25478.78
840.40	25538.17
840.57	25235.07
840.75	25206.40
840.93	25126.53
841.10	25486.97
841.28	25431.68
841.46	25192.06
841.63	25239.17
841.81	25013.89
841.98	25077.38
842.16	25165.44
842.34	25208.45
842.51	24813.19
842.69	24970.88
842.87	24725.13
843.04	24972.93
843.22	24540.81
843.40	24823.43
843.57	24790.66
843.75	24807.05
843.92	24940.16
844.10	24856.20
844.28	24680.07
844.45	24784.52
844.63	24604.30
844.81	24927.88
844.98	24807.05
845.16	24454.79
845.33	24479.37
845.51	24403.60
845.69	24465.03
845.86	24532.62
846.04	24307.34
846.21	24108.69
846.39	24417.93
846.57	24112.78
846.74	24204.94
846.92	23821.97
847.09	24233.61
847.27	24090.26
847.45	24241.81
847.62	24123.02
847.80	23914.13
847.97	23922.32
848.15	23950.99
848.32	23733.91
848.50	23760.53
848.68	23418.52
848.85	24041.11
849.03	23459.48
849.20	24090.26
849.38	23641.75
849.56	23651.99
849.73	23246.49
849.91	23615.13
850.08	23901.84
850.26	23590.55
850.43	23408.28
850.61	23529.11
850.78	23103.14
850.96	23705.24
851.14	23189.15
851.31	23391.90
851.49	23248.54
851.66	23441.05
851.84	23289.50
852.01	23238.30
852.19	23373.47
852.36	23256.73
852.54	23441.05
852.71	23103.14
852.89	23113.38
853.07	23217.82
853.24	23367.32
853.42	23146.14
853.59	22838.95
853.77	23193.25
853.94	23119.52
854.12	23352.99
854.29	22746.79
854.47	23223.97
854.64	22587.05
854.82	22787.75
854.99	22810.28
855.17	22875.81
855.34	22711.97
855.52	23017.12
855.69	22689.45
855.87	22566.57
856.04	22673.06
856.22	22701.73
856.39	22304.43
856.57	22621.86
856.74	22204.08
856.92	22556.33
857.09	22386.35
857.27	22511.27
857.44	22640.29
857.62	22496.94
857.79	22759.08
857.97	22525.61
858.14	22212.27
858.32	22290.09
858.49	22140.59
858.67	22214.32
858.84	21878.45
859.02	22185.65
859.19	22161.07
859.37	22140.59
859.54	21894.83
859.72	21833.39
859.89	22134.45
860.06	22124.21
860.24	22073.01
860.41	22087.34
860.59	21446.33
860.76	21786.29
860.94	21663.41
861.11	22091.44
861.29	21749.43
861.46	21929.65
861.64	21286.59
861.81	21499.58
861.98	21509.82
862.16	21321.40
862.33	21409.47
862.51	21487.29
862.68	21536.44
862.86	21663.41
863.03	21446.33
863.21	21321.40
863.38	21358.27
863.55	21266.11
863.73	21329.59
863.90	21309.11
864.08	21298.88
864.25	20977.34
864.43	21165.76
864.60	20928.19
864.77	20975.30
864.95	21135.04
865.12	20879.04
865.30	20889.28
865.47	20788.93
865.64	21122.75
865.82	21003.97
865.99	21001.92
866.17	20702.92
866.34	20737.73
866.51	20821.70
866.69	20729.54
866.86	21008.06
867.04	20739.78
867.21	20674.24
867.38	20813.51
867.56	20428.49
867.73	20405.96
867.91	20440.78
868.08	20377.29
868.25	20453.06
868.43	20258.51
868.60	20281.03
868.78	20109.01
868.95	20195.02
869.12	20201.16
869.30	20123.34
869.47	20192.97
869.64	20184.78
869.82	20092.62
869.99	20235.98
870.16	20088.53
870.34	20235.98
870.51	20471.50
870.69	19945.17
870.86	20016.85
871.03	19959.50
871.21	19844.82
871.38	20268.75
871.55	19779.28
871.73	19889.87
871.90	19459.80
872.07	19461.85
872.25	19416.79
872.42	19842.77
872.59	19488.47
872.77	19621.59
872.94	19498.71
873.11	19646.16
873.29	19529.43
873.46	19211.99
873.63	19451.61
873.81	19314.39
873.98	19470.04
874.15	19056.35
874.33	18743.01
874.50	19074.78
874.67	19179.23
874.85	18968.29
875.02	19017.44
875.19	18906.85
875.37	18906.85
875.54	18745.06
875.71	18650.85
875.88	18743.01
876.06	18894.56
876.23	18915.04
876.40	18786.02
876.58	18886.37
876.75	18558.69
876.92	18652.90
877.10	18642.66
877.27	18646.76
877.44	18454.25
877.61	18296.55
877.79	18394.86
877.96	18292.46
878.13	18173.67
878.31	18120.43
878.48	18216.68
878.65	18114.28
878.82	18196.20
879.00	18061.04
879.17	18296.55
879.34	18126.57
879.51	18030.32
879.69	17917.68
879.86	17884.91
880.03	17934.06
880.21	17852.14
880.38	17880.82
880.55	18036.46
880.72	17751.79
880.90	17919.73
881.07	17901.29
881.24	17489.65
881.41	17630.96
881.59	17508.08
881.76	17798.90
881.93	17686.26
882.10	17559.28
882.28	17229.56
882.45	17673.97
882.62	17397.49
882.79	17667.83
882.96	17213.18
883.14	17479.41
883.31	17571.57
883.48	17407.73
883.65	17366.78
883.83	17534.71
884.00	17180.41
884.17	17409.78
884.34	17272.57
884.51	17233.66
884.69	17032.96
884.86	17350.39
885.03	17293.05
885.20	17051.39
885.38	17254.14
885.55	17030.91
885.72	16985.85
885.89	17012.48
886.06	16989.95
886.24	17123.07
886.41	16928.51
886.58	16957.18
886.75	17049.34
886.92	16944.89
887.10	17008.38
887.27	16848.64
887.44	16684.80
887.61	17055.48
887.78	16819.97
887.95	16875.26
888.13	16678.66
888.30	16760.58
888.47	16715.52
888.64	16627.46
888.81	16690.95
888.99	16555.78
889.16	16365.32
889.33	16590.59
889.50	16387.85
889.67	16545.54
889.84	16369.41
890.01	16598.79
890.19	16518.92
890.36	16383.75
890.53	16330.50
890.70	16099.08
890.87	16457.48
891.04	16174.86
891.22	16267.02
891.39	16246.54
891.56	16125.71
891.73	16092.94
891.90	16043.79
892.07	15939.34
892.24	16178.95
892.42	16041.74
892.59	15886.09
892.76	15810.32
892.93	16008.97
893.10	15972.11
893.27	15865.61
893.44	15914.77
893.61	15838.99
893.79	15978.25
893.96	15812.37
894.13	15882.00
894.30	15888.14
894.47	15849.23
894.64	15765.26
894.81	15781.65
894.98	15894.29
895.15	16025.36
895.33	15656.72
895.50	15810.32
895.67	15730.45
895.84	15683.34
896.01	15601.43
896.18	15787.79
896.35	16080.65
896.52	15845.13
896.69	15666.96
896.86	15838.99
897.04	15558.42
897.21	15509.27
897.38	15603.47
897.55	15529.75
897.72	15697.68
897.89	15669.01
898.06	15724.30
898.23	15603.47
898.40	15687.44
898.57	15628.05
898.74	15705.87
898.91	15525.65
899.08	15642.39
899.26	15664.91
899.43	15662.86
899.60	15503.12
899.77	15755.02
899.94	15476.50
900.11	15439.64
900.28	15552.27
900.45	15806.22
900.62	15476.50
900.79	15738.64
900.96	15529.75
901.13	15515.41
901.30	15570.71
901.47	15496.98
901.64	15695.63
901.81	15566.61
901.98	15290.13
902.15	15632.15
902.32	15288.09
902.49	15419.16
902.66	15679.25
902.83	15699.73
903.01	15333.14
903.18	15460.12
903.35	15693.58
903.52	15509.27
903.69	15685.39
903.86	15650.58
904.03	15486.74
904.20	15591.19
904.37	15474.45
904.54	15626.00
904.71	15451.92
904.88	15388.44
905.05	15482.64
905.22	15474.45
905.39	15165.21
905.56	15380.25
905.73	15324.95
905.90	15322.90
906.07	15382.29
906.24	15382.29
906.41	15349.53
906.58	15435.54
906.75	15564.56
906.92	15441.68
907.09	15302.42
907.26	15417.11
907.43	15292.18
907.60	15441.68
907.77	15628.05
907.93	15357.72
908.10	15359.77
908.27	15447.83
908.44	15179.54
908.61	15218.46
908.78	15144.73
908.95	15304.47
909.12	15232.79
909.29	15388.44
909.46	15249.18
909.63	15478.55
909.80	15292.18
909.97	15316.76
910.14	15415.06
910.31	15085.34
910.48	15142.68
910.65	15253.27
910.82	15091.48
910.99	15482.64
911.16	15116.06
911.33	14984.99
911.50	15075.10
911.66	14991.13
911.83	14911.26
912.00	14827.29
912.17	14941.98
912.34	14954.27
912.51	14958.36
912.68	14518.05
912.85	14894.88
913.02	14806.81
913.19	14810.91
913.36	14878.49
913.53	14780.19
913.70	14618.40
913.86	14747.42
914.03	14559.01
914.20	14798.62
914.37	14618.40
914.54	14507.81
914.71	14595.87
914.88	14759.71
915.05	14642.98
915.22	14366.50
915.39	14464.80
915.55	14458.66
915.72	14274.34
915.89	14522.15
916.06	14161.70
916.23	14223.14
916.40	14118.70
916.57	14135.08
916.74	14126.89
916.91	14204.71
917.07	14171.94
917.24	14014.25
917.41	14141.22
917.58	13901.61
917.75	13893.42
917.92	13625.14
918.09	13778.73
918.26	13936.43
918.42	13662.00
918.59	13909.80
918.76	13823.79
918.93	13582.13
919.10	13678.38
919.27	13514.55
919.44	13666.10
919.60	13702.96
919.77	13674.29
919.94	13641.52
920.11	13270.84
920.28	13440.82
920.45	13369.14
920.61	13340.47
920.78	13152.06
920.95	13354.80
921.12	13326.13
921.29	13199.16
921.46	12986.17
921.62	12900.16
921.79	13154.10
921.96	12961.59
922.13	13018.94
922.30	12834.62
922.47	13000.51
922.63	12844.86
922.80	12961.59
922.97	12762.94
923.14	12484.42
923.31	12853.05
923.47	12449.60
923.64	12605.25
923.81	12508.99
923.98	12490.56
924.15	12498.75
924.32	12261.19
924.48	12185.41
924.65	12367.68
924.82	12158.79
924.99	12119.88
925.15	11984.71
925.32	12218.18
925.49	11896.65
925.66	12021.58
925.83	11857.74
925.99	11874.12
926.16	11997.00
926.33	11937.61
926.50	11382.61
926.67	11845.45
926.83	11720.53
927.00	11675.47
927.17	11499.34
927.34	11495.25
927.50	11374.42
927.67	11546.45
927.84	11378.51
928.01	11417.43
928.17	11192.15
928.34	11165.53
928.51	11087.70
928.68	11093.85
928.84	11095.89
929.01	11028.31
929.18	11030.36
929.35	11059.03
929.51	10954.58
929.68	10710.88
929.85	10987.35
930.02	10729.31
930.18	10794.84
930.35	10887.00
930.52	10573.66
930.69	10588.00
930.85	10604.38
931.02	10368.87
931.19	10667.87
931.36	10407.78
931.52	10346.34
931.69	10544.99
931.86	10250.08
932.02	10194.79
932.19	10112.87
932.36	10202.98
932.53	10272.61
932.69	10119.01
932.86	10258.28
933.03	10078.05
933.19	9973.61
933.36	10065.77
933.53	9885.55
933.70	9774.95
933.86	9867.11
934.03	9643.88
934.20	9645.93
934.36	9670.51
934.53	9449.33
934.70	9303.92
934.86	9455.47
935.03	9324.40
935.20	9226.10
935.36	9299.83
935.53	9166.71
935.70	9035.64
935.86	9105.27
936.03	8898.42
936.20	8748.92
936.36	8570.75
936.53	8632.19
936.70	8671.10
936.86	8701.82
937.03	8576.89
937.20	8470.40
937.36	8269.70
937.53	7937.93
937.70	8193.92
937.86	8083.33
938.03	8034.18
938.20	8013.70
938.36	7769.99
938.53	7735.18
938.70	7626.64
938.86	7724.94
939.03	7495.57
939.20	7503.76
939.36	7364.50
939.53	7358.35
939.70	7475.09
939.86	7063.44
940.03	7128.98
940.19	6834.07
940.36	6961.05
940.53	6856.60
940.69	6793.11
940.86	6746.01
941.03	6649.75
941.19	6365.09
941.36	6637.47
941.52	6649.75
941.69	6360.99
941.86	6309.79
942.02	6438.81
942.19	6281.12
942.35	6231.97
942.52	6037.41
942.69	6027.17
942.85	6008.74
943.02	5941.16
943.18	5973.92
943.35	5910.44
943.52	5928.87
943.68	5799.85
943.85	5877.67
944.01	5750.70
944.18	5525.42
944.35	5738.41
944.51	5627.82
944.68	5535.66
944.84	5431.21
945.01	5576.62
945.17	5564.33
945.34	5533.61
945.51	5533.61
945.67	5404.59
945.84	5599.15
946.00	5459.88
946.17	5599.15
946.33	5420.97
946.50	5476.27
946.67	5392.30
946.83	5339.05
947.00	5533.61
947.16	5404.59
947.33	5369.77
947.49	5277.62
947.66	5361.58
947.82	5474.22
947.99	5326.77
948.16	5431.21
948.32	5334.96
948.49	5420.97
948.65	5574.57
948.82	5289.90
948.98	5302.19
949.15	5394.35
949.31	5441.45
949.48	5390.25
949.64	5316.53
949.81	5406.64
949.97	5281.71
950.14	5566.38
950.30	5318.57
950.47	5332.91
950.63	5451.69
950.80	5392.30
950.96	5289.90
951.13	5357.49
951.30	5427.12
951.46	5433.26
951.63	5337.01
951.79	5490.60
951.96	5527.47
952.12	5506.99
952.29	5371.82
952.45	5373.87
952.62	5365.68
952.78	5482.41
952.94	5369.77
953.11	5308.34
953.27	5347.25
953.44	5552.04
953.60	5298.10
953.77	5631.91
953.93	5517.23
954.10	5537.71
954.26	5545.90
954.43	5564.33
954.59	5541.80
954.76	5517.23
954.92	5478.32
955.09	5463.98
955.25	5418.93
955.42	5429.17
955.58	5554.09
955.75	5355.44
955.91	5484.46
956.07	5488.56
956.24	5476.27
956.40	5533.61
956.57	5613.48
956.73	5537.71
956.90	5636.01
957.06	5328.81
957.23	5502.89
957.39	5463.98
957.56	5609.39
957.72	5527.47
957.88	5480.36
958.05	5605.29
958.21	5578.67
958.38	5640.11
958.54	5603.24
958.71	5709.74
958.87	5607.34
959.03	5410.73
959.20	5539.76
959.36	5496.75
959.53	5517.23
959.69	5416.88
959.85	5656.49
960.02	5584.81
960.18	5523.37
960.35	5439.40
960.51	5631.91
960.68	5490.60
960.84	5468.08
961.00	5492.65
961.17	5343.15
961.33	5543.85
961.50	5560.24
961.66	5449.64
961.82	5425.07
961.99	5556.14
962.15	5443.50
962.31	5476.27
962.48	5498.80
962.64	5461.93
962.81	5480.36
962.97	5425.07
963.13	5431.21
963.30	5590.95
963.46	5433.26
963.62	5472.17
963.79	5455.79
963.95	5459.88
964.12	5468.08
964.28	5543.85
964.44	5283.76
964.61	5412.78
964.77	5429.17
964.93	5433.26
965.10	5455.79
965.26	5433.26
965.42	5324.72
965.59	5392.30
965.75	5355.44
965.92	5369.77
966.08	5359.53
966.24	5205.94
966.41	5377.97
966.57	5459.88
966.73	5443.50
966.90	5267.38
967.06	5267.38
967.22	5230.51
967.39	5236.66
967.55	5189.55
967.71	5375.92
967.88	5377.97
968.04	5189.55
968.20	5279.66
968.37	5302.19
968.53	5216.18
968.69	5173.17
968.85	5259.18
969.02	5271.47
969.18	5316.53
969.34	5218.22
969.51	5320.62
969.67	5162.93
969.83	5070.77
970.00	5294.00
970.16	4999.09
970.32	5171.12
970.48	5263.28
970.65	4972.47
970.81	5074.87
970.97	5035.96
971.14	4900.79
971.30	5083.06
971.46	5052.34
971.63	5195.70
971.79	5134.26
971.95	5035.96
972.11	4947.89
972.28	5054.39
972.44	5128.11
972.60	4982.71
972.76	4956.08
972.93	4947.89
973.09	5105.59
973.25	5017.52
973.42	4990.90
973.58	5117.87
973.74	4947.89
973.90	4951.99
974.07	4941.75
974.23	4970.42
974.39	5046.20
974.55	4804.53
974.72	4962.23
974.88	4652.98
975.04	4884.41
975.20	4704.18
975.37	4796.34
975.53	4753.34
975.69	4861.88
975.85	4724.66
976.01	4745.14
976.18	4739.00
976.34	4779.96
976.50	4872.12
976.66	4775.86
976.83	4716.47
976.99	4700.09
977.15	4761.53
977.31	4689.85
977.47	4624.31
977.64	4579.26
977.80	4591.55
977.96	4646.84
978.12	4599.74
978.29	4695.99
978.45	4583.35
978.61	4677.56
978.77	4736.95
978.93	4636.60
979.10	4536.25
979.26	4487.10
979.42	4558.78
979.58	4364.22
979.74	4444.09
979.91	4468.67
980.07	4519.87
980.23	4513.72
980.39	4497.34
980.55	4458.43
980.71	4425.66
980.88	4503.48
981.04	4444.09
981.20	4491.20
981.36	4458.43
981.52	4454.33
981.68	4427.71
981.85	4448.19
982.01	4444.09
982.17	4382.65
982.33	4386.75
982.49	4460.48
982.65	4308.93
982.82	4317.12
982.98	4401.08
983.14	4286.40
983.30	4472.76
983.46	4378.56
983.62	4390.84
983.79	4278.21
983.95	4278.21
984.11	4173.76
984.27	4243.39
984.43	4306.88
984.59	4165.57
984.75	4249.54
984.91	4247.49
985.08	4278.21
985.24	4132.80
985.40	4110.27
985.56	4231.10
985.72	4097.99
985.88	4192.19
986.04	4177.86
986.20	3940.29
986.37	4138.94
986.53	3915.72
986.69	4124.61
986.85	4095.94
987.01	4140.99
987.17	4104.13
987.33	3952.58
987.49	3950.53
987.65	4124.61
987.82	4057.03
987.98	3954.63
988.14	3936.20
988.30	4034.50
988.46	3975.11
988.62	3985.35
988.78	3948.48
988.94	3991.49
989.10	3938.24
989.26	3850.18
989.42	3956.68
989.59	3852.23
989.75	3940.29
989.91	3952.58
990.07	3803.08
990.23	3729.35
990.39	3819.46
990.55	3872.71
990.71	3858.37
990.87	3792.84
991.03	3868.61
991.19	3774.41
991.35	3776.45
991.51	3727.30
991.67	3786.69
991.83	3770.31
992.00	3731.40
992.16	3895.24
992.32	3635.14
992.48	3702.73
992.64	3688.39
992.80	3805.13
992.96	3755.97
993.12	3710.92
993.28	3731.40
993.44	3686.34
993.60	3723.21
993.76	3678.15
993.92	3700.68
994.08	3696.58
994.24	3516.36
994.40	3682.25
994.56	3551.18
994.72	3487.69
994.88	3657.67
995.04	3532.75
995.20	3635.14
995.36	3499.98
995.52	3612.62
995.68	3577.80
995.84	3465.16
996.00	3493.83
996.16	3614.66
996.32	3526.60
996.48	3465.16
996.64	3534.79
996.80	3518.41
996.96	3542.99
997.12	3473.36
997.28	3444.68
997.44	3352.52
997.60	3399.63
997.76	3469.26
997.92	3555.27
998.08	3471.31
998.24	3405.77
998.40	3393.48
998.56	3450.83
998.72	3368.91
998.88	3370.96
999.04	3325.90
999.20	3502.03
999.36	3256.27
999.52	3526.60
999.68	3379.15
999.84	3440.59
1000.00	3397.58
1000.16	3465.16
1000.32	3235.79
1000.48	3284.94
1000.64	3172.30
1000.80	3110.86
1000.95	3162.06
1001.11	3330.00
1001.27	3117.01
1001.43	3246.03
1001.59	3112.91
1001.75	3186.64
1001.91	3264.46
1002.07	3133.39
1002.23	3141.58
1002.39	3033.04
1002.55	3137.49
1002.71	3104.72
1002.87	3229.65
1003.03	3110.86
1003.19	3188.69
1003.34	3280.85
1003.50	3153.87
1003.66	3162.06
1003.82	3207.12
1003.98	3016.66
1004.14	3008.47
1004.30	3055.57
1004.46	3039.19
1004.62	3125.20
1004.78	3008.47
1004.94	3092.43
1005.09	3057.62
1005.25	3020.75
1005.41	2969.55
1005.57	2987.99
1005.73	3090.38
1005.89	2983.89
1006.05	2994.13
1006.21	2992.08
1006.37	3012.56
1006.52	2969.55
1006.68	2881.49
1006.84	3051.47
1007.00	2959.31
1007.16	2983.89
1007.32	2901.97
1007.48	2934.74
1007.64	2906.07
1007.79	2938.84
1007.95	2865.11
1008.11	2842.58
1008.27	2861.01
1008.43	2928.60
1008.59	2822.10
1008.75	2959.31
1008.91	2899.92
1009.06	2912.21
1009.22	2803.67
1009.38	2844.63
1009.54	2879.44
1009.70	2842.58
1009.86	2867.16
1010.01	2869.20
1010.17	2793.43
1010.33	2801.62
1010.49	2842.58
1010.65	2881.49
1010.81	2660.31
1010.96	2740.18
1011.12	2639.83
1011.28	2635.74
1011.44	2748.37
1011.60	2707.41
1011.76	2666.46
1011.91	2727.89
1012.07	2668.50
1012.23	2703.32
1012.39	2639.83
1012.55	2713.56
1012.71	2553.82
1012.86	2650.07
1013.02	2697.17
1013.18	2592.73
1013.34	2668.50
1013.50	2719.70
1013.65	2709.46
1013.81	2600.92
1013.97	2621.40
1014.13	2656.22
1014.29	2566.10
1014.44	2654.17
1014.60	2590.68
1014.76	2576.34
1014.92	2541.53
1015.07	2572.25
1015.23	2629.59
1015.39	2537.43
1015.55	2547.67
1015.71	2519.00
1015.86	2478.04
1016.02	2496.47
1016.18	2451.42
1016.34	2514.91
1016.49	2512.86
1016.65	2553.82
1016.81	2496.47
1016.97	2488.28
1017.12	2432.99
1017.28	2432.99
1017.44	2420.70
1017.60	2508.76
1017.75	2482.14
1017.91	2559.96
1018.07	2559.96
1018.23	2494.43
1018.38	2424.80
1018.54	2451.42
1018.70	2398.17
1018.86	2396.12
1019.01	2404.32
1019.17	2498.52
1019.33	2525.15
1019.49	2385.88
1019.64	2359.26
1019.80	2451.42
1019.96	2463.71
1020.12	2410.46
1020.27	2353.12
1020.43	2402.27
1020.59	2346.97
1020.74	2396.12
1020.90	2404.32
1021.06	2287.58
1021.22	2435.03
1021.37	2428.89
1021.53	2342.88
1021.69	2373.60
1021.84	2265.05
1022.00	2373.60
1022.16	2342.88
1022.31	2326.49
1022.47	2387.93
1022.63	2299.87
1022.79	2201.57
1022.94	2303.96
1023.10	2363.36
1023.26	2330.59
1023.41	2365.40
1023.57	2297.82
1023.73	2293.72
1023.88	2232.29
1024.04	2230.24
1024.20	2260.96
1024.35	2365.40
1024.51	2240.48
1024.67	2191.33
1024.82	2338.78
1024.98	2107.36
1025.14	2189.28
1025.29	2148.32
1025.45	2289.63
1025.61	2160.61
1025.76	2211.81
1025.92	2142.18
1026.08	2312.16
1026.23	2183.13
1026.39	2207.71
1026.55	2228.19
1026.70	2172.89
1026.86	2230.24
1027.02	2238.43
1027.17	2166.75
1027.33	2254.81
1027.48	2166.75
1027.64	2123.74
1027.80	2228.19
1027.95	2129.89
1028.11	2123.74
1028.27	2191.33
1028.42	2207.71
1028.58	2142.18
1028.73	2015.20
1028.89	2084.83
1029.05	2168.80
1029.20	2211.81
>>>>>End Processed Spectral Data<<<<<
