SpectraSuite Data File
++++++++++++++++++++++++++++++++++++
Date: Fri Jun 02 14:51:06 CEST 2017
User: INFO_000
Dark Spectrum Present: No
Reference Spectrum Present: No
Number of Sampled Component Spectra: 1
Spectrometers: USB4H00879
Integration Time (usec): 80000 (USB4H00879)
Spectra Averaged: 1 (USB4H00879)
Boxcar Smoothing: 0 (USB4H00879)
Correct for Electrical Dark: No (USB4H00879)
Strobe/Lamp Enabled: No (USB4H00879)
Correct for Detector Non-linearity: No (USB4H00879)
Correct for Stray Light: No (USB4H00879)
Number of Pixels in Processed Spectrum: 3648
>>>>>Begin Processed Spectral Data<<<<<
345.13	1271.79
345.34	1271.79
345.56	1271.79
345.78	1302.51
345.99	1212.40
346.21	1662.95
346.42	1738.73
346.64	1626.09
346.86	1757.16
347.07	1718.25
347.29	1699.81
347.50	1642.47
347.72	1662.95
347.94	1767.40
348.15	1589.22
348.37	1701.86
348.59	1697.77
348.80	1636.33
349.02	1755.11
349.23	1816.55
349.45	1669.09
349.67	1834.98
349.88	1658.85
350.10	1892.32
350.31	1748.97
350.53	1724.39
350.75	1908.71
350.96	1683.43
351.18	1812.45
351.39	1761.25
351.61	1769.44
351.82	1853.41
352.04	1798.12
352.26	1724.39
352.47	1900.52
352.69	1765.35
352.90	1689.57
353.12	1796.07
353.34	1816.55
353.55	1841.12
353.77	1771.49
353.98	1691.62
354.20	1716.20
354.41	1918.95
354.63	1880.04
354.85	1976.29
355.06	1877.99
355.28	1716.20
355.49	1843.17
355.71	1757.16
355.92	1714.15
356.14	1859.56
356.35	1769.44
356.57	1832.93
356.79	1781.73
357.00	1810.40
357.22	1916.90
357.43	1701.86
357.65	1916.90
357.86	1755.11
358.08	1791.97
358.29	1839.08
358.51	1968.10
358.72	1894.37
358.94	1884.13
359.16	1853.41
359.37	1810.40
359.59	1898.47
359.80	1927.14
360.02	1896.42
360.23	1918.95
360.45	1927.14
360.66	1832.93
360.88	1742.82
361.09	1779.68
361.31	1937.38
361.52	1787.88
361.74	1976.29
361.95	1929.19
362.17	1841.12
362.38	1951.71
362.60	1968.10
362.81	1845.22
363.03	1818.60
363.24	1869.80
363.46	2078.69
363.67	1902.56
363.89	1847.27
364.10	1925.09
364.32	1789.92
364.53	1853.41
364.75	1787.88
364.96	1906.66
365.18	1986.53
365.39	1806.31
365.61	1816.55
365.82	2072.54
366.04	1927.14
366.25	1820.64
366.47	1935.33
366.68	1871.84
366.90	1984.48
367.11	1904.61
367.33	1918.95
367.54	2037.73
367.76	1937.38
367.97	2013.15
368.19	1929.19
368.40	1970.15
368.62	1910.75
368.83	1841.12
369.05	1855.46
369.26	1832.93
369.48	1851.36
369.69	1863.65
369.91	1957.86
370.12	1931.23
370.33	1961.95
370.55	1855.46
370.76	1910.75
370.98	2080.74
371.19	2027.49
371.41	1941.47
371.62	1974.24
371.84	1877.99
372.05	2004.96
372.27	1941.47
372.48	1929.19
372.69	2019.30
372.91	2080.74
373.12	1974.24
373.34	1986.53
373.55	1998.82
373.77	2072.54
373.98	1957.86
374.20	2179.04
374.41	2140.13
374.62	2002.91
374.84	2031.58
375.05	2078.69
375.27	2017.25
375.48	2125.79
375.70	2199.52
375.91	2215.90
376.12	2166.75
376.34	2011.11
376.55	2060.26
376.77	2166.75
376.98	1998.82
377.19	1996.77
377.41	2015.20
377.62	2172.89
377.84	2195.42
378.05	2260.96
378.27	2127.84
378.48	2183.13
378.69	2283.49
378.91	2279.39
379.12	2197.47
379.34	2148.32
379.55	2125.79
379.76	2183.13
379.98	2207.71
380.19	2236.38
380.41	2176.99
380.62	2260.96
380.83	2172.89
381.05	2133.98
381.26	2359.26
381.47	2090.98
381.69	2215.90
381.90	2254.81
382.12	2238.43
382.33	2195.42
382.54	2279.39
382.76	2201.57
382.97	2289.63
383.19	2193.37
383.40	2308.06
383.61	2156.51
383.83	2244.57
384.04	2265.05
384.25	2308.06
384.47	2332.64
384.68	2303.96
384.89	2269.15
385.11	2289.63
385.32	2254.81
385.54	2338.78
385.75	2236.38
385.96	2346.97
386.18	2412.51
386.39	2363.36
386.60	2340.83
386.82	2398.17
387.03	2418.65
387.24	2475.99
387.46	2418.65
387.67	2435.03
387.88	2506.71
388.10	2400.22
388.31	2387.93
388.52	2508.76
388.74	2494.43
388.95	2439.13
389.16	2465.75
389.38	2404.32
389.59	2510.81
389.80	2590.68
390.02	2457.56
390.23	2494.43
390.44	2578.39
390.66	2502.62
390.87	2527.19
391.08	2635.74
391.30	2666.46
391.51	2549.72
391.72	2629.59
391.94	2570.20
392.15	2576.34
392.36	2527.19
392.58	2633.69
392.79	2582.49
393.00	2621.40
393.22	2662.36
393.43	2629.59
393.64	2705.37
393.85	2787.29
394.07	2660.31
394.28	2674.65
394.49	2697.17
394.71	2660.31
394.92	2820.05
395.13	2682.84
395.35	2674.65
395.56	2662.36
395.77	2727.89
395.98	2764.76
396.20	2795.48
396.41	2781.14
396.62	2877.40
396.84	2795.48
397.05	2693.08
397.26	2877.40
397.47	2953.17
397.69	2781.14
397.90	2998.23
398.11	2838.48
398.32	2789.33
398.54	2766.81
398.75	2873.30
398.96	2871.25
399.18	3035.09
399.39	2883.54
399.60	3092.43
399.81	2951.12
400.03	2844.63
400.24	3141.58
400.45	2951.12
400.66	2953.17
400.88	2959.31
401.09	3110.86
401.30	3018.71
401.51	3125.20
401.73	3174.35
401.94	3059.67
402.15	3055.57
402.36	3067.86
402.58	3119.06
402.79	3045.33
403.00	3114.96
403.21	3145.68
403.43	3211.22
403.64	3237.84
403.85	3106.77
404.06	3151.82
404.27	3039.19
404.49	3102.67
404.70	3141.58
404.91	3223.50
405.12	3117.01
405.34	3262.41
405.55	3340.24
405.76	3094.48
405.97	3221.45
406.19	3342.28
406.40	3180.50
406.61	3266.51
406.82	3243.98
407.03	3303.37
407.25	3209.17
407.46	3360.72
407.67	3299.28
407.88	3461.07
408.09	3246.03
408.31	3258.32
408.52	3354.57
408.73	3307.47
408.94	3323.85
409.15	3311.57
409.37	3459.02
409.58	3391.44
409.79	3405.77
410.00	3502.03
410.21	3385.29
410.43	3483.59
410.64	3456.97
410.85	3522.51
411.06	3442.64
411.27	3434.44
411.48	3606.47
411.70	3440.59
411.91	3481.55
412.12	3518.41
412.33	3540.94
412.54	3508.17
412.76	3612.62
412.97	3590.09
413.18	3497.93
413.39	3518.41
413.60	3657.67
413.81	3635.14
414.03	3553.23
414.24	3405.77
414.45	3661.77
414.66	3452.88
414.87	3694.54
415.08	3442.64
415.30	3594.19
415.51	3614.66
415.72	3676.10
415.93	3633.10
416.14	3690.44
416.35	3735.50
416.56	3784.65
416.78	3710.92
416.99	3727.30
417.20	3704.78
417.41	3819.46
417.62	3768.26
417.83	3755.97
418.04	3811.27
418.26	3839.94
418.47	3932.10
418.68	3796.93
418.89	3862.47
419.10	4020.16
419.31	3858.37
419.52	3913.67
419.73	3930.05
419.95	4014.02
420.16	3768.26
420.37	3911.62
420.58	3874.76
420.79	3760.07
421.00	4016.07
421.21	3928.00
421.42	3792.84
421.63	4077.51
421.85	3932.10
422.06	4165.57
422.27	3985.35
422.48	4097.99
422.69	4081.60
422.90	4108.23
423.11	4059.07
423.32	4224.96
423.53	4257.73
423.75	4288.45
423.96	4478.91
424.17	4100.03
424.38	4392.89
424.59	4267.97
424.80	4480.96
425.01	4399.04
425.22	4222.91
425.43	4356.03
425.64	4489.15
425.85	4483.00
426.06	4396.99
426.28	4366.27
426.49	4300.73
426.70	4310.97
426.91	4448.19
427.12	4628.41
427.33	4435.90
427.54	4558.78
427.75	4587.45
427.96	4691.90
428.17	4624.31
428.38	4728.76
428.59	4560.83
428.80	4704.18
429.01	4704.18
429.23	4882.36
429.44	4827.06
429.65	4810.68
429.86	4884.41
430.07	4767.67
430.28	4755.38
430.49	4687.80
430.70	4943.80
430.91	5007.28
431.12	4816.82
431.33	5115.83
431.54	5052.34
431.75	5066.67
431.96	5033.91
432.17	4960.18
432.38	4923.32
432.59	5148.59
432.80	5001.14
433.01	5150.64
433.22	5263.28
433.43	5162.93
433.64	5140.40
433.85	4966.32
434.06	5216.18
434.27	5121.97
434.49	5244.85
434.70	5328.81
434.91	5296.05
435.12	5214.13
435.33	5351.34
435.54	5314.48
435.75	5187.50
435.96	5238.70
436.17	5203.89
436.38	5320.62
436.59	5513.13
436.80	5373.87
437.01	5728.17
437.22	5576.62
437.43	5580.71
437.64	5418.93
437.85	5607.34
438.06	5670.83
438.27	5502.89
438.48	5578.67
438.69	5730.22
438.90	5621.67
439.11	5521.32
439.32	5846.95
439.53	5728.17
439.74	5867.43
439.95	5719.98
440.16	5664.68
440.37	5767.08
440.57	5656.49
440.78	5844.90
440.99	5771.18
441.20	5859.24
441.41	5762.98
441.62	5955.49
441.83	5814.18
442.04	6025.12
442.25	5920.68
442.46	5908.39
442.67	6049.70
442.88	6307.74
443.09	5965.73
443.30	5939.11
443.51	5990.31
443.72	6340.51
443.93	5994.40
444.14	6379.42
444.35	6137.76
444.56	6201.25
444.77	6172.58
444.98	6184.87
445.19	6248.35
445.40	6139.81
445.61	6207.39
445.81	6309.79
446.02	6350.75
446.23	6254.50
446.44	6166.43
446.65	6352.80
446.86	6393.76
447.07	6223.78
447.28	6283.17
447.49	6547.36
447.70	6395.81
447.91	6494.11
448.12	6506.40
448.33	6535.07
448.54	6539.16
448.74	6451.10
448.95	6553.50
449.16	6571.93
449.37	6832.02
449.58	6584.22
449.79	6832.02
450.00	6586.27
450.21	6645.66
450.42	6999.96
450.63	6895.51
450.84	6838.17
451.05	6827.93
451.25	6764.44
451.46	6801.30
451.67	7040.92
451.88	7059.35
452.09	6999.96
452.30	6733.72
452.51	6930.33
452.72	6950.81
452.93	7284.62
453.13	7032.72
453.34	6963.09
453.55	7149.46
453.76	7016.34
453.97	7477.13
454.18	7196.56
454.39	7237.52
454.60	7149.46
454.81	7341.97
455.01	7296.91
455.22	7137.17
455.43	7360.40
455.64	7526.29
455.85	7604.11
456.06	7647.12
456.27	7571.34
456.48	7499.66
456.68	7628.68
456.89	7477.13
457.10	7638.92
457.31	7704.46
457.52	7638.92
457.73	7757.71
457.94	7886.73
458.14	7548.81
458.35	8025.99
458.56	7810.95
458.77	7856.01
458.98	7874.44
459.19	8038.28
459.39	8089.48
459.60	8034.18
459.81	8128.39
460.02	8152.96
460.23	8400.77
460.44	8351.62
460.65	8374.14
460.85	8394.62
461.06	8386.43
461.27	8232.83
461.48	8701.82
461.69	8509.31
461.89	8388.48
462.10	8437.63
462.31	8281.99
462.52	8472.45
462.73	8593.28
462.94	8736.63
463.14	8685.44
463.35	8820.60
463.56	8966.01
463.77	8978.30
463.98	8816.51
464.18	8826.75
464.39	9056.12
464.60	9262.96
464.81	9011.06
465.02	9092.98
465.23	9297.78
465.43	9072.50
465.64	9404.27
465.85	9437.04
466.06	9338.74
466.27	9701.23
466.47	9441.14
466.68	9781.10
466.89	9504.62
467.10	9686.89
467.30	9543.53
467.51	9961.32
467.72	10024.81
467.93	9574.25
468.14	9981.80
468.34	10241.89
468.55	10041.19
468.76	10176.36
468.97	10028.90
469.17	10260.32
469.38	10450.78
469.59	10663.77
469.80	10245.99
470.01	10297.19
470.21	10352.48
470.42	10637.15
470.63	10794.84
470.84	10610.53
471.04	10508.13
471.25	11075.42
471.46	10583.90
471.67	11147.09
471.87	10807.13
472.08	11292.50
472.29	11276.12
472.50	11067.22
472.70	11214.68
472.91	11366.23
473.12	11396.95
473.33	11573.07
473.53	11693.90
473.74	11460.43
473.95	11822.92
474.16	12027.72
474.36	11904.84
474.57	12142.41
474.78	12021.58
474.99	12123.98
475.19	12068.68
475.40	12406.59
475.61	12568.38
475.81	12590.91
476.02	12703.55
476.23	12498.75
476.44	12898.11
476.64	12861.24
476.85	13096.76
477.06	12705.60
477.27	13248.31
477.47	13319.99
477.68	13387.57
477.89	13266.74
478.09	13444.91
478.30	13389.62
478.51	13573.94
478.71	13688.62
478.92	13883.18
479.13	14001.96
479.34	13938.48
479.54	14149.42
479.75	14284.58
479.96	14214.95
480.16	14196.52
480.37	14481.19
480.58	14475.04
480.78	14892.83
480.99	14745.38
481.20	15017.75
481.41	14790.43
481.61	14823.20
481.82	15427.35
482.03	15193.88
482.23	14896.92
482.44	15372.05
482.65	15507.22
482.85	15759.12
483.06	15683.34
483.27	15554.32
483.47	15630.10
483.68	15974.16
483.89	15867.66
484.09	16023.31
484.30	16039.69
484.51	16488.20
484.71	16453.38
484.92	16443.14
485.13	16606.98
485.33	16533.25
485.54	16494.34
485.75	16920.32
485.95	17215.23
486.16	17116.92
486.37	17274.62
486.57	17008.38
486.78	17082.11
486.98	17356.54
487.19	17489.65
487.40	17688.31
487.60	17331.96
487.81	17655.54
488.02	17755.89
488.22	17630.96
488.43	18007.79
488.64	17962.73
488.84	18163.43
489.05	18210.54
489.25	18185.96
489.46	18390.76
489.67	18429.67
489.87	18671.33
490.08	18599.65
490.29	18814.69
490.49	18902.75
490.70	18833.12
490.90	19042.01
491.11	18962.14
491.32	19082.97
491.52	19474.13
491.73	19298.01
491.94	19392.22
492.14	19162.84
492.35	19652.31
492.55	19810.00
492.76	19640.02
492.97	19597.01
493.17	19941.07
493.38	19988.18
493.58	20111.05
493.79	19898.06
494.00	20096.72
494.20	20106.96
494.41	20166.35
494.61	20508.36
494.82	20524.74
495.02	20555.46
495.23	20704.96
495.44	20631.24
495.64	21104.32
495.85	20717.25
496.05	20846.27
496.26	20840.13
496.47	21333.69
496.67	21192.38
496.88	21499.58
497.08	21257.92
497.29	21632.69
497.49	21415.61
497.70	21692.08
497.91	21687.99
498.11	21763.76
498.32	21849.78
498.52	22056.62
498.73	22009.52
498.93	21968.56
499.14	22251.18
499.34	22007.47
499.55	22333.10
499.76	22197.93
499.96	22304.43
500.17	22513.32
500.37	22341.29
500.58	22775.46
500.78	22369.96
500.99	22515.37
501.19	22912.67
501.40	22781.60
501.60	22963.87
501.81	22793.89
502.02	22654.63
502.22	22800.04
502.43	23412.38
502.63	23312.03
502.84	23025.31
503.04	23391.90
503.25	23287.45
503.45	23479.96
503.66	22988.45
503.86	23451.29
504.07	23658.14
504.27	23412.38
504.48	23844.50
504.68	23658.14
504.89	23936.66
505.09	23809.68
505.30	23938.71
505.50	23828.12
505.71	23914.13
505.91	24288.91
506.12	24037.01
506.32	24086.16
506.53	24127.12
506.73	24503.95
506.94	24290.96
507.14	24379.02
507.35	24239.76
507.55	24825.48
507.76	24430.22
507.96	24419.98
508.17	24886.92
508.37	24733.32
508.58	24690.31
508.78	24811.14
508.99	25142.91
509.19	24821.38
509.40	24837.76
509.60	24807.05
509.81	24936.07
510.01	25034.37
510.22	24858.24
510.42	25108.10
510.63	25224.83
510.83	25278.08
511.04	25263.74
511.24	25503.35
511.44	25376.38
511.65	25869.94
511.85	25529.98
512.06	25357.95
512.26	25773.69
512.47	25450.11
512.67	25550.46
512.88	25869.94
513.08	25804.41
513.29	25880.18
513.49	25493.12
513.69	25540.22
513.90	25761.40
514.10	26074.74
514.31	26168.94
514.51	26355.31
514.72	25777.78
514.92	26242.67
515.13	26459.76
515.33	26773.10
515.53	26682.98
515.74	26273.39
515.94	26701.42
516.15	26439.28
516.35	26244.72
516.56	26605.16
516.76	26416.75
516.96	26601.07
517.17	26801.77
517.37	26930.79
517.58	26865.25
517.78	26818.15
517.99	26832.49
518.19	27047.52
518.39	27256.42
518.60	27016.80
518.80	27016.80
519.01	27352.67
519.21	27285.09
519.41	27403.87
519.62	27207.26
519.82	27633.24
520.03	27735.64
520.23	27641.43
520.43	27690.59
520.64	27668.06
520.84	27711.07
521.05	27702.87
521.25	28081.75
521.45	28264.02
521.66	28368.46
521.86	28167.76
522.07	28421.71
522.27	28278.35
522.47	28341.84
522.68	28831.30
522.88	28802.63
523.08	28945.99
523.29	28896.84
523.49	29032.00
523.70	28888.65
523.90	29431.36
524.10	29324.86
524.31	29105.73
524.51	28937.80
524.71	29619.77
524.92	29462.08
525.12	29533.76
525.33	29630.01
525.53	29767.23
525.73	29910.58
525.94	30076.47
526.14	30307.89
526.34	30088.76
526.55	30277.17
526.75	30023.22
526.95	30674.48
527.16	30242.35
527.36	30426.67
527.56	30758.44
527.77	31028.77
527.97	30467.63
528.17	30834.22
528.38	30893.61
528.58	31122.98
528.78	31065.64
528.99	30889.51
529.19	31682.08
529.39	31012.39
529.60	31417.89
529.80	31596.06
530.00	31782.43
530.21	31614.49
530.41	31979.03
530.61	31841.82
530.82	32159.25
531.02	31997.46
531.22	32429.59
531.43	32204.31
531.63	32618.00
531.83	32685.58
532.04	32871.95
532.24	32579.09
532.44	32757.26
532.64	33009.16
532.85	33216.01
533.05	32892.43
533.25	33367.55
533.46	32992.78
533.66	33396.23
533.86	33330.69
534.07	33644.03
534.27	33531.39
534.47	33930.75
534.67	33838.59
534.88	33953.27
535.08	34006.52
535.28	34014.71
535.49	34371.06
535.69	34774.51
535.89	34659.82
536.09	34614.77
536.30	34684.40
536.50	34977.26
536.70	35202.53
536.91	35050.99
537.11	35161.58
537.31	34762.22
537.51	35198.44
537.72	35438.05
537.92	35575.27
538.12	35687.90
538.32	35513.83
538.53	35646.94
538.73	35683.81
538.93	35712.48
539.13	35765.73
539.34	35968.48
539.54	35954.14
539.74	36496.85
539.94	36382.16
540.15	36115.93
540.35	36589.01
540.55	36711.89
540.75	36296.15
540.96	36820.43
541.16	36617.68
541.36	36795.85
541.56	36754.90
541.77	37168.58
541.97	36644.30
542.17	37141.96
542.37	37481.92
542.58	37332.42
542.78	37256.65
542.98	37082.57
543.18	37436.87
543.38	38223.29
543.59	37676.48
543.79	37588.42
543.99	37651.91
544.19	37883.33
544.40	37737.92
544.60	38305.21
544.80	38106.55
545.00	38270.39
545.20	38413.75
545.41	38438.33
545.61	38147.51
545.81	38722.99
546.01	38704.56
546.21	38483.38
546.42	38712.75
546.62	38540.72
546.82	38573.49
547.02	38843.82
547.22	38954.41
547.43	38913.45
547.63	39032.24
547.83	39040.43
548.03	38948.27
548.23	39380.39
548.44	39232.94
548.64	39175.59
548.84	39159.21
549.04	39001.52
549.24	39419.30
549.45	39669.15
549.65	39404.97
549.85	39400.87
550.05	39808.42
550.25	39341.48
550.45	39968.16
550.66	39486.89
550.86	39435.69
551.06	40080.80
551.26	39968.16
551.46	39789.98
551.66	40099.23
551.87	40084.89
552.07	40271.26
552.27	39912.86
552.47	40308.12
552.67	40400.28
552.87	40222.11
553.07	40306.07
553.28	40347.03
553.48	40699.28
553.68	40263.07
553.88	40977.81
554.08	40664.47
554.28	40834.45
554.48	40435.10
554.69	40488.34
554.89	40521.11
555.09	40920.46
555.29	40441.24
555.49	40699.28
555.69	41047.44
555.89	40863.12
556.10	40942.99
556.30	40512.92
556.50	40973.71
556.70	40852.88
556.90	40830.35
557.10	41495.94
557.30	40971.66
557.50	41151.88
557.70	41395.59
557.91	41227.66
558.11	41268.62
558.31	41045.39
558.51	41342.35
558.71	41139.60
558.91	41342.35
559.11	41100.68
559.31	41237.90
559.51	40914.32
559.72	41530.76
559.92	41436.55
560.12	41710.98
560.32	41567.62
560.52	41817.47
560.72	41508.23
560.92	41670.02
561.12	41616.77
561.32	41880.96
561.52	41520.52
561.72	42225.02
561.93	41969.02
562.13	41686.40
562.33	41774.47
562.53	42579.32
562.73	41541.00
562.93	41768.32
563.13	41911.68
563.33	41444.74
563.53	42030.46
563.73	41846.15
563.93	41993.60
564.13	42493.30
564.33	41981.31
564.53	41768.32
564.74	42042.75
564.94	41721.22
565.14	42497.40
565.34	42186.11
565.54	42315.13
565.74	42308.99
565.94	42546.55
566.14	42263.93
566.34	42237.31
566.54	42694.00
566.74	41969.02
566.94	42677.62
567.14	42450.30
567.34	42384.76
567.54	42466.68
567.74	42349.95
567.94	42261.88
568.14	42642.81
568.34	42628.47
568.54	42696.05
568.74	42913.14
568.94	42501.50
569.14	42857.84
569.34	42753.40
569.54	43081.07
569.75	42597.75
569.95	42974.58
570.15	43279.72
570.35	43070.83
570.55	42980.72
570.75	42782.07
570.95	42825.07
571.15	42716.53
571.35	43156.85
571.55	43533.67
571.75	42759.54
571.95	43337.07
572.15	42851.70
572.35	43128.17
572.55	43087.21
572.75	43468.14
572.95	43152.75
573.15	43050.35
573.35	43326.83
573.55	43087.21
573.75	43105.65
573.95	43431.27
574.15	43599.21
574.35	43918.69
574.55	43382.12
574.75	43648.36
574.95	43322.73
575.15	43257.20
575.34	43523.43
575.54	43525.48
575.74	43595.11
575.94	43853.15
576.14	43480.42
576.34	44205.41
576.54	44090.72
576.74	44420.44
576.94	44051.81
577.14	44000.61
577.34	44488.03
577.54	44041.57
577.74	44098.91
577.94	44488.03
578.14	44068.19
578.34	44418.39
578.54	43988.32
578.74	44307.80
578.94	44281.18
579.14	43892.07
579.34	44385.63
579.54	44404.06
579.74	44379.48
579.94	44868.95
580.13	44825.94
580.33	44821.84
580.53	44741.97
580.73	44920.15
580.93	44889.43
581.13	44928.34
581.33	45008.21
581.53	45262.16
581.73	45387.08
581.93	45122.90
582.13	45710.66
582.33	45919.56
582.53	45153.62
582.73	45612.36
582.92	45376.84
583.12	45565.26
583.32	45235.53
583.52	45559.11
583.72	45299.02
583.92	45614.41
584.12	45673.80
584.32	46062.91
584.52	45874.50
584.72	45905.22
584.92	45825.35
585.11	46282.05
585.31	46085.44
585.51	46165.31
585.71	45886.79
585.91	46370.11
586.11	46183.74
586.31	45997.38
586.51	46462.27
586.71	46560.57
586.91	46652.73
587.10	46339.39
587.30	46982.45
587.50	46357.82
587.70	47078.71
587.90	46609.72
588.10	46599.48
588.30	46931.25
588.50	46863.67
588.69	46931.25
588.89	46517.56
589.09	46996.79
589.29	47093.04
589.49	47439.15
589.69	46912.82
589.89	47455.53
590.08	47473.96
590.28	47217.97
590.48	47193.39
590.68	47433.00
590.88	47125.81
591.08	47299.89
591.28	47430.96
591.47	47783.21
591.67	47873.32
591.87	47924.52
592.07	47631.66
592.27	47973.67
592.47	47901.99
592.67	47912.23
592.86	48006.44
593.06	47940.90
593.26	48055.59
593.46	48207.14
593.66	48143.65
593.86	48225.57
594.05	48618.78
594.25	48661.79
594.45	48407.84
594.65	48196.90
594.85	48485.66
595.05	48891.16
595.24	49028.37
595.44	48706.84
595.64	48729.37
595.84	48680.22
596.04	48747.80
596.23	49306.90
596.43	48989.46
596.63	49038.61
596.83	49155.35
597.03	49313.04
597.22	49794.31
597.42	49448.21
597.62	49470.73
597.82	49718.54
598.02	49165.59
598.21	49601.80
598.41	49184.02
598.61	49929.48
598.81	49372.43
599.01	49530.12
599.20	49941.77
599.40	49886.47
599.60	50232.58
599.80	50259.20
600.00	50248.96
600.19	50509.05
600.39	49909.00
600.59	50302.21
600.79	50255.11
600.98	50203.91
601.18	50783.48
601.38	50279.68
601.58	50590.97
601.78	50789.62
601.97	50973.94
602.17	51270.90
602.37	50859.26
602.57	51092.72
602.76	51111.16
602.96	50627.84
603.16	51545.33
603.36	50945.27
603.55	51240.18
603.75	51244.27
603.95	51481.84
604.15	51610.86
604.34	51000.57
604.54	51655.92
604.74	51537.13
604.94	52081.89
605.13	51727.59
605.33	51920.10
605.53	52073.70
605.73	52274.40
605.92	52040.93
606.12	52239.59
606.32	52153.57
606.52	52100.32
606.71	52729.05
606.91	52667.61
607.11	52344.03
607.30	52606.17
607.50	52798.68
607.70	52569.31
607.90	52657.37
608.09	52585.69
608.29	52700.38
608.49	52673.76
608.68	52860.12
608.88	52917.46
609.08	52700.38
609.28	52970.71
609.47	53099.73
609.67	52927.70
609.87	52888.79
610.06	53458.13
610.26	53128.41
610.46	53722.32
610.66	53292.24
610.85	53023.96
611.05	53093.59
611.25	53652.69
611.44	53163.22
611.64	53273.81
611.84	53445.84
612.03	53187.80
612.23	53363.92
612.43	53890.25
612.62	53361.87
612.82	53861.58
613.02	53630.16
613.21	53165.27
613.41	53552.33
613.61	53628.11
613.80	53429.46
614.00	53869.77
614.20	53683.40
614.39	53916.87
614.59	53656.78
614.79	53626.06
614.98	53505.23
615.18	54035.66
615.38	54158.53
615.57	53329.11
615.77	54484.16
615.97	53505.23
616.16	53753.04
616.36	54150.34
616.56	54162.63
616.75	54006.98
616.95	53867.72
617.15	54146.25
617.34	53716.17
617.54	54129.86
617.74	54490.30
617.93	54351.04
618.13	54039.75
618.32	54121.67
618.52	53814.47
618.72	54185.16
618.91	54402.24
619.11	53791.95
619.31	53943.50
619.50	53974.22
619.70	53413.07
619.90	54113.48
620.09	53755.08
620.29	54256.84
620.48	54310.08
620.68	54383.81
620.88	53570.77
621.07	53853.39
621.27	54318.28
621.46	53865.67
621.66	53949.64
621.86	53699.79
622.05	53761.23
622.25	54961.34
622.44	54357.19
622.64	53918.92
622.84	54629.57
623.03	53693.64
623.23	54019.27
623.42	53941.45
623.62	54097.09
623.82	54760.64
624.01	53591.25
624.21	54023.37
624.40	53945.54
624.60	53830.86
624.80	53703.88
624.99	54101.19
625.19	53939.40
625.38	54215.88
625.58	53906.63
625.77	54097.09
625.97	54265.03
626.17	54308.04
626.36	53546.19
626.56	53978.31
626.75	53900.49
626.95	54342.85
627.14	53755.08
627.34	54449.35
627.54	54125.77
627.73	54367.43
627.93	53658.83
628.12	53757.13
628.32	53839.05
628.51	53949.64
628.71	53748.94
628.90	53925.07
629.10	54054.09
629.30	54213.83
629.49	54121.67
629.69	53781.71
629.88	54121.67
630.08	54500.54
630.27	54213.83
630.47	53902.54
630.66	54062.28
630.86	54207.68
631.05	53314.77
631.25	54516.93
631.44	53794.00
631.64	53728.46
631.84	54162.63
632.03	54049.99
632.23	54377.67
632.42	54336.71
632.62	54338.75
632.81	53707.98
633.01	54097.09
633.20	54211.78
633.40	54144.20
633.59	54158.53
633.79	53990.60
633.98	54133.96
634.18	54105.29
634.37	54133.96
634.57	54041.80
634.76	54498.50
634.96	53679.31
635.15	54172.87
635.35	53646.54
635.54	53941.45
635.74	53941.45
635.93	54039.75
636.13	54095.05
636.32	54258.88
636.52	53519.57
636.71	53867.72
636.91	54392.00
637.10	53693.64
637.30	54121.67
637.49	54322.37
637.69	54039.75
637.88	54078.66
638.08	53554.38
638.27	54369.47
638.46	54017.22
638.66	53525.71
638.85	53646.54
639.05	54105.29
639.24	54252.74
639.44	53286.10
639.63	54236.36
639.83	54109.38
640.02	53826.76
640.22	53834.95
640.41	54195.40
640.61	53417.17
640.80	54125.77
640.99	53576.91
641.19	54863.03
641.38	53951.69
641.58	53884.11
641.77	54039.75
641.97	53734.60
642.16	53923.02
642.36	54252.74
642.55	54615.23
642.74	54164.68
642.94	54439.11
643.13	53675.21
643.33	54109.38
643.52	54254.79
643.72	54369.47
643.91	53701.84
644.10	54133.96
644.30	54183.11
644.49	53562.57
644.69	54166.73
644.88	54113.48
645.08	53664.97
645.27	54002.89
645.46	53968.07
645.66	54236.36
645.85	53593.29
646.05	54179.01
646.24	53765.32
646.43	54105.29
646.63	54502.59
646.82	54203.59
647.02	54004.94
647.21	54156.49
647.40	53925.07
647.60	54060.23
647.79	54222.02
647.99	54432.96
648.18	54033.61
648.37	54486.21
648.57	54461.63
648.76	53810.38
648.96	53785.80
649.15	54441.15
649.34	54097.09
649.54	54244.55
649.73	54250.69
649.92	54482.11
650.12	54486.21
650.31	54488.26
650.51	54351.04
650.70	54142.15
650.89	54174.92
651.09	55133.37
651.28	54236.36
651.47	54326.47
651.67	54293.70
651.86	54549.70
652.06	53757.13
652.25	54312.13
652.44	54181.06
652.64	54033.61
652.83	54318.28
653.02	53974.22
653.22	54342.85
653.41	54013.13
653.60	53648.59
653.80	53984.46
653.99	54105.29
654.18	54310.08
654.38	53968.07
654.57	54459.58
654.76	54404.29
654.96	53894.35
655.15	54449.35
655.34	53904.59
655.54	53630.16
655.73	53992.65
655.92	54572.22
656.12	54068.42
656.31	53935.30
656.50	54029.51
656.70	54156.49
656.89	54146.25
657.08	53814.47
657.28	54471.87
657.47	54193.35
657.66	54381.76
657.86	54006.98
658.05	54197.44
658.24	53939.40
658.43	54029.51
658.63	54568.13
658.82	54056.14
659.01	54363.33
659.21	54392.00
659.40	54213.83
659.59	53882.06
659.79	54568.13
659.98	54478.02
660.17	53957.83
660.36	54011.08
660.56	54631.61
660.75	54269.12
660.94	54197.44
661.14	54275.27
661.33	54109.38
661.52	53556.43
661.71	54297.80
661.91	54191.30
662.10	53933.26
662.29	54230.21
662.49	54199.49
662.68	54080.71
662.87	54226.12
663.06	54279.36
663.26	54031.56
663.45	54230.21
663.64	54062.28
663.83	54426.82
664.03	54678.72
664.22	53810.38
664.41	54301.89
664.60	54281.41
664.80	54338.75
664.99	54301.89
665.18	53996.74
665.37	54680.77
665.57	54600.89
665.76	53773.52
665.95	54435.01
666.14	53974.22
666.34	54234.31
666.53	54392.00
666.72	53415.12
666.91	54019.27
667.11	53540.05
667.30	54052.04
667.49	53873.87
667.68	54066.38
667.87	54080.71
668.07	54242.50
668.26	53974.22
668.45	53755.08
668.64	53791.95
668.84	54691.01
669.03	54197.44
669.22	54523.07
669.41	54236.36
669.60	54260.93
669.80	53920.97
669.99	54342.85
670.18	54172.87
670.37	54392.00
670.57	54320.32
670.76	54017.22
670.95	54981.82
671.14	54072.52
671.33	54111.43
671.53	54289.60
671.72	54531.26
671.91	54267.08
672.10	53957.83
672.29	54086.85
672.48	54142.15
672.68	54582.46
672.87	54113.48
673.06	54252.74
673.25	53720.27
673.44	54009.03
673.64	54099.14
673.83	54013.13
674.02	53908.68
674.21	54252.74
674.40	54148.29
674.59	53429.46
674.79	53822.67
674.98	53576.91
675.17	53982.41
675.36	53990.60
675.55	53937.35
675.74	53368.02
675.94	53847.24
676.13	54158.53
676.32	54193.35
676.51	54572.22
676.70	54654.14
676.89	53951.69
677.08	54154.44
677.28	53896.39
677.47	54363.33
677.66	54138.05
677.85	54537.41
678.04	54183.11
678.23	54469.82
678.42	54615.23
678.62	54441.15
678.81	54392.00
679.00	54242.50
679.19	54557.89
679.38	53871.82
679.57	54412.48
679.76	54172.87
679.96	54359.23
680.15	54166.73
680.34	54041.80
680.53	53740.75
680.72	54420.67
680.91	54367.43
681.10	54279.36
681.29	54297.80
681.48	53978.31
681.68	54396.10
681.87	54580.42
682.06	53796.04
682.25	53644.49
682.44	53599.44
682.63	54004.94
682.82	53832.91
683.01	53646.54
683.20	54199.49
683.39	53861.58
683.59	53652.69
683.78	53712.08
683.97	53943.50
684.16	53441.74
684.35	53423.31
684.54	54424.77
684.73	53834.95
684.92	53859.53
685.11	53638.35
685.30	53470.42
685.49	53834.95
685.69	53888.20
685.88	53959.88
686.07	53843.15
686.26	53767.37
686.45	54154.44
686.64	53941.45
686.83	54088.90
687.02	53677.26
687.21	54121.67
687.40	54103.24
687.59	53857.48
687.78	53847.24
687.97	53851.34
688.16	53425.36
688.35	53812.43
688.54	53925.07
688.74	53574.86
688.93	53740.75
689.12	53712.08
689.31	53701.84
689.50	54344.90
689.69	53726.41
689.88	53122.26
690.07	53597.39
690.26	53429.46
690.45	54162.63
690.64	53730.51
690.83	53667.02
691.02	53368.02
691.21	53576.91
691.40	53724.36
691.59	53933.26
691.78	53511.38
691.97	53871.82
692.16	53789.90
692.35	53779.66
692.54	53628.11
692.73	53517.52
692.92	53830.86
693.11	53552.33
693.30	53408.98
693.49	53695.69
693.68	53451.98
693.87	53638.35
694.06	53482.70
694.25	53290.19
694.44	53021.91
694.63	53480.66
694.82	53564.62
695.01	53578.96
695.20	53152.98
695.39	53388.50
695.58	53333.20
695.77	53195.99
695.96	53183.70
696.15	53658.83
696.34	53155.03
696.53	53435.60
696.72	53525.71
696.91	53662.93
697.10	53400.79
697.29	53646.54
697.48	53658.83
697.67	53118.17
697.86	53050.58
698.05	53144.79
698.24	53482.70
698.43	52933.85
698.62	53210.32
698.81	53189.84
699.00	53540.05
699.19	53028.05
699.38	53183.70
699.57	52853.98
699.76	53540.05
699.95	52823.26
700.14	52980.95
700.32	52817.11
700.51	53101.78
700.70	53955.78
700.89	53402.83
701.08	53169.36
701.27	52892.89
701.46	53542.10
701.65	52841.69
701.84	52917.46
702.03	53181.65
702.22	52692.19
702.41	52540.64
702.60	53226.71
702.79	52929.75
702.98	52620.51
703.17	52622.56
703.35	52665.56
703.54	52954.33
703.73	53071.06
703.92	52800.73
704.11	52679.90
704.30	52196.58
704.49	52311.27
704.68	52493.54
704.87	52331.75
705.06	52497.63
705.25	52659.42
705.43	52458.72
705.62	52813.02
705.81	52505.82
706.00	52935.90
706.19	52108.52
706.38	51975.40
706.57	52581.60
706.76	52196.58
706.95	52360.42
707.14	52090.09
707.32	52034.79
707.51	52219.11
707.70	52370.66
707.89	52188.39
708.08	52509.92
708.27	52344.03
708.46	52434.14
708.65	52251.87
708.84	52802.78
709.02	52198.63
709.21	52536.54
709.40	52583.65
709.59	52452.58
709.78	51455.21
709.97	52266.21
710.16	51918.06
710.34	51682.54
710.53	51897.58
710.72	51844.33
710.91	52024.55
711.10	51725.55
711.29	52129.00
711.48	52069.61
711.66	51789.03
711.85	51496.17
712.04	51539.18
712.23	51901.67
712.42	51637.48
712.61	51799.27
712.80	51922.15
712.98	51805.42
713.17	51410.16
713.36	52176.10
713.55	51729.64
713.74	51449.07
713.93	51623.15
714.11	51537.13
714.30	51068.15
714.49	51500.27
714.68	51617.00
714.87	51764.46
715.06	51901.67
715.24	51174.64
715.43	51088.63
715.62	51449.07
715.81	51000.57
716.00	51377.39
716.18	51193.07
716.37	50873.59
716.56	50877.69
716.75	51408.11
716.94	51387.63
717.12	50654.46
717.31	51289.33
717.50	50881.78
717.69	50705.66
717.88	51203.31
718.06	51055.86
718.25	51234.03
718.44	50920.70
718.63	50734.33
718.82	50763.00
719.00	50846.97
719.19	50681.08
719.38	50472.19
719.57	50058.50
719.76	50289.92
719.94	49868.04
720.13	50187.52
720.32	50273.54
720.51	50199.81
720.69	50382.08
720.88	49890.57
721.07	50042.12
721.26	49411.34
721.44	49833.22
721.63	49773.83
721.82	49523.98
722.01	49739.02
722.20	49900.81
722.38	49497.36
722.57	49284.37
722.76	49779.98
722.95	49343.76
723.13	49532.17
723.32	49454.35
723.51	49259.79
723.70	49009.94
723.88	49247.50
724.07	49337.62
724.26	49569.04
724.44	48180.51
724.63	49407.25
724.82	48887.06
725.01	48573.72
725.19	48981.27
725.38	48481.56
725.57	48495.90
725.76	48997.65
725.94	48428.32
726.13	49067.28
726.32	48491.80
726.51	48387.36
726.69	48829.72
726.88	48592.15
727.07	48745.75
727.25	48536.86
727.44	48244.00
727.63	48463.13
727.82	48332.06
728.00	48624.92
728.19	48340.25
728.38	48520.48
728.56	47949.09
728.75	48674.07
728.94	48213.28
729.12	48151.84
729.31	48198.94
729.50	48319.77
729.69	48641.31
729.87	48256.29
730.06	48516.38
730.25	48190.75
730.43	48706.84
730.62	47985.96
730.81	47805.73
730.99	48383.26
731.18	47979.81
731.37	48354.59
731.55	48264.48
731.74	48489.76
731.93	48215.33
732.11	48606.49
732.30	48170.27
732.49	48067.87
732.67	48071.97
732.86	48014.63
733.05	47865.13
733.23	47977.76
733.42	48024.87
733.61	47899.94
733.79	48108.83
733.98	47961.38
734.17	47858.98
734.35	48086.31
734.54	47965.48
734.73	48182.56
734.91	48231.71
735.10	47512.88
735.29	48317.73
735.47	47754.54
735.66	47682.86
735.84	48010.53
736.03	47572.27
736.22	48223.52
736.40	47676.71
736.59	48000.29
736.78	47699.24
736.96	47502.64
737.15	47539.50
737.33	47064.37
737.52	47695.14
737.71	47445.29
737.89	47330.61
738.08	46685.50
738.27	46779.70
738.45	47066.42
738.64	47047.99
738.82	47002.93
739.01	47205.68
739.20	46562.62
739.38	47070.51
739.57	47252.78
739.75	47060.27
739.94	46884.15
740.13	47183.15
740.31	46601.53
740.50	47183.15
740.68	46806.33
740.87	46947.64
741.06	47215.92
741.24	46554.43
741.43	46521.66
741.61	46439.74
741.80	46622.01
741.99	46622.01
742.17	46204.22
742.36	46634.30
742.54	46726.46
742.73	46370.11
742.91	46726.46
743.10	46425.40
743.29	46593.34
743.47	46142.78
743.66	46228.80
743.84	46345.53
744.03	46200.13
744.21	46327.10
744.40	46492.99
744.59	46200.13
744.77	45702.47
744.96	46384.44
745.14	46361.92
745.33	45921.60
745.51	46124.35
745.70	46062.91
745.88	45780.29
746.07	45851.97
746.26	45434.19
746.44	45540.68
746.63	45534.54
746.81	45358.41
747.00	45382.99
747.18	45651.27
747.37	45294.92
747.55	45776.20
747.74	46013.76
747.92	45454.67
748.11	45397.32
748.29	45352.27
748.48	44905.81
748.66	45481.29
748.85	45239.63
749.03	45540.68
749.22	45194.57
749.41	44846.42
749.59	45110.61
749.78	44684.63
749.96	44674.39
750.15	44942.67
750.33	45006.16
750.52	44772.69
750.70	44727.64
750.89	44442.97
751.07	44553.56
751.26	44342.62
751.44	44731.73
751.63	44639.57
751.81	44610.90
752.00	44528.98
752.18	44436.83
752.37	44178.78
752.55	44371.29
752.74	44014.94
752.92	44348.76
753.10	44311.90
753.29	44135.77
753.47	44111.20
753.66	43779.43
753.84	44178.78
754.03	43939.17
754.21	43404.65
754.40	43812.20
754.58	44045.66
754.77	43853.15
754.95	43296.11
755.14	43570.54
755.32	43603.30
755.51	43136.37
755.69	43535.72
755.88	43435.37
756.06	43611.49
756.24	43154.80
756.43	43302.25
756.61	43238.76
756.80	43769.19
756.98	42853.75
757.17	43093.36
757.35	43335.02
757.54	43099.50
757.72	43509.10
757.90	42753.40
758.09	42968.43
758.27	43058.54
758.46	42757.49
758.64	43074.93
758.83	43326.83
759.01	43206.00
759.19	42859.89
759.38	42653.05
759.56	43079.02
759.75	42898.80
759.93	43029.87
760.12	42472.82
760.30	42837.36
760.48	42526.07
760.67	42530.17
760.85	42495.35
761.04	42595.70
761.22	42685.81
761.40	42440.06
761.59	42069.37
761.77	42192.25
761.96	42016.13
762.14	42304.89
762.32	41688.45
762.51	41868.67
762.69	41543.05
762.88	41876.86
763.06	41938.30
763.24	41696.64
763.43	41764.23
763.61	41764.23
763.80	41923.97
763.98	41549.19
764.16	41414.02
764.35	41407.88
764.53	41231.75
764.72	41352.58
764.90	41352.58
765.08	41358.73
765.27	41102.73
765.45	41072.01
765.63	40836.50
765.82	41661.83
766.00	41385.35
766.18	40834.45
766.37	41067.92
766.55	40904.08
766.74	40682.90
766.92	40723.86
767.10	40562.07
767.29	40891.79
767.47	40273.31
767.65	40785.30
767.84	40504.73
768.02	40756.63
768.20	40398.23
768.39	40813.97
768.57	40441.24
768.75	40541.59
768.94	40474.01
769.12	40465.81
769.30	40136.09
769.49	40132.00
769.67	39867.81
769.85	39620.00
770.04	40033.69
770.22	40078.75
770.40	39845.28
770.59	39351.72
770.77	40230.30
770.95	39794.08
771.14	39579.04
771.32	39843.23
771.50	39245.23
771.69	39450.02
771.87	39593.38
772.05	39349.67
772.24	38997.42
772.42	39024.04
772.60	39361.96
772.78	39022.00
772.97	39073.20
773.15	39241.13
773.33	38743.47
773.52	38694.32
773.70	39333.29
773.88	39392.68
774.07	39183.79
774.25	39490.98
774.43	39435.69
774.61	39234.99
774.80	39206.31
774.98	38827.44
775.16	39187.88
775.34	39208.36
775.53	38602.16
775.71	39298.47
775.89	39226.79
776.08	38931.89
776.26	39228.84
776.44	39009.71
776.62	39247.27
776.81	38989.23
776.99	39372.20
777.17	39062.96
777.35	39081.39
777.54	39175.59
777.72	39388.58
777.90	39077.29
778.08	39620.00
778.27	39515.56
778.45	39556.52
778.63	39656.87
778.81	39286.18
779.00	39927.20
779.18	39257.51
779.36	39478.69
779.54	39302.57
779.73	39624.10
779.91	39421.35
780.09	39499.17
780.27	39480.74
780.46	39441.83
780.64	39699.87
780.82	39251.37
781.00	39626.15
781.19	39589.28
781.37	39712.16
781.55	39589.28
781.73	40064.41
781.91	39916.96
782.10	39349.67
782.28	39620.00
782.46	39728.55
782.64	39683.49
782.82	39845.28
783.01	39716.26
783.19	39714.21
783.37	39632.29
783.55	39910.82
783.74	40156.57
783.92	39529.89
784.10	40129.95
784.28	39912.86
784.46	39429.54
784.64	39796.13
784.83	39699.87
785.01	40002.97
785.19	39851.42
785.37	39742.88
785.55	39830.94
785.74	39519.65
785.92	39683.49
786.10	39749.03
786.28	39640.48
786.46	39321.00
786.64	39613.86
786.83	39601.57
787.01	39613.86
787.19	39376.30
787.37	39372.20
787.55	39443.88
787.74	39142.83
787.92	39630.24
788.10	39157.16
788.28	39370.15
788.46	39523.75
788.64	39155.11
788.82	39851.42
789.01	39183.79
789.19	39464.36
789.37	39187.88
789.55	38839.73
789.73	38919.60
789.91	38933.93
790.09	38991.28
790.28	38868.40
790.46	38704.56
790.64	38739.38
790.82	38766.00
791.00	38454.71
791.18	38489.52
791.36	38497.72
791.55	38331.83
791.73	37983.68
791.91	38352.31
792.09	38251.96
792.27	38643.12
792.45	38329.78
792.63	38090.17
792.81	37834.17
793.00	37737.92
793.18	37914.05
793.36	37350.85
793.54	37631.43
793.72	37590.47
793.90	37273.03
794.08	37268.94
794.26	37455.30
794.44	37125.58
794.62	36992.46
794.81	37596.61
794.99	37352.90
795.17	37008.84
795.35	37297.61
795.53	37045.71
795.71	37393.86
795.89	36859.34
796.07	36689.36
796.25	36713.94
796.43	36609.49
796.61	36101.59
796.80	36396.50
796.98	36689.36
797.16	35861.98
797.34	36333.01
797.52	36113.88
797.70	36142.55
797.88	35929.56
798.06	35509.73
798.24	36072.92
798.42	35767.77
798.60	35485.15
798.78	35640.80
798.96	35589.60
799.14	35530.21
799.32	35538.40
799.51	35440.10
799.69	35411.43
799.87	35337.70
800.05	35065.32
800.23	35311.08
800.41	35046.89
800.59	34838.00
800.77	35048.94
800.95	34772.46
801.13	34940.39
801.31	34665.97
801.49	34377.20
801.67	34614.77
801.85	34649.58
802.03	34027.00
802.21	34383.35
802.39	34010.62
802.57	33979.90
802.75	34280.95
802.93	34289.14
803.11	34143.74
803.29	33834.49
803.47	33887.74
803.65	33754.62
803.83	33269.25
804.01	33631.74
804.19	33465.86
804.37	33428.99
804.55	33248.77
804.73	33351.17
804.91	33156.61
805.09	33484.29
805.27	33138.18
805.45	33402.37
805.63	33091.08
805.81	32583.18
805.99	33082.89
806.17	32955.91
806.35	32867.85
806.53	32824.84
806.71	32826.89
806.89	32896.52
807.07	32663.05
807.25	32589.33
807.43	32523.79
807.61	32405.01
807.79	32048.66
807.97	32140.82
808.15	32331.28
808.33	31886.87
808.51	31675.93
808.69	31972.89
808.87	31936.02
809.05	31786.52
809.23	31854.11
809.41	31489.57
809.59	31755.80
809.77	31821.34
809.95	31548.96
810.13	31596.06
810.31	31340.07
810.49	31575.58
810.67	31600.16
810.84	31700.51
811.02	31227.43
811.20	30879.27
811.38	31483.42
811.56	30721.58
811.74	30985.77
811.92	31112.74
812.10	31039.01
812.28	31262.24
812.46	30797.35
812.64	30899.75
812.82	30846.51
813.00	30996.01
813.18	30406.19
813.36	30789.16
813.53	30459.44
813.71	30477.87
813.89	30107.19
814.07	30457.39
814.25	30524.97
814.43	30209.59
814.61	30010.93
814.79	30322.23
814.97	30088.76
815.15	30348.85
815.33	29947.45
815.50	29877.82
815.68	29947.45
815.86	30256.69
816.04	29357.63
816.22	29615.68
816.40	29556.28
816.58	29466.17
816.76	29410.88
816.94	29478.46
817.11	29548.09
817.29	29650.49
817.47	29251.14
817.65	29423.17
817.83	29568.57
818.01	29216.32
818.19	29451.84
818.37	29136.45
818.54	28960.33
818.72	29281.86
818.90	29351.49
819.08	29029.96
819.26	29167.17
819.44	29435.45
819.62	28968.52
819.80	29113.92
819.97	28997.19
820.15	28612.17
820.33	28546.64
820.51	28415.57
820.69	28286.54
820.87	28812.87
821.05	28827.21
821.22	28755.53
821.40	28370.51
821.58	28307.02
821.76	28417.61
821.94	28495.44
822.12	28356.18
822.29	28638.80
822.47	28302.93
822.65	28255.82
822.83	28434.00
823.01	28419.66
823.19	27956.82
823.36	28235.35
823.54	28032.60
823.72	28083.80
823.90	28141.14
824.08	28069.46
824.25	27989.59
824.43	27715.16
824.61	27797.08
824.79	28186.19
824.97	27858.52
825.15	27958.87
825.32	27649.63
825.50	27610.71
825.68	27582.04
825.86	27586.14
826.04	28003.92
826.21	27647.58
826.39	27129.44
826.57	27620.95
826.75	27379.29
826.93	27481.69
827.10	27416.16
827.28	27344.48
827.46	27522.65
827.64	27088.48
827.81	27235.94
827.99	27534.94
828.17	27080.29
828.35	27037.28
828.53	27039.33
828.70	26879.59
828.88	26883.69
829.06	26922.60
829.24	27086.43
829.41	26877.54
829.59	27125.35
829.77	26869.35
829.95	26928.74
830.12	26873.45
830.30	26961.51
830.48	26687.08
830.66	26822.25
830.84	26895.97
831.01	26578.54
831.19	26793.58
831.37	26551.91
831.55	26461.80
831.72	26562.15
831.90	26560.11
832.08	26420.84
832.25	26345.07
832.43	26263.15
832.61	26185.33
832.79	26392.17
832.96	26140.27
833.14	26017.40
833.32	26449.52
833.50	26246.77
833.67	26220.14
833.85	26365.55
834.03	26066.55
834.20	26248.82
834.38	26046.07
834.56	26197.62
834.74	25857.65
834.91	26230.38
835.09	26054.26
835.27	25609.85
835.44	25572.99
835.62	25577.08
835.80	25613.95
835.98	25728.63
836.15	25837.17
836.33	25613.95
836.51	26101.36
836.68	25460.35
836.86	25759.35
837.04	25472.64
837.21	25620.09
837.39	25353.85
837.57	25892.47
837.75	25589.37
837.92	25314.94
838.10	25421.44
838.28	25046.66
838.45	25120.38
838.63	25601.66
838.81	25622.14
838.98	25384.57
839.16	25177.73
839.34	25048.71
839.51	24987.27
839.69	24819.33
839.87	25048.71
840.04	25163.39
840.22	25056.90
840.40	25302.65
840.57	24784.52
840.75	24911.49
840.93	24571.53
841.10	25403.00
841.28	25116.29
841.46	24696.46
841.63	24899.20
841.81	24436.36
841.98	24802.95
842.16	24805.00
842.34	24802.95
842.51	24360.59
842.69	25036.42
842.87	24538.76
843.04	24841.86
843.22	24499.85
843.40	24440.46
843.57	24557.19
843.75	24450.70
843.92	24536.71
844.10	24542.86
844.28	24643.21
844.45	24448.65
844.63	24596.10
844.81	24567.43
844.98	24360.59
845.16	24139.41
845.33	24286.86
845.51	24024.72
845.69	24032.91
845.86	24155.79
846.04	23987.86
846.21	23944.85
846.39	24180.37
846.57	24264.33
846.74	24221.33
846.92	23918.23
847.09	24039.06
847.27	23725.72
847.45	23893.65
847.62	24063.63
847.80	23721.62
847.97	23961.23
848.15	23924.37
848.32	23787.16
848.50	23619.22
848.68	23230.11
848.85	23490.20
849.03	23287.45
849.20	23568.02
849.38	23633.56
849.56	23518.87
849.73	23748.25
849.91	23434.91
850.08	23615.13
850.26	23338.65
850.43	23424.67
850.61	23572.12
850.78	22851.24
850.96	23111.33
851.14	22759.08
851.31	23391.90
851.49	23119.52
851.66	23410.33
851.84	23207.58
852.01	23185.05
852.19	23121.57
852.36	23017.12
852.54	22965.92
852.71	22920.87
852.89	23006.88
853.07	23123.62
853.24	23060.13
853.42	23060.13
853.59	23158.43
853.77	22967.97
853.94	22935.20
854.12	22843.04
854.29	22711.97
854.47	22582.95
854.64	22593.19
854.82	22777.51
854.99	22789.80
855.17	22623.91
855.34	22636.20
855.52	22814.37
855.69	22574.76
855.87	22550.18
856.04	22148.78
856.22	22486.70
856.39	22103.73
856.57	22415.02
856.74	22539.94
856.92	22386.35
857.09	21978.80
857.27	22212.27
857.44	22533.80
857.62	22286.00
857.79	22183.60
857.97	22138.54
858.14	21972.66
858.32	22073.01
858.49	22134.45
858.67	22064.82
858.84	21898.93
859.02	22124.21
859.19	21677.75
859.37	21821.11
859.54	21755.57
859.72	21972.66
859.89	22015.66
860.06	22003.38
860.24	21884.59
860.41	21841.59
860.59	21876.40
860.76	21986.99
860.94	21438.14
861.11	21962.42
861.29	21739.19
861.46	21649.08
861.64	21440.18
861.81	21319.35
861.98	21612.21
862.16	21229.24
862.33	21313.21
862.51	21376.70
862.68	21538.49
862.86	21243.58
863.03	21249.72
863.21	21214.91
863.38	21044.93
863.55	21116.61
863.73	21419.71
863.90	21178.04
864.08	20989.63
864.25	21176.00
864.43	21135.04
864.60	20932.29
864.77	20803.27
864.95	20924.10
865.12	20889.28
865.30	20825.79
865.47	20733.64
865.64	20606.66
865.82	21061.31
865.99	20958.91
866.17	20807.36
866.34	20768.45
866.51	20192.97
866.69	20690.63
866.86	20569.80
867.04	20561.61
867.21	20577.99
867.38	20317.90
867.56	20377.29
867.73	20287.18
867.91	20051.66
868.08	20272.84
868.25	20176.59
868.43	20301.51
868.60	20162.25
868.78	20094.67
868.95	20360.91
869.12	20285.13
869.30	20283.08
869.47	20324.04
869.64	20000.46
869.82	20139.72
869.99	20016.85
870.16	20199.12
870.34	20164.30
870.51	20113.10
870.69	19818.19
870.86	19893.97
871.03	20172.49
871.21	19787.47
871.38	19969.74
871.55	19822.29
871.73	19109.60
871.90	19562.20
872.07	19338.97
872.25	19601.11
872.42	19459.80
872.59	19449.56
872.77	19623.64
872.94	19568.34
873.11	19506.90
873.29	19582.68
873.46	19283.67
873.63	19470.04
873.81	19463.90
873.98	18910.94
874.15	19240.67
874.33	19197.66
874.50	18822.88
874.67	19146.46
874.85	19013.34
875.02	18872.03
875.19	18599.65
875.37	18640.61
875.54	18452.20
875.71	18915.04
875.88	18757.35
876.06	18470.63
876.23	18847.46
876.40	18628.32
876.58	18398.95
876.75	18611.94
876.92	18405.10
877.10	18523.88
877.27	18552.55
877.44	18380.52
877.61	18165.48
877.79	18378.47
877.96	18286.31
878.13	18292.46
878.31	17993.45
878.48	18081.52
878.65	17886.96
878.82	17823.47
879.00	17981.17
879.17	17813.23
879.34	17977.07
879.51	17854.19
879.69	17790.70
879.86	17813.23
880.03	17622.77
880.21	17823.47
880.38	17792.75
880.55	17821.42
880.72	17837.81
880.90	17829.62
881.07	17540.85
881.24	17272.57
881.41	17356.54
881.59	17628.92
881.76	17506.04
881.93	17456.89
882.10	17274.62
882.28	17383.16
882.45	17323.77
882.62	17540.85
882.79	17712.88
882.96	16938.75
883.14	17219.32
883.31	17573.62
883.48	17145.59
883.65	17282.81
883.83	17028.86
884.00	17069.82
884.17	17180.41
884.34	17166.07
884.51	16967.42
884.69	16824.06
884.86	16756.48
885.03	16994.04
885.20	16580.36
885.38	17114.87
885.55	17121.02
885.72	16801.54
885.89	16830.21
886.06	16862.97
886.24	16830.21
886.41	16774.91
886.58	16938.75
886.75	16756.48
886.92	16830.21
887.10	16715.52
887.27	16621.31
887.44	16367.37
887.61	16742.14
887.78	16582.40
887.95	16500.48
888.13	16428.81
888.30	16510.72
888.47	16371.46
888.64	16500.48
888.81	16516.87
888.99	16432.90
889.16	16295.69
889.33	16467.72
889.50	16019.21
889.67	16310.02
889.84	16150.28
890.01	16195.34
890.19	16043.79
890.36	16090.89
890.53	16164.62
890.70	16152.33
890.87	15791.89
891.04	15935.24
891.22	16056.08
891.39	15980.30
891.56	15793.94
891.73	15701.78
891.90	15556.37
892.07	15695.63
892.24	15945.48
892.42	15669.01
892.59	15740.69
892.76	15781.65
892.93	15587.09
893.10	15703.82
893.27	15683.34
893.44	15626.00
893.61	15382.29
893.79	15599.38
893.96	15490.84
894.13	15578.90
894.30	15562.51
894.47	15470.36
894.64	15740.69
894.81	15367.96
894.98	15388.44
895.15	15576.85
895.33	15527.70
895.50	15298.33
895.67	15544.08
895.84	15359.77
896.01	15519.51
896.18	15462.16
896.35	15386.39
896.52	15236.89
896.69	15343.38
896.86	15251.22
897.04	15419.16
897.21	15558.42
897.38	15107.87
897.55	15120.15
897.72	15331.09
897.89	15292.18
898.06	15265.56
898.23	15165.21
898.40	15386.39
898.57	15277.85
898.74	15275.80
898.91	15458.07
899.08	15304.47
899.26	15269.66
899.43	15398.68
899.60	15329.05
899.77	15079.19
899.94	15247.13
900.11	15163.16
900.28	15564.56
900.45	15271.70
900.62	14982.94
900.79	15306.52
900.96	15249.18
901.13	15161.11
901.30	14831.39
901.47	15027.99
901.64	15136.54
901.81	15222.55
901.98	14716.70
902.15	15099.67
902.32	14970.65
902.49	15169.30
902.66	15165.21
902.83	15169.30
903.01	14935.84
903.18	15245.08
903.35	15357.72
903.52	15009.56
903.69	15240.98
903.86	15027.99
904.03	15083.29
904.20	15095.58
904.37	15165.21
904.54	15167.26
904.71	15126.30
904.88	14866.21
905.05	15062.81
905.22	14888.73
905.39	14790.43
905.56	15126.30
905.73	15071.00
905.90	14964.51
906.07	14829.34
906.24	15146.78
906.41	15003.42
906.58	15322.90
906.75	14810.91
906.92	14958.36
907.09	14837.53
907.26	14731.04
907.43	15044.38
907.60	14731.04
907.77	15015.71
907.93	14866.21
908.10	14767.90
908.27	14792.48
908.44	14806.81
908.61	14690.08
908.78	14804.77
908.95	14911.26
909.12	15058.71
909.29	14765.85
909.46	14749.47
909.63	14960.41
909.80	14958.36
909.97	14862.11
910.14	14896.92
910.31	14735.14
910.48	14655.26
910.65	14544.67
910.82	14802.72
910.99	14663.46
911.16	14481.19
911.33	14528.29
911.50	14794.53
911.66	14423.84
911.83	14774.05
912.00	14683.94
912.17	14309.16
912.34	14393.12
912.51	14264.10
912.68	14253.86
912.85	14325.54
913.02	14122.79
913.19	14262.05
913.36	14284.58
913.53	14413.60
913.70	14024.49
913.86	14350.12
914.03	14169.90
914.20	14323.49
914.37	14192.42
914.54	14290.73
914.71	13934.38
914.88	13926.19
915.05	14036.78
915.22	13954.86
915.39	14071.59
915.55	14028.59
915.72	13913.90
915.89	13768.49
916.06	13682.48
916.23	13815.60
916.40	13815.60
916.57	13754.16
916.74	13758.25
916.91	13508.40
917.07	13659.95
917.24	13412.15
917.41	13528.88
917.58	13496.11
917.75	13428.53
917.92	13356.85
918.09	13205.30
918.26	13354.80
918.42	13442.87
918.59	13248.31
918.76	13164.34
918.93	13070.14
919.10	13313.84
919.27	12853.05
919.44	13082.42
919.60	13217.59
919.77	12959.55
919.94	12998.46
920.11	12869.44
920.28	12955.45
920.45	12689.21
920.61	12769.09
920.78	12762.94
920.95	12957.50
921.12	12687.17
921.29	12588.86
921.46	12726.08
921.62	12332.87
921.79	12451.65
921.96	12259.14
922.13	12648.26
922.30	12525.38
922.47	12185.41
922.63	12142.41
922.80	12244.81
922.97	12314.44
923.14	12095.30
923.31	12193.61
923.47	12029.77
923.64	12152.65
923.81	12017.48
923.98	12060.49
924.15	11865.93
924.32	11763.53
924.48	11872.07
924.65	12148.55
924.82	11665.23
924.99	11679.57
925.15	11353.94
925.32	11679.57
925.49	11657.04
925.66	11439.95
925.83	11419.47
925.99	11417.43
926.16	11472.72
926.33	11396.95
926.50	11128.66
926.67	11251.54
926.83	11079.51
927.00	11177.81
927.17	11034.46
927.34	10944.34
927.50	11079.51
927.67	10940.25
927.84	10891.10
928.01	10856.28
928.17	10872.67
928.34	10592.09
928.51	10764.12
928.68	10522.46
928.84	10530.66
929.01	10600.29
929.18	10682.20
929.35	10409.83
929.51	10577.76
929.68	10313.57
929.85	10264.42
930.02	10383.20
930.18	10299.23
930.35	10100.58
930.52	10338.15
930.69	10088.29
930.85	10213.22
931.02	10106.73
931.19	10145.64
931.36	9914.22
931.52	9854.83
931.69	10020.71
931.86	9824.11
932.02	9795.43
932.19	9729.90
932.36	9693.04
932.53	9695.08
932.69	9758.57
932.86	9713.52
933.03	9594.73
933.19	9484.14
933.36	9508.72
933.53	9594.73
933.70	9289.59
933.86	9375.60
934.03	9305.97
934.20	9109.36
934.36	9365.36
934.53	9045.88
934.70	8886.14
934.86	9131.89
935.03	8695.68
935.20	8859.51
935.36	8923.00
935.53	8611.71
935.70	8675.20
935.86	8769.40
936.03	8484.73
936.20	8349.57
936.36	8419.20
936.53	8312.71
936.70	8302.47
936.86	8439.68
937.03	8038.28
937.20	7915.40
937.36	8025.99
937.53	7813.00
937.70	7681.93
937.86	7735.18
938.03	7729.03
938.20	7688.07
938.36	7495.57
938.53	7456.65
938.70	7163.79
938.86	7356.30
939.03	7063.44
939.20	7176.08
939.36	7028.63
939.53	7083.92
939.70	7163.79
939.86	6776.73
940.03	6827.93
940.19	6508.44
940.36	6543.26
940.53	6481.82
940.69	6490.01
940.86	6473.63
941.03	6399.90
941.19	6182.82
941.36	6221.73
941.52	6246.30
941.69	6031.27
941.86	6188.96
942.02	6008.74
942.19	5971.88
942.35	5955.49
942.52	5916.58
942.69	5793.70
942.85	5705.64
943.02	5734.31
943.18	5793.70
943.35	5656.49
943.52	5517.23
943.68	5490.60
943.85	5615.53
944.01	5541.80
944.18	5416.88
944.35	5658.54
944.51	5500.84
944.68	5373.87
944.84	5216.18
945.01	5386.16
945.17	5250.99
945.34	5312.43
945.51	5330.86
945.67	5242.80
945.84	5201.84
946.00	5124.02
946.17	5089.20
946.33	5267.38
946.50	5296.05
946.67	5261.23
946.83	5169.07
947.00	5226.42
947.16	5105.59
947.33	5097.39
947.49	5244.85
947.66	5216.18
947.82	5203.89
947.99	5046.20
948.16	5197.74
948.32	5322.67
948.49	5302.19
948.65	5212.08
948.82	5253.04
948.98	5107.63
949.15	5074.87
949.31	5226.42
949.48	5207.98
949.64	5105.59
949.81	5134.26
949.97	5314.48
950.14	5255.09
950.30	5181.36
950.47	5089.20
950.63	5181.36
950.80	5339.05
950.96	5232.56
951.13	5138.35
951.30	5248.94
951.46	5322.67
951.63	5175.22
951.79	5220.27
951.96	5281.71
952.12	5267.38
952.29	5273.52
952.45	5234.61
952.62	5207.98
952.78	5146.55
952.94	5261.23
953.11	5250.99
953.27	5152.69
953.44	5273.52
953.60	5267.38
953.77	5353.39
953.93	5257.14
954.10	5267.38
954.26	5351.34
954.43	5310.38
954.59	5294.00
954.76	5328.81
954.92	5232.56
955.09	5341.10
955.25	5332.91
955.42	5207.98
955.58	5400.49
955.75	5279.66
955.91	5222.32
956.07	5326.77
956.24	5357.49
956.40	5400.49
956.57	5361.58
956.73	5169.07
956.90	5279.66
957.06	5347.25
957.23	5267.38
957.39	5218.22
957.56	5285.81
957.72	5218.22
957.88	5304.24
958.05	5328.81
958.21	5312.43
958.38	5146.55
958.54	5396.40
958.71	5404.59
958.87	5289.90
959.03	5308.34
959.20	5330.86
959.36	5332.91
959.53	5275.57
959.69	5328.81
959.85	5400.49
960.02	5177.26
960.18	5332.91
960.35	5326.77
960.51	5394.35
960.68	5261.23
960.84	5345.20
961.00	5207.98
961.17	5160.88
961.33	5246.90
961.50	5173.17
961.66	5349.29
961.82	5201.84
961.99	5380.01
962.15	5207.98
962.31	5152.69
962.48	5289.90
962.64	5326.77
962.81	5250.99
962.97	5185.46
963.13	5169.07
963.30	5353.39
963.46	5193.65
963.62	5203.89
963.79	5158.83
963.95	5167.03
964.12	5300.14
964.28	5238.70
964.44	5265.33
964.61	5240.75
964.77	5201.84
964.93	5341.10
965.10	5210.03
965.26	5113.78
965.42	5179.31
965.59	5230.51
965.75	5154.74
965.92	4999.09
966.08	5218.22
966.24	5138.35
966.41	5060.53
966.57	5185.46
966.73	5095.35
966.90	5203.89
967.06	5066.67
967.22	5207.98
967.39	5130.16
967.55	5083.06
967.71	5074.87
967.88	5078.96
968.04	5078.96
968.20	5017.52
968.37	4939.70
968.53	5003.19
968.69	5017.52
968.85	5203.89
969.02	5099.44
969.18	5093.30
969.34	4927.41
969.51	5130.16
969.67	5093.30
969.83	4820.92
970.00	5072.82
970.16	4988.85
970.32	4992.95
970.48	5023.67
970.65	4730.81
970.81	4874.17
970.97	4882.36
971.14	4831.16
971.30	4886.45
971.46	4890.55
971.63	4847.54
971.79	4880.31
971.95	4947.89
972.11	4792.25
972.28	4839.35
972.44	4759.48
972.60	4747.19
972.76	4763.58
972.93	4698.04
973.09	4818.87
973.25	4745.14
973.42	4730.81
973.58	4759.48
973.74	4657.08
973.90	4755.38
974.07	4714.42
974.23	4753.34
974.39	4808.63
974.55	4646.84
974.72	4630.46
974.88	4495.29
975.04	4745.14
975.20	4755.38
975.37	4798.39
975.53	4665.27
975.69	4708.28
975.85	4505.53
976.01	4642.75
976.18	4587.45
976.34	4607.93
976.50	4612.03
976.66	4616.12
976.83	4585.40
976.99	4581.31
977.15	4577.21
977.31	4550.59
977.47	4595.64
977.64	4581.31
977.80	4583.35
977.96	4478.91
978.12	4575.16
978.29	4521.92
978.45	4370.37
978.61	4353.98
978.77	4560.83
978.93	4431.80
979.10	4415.42
979.26	4421.56
979.42	4478.91
979.58	4247.49
979.74	4403.13
979.91	4327.36
980.07	4411.32
980.23	4335.55
980.39	4294.59
980.55	4448.19
980.71	4347.84
980.88	4276.16
981.04	4310.97
981.20	4231.10
981.36	4399.04
981.52	4173.76
981.68	4341.69
981.85	4370.37
982.01	4325.31
982.17	4286.40
982.33	4349.89
982.49	4347.84
982.65	4181.95
982.82	4272.06
982.98	4120.51
983.14	4169.66
983.30	4155.33
983.46	4255.68
983.62	4304.83
983.79	4186.05
983.95	4091.84
984.11	4202.43
984.27	4147.14
984.43	4032.45
984.59	4128.70
984.75	4108.23
984.91	4085.70
985.08	4081.60
985.24	3958.72
985.40	3964.87
985.56	3944.39
985.72	4122.56
985.88	4120.51
986.04	3913.67
986.20	3940.29
986.37	4032.45
986.53	3956.68
986.69	3952.58
986.85	3928.00
987.01	4009.92
987.17	4063.17
987.33	3966.92
987.49	4026.31
987.65	4054.98
987.82	3790.79
987.98	3784.65
988.14	3891.14
988.30	3817.41
988.46	3966.92
988.62	3811.27
988.78	3839.94
988.94	3743.69
989.10	3915.72
989.26	3749.83
989.42	3907.52
989.59	3809.22
989.75	3866.56
989.91	3696.58
990.07	3663.82
990.23	3706.82
990.39	3801.03
990.55	3792.84
990.71	3667.91
990.87	3770.31
991.03	3747.78
991.19	3704.78
991.35	3751.88
991.51	3663.82
991.67	3835.85
991.83	3682.25
992.00	3739.59
992.16	3694.54
992.32	3674.06
992.48	3653.58
992.64	3557.32
992.80	3598.28
992.96	3649.48
993.12	3747.78
993.28	3674.06
993.44	3643.34
993.60	3499.98
993.76	3567.56
993.92	3506.12
994.08	3594.19
994.24	3567.56
994.40	3485.64
994.56	3588.04
994.72	3497.93
994.88	3426.25
995.04	3522.51
995.20	3450.83
995.36	3547.08
995.52	3604.42
995.68	3555.27
995.84	3416.01
996.00	3602.38
996.16	3327.95
996.32	3401.68
996.48	3364.81
996.64	3348.43
996.80	3334.09
996.96	3528.65
997.12	3364.81
997.28	3280.85
997.44	3309.52
997.60	3379.15
997.76	3370.96
997.92	3317.71
998.08	3368.91
998.24	3250.13
998.40	3297.23
998.56	3323.85
998.72	3270.61
998.88	3155.92
999.04	3303.37
999.20	3350.48
999.36	3213.26
999.52	3295.18
999.68	3252.17
999.84	3264.46
1000.00	3207.12
1000.16	3309.52
1000.32	3157.97
1000.48	3200.98
1000.64	3047.38
1000.80	3203.02
1000.95	3100.62
1001.11	3231.69
1001.27	3176.40
1001.43	3160.02
1001.59	3104.72
1001.75	3123.15
1001.91	3168.21
1002.07	3041.23
1002.23	3033.04
1002.39	3067.86
1002.55	3080.14
1002.71	3102.67
1002.87	3035.09
1003.03	3057.62
1003.19	3137.49
1003.34	3151.82
1003.50	3004.37
1003.66	3084.24
1003.82	3196.88
1003.98	2994.13
1004.14	3059.67
1004.30	2983.89
1004.46	3061.71
1004.62	3119.06
1004.78	3059.67
1004.94	2979.79
1005.09	2951.12
1005.25	3008.47
1005.41	3035.09
1005.57	3024.85
1005.73	2932.69
1005.89	2981.84
1006.05	3014.61
1006.21	2846.68
1006.37	2867.16
1006.52	2901.97
1006.68	2830.29
1006.84	3022.80
1007.00	2877.40
1007.16	2928.60
1007.32	2789.33
1007.48	2850.77
1007.64	2942.93
1007.79	2861.01
1007.95	2897.88
1008.11	2994.13
1008.27	2861.01
1008.43	2826.20
1008.59	2744.28
1008.75	2828.24
1008.91	2801.62
1009.06	2748.37
1009.22	2777.05
1009.38	2746.33
1009.54	2764.76
1009.70	2766.81
1009.86	2748.37
1010.01	2820.05
1010.17	2697.17
1010.33	2746.33
1010.49	2781.14
1010.65	2787.29
1010.81	2748.37
1010.96	2750.42
1011.12	2672.60
1011.28	2715.61
1011.44	2748.37
1011.60	2676.70
1011.76	2662.36
1011.91	2742.23
1012.07	2635.74
1012.23	2506.71
1012.39	2625.50
1012.55	2707.41
1012.71	2594.78
1012.86	2648.02
1013.02	2705.37
1013.18	2607.06
1013.34	2672.60
1013.50	2639.83
1013.65	2590.68
1013.81	2641.88
1013.97	2510.81
1014.13	2578.39
1014.29	2602.97
1014.44	2615.26
1014.60	2596.82
1014.76	2617.30
1014.92	2576.34
1015.07	2533.34
1015.23	2605.02
1015.39	2428.89
1015.55	2568.15
1015.71	2551.77
1015.86	2459.61
1016.02	2445.27
1016.18	2437.08
1016.34	2424.80
1016.49	2437.08
1016.65	2580.44
1016.81	2510.81
1016.97	2492.38
1017.12	2496.47
1017.28	2389.98
1017.44	2279.39
1017.60	2478.04
1017.75	2459.61
1017.91	2449.37
1018.07	2453.47
1018.23	2443.23
1018.38	2439.13
1018.54	2387.93
1018.70	2480.09
1018.86	2318.30
1019.01	2299.87
1019.17	2310.11
1019.33	2492.38
1019.49	2387.93
1019.64	2336.73
1019.80	2387.93
1019.96	2408.41
1020.12	2435.03
1020.27	2269.15
1020.43	2342.88
1020.59	2328.54
1020.74	2490.33
1020.90	2428.89
1021.06	2224.09
1021.22	2379.74
1021.37	2258.91
1021.53	2291.68
1021.69	2361.31
1021.84	2195.42
1022.00	2271.20
1022.16	2234.33
1022.31	2306.01
1022.47	2318.30
1022.63	2281.44
1022.79	2168.80
1022.94	2271.20
1023.10	2459.61
1023.26	2215.90
1023.41	2179.04
1023.57	2191.33
1023.73	2193.37
1023.88	2240.48
1024.04	2133.98
1024.20	2111.46
1024.35	2170.85
1024.51	2240.48
1024.67	2258.91
1024.82	2213.85
1024.98	2170.85
1025.14	2064.35
1025.29	2136.03
1025.45	2172.89
1025.61	2078.69
1025.76	2123.74
1025.92	2086.88
1026.08	2183.13
1026.23	2187.23
1026.39	2152.42
1026.55	2076.64
1026.70	2052.06
1026.86	2166.75
1027.02	2088.93
1027.17	2187.23
1027.33	2172.89
1027.48	2031.58
1027.64	2078.69
1027.80	2017.25
1027.95	2133.98
1028.11	1982.43
1028.27	2117.60
1028.42	2136.03
1028.58	2068.45
1028.73	1959.91
1028.89	1968.10
1029.05	2097.12
1029.20	2043.87
>>>>>End Processed Spectral Data<<<<<
