SpectraSuite Data File
++++++++++++++++++++++++++++++++++++
Date: Fri Jun 02 14:51:07 CEST 2017
User: INFO_000
Dark Spectrum Present: No
Reference Spectrum Present: No
Number of Sampled Component Spectra: 1
Spectrometers: USB4H00879
Integration Time (usec): 80000 (USB4H00879)
Spectra Averaged: 1 (USB4H00879)
Boxcar Smoothing: 0 (USB4H00879)
Correct for Electrical Dark: No (USB4H00879)
Strobe/Lamp Enabled: No (USB4H00879)
Correct for Detector Non-linearity: No (USB4H00879)
Correct for Stray Light: No (USB4H00879)
Number of Pixels in Processed Spectrum: 3648
>>>>>Begin Processed Spectral Data<<<<<
345.13	1347.56
345.34	1347.56
345.56	1347.56
345.78	1236.97
345.99	1255.40
346.21	1683.43
346.42	1718.25
346.64	1632.23
346.86	1775.59
347.07	1648.61
347.29	1722.34
347.50	1695.72
347.72	1609.70
347.94	1699.81
348.15	1591.27
348.37	1626.09
348.59	1703.91
348.80	1642.47
349.02	1728.49
349.23	1787.88
349.45	1779.68
349.67	1861.60
349.88	1871.84
350.10	1939.43
350.31	1771.49
350.53	1843.17
350.75	1882.08
350.96	1837.03
351.18	1789.92
351.39	1851.36
351.61	1736.68
351.82	1820.64
352.04	1806.31
352.26	1802.21
352.47	1861.60
352.69	1941.47
352.90	1732.58
353.12	1742.82
353.34	1822.69
353.55	1902.56
353.77	1908.71
353.98	1834.98
354.20	1822.69
354.41	1837.03
354.63	1925.09
354.85	2058.21
355.06	1918.95
355.28	1714.15
355.49	1935.33
355.71	1931.23
355.92	1884.13
356.14	1900.52
356.35	1873.89
356.57	1796.07
356.79	1927.14
357.00	1828.84
357.22	2029.54
357.43	1820.64
357.65	1943.52
357.86	1880.04
358.08	1851.36
358.29	1845.22
358.51	1959.91
358.72	1947.62
358.94	1863.65
359.16	1955.81
359.37	1925.09
359.59	1890.28
359.80	1949.67
360.02	1964.00
360.23	1998.82
360.45	1953.76
360.66	1966.05
360.88	1820.64
361.09	1886.18
361.31	1980.39
361.52	1966.05
361.74	2107.36
361.95	2097.12
362.17	1966.05
362.38	2086.88
362.60	2000.87
362.81	1892.32
363.03	1978.34
363.24	2015.20
363.46	2021.35
363.67	2011.11
363.89	1974.24
364.10	1918.95
364.32	1877.99
364.53	2076.64
364.75	1953.76
364.96	1984.48
365.18	2027.49
365.39	1984.48
365.61	1937.38
365.82	2025.44
366.04	2025.44
366.25	1972.19
366.47	1988.58
366.68	1992.67
366.90	1994.72
367.11	2097.12
367.33	2037.73
367.54	2138.08
367.76	2021.35
367.97	2064.35
368.19	1933.28
368.40	2021.35
368.62	1972.19
368.83	1988.58
369.05	2035.68
369.26	1947.62
369.48	2019.30
369.69	1925.09
369.91	2060.26
370.12	2013.15
370.33	2084.83
370.55	1904.61
370.76	2076.64
370.98	2043.87
371.19	1978.34
371.41	2011.11
371.62	2047.97
371.84	1986.53
372.05	2144.22
372.27	2058.21
372.48	1992.67
372.69	2084.83
372.91	2140.13
373.12	2179.04
373.34	2101.22
373.55	2201.57
373.77	2172.89
373.98	2101.22
374.20	2174.94
374.41	2240.48
374.62	2093.02
374.84	2107.36
375.05	2256.86
375.27	2060.26
375.48	2097.12
375.70	2183.13
375.91	2195.42
376.12	2207.71
376.34	2072.54
376.55	2160.61
376.77	2191.33
376.98	2078.69
377.19	2158.56
377.41	2125.79
377.62	2162.66
377.84	2181.09
378.05	2322.40
378.27	2133.98
378.48	2291.68
378.69	2334.68
378.91	2324.44
379.12	2209.76
379.34	2312.16
379.55	2291.68
379.76	2215.90
379.98	2205.66
380.19	2197.47
380.41	2125.79
380.62	2271.20
380.83	2174.94
381.05	2232.29
381.26	2299.87
381.47	2242.53
381.69	2236.38
381.90	2328.54
382.12	2246.62
382.33	2248.67
382.54	2246.62
382.76	2324.44
382.97	2279.39
383.19	2172.89
383.40	2349.02
383.61	2150.37
383.83	2236.38
384.04	2254.81
384.25	2324.44
384.47	2314.20
384.68	2267.10
384.89	2289.63
385.11	2205.66
385.32	2322.40
385.54	2269.15
385.75	2279.39
385.96	2467.80
386.18	2359.26
386.39	2394.08
386.60	2269.15
386.82	2437.08
387.03	2406.36
387.24	2465.75
387.46	2488.28
387.67	2449.37
387.88	2461.66
388.10	2439.13
388.31	2457.56
388.52	2535.39
388.74	2529.24
388.95	2486.23
389.16	2551.77
389.38	2451.42
389.59	2527.19
389.80	2529.24
390.02	2559.96
390.23	2680.79
390.44	2426.84
390.66	2586.58
390.87	2420.70
391.08	2551.77
391.30	2656.22
391.51	2549.72
391.72	2633.69
391.94	2572.25
392.15	2590.68
392.36	2492.38
392.58	2574.30
392.79	2582.49
393.00	2521.05
393.22	2643.93
393.43	2729.94
393.64	2731.99
393.85	2703.32
394.07	2574.30
394.28	2754.52
394.49	2764.76
394.71	2658.26
394.92	2875.35
395.13	2666.46
395.35	2711.51
395.56	2611.16
395.77	2723.80
395.98	2729.94
396.20	2854.87
396.41	2854.87
396.62	2901.97
396.84	2797.53
397.05	2793.43
397.26	2883.54
397.47	2957.27
397.69	2768.85
397.90	3002.32
398.11	2815.96
398.32	2824.15
398.54	2879.44
398.75	2768.85
398.96	2863.06
399.18	3049.43
399.39	2985.94
399.60	2867.16
399.81	2967.51
400.03	2834.39
400.24	3194.83
400.45	2949.08
400.66	3012.56
400.88	2990.03
401.09	3045.33
401.30	2990.03
401.51	3121.10
401.73	2994.13
401.94	3139.54
402.15	3074.00
402.36	3024.85
402.58	2987.99
402.79	3153.87
403.00	2975.70
403.21	3157.97
403.43	3147.73
403.64	3291.09
403.85	3174.35
404.06	3182.54
404.27	2975.70
404.49	3186.64
404.70	3143.63
404.91	3291.09
405.12	3190.74
405.34	3231.69
405.55	3350.48
405.76	3153.87
405.97	3153.87
406.19	3358.67
406.40	3141.58
406.61	3264.46
406.82	3239.89
407.03	3223.50
407.25	3162.06
407.46	3354.57
407.67	3407.82
407.88	3450.83
408.09	3375.05
408.31	3317.71
408.52	3387.34
408.73	3334.09
408.94	3416.01
409.15	3393.48
409.37	3418.06
409.58	3456.97
409.79	3452.88
410.00	3434.44
410.21	3377.10
410.43	3362.76
410.64	3434.44
410.85	3471.31
411.06	3459.02
411.27	3502.03
411.48	3497.93
411.70	3411.92
411.91	3473.36
412.12	3641.29
412.33	3528.65
412.54	3549.13
412.76	3536.84
412.97	3631.05
413.18	3452.88
413.39	3600.33
413.60	3551.18
413.81	3456.97
414.03	3573.71
414.24	3616.71
414.45	3794.89
414.66	3590.09
414.87	3655.62
415.08	3510.22
415.30	3690.44
415.51	3682.25
415.72	3626.95
415.93	3600.33
416.14	3770.31
416.35	3735.50
416.56	3772.36
416.78	3682.25
416.99	3758.02
417.20	3702.73
417.41	3633.10
417.62	3723.21
417.83	3895.24
418.04	3803.08
418.26	3786.69
418.47	3798.98
418.68	3792.84
418.89	3841.99
419.10	4057.03
419.31	3825.61
419.52	3919.81
419.73	3887.04
419.95	3930.05
420.16	3811.27
420.37	3895.24
420.58	3882.95
420.79	3686.34
421.00	3917.76
421.21	3946.44
421.42	3880.90
421.63	3975.11
421.85	3993.54
422.06	4065.22
422.27	4071.36
422.48	3958.72
422.69	3964.87
422.90	4097.99
423.11	4124.61
423.32	4120.51
423.53	4267.97
423.75	4095.94
423.96	4306.88
424.17	4239.30
424.38	4284.35
424.59	4296.64
424.80	4384.70
425.01	4280.25
425.22	4274.11
425.43	4263.87
425.64	4333.50
425.85	4431.80
426.06	4315.07
426.28	4384.70
426.49	4190.14
426.70	4425.66
426.91	4329.41
427.12	4390.84
427.33	4450.24
427.54	4431.80
427.75	4603.83
427.96	4693.94
428.17	4509.63
428.38	4612.03
428.59	4718.52
428.80	4650.94
429.01	4644.79
429.23	4630.46
429.44	4898.74
429.65	4835.25
429.86	4786.10
430.07	4657.08
430.28	4644.79
430.49	4896.69
430.70	4911.03
430.91	4962.23
431.12	4820.92
431.33	4968.37
431.54	4841.40
431.75	4951.99
431.96	5009.33
432.17	4970.42
432.38	5072.82
432.59	5195.70
432.80	5007.28
433.01	5058.48
433.22	5175.22
433.43	5128.11
433.64	5226.42
433.85	5074.87
434.06	5066.67
434.27	5115.83
434.49	5197.74
434.70	5386.16
434.91	5236.66
435.12	5302.19
435.33	5236.66
435.54	5212.08
435.75	5273.52
435.96	5216.18
436.17	5324.72
436.38	5398.45
436.59	5443.50
436.80	5523.37
437.01	5760.94
437.22	5599.15
437.43	5474.22
437.64	5398.45
437.85	5533.61
438.06	5580.71
438.27	5539.76
438.48	5689.26
438.69	5750.70
438.90	5568.43
439.11	5769.13
439.32	5709.74
439.53	5758.89
439.74	5719.98
439.95	5697.45
440.16	5666.73
440.37	5773.22
440.57	5685.16
440.78	5810.09
440.99	5902.25
441.20	5777.32
441.41	5760.94
441.62	5935.01
441.83	5574.57
442.04	5818.28
442.25	5861.29
442.46	5930.92
442.67	6006.69
442.88	6277.02
443.09	6004.64
443.30	6053.80
443.51	6033.32
443.72	6070.18
443.93	6145.95
444.14	6219.68
444.35	5978.02
444.56	6363.04
444.77	6166.43
444.98	6326.18
445.19	6459.29
445.40	6129.57
445.61	6203.30
445.81	6510.49
446.02	6492.06
446.23	6354.85
446.44	6162.34
446.65	6377.37
446.86	6479.77
447.07	6354.85
447.28	6512.54
447.49	6573.98
447.70	6387.61
447.91	6608.80
448.12	6434.72
448.33	6709.15
448.54	6516.64
448.74	6473.63
448.95	6694.81
449.16	6541.21
449.37	6762.39
449.58	6502.30
449.79	6760.34
450.00	6729.63
450.21	6813.59
450.42	6743.96
450.63	6950.81
450.84	6868.89
451.05	6885.27
451.25	6825.88
451.46	6838.17
451.67	7006.10
451.88	7079.83
452.09	7040.92
452.30	6991.77
452.51	7010.20
452.72	7061.40
452.93	7384.98
453.13	6868.89
453.34	6989.72
453.55	7042.96
453.76	7102.36
453.97	7444.37
454.18	7311.25
454.39	7233.43
454.60	7204.75
454.81	7337.87
455.01	7511.95
455.22	7085.97
455.43	7335.82
455.64	7612.30
455.85	7473.04
456.06	7718.79
456.27	7569.29
456.48	7595.92
456.68	7581.58
456.89	7536.52
457.10	7606.16
457.31	7679.88
457.52	7649.16
457.73	7669.64
457.94	8048.52
458.14	7489.42
458.35	8132.48
458.56	7819.14
458.77	7776.14
458.98	7921.54
459.19	7831.43
459.39	8091.52
459.60	8079.24
459.81	8052.61
460.02	8316.80
460.23	8140.68
460.44	8302.47
460.65	8304.51
460.85	8230.79
461.06	8312.71
461.27	8294.27
461.48	8413.06
461.69	8671.10
461.89	8210.31
462.10	8535.93
462.31	8341.38
462.52	8472.45
462.73	8411.01
462.94	8634.24
463.14	8597.37
463.35	8664.96
463.56	9252.72
463.77	8855.42
463.98	8785.79
464.18	8759.16
464.39	8963.96
464.60	9213.81
464.81	8978.30
465.02	8968.06
465.23	9332.59
465.43	9097.08
465.64	9334.64
465.85	9228.15
466.06	9215.86
466.27	9609.07
466.47	9658.22
466.68	9432.94
466.89	9498.48
467.10	9566.06
467.30	9486.19
467.51	9656.17
467.72	10010.47
467.93	9529.20
468.14	9877.35
468.34	10110.82
468.55	10006.38
468.76	10141.54
468.97	9822.06
469.17	10151.78
469.38	10063.72
469.59	10348.39
469.80	10119.01
470.01	10327.91
470.21	10176.36
470.42	10704.73
470.63	10567.52
470.84	10518.37
471.04	10639.20
471.25	10655.58
471.46	10606.43
471.67	11093.85
471.87	10913.63
472.08	11212.63
472.29	11259.73
472.50	10772.32
472.70	11104.09
472.91	11112.28
473.12	11368.27
473.33	11304.79
473.53	11417.43
473.74	11517.78
473.95	11771.72
474.16	11634.51
474.36	11845.45
474.57	11976.52
474.78	12248.90
474.99	12099.40
475.19	12054.34
475.40	12248.90
475.61	12238.66
475.81	12635.97
476.02	12691.26
476.23	12508.99
476.44	12480.32
476.64	12916.54
476.85	12918.59
477.06	12971.83
477.27	13258.55
477.47	13283.13
477.68	13313.84
477.89	13389.62
478.09	13332.28
478.30	13666.10
478.51	13449.01
478.71	13489.97
478.92	13754.16
479.13	14139.18
479.34	13938.48
479.54	14001.96
479.75	14063.40
479.96	14184.23
480.16	14397.22
480.37	14249.77
480.58	14360.36
480.78	14821.15
480.99	14530.34
481.20	14847.77
481.41	15173.40
481.61	14835.49
481.82	15130.39
482.03	15048.47
482.23	15103.77
482.44	15458.07
482.65	15642.39
482.85	15716.11
483.06	15798.03
483.27	15838.99
483.47	15765.26
483.68	15918.86
483.89	16056.08
484.09	16078.60
484.30	16246.54
484.51	16516.87
484.71	16402.18
484.92	16172.81
485.13	16412.42
485.33	16858.88
485.54	16668.42
485.75	17043.20
485.95	17168.12
486.16	17151.74
486.37	17362.68
486.57	17069.82
486.78	17467.13
486.98	17497.84
487.19	17706.74
487.40	17630.96
487.60	17905.39
487.81	17946.35
488.02	18050.80
488.22	17868.53
488.43	18249.45
488.64	18085.61
488.84	18349.80
489.05	18396.90
489.25	18126.57
489.46	18513.64
489.67	18495.21
489.87	18573.03
490.08	18773.73
490.29	18816.74
490.49	19177.18
490.70	19076.83
490.90	19312.35
491.11	19220.19
491.32	19341.02
491.52	19504.85
491.73	19515.09
491.94	19351.26
492.14	19609.30
492.35	20068.05
492.55	19926.74
492.76	19951.31
492.97	20117.20
493.17	19746.51
493.38	20491.98
493.58	20260.55
493.79	20203.21
494.00	20403.91
494.20	20494.02
494.41	20557.51
494.61	20938.43
494.82	20514.50
495.02	20565.70
495.23	21149.37
495.44	20958.91
495.64	20879.04
495.85	21042.88
496.05	21429.94
496.26	21288.64
496.47	21503.67
496.67	21137.09
496.88	21542.58
497.08	21120.70
497.29	21790.39
497.49	21544.63
497.70	21821.11
497.91	22124.21
498.11	22079.15
498.32	21909.17
498.52	22034.10
498.73	22576.81
498.93	21896.88
499.14	22351.53
499.34	22402.73
499.55	22527.66
499.76	21991.09
499.96	22552.23
500.17	22589.10
500.37	22402.73
500.58	22525.61
500.78	22623.91
500.99	22757.03
501.19	22775.46
501.40	22869.67
501.60	22707.88
501.81	22697.64
502.02	23193.25
502.22	23146.14
502.43	23176.86
502.63	23295.64
502.84	23658.14
503.04	23084.70
503.25	23187.10
503.45	23416.47
503.66	23615.13
503.86	23281.31
504.07	23617.18
504.27	23508.63
504.48	23979.67
504.68	23869.08
504.89	23934.61
505.09	24071.82
505.30	23873.17
505.50	23895.70
505.71	24141.46
505.91	24168.08
506.12	24039.06
506.32	24063.63
506.53	24295.05
506.73	24317.58
506.94	24309.39
507.14	24438.41
507.35	24465.03
507.55	24651.40
507.76	24487.56
507.96	24157.84
508.17	24628.87
508.37	24866.44
508.58	24788.61
508.78	24917.64
508.99	24925.83
509.19	24817.29
509.40	24891.01
509.60	24907.40
509.81	25331.33
510.01	24950.40
510.22	24956.55
510.42	25167.49
510.63	25015.94
510.83	25163.39
511.04	25534.07
511.24	25261.69
511.44	25134.72
511.65	25306.75
511.85	25394.81
512.06	25527.93
512.26	25570.94
512.47	25753.21
512.67	25736.82
512.88	25589.37
513.08	25437.82
513.29	25622.14
513.49	25611.90
513.69	25753.21
513.90	25718.39
514.10	25822.84
514.31	25771.64
514.51	25759.35
514.72	25595.51
514.92	25796.21
515.13	26062.45
515.33	26273.39
515.53	26218.10
515.74	26390.13
515.94	26334.83
516.15	26261.10
516.35	26218.10
516.56	26629.74
516.76	26123.89
516.96	26721.90
517.17	26529.39
517.37	26777.19
517.58	26775.14
517.78	26932.84
517.99	26793.58
518.19	26730.09
518.39	26871.40
518.60	26996.32
518.80	26934.88
519.01	27070.05
519.21	27154.02
519.41	27293.28
519.62	26809.96
519.82	27311.71
520.03	27397.73
520.23	27498.08
520.43	27113.06
520.64	27332.19
520.84	27827.80
521.05	27530.84
521.25	27934.29
521.45	27727.45
521.66	27831.90
521.86	27876.95
522.07	27960.92
522.27	27952.73
522.47	28104.28
522.68	28358.22
522.88	28444.24
523.08	28429.90
523.29	28464.72
523.49	28825.16
523.70	28659.27
523.90	28769.86
524.10	28925.51
524.31	29163.08
524.51	28866.12
524.71	29365.82
524.92	29122.12
525.12	29242.95
525.33	29337.15
525.53	29433.41
525.73	29668.92
525.94	29769.27
526.14	29728.31
526.34	29949.50
526.55	30055.99
526.75	29916.73
526.95	30160.44
527.16	30219.83
527.36	30109.24
527.56	30344.75
527.77	30291.51
527.97	30182.96
528.17	30694.96
528.38	30803.50
528.58	30740.01
528.78	30856.75
528.99	30658.09
529.19	31073.83
529.39	30922.28
529.60	31600.16
529.80	31006.25
530.00	31340.07
530.21	31622.69
530.41	31639.07
530.61	31454.75
530.82	31764.00
531.02	31456.80
531.22	32075.29
531.43	31856.15
531.63	32437.78
531.83	32495.12
532.04	32718.35
532.24	32085.53
532.44	32884.23
532.64	32609.81
532.85	32835.08
533.05	32998.92
533.25	32972.30
533.46	33228.29
533.66	33285.64
533.86	33095.18
534.07	33582.59
534.27	33461.76
534.47	33572.35
534.67	33752.57
534.88	33592.83
535.08	33973.75
535.28	34121.21
535.49	34297.33
535.69	34510.32
535.89	34436.59
536.09	34420.21
536.30	35032.55
536.50	34964.97
536.70	34762.22
536.91	34954.73
537.11	34741.74
537.31	35030.51
537.51	35274.21
537.72	35536.35
537.92	35358.18
538.12	35689.95
538.32	35579.36
538.53	35882.46
538.73	35544.55
538.93	35935.71
539.13	35958.24
539.34	35976.67
539.54	36201.94
539.74	36486.61
539.94	36062.68
540.15	35759.58
540.35	36548.05
540.55	36582.87
540.75	36599.25
540.96	36662.74
541.16	36826.57
541.36	36797.90
541.56	37049.80
541.77	37121.48
541.97	37047.75
542.17	37404.10
542.37	37350.85
542.58	37699.01
542.78	37694.91
542.98	37569.99
543.18	37578.18
543.38	38186.43
543.59	38167.99
543.79	37768.64
543.99	37842.37
544.19	37987.77
544.40	38069.69
544.60	38485.43
544.80	37959.10
545.00	38426.04
545.20	38811.06
545.41	38630.83
545.61	38413.75
545.81	38737.33
546.01	38956.46
546.21	38821.30
546.42	38561.20
546.62	38864.30
546.82	38847.92
547.02	39196.07
547.22	39062.96
547.43	38907.31
547.63	39624.10
547.83	39234.99
548.03	38901.17
548.23	39232.94
548.44	39658.91
548.64	39470.50
548.84	39665.06
549.04	39568.80
549.24	39941.53
549.45	39894.43
549.65	39755.17
549.85	39908.77
550.05	40027.55
550.25	39609.76
550.45	40207.77
550.66	40224.15
550.86	40007.07
551.06	40127.90
551.26	39982.49
551.46	40344.98
551.66	40213.91
551.87	40342.94
552.07	40617.36
552.27	40654.23
552.47	40582.55
552.67	40918.42
552.87	40754.58
553.07	40838.54
553.28	40564.12
553.48	40850.83
553.68	40713.62
553.88	40983.95
554.08	41254.28
554.28	41010.57
554.48	40844.69
554.69	41094.54
554.89	41194.89
555.09	41026.96
555.29	40627.60
555.49	41211.28
555.69	41000.33
555.89	41100.68
556.10	41493.89
556.30	41039.25
556.50	41489.80
556.70	41059.73
556.90	41295.24
557.10	41373.06
557.30	41313.67
557.50	41622.92
557.70	41500.04
557.91	41831.81
558.11	41753.99
558.31	41926.02
558.51	41962.88
558.71	41651.59
558.91	41786.75
559.11	41876.86
559.31	41715.08
559.51	41473.42
559.72	41385.35
559.92	41633.16
560.12	42005.89
560.32	41907.58
560.52	41809.28
560.72	41995.65
560.92	42198.40
561.12	42108.29
561.32	42235.26
561.52	41999.74
561.72	42317.18
561.93	41995.65
562.13	41745.80
562.33	41747.84
562.53	42433.91
562.73	42063.23
562.93	42110.33
563.13	42120.57
563.33	42390.91
563.53	42411.38
563.73	42229.12
563.93	42147.20
564.13	42712.44
564.33	42421.62
564.53	42464.63
564.74	42571.13
564.94	42270.08
565.14	42270.08
565.34	42220.92
565.54	42284.41
565.74	42640.76
565.94	42818.93
566.14	42423.67
566.34	42440.06
566.54	42913.14
566.74	42229.12
566.94	42892.66
567.14	42661.24
567.34	42417.53
567.54	42757.49
567.74	42839.41
567.94	42290.55
568.14	42786.16
568.34	42767.73
568.54	42700.15
568.74	43218.28
568.94	42595.70
569.14	43042.16
569.34	43056.50
569.54	42814.83
569.75	42329.47
569.95	42919.28
570.15	43046.26
570.35	43136.37
570.55	42909.04
570.75	43056.50
570.95	43130.22
571.15	43169.13
571.35	42902.90
571.55	42964.34
571.75	42823.03
571.95	43441.51
572.15	42941.81
572.35	43079.02
572.55	43384.17
572.75	43238.76
572.95	43220.33
573.15	43281.77
573.35	43226.48
573.55	43066.73
573.75	43111.79
573.95	43521.38
574.15	43560.30
574.35	42986.86
574.55	43414.89
574.75	43404.65
574.95	43144.56
575.15	43748.71
575.34	43586.92
575.54	43480.42
575.74	43668.84
575.94	43722.08
576.14	43527.53
576.34	43939.17
576.54	43865.44
576.74	43902.31
576.94	43685.22
577.14	43783.52
577.34	44096.86
577.54	43973.98
577.74	44047.71
577.94	43677.03
578.14	44008.80
578.34	44062.05
578.54	43466.09
578.74	44006.75
578.94	44170.59
579.14	44391.77
579.34	44221.79
579.54	44365.15
579.74	44430.68
579.94	44158.30
580.13	44553.56
580.33	44492.12
580.53	44559.70
580.73	44662.10
580.93	44152.16
581.13	44934.48
581.33	44633.43
581.53	45309.26
581.73	44856.66
581.93	44578.14
582.13	45073.74
582.33	44866.90
582.53	44918.10
582.73	45223.25
582.92	45100.37
583.12	45438.28
583.32	45428.04
583.52	45200.72
583.72	45563.21
583.92	44817.75
584.12	45155.66
584.32	45997.38
584.52	45432.14
584.72	45303.12
584.92	45761.86
585.11	46019.91
585.31	45364.56
585.51	45868.36
585.71	45464.91
585.91	45890.88
586.11	45849.92
586.31	45761.86
586.51	45888.84
586.71	45880.64
586.91	46064.96
587.10	46298.43
587.30	46148.93
587.50	46110.02
587.70	46327.10
587.90	46531.90
588.10	46284.09
588.30	46478.65
588.50	46556.47
588.69	46568.76
588.89	46572.86
589.09	46746.93
589.29	46722.36
589.49	47168.82
589.69	46609.72
589.89	46775.61
590.08	46527.80
590.28	46648.63
590.48	46515.51
590.68	46753.08
590.88	46765.37
591.08	46968.12
591.28	46572.86
591.47	47404.33
591.67	47166.77
591.87	47103.28
592.07	46986.55
592.27	47148.34
592.47	47084.85
592.67	47609.13
592.86	47310.13
593.06	47609.13
593.26	47861.03
593.46	47867.17
593.66	47977.76
593.86	47672.62
594.05	47549.74
594.25	47697.19
594.45	48190.75
594.65	47848.74
594.85	47318.32
595.05	48473.37
595.24	48045.35
595.44	47918.37
595.64	48266.53
595.84	48190.75
596.04	48405.79
596.23	48426.27
596.43	48897.30
596.63	48784.66
596.83	48688.41
597.03	48794.90
597.22	49077.52
597.42	48583.96
597.62	49042.71
597.82	48932.12
598.02	48846.10
598.21	49526.03
598.41	48844.05
598.61	49321.23
598.81	49046.80
599.01	49276.18
599.20	49691.91
599.40	49112.34
599.60	49274.13
599.80	49638.67
600.00	49575.18
600.19	49886.47
600.39	49700.11
600.59	49853.70
600.79	50093.32
600.98	49435.92
601.18	49804.55
601.38	49919.24
601.58	50257.15
601.78	50074.88
601.97	50193.67
602.17	50455.81
602.37	50849.02
602.57	50494.72
602.76	50922.74
602.96	50881.78
603.16	50988.28
603.36	50437.37
603.55	51229.94
603.75	51344.62
603.95	50953.46
604.15	51125.49
604.34	51309.81
604.54	51416.30
604.74	51139.83
604.94	51205.36
605.13	51660.01
605.33	51606.76
605.53	51483.89
605.73	51698.92
605.92	51674.35
606.12	52079.85
606.32	51639.53
606.52	51715.31
606.71	51942.63
606.91	52202.72
607.11	51979.49
607.30	52638.94
607.50	52165.86
607.70	52444.38
607.90	52360.42
608.09	52364.51
608.29	52358.37
608.49	52384.99
608.68	52557.02
608.88	52430.05
609.08	52583.65
609.28	52987.10
609.47	52483.30
609.67	53030.10
609.87	52968.66
610.06	53245.14
610.26	52905.18
610.46	53066.97
610.66	53028.05
610.85	53081.30
611.05	53103.83
611.25	53224.66
611.44	53224.66
611.64	53304.53
611.84	53079.25
612.03	53140.69
612.23	53589.20
612.43	53318.87
612.62	53392.59
612.82	53705.93
613.02	53695.69
613.21	53722.32
613.41	52985.05
613.61	53998.79
613.80	53478.61
614.00	53853.39
614.20	53728.46
614.39	53497.04
614.59	54154.44
614.79	53837.00
614.98	53834.95
615.18	53736.65
615.38	53777.61
615.57	53920.97
615.77	53986.50
615.97	53980.36
616.16	53728.46
616.36	53765.32
616.56	54191.30
616.75	53896.39
616.95	53998.79
617.15	53976.26
617.34	54158.53
617.54	54318.28
617.74	54631.61
617.93	54357.19
618.13	54170.82
618.32	54271.17
618.52	53998.79
618.72	54428.87
618.91	54363.33
619.11	53933.26
619.31	54381.76
619.50	54152.39
619.70	53511.38
619.90	54193.35
620.09	54410.43
620.29	54211.78
620.48	54484.16
620.68	54764.73
620.88	53716.17
621.07	54506.69
621.27	54596.80
621.46	54185.16
621.66	54740.16
621.86	54332.61
622.05	54140.10
622.25	54437.06
622.44	54314.18
622.64	54129.86
622.84	54588.61
623.03	54316.23
623.23	54103.24
623.42	54627.52
623.62	54494.40
623.82	54854.84
624.01	54107.33
624.21	54549.70
624.40	54541.50
624.60	54066.38
624.80	53941.45
624.99	54074.57
625.19	53691.60
625.38	54340.80
625.58	54650.05
625.77	54232.26
625.97	54453.44
626.17	53920.97
626.36	54543.55
626.56	54230.21
626.75	54068.42
626.95	54713.53
627.14	54609.09
627.34	54590.66
627.54	54334.66
627.73	54248.64
627.93	54121.67
628.12	54154.44
628.32	54500.54
628.51	54408.39
628.71	54168.77
628.90	54273.22
629.10	54248.64
629.30	54166.73
629.49	54557.89
629.69	54219.97
629.88	54187.21
630.08	54658.24
630.27	54611.13
630.47	54525.12
630.66	54303.94
630.86	54594.75
631.05	53947.59
631.25	54705.34
631.44	54686.91
631.64	54197.44
631.84	54097.09
632.03	54768.83
632.23	54293.70
632.42	54817.98
632.62	54236.36
632.81	54197.44
633.01	54432.96
633.20	54627.52
633.40	54912.19
633.59	54133.96
633.79	53871.82
633.98	54426.82
634.18	54527.17
634.37	54303.94
634.57	54385.86
634.76	54664.38
634.96	54707.39
635.15	54383.81
635.35	54514.88
635.54	54572.22
635.74	54529.22
635.93	54428.87
636.13	54731.96
636.32	54869.18
636.52	54301.89
636.71	54394.05
636.91	54797.50
637.10	54531.26
637.30	54582.46
637.49	54275.27
637.69	54568.13
637.88	55035.06
638.08	54084.81
638.27	54588.61
638.46	54334.66
638.66	54164.68
638.85	53828.81
639.05	54465.73
639.24	54533.31
639.44	54236.36
639.63	55028.92
639.83	54707.39
640.02	54258.88
640.22	54588.61
640.41	54426.82
640.61	54271.17
640.80	54559.94
640.99	54693.05
641.19	54539.46
641.38	54150.34
641.58	54150.34
641.77	54312.13
641.97	54136.01
642.16	54396.10
642.36	54086.85
642.55	54478.02
642.74	53972.17
642.94	55063.74
643.13	54426.82
643.33	55063.74
643.52	54627.52
643.72	54332.61
643.91	54275.27
644.10	55133.37
644.30	54598.85
644.49	54285.51
644.69	54402.24
644.88	54756.54
645.08	54361.28
645.27	54346.95
645.46	54363.33
645.66	54486.21
645.85	54031.56
646.05	54285.51
646.24	54189.25
646.43	54144.20
646.63	55088.31
646.82	54600.89
647.02	54383.81
647.21	54244.55
647.40	54424.77
647.60	54615.23
647.79	54527.17
647.99	54711.49
648.18	54244.55
648.37	54891.71
648.57	54543.55
648.76	54381.76
648.96	53984.46
649.15	54260.93
649.34	54293.70
649.54	54787.26
649.73	54494.40
649.92	54254.79
650.12	54504.64
650.31	54641.85
650.51	54371.52
650.70	54533.31
650.89	54303.94
651.09	55030.97
651.28	54430.91
651.47	54404.29
651.67	54437.06
651.86	54838.46
652.06	54187.21
652.25	54334.66
652.44	54232.26
652.64	54185.16
652.83	54701.25
653.02	54060.23
653.22	54019.27
653.41	54506.69
653.60	54121.67
653.80	54316.23
653.99	54297.80
654.18	53888.20
654.38	54154.44
654.57	53914.83
654.76	54330.56
654.96	53945.54
655.15	54072.52
655.34	54097.09
655.54	53998.79
655.73	54310.08
655.92	54344.90
656.12	54043.85
656.31	54281.41
656.50	54289.60
656.70	54293.70
656.89	53972.17
657.08	54320.32
657.28	53914.83
657.47	54054.09
657.66	54133.96
657.86	53703.88
658.05	54396.10
658.24	54551.74
658.43	53677.26
658.63	53992.65
658.82	54541.50
659.01	54039.75
659.21	54531.26
659.40	54242.50
659.59	53982.41
659.79	54498.50
659.98	54125.77
660.17	54142.15
660.36	54025.42
660.56	54326.47
660.75	54310.08
660.94	54068.42
661.14	53773.52
661.33	54025.42
661.52	54158.53
661.71	54086.85
661.91	53837.00
662.10	54140.10
662.29	54140.10
662.49	53894.35
662.68	54252.74
662.87	54019.27
663.06	54129.86
663.26	53918.92
663.45	54367.43
663.64	54107.33
663.83	54555.84
664.03	54375.62
664.22	54033.61
664.41	53701.84
664.60	53814.47
664.80	54047.94
664.99	53804.24
665.18	53712.08
665.37	54291.65
665.57	54090.95
665.76	53912.78
665.95	54039.75
666.14	54068.42
666.34	53789.90
666.53	53699.79
666.72	53773.52
666.91	53718.22
667.11	53515.47
667.30	54238.40
667.49	53556.43
667.68	53531.86
667.87	53746.89
668.07	53990.60
668.26	54047.94
668.45	54117.57
668.64	53515.47
668.84	54660.29
669.03	54260.93
669.22	53867.72
669.41	53380.31
669.60	53779.66
669.80	53746.89
669.99	54105.29
670.18	53916.87
670.37	53681.36
670.57	53961.93
670.76	53845.19
670.95	53988.55
671.14	54025.42
671.33	53984.46
671.53	54424.77
671.72	53462.22
671.91	54029.51
672.10	53654.73
672.29	53789.90
672.48	53591.25
672.68	54379.71
672.87	53681.36
673.06	53816.52
673.25	53859.53
673.44	53572.81
673.64	53535.95
673.83	53611.73
674.02	53886.15
674.21	53470.42
674.40	53941.45
674.59	53759.18
674.79	53456.08
674.98	53652.69
675.17	53632.21
675.36	53290.19
675.55	53716.17
675.74	53337.30
675.94	53429.46
676.13	53906.63
676.32	53664.97
676.51	53822.67
676.70	53613.77
676.89	53249.24
677.08	53781.71
677.28	53615.82
677.47	54162.63
677.66	53605.58
677.85	53990.60
678.04	53746.89
678.23	54025.42
678.42	54279.36
678.62	53386.45
678.81	53998.79
679.00	53998.79
679.19	54449.35
679.38	53376.21
679.57	54150.34
679.76	53515.47
679.96	53630.16
680.15	53683.40
680.34	53378.26
680.53	53525.71
680.72	53824.71
680.91	53585.10
681.10	53566.67
681.29	53458.13
681.48	53609.68
681.68	53558.48
681.87	53466.32
682.06	53392.59
682.25	53028.05
682.44	53267.67
682.63	53667.02
682.82	52915.42
683.01	53462.22
683.20	52974.81
683.39	53425.36
683.59	53150.93
683.78	53269.72
683.97	53376.21
684.16	53081.30
684.35	52935.90
684.54	53445.84
684.73	53109.97
684.92	53236.95
685.11	53398.74
685.30	53077.21
685.49	53707.98
685.69	53001.43
685.88	53632.21
686.07	53490.90
686.26	53388.50
686.45	53376.21
686.64	53429.46
686.83	53449.94
687.02	53306.58
687.21	53372.11
687.40	53511.38
687.59	53474.51
687.78	53310.67
687.97	53558.48
688.16	53171.41
688.35	52868.31
688.54	52821.21
688.74	53712.08
688.93	53222.61
689.12	53347.54
689.31	53126.36
689.50	53355.73
689.69	52913.37
689.88	52997.34
690.07	52929.75
690.26	53230.80
690.45	53249.24
690.64	53507.28
690.83	53144.79
691.02	52864.22
691.21	53277.91
691.40	53087.45
691.59	53118.17
691.78	53120.21
691.97	53101.78
692.16	53451.98
692.35	53474.51
692.54	53664.97
692.73	53200.08
692.92	52956.38
693.11	53048.53
693.30	53099.73
693.49	53236.95
693.68	53023.96
693.87	53175.51
694.06	53224.66
694.25	53036.25
694.44	52626.65
694.63	53073.11
694.82	53171.41
695.01	53052.63
695.20	53062.87
695.39	53062.87
695.58	53050.58
695.77	52831.45
695.96	52927.70
696.15	53040.34
696.34	52692.19
696.53	53042.39
696.72	53198.04
696.91	52915.42
697.10	53015.77
697.29	52839.64
697.48	52976.86
697.67	52757.72
697.86	52620.51
698.05	52384.99
698.24	52913.37
698.43	52458.72
698.62	52837.59
698.81	52511.97
699.00	53150.93
699.19	52622.56
699.38	52718.81
699.57	52788.44
699.76	53503.18
699.95	52737.24
700.14	52679.90
700.32	52954.33
700.51	52454.62
700.70	53566.67
700.89	53155.03
701.08	53003.48
701.27	52974.81
701.46	53224.66
701.65	52368.61
701.84	52733.15
702.03	52745.44
702.22	52337.89
702.41	52559.07
702.60	52939.99
702.79	52886.74
702.98	52462.82
703.17	52460.77
703.35	52485.34
703.54	52546.78
703.73	52839.64
703.92	52673.76
704.11	52466.91
704.30	52376.80
704.49	52307.17
704.68	52675.80
704.87	52493.54
705.06	52475.10
705.25	52434.14
705.43	52034.79
705.62	52434.14
705.81	52104.42
706.00	52315.36
706.19	52315.36
706.38	52428.00
706.57	52237.54
706.76	52147.43
706.95	52399.33
707.14	52045.03
707.32	52071.65
707.51	52069.61
707.70	52337.89
707.89	52204.77
708.08	51885.29
708.27	52217.06
708.46	52366.56
708.65	52339.94
708.84	52047.08
709.02	52507.87
709.21	52042.98
709.40	52325.60
709.59	52339.94
709.78	51813.61
709.97	51860.71
710.16	51819.75
710.34	52143.33
710.53	51817.71
710.72	51954.92
710.91	51696.88
711.10	52114.66
711.29	52057.32
711.48	51952.87
711.66	51909.86
711.85	51868.90
712.04	51965.16
712.23	51922.15
712.42	51645.68
712.61	51469.55
712.80	51647.72
712.98	52190.44
713.17	51729.64
713.36	51377.39
713.55	51635.44
713.74	51606.76
713.93	51934.44
714.11	51543.28
714.30	51592.43
714.49	51553.52
714.68	51852.52
714.87	51674.35
715.06	51827.95
715.24	51289.33
715.43	51361.01
715.62	51178.74
715.81	51172.60
716.00	51696.88
716.18	50517.25
716.37	50947.32
716.56	51184.88
716.75	51440.88
716.94	51252.47
717.12	51064.05
717.31	51268.85
717.50	50601.21
717.69	50963.70
717.88	51008.76
718.06	51459.31
718.25	51084.53
718.44	50836.73
718.63	51158.26
718.82	50558.20
719.00	51109.11
719.19	50746.62
719.38	50681.08
719.57	50504.96
719.76	49906.95
719.94	50128.13
720.13	50464.00
720.32	50167.04
720.51	50281.73
720.69	50523.39
720.88	50246.91
721.07	50246.91
721.26	49593.61
721.44	49870.09
721.63	50185.47
721.82	49915.14
722.01	50152.71
722.20	50214.15
722.38	49937.67
722.57	49429.77
722.76	49384.72
722.95	49534.22
723.13	49532.17
723.32	49370.38
723.51	49358.09
723.70	49149.20
723.88	49585.42
724.07	48913.69
724.26	49399.05
724.44	48790.81
724.63	49390.86
724.82	49136.91
725.01	49052.95
725.19	49032.47
725.38	49198.35
725.57	48815.38
725.76	49257.74
725.94	48600.35
726.13	49114.39
726.32	49212.69
726.51	48473.37
726.69	49118.48
726.88	48989.46
727.07	48551.20
727.25	48602.39
727.44	48657.69
727.63	48909.59
727.82	48450.84
728.00	48815.38
728.19	48530.72
728.38	48688.41
728.56	48522.52
728.75	48610.59
728.94	48727.32
729.12	48649.50
729.31	48352.54
729.50	48241.95
729.69	48676.12
729.87	48463.13
730.06	48596.25
730.25	48334.11
730.43	48743.70
730.62	48553.24
730.81	48811.29
730.99	48624.92
731.18	48456.99
731.37	48596.25
731.55	48282.91
731.74	48710.94
731.93	48440.60
732.11	48669.98
732.30	49167.63
732.49	48071.97
732.67	48094.50
732.86	48235.81
733.05	48573.72
733.23	48700.70
733.42	48487.71
733.61	48244.00
733.79	47805.73
733.98	48727.32
734.17	48074.02
734.35	48362.78
734.54	48434.46
734.73	48057.63
734.91	48176.42
735.10	47813.93
735.29	48964.88
735.47	47684.90
735.66	47854.89
735.84	47625.51
736.03	47856.93
736.22	48596.25
736.40	47830.31
736.59	48143.65
736.78	48112.93
736.96	47799.59
737.15	47684.90
737.33	47940.90
737.52	47359.28
737.71	47695.14
737.89	47340.85
738.08	47277.36
738.27	47316.27
738.45	48260.38
738.64	47541.55
738.82	47473.96
739.01	47260.97
739.20	47699.24
739.38	47502.64
739.57	47832.36
739.75	47629.61
739.94	47559.98
740.13	47576.36
740.31	47349.04
740.50	47226.16
740.68	47164.72
740.87	47334.70
741.06	47375.66
741.24	47158.58
741.43	46722.36
741.61	47088.95
741.80	46677.30
741.99	46794.04
742.17	46890.29
742.36	46927.16
742.54	47045.94
742.73	46779.70
742.91	46691.64
743.10	46789.94
743.29	47162.67
743.47	46816.57
743.66	46556.47
743.84	47002.93
744.03	46527.80
744.21	46374.20
744.40	46724.41
744.59	46511.42
744.77	46273.85
744.96	46904.63
745.14	46499.13
745.33	46683.45
745.51	46574.91
745.70	46492.99
745.88	46249.28
746.07	46114.11
746.26	46034.24
746.44	46101.82
746.63	45833.54
746.81	45993.28
747.00	46003.52
747.18	46196.03
747.37	45913.41
747.55	45798.73
747.74	46488.89
747.92	45616.46
748.11	45872.45
748.29	45892.93
748.48	45636.94
748.66	45536.59
748.85	45598.02
749.03	45765.96
749.22	45403.47
749.41	45327.69
749.59	45370.70
749.78	45100.37
749.96	45118.80
750.15	45307.21
750.33	45315.40
750.52	45190.48
750.70	45237.58
750.89	44911.95
751.07	44776.79
751.26	45069.65
751.44	45053.26
751.63	44754.26
751.81	44481.88
752.00	44770.64
752.18	45387.08
752.37	45137.23
752.55	44481.88
752.74	44238.17
752.92	44885.33
753.10	44569.94
753.29	44377.43
753.47	43967.84
753.66	44072.29
753.84	44608.86
754.03	44066.14
754.21	44160.35
754.40	44162.40
754.58	44238.17
754.77	44127.58
754.95	44373.34
755.14	43930.98
755.32	43601.25
755.51	43586.92
755.69	43627.88
755.88	43488.62
756.06	43662.69
756.24	43722.08
756.43	43908.45
756.61	43666.79
756.80	43722.08
756.98	43361.64
757.17	43351.40
757.35	43500.90
757.54	42935.66
757.72	43502.95
757.90	43115.89
758.09	43074.93
758.27	43464.04
758.46	43023.73
758.64	42825.07
758.83	43414.89
759.01	43117.93
759.19	43044.21
759.38	43416.94
759.56	42964.34
759.75	43380.07
759.93	43251.05
760.12	42595.70
760.30	42882.42
760.48	42567.03
760.67	42722.68
760.85	42913.14
761.04	42540.41
761.22	42784.12
761.40	42593.65
761.59	42302.84
761.77	42272.12
761.96	42648.95
762.14	42362.23
762.32	42171.77
762.51	42155.39
762.69	42296.70
762.88	41944.45
763.06	42104.19
763.24	41825.67
763.43	42417.53
763.61	42143.10
763.80	42169.72
763.98	41829.76
764.16	42020.22
764.35	41602.44
764.53	41100.68
764.72	41670.02
764.90	41850.24
765.08	41856.39
765.27	41571.72
765.45	40914.32
765.63	40838.54
765.82	41354.63
766.00	40979.85
766.18	41145.74
766.37	41285.00
766.55	40977.81
766.74	41215.37
766.92	40748.43
767.10	40942.99
767.29	41182.60
767.47	40822.16
767.65	41289.10
767.84	40197.53
768.02	40621.46
768.20	40709.52
768.39	40459.67
768.57	40521.11
768.75	40379.80
768.94	40582.55
769.12	40818.07
769.30	40125.85
769.49	40342.94
769.67	40037.79
769.85	39921.05
770.04	39697.83
770.22	39892.38
770.40	39544.23
770.59	39851.42
770.77	40068.51
770.95	40068.51
771.14	39706.02
771.32	39222.70
771.50	39181.74
771.69	39726.50
771.87	39880.10
772.05	39310.76
772.24	39038.38
772.42	39361.96
772.60	39103.92
772.78	39056.81
772.97	38827.44
773.15	39470.50
773.33	39142.83
773.52	38882.73
773.70	38925.74
773.88	39128.49
774.07	38905.26
774.25	38743.47
774.43	39144.87
774.61	39013.80
774.80	38915.50
774.98	39071.15
775.16	39179.69
775.34	39298.47
775.53	38839.73
775.71	39253.42
775.89	39040.43
776.08	39153.07
776.26	39417.25
776.44	39374.25
776.62	38897.07
776.81	39003.56
776.99	38991.28
777.17	38958.51
777.35	39267.75
777.54	39581.09
777.72	39122.35
777.90	39376.30
778.08	39382.44
778.27	39097.77
778.45	39171.50
778.63	39443.88
778.81	39103.92
779.00	39783.84
779.18	39484.84
779.36	39914.91
779.54	39173.55
779.73	39189.93
779.91	39257.51
780.09	39503.27
780.27	39863.71
780.46	39513.51
780.64	39540.13
780.82	39308.71
781.00	39366.06
781.19	39978.40
781.37	39384.49
781.55	39429.54
781.73	40039.84
781.91	39581.09
782.10	39433.64
782.28	39517.60
782.46	39529.89
782.64	39611.81
782.82	39517.60
783.01	39984.54
783.19	39687.59
783.37	39947.68
783.55	39943.58
783.74	39951.77
783.92	39499.17
784.10	40158.62
784.28	39687.59
784.46	39390.63
784.64	39648.68
784.83	39525.80
785.01	39746.98
785.19	39499.17
785.37	39890.34
785.55	39374.25
785.74	39501.22
785.92	39351.72
786.10	39374.25
786.28	39617.96
786.46	39366.06
786.64	39415.21
786.83	39204.27
787.01	39200.17
787.19	39183.79
787.37	39251.37
787.55	38974.89
787.74	38966.70
787.92	39341.48
788.10	39241.13
788.28	39032.24
788.46	39239.08
788.64	38753.71
788.82	39220.65
789.01	39269.80
789.19	38964.65
789.37	39146.92
789.55	38839.73
789.73	38729.14
789.91	38485.43
790.09	38938.03
790.28	38725.04
790.46	38450.61
790.64	38673.84
790.82	38460.85
791.00	38266.30
791.18	38092.22
791.36	38104.51
791.55	38311.35
791.73	38178.23
791.91	37684.67
792.09	38147.51
792.27	37793.22
792.45	38139.32
792.63	38221.24
792.81	37754.30
793.00	37805.50
793.18	37336.52
793.36	37629.38
793.54	37594.56
793.72	37195.21
793.90	37533.12
794.08	37213.64
794.26	37295.56
794.44	36806.09
794.62	36920.78
794.81	37035.47
794.99	36943.31
795.17	36832.72
795.35	36652.50
795.53	37172.68
795.71	36998.60
795.89	36203.99
796.07	36382.16
796.25	36101.59
796.43	36283.86
796.61	35827.17
796.80	36259.29
796.98	36627.92
797.16	35921.37
797.34	36095.45
797.52	35438.05
797.70	35960.28
797.88	35706.34
798.06	35612.13
798.24	35374.56
798.42	35663.33
798.60	35585.50
798.78	35087.85
798.96	35200.49
799.14	35018.22
799.32	35075.56
799.51	35276.26
799.69	35040.75
799.87	34860.52
800.05	34590.19
800.23	34674.16
800.41	34661.87
800.59	34696.69
800.77	34323.96
800.95	34215.41
801.13	34438.64
801.31	34625.01
801.49	34371.06
801.67	34098.68
801.85	34418.16
802.03	34074.10
802.21	33826.30
802.39	33558.02
802.57	33684.99
802.75	33543.68
802.93	33715.71
803.11	33537.54
803.29	33857.02
803.47	33451.52
803.65	33478.15
803.83	33807.87
804.01	33351.17
804.19	33099.27
804.37	32773.64
804.55	33013.26
804.73	33150.47
804.91	33136.13
805.09	32902.67
805.27	32595.47
805.45	33164.81
805.63	33043.98
805.81	32757.26
805.99	32816.65
806.17	32777.74
806.35	32732.68
806.53	32618.00
806.71	32491.02
806.89	32265.75
807.07	32544.27
807.25	32605.71
807.43	31835.67
807.61	32640.53
807.79	32380.43
807.97	32046.62
808.15	31850.01
808.33	32017.94
808.51	31600.16
808.69	31573.53
808.87	31675.93
809.05	31270.43
809.23	31383.07
809.41	31108.65
809.59	31430.18
809.77	31464.99
809.95	30963.24
810.13	31399.46
810.31	31008.29
810.49	31413.79
810.67	31014.44
810.84	31327.78
811.02	30869.03
811.20	30856.75
811.38	30895.66
811.56	30651.95
811.74	30672.43
811.92	30647.85
812.10	30866.98
812.28	31004.20
812.46	30604.84
812.64	30723.63
812.82	30608.94
813.00	30610.99
813.18	30574.13
813.36	30262.83
813.53	30377.52
813.71	30348.85
813.89	30215.73
814.07	30473.78
814.25	29990.45
814.43	30023.22
814.61	30064.18
814.79	30117.43
814.97	30168.63
815.15	30248.50
815.33	29642.30
815.50	29326.91
815.68	29734.46
815.86	29744.70
816.04	29773.37
816.22	29701.69
816.40	29349.44
816.58	29345.34
816.76	29251.14
816.94	29337.15
817.11	29451.84
817.29	29378.11
817.47	29060.68
817.65	29193.79
817.83	29275.71
818.01	29365.82
818.19	29032.00
818.37	29138.50
818.54	28849.74
818.72	28919.37
818.90	28954.18
819.08	28700.23
819.26	28675.66
819.44	28814.92
819.62	28626.51
819.80	28862.02
819.97	28782.15
820.15	28563.02
820.33	28296.78
820.51	28591.69
820.69	28163.67
820.87	28425.81
821.05	28677.71
821.22	28540.49
821.40	28300.88
821.58	27999.83
821.76	28126.80
821.94	28358.22
822.12	28089.94
822.29	28485.20
822.47	28397.13
822.65	28319.31
822.83	28163.67
823.01	28053.08
823.19	28139.09
823.36	27977.30
823.54	27766.36
823.72	27745.88
823.90	27694.68
824.08	27643.48
824.25	27917.91
824.43	27739.74
824.61	27629.15
824.79	27715.16
824.97	27401.82
825.15	27553.37
825.32	27489.88
825.50	27313.76
825.68	27194.98
825.86	27606.62
826.04	27450.97
826.21	27586.14
826.39	27385.44
826.57	27383.39
826.75	27280.99
826.93	27231.84
827.10	27057.76
827.28	27383.39
827.46	27278.94
827.64	27100.77
827.81	26965.60
827.99	26928.74
828.17	27145.83
828.35	27070.05
828.53	27151.97
828.70	26832.49
828.88	26824.29
829.06	26697.32
829.24	26832.49
829.41	26654.31
829.59	26902.12
829.77	26828.39
829.95	26594.92
830.12	26537.58
830.30	26447.47
830.48	26912.36
830.66	26754.66
830.84	26830.44
831.01	26426.99
831.19	26621.55
831.37	26513.00
831.55	26424.94
831.72	26355.31
831.90	26349.17
832.08	26435.18
832.25	26343.02
832.43	26134.13
832.61	26119.79
832.79	26103.41
832.96	26078.83
833.14	25941.62
833.32	26076.79
833.50	26451.56
833.67	26132.08
833.85	26029.68
834.03	25753.21
834.20	25935.48
834.38	26111.60
834.56	26084.98
834.74	25525.88
834.91	25853.56
835.09	25634.42
835.27	25597.56
835.44	25712.25
835.62	25441.92
835.80	25323.13
835.98	25691.77
836.15	25607.80
836.33	25659.00
836.51	25691.77
836.68	25599.61
836.86	25767.54
837.04	25280.13
837.21	25564.79
837.39	25493.12
837.57	25740.92
837.75	25482.88
837.92	25132.67
838.10	25251.45
838.28	25077.38
838.45	25108.10
838.63	24964.74
838.81	25609.85
838.98	25073.28
839.16	24993.41
839.34	24831.62
839.51	24977.03
839.69	24768.13
839.87	24714.89
840.04	25054.85
840.22	24895.11
840.40	24956.55
840.57	24432.27
840.75	24944.26
840.93	24389.26
841.10	24977.03
841.28	24907.40
841.46	24874.63
841.63	25020.03
841.81	24835.72
841.98	24614.54
842.16	24731.27
842.34	24741.51
842.51	24282.77
842.69	24882.82
842.87	24561.29
843.04	24700.55
843.22	24561.29
843.40	24432.27
843.57	24239.76
843.75	24432.27
843.92	24473.23
844.10	24295.05
844.28	24206.99
844.45	24401.55
844.63	24526.47
844.81	24129.17
844.98	24192.65
845.16	24112.78
845.33	24444.56
845.51	24342.16
845.69	24252.05
845.86	23852.69
846.04	23789.20
846.21	24032.91
846.39	23848.60
846.57	23832.21
846.74	24018.58
846.92	23758.49
847.09	23832.21
847.27	23670.42
847.45	23891.60
847.62	23932.56
847.80	23936.66
847.97	23709.33
848.15	23602.84
848.32	23690.90
848.50	23664.28
848.68	23377.56
848.85	23746.20
849.03	23170.72
849.20	23600.79
849.38	23701.14
849.56	23453.34
849.73	23283.36
849.91	23453.34
850.08	23373.47
850.26	23158.43
850.43	23187.10
850.61	23424.67
850.78	22916.77
850.96	23183.01
851.14	22924.96
851.31	23172.77
851.49	23240.35
851.66	23010.98
851.84	23023.26
852.01	23398.04
852.19	23207.58
852.36	23121.57
852.54	23037.60
852.71	22849.19
852.89	22927.01
853.07	23039.65
853.24	22804.13
853.42	22851.24
853.59	23043.74
853.77	23180.96
853.94	22869.67
854.12	23066.27
854.29	22628.01
854.47	22746.79
854.64	22537.90
854.82	22730.41
854.99	22711.97
855.17	22912.67
855.34	22589.10
855.52	22740.64
855.69	22679.21
855.87	22800.04
856.04	22271.66
856.22	22484.65
856.39	22040.24
856.57	22464.17
856.74	22208.17
856.92	22423.21
857.09	22302.38
857.27	22382.25
857.44	22402.73
857.62	22488.74
857.79	22060.72
857.97	22226.60
858.14	22245.04
858.32	22189.74
858.49	22144.69
858.67	22058.67
858.84	22204.08
859.02	22113.97
859.19	22027.95
859.37	21923.51
859.54	21673.65
859.72	21851.83
859.89	21839.54
860.06	22099.63
860.24	21964.46
860.41	21817.01
860.59	21659.32
860.76	21978.80
860.94	21575.35
861.11	21923.51
861.29	21722.80
861.46	21677.75
861.64	21509.82
861.81	21565.11
861.98	21624.50
862.16	21333.69
862.33	21440.18
862.51	21245.63
862.68	21579.45
862.86	21468.86
863.03	21343.93
863.21	21161.66
863.38	21294.78
863.55	21182.14
863.73	21188.28
863.90	21368.51
864.08	21145.28
864.25	21204.67
864.43	21188.28
864.60	21208.76
864.77	21057.21
864.95	21124.80
865.12	21024.45
865.30	20885.19
865.47	20905.66
865.64	20700.87
865.82	20702.92
865.99	21122.75
866.17	20954.82
866.34	21071.55
866.51	20424.39
866.69	20788.93
866.86	20780.74
867.04	20651.72
867.21	20469.45
867.38	20537.03
867.56	20793.03
867.73	20496.07
867.91	20313.80
868.08	20305.61
868.25	20416.20
868.43	20190.92
868.60	19988.18
868.78	20197.07
868.95	20479.69
869.12	20170.44
869.30	20014.80
869.47	20270.79
869.64	19967.70
869.82	20098.77
869.99	20137.68
870.16	20260.55
870.34	20215.50
870.51	20016.85
870.69	19840.72
870.86	20045.52
871.03	19908.30
871.21	19824.34
871.38	19998.41
871.55	19879.63
871.73	19599.06
871.90	19611.35
872.07	19558.10
872.25	19594.96
872.42	19779.28
872.59	19640.02
872.77	19674.84
872.94	19347.16
873.11	19449.56
873.29	19597.01
873.46	19736.27
873.63	19304.15
873.81	19328.73
873.98	18962.14
874.15	19123.93
874.33	18986.72
874.50	18976.48
874.67	18968.29
874.85	18585.32
875.02	19066.59
875.19	18865.89
875.37	18880.22
875.54	18853.60
875.71	18966.24
875.88	18953.95
876.06	18945.76
876.23	18693.86
876.40	18478.82
876.58	18816.74
876.75	18433.77
876.92	18431.72
877.10	18636.52
877.27	18632.42
877.44	18478.82
877.61	18601.70
877.79	18476.77
877.96	18405.10
878.13	18370.28
878.31	18274.03
878.48	18032.36
878.65	18257.64
878.82	18085.61
879.00	18140.91
879.17	18067.18
879.34	18243.31
879.51	17766.13
879.69	17950.45
879.86	17827.57
880.03	17821.42
880.21	17866.48
880.38	18099.95
880.55	17987.31
880.72	17768.18
880.90	17710.83
881.07	17743.60
881.24	17678.07
881.41	17794.80
881.59	17635.06
881.76	17487.61
881.93	17358.58
882.10	17280.76
882.28	17137.40
882.45	17739.51
882.62	17499.89
882.79	17475.32
882.96	16996.09
883.14	17260.28
883.31	17532.66
883.48	17473.27
883.65	17254.14
883.83	17280.76
884.00	17073.92
884.17	17383.16
884.34	17538.80
884.51	16871.17
884.69	17291.00
884.86	17247.99
885.03	17043.20
885.20	17037.05
885.38	17237.75
885.55	16973.56
885.72	17047.29
885.89	17059.58
886.06	16905.98
886.24	16940.80
886.41	16998.14
886.58	17184.51
886.75	16944.89
886.92	16811.78
887.10	16830.21
887.27	16783.10
887.44	16805.63
887.61	16817.92
887.78	16946.94
887.95	16928.51
888.13	16639.75
888.30	16678.66
888.47	16570.12
888.64	16473.86
888.81	16631.55
888.99	16213.77
889.16	16183.05
889.33	16277.26
889.50	16236.30
889.67	16348.93
889.84	16281.35
890.01	16183.05
890.19	16271.11
890.36	16262.92
890.53	16391.94
890.70	16002.83
890.87	16369.41
891.04	16045.84
891.22	16074.51
891.39	16004.88
891.56	15910.67
891.73	16133.90
891.90	15884.05
892.07	15777.55
892.24	15798.03
892.42	15908.62
892.59	15724.30
892.76	15763.22
892.93	15638.29
893.10	16101.13
893.27	15748.88
893.44	15501.08
893.61	15693.58
893.79	15843.09
893.96	15597.33
894.13	15699.73
894.30	15804.17
894.47	15810.32
894.64	15947.53
894.81	15570.71
894.98	15746.83
895.15	15795.98
895.33	15564.56
895.50	15415.06
895.67	15601.43
895.84	15576.85
896.01	15525.65
896.18	15527.70
896.35	15562.51
896.52	15451.92
896.69	15478.55
896.86	15361.81
897.04	15548.18
897.21	15408.92
897.38	15382.29
897.55	15503.12
897.72	15474.45
897.89	15449.88
898.06	15388.44
898.23	15443.73
898.40	15271.70
898.57	15365.91
898.74	15314.71
898.91	15146.78
899.08	15269.66
899.26	15396.63
899.43	15308.57
899.60	14972.70
899.77	15349.53
899.94	15208.22
900.11	15318.81
900.28	15322.90
900.45	15322.90
900.62	15058.71
900.79	15492.88
900.96	15353.62
901.13	15163.16
901.30	15066.91
901.47	15218.46
901.64	15116.06
901.81	15310.61
901.98	15071.00
902.15	15413.01
902.32	15120.15
902.49	15245.08
902.66	15290.13
902.83	15189.78
903.01	15281.94
903.18	15218.46
903.35	15019.80
903.52	15249.18
903.69	15283.99
903.86	15314.71
904.03	15367.96
904.20	15085.34
904.37	15058.71
904.54	15421.20
904.71	15048.47
904.88	15177.50
905.05	15064.86
905.22	15281.94
905.39	14872.35
905.56	15042.33
905.73	15030.04
905.90	15040.28
906.07	15216.41
906.24	15083.29
906.41	15073.05
906.58	15013.66
906.75	15101.72
906.92	14995.23
907.09	14944.03
907.26	15011.61
907.43	14620.45
907.60	15200.02
907.77	14905.12
907.93	14929.69
908.10	14999.32
908.27	15062.81
908.44	14667.55
908.61	14753.57
908.78	14872.35
908.95	15083.29
909.12	14839.58
909.29	14819.10
909.46	14974.75
909.63	15042.33
909.80	14683.94
909.97	14761.76
910.14	15003.42
910.31	14772.00
910.48	14673.70
910.65	15001.37
910.82	14700.32
910.99	14630.69
911.16	14954.27
911.33	14761.76
911.50	14509.86
911.66	14642.98
911.83	14763.81
912.00	14491.43
912.17	14423.84
912.34	14710.56
912.51	14503.71
912.68	14403.36
912.85	14286.63
913.02	14491.43
913.19	14454.56
913.36	14429.99
913.53	14411.56
913.70	14417.70
913.86	14372.64
914.03	14296.87
914.20	14270.25
914.37	14483.24
914.54	13973.29
914.71	14266.15
914.88	14081.83
915.05	14032.68
915.22	14069.55
915.39	14282.53
915.55	14264.10
915.72	13756.21
915.89	14073.64
916.06	13756.21
916.23	13938.48
916.40	13930.28
916.57	13655.86
916.74	13717.29
916.91	13842.22
917.07	13479.73
917.24	13618.99
917.41	13504.31
917.58	13750.06
917.75	13479.73
917.92	13569.84
918.09	13485.87
918.26	13481.78
918.42	13379.38
918.59	13350.71
918.76	13526.83
918.93	13160.25
919.10	13188.92
919.27	13031.23
919.44	13348.66
919.60	13166.39
919.77	13100.86
919.94	12957.50
920.11	12836.67
920.28	12881.72
920.45	12894.01
920.61	12662.59
920.78	13057.85
920.95	12674.88
921.12	12805.95
921.29	12484.42
921.46	12359.49
921.62	12371.78
921.79	12728.13
921.96	12291.91
922.13	12535.62
922.30	12326.72
922.47	12455.75
922.63	11990.86
922.80	12357.44
922.97	12404.55
923.14	12183.37
923.31	12230.47
923.47	11816.78
923.64	12279.62
923.81	11794.25
923.98	12056.39
924.15	11714.38
924.32	11994.95
924.48	11747.15
924.65	11806.54
924.82	11798.35
924.99	11767.63
925.15	11489.10
925.32	11714.38
925.49	11609.93
925.66	11554.64
925.83	11331.41
925.99	11378.51
926.16	11421.52
926.33	11312.98
926.50	11095.89
926.67	11380.56
926.83	11253.59
927.00	11124.57
927.17	11208.53
927.34	11016.02
927.50	11067.22
927.67	11181.91
927.84	10899.29
928.01	10960.73
928.17	10915.67
928.34	10827.61
928.51	10876.76
928.68	10614.62
928.84	10520.42
929.01	10583.90
929.18	10534.75
929.35	10628.96
929.51	10569.57
929.68	10387.30
929.85	10198.88
930.02	10493.79
930.18	10332.00
930.35	10282.85
930.52	10260.32
930.69	10186.60
930.85	10080.10
931.02	9942.89
931.19	10119.01
931.36	10002.28
931.52	9955.18
931.69	9944.94
931.86	9899.88
932.02	9854.83
932.19	9740.14
932.36	9781.10
932.53	9633.64
932.69	9545.58
932.86	9752.43
933.03	9578.35
933.19	9486.19
933.36	9697.13
933.53	9459.57
933.70	9330.55
933.86	9289.59
934.03	9342.83
934.20	9150.32
934.36	9365.36
934.53	8945.53
934.70	8902.52
934.86	8920.95
935.03	8832.89
935.20	8859.51
935.36	8879.99
935.53	8687.48
935.70	8679.29
935.86	8617.85
936.03	8488.83
936.20	8251.27
936.36	8304.51
936.53	8167.30
936.70	8214.40
936.86	8388.48
937.03	8320.90
937.20	7925.64
937.36	7993.22
937.53	7712.65
937.70	7681.93
937.86	7753.61
938.03	7729.03
938.20	7708.55
938.36	7464.85
938.53	7595.92
938.70	7196.56
938.86	7352.21
939.03	7378.83
939.20	7116.69
939.36	7049.11
939.53	7059.35
939.70	7079.83
939.86	6848.41
940.03	6729.63
940.19	6746.01
940.36	6684.57
940.53	6631.32
940.69	6510.49
940.86	6442.91
941.03	6266.78
941.19	6148.00
941.36	6250.40
941.52	6154.15
941.69	6082.47
941.86	5982.12
942.02	5992.36
942.19	5908.39
942.35	6029.22
942.52	5801.90
942.69	5722.02
942.85	5664.68
943.02	5769.13
943.18	5767.08
943.35	5631.91
943.52	5578.67
943.68	5703.59
943.85	5545.90
944.01	5472.17
944.18	5521.32
944.35	5496.75
944.51	5449.64
944.68	5279.66
944.84	5394.35
945.01	5130.16
945.17	5349.29
945.34	5367.73
945.51	5396.40
945.67	5347.25
945.84	5210.03
946.00	5232.56
946.17	5244.85
946.33	5173.17
946.50	5242.80
946.67	5138.35
946.83	5117.87
947.00	5306.29
947.16	5150.64
947.33	5263.28
947.49	5210.03
947.66	5015.48
947.82	5052.34
947.99	5078.96
948.16	5048.24
948.32	5134.26
948.49	5109.68
948.65	5216.18
948.82	5138.35
948.98	5132.21
949.15	5042.10
949.31	5130.16
949.48	5093.30
949.64	5146.55
949.81	5111.73
949.97	4976.56
950.14	5228.46
950.30	5179.31
950.47	5099.44
950.63	5162.93
950.80	5048.24
950.96	5134.26
951.13	5081.01
951.30	5111.73
951.46	5189.55
951.63	5201.84
951.79	5158.83
951.96	5210.03
952.12	5081.01
952.29	5115.83
952.45	5081.01
952.62	5177.26
952.78	5261.23
952.94	5267.38
953.11	5107.63
953.27	5130.16
953.44	5314.48
953.60	5273.52
953.77	5230.51
953.93	5150.64
954.10	5373.87
954.26	5189.55
954.43	5212.08
954.59	5181.36
954.76	5322.67
954.92	5232.56
955.09	5244.85
955.25	5228.46
955.42	5228.46
955.58	5349.29
955.75	5355.44
955.91	5261.23
956.07	5283.76
956.24	5339.05
956.40	5187.50
956.57	5304.24
956.73	5216.18
956.90	5343.15
957.06	5224.37
957.23	5214.13
957.39	5259.18
957.56	5285.81
957.72	5248.94
957.88	5238.70
958.05	5375.92
958.21	5420.97
958.38	5238.70
958.54	5441.45
958.71	5457.84
958.87	5152.69
959.03	5275.57
959.20	5400.49
959.36	5115.83
959.53	5337.01
959.69	5220.27
959.85	5150.64
960.02	5234.61
960.18	5164.98
960.35	5140.40
960.51	5269.42
960.68	5318.57
960.84	5226.42
961.00	5121.97
961.17	5275.57
961.33	5238.70
961.50	5267.38
961.66	5222.32
961.82	5255.09
961.99	5228.46
962.15	5160.88
962.31	5201.84
962.48	5201.84
962.64	5306.29
962.81	5269.42
962.97	5275.57
963.13	5322.67
963.30	5156.79
963.46	5291.95
963.62	5177.26
963.79	5119.92
963.95	5115.83
964.12	5250.99
964.28	5197.74
964.44	5181.36
964.61	5234.61
964.77	5175.22
964.93	5367.73
965.10	5250.99
965.26	5171.12
965.42	5097.39
965.59	5124.02
965.75	5195.70
965.92	5275.57
966.08	5083.06
966.24	5179.31
966.41	5031.86
966.57	5033.91
966.73	5210.03
966.90	5267.38
967.06	5011.38
967.22	5048.24
967.39	5035.96
967.55	4980.66
967.71	5035.96
967.88	5052.34
968.04	5015.48
968.20	4980.66
968.37	4954.04
968.53	4908.98
968.69	5083.06
968.85	5113.78
969.02	5050.29
969.18	4980.66
969.34	5021.62
969.51	5101.49
969.67	4992.95
969.83	4880.31
970.00	5072.82
970.16	4992.95
970.32	5046.20
970.48	5085.11
970.65	4894.65
970.81	4818.87
970.97	4847.54
971.14	4788.15
971.30	4966.32
971.46	4921.27
971.63	4886.45
971.79	4943.80
971.95	4739.00
972.11	4726.71
972.28	4726.71
972.44	4939.70
972.60	4581.31
972.76	4753.34
972.93	4704.18
973.09	4747.19
973.25	4831.16
973.42	4779.96
973.58	4820.92
973.74	4876.21
973.90	4743.10
974.07	4730.81
974.23	4630.46
974.39	4702.14
974.55	4810.68
974.72	4706.23
974.88	4550.59
975.04	4767.67
975.20	4595.64
975.37	4661.18
975.53	4630.46
975.69	4585.40
975.85	4550.59
976.01	4593.59
976.18	4573.11
976.34	4595.64
976.50	4683.70
976.66	4736.95
976.83	4472.76
976.99	4526.01
977.15	4605.88
977.31	4468.67
977.47	4577.21
977.64	4403.13
977.80	4517.82
977.96	4511.68
978.12	4509.63
978.29	4474.81
978.45	4378.56
978.61	4267.97
978.77	4442.04
978.93	4384.70
979.10	4392.89
979.26	4368.32
979.42	4431.80
979.58	4173.76
979.74	4282.30
979.91	4229.06
980.07	4384.70
980.23	4370.37
980.39	4282.30
980.55	4278.21
980.71	4396.99
980.88	4310.97
981.04	4286.40
981.20	4321.21
981.36	4315.07
981.52	4186.05
981.68	4155.33
981.85	4382.65
982.01	4188.10
982.17	4276.16
982.33	4181.95
982.49	4313.02
982.65	4145.09
982.82	4255.68
982.98	4181.95
983.14	4040.64
983.30	4052.93
983.46	4220.86
983.62	4259.78
983.79	4214.72
983.95	4218.82
984.11	3932.10
984.27	4214.72
984.43	4014.02
984.59	4104.13
984.75	4024.26
984.91	4052.93
985.08	4149.18
985.24	3995.59
985.40	3909.57
985.56	4145.09
985.72	4059.07
985.88	3923.91
986.04	3921.86
986.20	3868.61
986.37	3919.81
986.53	3794.89
986.69	3968.96
986.85	3848.13
987.01	3979.20
987.17	4036.55
987.33	3796.93
987.49	3817.41
987.65	3868.61
987.82	3850.18
987.98	3817.41
988.14	3854.28
988.30	3893.19
988.46	3819.46
988.62	3860.42
988.78	3835.85
988.94	3786.69
989.10	3782.60
989.26	3776.45
989.42	3868.61
989.59	3743.69
989.75	3649.48
989.91	3745.73
990.07	3700.68
990.23	3653.58
990.39	3626.95
990.55	3651.53
990.71	3614.66
990.87	3737.54
991.03	3786.69
991.19	3706.82
991.35	3719.11
991.51	3622.86
991.67	3674.06
991.83	3702.73
992.00	3626.95
992.16	3858.37
992.32	3606.47
992.48	3604.42
992.64	3581.90
992.80	3547.08
992.96	3536.84
993.12	3540.94
993.28	3522.51
993.44	3508.17
993.60	3551.18
993.76	3608.52
993.92	3547.08
994.08	3487.69
994.24	3549.13
994.40	3467.21
994.56	3542.99
994.72	3499.98
994.88	3440.59
995.04	3524.55
995.20	3461.07
995.36	3424.20
995.52	3448.78
995.68	3540.94
995.84	3397.58
996.00	3542.99
996.16	3442.64
996.32	3473.36
996.48	3454.92
996.64	3510.22
996.80	3379.15
996.96	3338.19
997.12	3370.96
997.28	3325.90
997.44	3391.44
997.60	3342.28
997.76	3350.48
997.92	3317.71
998.08	3379.15
998.24	3303.37
998.40	3241.93
998.56	3272.65
998.72	3123.15
998.88	3309.52
999.04	3395.53
999.20	3301.33
999.36	3229.65
999.52	3268.56
999.68	3276.75
999.84	3327.95
1000.00	3213.26
1000.16	3235.79
1000.32	3137.49
1000.48	3452.88
1000.64	3133.39
1000.80	3096.53
1000.95	3125.20
1001.11	3270.61
1001.27	3108.82
1001.43	3235.79
1001.59	3174.35
1001.75	3190.74
1001.91	3172.30
1002.07	3047.38
1002.23	3047.38
1002.39	3092.43
1002.55	3055.57
1002.71	3024.85
1002.87	3125.20
1003.03	2932.69
1003.19	3030.99
1003.34	3121.10
1003.50	3035.09
1003.66	3100.62
1003.82	3074.00
1003.98	3033.04
1004.14	2987.99
1004.30	3047.38
1004.46	2924.50
1004.62	3041.23
1004.78	2990.03
1004.94	2887.64
1005.09	3004.37
1005.25	2985.94
1005.41	2858.96
1005.57	2912.21
1005.73	2887.64
1005.89	2887.64
1006.05	2912.21
1006.21	2920.40
1006.37	2910.16
1006.52	2863.06
1006.68	2766.81
1006.84	2981.84
1007.00	2803.67
1007.16	2904.02
1007.32	2820.05
1007.48	2822.10
1007.64	2768.85
1007.79	2918.36
1007.95	2879.44
1008.11	2869.20
1008.27	2781.14
1008.43	2912.21
1008.59	2791.38
1008.75	2846.68
1008.91	2838.48
1009.06	2711.51
1009.22	2826.20
1009.38	2813.91
1009.54	2680.79
1009.70	2734.04
1009.86	2815.96
1010.01	2842.58
1010.17	2744.28
1010.33	2836.44
1010.49	2803.67
1010.65	2852.82
1010.81	2625.50
1010.96	2789.33
1011.12	2674.65
1011.28	2621.40
1011.44	2701.27
1011.60	2602.97
1011.76	2662.36
1011.91	2813.91
1012.07	2709.46
1012.23	2588.63
1012.39	2572.25
1012.55	2625.50
1012.71	2645.98
1012.86	2566.10
1013.02	2650.07
1013.18	2582.49
1013.34	2676.70
1013.50	2627.54
1013.65	2584.54
1013.81	2492.38
1013.97	2527.19
1014.13	2582.49
1014.29	2631.64
1014.44	2621.40
1014.60	2533.34
1014.76	2535.39
1014.92	2500.57
1015.07	2490.33
1015.23	2566.10
1015.39	2521.05
1015.55	2549.72
1015.71	2508.76
1015.86	2496.47
1016.02	2519.00
1016.18	2557.91
1016.34	2519.00
1016.49	2514.91
1016.65	2537.43
1016.81	2439.13
1016.97	2445.27
1017.12	2523.10
1017.28	2496.47
1017.44	2400.22
1017.60	2406.36
1017.75	2594.78
1017.91	2512.86
1018.07	2439.13
1018.23	2562.01
1018.38	2277.34
1018.54	2334.68
1018.70	2375.64
1018.86	2328.54
1019.01	2328.54
1019.17	2406.36
1019.33	2451.42
1019.49	2256.86
1019.64	2314.20
1019.80	2394.08
1019.96	2346.97
1020.12	2385.88
1020.27	2400.22
1020.43	2344.92
1020.59	2338.78
1020.74	2484.19
1020.90	2297.82
1021.06	2287.58
1021.22	2318.30
1021.37	2318.30
1021.53	2246.62
1021.69	2367.45
1021.84	2199.52
1022.00	2303.96
1022.16	2244.57
1022.31	2248.67
1022.47	2306.01
1022.63	2363.36
1022.79	2334.68
1022.94	2295.77
1023.10	2344.92
1023.26	2269.15
1023.41	2240.48
1023.57	2271.20
1023.73	2246.62
1023.88	2273.25
1024.04	2166.75
1024.20	2209.76
1024.35	2217.95
1024.51	2267.10
1024.67	2281.44
1024.82	2260.96
1024.98	2148.32
1025.14	2240.48
1025.29	2156.51
1025.45	2340.83
1025.61	2127.84
1025.76	2205.66
1025.92	2191.33
1026.08	2209.76
1026.23	2181.09
1026.39	2207.71
1026.55	2103.26
1026.70	2138.08
1026.86	2093.02
1027.02	2250.72
1027.17	2191.33
1027.33	2133.98
1027.48	2160.61
1027.64	2168.80
1027.80	2146.27
1027.95	2101.22
1028.11	2082.78
1028.27	2123.74
1028.42	2232.29
1028.58	2142.18
1028.73	2117.60
1028.89	2076.64
1029.05	2183.13
1029.20	2195.42
>>>>>End Processed Spectral Data<<<<<
