SpectraSuite Data File
++++++++++++++++++++++++++++++++++++
Date: Fri Jun 02 14:51:07 CEST 2017
User: INFO_000
Dark Spectrum Present: No
Reference Spectrum Present: No
Number of Sampled Component Spectra: 1
Spectrometers: USB4H00879
Integration Time (usec): 80000 (USB4H00879)
Spectra Averaged: 1 (USB4H00879)
Boxcar Smoothing: 0 (USB4H00879)
Correct for Electrical Dark: No (USB4H00879)
Strobe/Lamp Enabled: No (USB4H00879)
Correct for Detector Non-linearity: No (USB4H00879)
Correct for Stray Light: No (USB4H00879)
Number of Pixels in Processed Spectrum: 3648
>>>>>Begin Processed Spectral Data<<<<<
345.13	1284.08
345.34	1284.08
345.56	1284.08
345.78	1279.98
345.99	1296.36
346.21	1658.85
346.42	1681.38
346.64	1630.18
346.86	1767.40
347.07	1632.23
347.29	1732.58
347.50	1593.32
347.72	1683.43
347.94	1712.10
348.15	1626.09
348.37	1624.04
348.59	1726.44
348.80	1658.85
349.02	1744.87
349.23	1837.03
349.45	1728.49
349.67	1796.07
349.88	1734.63
350.10	1923.04
350.31	1794.02
350.53	1771.49
350.75	1923.04
350.96	1734.63
351.18	1871.84
351.39	1740.77
351.61	1884.13
351.82	1957.86
352.04	1853.41
352.26	1808.36
352.47	1849.32
352.69	1902.56
352.90	1771.49
353.12	1773.54
353.34	1865.70
353.55	1880.04
353.77	1865.70
353.98	1773.54
354.20	1830.88
354.41	1925.09
354.63	1839.08
354.85	2070.50
355.06	1884.13
355.28	1765.35
355.49	1861.60
355.71	1867.75
355.92	1908.71
356.14	1929.19
356.35	1847.27
356.57	1804.26
356.79	1947.62
357.00	1746.92
357.22	1939.43
357.43	1880.04
357.65	1959.91
357.86	1802.21
358.08	1916.90
358.29	1945.57
358.51	1992.67
358.72	1906.66
358.94	1898.47
359.16	1830.88
359.37	1908.71
359.59	1949.67
359.80	1937.38
360.02	1892.32
360.23	2009.06
360.45	1951.71
360.66	1945.57
360.88	1826.79
361.09	1867.75
361.31	1920.99
361.52	1961.95
361.74	1953.76
361.95	2068.45
362.17	1943.52
362.38	2050.02
362.60	2002.91
362.81	1900.52
363.03	1927.14
363.24	1892.32
363.46	2076.64
363.67	1974.24
363.89	1986.53
364.10	1939.43
364.32	2039.78
364.53	2015.20
364.75	1902.56
364.96	1961.95
365.18	1988.58
365.39	2019.30
365.61	1966.05
365.82	2045.92
366.04	2058.21
366.25	1935.33
366.47	1994.72
366.68	2027.49
366.90	2004.96
367.11	1992.67
367.33	2152.42
367.54	2078.69
367.76	1982.43
367.97	2095.07
368.19	2054.11
368.40	2050.02
368.62	1941.47
368.83	1937.38
369.05	1972.19
369.26	1955.81
369.48	1931.23
369.69	1961.95
369.91	2084.83
370.12	1978.34
370.33	2060.26
370.55	2035.68
370.76	2037.73
370.98	2162.66
371.19	2015.20
371.41	1947.62
371.62	2060.26
371.84	2015.20
372.05	2056.16
372.27	2066.40
372.48	2039.78
372.69	2093.02
372.91	2138.08
373.12	2095.07
373.34	2187.23
373.55	2129.89
373.77	2140.13
373.98	2144.22
374.20	2121.70
374.41	2260.96
374.62	2097.12
374.84	2109.41
375.05	2211.81
375.27	2230.24
375.48	2213.85
375.70	2156.51
375.91	2220.00
376.12	2269.15
376.34	2052.06
376.55	2197.47
376.77	2148.32
376.98	2070.50
377.19	2004.96
377.41	2074.59
377.62	2086.88
377.84	2203.61
378.05	2277.34
378.27	2197.47
378.48	2332.64
378.69	2367.45
378.91	2297.82
379.12	2232.29
379.34	2140.13
379.55	2332.64
379.76	2279.39
379.98	2133.98
380.19	2144.22
380.41	2234.33
380.62	2240.48
380.83	2244.57
381.05	2154.46
381.26	2377.69
381.47	2248.67
381.69	2209.76
381.90	2420.70
382.12	2301.92
382.33	2183.13
382.54	2228.19
382.76	2228.19
382.97	2263.01
383.19	2166.75
383.40	2412.51
383.61	2301.92
383.83	2281.44
384.04	2281.44
384.25	2342.88
384.47	2420.70
384.68	2312.16
384.89	2326.49
385.11	2312.16
385.32	2289.63
385.54	2377.69
385.75	2402.27
385.96	2349.02
386.18	2334.68
386.39	2428.89
386.60	2252.77
386.82	2400.22
387.03	2365.40
387.24	2400.22
387.46	2418.65
387.67	2523.10
387.88	2482.14
388.10	2367.45
388.31	2473.95
388.52	2488.28
388.74	2400.22
388.95	2463.71
389.16	2480.09
389.38	2428.89
389.59	2519.00
389.80	2541.53
390.02	2404.32
390.23	2613.21
390.44	2500.57
390.66	2514.91
390.87	2490.33
391.08	2541.53
391.30	2598.87
391.51	2631.64
391.72	2637.78
391.94	2564.06
392.15	2631.64
392.36	2592.73
392.58	2621.40
392.79	2590.68
393.00	2711.51
393.22	2654.17
393.43	2674.65
393.64	2754.52
393.85	2764.76
394.07	2627.54
394.28	2713.56
394.49	2721.75
394.71	2652.12
394.92	2736.09
395.13	2611.16
395.35	2576.34
395.56	2731.99
395.77	2830.29
395.98	2772.95
396.20	2723.80
396.41	2717.65
396.62	2762.71
396.84	2805.72
397.05	2793.43
397.26	2813.91
397.47	2953.17
397.69	2795.48
397.90	2955.22
398.11	2854.87
398.32	2801.62
398.54	2795.48
398.75	2949.08
398.96	2920.40
399.18	3033.04
399.39	2951.12
399.60	2977.75
399.81	2928.60
400.03	2883.54
400.24	3170.26
400.45	2922.45
400.66	2979.79
400.88	2953.17
401.09	3219.41
401.30	3076.05
401.51	3129.30
401.73	3100.62
401.94	3209.17
402.15	3076.05
402.36	3133.39
402.58	3164.11
402.79	3147.73
403.00	3164.11
403.21	3221.45
403.43	3250.13
403.64	3176.40
403.85	2998.23
404.06	3090.38
404.27	2938.84
404.49	3139.54
404.70	3059.67
404.91	3270.61
405.12	3172.30
405.34	3198.93
405.55	3383.24
405.76	3018.71
405.97	3256.27
406.19	3141.58
406.40	3268.56
406.61	3248.08
406.82	3289.04
407.03	3280.85
407.25	3264.46
407.46	3403.72
407.67	3438.54
407.88	3403.72
408.09	3284.94
408.31	3307.47
408.52	3416.01
408.73	3299.28
408.94	3174.35
409.15	3444.68
409.37	3313.61
409.58	3469.26
409.79	3373.00
410.00	3495.88
410.21	3413.96
410.43	3332.05
410.64	3342.28
410.85	3461.07
411.06	3518.41
411.27	3452.88
411.48	3540.94
411.70	3616.71
411.91	3485.64
412.12	3518.41
412.33	3497.93
412.54	3481.55
412.76	3682.25
412.97	3606.47
413.18	3485.64
413.39	3444.68
413.60	3631.05
413.81	3620.81
414.03	3479.50
414.24	3547.08
414.45	3581.90
414.66	3489.74
414.87	3659.72
415.08	3585.99
415.30	3663.82
415.51	3712.97
415.72	3653.58
415.93	3760.07
416.14	3598.28
416.35	3573.71
416.56	3700.68
416.78	3631.05
416.99	3704.78
417.20	3700.68
417.41	3854.28
417.62	3655.62
417.83	3809.22
418.04	3778.50
418.26	3862.47
418.47	3823.56
418.68	3837.89
418.89	3809.22
419.10	3991.49
419.31	3850.18
419.52	3852.23
419.73	3885.00
419.95	3954.63
420.16	3885.00
420.37	3907.52
420.58	3852.23
420.79	3641.29
421.00	3893.19
421.21	3942.34
421.42	3805.13
421.63	3928.00
421.85	4042.69
422.06	4151.23
422.27	4089.79
422.48	4163.52
422.69	4069.31
422.90	4081.60
423.11	4130.75
423.32	4040.64
423.53	4247.49
423.75	4245.44
423.96	4388.80
424.17	4231.10
424.38	4321.21
424.59	4255.68
424.80	4325.31
425.01	4208.58
425.22	4181.95
425.43	4284.35
425.64	4376.51
425.85	4378.56
426.06	4433.85
426.28	4310.97
426.49	4265.92
426.70	4239.30
426.91	4405.18
427.12	4396.99
427.33	4472.76
427.54	4440.00
427.75	4673.46
427.96	4575.16
428.17	4470.72
428.38	4618.17
428.59	4681.66
428.80	4542.39
429.01	4599.74
429.23	4657.08
429.44	4736.95
429.65	4874.17
429.86	4650.94
430.07	4698.04
430.28	4786.10
430.49	4804.53
430.70	4970.42
430.91	4902.84
431.12	4804.53
431.33	5009.33
431.54	4949.94
431.75	4968.37
431.96	4861.88
432.17	4751.29
432.38	4933.56
432.59	5167.03
432.80	5171.12
433.01	5197.74
433.22	5181.36
433.43	4974.52
433.64	5058.48
433.85	5285.81
434.06	5287.86
434.27	5015.48
434.49	5312.43
434.70	5244.85
434.91	5191.60
435.12	5359.53
435.33	5328.81
435.54	5255.09
435.75	5103.54
435.96	5345.20
436.17	5302.19
436.38	5498.80
436.59	5361.58
436.80	5345.20
437.01	5636.01
437.22	5754.79
437.43	5564.33
437.64	5269.42
437.85	5588.91
438.06	5609.39
438.27	5599.15
438.48	5494.70
438.69	5656.49
438.90	5648.30
439.11	5658.54
439.32	5846.95
439.53	5644.20
439.74	5787.56
439.95	5836.71
440.16	5679.02
440.37	5898.15
440.57	5636.01
440.78	5832.62
440.99	5820.33
441.20	5955.49
441.41	5793.70
441.62	5920.68
441.83	5711.78
442.04	5994.40
442.25	5916.58
442.46	5978.02
442.67	5949.35
442.88	6369.18
443.09	6016.93
443.30	6004.64
443.51	6100.90
443.72	6277.02
443.93	6061.99
444.14	6346.66
444.35	6111.14
444.56	6242.21
444.77	6178.72
444.98	6287.26
445.19	6365.09
445.40	6205.35
445.61	6205.35
445.81	6385.57
446.02	6461.34
446.23	6350.75
446.44	6246.30
446.65	6360.99
446.86	6369.18
447.07	6535.07
447.28	6508.44
447.49	6430.62
447.70	6526.88
447.91	6606.75
448.12	6430.62
448.33	6545.31
448.54	6485.92
448.74	6557.60
448.95	6580.12
449.16	6598.56
449.37	6866.84
449.58	6514.59
449.79	6786.97
450.00	6553.50
450.21	6946.71
450.42	6815.64
450.63	6766.49
450.84	6854.55
451.05	6881.18
451.25	6795.16
451.46	6889.37
451.67	6821.78
451.88	7176.08
452.09	7006.10
452.30	6905.75
452.51	6973.33
452.72	7104.40
452.93	7464.85
453.13	7006.10
453.34	7088.02
453.55	7141.27
453.76	7229.33
453.97	7677.83
454.18	7182.23
454.39	7522.19
454.60	7237.52
454.81	7167.89
455.01	7505.81
455.22	7159.70
455.43	7380.88
455.64	7655.31
455.85	7616.40
456.06	7552.91
456.27	7597.96
456.48	7460.75
456.68	7581.58
456.89	7446.41
457.10	7849.86
457.31	7583.63
457.52	7634.83
457.73	7638.92
457.94	7884.68
458.14	7686.03
458.35	8030.09
458.56	7933.83
458.77	7790.47
458.98	7870.34
459.19	8116.10
459.39	8044.42
459.60	8155.01
459.81	8073.09
460.02	8204.16
460.23	8169.35
460.44	8306.56
460.65	8226.69
460.85	8294.27
461.06	8425.34
461.27	8062.85
461.48	8654.72
461.69	8529.79
461.89	8183.68
462.10	8486.78
462.31	8224.64
462.52	8370.05
462.73	8540.03
462.94	8576.89
463.14	8748.92
463.35	8603.52
463.56	8980.34
463.77	9009.01
463.98	8703.87
464.18	8742.78
464.39	8990.58
464.60	9129.84
464.81	8961.91
465.02	8982.39
465.23	9283.44
465.43	9045.88
465.64	9348.98
465.85	9322.35
466.06	9160.56
466.27	9508.72
466.47	9398.13
466.68	9449.33
466.89	9418.61
467.10	9498.48
467.30	9408.37
467.51	9662.32
467.72	9690.99
467.93	9609.07
468.14	9688.94
468.34	9854.83
468.55	10037.09
468.76	10182.50
468.97	9953.13
469.17	10274.66
469.38	10229.60
469.59	10172.26
469.80	10047.33
470.01	10121.06
470.21	10317.67
470.42	10635.10
470.63	10473.31
470.84	10432.35
471.04	10544.99
471.25	10676.06
471.46	10700.64
471.67	10927.96
471.87	10811.23
472.08	10977.11
472.29	11149.14
472.50	10905.43
472.70	11175.77
472.91	11132.76
473.12	11261.78
473.33	11468.62
473.53	11523.92
473.74	11525.97
473.95	11802.44
474.16	11927.37
474.36	11804.49
474.57	12072.78
474.78	11956.04
474.99	11880.27
475.19	11931.47
475.40	12173.13
475.61	12255.04
475.81	12529.47
476.02	12562.24
476.23	12361.54
476.44	12535.62
476.64	12973.88
476.85	12791.61
477.06	12930.87
477.27	13199.16
477.47	13193.01
477.68	13131.58
477.89	13401.91
478.09	13295.41
478.30	13600.56
478.51	13666.10
478.71	13668.14
478.92	13750.06
479.13	14008.11
479.34	14040.87
479.54	13926.19
479.75	14077.74
479.96	14307.11
480.16	14292.77
480.37	14497.57
480.58	14571.30
480.78	14735.14
480.99	14567.20
481.20	15083.29
481.41	14837.53
481.61	15126.30
481.82	15324.95
482.03	15128.35
482.23	15036.19
482.44	15396.63
482.65	15707.92
482.85	15656.72
483.06	15662.86
483.27	15669.01
483.47	15660.82
483.68	15851.28
483.89	16234.25
484.09	16277.26
484.30	16156.43
484.51	16248.58
484.71	16373.51
484.92	16488.20
485.13	16844.54
485.33	16799.49
485.54	16602.88
485.75	17053.44
485.95	17276.66
486.16	17252.09
486.37	17159.93
486.57	17288.95
486.78	17381.11
486.98	17403.64
487.19	17741.55
487.40	17684.21
487.60	17747.70
487.81	18245.35
488.02	17772.27
488.22	17852.14
488.43	18145.00
488.64	18192.11
488.84	18145.00
489.05	18237.16
489.25	18401.00
489.46	18710.24
489.67	18618.08
489.87	18968.29
490.08	18921.18
490.29	18953.95
490.49	18949.85
490.70	18982.62
490.90	19211.99
491.11	19240.67
491.32	19390.17
491.52	19390.17
491.73	19506.90
491.94	19697.36
492.14	19629.78
492.35	20041.42
492.55	20037.33
492.76	20051.66
492.97	19971.79
493.17	20055.76
493.38	19924.69
493.58	20242.12
493.79	20475.59
494.00	20379.34
494.20	20541.13
494.41	20614.85
494.61	20999.87
494.82	20795.07
495.02	20659.91
495.23	20983.49
495.44	21051.07
495.64	21110.46
495.85	20942.53
496.05	21448.38
496.26	21180.09
496.47	21450.42
496.67	21307.07
496.88	21790.39
497.08	21436.09
497.29	21843.63
497.49	21814.96
497.70	21784.24
497.91	21644.98
498.11	21933.75
498.32	22085.30
498.52	22118.06
498.73	22386.35
498.93	22341.29
499.14	22054.58
499.34	22408.87
499.55	22271.66
499.76	22412.97
499.96	22607.53
500.17	22331.05
500.37	22437.55
500.58	22507.18
500.78	22722.21
500.99	22695.59
501.19	22963.87
501.40	22865.57
501.60	22836.90
501.81	23006.88
502.02	22984.35
502.22	23010.98
502.43	23084.70
502.63	23348.89
502.84	23445.15
503.04	23502.49
503.25	23439.00
503.45	23248.54
503.66	23625.37
503.86	23373.47
504.07	23881.36
504.27	23461.53
504.48	23877.27
504.68	23963.28
504.89	24131.22
505.09	23914.13
505.30	23961.23
505.50	23967.38
505.71	24006.29
505.91	24284.81
506.12	24329.87
506.32	24340.11
506.53	24413.84
506.73	24290.96
506.94	24491.66
507.14	24417.93
507.35	24741.51
507.55	24628.87
507.76	24643.21
507.96	24579.72
508.17	24788.61
508.37	24741.51
508.58	24639.11
508.78	24776.33
508.99	24909.44
509.19	24905.35
509.40	24884.87
509.60	24587.91
509.81	24974.98
510.01	25007.75
510.22	25163.39
510.42	25007.75
510.63	25370.24
510.83	25194.11
511.04	25144.96
511.24	25433.72
511.44	25368.19
511.65	25093.76
511.85	25282.17
512.06	25325.18
512.26	25601.66
512.47	25394.81
512.67	25777.78
512.88	25693.82
513.08	25237.12
513.29	25683.58
513.49	25529.98
513.69	25757.30
513.90	25765.49
514.10	25921.14
514.31	26027.63
514.51	26091.12
514.72	25833.08
514.92	25976.44
515.13	25851.51
515.33	26031.73
515.53	26252.91
515.74	26113.65
515.94	26336.88
516.15	26312.30
516.35	26513.00
516.56	26562.15
516.76	26244.72
516.96	26484.33
517.17	26396.27
517.37	26558.06
517.58	26504.81
517.78	26666.60
517.99	26687.08
518.19	27008.61
518.39	27041.38
518.60	26871.40
518.80	27022.95
519.01	27002.47
519.21	27117.15
519.41	26943.08
519.62	27156.07
519.82	27342.43
520.03	27612.76
520.23	27498.08
520.43	27311.71
520.64	27520.60
520.84	27889.24
521.05	27596.38
521.25	27829.85
521.45	28192.34
521.66	27782.74
521.86	28065.36
522.07	28063.32
522.27	27999.83
522.47	28335.70
522.68	28329.55
522.88	28071.51
523.08	28661.32
523.29	28104.28
523.49	28636.75
523.70	28716.62
523.90	28653.13
524.10	28788.30
524.31	29025.86
524.51	28528.20
524.71	29265.47
524.92	29085.25
525.12	29169.22
525.33	29175.36
525.53	29290.05
525.73	29601.34
525.94	29437.50
526.14	29226.56
526.34	29451.84
526.55	29658.68
526.75	30012.98
526.95	29775.42
527.16	29804.09
527.36	30199.35
527.56	30475.82
527.77	30307.89
527.97	30191.16
528.17	30498.35
528.38	30567.98
528.58	31233.57
528.78	30537.26
528.99	30846.51
529.19	31118.89
529.39	30807.59
529.60	31120.93
529.80	31125.03
530.00	31219.24
530.21	31512.10
530.41	31471.14
530.61	31237.67
530.82	31499.81
531.02	31421.98
531.22	31827.48
531.43	31667.74
531.63	32011.80
531.83	32400.91
532.04	32519.70
532.24	32351.76
532.44	32704.01
532.64	32871.95
532.85	33109.51
533.05	32595.47
533.25	33107.46
533.46	33021.45
533.66	33224.20
533.86	33355.27
534.07	33744.38
534.27	33494.53
534.47	33740.29
534.67	33580.54
534.88	33777.15
535.08	33973.75
535.28	34309.62
535.49	34332.15
535.69	34225.65
535.89	34319.86
536.09	34846.19
536.30	34557.42
536.50	34926.06
536.70	34835.95
536.91	34829.80
537.11	35075.56
537.31	35296.74
537.51	35091.94
537.72	35345.89
537.92	35335.65
538.12	36064.73
538.32	35380.71
538.53	35575.27
538.73	35552.74
538.93	35667.42
539.13	35798.49
539.34	36060.63
539.54	35911.13
539.74	35997.15
539.94	36371.92
540.15	36392.40
540.35	36480.47
540.55	36679.12
540.75	36888.01
540.96	36607.44
541.16	36847.05
541.36	36697.55
541.56	37057.99
541.77	37449.16
541.97	37004.75
542.17	37293.51
542.37	36982.22
542.58	37623.23
542.78	37318.09
542.98	37701.06
543.18	37608.90
543.38	38151.61
543.59	37735.87
543.79	38067.64
543.99	37795.26
544.19	38172.09
544.40	37973.44
544.60	37955.00
544.80	38577.59
545.00	38362.55
545.20	38774.19
545.41	38297.02
545.61	38956.46
545.81	38938.03
546.01	38612.40
546.21	39083.44
546.42	38993.32
546.62	38731.18
546.82	39022.00
547.02	38997.42
547.22	39384.49
547.43	38610.35
547.63	38952.37
547.83	39361.96
548.03	38882.73
548.23	39736.74
548.44	39321.00
548.64	39398.82
548.84	39839.14
549.04	39636.39
549.24	40093.08
549.45	39984.54
549.65	39837.09
549.85	39982.49
550.05	40015.26
550.25	39984.54
550.45	40459.67
550.66	39884.19
550.86	40150.43
551.06	40162.72
551.26	40514.97
551.46	40752.53
551.66	40603.03
551.87	40461.72
552.07	40676.76
552.27	40457.62
552.47	40455.57
552.67	40736.15
552.87	40545.69
553.07	40924.56
553.28	41235.85
553.48	40854.93
553.68	40981.90
553.88	41325.96
554.08	40983.95
554.28	40893.84
554.48	40705.43
554.69	41457.03
554.89	41106.83
555.09	41573.77
555.29	41067.92
555.49	41192.84
555.69	41651.59
555.89	40965.52
556.10	41446.79
556.30	41293.19
556.50	41354.63
556.70	41317.77
556.90	41444.74
557.10	41563.53
557.30	41338.25
557.50	41641.35
557.70	41598.34
557.91	41567.62
558.11	41811.33
558.31	41778.56
558.51	41354.63
558.71	41551.24
558.91	41674.12
559.11	41846.15
559.31	41643.40
559.51	41698.69
559.72	41731.46
559.92	42046.85
560.12	42026.37
560.32	42005.89
560.52	42096.00
560.72	42018.17
560.92	42200.44
561.12	41725.32
561.32	42392.95
561.52	41637.25
561.72	42601.85
561.93	42057.09
562.13	41872.77
562.33	41559.43
562.53	42448.25
562.73	42327.42
562.93	42046.85
563.13	42128.77
563.33	42288.51
563.53	42499.45
563.73	41835.91
563.93	42321.27
564.13	42593.65
564.33	42472.82
564.53	42110.33
564.74	42577.27
564.94	41870.72
565.14	42380.67
565.34	42364.28
565.54	42153.34
565.74	42562.93
565.94	42767.73
566.14	42585.46
566.34	42300.79
566.54	42917.23
566.74	42347.90
566.94	42950.00
567.14	42558.84
567.34	42386.81
567.54	42706.29
567.74	42780.02
567.94	42694.00
568.14	42704.24
568.34	42714.48
568.54	42603.89
568.74	43036.02
568.94	43013.49
569.14	42792.31
569.34	42499.45
569.54	42896.75
569.75	42784.12
569.95	42577.27
570.15	43324.78
570.35	43240.81
570.55	42597.75
570.75	43046.26
570.95	43029.87
571.15	43234.67
571.35	42620.28
571.55	43167.09
571.75	43033.97
571.95	43122.03
572.15	43132.27
572.35	43347.31
572.55	43060.59
572.75	43677.03
572.95	43310.44
573.15	43257.20
573.35	43310.44
573.55	42882.42
573.75	43136.37
573.95	43496.81
574.15	43173.23
574.35	43162.99
574.55	43482.47
574.75	43201.90
574.95	43588.97
575.15	43431.27
575.34	43554.15
575.54	43738.47
575.74	43726.18
575.94	43896.16
576.14	43556.20
576.34	43920.74
576.54	43914.59
576.74	43793.76
576.94	43992.42
577.14	43984.22
577.34	44180.83
577.54	43332.97
577.74	43863.39
577.94	43775.33
578.14	44365.15
578.34	44281.18
578.54	43844.96
578.74	43959.65
578.94	44369.24
579.14	44356.96
579.34	44186.97
579.54	44582.23
579.74	44678.49
579.94	44541.27
580.13	44324.19
580.33	44336.48
580.53	44455.26
580.73	44434.78
580.93	44121.44
581.13	44752.21
581.33	44852.56
581.53	44848.47
581.73	44805.46
581.93	44868.95
582.13	44586.33
582.33	44631.38
582.53	44545.37
582.73	45374.80
582.92	45174.09
583.12	45770.05
583.32	44963.15
583.52	44813.65
583.72	45581.64
583.92	45143.38
584.12	45407.56
584.32	45659.46
584.52	45421.90
584.72	45358.41
584.92	45565.26
585.11	45749.57
585.31	45725.00
585.51	45378.89
585.71	45350.22
585.91	45976.90
586.11	46007.62
586.31	45790.53
586.51	45727.05
586.71	45925.70
586.91	45872.45
587.10	46204.22
587.30	46105.92
587.50	46335.29
587.70	46040.39
587.90	46341.44
588.10	46198.08
588.30	46216.51
588.50	46265.66
588.69	45985.09
588.89	46155.07
589.09	46632.25
589.29	46492.99
589.49	46800.18
589.69	46267.71
589.89	46961.97
590.08	46640.44
590.28	46456.12
590.48	46859.57
590.68	46560.57
590.88	47154.48
591.08	47009.07
591.28	46595.38
591.47	47381.80
591.67	46861.62
591.87	47160.62
592.07	47152.43
592.27	47099.19
592.47	47047.99
592.67	47314.22
592.86	47140.14
593.06	47639.85
593.26	47637.80
593.46	47297.84
593.66	47631.66
593.86	47553.83
594.05	48123.17
594.25	48444.70
594.45	47703.34
594.65	47932.71
594.85	47478.06
595.05	47781.16
595.24	48024.87
595.44	48018.72
595.64	47834.41
595.84	48024.87
596.04	48416.03
596.23	48428.32
596.43	48139.55
596.63	48788.76
596.83	48575.77
597.03	48692.50
597.22	49153.30
597.42	48774.42
597.62	49036.56
597.82	48387.36
598.02	49124.63
598.21	49126.67
598.41	48964.88
598.61	48739.61
598.81	49018.13
599.01	49337.62
599.20	49437.97
599.40	49224.98
599.60	49468.69
599.80	49476.88
600.00	49700.11
600.19	50187.52
600.39	49478.92
600.59	49847.56
600.79	49632.52
600.98	49730.83
601.18	50038.02
601.38	50164.99
601.58	50115.84
601.78	50304.26
601.97	50007.30
602.17	50394.37
602.37	50580.73
602.57	50633.98
602.76	50808.06
602.96	50347.26
603.16	50924.79
603.36	50724.09
603.55	50701.56
603.75	50420.99
603.95	51049.72
604.15	50930.93
604.34	50672.89
604.54	51279.09
604.74	51188.98
604.94	51541.23
605.13	51614.96
605.33	51010.81
605.53	51299.57
605.73	51623.15
605.92	51477.74
606.12	51848.42
606.32	51635.44
606.52	51901.67
606.71	51684.59
606.91	51973.35
607.11	51541.23
607.30	52356.32
607.50	52442.34
607.70	52499.68
607.90	52491.49
608.09	52221.16
608.29	52526.30
608.49	52499.68
608.68	52471.01
608.88	53056.73
609.08	53001.43
609.28	52815.07
609.47	52794.59
609.67	53265.62
609.87	53032.15
610.06	53152.98
610.26	52466.91
610.46	53392.59
610.66	52935.90
610.85	52557.02
611.05	53109.97
611.25	53329.11
611.44	53155.03
611.64	53155.03
611.84	53161.17
612.03	53177.56
612.23	53423.31
612.43	52974.81
612.62	52790.49
612.82	53765.32
613.02	53589.20
613.21	53892.30
613.41	53388.50
613.61	53163.22
613.80	53239.00
614.00	53750.99
614.20	53630.16
614.39	53738.70
614.59	53896.39
614.79	53986.50
614.98	53974.22
615.18	53886.15
615.38	53929.16
615.57	54107.33
615.77	54115.53
615.97	54326.47
616.16	54027.46
616.36	53943.50
616.56	54248.64
616.75	54209.73
616.95	53490.90
617.15	53957.83
617.34	53992.65
617.54	54039.75
617.74	54195.40
617.93	54129.86
618.13	53953.74
618.32	54490.30
618.52	54439.11
618.72	54537.41
618.91	54103.24
619.11	53990.60
619.31	54191.30
619.50	53800.14
619.70	53535.95
619.90	54484.16
620.09	54572.22
620.29	54584.51
620.48	54592.70
620.68	54815.93
620.88	53789.90
621.07	54113.48
621.27	54414.53
621.46	54056.14
621.66	54561.98
621.86	54457.54
622.05	54543.55
622.25	54781.12
622.44	54416.58
622.64	54537.41
622.84	54465.73
623.03	54244.55
623.23	54750.40
623.42	54482.11
623.62	54305.99
623.82	54396.10
624.01	54334.66
624.21	54523.07
624.40	54342.85
624.60	54375.62
624.80	54570.18
624.99	54566.08
625.19	53783.76
625.38	54475.97
625.58	54312.13
625.77	54510.78
625.97	54777.02
626.17	54271.17
626.36	54635.71
626.56	54244.55
626.75	53607.63
626.95	55102.65
627.14	54654.14
627.34	54916.28
627.54	54406.34
627.73	54467.78
627.93	54318.28
628.12	53892.30
628.32	54783.16
628.51	54820.03
628.71	54478.02
628.90	54916.28
629.10	54553.79
629.30	54645.95
629.49	54848.70
629.69	54727.87
629.88	54498.50
630.08	54414.53
630.27	54609.09
630.47	55049.40
630.66	54330.56
630.86	54621.37
631.05	54111.43
631.25	54959.29
631.44	54555.84
631.64	54424.77
631.84	54633.66
632.03	54846.65
632.23	54789.31
632.42	54621.37
632.62	54711.49
632.81	54400.19
633.01	54547.65
633.20	54879.42
633.40	54602.94
633.59	54891.71
633.79	54068.42
633.98	54428.87
634.18	54656.19
634.37	54514.88
634.57	54588.61
634.76	54850.75
634.96	54758.59
635.15	55059.64
635.35	54101.19
635.54	54789.31
635.74	54869.18
635.93	54346.95
636.13	55071.93
636.32	54850.75
636.52	54351.04
636.71	54648.00
636.91	54387.91
637.10	54842.56
637.30	54252.74
637.49	54441.15
637.69	54262.98
637.88	54924.47
638.08	54365.38
638.27	54435.01
638.46	54015.18
638.66	54484.16
638.85	54705.34
639.05	54705.34
639.24	54490.30
639.44	53787.85
639.63	54545.60
639.83	54602.94
640.02	54547.65
640.22	54170.82
640.41	54426.82
640.61	54297.80
640.80	54273.22
640.99	54203.59
641.19	55104.70
641.38	54445.25
641.58	54496.45
641.77	54648.00
641.97	54389.95
642.16	54385.86
642.36	54273.22
642.55	54834.36
642.74	54209.73
642.94	54883.51
643.13	54305.99
643.33	54629.57
643.52	54756.54
643.72	54369.47
643.91	53937.35
644.10	54594.75
644.30	54731.96
644.49	54635.71
644.69	54666.43
644.88	54340.80
645.08	54222.02
645.27	54174.92
645.46	54480.06
645.66	54199.49
645.85	54254.79
646.05	54400.19
646.24	54850.75
646.43	54768.83
646.63	54537.41
646.82	54858.94
647.02	54686.91
647.21	54602.94
647.40	54549.70
647.60	54854.84
647.79	54903.99
647.99	54508.74
648.18	54279.36
648.37	54920.38
648.57	54666.43
648.76	54361.28
648.96	54338.75
649.15	54789.31
649.34	54834.36
649.54	54645.95
649.73	54213.83
649.92	54793.40
650.12	54502.59
650.31	54930.62
650.51	55076.02
650.70	54318.28
650.89	54682.81
651.09	54758.59
651.28	54590.66
651.47	54416.58
651.67	54326.47
651.86	55280.82
652.06	53439.70
652.25	54301.89
652.44	54291.65
652.64	54015.18
652.83	53998.79
653.02	54281.41
653.22	54201.54
653.41	54129.86
653.60	53839.05
653.80	54080.71
653.99	54025.42
654.18	54369.47
654.38	53857.48
654.57	54559.94
654.76	54033.61
654.96	54189.25
655.15	54021.32
655.34	53970.12
655.54	53966.02
655.73	54574.27
655.92	54813.88
656.12	54389.95
656.31	53951.69
656.50	54224.07
656.70	54260.93
656.89	54174.92
657.08	54557.89
657.28	54316.23
657.47	54076.61
657.66	53875.91
657.86	53949.64
658.05	54254.79
658.24	54285.51
658.43	53810.38
658.63	54445.25
658.82	54297.80
659.01	54027.46
659.21	54074.57
659.40	54197.44
659.59	54105.29
659.79	54047.94
659.98	54027.46
660.17	54209.73
660.36	54113.48
660.56	54441.15
660.75	54097.09
660.94	54398.15
661.14	54056.14
661.33	53941.45
661.52	53531.86
661.71	54002.89
661.91	54027.46
662.10	53845.19
662.29	54168.77
662.49	54248.64
662.68	53714.12
662.87	54037.70
663.06	54105.29
663.26	54019.27
663.45	54240.45
663.64	53789.90
663.83	54125.77
664.03	54138.05
664.22	53808.33
664.41	54099.14
664.60	54082.76
664.80	53988.55
664.99	54066.38
665.18	53851.34
665.37	53601.49
665.57	53961.93
665.76	53996.74
665.95	54256.84
666.14	53675.21
666.34	54047.94
666.53	54023.37
666.72	53486.80
666.91	53851.34
667.11	53699.79
667.30	53492.94
667.49	53517.52
667.68	53679.31
667.87	53427.41
668.07	53652.69
668.26	53865.67
668.45	53826.76
668.64	53363.92
668.84	54172.87
669.03	53796.04
669.22	53818.57
669.41	54088.90
669.60	53855.43
669.80	53613.77
669.99	53701.84
670.18	53904.59
670.37	53746.89
670.57	54236.36
670.76	54019.27
670.95	53583.05
671.14	53597.39
671.33	53308.63
671.53	54062.28
671.72	53900.49
671.91	53282.00
672.10	54080.71
672.29	53968.07
672.48	53427.41
672.68	54287.56
672.87	53535.95
673.06	53294.29
673.25	53507.28
673.44	53888.20
673.64	53841.10
673.83	53263.57
674.02	53261.52
674.21	53060.82
674.40	53290.19
674.59	53359.83
674.79	53279.96
674.98	53275.86
675.17	53673.16
675.36	53234.90
675.55	53298.39
675.74	53435.60
675.94	53462.22
676.13	53560.53
676.32	53777.61
676.51	54009.03
676.70	53507.28
676.89	53132.50
677.08	53552.33
677.28	53406.93
677.47	53892.30
677.66	53650.64
677.85	53433.55
678.04	53763.28
678.23	53716.17
678.42	54072.52
678.62	53525.71
678.81	53857.48
679.00	53374.16
679.19	54074.57
679.38	53619.92
679.57	53488.85
679.76	53724.36
679.96	53687.50
680.15	53232.85
680.34	53378.26
680.53	53390.55
680.72	53806.28
680.91	53753.04
681.10	53523.66
681.29	54242.50
681.48	53519.57
681.68	53388.50
681.87	52991.19
682.06	53390.55
682.25	53144.79
682.44	53458.13
682.63	53402.83
682.82	53400.79
683.01	53073.11
683.20	53034.20
683.39	53779.66
683.59	53210.32
683.78	52800.73
683.97	53099.73
684.16	53402.83
684.35	52767.96
684.54	53388.50
684.73	53277.91
684.92	53152.98
685.11	53177.56
685.30	53247.19
685.49	53298.39
685.69	53208.28
685.88	53001.43
686.07	53232.85
686.26	53454.03
686.45	53417.17
686.64	53052.63
686.83	53353.68
687.02	53212.37
687.21	53445.84
687.40	53099.73
687.59	53021.91
687.78	53345.49
687.97	52944.09
688.16	53327.06
688.35	53234.90
688.54	53030.10
688.74	53183.70
688.93	53001.43
689.12	53568.72
689.31	53308.63
689.50	53433.55
689.69	52788.44
689.88	52778.20
690.07	53181.65
690.26	53286.10
690.45	53226.71
690.64	53320.91
690.83	53140.69
691.02	53224.66
691.21	52876.51
691.40	53060.82
691.59	52499.68
691.78	53056.73
691.97	53021.91
692.16	53208.28
692.35	53378.26
692.54	53239.00
692.73	53226.71
692.92	53443.79
693.11	53253.33
693.30	53214.42
693.49	53400.79
693.68	52862.17
693.87	53097.69
694.06	52911.32
694.25	52649.18
694.44	52862.17
694.63	53298.39
694.82	53224.66
695.01	53081.30
695.20	52794.59
695.39	53191.89
695.58	53134.55
695.77	52395.23
695.96	53163.22
696.15	52917.46
696.34	52778.20
696.53	52569.31
696.72	53421.26
696.91	53126.36
697.10	53173.46
697.29	52532.45
697.48	52837.59
697.67	52827.35
697.86	52763.87
698.05	52993.24
698.24	53161.17
698.43	52440.29
698.62	53122.26
698.81	52706.52
699.00	52968.66
699.19	53040.34
699.38	52925.66
699.57	52384.99
699.76	53097.69
699.95	52505.82
700.14	52614.37
700.32	52966.62
700.51	52499.68
700.70	53216.47
700.89	52772.06
701.08	52952.28
701.27	52606.17
701.46	53400.79
701.65	51911.91
701.84	52727.00
702.03	52847.83
702.22	53091.54
702.41	52419.81
702.60	52602.08
702.79	52462.82
702.98	52133.09
703.17	52595.93
703.35	52237.54
703.54	52331.75
703.73	52436.19
703.92	52212.96
704.11	52655.32
704.30	51934.44
704.49	52114.66
704.68	52090.09
704.87	52823.26
705.06	52339.94
705.25	52133.09
705.43	52090.09
705.62	52419.81
705.81	52235.49
706.00	51983.59
706.19	51578.09
706.38	52282.59
706.57	52497.63
706.76	52055.27
706.95	52165.86
707.14	52372.70
707.32	51709.16
707.51	52024.55
707.70	52016.36
707.89	52317.41
708.08	52030.69
708.27	52317.41
708.46	52819.16
708.65	52180.20
708.84	52085.99
709.02	52014.31
709.21	52327.65
709.40	51909.86
709.59	52249.83
709.78	51856.62
709.97	52354.27
710.16	51985.64
710.34	52554.97
710.53	52075.75
710.72	51555.57
710.91	52389.09
711.10	52004.07
711.29	52151.52
711.48	51834.09
711.66	51942.63
711.85	51875.05
712.04	52020.45
712.23	52229.35
712.42	51598.57
712.61	51823.85
712.80	51868.90
712.98	51901.67
713.17	51541.23
713.36	51705.07
713.55	51805.42
713.74	51645.68
713.93	52049.13
714.11	51617.00
714.30	51639.53
714.49	51576.04
714.68	51860.71
714.87	51565.81
715.06	52067.56
715.24	51424.50
715.43	51715.31
715.62	51475.69
715.81	51213.55
716.00	51594.48
716.18	51223.79
716.37	51135.73
716.56	51098.87
716.75	51199.22
716.94	51361.01
717.12	51125.49
717.31	51500.27
717.50	51201.27
717.69	50871.54
717.88	50853.11
718.06	51021.05
718.25	51092.72
718.44	50818.30
718.63	51408.11
718.82	50341.12
719.00	51045.62
719.19	50656.51
719.38	50394.37
719.57	50062.60
719.76	49833.22
719.94	50373.89
720.13	50324.74
720.32	50328.83
720.51	50375.94
720.69	50423.04
720.88	50636.03
721.07	50042.12
721.26	49845.51
721.44	50181.38
721.63	50222.34
721.82	50035.97
722.01	49642.76
722.20	50152.71
722.38	49585.42
722.57	48952.60
722.76	49894.66
722.95	49915.14
723.13	48995.60
723.32	49507.60
723.51	49708.30
723.70	49345.81
723.88	49491.21
724.07	49059.09
724.26	49612.04
724.44	48764.18
724.63	49399.05
724.82	49243.41
725.01	49483.02
725.19	49444.11
725.38	49403.15
725.57	48692.50
725.76	49126.67
725.94	48594.20
726.13	49075.48
726.32	48887.06
726.51	48268.58
726.69	49413.39
726.88	49251.60
727.07	48915.73
727.25	48692.50
727.44	48923.93
727.63	48706.84
727.82	48717.08
728.00	48510.24
728.19	48698.65
728.38	49022.23
728.56	48401.69
728.75	48657.69
728.94	48624.92
729.12	49102.10
729.31	49116.43
729.50	48514.33
729.69	48659.74
729.87	48651.55
730.06	48598.30
730.25	48919.83
730.43	49243.41
730.62	48495.90
730.81	48923.93
730.99	48985.36
731.18	48342.30
731.37	48755.99
731.55	49050.90
731.74	48674.07
731.93	48321.82
732.11	49075.48
732.30	48500.00
732.49	48219.42
732.67	48629.02
732.86	48682.27
733.05	48770.33
733.23	48309.53
733.42	48549.15
733.61	48196.90
733.79	48434.46
733.98	48643.35
734.17	48411.93
734.35	48176.42
734.54	48354.59
734.73	48530.72
734.91	48379.17
735.10	48237.86
735.29	48321.82
735.47	47928.61
735.66	48166.18
735.84	48145.70
736.03	47834.41
736.22	48610.59
736.40	48000.29
736.59	48119.07
736.78	48112.93
736.96	47547.69
737.15	47940.90
737.33	47713.58
737.52	47947.04
737.71	47609.13
737.89	47850.79
738.08	47291.69
738.27	47551.79
738.45	47617.32
738.64	47625.51
738.82	47607.08
739.01	47594.79
739.20	47369.52
739.38	47645.99
739.57	47314.22
739.75	47674.66
739.94	47424.81
740.13	47267.12
740.31	47781.16
740.50	47142.19
740.68	47678.76
740.87	47582.51
741.06	47408.43
741.24	47349.04
741.43	46843.19
741.61	47039.79
741.80	47162.67
741.99	47062.32
742.17	46974.26
742.36	46912.82
742.54	46970.16
742.73	46861.62
742.91	47177.01
743.10	46628.15
743.29	46951.73
743.47	46705.98
743.66	46781.75
743.84	47084.85
744.03	46671.16
744.21	46517.56
744.40	46882.10
744.59	46581.05
744.77	46282.05
744.96	46617.91
745.14	46806.33
745.33	46832.95
745.51	46529.85
745.70	46726.46
745.88	46355.77
746.07	46724.41
746.26	46292.29
746.44	46099.78
746.63	46404.92
746.81	46507.32
747.00	45753.67
747.18	46245.18
747.37	46386.49
747.55	45868.36
747.74	46005.57
747.92	45460.81
748.11	45946.18
748.29	45919.56
748.48	45755.72
748.66	45524.30
748.85	45614.41
749.03	45847.88
749.22	45606.22
749.41	45163.85
749.59	45335.88
749.78	45344.08
749.96	45045.07
750.15	45512.01
750.33	45245.77
750.52	45055.31
750.70	45524.30
750.89	45065.55
751.07	44973.39
751.26	45108.56
751.44	44557.66
751.63	45217.10
751.81	45055.31
752.00	44541.27
752.18	44834.13
752.37	44442.97
752.55	44277.08
752.74	45014.35
752.92	44318.04
753.10	44420.44
753.29	44612.95
753.47	44344.67
753.66	44229.98
753.84	44752.21
754.03	44160.35
754.21	44139.87
754.40	44373.34
754.58	44322.14
754.77	44043.62
754.95	44203.36
755.14	44051.81
755.32	43865.44
755.51	43883.87
755.69	43564.39
755.88	44047.71
756.06	43783.52
756.24	43781.48
756.43	43595.11
756.61	43965.79
756.80	43560.30
756.98	43603.30
757.17	43427.18
757.35	43930.98
757.54	43251.05
757.72	43480.42
757.90	43418.99
758.09	43158.89
758.27	43478.38
758.46	43044.21
758.64	43015.54
758.83	43394.41
759.01	42990.96
759.19	43054.45
759.38	43269.48
759.56	43339.11
759.75	43023.73
759.93	42810.74
760.12	42730.87
760.30	42780.02
760.48	42589.56
760.67	42743.16
760.85	42499.45
761.04	42743.16
761.22	42407.29
761.40	42509.69
761.59	42489.21
761.77	42149.24
761.96	42401.14
762.14	42163.58
762.32	42100.09
762.51	42341.75
762.69	42276.22
762.88	41807.23
763.06	42253.69
763.24	42055.04
763.43	42114.43
763.61	41530.76
763.80	41719.17
763.98	41930.11
764.16	42028.41
764.35	41661.83
764.53	41461.13
764.72	41538.95
764.90	41739.65
765.08	41383.30
765.27	41751.94
765.45	41186.70
765.63	41098.64
765.82	41348.49
766.00	41276.81
766.18	41477.51
766.37	41620.87
766.55	41190.80
766.74	41164.17
766.92	40947.09
767.10	41063.82
767.29	40981.90
767.47	40736.15
767.65	40607.12
767.84	40351.13
768.02	40633.75
768.20	40433.05
768.39	40590.74
768.57	40426.90
768.75	40635.80
768.94	40476.05
769.12	40203.67
769.30	40322.46
769.49	40099.23
769.67	39835.04
769.85	39749.03
770.04	39855.52
770.22	39949.73
770.40	39607.72
770.59	39968.16
770.77	40048.03
770.95	39724.45
771.14	39777.70
771.32	39163.31
771.50	39374.25
771.69	39697.83
771.87	39994.78
772.05	39361.96
772.24	39394.73
772.42	39298.47
772.60	39206.31
772.78	38870.45
772.97	39040.43
773.15	38897.07
773.33	39163.31
773.52	39009.71
773.70	39124.40
773.88	39232.94
774.07	38989.23
774.25	38481.33
774.43	39001.52
774.61	39269.80
774.80	39380.39
774.98	38919.60
775.16	39179.69
775.34	39157.16
775.53	38782.38
775.71	39280.04
775.89	38864.30
776.08	39310.76
776.26	38839.73
776.44	39253.42
776.62	38938.03
776.81	39169.45
776.99	39591.33
777.17	39085.48
777.35	39347.62
777.54	39624.10
777.72	39007.66
777.90	38804.91
778.08	39280.04
778.27	39140.78
778.45	39048.62
778.63	39607.72
778.81	39292.33
779.00	39493.03
779.18	39196.07
779.36	39804.32
779.54	39550.37
779.73	39302.57
779.91	39679.39
780.09	39470.50
780.27	39122.35
780.46	39761.31
780.64	39681.44
780.82	39196.07
781.00	39450.02
781.19	39538.08
781.37	39746.98
781.55	39617.96
781.73	39761.31
781.91	39742.88
782.10	39568.80
782.28	39620.00
782.46	39523.75
782.64	39675.30
782.82	39712.16
783.01	39902.62
783.19	39585.19
783.37	39724.45
783.55	39486.89
783.74	39837.09
783.92	39570.85
784.10	39837.09
784.28	40056.22
784.46	39548.32
784.64	39798.18
784.83	39388.58
785.01	39896.48
785.19	39912.86
785.37	39695.78
785.55	39656.87
785.74	39523.75
785.92	39419.30
786.10	39579.04
786.28	39468.45
786.46	39417.25
786.64	38989.23
786.83	39312.81
787.01	39407.01
787.19	39331.24
787.37	39495.08
787.55	39398.82
787.74	39099.82
787.92	39366.06
788.10	38858.16
788.28	38671.79
788.46	39071.15
788.64	38600.12
788.82	39093.68
789.01	38946.22
789.19	39183.79
789.37	38573.49
789.55	38639.03
789.73	38673.84
789.91	38516.15
790.09	38591.92
790.28	38194.62
790.46	38122.94
790.64	38755.76
790.82	38323.64
791.00	38358.45
791.18	37918.14
791.36	38602.16
791.55	38163.90
791.73	38204.86
791.91	37600.71
792.09	38022.59
792.27	37854.65
792.45	37569.99
792.63	38004.16
792.81	37473.73
793.00	37942.72
793.18	37406.15
793.36	37440.96
793.54	37475.78
793.72	37135.82
793.90	37344.71
794.08	36658.64
794.26	36822.48
794.44	36740.56
794.62	36824.53
794.81	36967.88
794.99	36742.61
795.17	36705.74
795.35	36799.95
795.53	36769.23
795.71	36636.11
795.89	36457.94
796.07	36472.28
796.25	36083.16
796.43	36124.12
796.61	36011.48
796.80	35692.00
796.98	35915.23
797.16	35671.52
797.34	35646.94
797.52	35859.93
797.70	35851.74
797.88	35587.55
798.06	35329.51
798.24	35311.08
798.42	35530.21
798.60	35393.00
798.78	35276.26
798.96	35409.38
799.14	35128.81
799.32	35071.46
799.51	35048.94
799.69	34901.48
799.87	34702.83
800.05	34711.02
800.23	34790.89
800.41	34350.58
800.59	34407.92
800.77	34954.73
800.95	34135.54
801.13	34297.33
801.31	34235.89
801.49	34661.87
801.67	33998.33
801.85	34235.89
802.03	33852.92
802.21	33834.49
802.39	34162.17
802.57	33897.98
802.75	34008.57
802.93	33846.78
803.11	33756.67
803.29	33121.80
803.47	33398.27
803.65	33353.22
803.83	33117.70
804.01	33250.82
804.19	33091.08
804.37	32724.49
804.55	32937.48
804.73	33089.03
804.91	32970.25
805.09	32929.29
805.27	33240.58
805.45	32810.51
805.63	32611.85
805.81	32871.95
805.99	32882.19
806.17	32792.08
806.35	32370.19
806.53	32296.47
806.71	32634.38
806.89	32081.43
807.07	32316.95
807.25	32472.59
807.43	32171.54
807.61	32312.85
807.79	32179.73
807.97	32245.27
808.15	31761.95
808.33	31886.87
808.51	31751.71
808.69	31680.03
808.87	31432.22
809.05	31526.43
809.23	31360.55
809.41	31440.42
809.59	31387.17
809.77	31608.35
809.95	30987.82
810.13	31393.31
810.31	31151.65
810.49	31186.47
810.67	31194.66
810.84	31143.46
811.02	31467.04
811.20	30424.62
811.38	30559.79
811.56	30533.17
811.74	30869.03
811.92	30889.51
812.10	30647.85
812.28	30856.75
812.46	30600.75
812.64	30627.37
812.82	30334.51
813.00	30338.61
813.18	30486.06
813.36	30369.33
813.53	30152.24
813.71	30400.05
813.89	30139.96
814.07	30197.30
814.25	30398.00
814.43	30180.92
814.61	29996.60
814.79	30197.30
814.97	30002.74
815.15	29730.36
815.33	29574.72
815.50	29607.48
815.68	29535.81
815.86	29767.23
816.04	29296.19
816.22	29396.54
816.40	29347.39
816.58	29630.01
816.76	29150.79
816.94	29361.73
817.11	29001.29
817.29	29107.78
817.47	29144.64
817.65	29009.48
817.83	29081.16
818.01	29249.09
818.19	28876.36
818.37	29021.77
818.54	28960.33
818.72	28755.53
818.90	29097.54
819.08	29156.93
819.26	28706.38
819.44	28618.32
819.62	28917.32
819.80	28503.63
819.97	28589.64
820.15	28143.19
820.33	28302.93
820.51	28442.19
820.69	28169.81
820.87	28544.59
821.05	28780.10
821.22	28360.27
821.40	28294.74
821.58	27895.38
821.76	28024.40
821.94	28243.54
822.12	28171.86
822.29	28061.27
822.47	28139.09
822.65	28264.02
822.83	27844.18
823.01	28073.56
823.19	27846.23
823.36	27965.01
823.54	27727.45
823.72	27788.89
823.90	27790.94
824.08	27676.25
824.25	27565.66
824.43	27227.74
824.61	27704.92
824.79	27715.16
824.97	27629.15
825.15	27551.32
825.32	27418.21
825.50	27080.29
825.68	27313.76
825.86	27729.50
826.04	27489.88
826.21	27360.86
826.39	27512.41
826.57	27215.46
826.75	27362.91
826.93	26996.32
827.10	27080.29
827.28	27229.79
827.46	27219.55
827.64	27324.00
827.81	27084.39
827.99	27031.14
828.17	26820.20
828.35	26816.10
828.53	26961.51
828.70	26857.06
828.88	26889.83
829.06	26809.96
829.24	26936.93
829.41	26732.14
829.59	26721.90
829.77	26652.27
829.95	26646.12
830.12	26787.43
830.30	26707.56
830.48	26736.23
830.66	26603.11
830.84	26787.43
831.01	26154.61
831.19	26644.07
831.37	26678.89
831.55	26248.82
831.72	26193.52
831.90	26447.47
832.08	26117.75
832.25	26175.09
832.43	26078.83
832.61	26095.22
832.79	25785.97
832.96	26064.50
833.14	26050.16
833.32	26547.82
833.50	26377.84
833.67	26394.22
833.85	26037.87
834.03	25554.55
834.20	26060.40
834.38	25749.11
834.56	25861.75
834.74	25749.11
834.91	25607.80
835.09	25699.96
835.27	25394.81
835.44	25499.26
835.62	25177.73
835.80	25474.68
835.98	25615.99
836.15	25437.82
836.33	25376.38
836.51	25661.05
836.68	25433.72
836.86	25374.33
837.04	25570.94
837.21	25525.88
837.39	25642.62
837.57	25462.40
837.75	25210.50
837.92	25114.24
838.10	25439.87
838.28	25101.95
838.45	25173.63
838.63	25116.29
838.81	25163.39
838.98	25222.78
839.16	24839.81
839.34	25077.38
839.51	25015.94
839.69	24946.31
839.87	24938.12
840.04	24891.01
840.22	25183.87
840.40	24780.42
840.57	24942.21
840.75	24845.96
840.93	24530.57
841.10	25114.24
841.28	24931.97
841.46	24579.72
841.63	24997.51
841.81	24700.55
841.98	24901.25
842.16	24718.98
842.34	24678.02
842.51	24602.25
842.69	24692.36
842.87	24479.37
843.04	24567.43
843.22	24432.27
843.40	24393.36
843.57	24170.13
843.75	24526.47
843.92	24671.88
844.10	24178.32
844.28	24264.33
844.45	24522.38
844.63	24307.34
844.81	24284.81
844.98	24376.97
845.16	24088.21
845.33	24110.74
845.51	24075.92
845.69	24032.91
845.86	24082.06
846.04	23852.69
846.21	23746.20
846.39	23977.62
846.57	23905.94
846.74	24041.11
846.92	23985.81
847.09	23821.97
847.27	23805.59
847.45	23926.42
847.62	23877.27
847.80	23905.94
847.97	23813.78
848.15	23850.64
848.32	23451.29
848.50	23428.76
848.68	23414.43
848.85	23529.11
849.03	23295.64
849.20	23588.50
849.38	23348.89
849.56	23602.84
849.73	23490.20
849.91	23238.30
850.08	23586.46
850.26	23250.59
850.43	23379.61
850.61	23264.92
850.78	23264.92
850.96	23127.71
851.14	22935.20
851.31	23254.69
851.49	23328.41
851.66	23359.13
851.84	23269.02
852.01	23041.70
852.19	23066.27
852.36	22980.26
852.54	23207.58
852.71	22859.43
852.89	23117.47
853.07	22941.35
853.24	22961.83
853.42	22726.31
853.59	23047.84
853.77	22994.59
853.94	22890.15
854.12	22898.34
854.29	22531.75
854.47	23017.12
854.64	22765.22
854.82	22673.06
854.99	23058.08
855.17	22611.62
855.34	22384.30
855.52	22920.87
855.69	22898.34
855.87	22541.99
856.04	22437.55
856.22	22591.14
856.39	22429.35
856.57	22580.90
856.74	22343.34
856.92	22191.79
857.09	22331.05
857.27	22449.83
857.44	22431.40
857.62	22503.08
857.79	22206.13
857.97	22251.18
858.14	22210.22
858.32	22224.56
858.49	22179.50
858.67	22116.01
858.84	22087.34
859.02	22107.82
859.19	21833.39
859.37	21702.32
859.54	21853.87
859.72	22091.44
859.89	21438.14
860.06	22042.29
860.24	21642.93
860.41	21968.56
860.59	21493.43
860.76	21782.20
860.94	21544.63
861.11	21792.44
861.29	21622.45
861.46	21968.56
861.64	21614.26
861.81	21749.43
861.98	21548.73
862.16	21323.45
862.33	21161.66
862.51	21464.76
862.68	21434.04
862.86	21618.36
863.03	21407.42
863.21	21538.49
863.38	21411.51
863.55	21083.84
863.73	21411.51
863.90	21157.57
864.08	21202.62
864.25	21284.54
864.43	21458.62
864.60	21251.77
864.77	20909.76
864.95	21188.28
865.12	20664.00
865.30	20707.01
865.47	21157.57
865.64	21171.90
865.82	20735.68
865.99	21089.98
866.17	20657.86
866.34	20876.99
866.51	20297.42
866.69	20717.25
866.86	20889.28
867.04	20690.63
867.21	20459.21
867.38	20455.11
867.56	20647.62
867.73	20260.55
867.91	20217.55
868.08	20250.32
868.25	20442.82
868.43	20473.54
868.60	20436.68
868.78	20174.54
868.95	20242.12
869.12	20250.32
869.30	19971.79
869.47	20426.44
869.64	20154.06
869.82	20154.06
869.99	19846.87
870.16	20285.13
870.34	20088.53
870.51	20078.29
870.69	19771.09
870.86	20223.69
871.03	19939.02
871.21	19992.27
871.38	19988.18
871.55	19726.04
871.73	19814.10
871.90	19605.20
872.07	19672.79
872.25	19603.16
872.42	19801.81
872.59	19617.49
872.77	19533.53
872.94	19640.02
873.11	19578.58
873.29	19267.29
873.46	19293.91
873.63	19511.00
873.81	19287.77
873.98	18974.43
874.15	19355.35
874.33	18994.91
874.50	18853.60
874.67	19003.10
874.85	19113.69
875.02	19142.36
875.19	18812.64
875.37	19035.87
875.54	18917.09
875.71	18818.78
875.88	18638.56
876.06	18857.70
876.23	18575.08
876.40	18554.60
876.58	18439.91
876.75	18575.08
876.92	18372.33
877.10	18630.37
877.27	18540.26
877.44	18448.10
877.61	18321.13
877.79	18669.28
877.96	18437.86
878.13	18071.28
878.31	18347.75
878.48	18095.85
878.65	18104.04
878.82	18065.13
879.00	18220.78
879.17	18097.90
879.34	18155.24
879.51	17932.01
879.69	17950.45
879.86	17923.82
880.03	17940.21
880.21	17749.75
880.38	17823.47
880.55	17950.45
880.72	17596.15
880.90	17874.67
881.07	17774.32
881.24	17643.25
881.41	17579.76
881.59	17538.80
881.76	17450.74
881.93	17581.81
882.10	17207.03
882.28	17379.06
882.45	17587.96
882.62	17487.61
882.79	17473.27
882.96	17000.19
883.14	17350.39
883.31	17454.84
883.48	17100.54
883.65	17278.71
883.83	17477.37
884.00	17467.13
884.17	17350.39
884.34	17149.69
884.51	17080.06
884.69	17047.29
884.86	17196.79
885.03	17008.38
885.20	17125.11
885.38	17014.52
885.55	16858.88
885.72	16961.28
885.89	16977.66
886.06	16996.09
886.24	16938.75
886.41	16830.21
886.58	17082.11
886.75	17379.06
886.92	16916.22
887.10	17018.62
887.27	16578.31
887.44	16713.47
887.61	16809.73
887.78	17123.07
887.95	16744.19
888.13	16551.68
888.30	16584.45
888.47	16574.21
888.64	16518.92
888.81	16631.55
888.99	16617.22
889.16	16414.47
889.33	16193.29
889.50	16418.57
889.67	16502.53
889.84	16142.09
890.01	16469.76
890.19	16086.79
890.36	16244.49
890.53	16285.45
890.70	16332.55
890.87	16297.74
891.04	16142.09
891.22	15986.44
891.39	15916.81
891.56	15941.39
891.73	15916.81
891.90	16258.82
892.07	15699.73
892.24	15935.24
892.42	15697.68
892.59	15855.37
892.76	15890.19
892.93	15660.82
893.10	15818.51
893.27	15683.34
893.44	15501.08
893.61	15636.24
893.79	15736.59
893.96	15587.09
894.13	15664.91
894.30	15689.49
894.47	15701.78
894.64	15849.23
894.81	15664.91
894.98	15718.16
895.15	15886.09
895.33	15630.10
895.50	15435.54
895.67	15838.99
895.84	15408.92
896.01	15517.46
896.18	15210.26
896.35	15519.51
896.52	15482.64
896.69	15535.89
896.86	15591.19
897.04	15304.47
897.21	15525.65
897.38	15550.23
897.55	15210.26
897.72	15453.97
897.89	15345.43
898.06	15380.25
898.23	15585.04
898.40	15507.22
898.57	15521.56
898.74	15679.25
898.91	15302.42
899.08	15378.20
899.26	15197.98
899.43	15271.70
899.60	15195.93
899.77	15159.06
899.94	15279.89
900.11	15236.89
900.28	15415.06
900.45	15355.67
900.62	15273.75
900.79	15355.67
900.96	15453.97
901.13	15210.26
901.30	15290.13
901.47	15230.74
901.64	15337.24
901.81	15445.78
901.98	15087.39
902.15	15292.18
902.32	15161.11
902.49	15286.04
902.66	15312.66
902.83	15337.24
903.01	15218.46
903.18	15206.17
903.35	15380.25
903.52	15263.51
903.69	15247.13
903.86	15304.47
904.03	15109.91
904.20	15228.70
904.37	15462.16
904.54	15132.44
904.71	15097.63
904.88	15179.54
905.05	14759.71
905.22	15206.17
905.39	15021.85
905.56	15142.68
905.73	15243.03
905.90	15253.27
906.07	15011.61
906.24	15337.24
906.41	15390.49
906.58	15185.69
906.75	15017.75
906.92	14995.23
907.09	15085.34
907.26	14907.16
907.43	14952.22
907.60	15163.16
907.77	15023.90
907.93	15204.12
908.10	15068.95
908.27	15175.45
908.44	14683.94
908.61	14825.25
908.78	14788.38
908.95	14946.08
909.12	14808.86
909.29	14978.84
909.46	14962.46
909.63	14802.72
909.80	14841.63
909.97	14882.59
910.14	15034.14
910.31	14950.17
910.48	14784.29
910.65	14958.36
910.82	14825.25
910.99	14720.80
911.16	14868.25
911.33	14778.14
911.50	14790.43
911.66	14685.98
911.83	14735.14
912.00	14538.53
912.17	14356.26
912.34	14653.22
912.51	14413.60
912.68	14413.60
912.85	14653.22
913.02	14602.02
913.19	14194.47
913.36	14518.05
913.53	14440.23
913.70	14247.72
913.86	14468.90
914.03	14231.33
914.20	14083.88
914.37	14247.72
914.54	14292.77
914.71	14276.39
914.88	14257.96
915.05	14038.83
915.22	14143.27
915.39	14010.15
915.55	14159.66
915.72	13756.21
915.89	14165.80
916.06	13756.21
916.23	13905.71
916.40	13848.36
916.57	13834.03
916.74	13731.63
916.91	13655.86
917.07	13586.22
917.24	13836.08
917.41	13612.85
917.58	13604.66
917.75	13643.57
917.92	13385.52
918.09	13324.08
918.26	13516.59
918.42	13522.74
918.59	13567.79
918.76	13272.89
918.93	13133.62
919.10	13147.96
919.27	13190.97
919.44	13317.94
919.60	13180.73
919.77	12906.30
919.94	13082.42
920.11	12951.35
920.28	12816.19
920.45	12707.65
920.61	12666.69
920.78	12818.24
920.95	12808.00
921.12	12760.89
921.29	12734.27
921.46	12744.51
921.62	12529.47
921.79	12545.86
921.96	12554.05
922.13	12554.05
922.30	12404.55
922.47	12416.83
922.63	12193.61
922.80	12287.81
922.97	12115.78
923.14	11941.71
923.31	12253.00
923.47	12146.50
923.64	12287.81
923.81	12015.43
923.98	12062.54
924.15	11984.71
924.32	11929.42
924.48	11962.19
924.65	11915.08
924.82	11837.26
924.99	11587.41
925.15	11366.23
925.32	11681.61
925.49	11366.23
925.66	11554.64
925.83	11497.30
925.99	11546.45
926.16	11562.83
926.33	11519.82
926.50	11153.24
926.67	11409.23
926.83	11304.79
927.00	11110.23
927.17	11054.94
927.34	10944.34
927.50	10991.45
927.67	11003.74
927.84	10979.16
928.01	10938.20
928.17	10911.58
928.34	10878.81
928.51	10946.39
928.68	10657.63
928.84	10608.48
929.01	10592.09
929.18	10444.64
929.35	10370.91
929.51	10377.06
929.68	10450.78
929.85	10383.20
930.02	10624.86
930.18	10293.09
930.35	10223.46
930.52	10317.67
930.69	10182.50
930.85	10334.05
931.02	10223.46
931.19	10139.49
931.36	10168.16
931.52	10014.57
931.69	10100.58
931.86	9942.89
932.02	9820.01
932.19	9801.58
932.36	9688.94
932.53	9690.99
932.69	9623.41
932.86	9709.42
933.03	9664.36
933.19	9420.66
933.36	9389.94
933.53	9461.62
933.70	9299.83
933.86	9416.56
934.03	9205.62
934.20	9170.80
934.36	9211.76
934.53	9222.00
934.70	8920.95
934.86	9078.65
935.03	8859.51
935.20	8791.93
935.36	8769.40
935.53	8652.67
935.70	8615.80
935.86	8853.37
936.03	8505.21
936.20	8490.88
936.36	8314.75
936.53	8451.97
936.70	8214.40
936.86	8529.79
937.03	8195.97
937.20	7925.64
937.36	8048.52
937.53	7925.64
937.70	7720.84
937.86	7675.79
938.03	7581.58
938.20	7710.60
938.36	7460.75
938.53	7604.11
938.70	7401.36
938.86	7503.76
939.03	7059.35
939.20	7094.16
939.36	7102.36
939.53	7065.49
939.70	7077.78
939.86	6762.39
940.03	6614.94
940.19	6682.52
940.36	6606.75
940.53	6573.98
940.69	6401.95
940.86	6401.95
941.03	6244.26
941.19	6180.77
941.36	6238.11
941.52	6205.35
941.69	6051.75
941.86	5971.88
942.02	6018.98
942.19	5883.81
942.35	5900.20
942.52	5924.77
942.69	5838.76
942.85	5719.98
943.02	5771.18
943.18	5752.74
943.35	5742.50
943.52	5529.52
943.68	5631.91
943.85	5619.63
944.01	5437.36
944.18	5420.97
944.35	5527.47
944.51	5425.07
944.68	5410.73
944.84	5386.16
945.01	5173.17
945.17	5361.58
945.34	5320.62
945.51	5353.39
945.67	5267.38
945.84	5353.39
946.00	5253.04
946.17	5189.55
946.33	5169.07
946.50	5164.98
946.67	5201.84
946.83	5087.15
947.00	5250.99
947.16	5138.35
947.33	5183.41
947.49	5187.50
947.66	5199.79
947.82	5097.39
947.99	5033.91
948.16	5250.99
948.32	5193.65
948.49	5210.03
948.65	5257.14
948.82	5068.72
948.98	5111.73
949.15	4995.00
949.31	5126.07
949.48	5056.43
949.64	5154.74
949.81	5177.26
949.97	5087.15
950.14	5195.70
950.30	5046.20
950.47	5179.31
950.63	5132.21
950.80	5207.98
950.96	5175.22
951.13	5238.70
951.30	5050.29
951.46	5285.81
951.63	5355.44
951.79	5351.34
951.96	5164.98
952.12	5119.92
952.29	5214.13
952.45	5152.69
952.62	5193.65
952.78	5097.39
952.94	5105.59
953.11	5132.21
953.27	5134.26
953.44	5412.78
953.60	5232.56
953.77	5431.21
953.93	5263.28
954.10	5173.17
954.26	5228.46
954.43	5189.55
954.59	5377.97
954.76	5394.35
954.92	5230.51
955.09	5250.99
955.25	5130.16
955.42	5330.86
955.58	5269.42
955.75	5291.95
955.91	5277.62
956.07	5257.14
956.24	5324.72
956.40	5386.16
956.57	5277.62
956.73	5119.92
956.90	5234.61
957.06	5349.29
957.23	5287.86
957.39	5212.08
957.56	5318.57
957.72	5216.18
957.88	5384.11
958.05	5400.49
958.21	5248.94
958.38	5392.30
958.54	5259.18
958.71	5298.10
958.87	5083.06
959.03	5373.87
959.20	5228.46
959.36	5326.77
959.53	5183.41
959.69	5099.44
959.85	5212.08
960.02	5312.43
960.18	5267.38
960.35	5328.81
960.51	5257.14
960.68	5400.49
960.84	5212.08
961.00	5289.90
961.17	5191.60
961.33	5302.19
961.50	5187.50
961.66	5396.40
961.82	5185.46
961.99	5259.18
962.15	5269.42
962.31	5121.97
962.48	5089.20
962.64	5121.97
962.81	5218.22
962.97	5232.56
963.13	5242.80
963.30	5246.90
963.46	5197.74
963.62	5140.40
963.79	5250.99
963.95	5167.03
964.12	5230.51
964.28	5289.90
964.44	5021.62
964.61	5216.18
964.77	5156.79
964.93	5377.97
965.10	5218.22
965.26	5146.55
965.42	5062.58
965.59	5201.84
965.75	5095.35
965.92	5240.75
966.08	5126.07
966.24	5152.69
966.41	5126.07
966.57	5040.05
966.73	5005.24
966.90	5160.88
967.06	5038.00
967.22	5046.20
967.39	4995.00
967.55	4925.36
967.71	5074.87
967.88	5087.15
968.04	4935.60
968.20	4992.95
968.37	4978.61
968.53	4937.65
968.69	5013.43
968.85	5048.24
969.02	4972.47
969.18	4972.47
969.34	5050.29
969.51	4943.80
969.67	4999.09
969.83	4849.59
970.00	4933.56
970.16	4966.32
970.32	4974.52
970.48	5042.10
970.65	4917.17
970.81	4865.97
970.97	4777.91
971.14	4718.52
971.30	4927.41
971.46	4835.25
971.63	4810.68
971.79	5005.24
971.95	4777.91
972.11	4648.89
972.28	4620.22
972.44	4900.79
972.60	4786.10
972.76	4675.51
972.93	4736.95
973.09	4747.19
973.25	4681.66
973.42	4671.42
973.58	4782.01
973.74	4642.75
973.90	4769.72
974.07	4640.70
974.23	4800.44
974.39	4761.53
974.55	4677.56
974.72	4601.79
974.88	4521.92
975.04	4614.07
975.20	4620.22
975.37	4655.03
975.53	4526.01
975.69	4712.38
975.85	4579.26
976.01	4689.85
976.18	4640.70
976.34	4523.96
976.50	4642.75
976.66	4620.22
976.83	4480.96
976.99	4538.30
977.15	4601.79
977.31	4435.90
977.47	4474.81
977.64	4415.42
977.80	4440.00
977.96	4433.85
978.12	4562.87
978.29	4546.49
978.45	4298.69
978.61	4478.91
978.77	4431.80
978.93	4382.65
979.10	4511.68
979.26	4329.41
979.42	4351.93
979.58	4458.43
979.74	4353.98
979.91	4403.13
980.07	4331.45
980.23	4353.98
980.39	4272.06
980.55	4241.34
980.71	4302.78
980.88	4239.30
981.04	4310.97
981.20	4292.54
981.36	4298.69
981.52	4270.01
981.68	4235.20
981.85	4194.24
982.01	4313.02
982.17	4255.68
982.33	4163.52
982.49	4216.77
982.65	4243.39
982.82	4136.90
982.98	4173.76
983.14	4112.32
983.30	4173.76
983.46	4276.16
983.62	4175.81
983.79	4128.70
983.95	4048.83
984.11	4083.65
984.27	4157.38
984.43	4067.27
984.59	4155.33
984.75	4108.23
984.91	4034.50
985.08	4050.88
985.24	3977.16
985.40	3864.52
985.56	3919.81
985.72	4079.55
985.88	4091.84
986.04	3991.49
986.20	3917.76
986.37	4054.98
986.53	3899.33
986.69	3932.10
986.85	3921.86
987.01	3950.53
987.17	3915.72
987.33	3966.92
987.49	3841.99
987.65	3968.96
987.82	3823.56
987.98	3854.28
988.14	3923.91
988.30	3872.71
988.46	3956.68
988.62	3901.38
988.78	3706.82
988.94	3790.79
989.10	3669.96
989.26	3706.82
989.42	3725.26
989.59	3829.70
989.75	3768.26
989.91	3700.68
990.07	3669.96
990.23	3778.50
990.39	3764.17
990.55	3723.21
990.71	3610.57
990.87	3690.44
991.03	3655.62
991.19	3545.03
991.35	3706.82
991.51	3665.86
991.67	3690.44
991.83	3622.86
992.00	3639.24
992.16	3538.89
992.32	3678.15
992.48	3585.99
992.64	3475.40
992.80	3626.95
992.96	3573.71
993.12	3602.38
993.28	3645.38
993.44	3610.57
993.60	3674.06
993.76	3567.56
993.92	3639.24
994.08	3657.67
994.24	3542.99
994.40	3495.88
994.56	3674.06
994.72	3506.12
994.88	3616.71
995.04	3454.92
995.20	3434.44
995.36	3440.59
995.52	3569.61
995.68	3418.06
995.84	3401.68
996.00	3506.12
996.16	3342.28
996.32	3493.83
996.48	3485.64
996.64	3508.17
996.80	3354.57
996.96	3420.11
997.12	3364.81
997.28	3237.84
997.44	3311.57
997.60	3241.93
997.76	3278.80
997.92	3303.37
998.08	3315.66
998.24	3225.55
998.40	3299.28
998.56	3313.61
998.72	3354.57
998.88	3336.14
999.04	3184.59
999.20	3323.85
999.36	3176.40
999.52	3364.81
999.68	3168.21
999.84	3332.05
1000.00	3223.50
1000.16	3151.82
1000.32	3205.07
1000.48	3223.50
1000.64	3067.86
1000.80	3184.59
1000.95	3026.90
1001.11	3215.31
1001.27	3082.19
1001.43	3215.31
1001.59	2994.13
1001.75	3035.09
1001.91	3071.95
1002.07	3114.96
1002.23	2932.69
1002.39	2965.46
1002.55	3067.86
1002.71	3012.56
1002.87	3084.24
1003.03	3020.75
1003.19	3026.90
1003.34	3071.95
1003.50	3055.57
1003.66	2965.46
1003.82	3041.23
1003.98	2904.02
1004.14	3028.95
1004.30	2961.36
1004.46	2975.70
1004.62	2971.60
1004.78	2949.08
1004.94	2961.36
1005.09	3069.91
1005.25	3053.52
1005.41	2926.55
1005.57	2961.36
1005.73	2930.64
1005.89	2889.68
1006.05	2969.55
1006.21	2967.51
1006.37	2822.10
1006.52	2891.73
1006.68	2863.06
1006.84	3022.80
1007.00	2832.34
1007.16	2893.78
1007.32	2912.21
1007.48	2916.31
1007.64	2944.98
1007.79	2852.82
1007.95	2760.66
1008.11	2832.34
1008.27	2805.72
1008.43	2865.11
1008.59	2791.38
1008.75	2803.67
1008.91	2811.86
1009.06	2789.33
1009.22	2752.47
1009.38	2787.29
1009.54	2760.66
1009.70	2713.56
1009.86	2805.72
1010.01	2834.39
1010.17	2727.89
1010.33	2731.99
1010.49	2736.09
1010.65	2779.09
1010.81	2758.61
1010.96	2723.80
1011.12	2721.75
1011.28	2582.49
1011.44	2727.89
1011.60	2549.72
1011.76	2594.78
1011.91	2750.42
1012.07	2562.01
1012.23	2578.39
1012.39	2609.11
1012.55	2678.74
1012.71	2652.12
1012.86	2592.73
1013.02	2688.98
1013.18	2541.53
1013.34	2566.10
1013.50	2645.98
1013.65	2695.13
1013.81	2602.97
1013.97	2598.87
1014.13	2613.21
1014.29	2643.93
1014.44	2562.01
1014.60	2594.78
1014.76	2473.95
1014.92	2576.34
1015.07	2555.86
1015.23	2478.04
1015.39	2510.81
1015.55	2527.19
1015.71	2576.34
1015.86	2486.23
1016.02	2566.10
1016.18	2445.27
1016.34	2512.86
1016.49	2469.85
1016.65	2541.53
1016.81	2437.08
1016.97	2523.10
1017.12	2510.81
1017.28	2469.85
1017.44	2379.74
1017.60	2437.08
1017.75	2525.15
1017.91	2416.60
1018.07	2449.37
1018.23	2459.61
1018.38	2439.13
1018.54	2336.73
1018.70	2416.60
1018.86	2439.13
1019.01	2389.98
1019.17	2453.47
1019.33	2473.95
1019.49	2424.80
1019.64	2394.08
1019.80	2373.60
1019.96	2357.21
1020.12	2377.69
1020.27	2191.33
1020.43	2351.07
1020.59	2361.31
1020.74	2385.88
1020.90	2467.80
1021.06	2289.63
1021.22	2320.35
1021.37	2344.92
1021.53	2334.68
1021.69	2355.16
1021.84	2197.47
1022.00	2213.85
1022.16	2234.33
1022.31	2220.00
1022.47	2353.12
1022.63	2287.58
1022.79	2127.84
1022.94	2289.63
1023.10	2371.55
1023.26	2148.32
1023.41	2291.68
1023.57	2275.29
1023.73	2299.87
1023.88	2224.09
1024.04	2199.52
1024.20	2166.75
1024.35	2189.28
1024.51	2242.53
1024.67	2316.25
1024.82	2330.59
1024.98	2195.42
1025.14	2263.01
1025.29	2199.52
1025.45	2267.10
1025.61	2176.99
1025.76	2193.37
1025.92	2148.32
1026.08	2179.04
1026.23	2162.66
1026.39	2283.49
1026.55	2207.71
1026.70	2142.18
1026.86	2113.50
1027.02	2199.52
1027.17	2172.89
1027.33	2205.66
1027.48	2146.27
1027.64	2064.35
1027.80	2084.83
1027.95	2133.98
1028.11	2045.92
1028.27	2185.18
1028.42	2166.75
1028.58	2035.68
1028.73	2111.46
1028.89	1998.82
1029.05	2281.44
1029.20	2170.85
>>>>>End Processed Spectral Data<<<<<
