SpectraSuite Data File
++++++++++++++++++++++++++++++++++++
Date: Fri Jun 02 14:51:10 CEST 2017
User: INFO_000
Dark Spectrum Present: No
Reference Spectrum Present: No
Number of Sampled Component Spectra: 1
Spectrometers: USB4H00879
Integration Time (usec): 80000 (USB4H00879)
Spectra Averaged: 1 (USB4H00879)
Boxcar Smoothing: 0 (USB4H00879)
Correct for Electrical Dark: No (USB4H00879)
Strobe/Lamp Enabled: No (USB4H00879)
Correct for Detector Non-linearity: No (USB4H00879)
Correct for Stray Light: No (USB4H00879)
Number of Pixels in Processed Spectrum: 3648
>>>>>Begin Processed Spectral Data<<<<<
345.13	1269.74
345.34	1269.74
345.56	1269.74
345.78	1263.60
345.99	1269.74
346.21	1722.34
346.42	1814.50
346.64	1605.61
346.86	1712.10
347.07	1689.57
347.29	1687.53
347.50	1638.38
347.72	1654.76
347.94	1705.96
348.15	1568.74
348.37	1607.66
348.59	1687.53
348.80	1675.24
349.02	1779.68
349.23	1824.74
349.45	1839.08
349.67	1871.84
349.88	1814.50
350.10	1951.71
350.31	1867.75
350.53	1798.12
350.75	1970.15
350.96	1771.49
351.18	1896.42
351.39	1826.79
351.61	1779.68
351.82	1888.23
352.04	1904.61
352.26	1781.73
352.47	1902.56
352.69	1896.42
352.90	1771.49
353.12	1855.46
353.34	1791.97
353.55	1937.38
353.77	1847.27
353.98	1757.16
354.20	1908.71
354.41	1859.56
354.63	1898.47
354.85	2078.69
355.06	1949.67
355.28	1771.49
355.49	1892.32
355.71	1837.03
355.92	1802.21
356.14	1896.42
356.35	1875.94
356.57	1824.74
356.79	1898.47
357.00	1882.08
357.22	1947.62
357.43	1920.99
357.65	2017.25
357.86	1880.04
358.08	1892.32
358.29	1957.86
358.51	1994.72
358.72	1961.95
358.94	1951.71
359.16	1914.85
359.37	1923.04
359.59	1951.71
359.80	1974.24
360.02	1935.33
360.23	1943.52
360.45	2031.58
360.66	1904.61
360.88	1837.03
361.09	1988.58
361.31	1916.90
361.52	1920.99
361.74	1957.86
361.95	2070.50
362.17	1951.71
362.38	2056.16
362.60	2093.02
362.81	1912.80
363.03	2011.11
363.24	1984.48
363.46	1951.71
363.67	2056.16
363.89	1970.15
364.10	2007.01
364.32	1888.23
364.53	2105.31
364.75	1892.32
364.96	1986.53
365.18	1996.77
365.39	2033.63
365.61	1970.15
365.82	2162.66
366.04	2064.35
366.25	2013.15
366.47	2017.25
366.68	2027.49
366.90	2002.91
367.11	2052.06
367.33	2052.06
367.54	2004.96
367.76	2000.87
367.97	2111.46
368.19	2021.35
368.40	2013.15
368.62	1992.67
368.83	2009.06
369.05	2084.83
369.26	1904.61
369.48	2043.87
369.69	1980.39
369.91	2090.98
370.12	2068.45
370.33	2109.41
370.55	1914.85
370.76	2058.21
370.98	2111.46
371.19	2117.60
371.41	1959.91
371.62	2043.87
371.84	1976.29
372.05	2189.28
372.27	2054.11
372.48	2093.02
372.69	2074.59
372.91	2207.71
373.12	2220.00
373.34	2123.74
373.55	2088.93
373.77	2189.28
373.98	2121.70
374.20	2144.22
374.41	2265.05
374.62	2099.17
374.84	2047.97
375.05	2156.51
375.27	2105.31
375.48	2168.80
375.70	2146.27
375.91	2230.24
376.12	2260.96
376.34	2111.46
376.55	2146.27
376.77	2203.61
376.98	2060.26
377.19	2090.98
377.41	2070.50
377.62	2172.89
377.84	2271.20
378.05	2334.68
378.27	2191.33
378.48	2275.29
378.69	2301.92
378.91	2220.00
379.12	2246.62
379.34	2224.09
379.55	2260.96
379.76	2236.38
379.98	2189.28
380.19	2240.48
380.41	2195.42
380.62	2254.81
380.83	2222.05
381.05	2090.98
381.26	2402.27
381.47	2238.43
381.69	2232.29
381.90	2346.97
382.12	2263.01
382.33	2207.71
382.54	2295.77
382.76	2220.00
382.97	2324.44
383.19	2222.05
383.40	2394.08
383.61	2383.84
383.83	2256.86
384.04	2297.82
384.25	2308.06
384.47	2336.73
384.68	2324.44
384.89	2279.39
385.11	2344.92
385.32	2314.20
385.54	2328.54
385.75	2316.25
385.96	2342.88
386.18	2316.25
386.39	2383.84
386.60	2334.68
386.82	2367.45
387.03	2414.56
387.24	2435.03
387.46	2453.47
387.67	2537.43
387.88	2482.14
388.10	2416.60
388.31	2426.84
388.52	2482.14
388.74	2568.15
388.95	2539.48
389.16	2502.62
389.38	2449.37
389.59	2514.91
389.80	2568.15
390.02	2525.15
390.23	2623.45
390.44	2510.81
390.66	2510.81
390.87	2473.95
391.08	2559.96
391.30	2682.84
391.51	2527.19
391.72	2607.06
391.94	2598.87
392.15	2572.25
392.36	2639.83
392.58	2467.80
392.79	2645.98
393.00	2734.04
393.22	2721.75
393.43	2707.41
393.64	2760.66
393.85	2715.61
394.07	2633.69
394.28	2682.84
394.49	2719.70
394.71	2715.61
394.92	2799.57
395.13	2590.68
395.35	2768.85
395.56	2775.00
395.77	2717.65
395.98	2805.72
396.20	2897.88
396.41	2863.06
396.62	2781.14
396.84	2809.81
397.05	2799.57
397.26	2836.44
397.47	2912.21
397.69	2791.38
397.90	2979.79
398.11	3000.27
398.32	2887.64
398.54	2834.39
398.75	2766.81
398.96	2830.29
399.18	3123.15
399.39	2895.83
399.60	2908.12
399.81	2928.60
400.03	2961.36
400.24	3237.84
400.45	2955.22
400.66	3028.95
400.88	2949.08
401.09	3119.06
401.30	3000.27
401.51	3166.16
401.73	3114.96
401.94	3012.56
402.15	3129.30
402.36	3086.29
402.58	3119.06
402.79	3131.34
403.00	3141.58
403.21	3194.83
403.43	3209.17
403.64	3309.52
403.85	3180.50
404.06	3184.59
404.27	3067.86
404.49	3139.54
404.70	3051.47
404.91	3262.41
405.12	3194.83
405.34	3256.27
405.55	3227.60
405.76	3121.10
405.97	3317.71
406.19	3313.61
406.40	3170.26
406.61	3385.29
406.82	3270.61
407.03	3336.14
407.25	3266.51
407.46	3432.40
407.67	3493.83
407.88	3383.24
408.09	3313.61
408.31	3315.66
408.52	3387.34
408.73	3303.37
408.94	3270.61
409.15	3387.34
409.37	3430.35
409.58	3368.91
409.79	3403.72
410.00	3434.44
410.21	3454.92
410.43	3309.52
410.64	3381.20
410.85	3569.61
411.06	3536.84
411.27	3463.12
411.48	3534.79
411.70	3567.56
411.91	3600.33
412.12	3583.95
412.33	3635.14
412.54	3643.34
412.76	3731.40
412.97	3532.75
413.18	3506.12
413.39	3532.75
413.60	3629.00
413.81	3659.72
414.03	3534.79
414.24	3581.90
414.45	3825.61
414.66	3594.19
414.87	3708.87
415.08	3647.43
415.30	3643.34
415.51	3655.62
415.72	3698.63
415.93	3649.48
416.14	3823.56
416.35	3727.30
416.56	3680.20
416.78	3755.97
416.99	3815.37
417.20	3715.02
417.41	3801.03
417.62	3755.97
417.83	3954.63
418.04	3780.55
418.26	3958.72
418.47	3934.15
418.68	3952.58
418.89	3964.87
419.10	3934.15
419.31	3936.20
419.52	4003.78
419.73	4140.99
419.95	4059.07
420.16	3895.24
420.37	3928.00
420.58	4065.22
420.79	3801.03
421.00	3983.30
421.21	4108.23
421.42	4007.87
421.63	3938.24
421.85	4089.79
422.06	4032.45
422.27	4222.91
422.48	4102.08
422.69	4091.84
422.90	4186.05
423.11	4255.68
423.32	4210.62
423.53	4253.63
423.75	4290.49
423.96	4286.40
424.17	4370.37
424.38	4427.71
424.59	4421.56
424.80	4534.20
425.01	4321.21
425.22	4319.17
425.43	4253.63
425.64	4595.64
425.85	4534.20
426.06	4601.79
426.28	4456.38
426.49	4390.84
426.70	4480.96
426.91	4419.52
427.12	4593.59
427.33	4566.97
427.54	4491.20
427.75	4575.16
427.96	4825.01
428.17	4642.75
428.38	4812.73
428.59	4753.34
428.80	4804.53
429.01	4685.75
429.23	4743.10
429.44	4886.45
429.65	4825.01
429.86	5078.96
430.07	4765.62
430.28	4812.73
430.49	4939.70
430.70	4956.08
430.91	4908.98
431.12	4876.21
431.33	5195.70
431.54	5029.81
431.75	5117.87
431.96	5042.10
432.17	5007.28
432.38	5070.77
432.59	5267.38
432.80	5269.42
433.01	5279.66
433.22	5238.70
433.43	5183.41
433.64	5275.57
433.85	5326.77
434.06	5310.38
434.27	5236.66
434.49	5294.00
434.70	5357.49
434.91	5343.15
435.12	5386.16
435.33	5441.45
435.54	5330.86
435.75	5238.70
435.96	5463.98
436.17	5402.54
436.38	5509.04
436.59	5550.00
436.80	5443.50
437.01	5625.77
437.22	5681.07
437.43	5603.24
437.64	5550.00
437.85	5670.83
438.06	5748.65
438.27	5689.26
438.48	5703.59
438.69	5820.33
438.90	5605.29
439.11	5670.83
439.32	5996.45
439.53	5695.40
439.74	5816.23
439.95	5705.64
440.16	5930.92
440.37	5752.74
440.57	5767.08
440.78	5908.39
440.99	5935.01
441.20	6006.69
441.41	5849.00
441.62	5902.25
441.83	5869.48
442.04	5961.64
442.25	5892.01
442.46	6064.04
442.67	6100.90
442.88	6463.39
443.09	6053.80
443.30	5900.20
443.51	6172.58
443.72	6324.13
443.93	6049.70
444.14	6412.19
444.35	6143.91
444.56	6342.56
444.77	6285.22
444.98	6170.53
445.19	6348.70
445.40	6324.13
445.61	6115.23
445.81	6434.72
446.02	6363.04
446.23	6330.27
446.44	6193.06
446.65	6449.05
446.86	6485.92
447.07	6590.36
447.28	6686.62
447.49	6662.04
447.70	6537.12
447.91	6578.08
448.12	6592.41
448.33	6735.77
448.54	6596.51
448.74	6588.32
448.95	6774.68
449.16	6703.00
449.37	6889.37
449.58	6621.08
449.79	6973.33
450.00	6659.99
450.21	6836.12
450.42	7006.10
450.63	6997.91
450.84	6889.37
451.05	6836.12
451.25	6907.80
451.46	6791.06
451.67	7073.68
451.88	7237.52
452.09	7036.82
452.30	6985.62
452.51	7120.79
452.72	7221.14
452.93	7470.99
453.13	6981.53
453.34	7102.36
453.55	7174.03
453.76	7258.00
453.97	7675.79
454.18	7278.48
454.39	7339.92
454.60	7425.93
454.81	7425.93
455.01	7434.13
455.22	7264.15
455.43	7384.98
455.64	7741.32
455.85	7776.14
456.06	7892.87
456.27	7665.55
456.48	7673.74
456.68	7665.55
456.89	7692.17
457.10	8009.61
457.31	7849.86
457.52	7958.41
457.73	7886.73
457.94	8028.04
458.14	7759.75
458.35	8238.98
458.56	8075.14
458.77	7917.45
458.98	8021.89
459.19	8089.48
459.39	8230.79
459.60	8400.77
459.81	8179.59
460.02	8220.55
460.23	8318.85
460.44	8556.41
460.65	8554.37
460.85	8552.32
461.06	8765.31
461.27	8435.58
461.48	8658.81
461.69	8771.45
461.89	8562.56
462.10	8712.06
462.31	8460.16
462.52	8554.37
462.73	8712.06
462.94	8994.68
463.14	8884.09
463.35	8941.43
463.56	9191.28
463.77	9285.49
463.98	8892.28
464.18	9017.21
464.39	9389.94
464.60	9340.79
464.81	9332.59
465.02	9236.34
465.23	9643.88
465.43	9611.12
465.64	9639.79
465.85	9488.24
466.06	9488.24
466.27	9879.40
466.47	9817.96
466.68	9822.06
466.89	9768.81
467.10	9922.41
467.30	9740.14
467.51	9893.74
467.72	10123.11
467.93	9908.07
468.14	10133.35
468.34	10268.52
468.55	10211.17
468.76	10438.50
468.97	10211.17
469.17	10669.92
469.38	10463.07
469.59	10520.42
469.80	10686.30
470.01	10596.19
470.21	10489.70
470.42	11001.69
470.63	10968.92
470.84	10663.77
471.04	11126.61
471.25	11093.85
471.46	10925.91
471.67	11226.96
471.87	11114.33
472.08	11431.76
472.29	11730.76
472.50	11355.99
472.70	11243.35
472.91	11442.00
473.12	11669.33
473.33	11564.88
473.53	11925.32
473.74	11796.30
473.95	12046.15
474.16	12121.93
474.36	12052.30
474.57	12314.44
474.78	12353.35
474.99	12201.80
475.19	12166.98
475.40	12562.24
475.61	12486.47
475.81	12785.47
476.02	12953.40
476.23	12797.76
476.44	13045.56
476.64	13086.52
476.85	13301.56
477.06	13373.24
477.27	13594.42
477.47	13676.34
477.68	13262.65
477.89	13756.21
478.09	13614.90
478.30	13692.72
478.51	13668.14
478.71	13907.76
478.92	13985.58
479.13	14221.10
479.34	14130.98
479.54	14348.07
479.75	14343.97
479.96	14503.71
480.16	14642.98
480.37	14630.69
480.58	14585.63
480.78	14931.74
480.99	14903.07
481.20	15222.55
481.41	15056.67
481.61	15197.98
481.82	15423.25
482.03	15253.27
482.23	15308.57
482.44	15703.82
482.65	15724.30
482.85	15697.68
483.06	15935.24
483.27	16107.27
483.47	16066.31
483.68	16047.88
483.89	16330.50
484.09	16264.97
484.30	16258.82
484.51	16596.74
484.71	16592.64
484.92	16447.24
485.13	16899.84
485.33	16910.08
485.54	16852.73
485.75	16807.68
485.95	17141.50
486.16	17293.05
486.37	17243.90
486.57	17284.86
486.78	17284.86
486.98	17618.68
487.19	17759.98
487.40	17719.03
487.60	17639.15
487.81	18181.87
488.02	18116.33
488.22	18054.89
488.43	18136.81
488.64	18378.47
488.84	18591.46
489.05	18218.73
489.25	18390.76
489.46	18861.79
489.67	18581.22
489.87	18921.18
490.08	19168.99
490.29	18976.48
490.49	19050.21
490.70	19341.02
490.90	19627.73
491.11	19361.50
491.32	19664.60
491.52	19664.60
491.73	19621.59
491.94	19775.19
492.14	19695.32
492.35	19846.87
492.55	20207.31
492.76	19932.88
492.97	20139.72
493.17	20154.06
493.38	20256.46
493.58	20428.49
493.79	20809.41
494.00	20446.92
494.20	20582.09
494.41	20907.71
494.61	20807.36
494.82	20920.00
495.02	21016.26
495.23	21030.59
495.44	21270.20
495.64	21352.12
495.85	21388.99
496.05	21427.90
496.26	21388.99
496.47	21802.68
496.67	21448.38
496.88	21919.41
497.08	21561.02
497.29	21845.68
497.49	21954.22
497.70	22167.21
497.91	22341.29
498.11	22204.08
498.32	22562.47
498.52	22359.72
498.73	22455.98
498.93	22333.10
499.14	22515.37
499.34	22783.65
499.55	22593.19
499.76	22402.73
499.96	22941.35
500.17	22767.27
500.37	23174.81
500.58	22961.83
500.78	23189.15
500.99	23334.56
501.19	23547.54
501.40	23359.13
501.60	23342.75
501.81	23332.51
502.02	23469.72
502.22	23492.25
502.43	23576.22
502.63	23770.77
502.84	23936.66
503.04	23744.15
503.25	24012.43
503.45	24071.82
503.66	23959.19
503.86	24108.69
504.07	24602.25
504.27	24168.08
504.48	24729.22
504.68	24163.98
504.89	24659.59
505.09	24549.00
505.30	24528.52
505.50	24684.17
505.71	24549.00
505.91	24950.40
506.12	24528.52
506.32	24923.78
506.53	24794.76
506.73	24931.97
506.94	25128.58
507.14	25257.60
507.35	25251.45
507.55	24893.06
507.76	25603.71
507.96	25124.48
508.17	25329.28
508.37	25394.81
508.58	25579.13
508.78	25763.45
508.99	25867.89
509.19	25554.55
509.40	25636.47
509.60	25648.76
509.81	26029.68
510.01	25861.75
510.22	25982.58
510.42	25599.61
510.63	26224.24
510.83	26091.12
511.04	25888.37
511.24	26074.74
511.44	26082.93
511.65	26242.67
511.85	26093.17
512.06	26191.47
512.26	26300.01
512.47	26637.93
512.67	26517.10
512.88	26730.09
513.08	26326.64
513.29	26742.38
513.49	26771.05
513.69	26650.22
513.90	26910.31
514.10	26838.63
514.31	26769.00
514.51	27137.63
514.72	27045.48
514.92	27176.55
515.13	27164.26
515.33	27162.21
515.53	27160.16
515.74	27301.47
515.94	27192.93
516.15	27147.87
516.35	26908.26
516.56	27516.51
516.76	27285.09
516.96	27463.26
517.17	27541.08
517.37	27516.51
517.58	27489.88
517.78	27815.51
517.99	27649.63
518.19	27975.25
518.39	28175.95
518.60	28089.94
518.80	28178.00
519.01	28223.06
519.21	28366.42
519.41	28216.91
519.62	28454.48
519.82	28544.59
520.03	28542.54
520.23	28667.47
520.43	28442.19
520.64	28886.60
520.84	28833.35
521.05	28569.16
521.25	28765.77
521.45	28810.82
521.66	28931.65
521.86	28966.47
522.07	28989.00
522.27	29021.77
522.47	29165.12
522.68	29455.93
522.88	29062.72
523.08	29726.27
523.29	29693.50
523.49	29478.46
523.70	29619.77
523.90	29570.62
524.10	29718.07
524.31	30246.45
524.51	29783.61
524.71	30418.48
524.92	30099.00
525.12	30479.92
525.33	30174.77
525.53	30553.65
525.73	30432.82
525.94	30948.90
526.14	30447.15
526.34	30934.57
526.55	30594.61
526.75	30957.10
526.95	30893.61
527.16	31008.29
527.36	30692.91
527.56	31411.74
527.77	31305.25
527.97	31178.28
528.17	31329.83
528.38	31497.76
528.58	31827.48
528.78	31968.79
528.99	31526.43
529.19	32058.90
529.39	31559.20
529.60	32179.73
529.80	32128.53
530.00	32073.24
530.21	32318.99
530.41	32701.96
530.61	32646.67
530.82	32552.46
531.02	32474.64
531.22	32726.54
531.43	32722.44
531.63	32955.91
531.83	32833.04
532.04	33218.05
532.24	33117.70
532.44	33697.28
532.64	33181.19
532.85	33519.10
533.05	33646.08
533.25	33484.29
533.46	33578.50
533.66	33861.12
533.86	33715.71
534.07	34205.17
534.27	34153.97
534.47	34272.76
534.67	34229.75
534.88	33965.56
535.08	34217.46
535.28	34500.08
535.49	34575.86
535.69	34866.67
535.89	35225.06
536.09	35003.88
536.30	35472.87
536.50	34967.02
536.70	35288.55
536.91	35405.28
537.11	35292.65
537.31	35591.65
537.51	35857.88
537.72	36011.48
537.92	35927.52
538.12	35913.18
538.32	35720.67
538.53	36183.51
538.73	35616.22
538.93	36115.93
539.13	35917.28
539.34	36765.14
539.54	36160.98
539.74	36918.73
539.94	36523.47
540.15	36427.22
540.35	36871.63
540.55	36601.30
540.75	36935.12
540.96	37164.49
541.16	37017.04
541.36	36996.56
541.56	37236.17
541.77	37430.72
541.97	37412.29
542.17	37402.05
542.37	37488.07
542.58	37707.20
542.78	37408.20
542.98	37799.36
543.18	37664.19
543.38	38372.79
543.59	37733.82
543.79	38184.38
543.99	37477.83
544.19	37967.29
544.40	38118.84
544.60	38567.35
544.80	38247.86
545.00	38387.13
545.20	39093.68
545.41	39065.00
545.61	38733.23
545.81	38776.24
546.01	38954.41
546.21	38860.21
546.42	38946.22
546.62	38905.26
546.82	39067.05
547.02	39060.91
547.22	38958.51
547.43	38813.10
547.63	39411.11
547.83	39331.24
548.03	39339.43
548.23	39757.22
548.44	39337.38
548.64	39708.07
548.84	40033.69
549.04	39140.78
549.24	39832.99
549.45	39937.44
549.65	39962.01
549.85	39798.18
550.05	40422.81
550.25	39869.86
550.45	40408.47
550.66	40373.66
550.86	40009.12
551.06	40287.64
551.26	40414.62
551.46	40441.24
551.66	40656.28
551.87	40119.71
552.07	40301.98
552.27	40678.80
552.47	40762.77
552.67	40494.49
552.87	40799.63
553.07	40994.19
553.28	40865.17
553.48	40957.33
553.68	40805.78
553.88	41141.64
554.08	41125.26
554.28	41160.08
554.48	40957.33
554.69	41430.41
554.89	41440.65
555.09	41385.35
555.29	40852.88
555.49	41348.49
555.69	41112.97
555.89	41600.39
556.10	41891.20
556.30	41418.12
556.50	41778.56
556.70	41743.75
556.90	42179.96
557.10	42440.06
557.30	42114.43
557.50	42061.18
557.70	41936.26
557.91	42145.15
558.11	42313.08
558.31	42274.17
558.51	42134.91
558.71	42263.93
558.91	42579.32
559.11	41825.67
559.31	42315.13
559.51	42249.60
559.72	42325.37
559.92	42317.18
560.12	42167.68
560.32	42524.02
560.52	42431.86
560.72	42665.33
560.92	42720.63
561.12	42919.28
561.32	43160.94
561.52	42487.16
561.72	42681.72
561.93	43062.64
562.13	42825.07
562.33	42564.98
562.53	43375.98
562.73	42980.72
562.93	42792.31
563.13	43154.80
563.33	42618.23
563.53	42958.19
563.73	43079.02
563.93	43353.45
564.13	43533.67
564.33	43400.55
564.53	42997.10
564.74	43466.09
564.94	43300.20
565.14	43464.04
565.34	42974.58
565.54	43312.49
565.74	43345.26
565.94	43613.54
566.14	43783.52
566.34	43763.04
566.54	44070.24
566.74	43674.98
566.94	43558.25
567.14	43892.07
567.34	43273.58
567.54	43906.40
567.74	43806.05
567.94	43980.13
568.14	43865.44
568.34	44006.75
568.54	44004.70
568.74	44004.70
568.94	44023.14
569.14	44901.71
569.34	44068.19
569.54	44158.30
569.75	43957.60
569.95	44234.08
570.15	44840.28
570.35	44412.25
570.55	44346.72
570.75	44823.89
570.95	44430.68
571.15	44588.38
571.35	44664.15
571.55	44938.58
571.75	44455.26
571.95	44782.93
572.15	44402.01
572.35	44891.48
572.55	44762.45
572.75	45167.95
572.95	45262.16
573.15	45163.85
573.35	44868.95
573.55	44883.28
573.75	44942.67
573.95	45020.50
574.15	45276.49
574.35	44799.32
574.55	45489.48
574.75	44875.09
574.95	45520.20
575.15	45327.69
575.34	45405.52
575.54	45378.89
575.74	45606.22
575.94	45462.86
576.14	45589.83
576.34	45518.15
576.54	45821.25
576.74	45929.80
576.94	45518.15
577.14	46122.30
577.34	46314.81
577.54	46056.77
577.74	46159.17
577.94	45847.88
578.14	46030.15
578.34	46382.40
578.54	45759.81
578.74	45923.65
578.94	46615.86
579.14	46126.40
579.34	46085.44
579.54	46263.61
579.74	46708.02
579.94	46583.10
580.13	46527.80
580.33	46513.47
580.53	46521.66
580.73	46515.51
580.93	46402.88
581.13	46343.48
581.33	47080.75
581.53	46890.29
581.73	46984.50
581.93	47297.84
582.13	47258.93
582.33	47187.25
582.53	46611.77
582.73	47295.79
582.92	47234.35
583.12	47465.77
583.32	47461.68
583.52	47080.75
583.72	47496.49
583.92	47140.14
584.12	47367.47
584.32	47607.08
584.52	47148.34
584.72	47744.30
584.92	47822.12
585.11	47732.01
585.31	47551.79
585.51	47764.78
585.71	47752.49
585.91	48207.14
586.11	47887.65
586.31	47871.27
586.51	47842.60
586.71	48153.89
586.91	48317.73
587.10	48108.83
587.30	48149.79
587.50	48209.18
587.70	48293.15
587.90	48581.91
588.10	48289.06
588.30	48303.39
588.50	48624.92
588.69	48481.56
588.89	48043.30
589.09	48575.77
589.29	48829.72
589.49	48723.22
589.69	48579.87
589.89	48958.74
590.08	48594.20
590.28	48764.18
590.48	48561.44
590.68	48690.46
590.88	48755.99
591.08	48794.90
591.28	48874.77
591.47	49081.62
591.67	49237.26
591.87	49286.42
592.07	48618.78
592.27	49190.16
592.47	49257.74
592.67	49366.29
592.86	49036.56
593.06	49599.76
593.26	49272.08
593.46	49554.70
593.66	49468.69
593.86	49593.61
594.05	49427.73
594.25	50076.93
594.45	49390.86
594.65	49386.77
594.85	49521.93
595.05	49794.31
595.24	49970.44
595.44	49755.40
595.64	50023.68
595.84	49745.16
596.04	49839.37
596.23	50283.78
596.43	50398.46
596.63	49923.33
596.83	50205.95
597.03	50306.30
597.22	50214.15
597.42	49853.70
597.62	50232.58
597.82	50500.86
598.02	50455.81
598.21	50595.07
598.41	50046.21
598.61	50216.19
598.81	50281.73
599.01	50722.04
599.20	50842.87
599.40	50693.37
599.60	51102.96
599.80	51021.05
600.00	50943.22
600.19	51131.64
600.39	50615.55
600.59	51119.35
600.79	50896.12
600.98	51084.53
601.18	51705.07
601.38	51447.02
601.58	51643.63
601.78	51477.74
601.97	51664.11
602.17	51901.67
602.37	51473.65
602.57	51455.21
602.76	51868.90
602.96	51563.76
603.16	51666.16
603.36	51617.00
603.55	51926.25
603.75	51766.51
603.95	52139.24
604.15	52210.92
604.34	52018.41
604.54	52597.98
604.74	51713.26
604.94	52192.48
605.13	52313.31
605.33	52415.71
605.53	51827.95
605.73	52393.18
605.92	52770.01
606.12	52360.42
606.32	52471.01
606.52	52477.15
606.71	52583.65
606.91	52849.88
607.11	52753.63
607.30	52851.93
607.50	52524.25
607.70	52688.09
607.90	52862.17
608.09	53144.79
608.29	53093.59
608.49	53030.10
608.68	52860.12
608.88	52851.93
609.08	53187.80
609.28	53257.43
609.47	53007.58
609.67	53773.52
609.87	53157.08
610.06	53621.97
610.26	53226.71
610.46	53351.63
610.66	52944.09
610.85	53351.63
611.05	53206.23
611.25	53456.08
611.44	53114.07
611.64	53626.06
611.84	53099.73
612.03	53664.97
612.23	53302.48
612.43	53900.49
612.62	53400.79
612.82	53650.64
613.02	53818.57
613.21	53810.38
613.41	53019.86
613.61	53820.62
613.80	53351.63
614.00	54052.04
614.20	53910.73
614.39	53777.61
614.59	54385.86
614.79	54076.61
614.98	53695.69
615.18	54230.21
615.38	54144.20
615.57	53757.13
615.77	54412.48
615.97	53998.79
616.16	54045.90
616.36	53630.16
616.56	54619.33
616.75	54269.12
616.95	53755.08
617.15	53728.46
617.34	54025.42
617.54	53789.90
617.74	54146.25
617.93	54281.41
618.13	53621.97
618.32	54033.61
618.52	54168.77
618.72	53982.41
618.91	54570.18
619.11	54076.61
619.31	54142.15
619.50	54027.46
619.70	53871.82
619.90	54355.14
620.09	54172.87
620.29	53986.50
620.48	54211.78
620.68	54402.24
620.88	53679.31
621.07	54027.46
621.27	54170.82
621.46	53781.71
621.66	54467.78
621.86	54058.18
622.05	53916.87
622.25	54531.26
622.44	53957.83
622.64	53923.02
622.84	54109.38
623.03	54088.90
623.23	54222.02
623.42	54230.21
623.62	54473.92
623.82	54385.86
624.01	54144.20
624.21	54348.99
624.40	54228.16
624.60	54121.67
624.80	54346.95
624.99	54361.28
625.19	53691.60
625.38	54482.11
625.58	54000.84
625.77	54602.94
625.97	54195.40
626.17	53900.49
626.36	53763.28
626.56	54430.91
626.75	54082.76
626.95	54631.61
627.14	54162.63
627.34	54697.15
627.54	54256.84
627.73	54262.98
627.93	54406.34
628.12	53886.15
628.32	54238.40
628.51	54408.39
628.71	54420.67
628.90	54191.30
629.10	54273.22
629.30	54191.30
629.49	54424.77
629.69	54383.81
629.88	54363.33
630.08	54494.40
630.27	54478.02
630.47	54275.27
630.66	54348.99
630.86	55035.06
631.05	53992.65
631.25	54613.18
631.44	54518.98
631.64	54097.09
631.84	54310.08
632.03	54990.01
632.23	54527.17
632.42	55051.45
632.62	54834.36
632.81	54248.64
633.01	54353.09
633.20	54832.32
633.40	54934.71
633.59	54836.41
633.79	54586.56
633.98	54910.14
634.18	54783.16
634.37	54672.57
634.57	54529.22
634.76	55383.22
634.96	54912.19
635.15	54731.96
635.35	55092.41
635.54	54795.45
635.74	55493.81
635.93	54797.50
636.13	55360.69
636.32	54568.13
636.52	54803.64
636.71	54439.11
636.91	55000.25
637.10	55516.34
637.30	55377.08
637.49	55157.94
637.69	54834.36
637.88	55293.11
638.08	54924.47
638.27	55385.27
638.46	54881.47
638.66	54752.44
638.85	55213.24
639.05	54871.23
639.24	54934.71
639.44	54596.80
639.63	55495.86
639.83	55207.09
640.02	55014.58
640.22	55372.98
640.41	55524.53
640.61	54512.83
640.80	55559.34
640.99	55033.02
641.19	55495.86
641.38	55121.08
641.58	55123.13
641.77	55899.31
641.97	54973.63
642.16	55395.51
642.36	55170.23
642.55	55817.39
642.74	55035.06
642.94	55837.87
643.13	55436.47
643.33	55571.63
643.52	55846.06
643.72	55923.88
643.91	55440.56
644.10	55428.27
644.30	55602.35
644.49	55428.27
644.69	55581.87
644.88	55745.71
645.08	55817.39
645.27	55921.83
645.46	55268.53
645.66	55927.98
645.85	55526.58
646.05	55868.59
646.24	55563.44
646.43	55792.81
646.63	56325.28
646.82	55887.02
647.02	56104.10
647.21	55930.03
647.40	55901.36
647.60	55866.54
647.79	56153.26
647.99	56317.09
648.18	55829.68
648.37	56145.06
648.57	56177.83
648.76	56024.23
648.96	55880.88
649.15	56132.78
649.34	56245.41
649.54	56632.48
649.73	56110.25
649.92	56093.86
650.12	56030.38
650.31	56083.62
650.51	56210.60
650.70	56661.15
650.89	56337.57
651.09	56775.84
651.28	56652.96
651.47	56216.74
651.67	56386.72
651.86	56450.21
652.06	56030.38
652.25	56087.72
652.44	56345.76
652.64	55985.32
652.83	56321.19
653.02	55723.18
653.22	56247.46
653.41	55547.06
653.60	56124.58
653.80	56269.99
653.99	56708.25
654.18	56356.00
654.38	56591.52
654.57	56431.78
654.76	56333.48
654.96	56591.52
655.15	56409.25
655.34	56218.79
655.54	55940.27
655.73	56147.11
655.92	56685.73
656.12	56550.56
656.31	56243.37
656.50	56386.72
656.70	56525.99
656.89	56433.83
657.08	56775.84
657.28	56792.22
657.47	55813.29
657.66	56710.30
657.86	56759.45
658.05	56380.58
658.24	56362.15
658.43	56319.14
658.63	56497.31
658.82	56851.61
659.01	57023.64
659.21	56450.21
659.40	56904.86
659.59	56706.21
659.79	56808.61
659.98	56906.91
660.17	56956.06
660.36	56890.52
660.56	56824.99
660.75	56951.96
660.94	56861.85
661.14	56554.66
661.33	56460.45
661.52	56206.50
661.71	56915.10
661.91	56153.26
662.10	56349.86
662.29	56763.55
662.49	56573.09
662.68	56439.97
662.87	56718.49
663.06	56476.83
663.26	56378.53
663.45	56886.43
663.64	56427.68
663.83	57095.32
664.03	57111.70
664.22	56515.75
664.41	56779.93
664.60	56589.47
664.80	56442.02
664.99	56982.68
665.18	56394.92
665.37	56186.02
665.57	56939.68
665.76	56464.55
665.95	56673.44
666.14	56718.49
666.34	56517.79
666.53	56886.43
666.72	56319.14
666.91	56265.89
667.11	56366.24
667.30	56882.33
667.49	56810.65
667.68	56521.89
667.87	56173.73
668.07	56622.24
668.26	56816.80
668.45	56566.94
668.64	56390.82
668.84	56753.31
669.03	56505.51
669.22	56702.11
669.41	56753.31
669.60	56771.74
669.80	56308.90
669.99	56523.94
670.18	56356.00
670.37	56446.11
670.57	56741.02
670.76	56190.12
670.95	56749.21
671.14	56431.78
671.33	56620.19
671.53	56562.85
671.72	56095.91
671.91	56933.53
672.10	56220.84
672.29	56599.71
672.48	56255.65
672.68	56687.78
672.87	56485.03
673.06	56362.15
673.25	56212.65
673.44	56620.19
673.64	56134.82
673.83	56175.78
674.02	56155.30
674.21	56147.11
674.40	56181.93
674.59	55913.64
674.79	55878.83
674.98	55688.37
675.17	56632.48
675.36	55950.51
675.55	56534.18
675.74	55981.23
675.94	56452.26
676.13	56642.72
676.32	56726.69
676.51	56632.48
676.70	56259.75
676.89	56130.73
677.08	56452.26
677.28	56310.95
677.47	56706.21
677.66	56618.14
677.85	56276.13
678.04	56538.27
678.23	56411.30
678.42	56235.17
678.62	56044.71
678.81	56695.97
679.00	56122.54
679.19	56857.76
679.38	55704.75
679.57	56450.21
679.76	56231.08
679.96	56528.03
680.15	55669.93
680.34	55639.22
680.53	55760.05
680.72	56218.79
680.91	56562.85
681.10	55723.18
681.29	56253.61
681.48	55667.89
681.68	55600.30
681.87	55862.44
682.06	55895.21
682.25	55960.75
682.44	55536.82
682.63	56237.22
682.82	55358.64
683.01	55948.46
683.20	55526.58
683.39	55758.00
683.59	55530.67
683.78	55403.70
683.97	55563.44
684.16	55162.04
684.35	54969.53
684.54	55260.34
684.73	55706.80
684.92	55643.31
685.11	55329.97
685.30	55256.24
685.49	55661.74
685.69	55526.58
685.88	55321.78
686.07	55209.14
686.26	55256.24
686.45	55401.65
686.64	55747.76
686.83	55411.89
687.02	55121.08
687.21	55289.01
687.40	55125.17
687.59	55301.30
687.78	55817.39
687.97	55336.12
688.16	54893.75
688.35	55108.79
688.54	55055.54
688.74	55305.40
688.93	54801.60
689.12	54926.52
689.31	54496.45
689.50	54840.51
689.69	54203.59
689.88	53953.74
690.07	55088.31
690.26	54430.91
690.45	54811.84
690.64	54805.69
690.83	54664.38
691.02	54879.42
691.21	54842.56
691.40	54435.01
691.59	54754.49
691.78	54375.62
691.97	54615.23
692.16	54711.49
692.35	55125.17
692.54	54674.62
692.73	54793.40
692.92	54584.51
693.11	54295.75
693.30	54572.22
693.49	54744.25
693.68	54097.09
693.87	54379.71
694.06	54387.91
694.25	54533.31
694.44	54484.16
694.63	54305.99
694.82	54672.57
695.01	54267.08
695.20	54207.68
695.39	54262.98
695.58	54125.77
695.77	53669.07
695.96	53794.00
696.15	54289.60
696.34	53974.22
696.53	54000.84
696.72	53927.11
696.91	53818.57
697.10	53994.70
697.29	53765.32
697.48	54152.39
697.67	53898.44
697.86	53552.33
698.05	53961.93
698.24	54033.61
698.43	52950.23
698.62	53562.57
698.81	53386.45
699.00	54025.42
699.19	53636.30
699.38	53818.57
699.57	53329.11
699.76	53984.46
699.95	53394.64
700.14	53347.54
700.32	53112.02
700.51	53294.29
700.70	53738.70
700.89	53642.45
701.08	53562.57
701.27	53382.35
701.46	53853.39
701.65	53103.83
701.84	53474.51
702.03	53558.48
702.22	53144.79
702.41	53306.58
702.60	53232.85
702.79	53200.08
702.98	52860.12
703.17	53095.64
703.35	53015.77
703.54	53048.53
703.73	53122.26
703.92	52804.83
704.11	52876.51
704.30	52520.16
704.49	52499.68
704.68	52698.33
704.87	52526.30
705.06	52794.59
705.25	52374.75
705.43	52884.70
705.62	52770.01
705.81	52874.46
706.00	52493.54
706.19	52276.45
706.38	52675.80
706.57	52090.09
706.76	52540.64
706.95	52083.94
707.14	52065.51
707.32	52047.08
707.51	52139.24
707.70	52049.13
707.89	52165.86
708.08	51985.64
708.27	52102.37
708.46	52577.50
708.65	52118.76
708.84	52278.50
709.02	52016.36
709.21	52425.95
709.40	52006.12
709.59	52098.28
709.78	51883.24
709.97	52370.66
710.16	52163.81
710.34	52047.08
710.53	51922.15
710.72	51920.10
710.91	51979.49
711.10	51836.14
711.29	52704.48
711.48	52147.43
711.66	51873.00
711.85	51705.07
712.04	51713.26
712.23	51862.76
712.42	51748.07
712.61	51754.22
712.80	51447.02
712.98	51361.01
713.17	51070.20
713.36	51363.06
713.55	51408.11
713.74	51133.68
713.93	51604.72
714.11	51334.38
714.30	51174.64
714.49	51283.19
714.68	51516.65
714.87	51547.37
715.06	51430.64
715.24	50961.65
715.43	51076.34
715.62	50939.13
715.81	51014.90
716.00	51090.68
716.18	50965.75
716.37	50863.35
716.56	50838.78
716.75	50939.13
716.94	50685.18
717.12	50826.49
717.31	50932.98
717.50	50922.74
717.69	50652.41
717.88	50754.81
718.06	50699.51
718.25	51412.21
718.44	50453.76
718.63	50697.47
718.82	50328.83
719.00	50533.63
719.19	49968.39
719.38	50525.44
719.57	49868.04
719.76	49818.89
719.94	49949.96
720.13	49550.60
720.32	49683.72
720.51	49595.66
720.69	49857.80
720.88	49616.14
721.07	49759.50
721.26	49564.94
721.44	49775.88
721.63	49364.24
721.82	49354.00
722.01	49093.91
722.20	49421.58
722.38	49102.10
722.57	49112.34
722.76	48997.65
722.95	49374.48
723.13	48688.41
723.32	49055.00
723.51	48667.93
723.70	48487.71
723.88	49513.74
724.07	48960.79
724.26	48971.03
724.44	48555.29
724.63	48772.38
724.82	48592.15
725.01	48467.23
725.19	48563.48
725.38	48448.80
725.57	48594.20
725.76	48579.87
725.94	48690.46
726.13	48248.10
726.32	48854.29
726.51	47824.17
726.69	48637.21
726.88	48366.88
727.07	48061.73
727.25	48217.38
727.44	48940.31
727.63	48059.68
727.82	48174.37
728.00	48604.44
728.19	48209.18
728.38	48436.51
728.56	47836.45
728.75	48207.14
728.94	48231.71
729.12	48485.66
729.31	48043.30
729.50	48225.57
729.69	48416.03
729.87	48272.67
730.06	48192.80
730.25	48010.53
730.43	48186.66
730.62	48041.25
730.81	47861.03
730.99	48059.68
731.18	47901.99
731.37	48278.82
731.55	48782.62
731.74	48483.61
731.93	48069.92
732.11	48325.92
732.30	48479.52
732.49	47971.62
732.67	48094.50
732.86	48133.41
733.05	47906.08
733.23	47971.62
733.42	47711.53
733.61	48063.78
733.79	47689.00
733.98	48225.57
734.17	48074.02
734.35	48047.39
734.54	47983.91
734.73	48229.66
734.91	47904.04
735.10	48186.66
735.29	48256.29
735.47	47826.21
735.66	47854.89
735.84	47592.75
736.03	47963.43
736.22	48278.82
736.40	47576.36
736.59	48112.93
736.78	47555.88
736.96	47928.61
737.15	47641.90
737.33	47643.94
737.52	47396.14
737.71	48045.35
737.89	47615.27
738.08	47197.49
738.27	47000.88
738.45	47922.47
738.64	47682.86
738.82	47584.55
739.01	47562.03
739.20	47357.23
739.38	47799.59
739.57	47611.18
739.75	47535.40
739.94	47523.11
740.13	47328.56
740.31	47029.55
740.50	47502.64
740.68	46904.63
740.87	47580.46
741.06	47469.87
741.24	47318.32
741.43	46916.92
741.61	46986.55
741.80	47125.81
741.99	47232.30
742.17	46783.80
742.36	46835.00
742.54	46617.91
742.73	47187.25
742.91	47265.07
743.10	46630.20
743.29	46910.77
743.47	47193.39
743.66	46662.97
743.84	46994.74
744.03	46658.87
744.21	46812.47
744.40	47181.10
744.59	46769.46
744.77	46728.50
744.96	46878.00
745.14	46970.16
745.33	46982.45
745.51	47242.54
745.70	46908.72
745.88	46808.37
746.07	46507.32
746.26	46617.91
746.44	46914.87
746.63	46425.40
746.81	46460.22
747.00	46458.17
747.18	46708.02
747.37	46611.77
747.55	46429.50
747.74	46601.53
747.92	46118.21
748.11	46028.10
748.29	46611.77
748.48	46150.98
748.66	45784.39
748.85	46144.83
749.03	46251.33
749.22	46179.65
749.41	46001.47
749.59	46122.30
749.78	46048.58
749.96	45407.56
750.15	46126.40
750.33	46187.84
750.52	46097.73
750.70	46032.19
750.89	45706.57
751.07	45245.77
751.26	45804.87
751.44	45503.82
751.63	46196.03
751.81	45794.63
752.00	45487.43
752.18	45882.69
752.37	45571.40
752.55	45247.82
752.74	45372.75
752.92	45397.32
753.10	45466.95
753.29	45483.34
753.47	45589.83
753.66	44862.80
753.84	45135.18
754.03	45299.02
754.21	44995.92
754.40	45274.45
754.58	45243.73
754.77	45137.23
754.95	44715.35
755.14	44983.63
755.32	45073.74
755.51	44727.64
755.69	44574.04
755.88	44543.32
756.06	44881.24
756.24	44639.57
756.43	44459.35
756.61	44719.45
756.80	44512.60
756.98	44793.17
757.17	44914.00
757.35	44801.36
757.54	44713.30
757.72	44535.13
757.90	44457.31
758.09	44377.43
758.27	44553.56
758.46	44379.48
758.64	43978.08
758.83	44408.15
759.01	44483.93
759.19	44070.24
759.38	44436.83
759.56	44340.57
759.75	44524.89
759.93	44232.03
760.12	44131.68
760.30	44340.57
760.48	44193.12
760.67	43865.44
760.85	44166.49
761.04	44033.38
761.22	44254.56
761.40	43840.87
761.59	43801.96
761.77	43703.65
761.96	43691.37
762.14	43924.83
762.32	43832.68
762.51	43183.47
762.69	43619.69
762.88	43515.24
763.06	43277.68
763.24	43857.25
763.43	43267.44
763.61	43429.23
763.80	43529.58
763.98	43449.70
764.16	43416.94
764.35	43283.82
764.53	43097.45
764.72	43165.04
764.90	43017.58
765.08	43165.04
765.27	43320.68
765.45	42710.39
765.63	42544.50
765.82	43097.45
766.00	42712.44
766.18	43206.00
766.37	42722.68
766.55	42696.05
766.74	42847.60
766.92	42775.92
767.10	42763.64
767.29	42528.12
767.47	42370.43
767.65	42438.01
767.84	42237.31
768.02	42421.62
768.20	42481.02
768.39	42630.52
768.57	42124.67
768.75	42370.43
768.94	42052.99
769.12	42306.94
769.30	42454.39
769.49	42007.94
769.67	41751.94
769.85	41940.35
770.04	41926.02
770.22	41753.99
770.40	41833.86
770.59	41921.92
770.77	41532.81
770.95	41721.22
771.14	41397.64
771.32	41325.96
771.50	41117.07
771.69	41631.11
771.87	41616.77
772.05	41325.96
772.24	41086.35
772.42	41469.32
772.60	41178.51
772.78	41018.77
772.97	40885.65
773.15	41196.94
773.33	40748.43
773.52	41178.51
773.70	41227.66
773.88	41211.28
774.07	41115.02
774.25	41317.77
774.43	41563.53
774.61	41033.10
774.80	41041.29
774.98	41043.34
775.16	41102.73
775.34	41123.21
775.53	41063.82
775.71	41465.22
775.89	41155.98
776.08	41246.09
776.26	41315.72
776.44	40793.49
776.62	41440.65
776.81	41008.53
776.99	41299.34
777.17	41282.95
777.35	41375.11
777.54	41598.34
777.72	41317.77
777.90	41002.38
778.08	41573.77
778.27	41481.61
778.45	41809.28
778.63	41733.51
778.81	41241.99
779.00	41635.20
779.18	41571.72
779.36	41891.20
779.54	41260.43
779.73	41432.46
779.91	41721.22
780.09	41624.96
780.27	41749.89
780.46	41915.78
780.64	41563.53
780.82	41639.30
781.00	41989.50
781.19	42311.03
781.37	42202.49
781.55	41817.47
781.73	42065.28
781.91	42044.80
782.10	41770.37
782.28	41747.84
782.46	41844.10
782.64	42149.24
782.82	41971.07
783.01	41874.82
783.19	42079.61
783.37	42274.17
783.55	42263.93
783.74	42438.01
783.92	41739.65
784.10	42628.47
784.28	42091.90
784.46	41762.18
784.64	42265.98
784.83	42020.22
785.01	42220.92
785.19	42317.18
785.37	41966.98
785.55	41944.45
785.74	41817.47
785.92	41674.12
786.10	42016.13
786.28	41960.83
786.46	42003.84
786.64	41655.68
786.83	41780.61
787.01	42016.13
787.19	41489.80
787.37	41620.87
787.55	41715.08
787.74	41573.77
787.92	41692.55
788.10	41561.48
788.28	41506.18
788.46	41457.03
788.64	41624.96
788.82	41745.80
789.01	41571.72
789.19	41522.57
789.37	41260.43
789.55	41495.94
789.73	40764.82
789.91	40799.63
790.09	40977.81
790.28	40719.76
790.46	40766.87
790.64	40678.80
790.82	40922.51
791.00	40576.40
791.18	40392.09
791.36	40670.61
791.55	40203.67
791.73	40834.45
791.91	40146.33
792.09	40156.57
792.27	40476.05
792.45	40187.29
792.63	40107.42
792.81	39945.63
793.00	39974.30
793.18	39812.51
793.36	39167.40
793.54	39794.08
793.72	39740.83
793.90	39753.12
794.08	39386.54
794.26	39593.38
794.44	39011.76
794.62	38880.69
794.81	39153.07
794.99	38905.26
795.17	38833.58
795.35	38948.27
795.53	39382.44
795.71	39482.79
795.89	38579.64
796.07	38575.54
796.25	38243.77
796.43	38041.02
796.61	37830.08
796.80	38442.42
796.98	38532.53
797.16	38165.95
797.34	37852.61
797.52	37983.68
797.70	37803.46
797.88	37881.28
798.06	37647.81
798.24	37262.79
798.42	37424.58
798.60	37379.53
798.78	37477.83
798.96	37602.75
799.14	37060.04
799.32	36920.78
799.51	37029.32
799.69	37717.44
799.87	37084.62
800.05	36740.56
800.23	36894.16
800.41	36480.47
800.59	36666.83
800.77	36464.08
800.95	36034.01
801.13	36589.01
801.31	36091.35
801.49	36195.80
801.67	36269.53
801.85	36222.42
802.03	35689.95
802.21	35626.46
802.39	35798.49
802.57	35692.00
802.75	35640.80
802.93	35321.32
803.11	35370.47
803.29	35132.90
803.47	35165.67
803.65	35223.01
803.83	34854.38
804.01	34969.07
804.19	34622.96
804.37	34690.54
804.55	34858.48
804.73	34782.70
804.91	34926.06
805.09	34653.68
805.27	34526.71
805.45	34743.79
805.63	34330.10
805.81	34401.78
805.99	34571.76
806.17	34735.60
806.35	34352.63
806.53	33871.36
806.71	34100.73
806.89	34127.35
807.07	33822.20
807.25	34151.93
807.43	33590.78
807.61	34227.70
807.79	33555.97
807.97	33322.50
808.15	33347.08
808.33	33543.68
808.51	33275.40
808.69	33492.48
808.87	33222.15
809.05	33011.21
809.23	33379.84
809.41	33052.17
809.59	32800.27
809.77	33177.09
809.95	32685.58
810.13	32681.49
810.31	32650.77
810.49	32626.19
810.67	32499.22
810.84	32566.80
811.02	32599.57
811.20	32099.86
811.38	32284.18
811.56	31899.16
811.74	32192.02
811.92	31841.82
812.10	31786.52
812.28	32278.04
812.46	32034.33
812.64	32106.01
812.82	31931.93
813.00	31784.48
813.18	31895.07
813.36	31696.41
813.53	31589.92
813.71	31307.30
813.89	31440.42
814.07	31542.81
814.25	31612.45
814.43	31524.38
814.61	31043.11
814.79	31190.56
814.97	31116.84
815.15	31194.66
815.33	30629.42
815.50	30570.03
815.68	30965.29
815.86	31153.70
816.04	30873.13
816.22	30787.11
816.40	30623.28
816.58	30606.89
816.76	30551.60
816.94	30819.88
817.11	30666.28
817.29	30330.42
817.47	30123.57
817.65	30316.08
817.83	30613.04
818.01	30299.70
818.19	30142.00
818.37	30385.71
818.54	29855.29
818.72	29595.20
818.90	30119.48
819.08	30049.85
819.26	29873.72
819.44	29511.23
819.62	29668.92
819.80	29713.98
819.97	29478.46
820.15	29537.85
820.33	29437.50
820.51	29558.33
820.69	28794.44
820.87	29587.00
821.05	29453.89
821.22	29134.40
821.40	29199.94
821.58	29189.70
821.76	29218.37
821.94	28921.41
822.12	28855.88
822.29	29101.64
822.47	28851.78
822.65	29058.63
822.83	29032.00
823.01	28989.00
823.19	28745.29
823.36	28497.49
823.54	28638.80
823.72	28419.66
823.90	28474.96
824.08	28571.21
824.25	28520.01
824.43	28397.13
824.61	28429.90
824.79	28259.92
824.97	28231.25
825.15	28595.79
825.32	28282.45
825.50	27958.87
825.68	28120.66
825.86	28278.35
826.04	28165.71
826.21	28108.37
826.39	28268.11
826.57	28057.17
826.75	27704.92
826.93	28048.98
827.10	27575.90
827.28	27856.47
827.46	27850.33
827.64	27840.09
827.81	27727.45
827.99	27661.91
828.17	27606.62
828.35	27367.01
828.53	27471.45
828.70	27575.90
828.88	27471.45
829.06	27416.16
829.24	27354.72
829.41	27426.40
829.59	27364.96
829.77	27070.05
829.95	27242.08
830.12	26981.99
830.30	27057.76
830.48	27237.98
830.66	27154.02
830.84	27094.63
831.01	27090.53
831.19	27166.31
831.37	26730.09
831.55	26742.38
831.72	26807.91
831.90	26687.08
832.08	26656.36
832.25	26840.68
832.43	26599.02
832.61	26758.76
832.79	26533.48
832.96	26369.65
833.14	26390.13
833.32	26496.62
833.50	26541.68
833.67	26281.58
833.85	26549.87
834.03	26302.06
834.20	26388.08
834.38	26572.39
834.56	26209.90
834.74	26011.25
834.91	25958.00
835.09	25863.80
835.27	25994.87
835.44	25947.76
835.62	25568.89
835.80	26041.97
835.98	25849.46
836.15	25755.26
836.33	25726.58
836.51	26089.07
836.68	25736.82
836.86	25601.66
837.04	25757.30
837.21	25886.32
837.39	25583.23
837.57	25798.26
837.75	25556.60
837.92	25568.89
838.10	25323.13
838.28	25364.09
838.45	25386.62
838.63	25427.58
838.81	25296.51
838.98	25067.14
839.16	25247.36
839.34	24911.49
839.51	25224.83
839.69	24710.79
839.87	25196.16
840.04	25028.23
840.22	25501.31
840.40	24997.51
840.57	24778.37
840.75	25020.03
840.93	24487.56
841.10	24989.31
841.28	25015.94
841.46	24747.65
841.63	24911.49
841.81	24716.93
841.98	24698.50
842.16	24565.39
842.34	24809.09
842.51	24307.34
842.69	24774.28
842.87	24540.81
843.04	24522.38
843.22	24403.60
843.40	24090.26
843.57	24473.23
843.75	24487.56
843.92	24383.12
844.10	24493.71
844.28	24372.88
844.45	24528.52
844.63	24215.18
844.81	24102.54
844.98	24479.37
845.16	24260.24
845.33	24295.05
845.51	23893.65
845.69	23996.05
845.86	23946.90
846.04	23807.64
846.21	23916.18
846.39	23621.27
846.57	24012.43
846.74	23738.01
846.92	23633.56
847.09	23770.77
847.27	23539.35
847.45	23692.95
847.62	23471.77
847.80	23776.92
847.97	23735.96
848.15	23692.95
848.32	23342.75
848.50	23740.05
848.68	23131.81
848.85	23375.52
849.03	23088.80
849.20	23279.26
849.38	23176.86
849.56	23350.94
849.73	23119.52
849.91	23156.38
850.08	23572.12
850.26	22845.09
850.43	23301.79
850.61	23140.00
850.78	22904.48
850.96	23144.09
851.14	23013.02
851.31	22957.73
851.49	23047.84
851.66	23094.94
851.84	22814.37
852.01	22841.00
852.19	22965.92
852.36	22797.99
852.54	23160.48
852.71	22537.90
852.89	22832.80
853.07	22867.62
853.24	22808.23
853.42	22924.96
853.59	22623.91
853.77	22830.76
853.94	22703.78
854.12	22947.49
854.29	22421.16
854.47	22554.28
854.64	22625.96
854.82	22376.11
854.99	22591.14
855.17	22466.22
855.34	22390.44
855.52	22421.16
855.69	22539.94
855.87	22353.58
856.04	22073.01
856.22	22062.77
856.39	22222.51
856.57	22163.12
856.74	22216.36
856.92	22048.43
857.09	21833.39
857.27	21999.28
857.44	22437.55
857.62	22191.79
857.79	21677.75
857.97	22091.44
858.14	22105.77
858.32	22013.62
858.49	21671.61
858.67	21929.65
858.84	21876.40
859.02	21749.43
859.19	21593.78
859.37	21835.44
859.54	21429.94
859.72	22105.77
859.89	21622.45
860.06	21743.28
860.24	21731.00
860.41	21780.15
860.59	21565.11
860.76	21526.20
860.94	21450.42
861.11	21534.39
861.29	21378.75
861.46	21325.50
861.64	21219.00
861.81	21319.35
861.98	21176.00
862.16	21020.35
862.33	21020.35
862.51	21071.55
862.68	21479.10
862.86	21155.52
863.03	21188.28
863.21	20965.06
863.38	20784.83
863.55	20850.37
863.73	20946.62
863.90	21030.59
864.08	21065.41
864.25	20899.52
864.43	20870.85
864.60	20823.75
864.77	20817.60
864.95	20586.18
865.12	20711.11
865.30	20741.83
865.47	20512.46
865.64	20676.29
865.82	20494.02
865.99	20528.84
866.17	20373.19
866.34	20772.55
866.51	20483.78
866.69	20657.86
866.86	20408.01
867.04	20604.61
867.21	20606.66
867.38	20182.73
867.56	20307.66
867.73	20174.54
867.91	20119.24
868.08	20178.64
868.25	19920.59
868.43	20205.26
868.60	20164.30
868.78	19834.58
868.95	20229.84
869.12	19853.01
869.30	19986.13
869.47	19998.41
869.64	19924.69
869.82	19879.63
869.99	19887.82
870.16	20211.40
870.34	20008.65
870.51	20033.23
870.69	19822.29
870.86	19898.06
871.03	19846.87
871.21	19680.98
871.38	19793.62
871.55	19504.85
871.73	19535.57
871.90	19562.20
872.07	19240.67
872.25	18968.29
872.42	19070.68
872.59	19357.40
872.77	19365.59
872.94	19222.23
873.11	19197.66
873.29	19304.15
873.46	18943.71
873.63	19484.37
873.81	19046.11
873.98	18857.70
874.15	19087.07
874.33	18673.38
874.50	18736.87
874.67	18884.32
874.85	18607.84
875.02	18771.68
875.19	18513.64
875.37	18765.54
875.54	18540.26
875.71	18771.68
875.88	18532.07
876.06	18611.94
876.23	18247.40
876.40	18300.65
876.58	18611.94
876.75	18269.93
876.92	18304.74
877.10	18542.31
877.27	18190.06
877.44	18147.05
877.61	18374.38
877.79	18104.04
877.96	18194.15
878.13	18210.54
878.31	17893.10
878.48	17962.73
878.65	17968.88
878.82	17522.42
879.00	17950.45
879.17	17934.06
879.34	17987.31
879.51	17794.80
879.69	18058.99
879.86	17579.76
880.03	17721.07
880.21	17590.00
880.38	17643.25
880.55	17723.12
880.72	17692.40
880.90	17788.66
881.07	17518.32
881.24	17735.41
881.41	17571.57
881.59	17145.59
881.76	17516.28
881.93	17424.12
882.10	17254.14
882.28	17239.80
882.45	17522.42
882.62	17241.85
882.79	17364.73
882.96	16922.37
883.14	17262.33
883.31	17368.82
883.48	17020.67
883.65	17080.06
883.83	17118.97
884.00	17028.86
884.17	16860.93
884.34	17299.19
884.51	17020.67
884.69	17018.62
884.86	16989.95
885.03	16922.37
885.20	16723.71
885.38	16942.85
885.55	16566.02
885.72	17022.72
885.89	16903.93
886.06	16828.16
886.24	16942.85
886.41	16690.95
886.58	16744.19
886.75	17026.81
886.92	16643.84
887.10	16797.44
887.27	16701.19
887.44	16641.79
887.61	16822.02
887.78	16543.49
887.95	16586.50
888.13	16439.05
888.30	16600.83
888.47	16527.11
888.64	16418.57
888.81	16477.96
888.99	16471.81
889.16	16463.62
889.33	16293.64
889.50	16189.19
889.67	16365.32
889.84	16135.95
890.01	16156.43
890.19	16185.10
890.36	16336.65
890.53	16219.91
890.70	16090.89
890.87	16023.31
891.04	16094.99
891.22	16133.90
891.39	15742.74
891.56	15974.16
891.73	15904.53
891.90	15828.75
892.07	15720.21
892.24	15957.77
892.42	15640.34
892.59	15791.89
892.76	15664.91
892.93	15626.00
893.10	15626.00
893.27	15626.00
893.44	15349.53
893.61	15542.03
893.79	15943.44
893.96	15607.57
894.13	15654.67
894.30	15750.93
894.47	15621.91
894.64	15826.70
894.81	15527.70
894.98	15795.98
895.15	15470.36
895.33	15533.84
895.50	15615.76
895.67	15730.45
895.84	15468.31
896.01	15478.55
896.18	15539.99
896.35	15472.40
896.52	15478.55
896.69	15501.08
896.86	15615.76
897.04	15445.78
897.21	15546.13
897.38	15324.95
897.55	15378.20
897.72	15456.02
897.89	15232.79
898.06	15236.89
898.23	15425.30
898.40	15578.90
898.57	15281.94
898.74	15517.46
898.91	15396.63
899.08	15626.00
899.26	15238.94
899.43	15421.20
899.60	15261.46
899.77	15509.27
899.94	15355.67
900.11	15400.72
900.28	15421.20
900.45	15163.16
900.62	15218.46
900.79	15582.99
900.96	15482.64
901.13	15335.19
901.30	15324.95
901.47	15408.92
901.64	15386.39
901.81	15419.16
901.98	15224.60
902.15	15539.99
902.32	15204.12
902.49	15292.18
902.66	15308.57
902.83	15384.34
903.01	15365.91
903.18	15243.03
903.35	15300.37
903.52	14993.18
903.69	15415.06
903.86	15283.99
904.03	15351.57
904.20	15355.67
904.37	15273.75
904.54	15347.48
904.71	15128.35
904.88	15212.31
905.05	15253.27
905.22	15372.05
905.39	15204.12
905.56	15066.91
905.73	15247.13
905.90	15402.77
906.07	15257.37
906.24	15263.51
906.41	15216.41
906.58	15355.67
906.75	15587.09
906.92	15062.81
907.09	14950.17
907.26	15345.43
907.43	15138.58
907.60	15048.47
907.77	15476.50
907.93	15327.00
908.10	15175.45
908.27	15398.68
908.44	15054.62
908.61	15089.43
908.78	14980.89
908.95	15079.19
909.12	15212.31
909.29	15169.30
909.46	15064.86
909.63	15238.94
909.80	15058.71
909.97	15290.13
910.14	15093.53
910.31	15197.98
910.48	15122.20
910.65	15179.54
910.82	15009.56
910.99	14929.69
911.16	15021.85
911.33	14853.92
911.50	14903.07
911.66	14767.90
911.83	14972.70
912.00	14880.54
912.17	14759.71
912.34	14874.40
912.51	14907.16
912.68	14780.19
912.85	14837.53
913.02	14806.81
913.19	14534.43
913.36	14782.24
913.53	14909.21
913.70	14411.56
913.86	14855.97
914.03	14708.51
914.20	14470.95
914.37	14638.88
914.54	14528.29
914.71	14722.85
914.88	14634.78
915.05	14702.37
915.22	14528.29
915.39	14401.32
915.55	14429.99
915.72	14303.01
915.89	14176.04
916.06	14069.55
916.23	13965.10
916.40	13973.29
916.57	13985.58
916.74	14186.28
916.91	13956.91
917.07	14026.54
917.24	13944.62
917.41	13905.71
917.58	13965.10
917.75	13889.32
917.92	13819.69
918.09	13936.43
918.26	13684.53
918.42	13651.76
918.59	13922.09
918.76	13668.14
918.93	13573.94
919.10	13541.17
919.27	13424.44
919.44	13584.18
919.60	13430.58
919.77	13532.98
919.94	13215.54
920.11	13639.47
920.28	13543.22
920.45	13217.59
920.61	13080.38
920.78	13061.94
920.95	12963.64
921.12	13129.53
921.29	12973.88
921.46	13068.09
921.62	12898.11
921.79	13197.11
921.96	12992.31
922.13	12971.83
922.30	12654.40
922.47	12703.55
922.63	12760.89
922.80	12898.11
922.97	12588.86
923.14	12449.60
923.31	12699.45
923.47	12226.37
923.64	12758.85
923.81	12470.08
923.98	12435.27
924.15	12500.80
924.32	12255.04
924.48	12392.26
924.65	12582.72
924.82	12240.71
924.99	11960.14
925.15	12066.63
925.32	12171.08
925.49	11878.22
925.66	11974.47
925.83	11794.25
925.99	11837.26
926.16	11849.55
926.33	11786.06
926.50	11597.65
926.67	11595.60
926.83	11607.89
927.00	11458.39
927.17	11554.64
927.34	11470.67
927.50	11521.87
927.67	11462.48
927.84	11401.04
928.01	11360.08
928.17	11317.08
928.34	11302.74
928.51	11126.61
928.68	11095.89
928.84	11177.81
929.01	11040.60
929.18	10854.23
929.35	10798.94
929.51	11001.69
929.68	10862.43
929.85	10669.92
930.02	10674.01
930.18	10841.95
930.35	10733.40
930.52	10424.16
930.69	10692.44
930.85	10604.38
931.02	10534.75
931.19	10397.54
931.36	10338.15
931.52	10305.38
931.69	10172.26
931.86	10315.62
932.02	10252.13
932.19	10133.35
932.36	10067.81
932.53	10166.12
932.69	10080.10
932.86	10135.40
933.03	9979.75
933.19	9820.01
933.36	9785.19
933.53	10043.24
933.70	9756.52
933.86	9828.20
934.03	9568.11
934.20	9645.93
934.36	9592.69
934.53	9242.48
934.70	9172.85
934.86	9527.15
935.03	9242.48
935.20	9119.60
935.36	9115.51
935.53	9129.84
935.70	9103.22
935.86	9023.35
936.03	8869.75
936.20	8804.22
936.36	8671.10
936.53	8630.14
936.70	8738.68
936.86	8654.72
937.03	8449.92
937.20	8374.14
937.36	8437.63
937.53	8226.69
937.70	8105.86
937.86	8195.97
938.03	7976.84
938.20	7939.97
938.36	7802.76
938.53	7839.62
938.70	7587.72
938.86	7483.28
939.03	7427.98
939.20	7323.54
939.36	7298.96
939.53	7245.71
939.70	7344.02
939.86	7159.70
940.03	6887.32
940.19	6793.11
940.36	6954.90
940.53	7016.34
940.69	6727.58
940.86	6842.26
941.03	6492.06
941.19	6498.20
941.36	6414.24
941.52	6496.16
941.69	6457.25
941.86	6336.42
942.02	6305.70
942.19	6297.50
942.35	6315.94
942.52	6080.42
942.69	6096.80
942.85	5867.43
943.02	5894.05
943.18	5918.63
943.35	5849.00
943.52	5877.67
943.68	5773.22
943.85	5687.21
944.01	5640.11
944.18	5558.19
944.35	5633.96
944.51	5736.36
944.68	5564.33
944.84	5533.61
945.01	5578.67
945.17	5386.16
945.34	5498.80
945.51	5556.14
945.67	5468.08
945.84	5427.12
946.00	5382.06
946.17	5416.88
946.33	5371.82
946.50	5498.80
946.67	5392.30
946.83	5408.69
947.00	5496.75
947.16	5322.67
947.33	5369.77
947.49	5373.87
947.66	5332.91
947.82	5359.53
947.99	5377.97
948.16	5351.34
948.32	5310.38
948.49	5242.80
948.65	5337.01
948.82	5382.06
948.98	5412.78
949.15	5197.74
949.31	5384.11
949.48	5316.53
949.64	5263.28
949.81	5466.03
949.97	5250.99
950.14	5423.02
950.30	5277.62
950.47	5394.35
950.63	5423.02
950.80	5457.84
950.96	5451.69
951.13	5402.54
951.30	5302.19
951.46	5496.75
951.63	5461.93
951.79	5437.36
951.96	5459.88
952.12	5494.70
952.29	5400.49
952.45	5240.75
952.62	5408.69
952.78	5402.54
952.94	5529.52
953.11	5380.01
953.27	5384.11
953.44	5517.23
953.60	5365.68
953.77	5523.37
953.93	5445.55
954.10	5392.30
954.26	5418.93
954.43	5375.92
954.59	5506.99
954.76	5609.39
954.92	5449.64
955.09	5433.26
955.25	5476.27
955.42	5513.13
955.58	5529.52
955.75	5480.36
955.91	5568.43
956.07	5513.13
956.24	5547.95
956.40	5504.94
956.57	5588.91
956.73	5463.98
956.90	5599.15
957.06	5470.12
957.23	5431.21
957.39	5361.58
957.56	5615.53
957.72	5633.96
957.88	5463.98
958.05	5535.66
958.21	5599.15
958.38	5539.76
958.54	5494.70
958.71	5646.25
958.87	5463.98
959.03	5515.18
959.20	5625.77
959.36	5425.07
959.53	5582.76
959.69	5296.05
959.85	5769.13
960.02	5351.34
960.18	5595.05
960.35	5492.65
960.51	5523.37
960.68	5490.60
960.84	5531.56
961.00	5588.91
961.17	5420.97
961.33	5582.76
961.50	5492.65
961.66	5504.94
961.82	5365.68
961.99	5603.24
962.15	5550.00
962.31	5552.04
962.48	5429.17
962.64	5525.42
962.81	5320.62
962.97	5556.14
963.13	5599.15
963.30	5511.08
963.46	5449.64
963.62	5513.13
963.79	5525.42
963.95	5357.49
964.12	5474.22
964.28	5431.21
964.44	5498.80
964.61	5517.23
964.77	5437.36
964.93	5615.53
965.10	5425.07
965.26	5359.53
965.42	5320.62
965.59	5437.36
965.75	5312.43
965.92	5324.72
966.08	5470.12
966.24	5451.69
966.41	5386.16
966.57	5412.78
966.73	5359.53
966.90	5478.32
967.06	5394.35
967.22	5242.80
967.39	5185.46
967.55	5232.56
967.71	5343.15
967.88	5228.46
968.04	5304.24
968.20	5238.70
968.37	5232.56
968.53	5259.18
968.69	5285.81
968.85	5470.12
969.02	5316.53
969.18	5230.51
969.34	5357.49
969.51	5361.58
969.67	5269.42
969.83	5048.24
970.00	5162.93
970.16	5148.59
970.32	5193.65
970.48	5257.14
970.65	5273.52
970.81	5091.25
970.97	5089.20
971.14	5001.14
971.30	5113.78
971.46	5070.77
971.63	5117.87
971.79	5134.26
971.95	5099.44
972.11	4990.90
972.28	4921.27
972.44	4997.04
972.60	4974.52
972.76	5021.62
972.93	4896.69
973.09	5046.20
973.25	4974.52
973.42	4892.60
973.58	5033.91
973.74	4859.83
973.90	4923.32
974.07	4779.96
974.23	5050.29
974.39	4972.47
974.55	4818.87
974.72	4954.04
974.88	4812.73
975.04	5058.48
975.20	4812.73
975.37	4876.21
975.53	4814.77
975.69	4911.03
975.85	4720.57
976.01	4808.63
976.18	4757.43
976.34	4689.85
976.50	4784.06
976.66	4804.53
976.83	4730.81
976.99	4814.77
977.15	4616.12
977.31	4652.98
977.47	4829.11
977.64	4708.28
977.80	4648.89
977.96	4771.77
978.12	4601.79
978.29	4595.64
978.45	4655.03
978.61	4624.31
978.77	4663.22
978.93	4548.54
979.10	4603.83
979.26	4593.59
979.42	4532.15
979.58	4497.34
979.74	4526.01
979.91	4626.36
980.07	4591.55
980.23	4562.87
980.39	4497.34
980.55	4474.81
980.71	4319.17
980.88	4419.52
981.04	4442.04
981.20	4415.42
981.36	4419.52
981.52	4462.52
981.68	4538.30
981.85	4372.41
982.01	4399.04
982.17	4308.93
982.33	4339.65
982.49	4448.19
982.65	4370.37
982.82	4491.20
982.98	4460.48
983.14	4319.17
983.30	4319.17
983.46	4433.85
983.62	4257.73
983.79	4177.86
983.95	4229.06
984.11	4157.38
984.27	4253.63
984.43	4153.28
984.59	4296.64
984.75	4276.16
984.91	4196.29
985.08	4188.10
985.24	4087.75
985.40	4126.66
985.56	4327.36
985.72	4253.63
985.88	4069.31
986.04	4157.38
986.20	4022.21
986.37	4155.33
986.53	4079.55
986.69	4272.06
986.85	4112.32
987.01	4026.31
987.17	4065.22
987.33	4069.31
987.49	4067.27
987.65	3952.58
987.82	3981.25
987.98	3948.48
988.14	4046.79
988.30	3983.30
988.46	3997.64
988.62	4022.21
988.78	3942.34
988.94	4050.88
989.10	3991.49
989.26	3923.91
989.42	3841.99
989.59	3743.69
989.75	3792.84
989.91	3862.47
990.07	3778.50
990.23	3821.51
990.39	3823.56
990.55	3835.85
990.71	3764.17
990.87	3887.04
991.03	3872.71
991.19	3721.16
991.35	3790.79
991.51	3725.26
991.67	3911.62
991.83	3743.69
992.00	3895.24
992.16	3731.40
992.32	3717.06
992.48	3778.50
992.64	3624.90
992.80	3764.17
992.96	3680.20
993.12	3618.76
993.28	3715.02
993.44	3569.61
993.60	3567.56
993.76	3649.48
993.92	3669.96
994.08	3704.78
994.24	3725.26
994.40	3608.52
994.56	3770.31
994.72	3469.26
994.88	3672.01
995.04	3573.71
995.20	3594.19
995.36	3635.14
995.52	3526.60
995.68	3524.55
995.84	3432.40
996.00	3624.90
996.16	3508.17
996.32	3532.75
996.48	3452.88
996.64	3553.23
996.80	3475.40
996.96	3475.40
997.12	3409.87
997.28	3450.83
997.44	3471.31
997.60	3393.48
997.76	3403.72
997.92	3493.83
998.08	3481.55
998.24	3270.61
998.40	3411.92
998.56	3461.07
998.72	3289.04
998.88	3377.10
999.04	3323.85
999.20	3434.44
999.36	3311.57
999.52	3452.88
999.68	3209.17
999.84	3364.81
1000.00	3346.38
1000.16	3344.33
1000.32	3266.51
1000.48	3477.45
1000.64	3186.64
1000.80	3137.49
1000.95	3192.78
1001.11	3352.52
1001.27	3149.78
1001.43	3379.15
1001.59	3215.31
1001.75	3153.87
1001.91	3209.17
1002.07	3141.58
1002.23	3153.87
1002.39	3184.59
1002.55	3127.25
1002.71	3104.72
1002.87	3176.40
1003.03	3088.34
1003.19	3123.15
1003.34	3141.58
1003.50	3141.58
1003.66	3203.02
1003.82	3055.57
1003.98	2979.79
1004.14	3047.38
1004.30	3061.71
1004.46	2992.08
1004.62	3096.53
1004.78	3080.14
1004.94	3008.47
1005.09	3020.75
1005.25	3123.15
1005.41	2899.92
1005.57	3010.51
1005.73	2981.84
1005.89	2996.18
1006.05	2940.88
1006.21	3069.91
1006.37	2942.93
1006.52	2824.15
1006.68	2969.55
1006.84	3008.47
1007.00	2875.35
1007.16	2969.55
1007.32	2914.26
1007.48	2858.96
1007.64	2983.89
1007.79	2842.58
1007.95	2844.63
1008.11	2975.70
1008.27	2826.20
1008.43	2947.03
1008.59	2858.96
1008.75	2885.59
1008.91	2854.87
1009.06	2799.57
1009.22	2928.60
1009.38	2807.77
1009.54	2842.58
1009.70	2801.62
1009.86	2797.53
1010.01	2836.44
1010.17	2824.15
1010.33	2770.90
1010.49	2766.81
1010.65	2861.01
1010.81	2645.98
1010.96	2707.41
1011.12	2680.79
1011.28	2625.50
1011.44	2781.14
1011.60	2744.28
1011.76	2672.60
1011.91	2715.61
1012.07	2609.11
1012.23	2619.35
1012.39	2660.31
1012.55	2752.47
1012.71	2621.40
1012.86	2617.30
1013.02	2703.32
1013.18	2633.69
1013.34	2623.45
1013.50	2695.13
1013.65	2678.74
1013.81	2621.40
1013.97	2637.78
1014.13	2662.36
1014.29	2580.44
1014.44	2754.52
1014.60	2613.21
1014.76	2533.34
1014.92	2678.74
1015.07	2645.98
1015.23	2523.10
1015.39	2557.91
1015.55	2519.00
1015.71	2519.00
1015.86	2531.29
1016.02	2471.90
1016.18	2455.51
1016.34	2566.10
1016.49	2547.67
1016.65	2574.30
1016.81	2449.37
1016.97	2570.20
1017.12	2496.47
1017.28	2510.81
1017.44	2387.93
1017.60	2363.36
1017.75	2539.48
1017.91	2490.33
1018.07	2443.23
1018.23	2463.71
1018.38	2334.68
1018.54	2363.36
1018.70	2349.02
1018.86	2389.98
1019.01	2392.03
1019.17	2342.88
1019.33	2471.90
1019.49	2445.27
1019.64	2439.13
1019.80	2353.12
1019.96	2420.70
1020.12	2426.84
1020.27	2418.65
1020.43	2295.77
1020.59	2373.60
1020.74	2437.08
1020.90	2357.21
1021.06	2377.69
1021.22	2328.54
1021.37	2310.11
1021.53	2240.48
1021.69	2359.26
1021.84	2215.90
1022.00	2367.45
1022.16	2205.66
1022.31	2332.64
1022.47	2318.30
1022.63	2254.81
1022.79	2209.76
1022.94	2318.30
1023.10	2332.64
1023.26	2330.59
1023.41	2252.77
1023.57	2199.52
1023.73	2211.81
1023.88	2330.59
1024.04	2174.94
1024.20	2236.38
1024.35	2265.05
1024.51	2222.05
1024.67	2189.28
1024.82	2275.29
1024.98	2123.74
1025.14	2236.38
1025.29	2090.98
1025.45	2275.29
1025.61	2150.37
1025.76	2125.79
1025.92	2246.62
1026.08	2267.10
1026.23	2301.92
1026.39	2164.70
1026.55	2140.13
1026.70	2140.13
1026.86	2187.23
1027.02	2226.14
1027.17	2166.75
1027.33	2129.89
1027.48	2103.26
1027.64	2154.46
1027.80	2090.98
1027.95	2220.00
1028.11	2033.63
1028.27	2052.06
1028.42	2113.50
1028.58	2152.42
1028.73	2107.36
1028.89	2052.06
1029.05	2129.89
1029.20	2150.37
>>>>>End Processed Spectral Data<<<<<
