SpectraSuite Data File
++++++++++++++++++++++++++++++++++++
Date: Fri Jun 02 14:51:12 CEST 2017
User: INFO_000
Dark Spectrum Present: No
Reference Spectrum Present: No
Number of Sampled Component Spectra: 1
Spectrometers: USB4H00879
Integration Time (usec): 80000 (USB4H00879)
Spectra Averaged: 1 (USB4H00879)
Boxcar Smoothing: 0 (USB4H00879)
Correct for Electrical Dark: No (USB4H00879)
Strobe/Lamp Enabled: No (USB4H00879)
Correct for Detector Non-linearity: No (USB4H00879)
Correct for Stray Light: No (USB4H00879)
Number of Pixels in Processed Spectrum: 3648
>>>>>Begin Processed Spectral Data<<<<<
345.13	1327.08
345.34	1327.08
345.56	1327.08
345.78	1310.70
345.99	1236.97
346.21	1654.76
346.42	1810.40
346.64	1619.94
346.86	1804.26
347.07	1617.90
347.29	1673.19
347.50	1634.28
347.72	1722.34
347.94	1794.02
348.15	1550.31
348.37	1538.02
348.59	1724.39
348.80	1732.58
349.02	1837.03
349.23	1906.66
349.45	1812.45
349.67	1847.27
349.88	1794.02
350.10	1945.57
350.31	1818.60
350.53	1847.27
350.75	1951.71
350.96	1812.45
351.18	1900.52
351.39	1867.75
351.61	1830.88
351.82	1882.08
352.04	1959.91
352.26	1851.36
352.47	1945.57
352.69	1841.12
352.90	1710.05
353.12	1898.47
353.34	1828.84
353.55	1947.62
353.77	1904.61
353.98	1834.98
354.20	1794.02
354.41	1937.38
354.63	1861.60
354.85	2146.27
355.06	1896.42
355.28	1802.21
355.49	1927.14
355.71	1953.76
355.92	1937.38
356.14	1908.71
356.35	1888.23
356.57	1853.41
356.79	1920.99
357.00	1855.46
357.22	1974.24
357.43	1873.89
357.65	1935.33
357.86	1908.71
358.08	1843.17
358.29	1964.00
358.51	1925.09
358.72	1955.81
358.94	1920.99
359.16	1918.95
359.37	1896.42
359.59	1947.62
359.80	1990.63
360.02	1923.04
360.23	1972.19
360.45	2052.06
360.66	1961.95
360.88	1867.75
361.09	1867.75
361.31	2007.01
361.52	1877.99
361.74	2111.46
361.95	2037.73
362.17	1976.29
362.38	2037.73
362.60	2093.02
362.81	1986.53
363.03	2007.01
363.24	1966.05
363.46	2023.39
363.67	2043.87
363.89	2009.06
364.10	1945.57
364.32	1970.15
364.53	1992.67
364.75	1920.99
364.96	1996.77
365.18	2131.94
365.39	2021.35
365.61	1955.81
365.82	2183.13
366.04	1964.00
366.25	2011.11
366.47	2064.35
366.68	1980.39
366.90	1943.52
367.11	2146.27
367.33	2078.69
367.54	2090.98
367.76	1986.53
367.97	2115.55
368.19	2023.39
368.40	2025.44
368.62	1945.57
368.83	1951.71
369.05	2039.78
369.26	1978.34
369.48	1996.77
369.69	2004.96
369.91	2027.49
370.12	2011.11
370.33	2074.59
370.55	1931.23
370.76	2062.30
370.98	2039.78
371.19	2068.45
371.41	2037.73
371.62	2070.50
371.84	2029.54
372.05	2086.88
372.27	2062.30
372.48	2093.02
372.69	2043.87
372.91	2183.13
373.12	2152.42
373.34	2095.07
373.55	2133.98
373.77	2179.04
373.98	2166.75
374.20	2156.51
374.41	2287.58
374.62	2179.04
374.84	2119.65
375.05	2260.96
375.27	2115.55
375.48	2160.61
375.70	2244.57
375.91	2246.62
376.12	2297.82
376.34	2244.57
376.55	2224.09
376.77	2293.72
376.98	2138.08
377.19	2113.50
377.41	2150.37
377.62	2228.19
377.84	2252.77
378.05	2215.90
378.27	2179.04
378.48	2293.72
378.69	2398.17
378.91	2248.67
379.12	2260.96
379.34	2197.47
379.55	2234.33
379.76	2258.91
379.98	2187.23
380.19	2293.72
380.41	2260.96
380.62	2273.25
380.83	2236.38
381.05	2215.90
381.26	2349.02
381.47	2265.05
381.69	2275.29
381.90	2369.50
382.12	2279.39
382.33	2275.29
382.54	2191.33
382.76	2342.88
382.97	2351.07
383.19	2308.06
383.40	2387.93
383.61	2318.30
383.83	2281.44
384.04	2279.39
384.25	2365.40
384.47	2435.03
384.68	2400.22
384.89	2277.34
385.11	2287.58
385.32	2355.16
385.54	2244.57
385.75	2338.78
385.96	2437.08
386.18	2504.67
386.39	2414.56
386.60	2416.60
386.82	2447.32
387.03	2396.12
387.24	2400.22
387.46	2494.43
387.67	2428.89
387.88	2484.19
388.10	2432.99
388.31	2469.85
388.52	2615.26
388.74	2494.43
388.95	2512.86
389.16	2516.95
389.38	2473.95
389.59	2555.86
389.80	2643.93
390.02	2666.46
390.23	2666.46
390.44	2527.19
390.66	2480.09
390.87	2502.62
391.08	2564.06
391.30	2656.22
391.51	2686.94
391.72	2611.16
391.94	2668.50
392.15	2555.86
392.36	2574.30
392.58	2619.35
392.79	2586.58
393.00	2600.92
393.22	2658.26
393.43	2723.80
393.64	2828.24
393.85	2738.13
394.07	2715.61
394.28	2695.13
394.49	2738.13
394.71	2770.90
394.92	2785.24
395.13	2650.07
395.35	2723.80
395.56	2656.22
395.77	2799.57
395.98	2756.57
396.20	2809.81
396.41	2899.92
396.62	2918.36
396.84	2809.81
397.05	2918.36
397.26	2895.83
397.47	2975.70
397.69	2703.32
397.90	3006.42
398.11	2916.31
398.32	2924.50
398.54	2920.40
398.75	2830.29
398.96	2912.21
399.18	3010.51
399.39	2928.60
399.60	3076.05
399.81	2904.02
400.03	2983.89
400.24	3256.27
400.45	2961.36
400.66	2996.18
400.88	3057.62
401.09	3117.01
401.30	3088.34
401.51	3186.64
401.73	3157.97
401.94	3094.48
402.15	3092.43
402.36	3098.58
402.58	3078.10
402.79	3074.00
403.00	3286.99
403.21	3149.78
403.43	3143.63
403.64	3223.50
403.85	3055.57
404.06	3295.18
404.27	3110.86
404.49	3340.24
404.70	3106.77
404.91	3256.27
405.12	3219.41
405.34	3190.74
405.55	3315.66
405.76	3178.45
405.97	3241.93
406.19	3411.92
406.40	3295.18
406.61	3360.72
406.82	3274.70
407.03	3360.72
407.25	3221.45
407.46	3354.57
407.67	3389.39
407.88	3321.81
408.09	3420.11
408.31	3338.19
408.52	3469.26
408.73	3346.38
408.94	3278.80
409.15	3465.16
409.37	3469.26
409.58	3504.07
409.79	3469.26
410.00	3456.97
410.21	3401.68
410.43	3485.64
410.64	3360.72
410.85	3616.71
411.06	3528.65
411.27	3514.31
411.48	3651.53
411.70	3542.99
411.91	3606.47
412.12	3659.72
412.33	3565.51
412.54	3674.06
412.76	3618.76
412.97	3575.75
413.18	3514.31
413.39	3459.02
413.60	3655.62
413.81	3637.19
414.03	3590.09
414.24	3598.28
414.45	3747.78
414.66	3514.31
414.87	3745.73
415.08	3698.63
415.30	3774.41
415.51	3846.09
415.72	3659.72
415.93	3626.95
416.14	3850.18
416.35	3809.22
416.56	3704.78
416.78	3786.69
416.99	3880.90
417.20	3829.70
417.41	3948.48
417.62	3950.53
417.83	3776.45
418.04	3878.85
418.26	3936.20
418.47	3923.91
418.68	3977.16
418.89	3874.76
419.10	3987.40
419.31	4011.97
419.52	4057.03
419.73	4024.26
419.95	4046.79
420.16	3952.58
420.37	4022.21
420.58	4044.74
420.79	3762.12
421.00	4071.36
421.21	4130.75
421.42	4112.32
421.63	4200.38
421.85	4173.76
422.06	4067.27
422.27	4140.99
422.48	4145.09
422.69	4140.99
422.90	4222.91
423.11	4267.97
423.32	4261.82
423.53	4415.42
423.75	4261.82
423.96	4329.41
424.17	4425.66
424.38	4442.04
424.59	4493.24
424.80	4663.22
425.01	4421.56
425.22	4368.32
425.43	4376.51
425.64	4714.42
425.85	4638.65
426.06	4511.68
426.28	4501.44
426.49	4343.74
426.70	4511.68
426.91	4349.89
427.12	4628.41
427.33	4605.88
427.54	4579.26
427.75	4675.51
427.96	4695.99
428.17	4745.14
428.38	4810.68
428.59	4763.58
428.80	4700.09
429.01	4693.94
429.23	4734.90
429.44	4960.18
429.65	4902.84
429.86	4906.93
430.07	4900.79
430.28	4876.21
430.49	4888.50
430.70	4990.90
430.91	4964.28
431.12	4769.72
431.33	5132.21
431.54	5107.63
431.75	5040.05
431.96	5140.40
432.17	5156.79
432.38	4972.47
432.59	5382.06
432.80	5259.18
433.01	5332.91
433.22	5193.65
433.43	5250.99
433.64	5273.52
433.85	5320.62
434.06	5367.73
434.27	5279.66
434.49	5343.15
434.70	5427.12
434.91	5339.05
435.12	5558.19
435.33	5359.53
435.54	5541.80
435.75	5300.14
435.96	5373.87
436.17	5359.53
436.38	5550.00
436.59	5498.80
436.80	5445.55
437.01	5713.83
437.22	5674.92
437.43	5676.97
437.64	5408.69
437.85	5648.30
438.06	5687.21
438.27	5558.19
438.48	5648.30
438.69	5771.18
438.90	5672.87
439.11	5623.72
439.32	5736.36
439.53	5752.74
439.74	5769.13
439.95	5873.57
440.16	5765.03
440.37	5984.16
440.57	5814.18
440.78	5793.70
440.99	5949.35
441.20	5883.81
441.41	5873.57
441.62	5926.82
441.83	5853.09
442.04	6068.13
442.25	6109.09
442.46	5947.30
442.67	6176.67
442.88	6426.53
443.09	6045.60
443.30	6092.71
443.51	6281.12
443.72	6244.26
443.93	6053.80
444.14	6385.57
444.35	6166.43
444.56	6295.46
444.77	6184.87
444.98	6348.70
445.19	6418.33
445.40	6295.46
445.61	6219.68
445.81	6295.46
446.02	6545.31
446.23	6350.75
446.44	6119.33
446.65	6541.21
446.86	6328.22
447.07	6475.68
447.28	6950.81
447.49	6696.86
447.70	6451.10
447.91	6592.41
448.12	6434.72
448.33	6717.34
448.54	6739.87
448.74	6643.61
448.95	6692.76
449.16	6631.32
449.37	6928.28
449.58	6725.53
449.79	6920.09
450.00	6614.94
450.21	6852.50
450.42	6850.46
450.63	7106.45
450.84	6942.61
451.05	6950.81
451.25	6950.81
451.46	6950.81
451.67	7141.27
451.88	7141.27
452.09	7049.11
452.30	6956.95
452.51	7022.48
452.72	7237.52
452.93	7421.84
453.13	7071.64
453.34	7221.14
453.55	7384.98
453.76	7057.30
453.97	7671.69
454.18	7368.59
454.39	7581.58
454.60	7481.23
454.81	7446.41
455.01	7526.29
455.22	7262.10
455.43	7497.61
455.64	7796.62
455.85	7718.79
456.06	7950.21
456.27	7767.95
456.48	7628.68
456.68	7819.14
456.89	7774.09
457.10	7870.34
457.31	7948.17
457.52	7786.38
457.73	7937.93
457.94	8081.28
458.14	7901.06
458.35	8361.86
458.56	8204.16
458.77	8171.40
458.98	8292.23
459.19	8214.40
459.39	8335.23
459.60	8386.43
459.81	8286.08
460.02	8345.47
460.23	8499.07
460.44	8675.20
460.65	8494.97
460.85	8654.72
461.06	8693.63
461.27	8380.29
461.48	8824.70
461.69	9049.97
461.89	8652.67
462.10	8951.67
462.31	8712.06
462.52	8753.02
462.73	8941.43
462.94	9092.98
463.14	9107.32
463.35	9025.40
463.56	9316.21
463.77	9373.55
463.98	9199.48
464.18	9168.76
464.39	9406.32
464.60	9576.30
464.81	9500.53
465.02	9424.75
465.23	9807.72
465.43	9531.25
465.64	9783.15
465.85	9744.24
466.06	9625.45
466.27	9781.10
466.47	9946.98
466.68	9908.07
466.89	9840.49
467.10	10067.81
467.30	9762.67
467.51	10180.45
467.72	10338.15
467.93	9930.60
468.14	10293.09
468.34	10510.18
468.55	10473.31
468.76	10422.11
468.97	10418.02
469.17	10510.18
469.38	10741.60
469.59	10807.13
469.80	10665.82
470.01	10995.54
470.21	10956.63
470.42	10915.67
470.63	11134.81
470.84	11032.41
471.04	11095.89
471.25	11222.87
471.46	11353.94
471.67	11577.17
471.87	11317.08
472.08	11329.36
472.29	11722.57
472.50	11468.62
472.70	11632.46
472.91	11743.05
473.12	11798.35
473.33	11771.72
473.53	12109.64
473.74	11937.61
473.95	12097.35
474.16	12240.71
474.36	12242.76
474.57	12543.81
474.78	12572.48
474.99	12388.16
475.19	12377.92
475.40	12777.28
475.61	12629.82
475.81	13006.65
476.02	13088.57
476.23	12799.80
476.44	12961.59
476.64	13395.76
476.85	13487.92
477.06	13469.49
477.27	13621.04
477.47	13578.03
477.68	13766.45
477.89	13924.14
478.09	13694.77
478.30	13956.91
478.51	14012.20
478.71	14184.23
478.92	14071.59
479.13	14272.29
479.34	14415.65
479.54	14343.97
479.75	14407.46
479.96	14546.72
480.16	14507.81
480.37	14833.44
480.58	14972.70
480.78	15109.91
480.99	14976.80
481.20	15009.56
481.41	15234.84
481.61	15367.96
481.82	15474.45
482.03	15357.72
482.23	15314.71
482.44	15666.96
482.65	15914.77
482.85	15961.87
483.06	15970.06
483.27	16070.41
483.47	16074.51
483.68	16092.94
483.89	16463.62
484.09	16314.12
484.30	16688.90
484.51	16910.08
484.71	16672.51
484.92	16750.34
485.13	16826.11
485.33	16887.55
485.54	16928.51
485.75	17405.69
485.95	17340.15
486.16	17358.58
486.37	17303.29
486.57	17487.61
486.78	17450.74
486.98	17473.27
487.19	17594.10
487.40	17673.97
487.60	17880.82
487.81	17991.41
488.02	18050.80
488.22	17919.73
488.43	18196.20
488.64	18050.80
488.84	18542.31
489.05	18595.56
489.25	18573.03
489.46	19191.52
489.67	18767.59
489.87	18919.14
490.08	18675.43
490.29	19070.68
490.49	19486.42
490.70	19494.61
490.90	19388.12
491.11	19502.81
491.32	19558.10
491.52	19742.42
491.73	19783.38
491.94	19748.56
492.14	19986.13
492.35	19887.82
492.55	20104.91
492.76	20074.19
492.97	20451.02
493.17	20152.01
493.38	20514.50
493.58	20700.87
493.79	20092.62
494.00	20408.01
494.20	20639.43
494.41	20733.64
494.61	21032.64
494.82	21038.78
495.02	21106.37
495.23	21003.97
495.44	21145.28
495.64	21477.05
495.85	21266.11
496.05	21507.77
496.26	21327.55
496.47	21825.20
496.67	21456.57
496.88	21878.45
497.08	21698.23
497.29	22111.92
497.49	21993.14
497.70	22116.01
497.91	22324.91
498.11	22247.08
498.32	22632.10
498.52	22441.64
498.73	22691.49
498.93	22611.62
499.14	22564.52
499.34	22865.57
499.55	23129.76
499.76	22650.53
499.96	22841.00
500.17	23025.31
500.37	23107.23
500.58	23258.78
500.78	23297.69
500.99	23400.09
501.19	23596.70
501.40	23504.54
501.60	23445.15
501.81	23631.51
502.02	23469.72
502.22	23492.25
502.43	23955.09
502.63	23799.44
502.84	23758.49
503.04	24233.61
503.25	24260.24
503.45	23830.16
503.66	24364.68
503.86	24329.87
504.07	24594.06
504.27	24034.96
504.48	24755.85
504.68	24807.05
504.89	24712.84
505.09	24907.40
505.30	24686.22
505.50	24823.43
505.71	24673.93
505.91	24913.54
506.12	24712.84
506.32	25271.93
506.53	24913.54
506.73	25110.14
506.94	25226.88
507.14	25216.64
507.35	25501.31
507.55	25214.59
507.76	25325.18
507.96	25276.03
508.17	25656.95
508.37	25597.56
508.58	25579.13
508.78	26144.37
508.99	26189.42
509.19	26183.28
509.40	26046.07
509.60	25945.72
509.81	25910.90
510.01	25802.36
510.22	25976.44
510.42	26336.88
510.63	26074.74
510.83	26504.81
511.04	26326.64
511.24	26437.23
511.44	26443.37
511.65	26678.89
511.85	26805.86
512.06	26603.11
512.26	26656.36
512.47	26873.45
512.67	26723.94
512.88	26713.70
513.08	26652.27
513.29	26967.65
513.49	26898.02
513.69	26779.24
513.90	27190.88
514.10	27256.42
514.31	27313.76
514.51	27117.15
514.72	27190.88
514.92	27522.65
515.13	27473.50
515.33	27610.71
515.53	27541.08
515.74	27414.11
515.94	27483.74
516.15	28059.22
516.35	27504.22
516.56	28010.07
516.76	27792.98
516.96	27936.34
517.17	28124.75
517.37	28202.58
517.58	28235.35
517.78	28098.13
517.99	28216.91
518.19	28165.71
518.39	28329.55
518.60	28573.26
518.80	28401.23
519.01	28673.61
519.21	28548.68
519.41	28747.34
519.62	28536.40
519.82	28716.62
520.03	29056.58
520.23	28888.65
520.43	29103.68
520.64	29382.21
520.84	29281.86
521.05	29312.58
521.25	29517.37
521.45	29083.20
521.66	29525.57
521.86	29331.01
522.07	29470.27
522.27	29713.98
522.47	30004.79
522.68	29986.36
522.88	29625.92
523.08	30199.35
523.29	30268.98
523.49	30035.51
523.70	29865.53
523.90	30160.44
524.10	30260.79
524.31	30412.34
524.51	30297.65
524.71	30758.44
524.92	30451.25
525.12	30549.55
525.33	30975.53
525.53	30791.21
525.73	30916.14
525.94	31008.29
526.14	31204.90
526.34	31292.96
526.55	31508.00
526.75	31133.22
526.95	31723.04
527.16	31596.06
527.36	31454.75
527.56	31608.35
527.77	31895.07
527.97	31847.96
528.17	31665.69
528.38	31956.50
528.58	32124.44
528.78	32067.09
528.99	31856.15
529.19	32785.93
529.39	32331.28
529.60	32826.89
529.80	32370.19
530.00	32478.74
530.21	32634.38
530.41	32898.57
530.61	32962.06
530.82	33076.74
531.02	33017.35
531.22	33283.59
531.43	33338.88
531.63	33365.51
531.83	33601.02
532.04	33777.15
532.24	33646.08
532.44	33803.77
532.64	33897.98
532.85	34002.43
533.05	34151.93
533.25	33891.83
533.46	33777.15
533.66	34512.37
533.86	34244.09
534.07	34809.32
534.27	34184.69
534.47	34868.72
534.67	34692.59
534.88	34387.44
535.08	34870.76
535.28	35102.18
535.49	35276.26
535.69	35505.63
535.89	35632.61
536.09	35423.72
536.30	35669.47
536.50	35653.09
536.70	35651.04
536.91	35632.61
537.11	35608.03
537.31	35757.53
537.51	36255.19
537.72	36197.85
537.92	36044.25
538.12	36701.65
538.32	36097.50
538.53	36541.91
538.73	36312.53
538.93	36918.73
539.13	36322.77
539.34	36677.07
539.54	36642.26
539.74	36879.82
539.94	36847.05
540.15	36857.29
540.35	37369.29
540.55	37119.43
540.75	36943.31
540.96	37539.27
541.16	37262.79
541.36	37680.58
541.56	37690.82
541.77	38028.73
541.97	37576.13
542.17	37721.54
542.37	37531.08
542.58	38071.74
542.78	38364.60
542.98	37705.15
543.18	37975.48
543.38	38530.48
543.59	38215.10
543.79	38641.07
543.99	38196.67
544.19	38809.01
544.40	38628.79
544.60	38950.32
544.80	38469.04
545.00	38925.74
545.20	39075.24
545.41	38598.07
545.61	38815.15
545.81	38968.75
546.01	39413.16
546.21	39167.40
546.42	39071.15
546.62	39298.47
546.82	39343.53
547.02	39163.31
547.22	39382.44
547.43	39585.19
547.63	39841.18
547.83	39806.37
548.03	39613.86
548.23	40113.56
548.44	39951.77
548.64	39536.04
548.84	39751.07
549.04	40070.56
549.24	40160.67
549.45	40560.02
549.65	39988.64
549.85	40187.29
550.05	40304.02
550.25	40082.84
550.45	40844.69
550.66	40304.02
550.86	40433.05
551.06	40504.73
551.26	40580.50
551.46	40740.24
551.66	40854.93
551.87	40678.80
552.07	41055.63
552.27	40902.03
552.47	40578.45
552.67	41428.36
552.87	40828.30
553.07	41244.04
553.28	41160.08
553.48	41518.47
553.68	41147.79
553.88	41710.98
554.08	41538.95
554.28	41522.57
554.48	41127.31
554.69	41432.46
554.89	41645.44
555.09	41592.20
555.29	41252.23
555.49	41729.41
555.69	41506.18
555.89	41764.23
556.10	41948.54
556.30	41598.34
556.50	41989.50
556.70	41581.96
556.90	42130.81
557.10	42272.12
557.30	41872.77
557.50	42321.27
557.70	42116.48
557.91	42323.32
558.11	42313.08
558.31	42329.47
558.51	42139.00
558.71	42382.71
558.91	42335.61
559.11	42517.88
559.31	42796.40
559.51	42251.64
559.72	42302.84
559.92	42651.00
560.12	42407.29
560.32	42786.16
560.52	42700.15
560.72	42622.33
560.92	42997.10
561.12	42769.78
561.32	43134.32
561.52	42857.84
561.72	43109.74
561.93	42657.14
562.13	42988.91
562.33	42796.40
562.53	43398.51
562.73	43132.27
562.93	43136.37
563.13	43093.36
563.33	43138.41
563.53	43623.78
563.73	43095.41
563.93	43427.18
564.13	43906.40
564.33	43345.26
564.53	43083.12
564.74	43554.15
564.94	43666.79
565.14	43357.55
565.34	43459.94
565.54	43865.44
565.74	43599.21
565.94	44082.53
566.14	43849.06
566.34	43849.06
566.54	43914.59
566.74	43410.79
566.94	44168.54
567.14	43973.98
567.34	43756.90
567.54	44045.66
567.74	43951.46
567.94	43951.46
568.14	44211.55
568.34	44524.89
568.54	44078.43
568.74	44973.39
568.94	44561.75
569.14	44731.73
569.34	44940.63
569.54	44606.81
569.75	44127.58
569.95	44322.14
570.15	45043.02
570.35	44606.81
570.55	44856.66
570.75	44574.04
570.95	44690.77
571.15	45139.28
571.35	44754.26
571.55	45321.55
571.75	44631.38
571.95	44920.15
572.15	44705.11
572.35	45512.01
572.55	45163.85
572.75	44981.59
572.95	45069.65
573.15	45319.50
573.35	44836.18
573.55	44881.24
573.75	45323.60
573.95	45366.60
574.15	45045.07
574.35	45350.22
574.55	45208.91
574.75	45385.04
574.95	45638.98
575.15	45319.50
575.34	45391.18
575.54	45671.75
575.74	46105.92
575.94	46400.83
576.14	45806.92
576.34	46398.78
576.54	46253.37
576.74	46095.68
576.94	45911.36
577.14	46495.03
577.34	46077.25
577.54	45827.40
577.74	46626.10
577.94	46212.41
578.14	46781.75
578.34	46800.18
578.54	46114.11
578.74	46425.40
578.94	46372.16
579.14	46822.71
579.34	46351.68
579.54	46654.78
579.74	46826.81
579.94	46556.47
580.13	46959.92
580.33	46753.08
580.53	47115.57
580.73	47359.28
580.93	46851.38
581.13	47043.89
581.33	47615.27
581.53	47535.40
581.73	47473.96
581.93	47586.60
582.13	47398.19
582.33	47435.05
582.53	47263.02
582.73	47779.11
582.92	47865.13
583.12	47453.48
583.32	47539.50
583.52	47314.22
583.72	47901.99
583.92	47635.75
584.12	47709.48
584.32	48315.68
584.52	48364.83
584.72	48008.48
584.92	48391.45
585.11	48461.08
585.31	48002.34
585.51	48516.38
585.71	48270.62
585.91	48899.35
586.11	48297.25
586.31	48047.39
586.51	48493.85
586.71	48319.77
586.91	49130.77
587.10	48657.69
587.30	48723.22
587.50	48346.40
587.70	48659.74
587.90	49028.37
588.10	48813.34
588.30	49001.75
588.50	49288.46
588.69	49134.87
588.89	48696.60
589.09	49141.01
589.29	48942.36
589.49	49820.94
589.69	49214.74
589.89	49659.15
590.08	49773.83
590.28	49411.34
590.48	49526.03
590.68	49534.22
590.88	49677.58
591.08	49519.88
591.28	49638.67
591.47	49726.73
591.67	50025.73
591.87	49820.94
592.07	50062.60
592.27	49837.32
592.47	49693.96
592.67	49974.53
592.86	49958.15
593.06	49634.57
593.26	50525.44
593.46	50081.03
593.66	50351.36
593.86	50089.22
594.05	50406.65
594.25	50412.80
594.45	50101.51
594.65	50324.74
594.85	50197.76
595.05	50144.51
595.24	50697.47
595.44	50232.58
595.64	50652.41
595.84	50560.25
596.04	50902.26
596.23	50767.10
596.43	50906.36
596.63	50744.57
596.83	50840.82
597.03	50912.50
597.22	51578.09
597.42	51027.19
597.62	51557.61
597.82	51274.99
598.02	51352.82
598.21	50855.16
598.41	50885.88
598.61	51485.93
598.81	51852.52
599.01	51401.97
599.20	51549.42
599.40	51213.55
599.60	51756.27
599.80	52010.21
600.00	51750.12
600.19	51844.33
600.39	51782.89
600.59	51936.49
600.79	52245.73
600.98	51627.24
601.18	52245.73
601.38	52229.35
601.58	52407.52
601.78	51649.77
601.97	52335.84
602.17	52704.48
602.37	52493.54
602.57	52452.58
602.76	52606.17
602.96	52159.72
603.16	52761.82
603.36	52325.60
603.55	52894.94
603.75	52593.89
603.95	52905.18
604.15	52960.47
604.34	52858.07
604.54	53230.80
604.74	53314.77
604.94	53138.65
605.13	52997.34
605.33	53327.06
605.53	52860.12
605.73	53390.55
605.92	53124.31
606.12	53488.85
606.32	53476.56
606.52	53617.87
606.71	53523.66
606.91	53730.51
607.11	53564.62
607.30	53753.04
607.50	53662.93
607.70	53433.55
607.90	54002.89
608.09	53890.25
608.29	53935.30
608.49	54162.63
608.68	54502.59
608.88	54394.05
609.08	53886.15
609.28	54023.37
609.47	53867.72
609.67	54840.51
609.87	54414.53
610.06	54240.45
610.26	54500.54
610.46	54373.57
610.66	53773.52
610.85	54207.68
611.05	54047.94
611.25	54375.62
611.44	54172.87
611.64	54246.60
611.84	54326.47
612.03	54066.38
612.23	54334.66
612.43	54080.71
612.62	54334.66
612.82	54752.44
613.02	54928.57
613.21	54424.77
613.41	54228.16
613.61	54652.09
613.80	54228.16
614.00	54375.62
614.20	54752.44
614.39	54580.42
614.59	54731.96
614.79	54500.54
614.98	54658.24
615.18	54518.98
615.38	54514.88
615.57	54439.11
615.77	54623.42
615.97	54621.37
616.16	54230.21
616.36	54525.12
616.56	54619.33
616.75	54936.76
616.95	54342.85
617.15	54793.40
617.34	54834.36
617.54	54756.54
617.74	54903.99
617.93	54842.56
618.13	54111.43
618.32	54787.26
618.52	54762.68
618.72	54772.92
618.91	54777.02
619.11	54377.67
619.31	55186.61
619.50	54764.73
619.70	54711.49
619.90	54498.50
620.09	54783.16
620.29	54746.30
620.48	54756.54
620.68	55174.33
620.88	54424.77
621.07	54676.67
621.27	54652.09
621.46	54545.60
621.66	54740.16
621.86	54625.47
622.05	54512.83
622.25	55209.14
622.44	54377.67
622.64	54908.09
622.84	54830.27
623.03	54287.56
623.23	54969.53
623.42	54783.16
623.62	54957.24
623.82	54727.87
624.01	54482.11
624.21	55010.49
624.40	54834.36
624.60	54715.58
624.80	54537.41
624.99	54777.02
625.19	54281.41
625.38	54777.02
625.58	55078.07
625.77	54906.04
625.97	54959.29
626.17	54113.48
626.36	54742.20
626.56	54840.51
626.75	54240.45
626.95	54936.76
627.14	54834.36
627.34	55203.00
627.54	54375.62
627.73	54547.65
627.93	54979.77
628.12	54543.55
628.32	54801.60
628.51	54969.53
628.71	54715.58
628.90	54498.50
629.10	54688.96
629.30	55000.25
629.49	55233.72
629.69	54533.31
629.88	54465.73
630.08	55350.45
630.27	55291.06
630.47	54717.63
630.66	54736.06
630.86	54908.09
631.05	54498.50
631.25	55334.07
631.44	55135.41
631.64	55045.30
631.84	54834.36
632.03	55213.24
632.23	54969.53
632.42	55153.85
632.62	55178.42
632.81	54435.01
633.01	55260.34
633.20	55284.92
633.40	55248.05
633.59	55358.64
633.79	54869.18
633.98	54846.65
634.18	55454.90
634.37	55116.98
634.57	55088.31
634.76	55002.30
634.96	55311.54
635.15	55033.02
635.35	55119.03
635.54	54473.92
635.74	55542.96
635.93	54916.28
636.13	55727.28
636.32	55301.30
636.52	54793.40
636.71	55080.12
636.91	55375.03
637.10	55174.33
637.30	55301.30
637.49	55246.00
637.69	55084.22
637.88	55295.16
638.08	55028.92
638.27	55424.18
638.46	55260.34
638.66	55067.83
638.85	55180.47
639.05	55301.30
639.24	55547.06
639.44	55049.40
639.63	55506.10
639.83	55395.51
640.02	55723.18
640.22	55112.89
640.41	55575.73
640.61	55000.25
640.80	55372.98
640.99	55092.41
641.19	56005.80
641.38	55631.02
641.58	55162.04
641.77	55485.62
641.97	55461.04
642.16	55884.97
642.36	55530.67
642.55	56173.73
642.74	55196.85
642.94	56276.13
643.13	55631.02
643.33	55723.18
643.52	55792.81
643.72	55989.42
643.91	55581.87
644.10	55903.40
644.30	56114.34
644.49	56061.10
644.69	56319.14
644.88	56024.23
645.08	55661.74
645.27	55522.48
645.46	55747.76
645.66	55745.71
645.85	55614.64
646.05	55758.00
646.24	55837.87
646.43	55678.13
646.63	56136.87
646.82	56151.21
647.02	56204.45
647.21	56102.06
647.40	56087.72
647.60	56161.45
647.79	56179.88
647.99	56263.85
648.18	55827.63
648.37	56728.73
648.57	56097.96
648.76	56136.87
648.96	56198.31
649.15	56349.86
649.34	56390.82
649.54	56235.17
649.73	56134.82
649.92	56261.80
650.12	56542.37
650.31	56448.16
650.51	56603.81
650.70	56616.10
650.89	56095.91
651.09	57158.81
651.28	56435.87
651.47	56806.56
651.67	56439.97
651.86	56747.17
652.06	55997.61
652.25	56521.89
652.44	56173.73
652.64	56022.19
652.83	56491.17
653.02	56016.04
653.22	56259.75
653.41	55940.27
653.60	56255.65
653.80	56194.21
653.99	56704.16
654.18	56102.06
654.38	56456.35
654.57	56265.89
654.76	56743.07
654.96	56329.38
655.15	56331.43
655.34	56579.23
655.54	56013.99
655.73	56669.34
655.92	56775.84
656.12	56429.73
656.31	56941.72
656.50	56775.84
656.70	56280.23
656.89	56300.71
657.08	56802.46
657.28	56841.37
657.47	56091.82
657.66	56915.10
657.86	56581.28
658.05	56736.93
658.24	56685.73
658.43	56638.62
658.63	56628.38
658.82	57220.25
659.01	56870.04
659.21	57062.55
659.40	56974.49
659.59	57023.64
659.79	57218.20
659.98	57275.54
660.17	56558.75
660.36	56765.60
660.56	56855.71
660.75	57037.98
660.94	56736.93
661.14	56575.14
661.33	56593.57
661.52	56661.15
661.71	56972.44
661.91	56814.75
662.10	56347.81
662.29	57040.03
662.49	56851.61
662.68	56851.61
662.87	56820.89
663.06	57001.11
663.26	56419.49
663.45	57271.45
663.64	56943.77
663.83	57068.70
664.03	56931.48
664.22	56876.19
664.41	57300.12
664.60	56935.58
664.80	56906.91
664.99	57072.79
665.18	56474.79
665.37	57283.73
665.57	56820.89
665.76	57167.00
665.95	56829.08
666.14	57205.91
666.34	56482.98
666.53	56925.34
666.72	56812.70
666.91	56468.64
667.11	56218.79
667.30	56894.62
667.49	56525.99
667.68	56448.16
667.87	56710.30
668.07	57189.53
668.26	56958.11
668.45	57037.98
668.64	56585.38
668.84	57291.93
669.03	57130.14
669.22	56687.78
669.41	57437.33
669.60	56929.44
669.80	57017.50
669.99	57048.22
670.18	56775.84
670.37	56898.72
670.57	57255.06
670.76	56657.06
670.95	57361.56
671.14	56820.89
671.33	56808.61
671.53	57148.57
671.72	56837.28
671.91	57025.69
672.10	56718.49
672.29	56771.74
672.48	56763.55
672.68	57224.34
672.87	56566.94
673.06	57152.66
673.25	56894.62
673.44	56800.41
673.64	56521.89
673.83	56958.11
674.02	56702.11
674.21	56632.48
674.40	57013.40
674.59	56517.79
674.79	56734.88
674.98	56779.93
675.17	56566.94
675.36	56724.64
675.55	56808.61
675.74	56396.96
675.94	56652.96
676.13	56777.89
676.32	57029.79
676.51	57218.20
676.70	56667.30
676.89	56315.04
677.08	57023.64
677.28	56411.30
677.47	56726.69
677.66	57300.12
677.85	56517.79
678.04	57173.14
678.23	57085.08
678.42	56741.02
678.62	56593.57
678.81	56939.68
679.00	56517.79
679.19	56908.96
679.38	56849.56
679.57	56638.62
679.76	56399.01
679.96	56890.52
680.15	56511.65
680.34	56652.96
680.53	56636.58
680.72	57228.44
680.91	57076.89
681.10	56767.65
681.29	57037.98
681.48	56390.82
681.68	56683.68
681.87	56317.09
682.06	56009.90
682.25	55973.03
682.44	56226.98
682.63	56788.13
682.82	56202.41
683.01	56235.17
683.20	56050.86
683.39	56562.85
683.59	55794.86
683.78	56593.57
683.97	56073.38
684.16	56358.05
684.35	56175.78
684.54	55927.98
684.73	56218.79
684.92	55989.42
685.11	56276.13
685.30	55887.02
685.49	56269.99
685.69	55788.72
685.88	56063.14
686.07	56134.82
686.26	56063.14
686.45	56267.94
686.64	55762.09
686.83	55864.49
687.02	55952.55
687.21	56222.89
687.40	55907.50
687.59	56048.81
687.78	56239.27
687.97	56521.89
688.16	55981.23
688.35	56120.49
688.54	55882.92
688.74	56157.35
688.93	55719.09
689.12	55772.33
689.31	55745.71
689.50	56108.20
689.69	55504.05
689.88	55588.02
690.07	55844.01
690.26	55598.26
690.45	56188.07
690.64	55391.41
690.83	55678.13
691.02	55055.54
691.21	55411.89
691.40	55227.57
691.59	55456.95
691.78	55309.49
691.97	55405.75
692.16	55452.85
692.35	55397.55
692.54	55684.27
692.73	55383.22
692.92	55362.74
693.11	55401.65
693.30	54979.77
693.49	55282.87
693.68	55018.68
693.87	55375.03
694.06	55104.70
694.25	55295.16
694.44	55102.65
694.63	55502.00
694.82	55305.40
695.01	54844.60
695.20	55020.73
695.39	55166.13
695.58	55043.26
695.77	54592.70
695.96	54922.43
696.15	55342.26
696.34	54777.02
696.53	54875.32
696.72	55354.55
696.91	54766.78
697.10	54994.10
697.29	54574.27
697.48	55088.31
697.67	54396.10
697.86	54326.47
698.05	54383.81
698.24	55203.00
698.43	54265.03
698.62	54574.27
698.81	54258.88
699.00	55096.50
699.19	54222.02
699.38	54750.40
699.57	54326.47
699.76	55178.42
699.95	54375.62
700.14	53628.11
700.32	54369.47
700.51	54596.80
700.70	54518.98
700.89	54680.77
701.08	54719.68
701.27	54244.55
701.46	54604.99
701.65	53933.26
701.84	54367.43
702.03	54449.35
702.22	53961.93
702.41	54049.99
702.60	54027.46
702.79	54170.82
702.98	53826.76
703.17	53845.19
703.35	53847.24
703.54	53892.30
703.73	53949.64
703.92	53834.95
704.11	53499.09
704.30	52983.00
704.49	53888.20
704.68	53642.45
704.87	53961.93
705.06	53404.88
705.25	53466.32
705.43	53613.77
705.62	53687.50
705.81	53322.96
706.00	53165.27
706.19	53472.46
706.38	53277.91
706.57	53345.49
706.76	53255.38
706.95	53290.19
707.14	52868.31
707.32	53091.54
707.51	53189.84
707.70	53107.93
707.89	52901.08
708.08	53300.43
708.27	53560.53
708.46	53265.62
708.65	52896.98
708.84	53259.48
709.02	53425.36
709.21	53150.93
709.40	52970.71
709.59	53056.73
709.78	52565.21
709.97	53077.21
710.16	53032.15
710.34	52743.39
710.53	52835.55
710.72	52755.68
710.91	52913.37
711.10	52796.63
711.29	52899.03
711.48	52679.90
711.66	52651.23
711.85	52444.38
712.04	52411.62
712.23	52303.07
712.42	52546.78
712.61	52626.65
712.80	52423.90
712.98	52006.12
713.17	52335.84
713.36	52165.86
713.55	52401.38
713.74	52370.66
713.93	52247.78
714.11	52036.84
714.30	52329.70
714.49	51981.54
714.68	52286.69
714.87	52344.03
715.06	52286.69
715.24	51815.66
715.43	52069.61
715.62	51852.52
715.81	51758.31
716.00	52032.74
716.18	51735.79
716.37	51760.36
716.56	51062.00
716.75	52012.26
716.94	51778.79
717.12	51447.02
717.31	51840.23
717.50	51836.14
717.69	51307.76
717.88	51152.12
718.06	51557.61
718.25	51987.69
718.44	51023.09
718.63	51150.07
718.82	51143.92
719.00	51156.21
719.19	51129.59
719.38	50846.97
719.57	50306.30
719.76	50269.44
719.94	50392.32
720.13	50935.03
720.32	50670.84
720.51	50736.38
720.69	50459.90
720.88	50629.88
721.07	49976.58
721.26	50025.73
721.44	50885.88
721.63	50164.99
721.82	49804.55
722.01	49921.29
722.20	50173.19
722.38	50009.35
722.57	49833.22
722.76	50232.58
722.95	49865.99
723.13	49542.41
723.32	49550.60
723.51	49579.28
723.70	49153.30
723.88	49820.94
724.07	49415.44
724.26	49820.94
724.44	49192.21
724.63	49708.30
724.82	49732.87
725.01	49513.74
725.19	49679.63
725.38	49202.45
725.57	49272.08
725.76	49247.50
725.94	48692.50
726.13	49108.24
726.32	49405.20
726.51	48928.02
726.69	49560.84
726.88	49261.84
727.07	49106.19
727.25	48602.39
727.44	49034.52
727.63	49196.31
727.82	49167.63
728.00	49136.91
728.19	48753.94
728.38	49085.72
728.56	48555.29
728.75	48936.21
728.94	48633.11
729.12	49417.49
729.31	49313.04
729.50	48862.49
729.69	48538.91
729.87	49030.42
730.06	48577.82
730.25	48895.25
730.43	48878.87
730.62	48297.25
730.81	49102.10
730.99	48995.60
731.18	48733.46
731.37	49128.72
731.55	48635.16
731.74	49286.42
731.93	48657.69
732.11	48690.46
732.30	48772.38
732.49	48299.30
732.67	49014.04
732.86	48633.11
733.05	48624.92
733.23	48424.22
733.42	48608.54
733.61	48629.02
733.79	48624.92
733.98	48981.27
734.17	48788.76
734.35	48641.31
734.54	48897.30
734.73	48555.29
734.91	48944.41
735.10	48246.05
735.29	48792.86
735.47	48182.56
735.66	48489.76
735.84	47924.52
736.03	48176.42
736.22	48774.42
736.40	48207.14
736.59	48551.20
736.78	48119.07
736.96	48006.44
737.15	48278.82
737.33	47858.98
737.52	47967.52
737.71	48125.22
737.89	47932.71
738.08	47609.13
738.27	48065.83
738.45	48512.28
738.64	48502.04
738.82	48143.65
739.01	48112.93
739.20	47635.75
739.38	47973.67
739.57	47762.73
739.75	48332.06
739.94	47951.14
740.13	48428.32
740.31	47658.28
740.50	47789.35
740.68	47826.21
740.87	47709.48
741.06	47899.94
741.24	47928.61
741.43	47457.58
741.61	47705.38
741.80	47500.59
741.99	47353.13
742.17	47433.00
742.36	47519.02
742.54	47244.59
742.73	47942.95
742.91	47572.27
743.10	47598.89
743.29	47666.47
743.47	47267.12
743.66	47320.37
743.84	47494.44
744.03	47011.12
744.21	47275.31
744.40	47564.07
744.59	47301.93
744.77	47064.37
744.96	47082.80
745.14	47226.16
745.33	47351.09
745.51	47232.30
745.70	47164.72
745.88	46925.11
746.07	47258.93
746.26	47322.41
746.44	46988.60
746.63	46867.76
746.81	46945.59
747.00	46681.40
747.18	46658.87
747.37	47076.66
747.55	46871.86
747.74	47031.60
747.92	46572.86
748.11	46746.93
748.29	46740.79
748.48	46761.27
748.66	46466.36
748.85	46312.77
749.03	46548.28
749.22	46363.96
749.41	45980.99
749.59	46179.65
749.78	46249.28
749.96	45645.13
750.15	46267.71
750.33	46177.60
750.52	46159.17
750.70	46120.26
750.89	45593.93
751.07	45892.93
751.26	46085.44
751.44	45966.66
751.63	45884.74
751.81	45860.16
752.00	45749.57
752.18	45880.64
752.37	45868.36
752.55	45512.01
752.74	45499.72
752.92	45512.01
753.10	45530.44
753.29	45819.20
753.47	45499.72
753.66	45278.54
753.84	45700.42
754.03	45247.82
754.21	45129.04
754.40	45204.81
754.58	45243.73
754.77	45225.29
754.95	44971.35
755.14	45133.14
755.32	44879.19
755.51	45131.09
755.69	45030.74
755.88	44692.82
756.06	45010.26
756.24	45016.40
756.43	44524.89
756.61	44662.10
756.80	44668.25
756.98	44391.77
757.17	45032.78
757.35	45149.52
757.54	44690.77
757.72	44813.65
757.90	44557.66
758.09	44569.94
758.27	44701.01
758.46	44639.57
758.64	44352.86
758.83	44567.90
759.01	44338.52
759.19	44744.02
759.38	44813.65
759.56	44504.41
759.75	44346.72
759.93	44373.34
760.12	43992.42
760.30	44578.14
760.48	44324.19
760.67	44191.07
760.85	43726.18
761.04	44389.72
761.22	44326.24
761.40	43955.55
761.59	43922.79
761.77	43840.87
761.96	43726.18
762.14	43707.75
762.32	43742.56
762.51	43892.07
762.69	43969.89
762.88	43754.85
763.06	43734.37
763.24	43740.52
763.43	43601.25
763.61	43566.44
763.80	43857.25
763.98	43339.11
764.16	43308.40
764.35	43175.28
764.53	42923.38
764.72	43177.33
764.90	43302.25
765.08	43365.74
765.27	43251.05
765.45	43165.04
765.63	42915.19
765.82	43455.85
766.00	42929.52
766.18	42954.10
766.37	42962.29
766.55	43046.26
766.74	42941.81
766.92	42294.65
767.10	42863.99
767.29	42493.30
767.47	42145.15
767.65	42814.83
767.84	42376.57
768.02	42671.48
768.20	42603.89
768.39	42806.64
768.57	42548.60
768.75	42532.22
768.94	42651.00
769.12	42661.24
769.30	41891.20
769.49	42354.04
769.67	42022.27
769.85	41817.47
770.04	41928.06
770.22	42034.56
770.40	41811.33
770.59	41833.86
770.77	42071.42
770.95	42126.72
771.14	41901.44
771.32	41446.79
771.50	41321.87
771.69	41684.36
771.87	41780.61
772.05	41446.79
772.24	41366.92
772.42	41432.46
772.60	41280.91
772.78	40875.41
772.97	41022.86
773.15	41379.21
773.33	41414.02
773.52	40748.43
773.70	41012.62
773.88	41317.77
774.07	40801.68
774.25	41178.51
774.43	41176.46
774.61	41092.49
774.80	41153.93
774.98	41293.19
775.16	41135.50
775.34	41457.03
775.53	41309.58
775.71	41272.71
775.89	41325.96
776.08	41358.73
776.26	41432.46
776.44	41049.49
776.62	40576.40
776.81	40979.85
776.99	41407.88
777.17	41368.97
777.35	41414.02
777.54	42030.46
777.72	41260.43
777.90	41426.31
778.08	41297.29
778.27	41358.73
778.45	41794.95
778.63	41346.44
778.81	41432.46
779.00	41866.63
779.18	41735.56
779.36	41997.70
779.54	41422.22
779.73	41246.09
779.91	41657.73
780.09	42018.17
780.27	41964.93
780.46	41989.50
780.64	41903.49
780.82	41792.90
781.00	41790.85
781.19	41815.43
781.37	41944.45
781.55	41964.93
781.73	42519.93
781.91	41743.75
782.10	42055.04
782.28	41921.92
782.46	42179.96
782.64	42079.61
782.82	42118.53
783.01	42730.87
783.19	42282.36
783.37	42040.70
783.55	42286.46
783.74	42478.97
783.92	42083.71
784.10	42831.22
784.28	42347.90
784.46	41846.15
784.64	42038.65
784.83	42288.51
785.01	42206.59
785.19	42216.83
785.37	42237.31
785.55	41946.50
785.74	42001.79
785.92	41938.30
786.10	41921.92
786.28	42079.61
786.46	41676.16
786.64	41934.21
786.83	41553.29
787.01	42055.04
787.19	42392.95
787.37	41885.06
787.55	41956.74
787.74	41579.91
787.92	41792.90
788.10	41678.21
788.28	41340.30
788.46	41661.83
788.64	41182.60
788.82	41923.97
789.01	41450.89
789.19	41743.75
789.37	41252.23
789.55	41201.04
789.73	41090.44
789.91	41338.25
790.09	41428.36
790.28	40859.02
790.46	40730.00
790.64	41198.99
790.82	40981.90
791.00	40656.28
791.18	40742.29
791.36	40965.52
791.55	40527.25
791.73	40752.53
791.91	40400.28
792.09	40816.02
792.27	40619.41
792.45	40322.46
792.63	40218.01
792.81	39984.54
793.00	40140.19
793.18	39826.85
793.36	39861.66
793.54	39507.37
793.72	39968.16
793.90	39298.47
794.08	39574.95
794.26	39679.39
794.44	39445.93
794.62	39167.40
794.81	39587.24
794.99	39007.66
795.17	39087.53
795.35	38909.36
795.53	39331.24
795.71	39290.28
795.89	38573.49
796.07	38452.66
796.25	38452.66
796.43	38763.95
796.61	38444.47
796.80	38426.04
796.98	38462.90
797.16	37936.57
797.34	38297.02
797.52	37991.87
797.70	38550.96
797.88	37795.26
798.06	37856.70
798.24	37774.78
798.42	37664.19
798.60	37535.17
798.78	37488.07
798.96	37410.25
799.14	37426.63
799.32	37535.17
799.51	36894.16
799.69	37189.06
799.87	37420.48
800.05	36783.57
800.23	36859.34
800.41	36914.64
800.59	36849.10
800.77	36738.51
800.95	36431.32
801.13	36726.22
801.31	36347.35
801.49	36271.57
801.67	36007.39
801.85	35950.04
802.03	36220.38
802.21	36163.03
802.39	35618.27
802.57	35632.61
802.75	35743.20
802.93	35440.10
803.11	35562.98
803.29	35413.48
803.47	35468.77
803.65	35782.11
803.83	35050.99
804.01	35345.89
804.19	35130.86
804.37	34643.44
804.55	34948.59
804.73	35024.36
804.91	34924.01
805.09	34940.39
805.27	34889.20
805.45	35134.95
805.63	34883.05
805.81	34631.15
805.99	34633.20
806.17	34956.78
806.35	34794.99
806.53	34029.05
806.71	34199.03
806.89	34178.55
807.07	34008.57
807.25	34280.95
807.43	33861.12
807.61	34164.21
807.79	34145.78
807.97	33607.17
808.15	33707.52
808.33	33777.15
808.51	33457.67
808.69	33674.75
808.87	33719.81
809.05	33170.95
809.23	33117.70
809.41	33443.33
809.59	33314.31
809.77	33598.98
809.95	33193.48
810.13	33097.22
810.31	32818.70
810.49	33349.12
810.67	32800.27
810.84	33203.72
811.02	32947.72
811.20	32505.36
811.38	32871.95
811.56	32314.90
811.74	32644.62
811.92	32364.05
812.10	32474.64
812.28	32697.87
812.46	32132.63
812.64	32224.79
812.82	31792.67
813.00	32118.29
813.18	31927.83
813.36	31729.18
813.53	31755.80
813.71	31964.70
813.89	31968.79
814.07	31782.43
814.25	31747.61
814.43	31725.08
814.61	31305.25
814.79	31563.29
814.97	31538.72
815.15	31376.93
815.33	31075.88
815.50	31327.78
815.68	31274.53
815.86	31364.64
816.04	31133.22
816.22	31079.97
816.40	30762.54
816.58	30744.11
816.76	30330.42
816.94	30719.53
817.11	30676.52
817.29	30627.37
817.47	30633.52
817.65	30221.87
817.83	30553.65
818.01	30344.75
818.19	30688.81
818.37	30758.44
818.54	30514.73
818.72	30092.85
818.90	30354.99
819.08	30035.51
819.26	30185.01
819.44	29724.22
819.62	30275.12
819.80	29773.37
819.97	29744.70
820.15	30123.57
820.33	29838.90
820.51	29859.38
820.69	29267.52
820.87	29795.90
821.05	30072.37
821.22	29341.25
821.40	29429.31
821.58	29328.96
821.76	29374.02
821.94	29136.45
822.12	29279.81
822.29	29410.88
822.47	29341.25
822.65	29490.75
822.83	29333.06
823.01	29228.61
823.19	29011.53
823.36	29120.07
823.54	28683.85
823.72	28737.10
823.90	29044.29
824.08	28784.20
824.25	28651.08
824.43	28581.45
824.61	28927.56
824.79	28778.06
824.97	28624.46
825.15	28827.21
825.32	28864.07
825.50	28579.40
825.68	28374.61
825.86	28534.35
826.04	28859.98
826.21	28581.45
826.39	28309.07
826.57	28028.50
826.75	28350.03
826.93	27919.96
827.10	27950.68
827.28	28173.91
827.46	28325.46
827.64	27887.19
827.81	28067.41
827.99	28212.82
828.17	27743.83
828.35	27860.57
828.53	27559.52
828.70	27663.96
828.88	27778.65
829.06	27659.87
829.24	28141.14
829.41	27547.23
829.59	27962.97
829.77	27743.83
829.95	27567.71
830.12	27545.18
830.30	27471.45
830.48	27602.52
830.66	27631.19
830.84	27715.16
831.01	27266.66
831.19	27309.66
831.37	27434.59
831.55	27252.32
831.72	27133.54
831.90	27180.64
832.08	27231.84
832.25	26988.13
832.43	27068.00
832.61	27123.30
832.79	27065.96
832.96	26742.38
833.14	27033.19
833.32	26529.39
833.50	27035.24
833.67	26660.46
833.85	26582.63
834.03	26373.74
834.20	26984.04
834.38	26721.90
834.56	26613.35
834.74	26635.88
834.91	26961.51
835.09	26388.08
835.27	26252.91
835.44	26300.01
835.62	26113.65
835.80	26285.68
835.98	26367.60
836.15	26478.19
836.33	25962.10
836.51	26257.01
836.68	26306.16
836.86	26422.89
837.04	26236.53
837.21	26218.10
837.39	26326.64
837.57	26320.49
837.75	26214.00
837.92	26056.31
838.10	25831.03
838.28	25777.78
838.45	25777.78
838.63	25675.38
838.81	25712.25
838.98	25587.32
839.16	25560.70
839.34	25558.65
839.51	25589.37
839.69	25362.04
839.87	25347.71
840.04	25382.52
840.22	25878.13
840.40	25392.76
840.57	25364.09
840.75	25269.89
840.93	24845.96
841.10	25585.27
841.28	25693.82
841.46	25198.21
841.63	25120.38
841.81	25214.59
841.98	25003.65
842.16	25501.31
842.34	25022.08
842.51	24710.79
842.69	25269.89
842.87	24968.84
843.04	24917.64
843.22	24895.11
843.40	24458.89
843.57	24950.40
843.75	25038.47
843.92	24772.23
844.10	24862.34
844.28	24880.77
844.45	25073.28
844.63	24946.31
844.81	24712.84
844.98	24735.37
845.16	24452.75
845.33	24618.63
845.51	24739.46
845.69	24434.32
845.86	24360.59
846.04	24311.44
846.21	24206.99
846.39	24317.58
846.57	24260.24
846.74	24266.38
846.92	24086.16
847.09	24436.36
847.27	23940.75
847.45	24268.43
847.62	24262.29
847.80	24026.77
847.97	24139.41
848.15	24170.13
848.32	24198.80
848.50	23809.68
848.68	23682.71
848.85	23776.92
849.03	23760.53
849.20	23971.47
849.38	23807.64
849.56	24010.39
849.73	23676.57
849.91	23664.28
850.08	24243.85
850.26	23695.00
850.43	23584.41
850.61	23477.91
850.78	23348.89
850.96	23250.59
851.14	23213.73
851.31	23322.27
851.49	23154.33
851.66	23545.50
851.84	23244.45
852.01	23238.30
852.19	23455.39
852.36	23393.95
852.54	22994.59
852.71	23264.92
852.89	23119.52
853.07	23027.36
853.24	23178.91
853.42	22820.52
853.59	23269.02
853.77	23058.08
853.94	23297.69
854.12	23072.42
854.29	22585.00
854.47	22967.97
854.64	23260.83
854.82	22810.28
854.99	22980.26
855.17	22632.10
855.34	22656.68
855.52	22793.89
855.69	22900.39
855.87	22734.50
856.04	22568.62
856.22	22849.19
856.39	22558.38
856.57	22738.60
856.74	22355.63
856.92	22496.94
857.09	22390.44
857.27	22382.25
857.44	22464.17
857.62	22484.65
857.79	22894.24
857.97	22367.91
858.14	22388.39
858.32	22286.00
858.49	22480.55
858.67	22374.06
858.84	21792.44
859.02	22159.02
859.19	22064.82
859.37	22140.59
859.54	22099.63
859.72	22210.22
859.89	22132.40
860.06	22216.36
860.24	21796.53
860.41	22120.11
860.59	21614.26
860.76	21921.46
860.94	21675.70
861.11	21769.91
861.29	21665.46
861.46	21565.11
861.64	21548.73
861.81	21534.39
861.98	21698.23
862.16	21747.38
862.33	21534.39
862.51	21464.76
862.68	21874.35
862.86	21712.56
863.03	21356.22
863.21	21159.61
863.38	21114.56
863.55	21403.32
863.73	21370.55
863.90	21397.18
864.08	21253.82
864.25	21300.92
864.43	21202.62
864.60	21038.78
864.77	21028.54
864.95	21083.84
865.12	21106.37
865.30	21403.32
865.47	20922.05
865.64	21104.32
865.82	21040.83
865.99	21216.96
866.17	21012.16
866.34	20836.03
866.51	20676.29
866.69	21126.85
866.86	21073.60
867.04	21149.37
867.21	20795.07
867.38	20688.58
867.56	20672.20
867.73	20747.97
867.91	20596.42
868.08	20258.51
868.25	20365.00
868.43	20338.38
868.60	20287.18
868.78	19975.89
868.95	20268.75
869.12	20362.95
869.30	20117.20
869.47	20477.64
869.64	20111.05
869.82	19918.54
869.99	19971.79
870.16	20100.81
870.34	20299.47
870.51	20233.93
870.69	19947.22
870.86	20104.91
871.03	20066.00
871.21	19674.84
871.38	20086.48
871.55	20010.70
871.73	19930.83
871.90	19779.28
872.07	19541.72
872.25	19386.07
872.42	19377.88
872.59	19689.17
872.77	19637.97
872.94	19779.28
873.11	19732.18
873.29	19752.66
873.46	19246.81
873.63	19580.63
873.81	19754.71
873.98	19117.79
874.15	19185.37
874.33	19152.60
874.50	19347.16
874.67	19234.52
874.85	18970.33
875.02	18890.46
875.19	18790.11
875.37	19107.55
875.54	18786.02
875.71	18880.22
875.88	18898.66
876.06	19070.68
876.23	18749.15
876.40	18792.16
876.58	18562.79
876.75	18650.85
876.92	18624.23
877.10	18839.26
877.27	18413.29
877.44	18474.73
877.61	18298.60
877.79	18552.55
877.96	18200.30
878.13	18558.69
878.31	18026.22
878.48	18306.79
878.65	18511.59
878.82	18097.90
879.00	18237.16
879.17	18155.24
879.34	18173.67
879.51	18214.63
879.69	17841.90
879.86	18020.08
880.03	18077.42
880.21	17964.78
880.38	18108.14
880.55	18028.27
880.72	17815.28
880.90	17962.73
881.07	17893.10
881.24	17819.38
881.41	17854.19
881.59	17680.11
881.76	17637.11
881.93	17452.79
882.10	17616.63
882.28	17536.76
882.45	17520.37
882.62	17622.77
882.79	17792.75
882.96	17352.44
883.14	17579.76
883.31	17512.18
883.48	17481.46
883.65	17299.19
883.83	17633.01
884.00	17364.73
884.17	17362.68
884.34	17403.64
884.51	17104.64
884.69	17350.39
884.86	17100.54
885.03	17350.39
885.20	17182.46
885.38	17284.86
885.55	17180.41
885.72	17170.17
885.89	16946.94
886.06	17108.73
886.24	17086.20
886.41	16975.61
886.58	17241.85
886.75	17297.14
886.92	16948.99
887.10	16891.65
887.27	16891.65
887.44	16903.93
887.61	16922.37
887.78	17022.72
887.95	16987.90
888.13	17016.57
888.30	16877.31
888.47	16877.31
888.64	16717.57
888.81	16721.66
888.99	16690.95
889.16	16709.38
889.33	16668.42
889.50	16418.57
889.67	16527.11
889.84	16477.96
890.01	16432.90
890.19	16414.47
890.36	16342.79
890.53	16365.32
890.70	16256.78
890.87	16314.12
891.04	16197.38
891.22	16578.31
891.39	16545.54
891.56	16346.89
891.73	16172.81
891.90	16430.85
892.07	15922.96
892.24	16224.01
892.42	15968.01
892.59	16017.16
892.76	16084.75
892.93	16000.78
893.10	15961.87
893.27	15748.88
893.44	15693.58
893.61	15961.87
893.79	16033.55
893.96	15937.29
894.13	15884.05
894.30	15802.13
894.47	15968.01
894.64	16236.30
894.81	15912.72
894.98	16043.79
895.15	15634.19
895.33	15718.16
895.50	15486.74
895.67	15986.44
895.84	15664.91
896.01	15877.90
896.18	15617.81
896.35	15765.26
896.52	15828.75
896.69	15515.41
896.86	15931.15
897.04	15568.66
897.21	15611.67
897.38	15638.29
897.55	15697.68
897.72	15662.86
897.89	15617.81
898.06	15656.72
898.23	15611.67
898.40	15697.68
898.57	15707.92
898.74	15712.02
898.91	15507.22
899.08	15738.64
899.26	15466.26
899.43	15570.71
899.60	15568.66
899.77	15671.06
899.94	15656.72
900.11	15599.38
900.28	15447.83
900.45	15550.23
900.62	15458.07
900.79	15578.90
900.96	15599.38
901.13	15304.47
901.30	15529.75
901.47	15464.21
901.64	15591.19
901.81	15718.16
901.98	15451.92
902.15	15507.22
902.32	15531.80
902.49	15460.12
902.66	15548.18
902.83	15527.70
903.01	15394.58
903.18	15480.60
903.35	15460.12
903.52	15314.71
903.69	15431.44
903.86	15410.96
904.03	15429.40
904.20	15496.98
904.37	15814.41
904.54	15476.50
904.71	15228.70
904.88	15662.86
905.05	15529.75
905.22	15431.44
905.39	15441.68
905.56	15363.86
905.73	15521.56
905.90	15535.89
906.07	15382.29
906.24	15582.99
906.41	15339.29
906.58	15218.46
906.75	15202.07
906.92	15501.08
907.09	15126.30
907.26	15486.74
907.43	15437.59
907.60	15253.27
907.77	15478.55
907.93	15474.45
908.10	15521.56
908.27	15349.53
908.44	15122.20
908.61	15212.31
908.78	15365.91
908.95	15480.60
909.12	15370.01
909.29	15314.71
909.46	15361.81
909.63	15247.13
909.80	15335.19
909.97	15486.74
910.14	15337.24
910.31	15265.56
910.48	15091.48
910.65	15017.75
910.82	14946.08
910.99	15394.58
911.16	15181.59
911.33	15275.80
911.50	15148.82
911.66	15034.14
911.83	14851.87
912.00	15007.52
912.17	14915.36
912.34	14933.79
912.51	14921.50
912.68	14798.62
912.85	15027.99
913.02	14772.00
913.19	14825.25
913.36	14868.25
913.53	14817.05
913.70	14665.50
913.86	15001.37
914.03	14776.09
914.20	14733.09
914.37	14638.88
914.54	14640.93
914.71	14645.02
914.88	14559.01
915.05	14567.20
915.22	14450.47
915.39	14579.49
915.55	14597.92
915.72	14518.05
915.89	14460.71
916.06	14352.16
916.23	14219.05
916.40	14143.27
916.57	14214.95
916.74	14028.59
916.91	14042.92
917.07	14018.35
917.24	13958.96
917.41	13975.34
917.58	13926.19
917.75	13950.76
917.92	13803.31
918.09	14075.69
918.26	13938.48
918.42	13991.72
918.59	13748.01
918.76	13815.60
918.93	13651.76
919.10	13727.53
919.27	13657.90
919.44	13606.70
919.60	13559.60
919.77	13350.71
919.94	13686.58
920.11	13526.83
920.28	13504.31
920.45	13401.91
920.61	13156.15
920.78	13434.68
920.95	13291.32
921.12	13115.19
921.29	12994.36
921.46	13143.86
921.62	13258.55
921.79	12961.59
921.96	12863.29
922.13	12879.68
922.30	12777.28
922.47	12894.01
922.63	13121.34
922.80	12732.22
922.97	12869.44
923.14	12502.85
923.31	12648.26
923.47	12681.02
923.64	12611.39
923.81	12416.83
923.98	12468.03
924.15	12343.11
924.32	12353.35
924.48	12296.00
924.65	12525.38
924.82	12306.24
924.99	12052.30
925.15	11902.79
925.32	12271.43
925.49	11855.69
925.66	12093.26
925.83	11824.97
925.99	11843.40
926.16	12005.19
926.33	11974.47
926.50	11755.34
926.67	11853.64
926.83	11708.24
927.00	11663.18
927.17	11542.35
927.34	11532.11
927.50	11609.93
927.67	11648.85
927.84	11419.47
928.01	11489.10
928.17	11319.12
928.34	11247.44
928.51	11319.12
928.68	11159.38
928.84	11140.95
929.01	10905.43
929.18	10794.84
929.35	10827.61
929.51	10843.99
929.68	10870.62
929.85	10827.61
930.02	11030.36
930.18	10882.91
930.35	10698.59
930.52	10645.34
930.69	10661.73
930.85	10798.94
931.02	10354.53
931.19	10506.08
931.36	10415.97
931.52	10499.94
931.69	10389.35
931.86	10315.62
932.02	10317.67
932.19	10092.39
932.36	10065.77
932.53	10067.81
932.69	10110.82
932.86	10205.03
933.03	10202.98
933.19	9852.78
933.36	9789.29
933.53	9912.17
933.70	9762.67
933.86	9676.65
934.03	9756.52
934.20	9453.42
934.36	9592.69
934.53	9727.85
934.70	9322.35
934.86	9451.38
935.03	9101.17
935.20	9179.00
935.36	9269.11
935.53	9006.97
935.70	9029.49
935.86	9238.39
936.03	9015.16
936.20	8814.46
936.36	8726.39
936.53	8693.63
936.70	8716.16
936.86	8576.89
937.03	8472.45
937.20	8470.40
937.36	8443.78
937.53	8095.62
937.70	8019.85
937.86	8226.69
938.03	8017.80
938.20	7929.74
938.36	7917.45
938.53	7804.81
938.70	7589.77
938.86	7567.24
939.03	7483.28
939.20	7522.19
939.36	7352.21
939.53	7229.33
939.70	7319.44
939.86	7149.46
940.03	7073.68
940.19	6909.85
940.36	6959.00
940.53	7096.21
940.69	6690.71
940.86	6670.23
941.03	6590.36
941.19	6463.39
941.36	6449.05
941.52	6588.32
941.69	6231.97
941.86	6369.18
942.02	6285.22
942.19	6215.59
942.35	6264.74
942.52	6121.38
942.69	6145.95
942.85	6082.47
943.02	6006.69
943.18	6014.88
943.35	5961.64
943.52	5844.90
943.68	5969.83
943.85	5883.81
944.01	5676.97
944.18	5640.11
944.35	5787.56
944.51	5533.61
944.68	5580.71
944.84	5574.57
945.01	5496.75
945.17	5615.53
945.34	5459.88
945.51	5498.80
945.67	5472.17
945.84	5586.86
946.00	5314.48
946.17	5453.74
946.33	5345.20
946.50	5429.17
946.67	5461.93
946.83	5363.63
947.00	5545.90
947.16	5388.21
947.33	5459.88
947.49	5386.16
947.66	5222.32
947.82	5449.64
947.99	5306.29
948.16	5400.49
948.32	5474.22
948.49	5314.48
948.65	5529.52
948.82	5294.00
948.98	5257.14
949.15	5306.29
949.31	5463.98
949.48	5439.40
949.64	5322.67
949.81	5312.43
949.97	5136.31
950.14	5304.24
950.30	5216.18
950.47	5402.54
950.63	5396.40
950.80	5431.21
950.96	5494.70
951.13	5494.70
951.30	5500.84
951.46	5525.42
951.63	5377.97
951.79	5416.88
951.96	5439.40
952.12	5431.21
952.29	5468.08
952.45	5349.29
952.62	5326.77
952.78	5537.71
952.94	5470.12
953.11	5578.67
953.27	5310.38
953.44	5588.91
953.60	5506.99
953.77	5488.56
953.93	5455.79
954.10	5474.22
954.26	5394.35
954.43	5410.73
954.59	5672.87
954.76	5466.03
954.92	5515.18
955.09	5631.91
955.25	5453.74
955.42	5412.78
955.58	5662.63
955.75	5562.28
955.91	5511.08
956.07	5506.99
956.24	5605.29
956.40	5629.87
956.57	5566.38
956.73	5523.37
956.90	5539.76
957.06	5400.49
957.23	5353.39
957.39	5406.64
957.56	5644.20
957.72	5496.75
957.88	5558.19
958.05	5633.96
958.21	5650.35
958.38	5420.97
958.54	5552.04
958.71	5564.33
958.87	5543.85
959.03	5660.59
959.20	5623.72
959.36	5486.51
959.53	5513.13
959.69	5412.78
959.85	5664.68
960.02	5523.37
960.18	5468.08
960.35	5523.37
960.51	5595.05
960.68	5488.56
960.84	5494.70
961.00	5398.45
961.17	5576.62
961.33	5629.87
961.50	5410.73
961.66	5593.00
961.82	5509.04
961.99	5420.97
962.15	5613.48
962.31	5506.99
962.48	5586.86
962.64	5515.18
962.81	5576.62
962.97	5545.90
963.13	5418.93
963.30	5523.37
963.46	5447.60
963.62	5408.69
963.79	5431.21
963.95	5414.83
964.12	5408.69
964.28	5566.38
964.44	5373.87
964.61	5588.91
964.77	5408.69
964.93	5513.13
965.10	5496.75
965.26	5345.20
965.42	5351.34
965.59	5351.34
965.75	5433.26
965.92	5349.29
966.08	5418.93
966.24	5425.07
966.41	5294.00
966.57	5500.84
966.73	5334.96
966.90	5392.30
967.06	5433.26
967.22	5255.09
967.39	5269.42
967.55	5287.86
967.71	5244.85
967.88	5250.99
968.04	5183.41
968.20	5318.57
968.37	5195.70
968.53	5267.38
968.69	5240.75
968.85	5234.61
969.02	5330.86
969.18	5289.90
969.34	5023.67
969.51	5193.65
969.67	5224.37
969.83	5070.77
970.00	5220.27
970.16	5173.17
970.32	5220.27
970.48	5230.51
970.65	5017.52
970.81	5119.92
970.97	5179.31
971.14	5046.20
971.30	5197.74
971.46	5066.67
971.63	5185.46
971.79	5185.46
971.95	4931.51
972.11	5015.48
972.28	5056.43
972.44	5025.72
972.60	5109.68
972.76	5064.63
972.93	4886.45
973.09	5146.55
973.25	5058.48
973.42	4935.60
973.58	4992.95
973.74	4933.56
973.90	4874.17
974.07	4976.56
974.23	4919.22
974.39	4843.45
974.55	4921.27
974.72	4870.07
974.88	4820.92
975.04	4837.30
975.20	4784.06
975.37	4925.36
975.53	4827.06
975.69	4827.06
975.85	4904.89
976.01	4806.58
976.18	4847.54
976.34	4765.62
976.50	4763.58
976.66	4753.34
976.83	4683.70
976.99	4591.55
977.15	4802.49
977.31	4540.35
977.47	4691.90
977.64	4759.48
977.80	4665.27
977.96	4638.65
978.12	4751.29
978.29	4665.27
978.45	4607.93
978.61	4562.87
978.77	4640.70
978.93	4667.32
979.10	4566.97
979.26	4564.92
979.42	4532.15
979.58	4429.76
979.74	4491.20
979.91	4517.82
980.07	4431.80
980.23	4517.82
980.39	4343.74
980.55	4579.26
980.71	4517.82
980.88	4444.09
981.04	4569.02
981.20	4376.51
981.36	4411.32
981.52	4472.76
981.68	4396.99
981.85	4521.92
982.01	4347.84
982.17	4372.41
982.33	4372.41
982.49	4603.83
982.65	4423.61
982.82	4296.64
982.98	4353.98
983.14	4396.99
983.30	4403.13
983.46	4452.28
983.62	4290.49
983.79	4261.82
983.95	4382.65
984.11	4143.04
984.27	4306.88
984.43	4204.48
984.59	4192.19
984.75	4339.65
984.91	4241.34
985.08	4396.99
985.24	4196.29
985.40	4198.34
985.56	4161.47
985.72	4267.97
985.88	4204.48
986.04	4149.18
986.20	4065.22
986.37	4218.82
986.53	4085.70
986.69	4179.90
986.85	4040.64
987.01	3944.39
987.17	4198.34
987.33	4153.28
987.49	3989.44
987.65	4032.45
987.82	4032.45
987.98	3999.68
988.14	3968.96
988.30	4046.79
988.46	3928.00
988.62	3973.06
988.78	4034.50
988.94	3966.92
989.10	3923.91
989.26	3876.80
989.42	3823.56
989.59	3862.47
989.75	3852.23
989.91	3891.14
990.07	3631.05
990.23	3760.07
990.39	3905.48
990.55	3901.38
990.71	3735.50
990.87	3928.00
991.03	3784.65
991.19	3846.09
991.35	3772.36
991.51	3864.52
991.67	3862.47
991.83	3841.99
992.00	3796.93
992.16	3850.18
992.32	3803.08
992.48	3729.35
992.64	3594.19
992.80	3747.78
992.96	3766.21
993.12	3782.60
993.28	3622.86
993.44	3674.06
993.60	3772.36
993.76	3786.69
993.92	3821.51
994.08	3645.38
994.24	3663.82
994.40	3618.76
994.56	3753.93
994.72	3524.55
994.88	3647.43
995.04	3719.11
995.20	3520.46
995.36	3583.95
995.52	3786.69
995.68	3530.70
995.84	3506.12
996.00	3712.97
996.16	3430.35
996.32	3432.40
996.48	3461.07
996.64	3575.75
996.80	3504.07
996.96	3465.16
997.12	3463.12
997.28	3409.87
997.44	3469.26
997.60	3411.92
997.76	3471.31
997.92	3352.52
998.08	3444.68
998.24	3403.72
998.40	3442.64
998.56	3409.87
998.72	3346.38
998.88	3422.16
999.04	3266.51
999.20	3375.05
999.36	3260.37
999.52	3358.67
999.68	3317.71
999.84	3338.19
1000.00	3354.57
1000.16	3321.81
1000.32	3164.11
1000.48	3456.97
1000.64	3225.55
1000.80	3264.46
1000.95	3186.64
1001.11	3278.80
1001.27	3147.73
1001.43	3254.22
1001.59	3196.88
1001.75	3215.31
1001.91	3284.94
1002.07	3172.30
1002.23	3200.98
1002.39	3149.78
1002.55	3174.35
1002.71	3100.62
1002.87	3157.97
1003.03	3110.86
1003.19	2994.13
1003.34	3082.19
1003.50	3149.78
1003.66	3131.34
1003.82	3131.34
1003.98	3119.06
1004.14	3114.96
1004.30	3123.15
1004.46	2912.21
1004.62	3020.75
1004.78	2990.03
1004.94	2938.84
1005.09	3028.95
1005.25	3100.62
1005.41	3037.14
1005.57	2920.40
1005.73	2924.50
1005.89	2887.64
1006.05	2932.69
1006.21	2949.08
1006.37	2944.98
1006.52	2887.64
1006.68	2885.59
1006.84	3033.04
1007.00	2844.63
1007.16	2992.08
1007.32	2901.97
1007.48	2842.58
1007.64	3010.51
1007.79	2873.30
1007.95	2760.66
1008.11	2977.75
1008.27	2920.40
1008.43	2895.83
1008.59	2889.68
1008.75	3012.56
1008.91	2891.73
1009.06	2877.40
1009.22	2840.53
1009.38	2826.20
1009.54	2762.71
1009.70	2908.12
1009.86	2787.29
1010.01	2885.59
1010.17	2701.27
1010.33	2940.88
1010.49	2795.48
1010.65	2834.39
1010.81	2787.29
1010.96	2830.29
1011.12	2748.37
1011.28	2738.13
1011.44	2709.46
1011.60	2713.56
1011.76	2705.37
1011.91	2842.58
1012.07	2682.84
1012.23	2586.58
1012.39	2658.26
1012.55	2809.81
1012.71	2631.64
1012.86	2678.74
1013.02	2723.80
1013.18	2625.50
1013.34	2617.30
1013.50	2703.32
1013.65	2607.06
1013.81	2582.49
1013.97	2576.34
1014.13	2539.48
1014.29	2543.58
1014.44	2637.78
1014.60	2611.16
1014.76	2523.10
1014.92	2600.92
1015.07	2598.87
1015.23	2631.64
1015.39	2502.62
1015.55	2584.54
1015.71	2498.52
1015.86	2484.19
1016.02	2533.34
1016.18	2555.86
1016.34	2605.02
1016.49	2441.18
1016.65	2639.83
1016.81	2523.10
1016.97	2480.09
1017.12	2559.96
1017.28	2428.89
1017.44	2443.23
1017.60	2502.62
1017.75	2508.76
1017.91	2379.74
1018.07	2564.06
1018.23	2453.47
1018.38	2445.27
1018.54	2369.50
1018.70	2447.32
1018.86	2392.03
1019.01	2394.08
1019.17	2377.69
1019.33	2533.34
1019.49	2322.40
1019.64	2389.98
1019.80	2404.32
1019.96	2510.81
1020.12	2351.07
1020.27	2363.36
1020.43	2392.03
1020.59	2392.03
1020.74	2445.27
1020.90	2484.19
1021.06	2267.10
1021.22	2344.92
1021.37	2420.70
1021.53	2379.74
1021.69	2281.44
1021.84	2260.96
1022.00	2377.69
1022.16	2238.43
1022.31	2303.96
1022.47	2353.12
1022.63	2377.69
1022.79	2195.42
1022.94	2332.64
1023.10	2387.93
1023.26	2303.96
1023.41	2273.25
1023.57	2267.10
1023.73	2260.96
1023.88	2320.35
1024.04	2156.51
1024.20	2226.14
1024.35	2297.82
1024.51	2222.05
1024.67	2295.77
1024.82	2281.44
1024.98	2211.81
1025.14	2250.72
1025.29	2199.52
1025.45	2330.59
1025.61	2074.59
1025.76	2191.33
1025.92	2246.62
1026.08	2174.94
1026.23	2246.62
1026.39	2242.53
1026.55	2181.09
1026.70	2222.05
1026.86	2240.48
1027.02	2291.68
1027.17	2154.46
1027.33	2150.37
1027.48	2131.94
1027.64	2174.94
1027.80	2101.22
1027.95	2199.52
1028.11	2047.97
1028.27	2146.27
1028.42	2176.99
1028.58	2082.78
1028.73	2066.40
1028.89	2023.39
1029.05	2217.95
1029.20	2256.86
>>>>>End Processed Spectral Data<<<<<
