SpectraSuite Data File
++++++++++++++++++++++++++++++++++++
Date: Fri Jun 02 14:51:09 CEST 2017
User: INFO_000
Dark Spectrum Present: No
Reference Spectrum Present: No
Number of Sampled Component Spectra: 1
Spectrometers: USB4H00879
Integration Time (usec): 80000 (USB4H00879)
Spectra Averaged: 1 (USB4H00879)
Boxcar Smoothing: 0 (USB4H00879)
Correct for Electrical Dark: No (USB4H00879)
Strobe/Lamp Enabled: No (USB4H00879)
Correct for Detector Non-linearity: No (USB4H00879)
Correct for Stray Light: No (USB4H00879)
Number of Pixels in Processed Spectrum: 3648
>>>>>Begin Processed Spectral Data<<<<<
345.13	1288.17
345.34	1288.17
345.56	1288.17
345.78	1236.97
345.99	1292.27
346.21	1742.82
346.42	1648.61
346.64	1658.85
346.86	1853.41
347.07	1697.77
347.29	1691.62
347.50	1624.04
347.72	1679.33
347.94	1779.68
348.15	1535.98
348.37	1601.51
348.59	1646.57
348.80	1619.94
349.02	1769.44
349.23	1830.88
349.45	1871.84
349.67	1871.84
349.88	1828.84
350.10	1966.05
350.31	1824.74
350.53	1781.73
350.75	2000.87
350.96	1787.88
351.18	1902.56
351.39	1818.60
351.61	1814.50
351.82	1976.29
352.04	1896.42
352.26	1816.55
352.47	1961.95
352.69	1918.95
352.90	1744.87
353.12	1877.99
353.34	1884.13
353.55	1978.34
353.77	1845.22
353.98	1855.46
354.20	1837.03
354.41	1902.56
354.63	1912.80
354.85	2035.68
355.06	1886.18
355.28	1755.11
355.49	1914.85
355.71	1841.12
355.92	1937.38
356.14	1890.28
356.35	1834.98
356.57	1863.65
356.79	1937.38
357.00	1896.42
357.22	1933.28
357.43	1847.27
357.65	2015.20
357.86	1832.93
358.08	1914.85
358.29	1910.75
358.51	1961.95
358.72	2039.78
358.94	1970.15
359.16	1939.43
359.37	1935.33
359.59	1888.23
359.80	1920.99
360.02	1875.94
360.23	1945.57
360.45	2027.49
360.66	1984.48
360.88	1933.28
361.09	1900.52
361.31	1972.19
361.52	1953.76
361.74	2064.35
361.95	2029.54
362.17	1959.91
362.38	2027.49
362.60	2007.01
362.81	1998.82
363.03	1880.04
363.24	1972.19
363.46	2062.30
363.67	2043.87
363.89	1957.86
364.10	2013.15
364.32	1931.23
364.53	2068.45
364.75	1898.47
364.96	2027.49
365.18	2043.87
365.39	2025.44
365.61	2009.06
365.82	2076.64
366.04	1927.14
366.25	1904.61
366.47	1986.53
366.68	2017.25
366.90	1929.19
367.11	2047.97
367.33	1978.34
367.54	2076.64
367.76	1957.86
367.97	2041.82
368.19	2093.02
368.40	2029.54
368.62	1961.95
368.83	1968.10
369.05	2052.06
369.26	2013.15
369.48	1951.71
369.69	1949.67
369.91	2111.46
370.12	2031.58
370.33	2074.59
370.55	1894.37
370.76	2062.30
370.98	2035.68
371.19	2021.35
371.41	2068.45
371.62	2002.91
371.84	1939.43
372.05	2189.28
372.27	2056.16
372.48	2002.91
372.69	2166.75
372.91	2119.65
373.12	2168.80
373.34	2011.11
373.55	2056.16
373.77	2125.79
373.98	2056.16
374.20	2138.08
374.41	2152.42
374.62	2064.35
374.84	2115.55
375.05	2078.69
375.27	2080.74
375.48	2117.60
375.70	2095.07
375.91	2185.18
376.12	2295.77
376.34	2125.79
376.55	2148.32
376.77	2191.33
376.98	2099.17
377.19	2144.22
377.41	2054.11
377.62	2263.01
377.84	2242.53
378.05	2199.52
378.27	2232.29
378.48	2314.20
378.69	2336.73
378.91	2351.07
379.12	2101.22
379.34	2152.42
379.55	2285.53
379.76	2213.85
379.98	2195.42
380.19	2158.56
380.41	2285.53
380.62	2265.05
380.83	2275.29
381.05	2222.05
381.26	2410.46
381.47	2146.27
381.69	2205.66
381.90	2400.22
382.12	2244.57
382.33	2285.53
382.54	2275.29
382.76	2230.24
382.97	2301.92
383.19	2301.92
383.40	2379.74
383.61	2283.49
383.83	2195.42
384.04	2306.01
384.25	2465.75
384.47	2322.40
384.68	2371.55
384.89	2199.52
385.11	2297.82
385.32	2344.92
385.54	2320.35
385.75	2346.97
385.96	2342.88
386.18	2351.07
386.39	2357.21
386.60	2328.54
386.82	2404.32
387.03	2367.45
387.24	2426.84
387.46	2373.60
387.67	2467.80
387.88	2525.15
388.10	2480.09
388.31	2500.57
388.52	2566.10
388.74	2439.13
388.95	2443.23
389.16	2412.51
389.38	2428.89
389.59	2443.23
389.80	2590.68
390.02	2449.37
390.23	2533.34
390.44	2490.33
390.66	2516.95
390.87	2478.04
391.08	2578.39
391.30	2672.60
391.51	2602.97
391.72	2602.97
391.94	2537.43
392.15	2545.63
392.36	2529.24
392.58	2566.10
392.79	2609.11
393.00	2672.60
393.22	2682.84
393.43	2660.31
393.64	2674.65
393.85	2760.66
394.07	2627.54
394.28	2627.54
394.49	2615.26
394.71	2723.80
394.92	2691.03
395.13	2611.16
395.35	2613.21
395.56	2682.84
395.77	2680.79
395.98	2822.10
396.20	2822.10
396.41	2768.85
396.62	2750.42
396.84	2770.90
397.05	2879.44
397.26	2756.57
397.47	2906.07
397.69	2748.37
397.90	2928.60
398.11	2942.93
398.32	2842.58
398.54	2809.81
398.75	2789.33
398.96	2836.44
399.18	2955.22
399.39	2818.00
399.60	2975.70
399.81	2893.78
400.03	2811.86
400.24	3239.89
400.45	2955.22
400.66	2998.23
400.88	2906.07
401.09	3051.47
401.30	2985.94
401.51	3141.58
401.73	3016.66
401.94	3127.25
402.15	3043.28
402.36	3047.38
402.58	3037.14
402.79	3114.96
403.00	3057.62
403.21	3082.19
403.43	3162.06
403.64	3170.26
403.85	3039.19
404.06	3166.16
404.27	3125.20
404.49	3047.38
404.70	3123.15
404.91	3149.78
405.12	3176.40
405.34	3078.10
405.55	3346.38
405.76	2998.23
405.97	3164.11
406.19	3278.80
406.40	3041.23
406.61	3344.33
406.82	3344.33
407.03	3172.30
407.25	3246.03
407.46	3317.71
407.67	3264.46
407.88	3358.67
408.09	3293.13
408.31	3274.70
408.52	3366.86
408.73	3239.89
408.94	3280.85
409.15	3422.16
409.37	3497.93
409.58	3317.71
409.79	3428.30
410.00	3555.27
410.21	3366.86
410.43	3350.48
410.64	3334.09
410.85	3442.64
411.06	3481.55
411.27	3493.83
411.48	3563.47
411.70	3452.88
411.91	3520.46
412.12	3514.31
412.33	3534.79
412.54	3493.83
412.76	3520.46
412.97	3696.58
413.18	3459.02
413.39	3612.62
413.60	3647.43
413.81	3674.06
414.03	3602.38
414.24	3622.86
414.45	3735.50
414.66	3569.61
414.87	3725.26
415.08	3532.75
415.30	3708.87
415.51	3686.34
415.72	3786.69
415.93	3682.25
416.14	3647.43
416.35	3729.35
416.56	3696.58
416.78	3704.78
416.99	3735.50
417.20	3743.69
417.41	3923.91
417.62	3766.21
417.83	3778.50
418.04	3790.79
418.26	3850.18
418.47	3864.52
418.68	3807.17
418.89	3786.69
419.10	4044.74
419.31	3913.67
419.52	4030.40
419.73	3991.49
419.95	4007.87
420.16	3887.04
420.37	3862.47
420.58	4009.92
420.79	3903.43
421.00	3952.58
421.21	4036.55
421.42	3913.67
421.63	4124.61
421.85	4054.98
422.06	4227.01
422.27	4145.09
422.48	4030.40
422.69	4140.99
422.90	4112.32
423.11	4198.34
423.32	4114.37
423.53	4347.84
423.75	4208.58
423.96	4431.80
424.17	4249.54
424.38	4411.32
424.59	4210.62
424.80	4440.00
425.01	4435.90
425.22	4280.25
425.43	4220.86
425.64	4501.44
425.85	4601.79
426.06	4431.80
426.28	4562.87
426.49	4270.01
426.70	4419.52
426.91	4446.14
427.12	4505.53
427.33	4384.70
427.54	4450.24
427.75	4513.72
427.96	4659.13
428.17	4546.49
428.38	4566.97
428.59	4741.05
428.80	4655.03
429.01	4683.70
429.23	4728.76
429.44	4839.35
429.65	4710.33
429.86	4792.25
430.07	4671.42
430.28	4702.14
430.49	4825.01
430.70	4837.30
430.91	4876.21
431.12	4874.17
431.33	5017.52
431.54	5054.39
431.75	4894.65
431.96	4919.22
432.17	4794.29
432.38	4876.21
432.59	5054.39
432.80	5048.24
433.01	5126.07
433.22	5035.96
433.43	5038.00
433.64	5074.87
433.85	5062.58
434.06	5070.77
434.27	5021.62
434.49	5031.86
434.70	5304.24
434.91	5230.51
435.12	5185.46
435.33	5205.94
435.54	5121.97
435.75	5013.43
435.96	5306.29
436.17	5124.02
436.38	5312.43
436.59	5289.90
436.80	5175.22
437.01	5461.93
437.22	5506.99
437.43	5337.01
437.64	5246.90
437.85	5435.31
438.06	5482.41
438.27	5455.79
438.48	5355.44
438.69	5593.00
438.90	5470.12
439.11	5562.28
439.32	5580.71
439.53	5463.98
439.74	5603.24
439.95	5629.87
440.16	5373.87
440.37	5556.14
440.57	5650.35
440.78	5719.98
440.99	5738.41
441.20	5621.67
441.41	5629.87
441.62	5615.53
441.83	5642.15
442.04	5877.67
442.25	5873.57
442.46	5664.68
442.67	5824.42
442.88	6305.70
443.09	5795.75
443.30	5869.48
443.51	5875.62
443.72	6164.39
443.93	5961.64
444.14	6094.76
444.35	6057.89
444.56	6084.52
444.77	5967.78
444.98	6182.82
445.19	6045.60
445.40	6154.15
445.61	5988.26
445.81	6324.13
446.02	6227.87
446.23	6207.39
446.44	6098.85
446.65	6178.72
446.86	6168.48
447.07	6248.35
447.28	6516.64
447.49	6250.40
447.70	6195.11
447.91	6672.28
448.12	6383.52
448.33	6594.46
448.54	6569.88
448.74	6383.52
448.95	6549.40
449.16	6416.29
449.37	6868.89
449.58	6453.15
449.79	6799.26
450.00	6555.55
450.21	6776.73
450.42	6838.17
450.63	6741.91
450.84	6739.87
451.05	6926.23
451.25	6750.10
451.46	6625.18
451.67	6838.17
451.88	6983.57
452.09	7030.68
452.30	6836.12
452.51	7028.63
452.72	7063.44
452.93	7309.20
453.13	6987.67
453.34	6872.98
453.55	7161.75
453.76	7028.63
453.97	7493.52
454.18	7194.51
454.39	7364.50
454.60	7231.38
454.81	7243.67
455.01	7442.32
455.22	7049.11
455.43	7282.58
455.64	7647.12
455.85	7552.91
456.06	7899.02
456.27	7636.88
456.48	7516.05
456.68	7550.86
456.89	7853.96
457.10	7868.30
457.31	7716.75
457.52	7565.20
457.73	7853.96
457.94	7948.17
458.14	7683.98
458.35	8097.67
458.56	8062.85
458.77	8083.33
458.98	7985.03
459.19	8124.29
459.39	8064.90
459.60	8365.95
459.81	8193.92
460.02	8392.58
460.23	8220.55
460.44	8329.09
460.65	8433.54
460.85	8615.80
461.06	8550.27
461.27	8628.09
461.48	8630.14
461.69	8726.39
461.89	8484.73
462.10	8621.95
462.31	8566.65
462.52	8599.42
462.73	8781.69
462.94	8927.10
463.14	8767.35
463.35	8925.05
463.56	9230.20
463.77	9174.90
463.98	8937.34
464.18	8980.34
464.39	9144.18
464.60	9381.74
464.81	9348.98
465.02	9203.57
465.23	9576.30
465.43	9201.52
465.64	9695.08
465.85	9422.70
466.06	9455.47
466.27	9727.85
466.47	9824.11
466.68	9789.29
466.89	9551.73
467.10	9836.39
467.30	9645.93
467.51	9875.31
467.72	10209.12
467.93	9840.49
468.14	10213.22
468.34	10209.12
468.55	10317.67
468.76	10395.49
468.97	10067.81
469.17	10381.15
469.38	10364.77
469.59	10651.49
469.80	10372.96
470.01	10481.50
470.21	10381.15
470.42	10753.88
470.63	10753.88
470.84	10729.31
471.04	10960.73
471.25	11102.04
471.46	10739.55
471.67	11251.54
471.87	10911.58
472.08	11102.04
472.29	11413.33
472.50	11016.02
472.70	11177.81
472.91	11380.56
473.12	11472.72
473.33	11472.72
473.53	11681.61
473.74	11403.09
473.95	11765.58
474.16	11784.01
474.36	11904.84
474.57	11925.32
474.78	12152.65
474.99	12115.78
475.19	11872.07
475.40	12220.23
475.61	12359.49
475.81	12447.55
476.02	12691.26
476.23	12441.41
476.44	12627.78
476.64	12764.99
476.85	13070.14
477.06	12873.53
477.27	13000.51
477.47	12996.41
477.68	13193.01
477.89	13424.44
478.09	13180.73
478.30	13215.54
478.51	13217.59
478.71	13537.07
478.92	13694.77
479.13	13389.62
479.34	13768.49
479.54	13733.68
479.75	13735.73
479.96	13928.24
480.16	14073.64
480.37	13944.62
480.58	14548.77
480.78	14462.76
480.99	14386.98
481.20	14487.33
481.41	14632.74
481.61	14602.02
481.82	14677.79
482.03	14683.94
482.23	14817.05
482.44	14808.86
482.65	15105.82
482.85	14788.38
483.06	15099.67
483.27	15066.91
483.47	15259.42
483.68	15232.79
483.89	15601.43
484.09	15617.81
484.30	15701.78
484.51	15703.82
484.71	15810.32
484.92	15750.93
485.13	16166.67
485.33	16084.75
485.54	15894.29
485.75	16420.61
485.95	16176.91
486.16	16592.64
486.37	16387.85
486.57	16234.25
486.78	16666.37
486.98	16709.38
487.19	16912.13
487.40	16916.22
487.60	16905.98
487.81	16887.55
488.02	17086.20
488.22	17092.35
488.43	17397.49
488.64	17221.37
488.84	17379.06
489.05	17559.28
489.25	17450.74
489.46	17952.49
489.67	17622.77
489.87	17907.44
490.08	17743.60
490.29	17991.41
490.49	18337.51
490.70	18337.51
490.90	18484.97
491.11	18589.41
491.32	18280.17
491.52	18548.45
491.73	18632.42
491.94	18896.61
492.14	18611.94
492.35	19009.25
492.55	19201.76
492.76	18906.85
492.97	19283.67
493.17	19279.58
493.38	19476.18
493.58	19691.22
493.79	19594.96
494.00	19224.28
494.20	19926.74
494.41	19592.92
494.61	19740.37
494.82	19814.10
495.02	19908.30
495.23	20012.75
495.44	20371.15
495.64	20141.77
495.85	20285.13
496.05	20602.57
496.26	20446.92
496.47	20821.70
496.67	20676.29
496.88	20770.50
497.08	20698.82
497.29	21141.18
497.49	20940.48
497.70	21104.32
497.91	21307.07
498.11	21096.13
498.32	21653.17
498.52	21653.17
498.73	21733.04
498.93	21939.89
499.14	21782.20
499.34	21935.79
499.55	22257.32
499.76	22070.96
499.96	22189.74
500.17	22245.04
500.37	22589.10
500.58	22290.09
500.78	22202.03
500.99	22404.78
501.19	22474.41
501.40	22777.51
501.60	22460.07
501.81	22736.55
502.02	22580.90
502.22	22595.24
502.43	23076.51
502.63	23244.45
502.84	23256.73
503.04	23158.43
503.25	23199.39
503.45	23352.99
503.66	23252.64
503.86	23565.98
504.07	23701.14
504.27	23606.94
504.48	24125.07
504.68	23871.12
504.89	24430.22
505.09	24096.40
505.30	23901.84
505.50	24250.00
505.71	24196.75
505.91	24309.39
506.12	24448.65
506.32	24411.79
506.53	24403.60
506.73	24391.31
506.94	24788.61
507.14	24481.42
507.35	24751.75
507.55	24936.07
507.76	24866.44
507.96	24968.84
508.17	25261.69
508.37	25149.06
508.58	25214.59
508.78	25288.32
508.99	25276.03
509.19	25308.80
509.40	25554.55
509.60	25495.16
509.81	25945.72
510.01	25468.54
510.22	25609.85
510.42	25624.18
510.63	25695.86
510.83	25783.93
511.04	25972.34
511.24	26121.84
511.44	25765.49
511.65	26044.02
511.85	26160.75
512.06	25980.53
512.26	26218.10
512.47	26588.78
512.67	26179.18
512.88	26107.51
513.08	26343.02
513.29	26345.07
513.49	26855.01
513.69	26318.45
513.90	26791.53
514.10	26803.82
514.31	26775.14
514.51	26865.25
514.72	26859.11
514.92	26963.56
515.13	27285.09
515.33	27260.51
515.53	26914.41
515.74	27096.67
515.94	27203.17
516.15	27367.01
516.35	26900.07
516.56	27414.11
516.76	27178.59
516.96	27582.04
517.17	27489.88
517.37	27442.78
517.58	27612.76
517.78	27801.18
517.99	27704.92
518.19	27993.68
518.39	28096.08
518.60	28128.85
518.80	28239.44
519.01	28261.97
519.21	27883.09
519.41	28284.50
519.62	28161.62
519.82	28567.12
520.03	28448.33
520.23	28374.61
520.43	28421.71
520.64	28640.84
520.84	28819.02
521.05	28769.86
521.25	28839.50
521.45	28792.39
521.66	29132.36
521.86	29019.72
522.07	28964.42
522.27	29443.65
522.47	28966.47
522.68	29632.06
522.88	29130.31
523.08	29492.80
523.29	29498.94
523.49	29337.15
523.70	29572.67
523.90	29380.16
524.10	29546.05
524.31	29832.76
524.51	29597.24
524.71	30049.85
524.92	30170.68
525.12	29795.90
525.33	30354.99
525.53	30314.03
525.73	30606.89
525.94	30438.96
526.14	30414.38
526.34	30608.94
526.55	30660.14
526.75	30582.32
526.95	31098.41
527.16	30475.82
527.36	30580.27
527.56	30701.10
527.77	31071.78
527.97	30846.51
528.17	31100.45
528.38	31260.20
528.58	31020.58
528.78	31338.02
528.99	31409.70
529.19	31366.69
529.39	31133.22
529.60	31544.86
529.80	31444.51
530.00	31397.41
530.21	31790.62
530.41	32048.66
530.61	31807.00
530.82	31856.15
531.02	31817.24
531.22	32173.59
531.43	32249.36
531.63	32286.23
531.83	32579.09
532.04	32939.53
532.24	32214.55
532.44	32597.52
532.64	32495.12
532.85	32982.54
533.05	32431.63
533.25	32912.91
533.46	32878.09
533.66	32785.93
533.86	32845.32
534.07	33644.03
534.27	33158.66
534.47	33377.79
534.67	33713.66
534.88	33111.56
535.08	33504.77
535.28	33578.50
535.49	33738.24
535.69	33971.71
535.89	34100.73
536.09	34129.40
536.30	34031.10
536.50	33916.41
536.70	34268.66
536.91	34104.82
537.11	34309.62
537.31	34588.14
537.51	34237.94
537.72	34596.34
537.92	34610.67
538.12	34870.76
538.32	34516.47
538.53	34950.63
538.73	34301.43
538.93	34541.04
539.13	34635.25
539.34	35055.08
539.54	34819.56
539.74	35110.38
539.94	35274.21
540.15	34735.60
540.35	35266.02
540.55	35202.53
540.75	35288.55
540.96	35032.55
541.16	35462.63
541.36	35261.93
541.56	35886.56
541.77	35980.76
541.97	35657.18
542.17	35530.21
542.37	36115.93
542.58	35925.47
542.78	35843.55
542.98	35968.48
543.18	36093.40
543.38	36500.95
543.59	36376.02
543.79	36230.62
543.99	36048.35
544.19	36165.08
544.40	36326.87
544.60	36562.39
544.80	36554.19
545.00	36578.77
545.20	37074.38
545.41	36412.88
545.61	36640.21
545.81	36933.07
546.01	36795.85
546.21	36584.91
546.42	36969.93
546.62	37166.54
546.82	36818.38
547.02	37207.50
547.22	37438.92
547.43	37098.95
547.63	37139.91
547.83	37696.96
548.03	37021.13
548.23	37477.83
548.44	37410.25
548.64	37381.57
548.84	37887.42
549.04	37666.24
549.24	38262.20
549.45	37828.03
549.65	37498.31
549.85	37680.58
550.05	37963.20
550.25	37729.73
550.45	38370.74
550.66	37985.72
550.86	38065.60
551.06	38155.71
551.26	38391.22
551.46	38313.40
551.66	38409.65
551.87	38497.72
552.07	39040.43
552.27	38413.75
552.47	38434.23
552.67	38770.10
552.87	38596.02
553.07	38493.62
553.28	38909.36
553.48	38524.34
553.68	38432.18
553.88	39194.03
554.08	39026.09
554.28	38903.21
554.48	38770.10
554.69	39415.21
554.89	38954.41
555.09	39257.51
555.29	39396.77
555.49	39368.10
555.69	39605.67
555.89	39009.71
556.10	39959.97
556.30	39409.06
556.50	39839.14
556.70	39490.98
556.90	40068.51
557.10	39810.46
557.30	39691.68
557.50	39828.90
557.70	39718.31
557.91	40254.87
558.11	40275.35
558.31	40218.01
558.51	40605.08
558.71	39992.73
558.91	40517.01
559.11	40293.79
559.31	40297.88
559.51	40234.39
559.72	40211.87
559.92	40365.46
560.12	40035.74
560.32	40392.09
560.52	40097.18
560.72	40351.13
560.92	40508.82
561.12	40885.65
561.32	41076.11
561.52	40795.54
561.72	41194.89
561.93	41366.92
562.13	41377.16
562.33	40719.76
562.53	41549.19
562.73	40875.41
562.93	41500.04
563.13	41205.13
563.33	41121.16
563.53	41751.94
563.73	40983.95
563.93	41897.34
564.13	41803.14
564.33	41768.32
564.53	41885.06
564.74	41880.96
564.94	41409.93
565.14	41944.45
565.34	41784.71
565.54	42114.43
565.74	42296.70
565.94	42294.65
566.14	42038.65
566.34	42311.03
566.54	42739.06
566.74	42065.28
566.94	41977.22
567.14	42425.72
567.34	42184.06
567.54	42724.72
567.74	42386.81
567.94	42550.65
568.14	43126.13
568.34	42956.14
568.54	42597.75
568.74	42726.77
568.94	42931.57
569.14	43038.06
569.34	43091.31
569.54	42999.15
569.75	43054.45
569.95	42829.17
570.15	43601.25
570.35	42999.15
570.55	43189.61
570.75	43316.59
570.95	43418.99
571.15	43838.82
571.35	43380.07
571.55	43924.83
571.75	43732.32
571.95	43709.80
572.15	43588.97
572.35	43869.54
572.55	43502.95
572.75	43797.86
572.95	43744.61
573.15	43951.46
573.35	43826.53
573.55	44055.90
573.75	43937.12
573.95	44166.49
574.15	44209.50
574.35	44451.16
574.55	44313.95
574.75	44103.01
574.95	44723.54
575.15	44569.94
575.34	44653.91
575.54	45036.88
575.74	45245.77
575.94	44983.63
576.14	44717.40
576.34	45630.79
576.54	44823.89
576.74	45245.77
576.94	45202.77
577.14	45430.09
577.34	45399.37
577.54	45210.96
577.74	45665.61
577.94	45425.99
578.14	45458.76
578.34	45784.39
578.54	45577.54
578.74	45571.40
578.94	46019.91
579.14	45493.58
579.34	45725.00
579.54	46042.43
579.74	46157.12
579.94	45970.75
580.13	46525.75
580.33	46144.83
580.53	45997.38
580.73	46638.39
580.93	46081.34
581.13	46454.08
581.33	46654.78
581.53	46984.50
581.73	46687.54
581.93	46490.94
582.13	46753.08
582.33	47031.60
582.53	46624.06
582.73	47103.28
582.92	47168.82
583.12	47322.41
583.32	46765.37
583.52	46808.37
583.72	47469.87
583.92	46974.26
584.12	47635.75
584.32	48143.65
584.52	47592.75
584.72	47340.85
584.92	47451.44
585.11	47871.27
585.31	47885.61
585.51	47570.22
585.71	47736.10
585.91	47887.65
586.11	48049.44
586.31	47660.33
586.51	47639.85
586.71	48239.90
586.91	48307.49
587.10	48094.50
587.30	48624.92
587.50	48373.02
587.70	48297.25
587.90	48426.27
588.10	48788.76
588.30	48192.80
588.50	48684.31
588.69	48618.78
588.89	47873.32
589.09	48721.18
589.29	48758.04
589.49	48751.90
589.69	48262.43
589.89	49212.69
590.08	48600.35
590.28	48934.17
590.48	48907.54
590.68	48448.80
590.88	48862.49
591.08	48659.74
591.28	48792.86
591.47	49931.53
591.67	48839.96
591.87	48692.50
592.07	49196.31
592.27	49081.62
592.47	49628.43
592.67	49034.52
592.86	49358.09
593.06	49503.50
593.26	49368.33
593.46	49784.07
593.66	49499.40
593.86	49671.43
594.05	49442.06
594.25	49691.91
594.45	49319.18
594.65	49634.57
594.85	49114.39
595.05	49812.74
595.24	49734.92
595.44	49616.14
595.64	49933.57
595.84	49696.01
596.04	49909.00
596.23	49612.04
596.43	50005.25
596.63	49919.24
596.83	50203.91
597.03	50095.36
597.22	50595.07
597.42	50193.67
597.62	50398.46
597.82	50230.53
598.02	50154.75
598.21	50423.04
598.41	50703.61
598.61	50236.67
598.81	50498.81
599.01	50578.68
599.20	50418.94
599.40	50023.68
599.60	50765.05
599.80	50496.77
600.00	50556.16
600.19	50842.87
600.39	50226.43
600.59	50492.67
600.79	50734.33
600.98	50541.82
601.18	50793.72
601.38	51035.38
601.58	50975.99
601.78	51197.17
601.97	50935.03
602.17	51264.75
602.37	51264.75
602.57	51430.64
602.76	51139.83
602.96	51148.02
603.16	51246.32
603.36	51109.11
603.55	51582.19
603.75	51270.90
603.95	51455.21
604.15	51623.15
604.34	51453.17
604.54	51688.68
604.74	51361.01
604.94	51277.04
605.13	51715.31
605.33	51399.92
605.53	51557.61
605.73	51586.28
605.92	51180.79
606.12	51737.83
606.32	51870.95
606.52	51541.23
606.71	51619.05
606.91	51883.24
607.11	51651.82
607.30	51801.32
607.50	51934.44
607.70	51991.78
607.90	52014.31
608.09	51678.44
608.29	52231.40
608.49	51455.21
608.68	51965.16
608.88	52018.41
609.08	51895.53
609.28	52176.10
609.47	51895.53
609.67	52174.05
609.87	52042.98
610.06	52174.05
610.26	52239.59
610.46	52112.61
610.66	51729.64
610.85	52460.77
611.05	52110.56
611.25	52251.87
611.44	51778.79
611.64	51877.10
611.84	52137.19
612.03	51678.44
612.23	52131.04
612.43	52215.01
612.62	51930.34
612.82	51918.06
613.02	52229.35
613.21	52083.94
613.41	51600.62
613.61	52094.18
613.80	51940.58
614.00	51956.97
614.20	52223.20
614.39	52163.81
614.59	52303.07
614.79	52434.14
614.98	52221.16
615.18	51942.63
615.38	52190.44
615.57	51995.88
615.77	52284.64
615.97	51926.25
616.16	51739.88
616.36	51879.14
616.56	52014.31
616.75	51713.26
616.95	51913.96
617.15	51993.83
617.34	52176.10
617.54	51956.97
617.74	52206.82
617.93	52223.20
618.13	51803.37
618.32	51743.98
618.52	51672.30
618.72	52172.00
618.91	51500.27
619.11	51864.81
619.31	51969.26
619.50	51774.70
619.70	51639.53
619.90	51772.65
620.09	51565.81
620.29	51975.40
620.48	51954.92
620.68	51981.54
620.88	51617.00
621.07	52024.55
621.27	51928.30
621.46	51238.13
621.66	51496.17
621.86	51934.44
622.05	51385.58
622.25	51928.30
622.44	51522.80
622.64	51614.96
622.84	51729.64
623.03	51729.64
623.23	51707.12
623.42	51467.50
623.62	51821.80
623.82	52198.63
624.01	51680.49
624.21	51692.78
624.40	51520.75
624.60	51690.73
624.80	51817.71
624.99	51512.56
625.19	51559.66
625.38	52047.08
625.58	51598.57
625.77	51451.12
625.97	51813.61
626.17	51238.13
626.36	51565.81
626.56	51606.76
626.75	50806.01
626.95	52018.41
627.14	51889.38
627.34	52221.16
627.54	51576.04
627.73	51440.88
627.93	51602.67
628.12	51410.16
628.32	51688.68
628.51	51600.62
628.71	51735.79
628.90	51610.86
629.10	51881.19
629.30	51959.02
629.49	51571.95
629.69	51363.06
629.88	51338.48
630.08	51873.00
630.27	51705.07
630.47	51969.26
630.66	51543.28
630.86	51913.96
631.05	51031.29
631.25	51887.34
631.44	51537.13
631.64	51623.15
631.84	51436.78
632.03	52241.63
632.23	51959.02
632.42	51940.58
632.62	51789.03
632.81	51754.22
633.01	51647.72
633.20	52094.18
633.40	51995.88
633.59	52278.50
633.79	51916.01
633.98	51936.49
634.18	52223.20
634.37	52165.86
634.57	51821.80
634.76	52167.91
634.96	51746.03
635.15	52323.55
635.35	51600.62
635.54	51946.73
635.74	52231.40
635.93	51516.65
636.13	52329.70
636.32	51942.63
636.52	51860.71
636.71	51954.92
636.91	52100.32
637.10	52129.00
637.30	52417.76
637.49	51887.34
637.69	52169.96
637.88	52491.49
638.08	51811.56
638.27	52475.10
638.46	52053.22
638.66	52088.04
638.85	52468.96
639.05	52567.26
639.24	52544.73
639.44	51766.51
639.63	52436.19
639.83	52468.96
640.02	51936.49
640.22	52172.00
640.41	52417.76
640.61	51813.61
640.80	52579.55
640.99	52466.91
641.19	53388.50
641.38	52092.13
641.58	52700.38
641.77	52428.00
641.97	52223.20
642.16	52229.35
642.36	52835.55
642.55	53026.01
642.74	52626.65
642.94	53224.66
643.13	52909.27
643.33	53118.17
643.52	52987.10
643.72	53056.73
643.91	53107.93
644.10	52983.00
644.30	53132.50
644.49	52581.60
644.69	53427.41
644.88	53169.36
645.08	52827.35
645.27	53329.11
645.46	53286.10
645.66	53318.87
645.85	52626.65
646.05	53413.07
646.24	53136.60
646.43	53269.72
646.63	53556.43
646.82	53466.32
647.02	53320.91
647.21	53032.15
647.40	53296.34
647.60	53695.69
647.79	53329.11
647.99	53372.11
648.18	53337.30
648.37	53910.73
648.57	53515.47
648.76	53511.38
648.96	53517.52
649.15	53769.42
649.34	53826.76
649.54	53572.81
649.73	53494.99
649.92	53675.21
650.12	53640.40
650.31	54105.29
650.51	54105.29
650.70	54398.15
650.89	53966.02
651.09	54514.88
651.28	54099.14
651.47	54514.88
651.67	54033.61
651.86	54662.33
652.06	53763.28
652.25	54154.44
652.44	54295.75
652.64	54142.15
652.83	54320.32
653.02	54162.63
653.22	54424.77
653.41	54396.10
653.60	54181.06
653.80	54285.51
653.99	54179.01
654.18	54103.24
654.38	54590.66
654.57	54449.35
654.76	54957.24
654.96	54435.01
655.15	54179.01
655.34	54471.87
655.54	54344.90
655.73	54518.98
655.92	54629.57
656.12	54736.06
656.31	54293.70
656.50	54738.11
656.70	54973.63
656.89	54865.08
657.08	55223.48
657.28	54901.95
657.47	54924.47
657.66	55379.12
657.86	54971.58
658.05	55276.72
658.24	55268.53
658.43	54359.23
658.63	55280.82
658.82	55221.43
659.01	55620.78
659.21	55461.04
659.40	55268.53
659.59	55047.35
659.79	54885.56
659.98	55409.84
660.17	55739.57
660.36	55393.46
660.56	55567.54
660.75	55401.65
660.94	55477.43
661.14	55637.17
661.33	55022.78
661.52	55004.34
661.71	55637.17
661.91	55139.51
662.10	55231.67
662.29	55903.40
662.49	55571.63
662.68	55590.06
662.87	55778.48
663.06	55760.05
663.26	55776.43
663.45	55776.43
663.64	55665.84
663.83	56114.34
664.03	55499.95
664.22	55801.00
664.41	56274.09
664.60	55624.88
664.80	55733.42
664.99	55770.28
665.18	55895.21
665.37	55747.76
665.57	56546.47
665.76	56175.78
665.95	55868.59
666.14	55901.36
666.34	55954.60
666.53	55901.36
666.72	55786.67
666.91	55764.14
667.11	55803.05
667.30	56026.28
667.49	55727.28
667.68	55755.95
667.87	55588.02
668.07	55809.20
668.26	56097.96
668.45	56417.44
668.64	56005.80
668.84	56423.59
669.03	56132.78
669.22	56405.16
669.41	56126.63
669.60	56599.71
669.80	55934.12
669.99	56114.34
670.18	56267.94
670.37	56296.61
670.57	56472.74
670.76	55813.29
670.95	56814.75
671.14	55860.40
671.33	56073.38
671.53	56779.93
671.72	56345.76
671.91	56360.10
672.10	56294.56
672.29	56530.08
672.48	56261.80
672.68	56648.86
672.87	55979.18
673.06	55764.14
673.25	56145.06
673.44	56308.90
673.64	56321.19
673.83	56013.99
674.02	55776.43
674.21	55579.82
674.40	56415.40
674.59	56284.33
674.79	56147.11
674.98	55915.69
675.17	56165.54
675.36	55995.56
675.55	56124.58
675.74	55790.76
675.94	56046.76
676.13	56136.87
676.32	56566.94
676.51	56396.96
676.70	56313.00
676.89	56325.28
677.08	56169.64
677.28	55995.56
677.47	56067.24
677.66	56378.53
677.85	56349.86
678.04	56399.01
678.23	56636.58
678.42	56050.86
678.62	55723.18
678.81	56237.22
679.00	56423.59
679.19	56417.44
679.38	56173.73
679.57	56177.83
679.76	55917.74
679.96	56177.83
680.15	56394.92
680.34	56095.91
680.53	55592.11
680.72	56284.33
680.91	56542.37
681.10	56024.23
681.29	56468.64
681.48	56085.67
681.68	55985.32
681.87	55686.32
682.06	56026.28
682.25	55768.24
682.44	56032.42
682.63	55917.74
682.82	55297.20
683.01	55727.28
683.20	55639.22
683.39	56042.66
683.59	55575.73
683.78	55125.17
683.97	55346.36
684.16	55758.00
684.35	55432.37
684.54	55678.13
684.73	55563.44
684.92	55538.86
685.11	55547.06
685.30	55381.17
685.49	55588.02
685.69	55522.48
685.88	55424.18
686.07	55289.01
686.26	55452.85
686.45	55567.54
686.64	55856.30
686.83	55497.91
687.02	55551.15
687.21	55860.40
687.40	55182.52
687.59	55555.25
687.78	55522.48
687.97	55891.12
688.16	55391.41
688.35	55497.91
688.54	55231.67
688.74	55037.11
688.93	55039.16
689.12	55069.88
689.31	55014.58
689.50	55383.22
689.69	54797.50
689.88	54697.15
690.07	54906.04
690.26	54754.49
690.45	55166.13
690.64	54971.58
690.83	55088.31
691.02	54766.78
691.21	55198.90
691.40	54346.95
691.59	54828.22
691.78	54893.75
691.97	55026.87
692.16	54449.35
692.35	54930.62
692.54	54314.18
692.73	55102.65
692.92	54783.16
693.11	54363.33
693.30	54711.49
693.49	54473.92
693.68	54521.02
693.87	54336.71
694.06	54465.73
694.25	54314.18
694.44	53869.77
694.63	54428.87
694.82	54353.09
695.01	54480.06
695.20	54127.81
695.39	54127.81
695.58	54478.02
695.77	53662.93
695.96	54088.90
696.15	54047.94
696.34	53689.55
696.53	53873.87
696.72	54090.95
696.91	53830.86
697.10	53648.59
697.29	53683.40
697.48	54052.04
697.67	53138.65
697.86	53093.59
698.05	53761.23
698.24	53667.02
698.43	53613.77
698.62	53392.59
698.81	53126.36
699.00	54064.33
699.19	53431.50
699.38	53503.18
699.57	52763.87
699.76	53806.28
699.95	53404.88
700.14	53271.76
700.32	53107.93
700.51	52937.94
700.70	53652.69
700.89	53230.80
701.08	53357.78
701.27	53069.01
701.46	53064.92
701.65	52536.54
701.84	53062.87
702.03	52831.45
702.22	52557.02
702.41	52999.38
702.60	52954.33
702.79	52600.03
702.98	52608.22
703.17	52636.89
703.35	52444.38
703.54	52272.35
703.73	52583.65
703.92	52096.23
704.11	52014.31
704.30	51903.72
704.49	51936.49
704.68	52307.17
704.87	51864.81
705.06	52038.89
705.25	51983.59
705.43	52131.04
705.62	51827.95
705.81	51913.96
706.00	52098.28
706.19	51664.11
706.38	51631.34
706.57	51178.74
706.76	52114.66
706.95	51997.93
707.14	51303.67
707.32	51373.30
707.51	51737.83
707.70	51318.00
707.89	51467.50
708.08	51408.11
708.27	51459.31
708.46	51973.35
708.65	51231.99
708.84	51516.65
709.02	51449.07
709.21	50998.52
709.40	51047.67
709.59	51266.80
709.78	50658.56
709.97	51139.83
710.16	51086.58
710.34	50947.32
710.53	51346.67
710.72	50656.51
710.91	50773.24
711.10	51025.14
711.29	51213.55
711.48	50814.20
711.66	50838.78
711.85	50453.76
712.04	50490.62
712.23	50742.52
712.42	50455.81
712.61	50529.53
712.80	50488.57
712.98	50730.23
713.17	49960.20
713.36	50447.61
713.55	50253.06
713.74	50347.26
713.93	50050.31
714.11	50101.51
714.30	49822.98
714.49	50046.21
714.68	50214.15
714.87	50246.91
715.06	50058.50
715.24	49777.93
715.43	49530.12
715.62	49403.15
715.81	49462.54
716.00	49972.49
716.18	49571.08
716.37	49425.68
716.56	49747.21
716.75	49452.30
716.94	49194.26
717.12	48917.78
717.31	49640.71
717.50	49194.26
717.69	48907.54
717.88	48753.94
718.06	49267.98
718.25	49251.60
718.44	48872.73
718.63	48803.10
718.82	48803.10
719.00	48934.17
719.19	48342.30
719.38	49110.29
719.57	48121.12
719.76	48264.48
719.94	48100.64
720.13	48217.38
720.32	48502.04
720.51	48420.13
720.69	48145.70
720.88	48190.75
721.07	47940.90
721.26	47699.24
721.44	48102.69
721.63	47621.42
721.82	47736.10
722.01	47461.68
722.20	47809.83
722.38	47729.96
722.57	47101.23
722.76	47686.95
722.95	47740.20
723.13	46994.74
723.32	47492.40
723.51	46929.20
723.70	46890.29
723.88	47207.73
724.07	47252.78
724.26	47226.16
724.44	46517.56
724.63	47134.00
724.82	46781.75
725.01	46765.37
725.19	46544.19
725.38	46613.82
725.57	46890.29
725.76	46771.51
725.94	46171.46
726.13	46603.58
726.32	46558.52
726.51	46228.80
726.69	46615.86
726.88	46648.63
727.07	46394.68
727.25	46349.63
727.44	46607.67
727.63	46110.02
727.82	46388.54
728.00	46110.02
728.19	45937.99
728.38	46392.64
728.56	45798.73
728.75	46384.44
728.94	46230.85
729.12	46400.83
729.31	46140.74
729.50	46007.62
729.69	46413.12
729.87	45985.09
730.06	46257.47
730.25	45651.27
730.43	46028.10
730.62	45888.84
730.81	45923.65
730.99	45964.61
731.18	45913.41
731.37	46032.19
731.55	45849.92
731.74	45974.85
731.93	46015.81
732.11	45765.96
732.30	45999.43
732.49	45544.78
732.67	46024.00
732.86	45780.29
733.05	45993.28
733.23	45245.77
733.42	45585.74
733.61	45675.85
733.79	45743.43
733.98	45833.54
734.17	46060.87
734.35	45702.47
734.54	45980.99
734.73	45856.07
734.91	45851.97
735.10	45489.48
735.29	45778.25
735.47	45178.19
735.66	45886.79
735.84	45385.04
736.03	45221.20
736.22	45526.35
736.40	45358.41
736.59	45462.86
736.78	45354.32
736.96	45335.88
737.15	45329.74
737.33	45282.64
737.52	44926.29
737.71	45221.20
737.89	45368.65
738.08	44719.45
738.27	45032.78
738.45	45325.64
738.64	45051.22
738.82	44973.39
739.01	45010.26
739.20	44946.77
739.38	45108.56
739.57	45045.07
739.75	45612.36
739.94	44588.38
740.13	44920.15
740.31	44803.41
740.50	44606.81
740.68	44705.11
740.87	45137.23
741.06	44893.52
741.24	44643.67
741.43	44508.50
741.61	44975.44
741.80	44397.91
741.99	44563.80
742.17	44479.83
742.36	44311.90
742.54	44094.82
742.73	44348.76
742.91	44739.93
743.10	44338.52
743.29	44146.01
743.47	44533.08
743.66	44338.52
743.84	44549.46
744.03	44266.84
744.21	44473.69
744.40	44369.24
744.59	44242.27
744.77	44031.33
744.96	44246.36
745.14	43904.35
745.33	44025.18
745.51	44477.79
745.70	44287.32
745.88	44217.69
746.07	43910.50
746.26	44010.85
746.44	43957.60
746.63	44449.11
746.81	43658.60
747.00	43715.94
747.18	43943.27
747.37	43922.79
747.55	43973.98
747.74	44223.84
747.92	43771.24
748.11	43668.84
748.29	43748.71
748.48	43588.97
748.66	43789.67
748.85	43337.07
749.03	43734.37
749.22	43787.62
749.41	43541.86
749.59	43511.14
749.78	43066.73
749.96	43349.35
750.15	43591.01
750.33	43279.72
750.52	43287.92
750.70	43525.48
750.89	43173.23
751.07	43144.56
751.26	43289.96
751.44	43447.66
751.63	43535.72
751.81	42888.56
752.00	42915.19
752.18	43283.82
752.37	42954.10
752.55	42734.96
752.74	42747.25
752.92	42800.50
753.10	42767.73
753.29	43240.81
753.47	42827.12
753.66	42491.26
753.84	42810.74
754.03	42378.62
754.21	42407.29
754.40	42997.10
754.58	42642.81
754.77	42687.86
754.95	42571.13
755.14	42825.07
755.32	42761.59
755.51	42184.06
755.69	42337.66
755.88	42556.79
756.06	42421.62
756.24	42212.73
756.43	42184.06
756.61	42603.89
756.80	42112.38
756.98	41915.78
757.17	42136.96
757.35	42382.71
757.54	42538.36
757.72	42216.83
757.90	41995.65
758.09	42360.19
758.27	42595.70
758.46	41852.29
758.64	42167.68
758.83	42100.09
759.01	42388.86
759.19	42018.17
759.38	42225.02
759.56	42284.41
759.75	41862.53
759.93	42296.70
760.12	41497.99
760.30	41909.63
760.48	41514.37
760.67	41850.24
760.85	42171.77
761.04	42192.25
761.22	41835.91
761.40	41655.68
761.59	41610.63
761.77	41383.30
761.96	41905.54
762.14	41459.08
762.32	41575.81
762.51	41418.12
762.69	41309.58
762.88	41956.74
763.06	41432.46
763.24	41749.89
763.43	41420.17
763.61	41352.58
763.80	41645.44
763.98	41313.67
764.16	41723.27
764.35	41346.44
764.53	41014.67
764.72	41065.87
764.90	41174.41
765.08	41090.44
765.27	41334.15
765.45	40916.37
765.63	40785.30
765.82	41188.75
766.00	40998.29
766.18	40838.54
766.37	41117.07
766.55	40752.53
766.74	40983.95
766.92	40971.66
767.10	40760.72
767.29	40979.85
767.47	40607.12
767.65	40443.29
767.84	40338.84
768.02	40600.98
768.20	40390.04
768.39	40381.85
768.57	40682.90
768.75	40517.01
768.94	40478.10
769.12	40312.22
769.30	40002.97
769.49	40244.63
769.67	39796.13
769.85	40330.65
770.04	40435.10
770.22	39912.86
770.40	39769.51
770.59	40105.37
770.77	40308.12
770.95	40287.64
771.14	39910.82
771.32	39742.88
771.50	39476.65
771.69	39654.82
771.87	40123.80
772.05	39630.24
772.24	39566.76
772.42	39392.68
772.60	39839.14
772.78	39290.28
772.97	39390.63
773.15	39796.13
773.33	39507.37
773.52	39593.38
773.70	39355.82
773.88	39828.90
774.07	39345.58
774.25	39615.91
774.43	40164.76
774.61	39773.60
774.80	39744.93
774.98	39382.44
775.16	39622.05
775.34	39931.29
775.53	39415.21
775.71	40052.12
775.89	39605.67
776.08	39761.31
776.26	39667.11
776.44	39966.11
776.62	39566.76
776.81	40031.65
776.99	40021.41
777.17	39701.92
777.35	40181.15
777.54	40013.21
777.72	39957.92
777.90	39771.55
778.08	40160.67
778.27	39931.29
778.45	40433.05
778.63	40416.66
778.81	40058.27
779.00	40793.49
779.18	40195.48
779.36	40549.78
779.54	40181.15
779.73	39970.21
779.91	40236.44
780.09	40519.06
780.27	40666.52
780.46	40682.90
780.64	40711.57
780.82	40945.04
781.00	40928.66
781.19	40641.94
781.37	40568.21
781.55	40877.46
781.73	40981.90
781.91	40668.56
782.10	40766.87
782.28	41139.60
782.46	41078.16
782.64	41143.69
782.82	40637.84
783.01	41352.58
783.19	40916.37
783.37	40785.30
783.55	41096.59
783.74	41137.55
783.92	40600.98
784.10	41065.87
784.28	40953.23
784.46	40783.25
784.64	40799.63
784.83	41153.93
785.01	41149.84
785.19	41244.04
785.37	41239.95
785.55	41125.26
785.74	40678.80
785.92	40687.00
786.10	40988.05
786.28	41123.21
786.46	40813.97
786.64	40756.63
786.83	40775.06
787.01	40883.60
787.19	40680.85
787.37	41049.49
787.55	40787.35
787.74	40768.91
787.92	40934.80
788.10	40525.21
788.28	40478.10
788.46	40945.04
788.64	40328.60
788.82	40803.73
789.01	40461.72
789.19	40586.64
789.37	40228.25
789.55	40322.46
789.73	40138.14
789.91	40437.14
790.09	40113.56
790.28	40324.50
790.46	39939.49
790.64	40113.56
790.82	40283.55
791.00	40011.17
791.18	39759.27
791.36	40168.86
791.55	39835.04
791.73	39615.91
791.91	39452.07
792.09	39687.59
792.27	39443.88
792.45	39687.59
792.63	39243.18
792.81	39746.98
793.00	39427.49
793.18	39269.80
793.36	39161.26
793.54	38983.09
793.72	38829.49
793.90	39118.25
794.08	38698.42
794.26	39458.21
794.44	38479.28
794.62	38401.46
794.81	38684.08
794.99	38983.09
795.17	38536.63
795.35	38313.40
795.53	38393.27
795.71	38598.07
795.89	38251.96
796.07	38157.75
796.25	37889.47
796.43	38282.68
796.61	37713.34
796.80	37205.45
796.98	37907.90
797.16	37639.62
797.34	37768.64
797.52	37690.82
797.70	37754.30
797.88	37518.79
798.06	37434.82
798.24	37098.95
798.42	37189.06
798.60	37072.33
798.78	36890.06
798.96	37066.19
799.14	36877.77
799.32	37144.01
799.51	36642.26
799.69	37082.57
799.87	37088.71
800.05	36607.44
800.23	36654.54
800.41	36566.48
800.59	36515.28
800.77	36253.14
800.95	36126.17
801.13	36187.61
801.31	36304.34
801.49	35997.15
801.67	35714.53
801.85	35995.10
802.03	35853.79
802.21	35775.97
802.39	35214.82
802.57	35681.76
802.75	35517.92
802.93	35401.19
803.11	35266.02
803.29	35288.55
803.47	35075.56
803.65	35169.77
803.83	35364.32
804.01	35167.72
804.19	34532.85
804.37	34764.27
804.55	34823.66
804.73	34635.25
804.91	34725.36
805.09	34915.82
805.27	34731.50
805.45	34391.54
805.63	34524.66
805.81	34668.02
805.99	34403.83
806.17	34440.69
806.35	34108.92
806.53	33781.24
806.71	33920.51
806.89	34049.53
807.07	33961.47
807.25	33846.78
807.43	33900.03
807.61	33881.60
807.79	33736.19
807.97	33576.45
808.15	33420.80
808.33	33218.05
808.51	33308.16
808.69	33175.05
808.87	33082.89
809.05	33134.09
809.23	33148.42
809.41	32867.85
809.59	32966.15
809.77	33207.81
809.95	32513.55
810.13	32835.08
810.31	32871.95
810.49	32624.14
810.67	32996.87
810.84	32759.31
811.02	32792.08
811.20	32564.75
811.38	32394.77
811.56	32050.71
811.74	32024.09
811.92	31956.50
812.10	32339.47
812.28	32439.82
812.46	32196.12
812.64	32249.36
812.82	31510.05
813.00	31831.58
813.18	32036.38
813.36	31821.34
813.53	31708.70
813.71	31716.89
813.89	31997.46
814.07	31280.67
814.25	31462.94
814.43	31680.03
814.61	31030.82
814.79	31411.74
814.97	31170.08
815.15	31010.34
815.33	30805.55
815.50	30975.53
815.68	30942.76
815.86	31045.16
816.04	30879.27
816.22	30633.52
816.40	30815.79
816.58	30672.43
816.76	30563.89
816.94	30508.59
817.11	30486.06
817.29	30668.33
817.47	30424.62
817.65	30481.97
817.83	30690.86
818.01	30152.24
818.19	30103.09
818.37	30428.72
818.54	30248.50
818.72	29691.45
818.90	30164.53
819.08	30096.95
819.26	29947.45
819.44	29886.01
819.62	29951.54
819.80	29988.41
819.97	29802.04
820.15	29728.31
820.33	29410.88
820.51	29601.34
820.69	29462.08
820.87	29353.54
821.05	29662.78
821.22	29453.89
821.40	29257.28
821.58	29169.22
821.76	29275.71
821.94	29208.13
822.12	29257.28
822.29	29333.06
822.47	28952.13
822.65	29279.81
822.83	29193.79
823.01	29376.06
823.19	28796.49
823.36	28847.69
823.54	28757.58
823.72	28667.47
823.90	28464.72
824.08	28583.50
824.25	28751.43
824.43	28446.29
824.61	28642.89
824.79	28876.36
824.97	28294.74
825.15	28491.34
825.32	28440.14
825.50	28106.32
825.68	28266.06
825.86	28583.50
826.04	28472.91
826.21	28114.52
826.39	28257.87
826.57	27840.09
826.75	27924.05
826.93	27784.79
827.10	27743.83
827.28	28003.92
827.46	28173.91
827.64	27846.23
827.81	27479.64
827.99	27588.19
828.17	27498.08
828.35	27369.05
828.53	27717.21
828.70	27139.68
828.88	27563.61
829.06	27076.19
829.24	27493.98
829.41	27213.41
829.59	27506.27
829.77	27119.20
829.95	27133.54
830.12	27252.32
830.30	27248.22
830.48	27289.18
830.66	27035.24
830.84	27463.26
831.01	26725.99
831.19	26869.35
831.37	26979.94
831.55	26836.58
831.72	26752.62
831.90	26898.02
832.08	26805.86
832.25	26500.72
832.43	26803.82
832.61	26734.18
832.79	26431.08
832.96	26717.80
833.14	26566.25
833.32	26316.40
833.50	26703.46
833.67	26418.80
833.85	26154.61
834.03	26138.23
834.20	26361.45
834.38	26300.01
834.56	26205.81
834.74	26037.87
834.91	26123.89
835.09	26445.42
835.27	25798.26
835.44	25708.15
835.62	25685.62
835.80	25925.24
835.98	26115.70
836.15	26211.95
836.33	25636.47
836.51	26070.64
836.68	25775.73
836.86	25634.42
837.04	25794.17
837.21	25781.88
837.39	25865.85
837.57	25544.31
837.75	25853.56
837.92	25331.33
838.10	25423.48
838.28	24958.60
838.45	25233.02
838.63	25360.00
838.81	25038.47
838.98	25181.82
839.16	25099.90
839.34	24956.55
839.51	24981.12
839.69	24999.55
839.87	24774.28
840.04	24903.30
840.22	25142.91
840.40	24721.03
840.57	24489.61
840.75	24745.61
840.93	24278.67
841.10	24813.19
841.28	24886.92
841.46	24336.01
841.63	25011.84
841.81	24931.97
841.98	24774.28
842.16	24440.46
842.34	24561.29
842.51	24288.91
842.69	24499.85
842.87	24415.88
843.04	24493.71
843.22	24295.05
843.40	24407.69
843.57	24153.74
843.75	24229.52
843.92	24151.70
844.10	24194.70
844.28	24311.44
844.45	24403.60
844.63	24209.04
844.81	24284.81
844.98	24383.12
845.16	24196.75
845.33	24000.15
845.51	23807.64
845.69	23494.30
845.86	23647.90
846.04	23666.33
846.21	23672.47
846.39	23826.07
846.57	23451.29
846.74	23568.02
846.92	23740.05
847.09	23402.14
847.27	23352.99
847.45	23424.67
847.62	23801.49
847.80	23871.12
847.97	23502.49
848.15	23252.64
848.32	23396.00
848.50	23346.84
848.68	23195.29
848.85	23053.98
849.03	22935.20
849.20	23201.44
849.38	23099.04
849.56	23074.46
849.73	22927.01
849.91	23430.81
850.08	23510.68
850.26	22853.28
850.43	22863.52
850.61	22943.39
850.78	22541.99
850.96	22611.62
851.14	22478.50
851.31	22865.57
851.49	22599.34
851.66	22640.29
851.84	22617.77
852.01	22841.00
852.19	22546.09
852.36	22488.74
852.54	22439.59
852.71	22286.00
852.89	22455.98
853.07	22619.81
853.24	22306.48
853.42	22275.76
853.59	22451.88
853.77	22310.57
853.94	22410.92
854.12	22587.05
854.29	21716.66
854.47	22195.89
854.64	22099.63
854.82	22054.58
854.99	22109.87
855.17	21913.27
855.34	22083.25
855.52	22230.70
855.69	22005.42
855.87	21814.96
856.04	21792.44
856.22	22146.73
856.39	21827.25
856.57	21935.79
856.74	21595.83
856.92	21878.45
857.09	21583.54
857.27	21526.20
857.44	21442.23
857.62	21667.51
857.79	21954.22
857.97	21354.17
858.14	21567.16
858.32	21364.41
858.49	21427.90
858.67	21386.94
858.84	21370.55
859.02	21196.48
859.19	21032.64
859.37	21071.55
859.54	21128.89
859.72	21233.34
859.89	21176.00
860.06	21300.92
860.24	20975.30
860.41	21024.45
860.59	21051.07
860.76	21223.10
860.94	20872.90
861.11	21276.35
861.29	20747.97
861.46	20807.36
861.64	20422.34
861.81	20999.87
861.98	20782.79
862.16	20557.51
862.33	20672.20
862.51	20780.74
862.68	20909.76
862.86	20504.26
863.03	20522.69
863.21	20442.82
863.38	20559.56
863.55	20453.06
863.73	20354.76
863.90	20444.87
864.08	20369.10
864.25	20463.30
864.43	20422.34
864.60	20061.90
864.77	20063.95
864.95	20317.90
865.12	20139.72
865.30	20039.37
865.47	20025.04
865.64	20057.81
865.82	20066.00
865.99	20158.16
866.17	19922.64
866.34	20119.24
866.51	19922.64
866.69	20045.52
866.86	20166.35
867.04	19920.59
867.21	19990.22
867.38	19726.04
867.56	19683.03
867.73	19549.91
867.91	19566.29
868.08	19394.26
868.25	19474.13
868.43	19402.46
868.60	19304.15
868.78	19402.46
868.95	19306.20
869.12	19314.39
869.30	18947.81
869.47	19502.81
869.64	19115.74
869.82	19261.15
869.99	18996.96
870.16	19539.67
870.34	19250.91
870.51	19488.47
870.69	18833.12
870.86	19128.03
871.03	19355.35
871.21	19062.49
871.38	19091.16
871.55	19107.55
871.73	18783.97
871.90	18925.28
872.07	18714.34
872.25	18695.91
872.42	18814.69
872.59	18695.91
872.77	18468.58
872.94	18597.60
873.11	18767.59
873.29	18599.65
873.46	18575.08
873.63	18372.33
873.81	18648.80
873.98	18329.32
874.15	18640.61
874.33	18046.70
874.50	17964.78
874.67	18147.05
874.85	18114.28
875.02	17993.45
875.19	17858.29
875.37	18058.99
875.54	17901.29
875.71	17934.06
875.88	17870.58
876.06	17864.43
876.23	17917.68
876.40	17884.91
876.58	17866.48
876.75	17866.48
876.92	17489.65
877.10	17571.57
877.27	17659.63
877.44	17549.04
877.61	17288.95
877.79	17342.20
877.96	17497.84
878.13	17555.19
878.31	17028.86
878.48	17374.97
878.65	17145.59
878.82	17143.55
879.00	17288.95
879.17	17008.38
879.34	17141.50
879.51	16879.36
879.69	16729.86
879.86	17000.19
880.03	17178.36
880.21	16846.59
880.38	17121.02
880.55	16977.66
880.72	16641.79
880.90	16688.90
881.07	17059.58
881.24	16645.89
881.41	16770.82
881.59	16803.58
881.76	16723.71
881.93	16514.82
882.10	16434.95
882.28	16430.85
882.45	16846.59
882.62	16652.03
882.79	16353.03
882.96	16146.19
883.14	16387.85
883.31	16391.94
883.48	16254.73
883.65	16529.16
883.83	16623.36
884.00	16414.47
884.17	16305.93
884.34	16283.40
884.51	16342.79
884.69	16119.56
884.86	16146.19
885.03	16236.30
885.20	15988.49
885.38	16199.43
885.55	16027.40
885.72	16166.67
885.89	16064.27
886.06	16301.83
886.24	15982.35
886.41	15884.05
886.58	15937.29
886.75	16174.86
886.92	15855.37
887.10	16164.62
887.27	15736.59
887.44	15988.49
887.61	15822.61
887.78	15937.29
887.95	16174.86
888.13	15824.65
888.30	15972.11
888.47	15937.29
888.64	15847.18
888.81	15804.17
888.99	15537.94
889.16	15666.96
889.33	15384.34
889.50	15437.59
889.67	15693.58
889.84	15451.92
890.01	15589.14
890.19	15576.85
890.36	15576.85
890.53	15505.17
890.70	15447.83
890.87	15384.34
891.04	15253.27
891.22	15191.83
891.39	15562.51
891.56	15146.78
891.73	15341.33
891.90	15079.19
892.07	14972.70
892.24	15091.48
892.42	15062.81
892.59	15089.43
892.76	15085.34
892.93	14972.70
893.10	15122.20
893.27	15085.34
893.44	14831.39
893.61	14954.27
893.79	15310.61
893.96	15017.75
894.13	14954.27
894.30	14855.97
894.47	14800.67
894.64	15150.87
894.81	14995.23
894.98	14772.00
895.15	15132.44
895.33	14622.50
895.50	14716.70
895.67	14825.25
895.84	14743.33
896.01	14860.06
896.18	14823.20
896.35	15013.66
896.52	14825.25
896.69	14712.61
896.86	14499.62
897.04	14888.73
897.21	14806.81
897.38	14563.11
897.55	14722.85
897.72	14858.01
897.89	14712.61
898.06	14653.22
898.23	14835.49
898.40	14610.21
898.57	14878.49
898.74	14683.94
898.91	14448.42
899.08	14606.11
899.26	14812.96
899.43	15128.35
899.60	14489.38
899.77	14532.39
899.94	14466.85
900.11	14509.86
900.28	14573.35
900.45	14634.78
900.62	14577.44
900.79	14733.09
900.96	14589.73
901.13	14661.41
901.30	14649.12
901.47	14663.46
901.64	14532.39
901.81	14712.61
901.98	14356.26
902.15	14614.30
902.32	14454.56
902.49	14561.06
902.66	14716.70
902.83	14477.09
903.01	14452.52
903.18	14518.05
903.35	14438.18
903.52	14184.23
903.69	14583.59
903.86	14782.24
904.03	14507.81
904.20	14683.94
904.37	14669.60
904.54	14632.74
904.71	14722.85
904.88	14331.69
905.05	14538.53
905.22	14475.04
905.39	14325.54
905.56	14581.54
905.73	14468.90
905.90	14563.11
906.07	14511.91
906.24	14595.87
906.41	14513.95
906.58	14483.24
906.75	14561.06
906.92	14315.30
907.09	14468.90
907.26	14526.24
907.43	14243.62
907.60	14298.92
907.77	14645.02
907.93	14559.01
908.10	14194.47
908.27	14483.24
908.44	14343.97
908.61	14323.49
908.78	14395.17
908.95	14386.98
909.12	14114.60
909.29	14376.74
909.46	14251.81
909.63	14481.19
909.80	14303.01
909.97	14483.24
910.14	14346.02
910.31	14362.40
910.48	14173.99
910.65	14354.21
910.82	14288.68
910.99	14284.58
911.16	14145.32
911.33	14470.95
911.50	14184.23
911.66	14214.95
911.83	14325.54
912.00	14118.70
912.17	13930.28
912.34	13987.63
912.51	14044.97
912.68	13774.64
912.85	14032.68
913.02	14169.90
913.19	13950.76
913.36	13834.03
913.53	14053.16
913.70	13909.80
913.86	13754.16
914.03	13872.94
914.20	13856.56
914.37	13864.75
914.54	13735.73
914.71	13674.29
914.88	13893.42
915.05	13872.94
915.22	13631.28
915.39	13702.96
915.55	13774.64
915.72	13580.08
915.89	13504.31
916.06	13578.03
916.23	13532.98
916.40	13385.52
916.57	13406.00
916.74	13483.83
916.91	13260.60
917.07	13303.60
917.24	13295.41
917.41	13283.13
917.58	13338.42
917.75	13274.93
917.92	12742.46
918.09	12988.22
918.26	13094.71
918.42	13205.30
918.59	12906.30
918.76	12816.19
918.93	12799.80
919.10	12963.64
919.27	13025.08
919.44	12898.11
919.60	12748.61
919.77	12726.08
919.94	12728.13
920.11	12689.21
920.28	12873.53
920.45	12619.58
920.61	12494.66
920.78	12373.83
920.95	12537.66
921.12	12291.91
921.29	12500.80
921.46	12285.76
921.62	12177.22
921.79	12406.59
921.96	12320.58
922.13	12367.68
922.30	12343.11
922.47	12119.88
922.63	12146.50
922.80	12062.54
922.97	12140.36
923.14	12132.17
923.31	11992.90
923.47	11712.33
923.64	11974.47
923.81	11702.09
923.98	11773.77
924.15	11659.09
924.32	11593.55
924.48	11734.86
924.65	11734.86
924.82	11628.37
924.99	11485.01
925.15	11476.82
925.32	11556.69
925.49	11341.65
925.66	11155.29
925.83	11452.24
925.99	11202.39
926.16	11468.62
926.33	11530.06
926.50	11013.98
926.67	11253.59
926.83	11106.13
927.00	10966.87
927.17	11093.85
927.34	10678.11
927.50	11018.07
927.67	10968.92
927.84	10850.14
928.01	10710.88
928.17	10714.97
928.34	10694.49
928.51	10774.36
928.68	10751.84
928.84	10461.02
929.01	10487.65
929.18	10401.63
929.35	10487.65
929.51	10319.71
929.68	10319.71
929.85	10426.21
930.02	10139.49
930.18	10162.02
930.35	10209.12
930.52	10057.57
930.69	10278.76
930.85	10282.85
931.02	10033.00
931.19	9987.94
931.36	9893.74
931.52	10006.38
931.69	9867.11
931.86	9824.11
932.02	9820.01
932.19	9703.28
932.36	9750.38
932.53	9555.82
932.69	9668.46
932.86	9664.36
933.03	9617.26
933.19	9478.00
933.36	9262.96
933.53	9398.13
933.70	9422.70
933.86	9201.52
934.03	9342.83
934.20	9224.05
934.36	9314.16
934.53	8884.09
934.70	8894.33
934.86	9068.41
935.03	8701.82
935.20	8902.52
935.36	8847.22
935.53	8687.48
935.70	8664.96
935.86	8767.35
936.03	8392.58
936.20	8310.66
936.36	8480.64
936.53	8173.44
936.70	8218.50
936.86	8408.96
937.03	8234.88
937.20	7935.88
937.36	8093.57
937.53	7774.09
937.70	7882.63
937.86	7602.06
938.03	7683.98
938.20	7651.21
938.36	7389.07
938.53	7503.76
938.70	7194.51
938.86	7292.82
939.03	7221.14
939.20	6991.77
939.36	7286.67
939.53	6934.42
939.70	7057.30
939.86	6725.53
940.03	6623.13
940.19	6797.21
940.36	6715.29
940.53	6584.22
940.69	6459.29
940.86	6469.53
941.03	6395.81
941.19	6260.64
941.36	6307.74
941.52	6191.01
941.69	6104.99
941.86	6006.69
942.02	6205.35
942.19	5988.26
942.35	5894.05
942.52	5955.49
942.69	5793.70
942.85	5889.96
943.02	5746.60
943.18	5728.17
943.35	5719.98
943.52	5679.02
943.68	5402.54
943.85	5679.02
944.01	5502.89
944.18	5521.32
944.35	5498.80
944.51	5349.29
944.68	5300.14
944.84	5398.45
945.01	5312.43
945.17	5369.77
945.34	5365.68
945.51	5355.44
945.67	5461.93
945.84	5314.48
946.00	5296.05
946.17	5525.42
946.33	5128.11
946.50	5345.20
946.67	5259.18
946.83	5158.83
947.00	5269.42
947.16	5240.75
947.33	5218.22
947.49	5205.94
947.66	5173.17
947.82	5238.70
947.99	5181.36
948.16	5283.76
948.32	5222.32
948.49	5152.69
948.65	5308.34
948.82	4997.04
948.98	5171.12
949.15	5203.89
949.31	5201.84
949.48	5199.79
949.64	5203.89
949.81	5248.94
949.97	5181.36
950.14	5349.29
950.30	5111.73
950.47	5425.07
950.63	5220.27
950.80	5308.34
950.96	5212.08
951.13	5375.92
951.30	5246.90
951.46	5285.81
951.63	5361.58
951.79	5257.14
951.96	5275.57
952.12	5306.29
952.29	5281.71
952.45	5242.80
952.62	5300.14
952.78	5353.39
952.94	5232.56
953.11	5197.74
953.27	5363.63
953.44	5294.00
953.60	5369.77
953.77	5392.30
953.93	5418.93
954.10	5347.25
954.26	5386.16
954.43	5330.86
954.59	5484.46
954.76	5435.31
954.92	5377.97
955.09	5410.73
955.25	5285.81
955.42	5291.95
955.58	5590.95
955.75	5476.27
955.91	5504.94
956.07	5222.32
956.24	5377.97
956.40	5349.29
956.57	5240.75
956.73	5373.87
956.90	5418.93
957.06	5334.96
957.23	5259.18
957.39	5324.72
957.56	5363.63
957.72	5382.06
957.88	5201.84
958.05	5482.41
958.21	5474.22
958.38	5412.78
958.54	5459.88
958.71	5560.24
958.87	5334.96
959.03	5425.07
959.20	5318.57
959.36	5521.32
959.53	5363.63
959.69	5308.34
959.85	5410.73
960.02	5375.92
960.18	5275.57
960.35	5347.25
960.51	5429.17
960.68	5470.12
960.84	5463.98
961.00	5173.17
961.17	5355.44
961.33	5404.59
961.50	5318.57
961.66	5531.56
961.82	5279.66
961.99	5367.73
962.15	5324.72
962.31	5349.29
962.48	5343.15
962.64	5439.40
962.81	5384.11
962.97	5412.78
963.13	5367.73
963.30	5439.40
963.46	5283.76
963.62	5347.25
963.79	5322.67
963.95	5269.42
964.12	5337.01
964.28	5269.42
964.44	5255.09
964.61	5433.26
964.77	5326.77
964.93	5523.37
965.10	5261.23
965.26	5343.15
965.42	5269.42
965.59	5306.29
965.75	5298.10
965.92	5275.57
966.08	5195.70
966.24	5334.96
966.41	5312.43
966.57	5181.36
966.73	5257.14
966.90	5281.71
967.06	5234.61
967.22	5269.42
967.39	5173.17
967.55	5207.98
967.71	5244.85
967.88	5207.98
968.04	5042.10
968.20	5056.43
968.37	5115.83
968.53	5101.49
968.69	5158.83
968.85	5154.74
969.02	5121.97
969.18	5212.08
969.34	5201.84
969.51	5218.22
969.67	5136.31
969.83	5019.57
970.00	5179.31
970.16	5105.59
970.32	5173.17
970.48	5146.55
970.65	5019.57
970.81	5023.67
970.97	5023.67
971.14	4954.04
971.30	5205.94
971.46	5124.02
971.63	5019.57
971.79	5130.16
971.95	4968.37
972.11	4908.98
972.28	4964.28
972.44	5033.91
972.60	4945.84
972.76	4964.28
972.93	4845.49
973.09	4966.32
973.25	4962.23
973.42	4790.20
973.58	4835.25
973.74	4929.46
973.90	5003.19
974.07	4870.07
974.23	4845.49
974.39	4919.22
974.55	4792.25
974.72	4769.72
974.88	4810.68
975.04	4825.01
975.20	4831.16
975.37	4771.77
975.53	4661.18
975.69	4761.53
975.85	4702.14
976.01	4769.72
976.18	4618.17
976.34	4702.14
976.50	4798.39
976.66	4788.15
976.83	4659.13
976.99	4685.75
977.15	4579.26
977.31	4575.16
977.47	4573.11
977.64	4616.12
977.80	4640.70
977.96	4638.65
978.12	4585.40
978.29	4591.55
978.45	4476.86
978.61	4530.11
978.77	4548.54
978.93	4532.15
979.10	4534.20
979.26	4544.44
979.42	4515.77
979.58	4313.02
979.74	4452.28
979.91	4573.11
980.07	4366.27
980.23	4505.53
980.39	4556.73
980.55	4411.32
980.71	4261.82
980.88	4411.32
981.04	4353.98
981.20	4362.17
981.36	4532.15
981.52	4442.04
981.68	4499.39
981.85	4487.10
982.01	4394.94
982.17	4366.27
982.33	4380.61
982.49	4347.84
982.65	4251.58
982.82	4265.92
982.98	4204.48
983.14	4243.39
983.30	4353.98
983.46	4319.17
983.62	4280.25
983.79	4157.38
983.95	4179.90
984.11	4136.90
984.27	4331.45
984.43	4169.66
984.59	4194.24
984.75	4290.49
984.91	4153.28
985.08	4220.86
985.24	4104.13
985.40	4155.33
985.56	4069.31
985.72	4165.57
985.88	4165.57
986.04	3989.44
986.20	4040.64
986.37	4104.13
986.53	3928.00
986.69	4167.62
986.85	4059.07
987.01	4042.69
987.17	4093.89
987.33	3981.25
987.49	3940.29
987.65	4087.75
987.82	3981.25
987.98	3921.86
988.14	3962.82
988.30	3989.44
988.46	3860.42
988.62	3891.14
988.78	3950.53
988.94	3985.35
989.10	3852.23
989.26	3821.51
989.42	3901.38
989.59	3766.21
989.75	3796.93
989.91	3841.99
990.07	3669.96
990.23	3782.60
990.39	3811.27
990.55	3846.09
990.71	3794.89
990.87	3821.51
991.03	3811.27
991.19	3778.50
991.35	3778.50
991.51	3741.64
991.67	3893.19
991.83	3700.68
992.00	3702.73
992.16	3801.03
992.32	3780.55
992.48	3717.06
992.64	3700.68
992.80	3715.02
992.96	3682.25
993.12	3680.20
993.28	3721.16
993.44	3616.71
993.60	3651.53
993.76	3743.69
993.92	3561.42
994.08	3637.19
994.24	3667.91
994.40	3534.79
994.56	3626.95
994.72	3499.98
994.88	3676.10
995.04	3567.56
995.20	3481.55
995.36	3489.74
995.52	3516.36
995.68	3432.40
995.84	3479.50
996.00	3510.22
996.16	3522.51
996.32	3512.27
996.48	3416.01
996.64	3583.95
996.80	3391.44
996.96	3428.30
997.12	3510.22
997.28	3432.40
997.44	3321.81
997.60	3444.68
997.76	3385.29
997.92	3381.20
998.08	3401.68
998.24	3422.16
998.40	3375.05
998.56	3440.59
998.72	3276.75
998.88	3243.98
999.04	3379.15
999.20	3395.53
999.36	3311.57
999.52	3532.75
999.68	3299.28
999.84	3327.95
1000.00	3260.37
1000.16	3385.29
1000.32	3311.57
1000.48	3366.86
1000.64	3188.69
1000.80	3174.35
1000.95	3174.35
1001.11	3223.50
1001.27	3131.34
1001.43	3239.89
1001.59	3200.98
1001.75	3186.64
1001.91	3131.34
1002.07	3205.07
1002.23	3164.11
1002.39	3198.93
1002.55	3047.38
1002.71	3129.30
1002.87	3192.78
1003.03	3043.28
1003.19	3098.58
1003.34	3241.93
1003.50	3094.48
1003.66	3102.67
1003.82	3127.25
1003.98	2981.84
1004.14	3092.43
1004.30	3082.19
1004.46	2967.51
1004.62	3055.57
1004.78	2977.75
1004.94	3098.58
1005.09	3098.58
1005.25	3000.27
1005.41	3063.76
1005.57	3022.80
1005.73	3121.10
1005.89	2906.07
1006.05	3004.37
1006.21	3065.81
1006.37	2893.78
1006.52	2912.21
1006.68	2818.00
1006.84	3043.28
1007.00	3016.66
1007.16	2969.55
1007.32	2895.83
1007.48	2918.36
1007.64	2838.48
1007.79	2910.16
1007.95	2803.67
1008.11	2951.12
1008.27	2873.30
1008.43	2877.40
1008.59	2852.82
1008.75	2877.40
1008.91	2912.21
1009.06	2772.95
1009.22	2951.12
1009.38	2877.40
1009.54	2799.57
1009.70	2822.10
1009.86	2861.01
1010.01	2889.68
1010.17	2707.41
1010.33	2924.50
1010.49	2752.47
1010.65	2756.57
1010.81	2691.03
1010.96	2772.95
1011.12	2676.70
1011.28	2672.60
1011.44	2775.00
1011.60	2721.75
1011.76	2654.17
1011.91	2822.10
1012.07	2693.08
1012.23	2617.30
1012.39	2678.74
1012.55	2705.37
1012.71	2684.89
1012.86	2650.07
1013.02	2613.21
1013.18	2521.05
1013.34	2639.83
1013.50	2590.68
1013.65	2631.64
1013.81	2633.69
1013.97	2541.53
1014.13	2615.26
1014.29	2688.98
1014.44	2738.13
1014.60	2514.91
1014.76	2496.47
1014.92	2523.10
1015.07	2633.69
1015.23	2598.87
1015.39	2572.25
1015.55	2559.96
1015.71	2605.02
1015.86	2594.78
1016.02	2547.67
1016.18	2441.18
1016.34	2519.00
1016.49	2557.91
1016.65	2547.67
1016.81	2443.23
1016.97	2519.00
1017.12	2478.04
1017.28	2414.56
1017.44	2467.80
1017.60	2516.95
1017.75	2449.37
1017.91	2451.42
1018.07	2488.28
1018.23	2521.05
1018.38	2383.84
1018.54	2408.41
1018.70	2435.03
1018.86	2445.27
1019.01	2349.02
1019.17	2365.40
1019.33	2551.77
1019.49	2449.37
1019.64	2404.32
1019.80	2445.27
1019.96	2516.95
1020.12	2351.07
1020.27	2367.45
1020.43	2478.04
1020.59	2387.93
1020.74	2310.11
1020.90	2398.17
1021.06	2287.58
1021.22	2365.40
1021.37	2301.92
1021.53	2312.16
1021.69	2308.06
1021.84	2324.44
1022.00	2326.49
1022.16	2383.84
1022.31	2240.48
1022.47	2351.07
1022.63	2295.77
1022.79	2211.81
1022.94	2283.49
1023.10	2320.35
1023.26	2283.49
1023.41	2281.44
1023.57	2230.24
1023.73	2346.97
1023.88	2279.39
1024.04	2230.24
1024.20	2213.85
1024.35	2277.34
1024.51	2297.82
1024.67	2230.24
1024.82	2314.20
1024.98	2197.47
1025.14	2252.77
1025.29	2238.43
1025.45	2285.53
1025.61	2168.80
1025.76	2215.90
1025.92	2226.14
1026.08	2283.49
1026.23	2228.19
1026.39	2250.72
1026.55	2187.23
1026.70	2154.46
1026.86	2195.42
1027.02	2285.53
1027.17	2242.53
1027.33	2248.67
1027.48	2123.74
1027.64	2195.42
1027.80	2136.03
1027.95	2174.94
1028.11	2136.03
1028.27	2168.80
1028.42	2109.41
1028.58	2117.60
1028.73	2086.88
1028.89	2017.25
1029.05	2234.33
1029.20	2125.79
>>>>>End Processed Spectral Data<<<<<
