SpectraSuite Data File
++++++++++++++++++++++++++++++++++++
Date: Fri Jun 02 14:51:12 CEST 2017
User: INFO_000
Dark Spectrum Present: No
Reference Spectrum Present: No
Number of Sampled Component Spectra: 1
Spectrometers: USB4H00879
Integration Time (usec): 80000 (USB4H00879)
Spectra Averaged: 1 (USB4H00879)
Boxcar Smoothing: 0 (USB4H00879)
Correct for Electrical Dark: No (USB4H00879)
Strobe/Lamp Enabled: No (USB4H00879)
Correct for Detector Non-linearity: No (USB4H00879)
Correct for Stray Light: No (USB4H00879)
Number of Pixels in Processed Spectrum: 3648
>>>>>Begin Processed Spectral Data<<<<<
345.13	1300.46
345.34	1300.46
345.56	1300.46
345.78	1290.22
345.99	1286.12
346.21	1675.24
346.42	1685.48
346.64	1558.50
346.86	1839.08
347.07	1689.57
347.29	1781.73
347.50	1679.33
347.72	1720.29
347.94	1789.92
348.15	1552.36
348.37	1646.57
348.59	1736.68
348.80	1701.86
349.02	1759.21
349.23	1863.65
349.45	1798.12
349.67	1800.16
349.88	1863.65
350.10	1941.47
350.31	1875.94
350.53	1757.16
350.75	1951.71
350.96	1814.50
351.18	1843.17
351.39	1875.94
351.61	1738.73
351.82	1904.61
352.04	1937.38
352.26	1888.23
352.47	1941.47
352.69	1955.81
352.90	1742.82
353.12	1937.38
353.34	1849.32
353.55	1898.47
353.77	1841.12
353.98	1884.13
354.20	1800.16
354.41	1894.37
354.63	1931.23
354.85	2045.92
355.06	1929.19
355.28	1730.53
355.49	1810.40
355.71	1900.52
355.92	1923.04
356.14	1949.67
356.35	1886.18
356.57	1906.66
356.79	1908.71
357.00	1908.71
357.22	1978.34
357.43	1855.46
357.65	1957.86
357.86	1849.32
358.08	1912.80
358.29	1920.99
358.51	1925.09
358.72	2009.06
358.94	1937.38
359.16	1925.09
359.37	1933.28
359.59	1959.91
359.80	1982.43
360.02	1894.37
360.23	1988.58
360.45	2000.87
360.66	1929.19
360.88	1918.95
361.09	1978.34
361.31	1978.34
361.52	1941.47
361.74	2021.35
361.95	2080.74
362.17	1972.19
362.38	2039.78
362.60	2047.97
362.81	1992.67
363.03	1912.80
363.24	1966.05
363.46	2021.35
363.67	2090.98
363.89	2000.87
364.10	2017.25
364.32	1957.86
364.53	2068.45
364.75	1861.60
364.96	2033.63
365.18	2113.50
365.39	1941.47
365.61	1978.34
365.82	2115.55
366.04	1949.67
366.25	1855.46
366.47	1994.72
366.68	2054.11
366.90	1959.91
367.11	2058.21
367.33	2105.31
367.54	2123.74
367.76	2017.25
367.97	2127.84
368.19	2076.64
368.40	2058.21
368.62	1970.15
368.83	1994.72
369.05	2105.31
369.26	1931.23
369.48	1925.09
369.69	1994.72
369.91	2084.83
370.12	1873.89
370.33	2068.45
370.55	1970.15
370.76	2076.64
370.98	2119.65
371.19	2039.78
371.41	2068.45
371.62	2142.18
371.84	2015.20
372.05	2199.52
372.27	2107.36
372.48	2031.58
372.69	2174.94
372.91	2166.75
373.12	2107.36
373.34	2056.16
373.55	2109.41
373.77	2166.75
373.98	2076.64
374.20	2146.27
374.41	2205.66
374.62	2232.29
374.84	2127.84
375.05	2133.98
375.27	2062.30
375.48	2154.46
375.70	2164.70
375.91	2220.00
376.12	2318.30
376.34	2009.06
376.55	2193.37
376.77	2199.52
376.98	2117.60
377.19	2115.55
377.41	2207.71
377.62	2271.20
377.84	2252.77
378.05	2308.06
378.27	2244.57
378.48	2353.12
378.69	2387.93
378.91	2344.92
379.12	2238.43
379.34	2187.23
379.55	2346.97
379.76	2289.63
379.98	2263.01
380.19	2334.68
380.41	2193.37
380.62	2256.86
380.83	2222.05
381.05	2242.53
381.26	2404.32
381.47	2232.29
381.69	2187.23
381.90	2334.68
382.12	2359.26
382.33	2248.67
382.54	2326.49
382.76	2306.01
382.97	2285.53
383.19	2312.16
383.40	2338.78
383.61	2328.54
383.83	2295.77
384.04	2330.59
384.25	2439.13
384.47	2424.80
384.68	2340.83
384.89	2277.34
385.11	2389.98
385.32	2349.02
385.54	2369.50
385.75	2289.63
385.96	2437.08
386.18	2371.55
386.39	2432.99
386.60	2330.59
386.82	2353.12
387.03	2443.23
387.24	2428.89
387.46	2389.98
387.67	2537.43
387.88	2451.42
388.10	2465.75
388.31	2383.84
388.52	2609.11
388.74	2525.15
388.95	2508.76
389.16	2441.18
389.38	2445.27
389.59	2533.34
389.80	2637.78
390.02	2531.29
390.23	2629.59
390.44	2576.34
390.66	2473.95
390.87	2539.48
391.08	2672.60
391.30	2678.74
391.51	2621.40
391.72	2611.16
391.94	2674.65
392.15	2662.36
392.36	2543.58
392.58	2598.87
392.79	2678.74
393.00	2643.93
393.22	2695.13
393.43	2750.42
393.64	2807.77
393.85	2734.04
394.07	2731.99
394.28	2672.60
394.49	2736.09
394.71	2707.41
394.92	2723.80
395.13	2645.98
395.35	2719.70
395.56	2754.52
395.77	2688.98
395.98	2760.66
396.20	2811.86
396.41	2899.92
396.62	2830.29
396.84	2828.24
397.05	2883.54
397.26	2869.20
397.47	3030.99
397.69	2699.22
397.90	2973.65
398.11	2895.83
398.32	2809.81
398.54	2838.48
398.75	2938.84
398.96	2881.49
399.18	3080.14
399.39	2930.64
399.60	2930.64
399.81	2957.27
400.03	2936.79
400.24	3194.83
400.45	2936.79
400.66	3022.80
400.88	2928.60
401.09	3108.82
401.30	2996.18
401.51	3198.93
401.73	3106.77
401.94	3108.82
402.15	3084.24
402.36	3100.62
402.58	3100.62
402.79	2977.75
403.00	3246.03
403.21	3205.07
403.43	3227.60
403.64	3317.71
403.85	3123.15
404.06	3211.22
404.27	3037.14
404.49	3229.65
404.70	3051.47
404.91	3219.41
405.12	3237.84
405.34	3225.55
405.55	3223.50
405.76	3082.19
405.97	3227.60
406.19	3276.75
406.40	3133.39
406.61	3362.76
406.82	3276.75
407.03	3303.37
407.25	3262.41
407.46	3422.16
407.67	3360.72
407.88	3502.03
408.09	3444.68
408.31	3366.86
408.52	3299.28
408.73	3286.99
408.94	3319.76
409.15	3459.02
409.37	3344.33
409.58	3432.40
409.79	3485.64
410.00	3409.87
410.21	3354.57
410.43	3491.79
410.64	3379.15
410.85	3465.16
411.06	3520.46
411.27	3555.27
411.48	3624.90
411.70	3475.40
411.91	3522.51
412.12	3536.84
412.33	3559.37
412.54	3577.80
412.76	3581.90
412.97	3678.15
413.18	3471.31
413.39	3561.42
413.60	3700.68
413.81	3551.18
414.03	3590.09
414.24	3618.76
414.45	3848.13
414.66	3598.28
414.87	3708.87
415.08	3686.34
415.30	3606.47
415.51	3708.87
415.72	3749.83
415.93	3674.06
416.14	3631.05
416.35	3844.04
416.56	3794.89
416.78	3819.46
416.99	3758.02
417.20	3852.23
417.41	3960.77
417.62	3874.76
417.83	3981.25
418.04	3807.17
418.26	3831.75
418.47	3895.24
418.68	3928.00
418.89	3964.87
419.10	4050.88
419.31	4016.07
419.52	4028.35
419.73	4003.78
419.95	4083.65
420.16	3973.06
420.37	3954.63
420.58	4001.73
420.79	3928.00
421.00	4147.14
421.21	4048.83
421.42	4001.73
421.63	4057.03
421.85	4048.83
422.06	4157.38
422.27	4286.40
422.48	4036.55
422.69	4151.23
422.90	4097.99
423.11	4241.34
423.32	4265.92
423.53	4337.60
423.75	4163.52
423.96	4376.51
424.17	4423.61
424.38	4548.54
424.59	4376.51
424.80	4495.29
425.01	4442.04
425.22	4411.32
425.43	4390.84
425.64	4573.11
425.85	4585.40
426.06	4534.20
426.28	4505.53
426.49	4394.94
426.70	4378.56
426.91	4513.72
427.12	4777.91
427.33	4581.31
427.54	4620.22
427.75	4755.38
427.96	4712.38
428.17	4566.97
428.38	4851.64
428.59	4726.71
428.80	4761.53
429.01	4775.86
429.23	4806.58
429.44	4861.88
429.65	4882.36
429.86	4822.97
430.07	4829.11
430.28	4951.99
430.49	4968.37
430.70	5111.73
430.91	5009.33
431.12	4900.79
431.33	5078.96
431.54	4929.46
431.75	5117.87
431.96	5033.91
432.17	5105.59
432.38	5058.48
432.59	5312.43
432.80	5210.03
433.01	5318.57
433.22	5236.66
433.43	5306.29
433.64	5238.70
433.85	5083.06
434.06	5373.87
434.27	5111.73
434.49	5334.96
434.70	5468.08
434.91	5330.86
435.12	5463.98
435.33	5359.53
435.54	5476.27
435.75	5365.68
435.96	5291.95
436.17	5332.91
436.38	5457.84
436.59	5447.60
436.80	5451.69
437.01	5762.98
437.22	5785.51
437.43	5674.92
437.64	5431.21
437.85	5724.07
438.06	5689.26
438.27	5609.39
438.48	5676.97
438.69	5683.11
438.90	5697.45
439.11	5611.43
439.32	5775.27
439.53	5668.78
439.74	5828.52
439.95	5849.00
440.16	5799.85
440.37	5746.60
440.57	5767.08
440.78	5957.54
440.99	5963.68
441.20	5900.20
441.41	5789.61
441.62	5994.40
441.83	5826.47
442.04	5975.97
442.25	6023.08
442.46	6008.74
442.67	6186.91
442.88	6328.22
443.09	6082.47
443.30	6082.47
443.51	6293.41
443.72	6334.37
443.93	6154.15
444.14	6352.80
444.35	6131.62
444.56	6328.22
444.77	6143.91
444.98	6385.57
445.19	6264.74
445.40	6342.56
445.61	6215.59
445.81	6485.92
446.02	6541.21
446.23	6420.38
446.44	6414.24
446.65	6463.39
446.86	6522.78
447.07	6442.91
447.28	6651.80
447.49	6643.61
447.70	6551.45
447.91	6594.46
448.12	6565.79
448.33	6696.86
448.54	6801.30
448.74	6604.70
448.95	6635.42
449.16	6614.94
449.37	6920.09
449.58	6686.62
449.79	7161.75
450.00	6629.27
450.21	6877.08
450.42	7061.40
450.63	7067.54
450.84	6825.88
451.05	6899.61
451.25	6897.56
451.46	6952.85
451.67	7155.60
451.88	7085.97
452.09	7112.60
452.30	6973.33
452.51	7106.45
452.72	7323.54
452.93	7466.89
453.13	7008.15
453.34	7092.12
453.55	7147.41
453.76	7180.18
453.97	7423.89
454.18	7440.27
454.39	7530.38
454.60	7491.47
454.81	7335.82
455.01	7626.64
455.22	7305.10
455.43	7722.89
455.64	7669.64
455.85	7681.93
456.06	7860.10
456.27	7700.36
456.48	7567.24
456.68	7741.32
456.89	7786.38
457.10	7939.97
457.31	7774.09
457.52	7821.19
457.73	7970.69
457.94	8177.54
458.14	7896.97
458.35	8236.93
458.56	8116.10
458.77	7942.02
458.98	8349.57
459.19	8372.10
459.39	8357.76
459.60	8451.97
459.81	8210.31
460.02	8564.61
460.23	8583.04
460.44	8753.02
460.65	8546.17
460.85	8494.97
461.06	8744.83
461.27	8613.76
461.48	8781.69
461.69	8894.33
461.89	8580.99
462.10	8910.71
462.31	8789.88
462.52	8791.93
462.73	8882.04
462.94	9023.35
463.14	9095.03
463.35	8832.89
463.56	9193.33
463.77	9168.76
463.98	8894.33
464.18	9320.31
464.39	9379.70
464.60	9375.60
464.81	9348.98
465.02	9301.87
465.23	9572.21
465.43	9498.48
465.64	9684.84
465.85	9736.04
466.06	9570.16
466.27	9934.70
466.47	9850.73
466.68	9887.59
466.89	9791.34
467.10	10063.72
467.30	9875.31
467.51	10147.69
467.72	10461.02
467.93	9908.07
468.14	10407.78
468.34	10321.76
468.55	10493.79
468.76	10385.25
468.97	10145.64
469.17	10606.43
469.38	10841.95
469.59	10747.74
469.80	10481.50
470.01	10792.80
470.21	10880.86
470.42	10905.43
470.63	10942.30
470.84	10727.26
471.04	11298.64
471.25	11169.62
471.46	11255.64
471.67	11620.17
471.87	11183.96
472.08	11310.93
472.29	11755.34
472.50	11276.12
472.70	11675.47
472.91	11538.26
473.12	11700.05
473.33	11890.51
473.53	12072.78
473.74	11976.52
473.95	12242.76
474.16	12326.72
474.36	12021.58
474.57	12316.48
474.78	12504.90
474.99	12431.17
475.19	12162.89
475.40	12713.79
475.61	12762.94
475.81	12961.59
476.02	13334.32
476.23	12922.68
476.44	13070.14
476.64	13436.72
476.85	13444.91
477.06	13338.42
477.27	13696.82
477.47	13522.74
477.68	13762.35
477.89	13737.77
478.09	13670.19
478.30	13911.85
478.51	13936.43
478.71	14083.88
478.92	14286.63
479.13	14061.35
479.34	14223.14
479.54	14389.03
479.75	14415.65
479.96	14673.70
480.16	14522.15
480.37	14712.61
480.58	15021.85
480.78	14925.60
480.99	15052.57
481.20	15079.19
481.41	15019.80
481.61	15367.96
481.82	15666.96
482.03	15435.54
482.23	15316.76
482.44	15576.85
482.65	15853.33
482.85	15974.16
483.06	15863.57
483.27	16047.88
483.47	15939.34
483.68	16264.97
483.89	16166.67
484.09	16342.79
484.30	16488.20
484.51	16512.77
484.71	16740.10
484.92	16826.11
485.13	16920.32
485.33	16967.42
485.54	16985.85
485.75	17182.46
485.95	17082.11
486.16	17440.50
486.37	17542.90
486.57	17432.31
486.78	17542.90
486.98	17377.01
487.19	17786.61
487.40	17882.86
487.60	17852.14
487.81	18175.72
488.02	18079.47
488.22	17993.45
488.43	18468.58
488.64	18540.26
488.84	18497.25
489.05	18771.68
489.25	18419.43
489.46	18804.45
489.67	18736.87
489.87	19039.97
490.08	18757.35
490.29	19156.70
490.49	19480.28
490.70	19164.89
490.90	19570.39
491.11	19433.18
491.32	19492.57
491.52	19723.99
491.73	19580.63
491.94	19756.75
492.14	19775.19
492.35	20135.63
492.55	19908.30
492.76	20270.79
492.97	20414.15
493.17	20463.30
493.38	20428.49
493.58	20778.69
493.79	20522.69
494.00	20645.57
494.20	20590.28
494.41	20864.71
494.61	21192.38
494.82	21077.69
495.02	21044.93
495.23	21006.02
495.44	21343.93
495.64	21302.97
495.85	21225.15
496.05	21718.71
496.26	21268.16
496.47	21929.65
496.67	21442.23
496.88	22019.76
497.08	21552.82
497.29	21974.70
497.49	22046.38
497.70	22265.52
497.91	22128.30
498.11	22138.54
498.32	22400.68
498.52	22341.29
498.73	22662.82
498.93	22482.60
499.14	22783.65
499.34	22562.47
499.55	22709.93
499.76	22929.06
499.96	22986.40
500.17	23127.71
500.37	23031.46
500.58	23191.20
500.78	23246.49
500.99	23291.55
501.19	23314.08
501.40	23486.11
501.60	23348.89
501.81	23617.18
502.02	23439.00
502.22	23445.15
502.43	23811.73
502.63	23842.45
502.84	24270.48
503.04	23912.08
503.25	24123.02
503.45	24139.41
503.66	24395.40
503.86	24311.44
504.07	24651.40
504.27	24098.45
504.48	24667.78
504.68	24387.21
504.89	24405.64
505.09	24555.15
505.30	24825.48
505.50	24694.41
505.71	24979.07
505.91	24960.64
506.12	24788.61
506.32	24686.22
506.53	25081.47
506.73	25247.36
506.94	25400.96
507.14	25239.17
507.35	25331.33
507.55	25306.75
507.76	25448.06
507.96	25132.67
508.17	25327.23
508.37	25251.45
508.58	25765.49
508.78	25843.32
508.99	25673.34
509.19	25853.56
509.40	25865.85
509.60	26211.95
509.81	26164.85
510.01	26119.79
510.22	26046.07
510.42	26064.50
510.63	26314.35
510.83	26179.18
511.04	26291.82
511.24	26621.55
511.44	26089.07
511.65	26541.68
511.85	26457.71
512.06	26689.13
512.26	26584.68
512.47	26846.82
512.67	26814.05
512.88	26650.22
513.08	26547.82
513.29	27018.85
513.49	26523.24
513.69	26816.10
513.90	27237.98
514.10	27041.38
514.31	26832.49
514.51	27276.90
514.72	27147.87
514.92	27412.06
515.13	27416.16
515.33	27653.72
515.53	27678.30
515.74	27653.72
515.94	27752.02
516.15	27442.78
516.35	27635.29
516.56	27905.62
516.76	27897.43
516.96	27657.82
517.17	28137.04
517.37	27754.07
517.58	27965.01
517.78	28198.48
517.99	28112.47
518.19	28196.43
518.39	28255.82
518.60	28798.54
518.80	28583.50
519.01	28489.29
519.21	28296.78
519.41	28436.05
519.62	28200.53
519.82	28833.35
520.03	29095.49
520.23	28788.30
520.43	29103.68
520.64	29392.45
520.84	29177.41
521.05	29158.98
521.25	29410.88
521.45	29179.46
521.66	29855.29
521.86	29503.04
522.07	29503.04
522.27	29574.72
522.47	29537.85
522.68	29720.12
522.88	29494.85
523.08	30363.18
523.29	30070.33
523.49	29896.25
523.70	29953.59
523.90	30365.23
524.10	30342.70
524.31	30555.69
524.51	30381.62
524.71	31110.69
524.92	30649.90
525.12	30398.00
525.33	30787.11
525.53	30948.90
525.73	30905.90
525.94	30879.27
526.14	30817.83
526.34	31110.69
526.55	31450.66
526.75	31133.22
526.95	31581.73
527.16	31673.88
527.36	31413.79
527.56	31700.51
527.77	31970.84
527.97	31413.79
528.17	31768.09
528.38	32153.11
528.58	31823.39
528.78	32271.89
528.99	32263.70
529.19	32433.68
529.39	32155.16
529.60	32529.94
529.80	32337.43
530.00	32491.02
530.21	32871.95
530.41	33039.88
530.61	32724.49
530.82	32765.45
531.02	32767.50
531.22	32990.73
531.43	33205.77
531.63	33570.30
531.83	33592.83
532.04	33932.79
532.24	33318.40
532.44	33945.08
532.64	33766.91
532.85	33889.79
533.05	33916.41
533.25	33936.89
533.46	34067.96
533.66	34485.75
533.86	34162.17
534.07	35110.38
534.27	34643.44
534.47	34723.31
534.67	34921.96
534.88	34616.82
535.08	34690.54
535.28	34936.30
535.49	34874.86
535.69	35315.17
535.89	35243.49
536.09	35831.26
536.30	35730.91
536.50	35601.89
536.70	35546.59
536.91	35499.49
537.11	35730.91
537.31	35997.15
537.51	35816.93
537.72	35925.47
537.92	36308.44
538.12	36730.32
538.32	36464.08
538.53	36722.13
538.73	36363.73
538.93	36457.94
539.13	36789.71
539.34	36773.33
539.54	36367.83
539.74	37002.70
539.94	36781.52
540.15	36513.23
540.35	36793.81
540.55	36926.92
540.75	37332.42
540.96	37397.96
541.16	37064.14
541.36	37467.59
541.56	37531.08
541.77	37508.55
541.97	37635.52
542.17	37705.15
542.37	37780.93
542.58	37686.72
542.78	37914.05
542.98	37983.68
543.18	38397.37
543.38	38880.69
543.59	38385.08
543.79	38170.04
543.99	38315.45
544.19	38593.97
544.40	38215.10
544.60	38831.54
544.80	38409.65
545.00	38636.98
545.20	39048.62
545.41	38579.64
545.61	38868.40
545.81	39079.34
546.01	39271.85
546.21	38817.20
546.42	38917.55
546.62	38985.13
546.82	39130.54
547.02	39308.71
547.22	39802.27
547.43	39308.71
547.63	39634.34
547.83	39736.74
548.03	39458.21
548.23	39896.48
548.44	39495.08
548.64	39822.75
548.84	39810.46
549.04	39847.33
549.24	40179.10
549.45	40088.99
549.65	40033.69
549.85	40293.79
550.05	40236.44
550.25	40056.22
550.45	40627.60
550.66	40289.69
550.86	40080.80
551.06	40693.14
551.26	40816.02
551.46	40727.95
551.66	40605.08
551.87	40617.36
552.07	40588.69
552.27	40975.76
552.47	40838.54
552.67	41207.18
552.87	40934.80
553.07	41088.40
553.28	40977.81
553.48	41338.25
553.68	41039.25
553.88	41821.57
554.08	40924.56
554.28	41086.35
554.48	41377.16
554.69	41356.68
554.89	41411.98
555.09	41278.86
555.29	41321.87
555.49	41627.01
555.69	41639.30
555.89	41469.32
556.10	41502.09
556.30	41530.76
556.50	42081.66
556.70	41807.23
556.90	42057.09
557.10	41985.41
557.30	41852.29
557.50	41809.28
557.70	42362.23
557.91	42448.25
558.11	42026.37
558.31	42392.95
558.51	42255.74
558.71	42610.04
558.91	42788.21
559.11	42540.41
559.31	42462.58
559.51	42386.81
559.72	42673.52
559.92	42462.58
560.12	41999.74
560.32	42679.67
560.52	42581.37
560.72	42775.92
560.92	42681.72
561.12	42911.09
561.32	42820.98
561.52	42730.87
561.72	43365.74
561.93	42894.71
562.13	43298.16
562.33	42710.39
562.53	43300.20
562.73	42982.77
562.93	43249.00
563.13	43132.27
563.33	43367.79
563.53	43148.65
563.73	43318.64
563.93	43109.74
564.13	43871.59
564.33	43423.08
564.53	43296.11
564.74	43410.79
564.94	43439.47
565.14	43296.11
565.34	43351.40
565.54	43586.92
565.74	43234.67
565.94	43963.75
566.14	43607.40
566.34	43539.82
566.54	44176.73
566.74	43726.18
566.94	43789.67
567.14	44275.04
567.34	43996.51
567.54	44076.38
567.74	44213.60
567.94	43816.29
568.14	44260.70
568.34	44479.83
568.54	44229.98
568.74	44621.14
568.94	43973.98
569.14	44252.51
569.34	44610.90
569.54	44428.63
569.75	43818.34
569.95	44684.63
570.15	44803.41
570.35	44569.94
570.55	44330.33
570.75	44604.76
570.95	44715.35
571.15	44707.16
571.35	44653.91
571.55	44856.66
571.75	44858.71
571.95	44672.34
572.15	44528.98
572.35	45184.33
572.55	45071.70
572.75	45294.92
572.95	44973.39
573.15	45014.35
573.35	45094.22
573.55	44934.48
573.75	45040.98
573.95	45374.80
574.15	45108.56
574.35	45313.36
574.55	45018.45
574.75	45047.12
574.95	45548.87
575.15	45684.04
575.34	45659.46
575.54	45618.50
575.74	45794.63
575.94	45661.51
576.14	45800.77
576.34	46503.23
576.54	46126.40
576.74	45798.73
576.94	46142.78
577.14	46101.82
577.34	46361.92
577.54	45925.70
577.74	46034.24
577.94	46538.04
578.14	46576.95
578.34	46433.60
578.54	45661.51
578.74	46042.43
578.94	46865.72
579.14	46013.76
579.34	46509.37
579.54	46654.78
579.74	46685.50
579.94	47056.18
580.13	47125.81
580.33	47101.23
580.53	47043.89
580.73	47095.09
580.93	47086.90
581.13	47240.50
581.33	47592.75
581.53	47441.20
581.73	47101.23
581.93	47570.22
582.13	47127.86
582.33	47531.31
582.53	47586.60
582.73	47301.93
582.92	47641.90
583.12	47826.21
583.32	47525.16
583.52	47326.51
583.72	47594.79
583.92	47625.51
584.12	48063.78
584.32	48315.68
584.52	47951.14
584.72	48164.13
584.92	48147.75
585.11	48651.55
585.31	48043.30
585.51	48266.53
585.71	47854.89
585.91	48776.47
586.11	48299.30
586.31	47904.04
586.51	48583.96
586.71	48545.05
586.91	48514.33
587.10	48665.88
587.30	48690.46
587.50	49202.45
587.70	48510.24
587.90	49026.32
588.10	48850.20
588.30	48844.05
588.50	49214.74
588.69	49063.19
588.89	48889.11
589.09	49368.33
589.29	49399.05
589.49	49872.14
589.69	48919.83
589.89	49179.92
590.08	49431.82
590.28	49290.51
590.48	49472.78
590.68	49190.16
590.88	49689.87
591.08	49384.72
591.28	49290.51
591.47	49530.12
591.67	49708.30
591.87	49374.48
592.07	49861.90
592.27	49726.73
592.47	49906.95
592.67	49906.95
592.86	49724.68
593.06	50175.23
593.26	49855.75
593.46	49861.90
593.66	50439.42
593.86	50189.57
594.05	50271.49
594.25	50287.87
594.45	50009.35
594.65	50351.36
594.85	50304.26
595.05	50638.08
595.24	50656.51
595.44	50459.90
595.64	50646.27
595.84	50414.85
596.04	50464.00
596.23	50734.33
596.43	50951.41
596.63	50298.11
596.83	50943.22
597.03	51361.01
597.22	51412.21
597.42	51068.15
597.62	50820.34
597.82	50871.54
598.02	51256.56
598.21	51490.03
598.41	51152.12
598.61	51414.26
598.81	51545.33
599.01	51952.87
599.20	51574.00
599.40	51182.84
599.60	51414.26
599.80	51258.61
600.00	51709.16
600.19	51999.97
600.39	51346.67
600.59	51850.47
600.79	51692.78
600.98	51846.38
601.18	51649.77
601.38	52317.41
601.58	52747.48
601.78	51999.97
601.97	52485.34
602.17	52849.88
602.37	52579.55
602.57	52436.19
602.76	52497.63
602.96	52376.80
603.16	52681.95
603.36	52360.42
603.55	52528.35
603.75	52653.28
603.95	53081.30
604.15	52909.27
604.34	52643.04
604.54	52923.61
604.74	53003.48
604.94	53279.96
605.13	53222.61
605.33	53083.35
605.53	52698.33
605.73	53232.85
605.92	53165.27
606.12	53570.77
606.32	53441.74
606.52	53165.27
606.71	53644.49
606.91	53316.82
607.11	53599.44
607.30	53546.19
607.50	53791.95
607.70	53576.91
607.90	53615.82
608.09	53798.09
608.29	53959.88
608.49	53892.30
608.68	54105.29
608.88	54197.44
609.08	54172.87
609.28	54172.87
609.47	53779.66
609.67	54047.94
609.87	53726.41
610.06	53961.93
610.26	54277.32
610.46	53998.79
610.66	53900.49
610.85	54148.29
611.05	54039.75
611.25	54838.46
611.44	54138.05
611.64	54293.70
611.84	54021.32
612.03	53748.94
612.23	54379.71
612.43	54285.51
612.62	54328.52
612.82	54658.24
613.02	53781.71
613.21	54643.90
613.41	54260.93
613.61	54697.15
613.80	54111.43
614.00	54326.47
614.20	54328.52
614.39	54023.37
614.59	54785.21
614.79	54056.14
614.98	54449.35
615.18	54615.23
615.38	54813.88
615.57	54285.51
615.77	54535.36
615.97	54727.87
616.16	54482.11
616.36	54766.78
616.56	54680.77
616.75	54611.13
616.95	54510.78
617.15	54764.73
617.34	54480.06
617.54	54410.43
617.74	54768.83
617.93	55063.74
618.13	54670.53
618.32	54469.82
618.52	54709.44
618.72	54674.62
618.91	54578.37
619.11	54787.26
619.31	54353.09
619.50	55061.69
619.70	54641.85
619.90	54805.69
620.09	55254.20
620.29	54815.93
620.48	54359.23
620.68	55016.63
620.88	54342.85
621.07	54619.33
621.27	54645.95
621.46	54328.52
621.66	54506.69
621.86	54869.18
622.05	54604.99
622.25	54686.91
622.44	54625.47
622.64	54361.28
622.84	54641.85
623.03	54334.66
623.23	54447.30
623.42	54586.56
623.62	54789.31
623.82	54635.71
624.01	55014.58
624.21	55039.16
624.40	54893.75
624.60	54736.06
624.80	54502.59
624.99	54551.74
625.19	54482.11
625.38	54824.12
625.58	54987.96
625.77	55116.98
625.97	54715.58
626.17	54688.96
626.36	54996.15
626.56	54828.22
626.75	54514.88
626.95	55182.52
627.14	54842.56
627.34	54860.99
627.54	54912.19
627.73	54752.44
627.93	54965.43
628.12	54574.27
628.32	54860.99
628.51	54641.85
628.71	54879.42
628.90	54854.84
629.10	54561.98
629.30	54832.32
629.49	54695.10
629.69	54871.23
629.88	54416.58
630.08	54961.34
630.27	54858.94
630.47	55108.79
630.66	54650.05
630.86	55100.60
631.05	54365.38
631.25	54824.12
631.44	55098.55
631.64	55311.54
631.84	54996.15
632.03	55207.09
632.23	54377.67
632.42	54996.15
632.62	54793.40
632.81	54568.13
633.01	54856.89
633.20	55186.61
633.40	55442.61
633.59	55366.84
633.79	54514.88
633.98	55145.65
634.18	55043.26
634.37	54768.83
634.57	54975.67
634.76	55080.12
634.96	55084.22
635.15	54891.71
635.35	54553.79
635.54	55010.49
635.74	55121.08
635.93	55137.46
636.13	55297.20
636.32	55243.96
636.52	54625.47
636.71	55366.84
636.91	55307.44
637.10	54805.69
637.30	55147.70
637.49	55305.40
637.69	55096.50
637.88	55813.29
638.08	54957.24
638.27	55403.70
638.46	54858.94
638.66	55250.10
638.85	54908.09
639.05	55344.31
639.24	55487.67
639.44	55047.35
639.63	55243.96
639.83	55850.16
640.02	55387.31
640.22	55186.61
640.41	55727.28
640.61	54877.37
640.80	55415.99
640.99	54893.75
641.19	55823.53
641.38	55512.24
641.58	55485.62
641.77	55424.18
641.97	55002.30
642.16	55827.63
642.36	55497.91
642.55	55831.72
642.74	55465.14
642.94	56108.20
643.13	55289.01
643.33	55661.74
643.52	56163.50
643.72	56048.81
643.91	55649.45
644.10	55362.74
644.30	55534.77
644.49	55596.21
644.69	55710.89
644.88	55614.64
645.08	55426.23
645.27	55344.31
645.46	55403.70
645.66	55737.52
645.85	55696.56
646.05	55616.69
646.24	55731.37
646.43	55596.21
646.63	56030.38
646.82	56196.26
647.02	55665.84
647.21	56276.13
647.40	55927.98
647.60	55964.84
647.79	56118.44
647.99	55891.12
648.18	55870.64
648.37	56339.62
648.57	56423.59
648.76	56292.52
648.96	55588.02
649.15	56460.45
649.34	56269.99
649.54	55991.47
649.73	56034.47
649.92	56415.40
650.12	56356.00
650.31	56405.16
650.51	56487.07
650.70	56540.32
650.89	56237.22
651.09	56540.32
651.28	56130.73
651.47	56800.41
651.67	56335.52
651.86	57066.65
652.06	55913.64
652.25	56521.89
652.44	56431.78
652.64	56308.90
652.83	56261.80
653.02	56482.98
653.22	56333.48
653.41	56202.41
653.60	56032.42
653.80	56439.97
653.99	56732.83
654.18	56317.09
654.38	56384.68
654.57	56497.31
654.76	56644.77
654.96	56435.87
655.15	56464.55
655.34	56151.21
655.54	56071.34
655.73	56284.33
655.92	56566.94
656.12	56220.84
656.31	56665.25
656.50	56523.94
656.70	56669.34
656.89	56104.10
657.08	56925.34
657.28	56521.89
657.47	56390.82
657.66	56583.33
657.86	56304.80
658.05	56573.09
658.24	56988.83
658.43	56437.92
658.63	57025.69
658.82	56845.47
659.01	56845.47
659.21	56886.43
659.40	56937.63
659.59	56446.11
659.79	56906.91
659.98	56947.87
660.17	56845.47
660.36	56661.15
660.56	57009.31
660.75	57181.34
660.94	56837.28
661.14	56589.47
661.33	56077.48
661.52	56300.71
661.71	57007.26
661.91	56300.71
662.10	56515.75
662.29	57359.51
662.49	56622.24
662.68	57140.38
662.87	57293.97
663.06	56997.02
663.26	56640.67
663.45	57201.82
663.64	57070.75
663.83	57396.37
664.03	56802.46
664.22	56706.21
664.41	56902.81
664.60	57080.98
664.80	56738.97
664.99	57040.03
665.18	56722.59
665.37	56630.43
665.57	57238.68
665.76	56927.39
665.95	57394.32
666.14	56964.25
666.34	57037.98
666.53	56812.70
666.72	57064.60
666.91	56306.85
667.11	56562.85
667.30	56960.15
667.49	56718.49
667.68	57357.46
667.87	56792.22
668.07	57025.69
668.26	57050.27
668.45	56632.48
668.64	56575.14
668.84	57140.38
669.03	56894.62
669.22	57113.75
669.41	57220.25
669.60	56806.56
669.80	56612.00
669.99	57220.25
670.18	56329.38
670.37	57156.76
670.57	57189.53
670.76	56734.88
670.95	57289.88
671.14	57136.28
671.33	56741.02
671.53	57154.71
671.72	56968.35
671.91	56743.07
672.10	56646.82
672.29	57250.97
672.48	57132.18
672.68	57175.19
672.87	56853.66
673.06	56571.04
673.25	56896.67
673.44	56519.84
673.64	56816.80
673.83	56710.30
674.02	56599.71
674.21	56515.75
674.40	56605.86
674.59	56343.72
674.79	56599.71
674.98	56290.47
675.17	56775.84
675.36	56378.53
675.55	57218.20
675.74	56540.32
675.94	56278.18
676.13	57228.44
676.32	56620.19
676.51	57263.25
676.70	56794.27
676.89	56868.00
677.08	57509.01
677.28	56685.73
677.47	56794.27
677.66	56884.38
677.85	56687.78
678.04	56763.55
678.23	56958.11
678.42	56976.54
678.62	56169.64
678.81	56824.99
679.00	56702.11
679.19	57466.00
679.38	56849.56
679.57	56349.86
679.76	55954.60
679.96	56673.44
680.15	56679.58
680.34	56403.11
680.53	56634.53
680.72	56796.32
680.91	56571.04
681.10	56349.86
681.29	56386.72
681.48	56048.81
681.68	56583.33
681.87	56349.86
682.06	56671.39
682.25	56321.19
682.44	56345.76
682.63	56540.32
682.82	55960.75
683.01	56100.01
683.20	56120.49
683.39	56607.90
683.59	56222.89
683.78	56003.75
683.97	56130.73
684.16	56632.48
684.35	55608.50
684.54	55811.24
684.73	56399.01
684.92	56032.42
685.11	56077.48
685.30	55991.47
685.49	56313.00
685.69	55717.04
685.88	56317.09
686.07	55958.70
686.26	55915.69
686.45	56304.80
686.64	56257.70
686.83	55934.12
687.02	55674.03
687.21	55973.03
687.40	55745.71
687.59	56054.95
687.78	55788.72
687.97	56241.32
688.16	56188.07
688.35	55860.40
688.54	55598.26
688.74	55776.43
688.93	55237.81
689.12	55712.94
689.31	56235.17
689.50	55833.77
689.69	55637.17
689.88	54985.91
690.07	55704.75
690.26	55375.03
690.45	55905.45
690.64	55796.91
690.83	55788.72
691.02	55071.93
691.21	55458.99
691.40	55583.92
691.59	55712.94
691.78	55764.14
691.97	55788.72
692.16	55461.04
692.35	55538.86
692.54	55194.81
692.73	55628.98
692.92	55076.02
693.11	55080.12
693.30	54781.12
693.49	55067.83
693.68	55235.77
693.87	55385.27
694.06	54758.59
694.25	55000.25
694.44	55002.30
694.63	55149.75
694.82	55397.55
695.01	55086.26
695.20	55346.36
695.39	55069.88
695.58	54998.20
695.77	55141.56
695.96	54604.99
696.15	55571.63
696.34	54615.23
696.53	54709.44
696.72	55295.16
696.91	55016.63
697.10	54830.27
697.29	54498.50
697.48	55235.77
697.67	54932.67
697.86	54555.84
698.05	54523.07
698.24	54875.32
698.43	54080.71
698.62	54652.09
698.81	54383.81
699.00	54830.27
699.19	54596.80
699.38	54555.84
699.57	54371.52
699.76	54863.03
699.95	54392.00
700.14	54123.72
700.32	54283.46
700.51	54262.98
700.70	54162.63
700.89	54469.82
701.08	54246.60
701.27	54471.87
701.46	54643.90
701.65	53986.50
701.84	54093.00
702.03	54318.28
702.22	54213.83
702.41	54015.18
702.60	54473.92
702.79	53794.00
702.98	53425.36
703.17	53970.12
703.35	53855.43
703.54	53720.27
703.73	53918.92
703.92	53558.48
704.11	53626.06
704.30	53363.92
704.49	53871.82
704.68	53769.42
704.87	53617.87
705.06	53863.63
705.25	53642.45
705.43	53660.88
705.62	53765.32
705.81	53427.41
706.00	53615.82
706.19	53155.03
706.38	53322.96
706.57	53621.97
706.76	52835.55
706.95	53126.36
707.14	53163.22
707.32	53081.30
707.51	52962.52
707.70	52778.20
707.89	53454.03
708.08	53032.15
708.27	53200.08
708.46	53499.09
708.65	53277.91
708.84	53494.99
709.02	52776.15
709.21	53181.65
709.40	53431.50
709.59	52923.61
709.78	52468.96
709.97	53007.58
710.16	52663.52
710.34	52858.07
710.53	53019.86
710.72	52886.74
710.91	52765.91
711.10	52894.94
711.29	53009.62
711.48	52382.94
711.66	52804.83
711.85	52874.46
712.04	52421.86
712.23	52411.62
712.42	52262.11
712.61	52225.25
712.80	52233.44
712.98	52372.70
713.17	52081.89
713.36	52511.97
713.55	51930.34
713.74	52442.34
713.93	52423.90
714.11	51860.71
714.30	51965.16
714.49	51459.31
714.68	52073.70
714.87	52055.27
715.06	52231.40
715.24	52102.37
715.43	51971.30
715.62	51852.52
715.81	51660.01
716.00	51944.68
716.18	51637.48
716.37	51391.73
716.56	51817.71
716.75	51821.80
716.94	51619.05
717.12	51369.20
717.31	51555.57
717.50	51502.32
717.69	51743.98
717.88	51610.86
718.06	51670.25
718.25	51801.32
718.44	51258.61
718.63	51250.42
718.82	50867.45
719.00	51113.20
719.19	51195.12
719.38	50982.13
719.57	50197.76
719.76	50296.06
719.94	50257.15
720.13	50803.96
720.32	50496.77
720.51	50730.23
720.69	50464.00
720.88	50545.92
721.07	50597.12
721.26	49990.92
721.44	50005.25
721.63	50513.15
721.82	50029.83
722.01	49759.50
722.20	50181.38
722.38	49882.37
722.57	49759.50
722.76	50074.88
722.95	50119.94
723.13	49683.72
723.32	49679.63
723.51	49818.89
723.70	49646.86
723.88	49878.28
724.07	49718.54
724.26	49341.71
724.44	48921.88
724.63	49179.92
724.82	49706.25
725.01	49544.46
725.19	49163.54
725.38	49222.93
725.57	48921.88
725.76	49423.63
725.94	48731.42
726.13	49167.63
726.32	49300.75
726.51	49155.35
726.69	49339.66
726.88	49304.85
727.07	48952.60
727.25	48938.26
727.44	49067.28
727.63	48870.68
727.82	49149.20
728.00	49063.19
728.19	48809.24
728.38	49321.23
728.56	48385.31
728.75	49005.84
728.94	48633.11
729.12	49267.98
729.31	48850.20
729.50	48755.99
729.69	48780.57
729.87	48928.02
730.06	48704.79
730.25	48872.73
730.43	49081.62
730.62	48692.50
730.81	49321.23
730.99	48905.49
731.18	48536.86
731.37	49034.52
731.55	49145.11
731.74	49149.20
731.93	48682.27
732.11	48708.89
732.30	49116.43
732.49	48551.20
732.67	48528.67
732.86	48616.73
733.05	48755.99
733.23	48624.92
733.42	48559.39
733.61	48452.89
733.79	48964.88
733.98	48858.39
734.17	48422.17
734.35	48962.84
734.54	48672.03
734.73	48981.27
734.91	48919.83
735.10	48788.76
735.29	48885.01
735.47	48082.21
735.66	48379.17
735.84	48407.84
736.03	48239.90
736.22	49067.28
736.40	48215.33
736.59	48702.74
736.78	48340.25
736.96	47889.70
737.15	48170.27
737.33	48149.79
737.52	48254.24
737.71	48135.46
737.89	48000.29
738.08	47725.86
738.27	47682.86
738.45	47990.05
738.64	47877.41
738.82	47822.12
739.01	48141.60
739.20	48114.98
739.38	47985.96
739.57	48346.40
739.75	47979.81
739.94	48315.68
740.13	47834.41
740.31	47844.65
740.50	47623.47
740.68	47557.93
740.87	47738.15
741.06	47818.02
741.24	47547.69
741.43	47281.45
741.61	47723.82
741.80	47699.24
741.99	47375.66
742.17	47570.22
742.36	47334.70
742.54	47496.49
742.73	47652.14
742.91	47684.90
743.10	47658.28
743.29	47340.85
743.47	47500.59
743.66	47265.07
743.84	47527.21
744.03	47191.34
744.21	47144.24
744.40	47600.94
744.59	47099.19
744.77	47211.82
744.96	47093.04
745.14	47547.69
745.33	47519.02
745.51	46812.47
745.70	47279.41
745.88	46802.23
746.07	47033.65
746.26	46695.74
746.44	46835.00
746.63	46966.07
746.81	47015.22
747.00	46794.04
747.18	46644.54
747.37	46323.01
747.55	46992.69
747.74	47226.16
747.92	46212.41
748.11	46925.11
748.29	46945.59
748.48	46822.71
748.66	46656.82
748.85	46452.03
749.03	46644.54
749.22	46708.02
749.41	45833.54
749.59	46366.01
749.78	46032.19
749.96	45804.87
750.15	45980.99
750.33	45993.28
750.52	45747.53
750.70	46224.70
750.89	45712.71
751.07	45434.19
751.26	45966.66
751.44	46218.56
751.63	46062.91
751.81	45931.84
752.00	45514.06
752.18	45905.22
752.37	45823.30
752.55	45512.01
752.74	45475.15
752.92	45436.23
753.10	45147.47
753.29	45344.08
753.47	45485.39
753.66	45036.88
753.84	46116.16
754.03	45739.33
754.21	45036.88
754.40	45356.36
754.58	45460.81
754.77	44971.35
754.95	45135.18
755.14	44864.85
755.32	45024.59
755.51	44782.93
755.69	45188.43
755.88	44899.67
756.06	45278.54
756.24	44782.93
756.43	45024.59
756.61	45249.87
756.80	44711.25
756.98	44477.79
757.17	44756.31
757.35	44914.00
757.54	45073.74
757.72	44918.10
757.90	44180.83
758.09	44422.49
758.27	44477.79
758.46	44551.51
758.64	44146.01
758.83	44821.84
759.01	44395.87
759.19	44459.35
759.38	44795.22
759.56	44623.19
759.75	44488.03
759.93	44242.27
760.12	43902.31
760.30	44379.48
760.48	44291.42
760.67	44166.49
760.85	44520.79
761.04	44277.08
761.22	43804.00
761.40	44254.56
761.59	43930.98
761.77	43851.11
761.96	43859.30
762.14	44158.30
762.32	43490.66
762.51	43674.98
762.69	43767.14
762.88	43586.92
763.06	43769.19
763.24	43765.09
763.43	43890.02
763.61	43681.13
763.80	43439.47
763.98	43423.08
764.16	43302.25
764.35	43138.41
764.53	42726.77
764.72	43320.68
764.90	43398.51
765.08	43068.78
765.27	43083.12
765.45	43005.30
765.63	42624.37
765.82	43160.94
766.00	42827.12
766.18	43119.98
766.37	43287.92
766.55	42837.36
766.74	42767.73
766.92	42972.53
767.10	42728.82
767.29	42853.75
767.47	42591.61
767.65	42564.98
767.84	42198.40
768.02	42481.02
768.20	42255.74
768.39	42343.80
768.57	42278.27
768.75	42714.48
768.94	42251.64
769.12	42167.68
769.30	42358.14
769.49	41940.35
769.67	42227.07
769.85	41731.46
770.04	41891.20
770.22	41848.19
770.40	41581.96
770.59	41696.64
770.77	41772.42
770.95	41989.50
771.14	41235.85
771.32	41180.56
771.50	41139.60
771.69	41489.80
771.87	41381.26
772.05	41164.17
772.24	41233.80
772.42	41465.22
772.60	41420.17
772.78	40990.09
772.97	40586.64
773.15	41338.25
773.33	41244.04
773.52	40869.26
773.70	41375.11
773.88	41297.29
774.07	40856.98
774.25	41057.68
774.43	40973.71
774.61	41059.73
774.80	41379.21
774.98	40932.75
775.16	41364.87
775.34	41272.71
775.53	41022.86
775.71	41547.14
775.89	40930.70
776.08	41069.97
776.26	41620.87
776.44	41325.96
776.62	41241.99
776.81	41096.59
776.99	41592.20
777.17	41205.13
777.35	41074.06
777.54	41524.61
777.72	40953.23
777.90	41436.55
778.08	41602.44
778.27	41260.43
778.45	41883.01
778.63	42007.94
778.81	41543.05
779.00	42329.47
779.18	41678.21
779.36	41952.64
779.54	41584.01
779.73	41375.11
779.91	41694.60
780.09	41893.25
780.27	41604.49
780.46	41715.08
780.64	41743.75
780.82	41645.44
781.00	41506.18
781.19	42130.81
781.37	42055.04
781.55	41948.54
781.73	42468.73
781.91	41786.75
782.10	41946.50
782.28	42323.32
782.46	42014.08
782.64	41813.38
782.82	42143.10
783.01	42386.81
783.19	41958.78
783.37	42038.65
783.55	41887.10
783.74	42319.23
783.92	41672.07
784.10	42356.09
784.28	42253.69
784.46	42106.24
784.64	42200.44
784.83	42392.95
785.01	42440.06
785.19	42165.63
785.37	41997.70
785.55	42517.88
785.74	41956.74
785.92	41653.64
786.10	42016.13
786.28	41829.76
786.46	41864.58
786.64	41358.73
786.83	41889.15
787.01	41807.23
787.19	41715.08
787.37	41942.40
787.55	41856.39
787.74	41733.51
787.92	41682.31
788.10	41434.50
788.28	41584.01
788.46	41241.99
788.64	41633.16
788.82	41895.30
789.01	41280.91
789.19	41645.44
789.37	41295.24
789.55	41850.24
789.73	41203.08
789.91	41172.36
790.09	41180.56
790.28	40734.10
790.46	40508.82
790.64	41006.48
790.82	41207.18
791.00	41055.63
791.18	40476.05
791.36	40590.74
791.55	40783.25
791.73	40732.05
791.91	40154.52
792.09	40537.49
792.27	40066.46
792.45	40539.54
792.63	39982.49
792.81	39986.59
793.00	40080.80
793.18	39841.18
793.36	39826.85
793.54	39822.75
793.72	39822.75
793.90	39777.70
794.08	39263.66
794.26	39445.93
794.44	39476.65
794.62	38919.60
794.81	39179.69
794.99	38958.51
795.17	39433.64
795.35	39028.14
795.53	39189.93
795.71	39163.31
795.89	38344.12
796.07	38401.46
796.25	38749.62
796.43	38657.46
796.61	38428.09
796.80	38337.98
796.98	38528.44
797.16	37918.14
797.34	37897.66
797.52	37926.33
797.70	38251.96
797.88	37729.73
798.06	37924.29
798.24	37752.26
798.42	37762.50
798.60	37455.30
798.78	37580.23
798.96	37510.60
799.14	37461.44
799.32	37332.42
799.51	37146.06
799.69	37322.18
799.87	37387.72
800.05	36971.98
800.23	37248.46
800.41	36861.39
800.59	36423.12
800.77	36795.85
800.95	36304.34
801.13	36828.62
801.31	36330.97
801.49	36247.00
801.67	36457.94
801.85	36500.95
802.03	36300.25
802.21	35894.75
802.39	35829.21
802.57	35902.94
802.75	35771.87
802.93	35773.92
803.11	35401.19
803.29	35327.46
803.47	35263.97
803.65	35458.53
803.83	35337.70
804.01	35599.84
804.19	35368.42
804.37	34932.20
804.55	35120.62
804.73	34829.80
804.91	34813.42
805.09	34903.53
805.27	34868.72
805.45	34833.90
805.63	34696.69
805.81	34711.02
805.99	34285.04
806.17	34469.36
806.35	34493.94
806.53	34401.78
806.71	34375.16
806.89	34571.76
807.07	34295.28
807.25	34217.46
807.43	34029.05
807.61	34270.71
807.79	33852.92
807.97	33619.46
808.15	33865.21
808.33	33859.07
808.51	33680.89
808.69	33576.45
808.87	33349.12
809.05	33433.09
809.23	33060.36
809.41	32785.93
809.59	33115.65
809.77	33306.12
809.95	32929.29
810.13	32957.96
810.31	32556.56
810.49	33474.05
810.67	32802.32
810.84	32726.54
811.02	33121.80
811.20	32568.85
811.38	32689.68
811.56	32192.02
811.74	32718.35
811.92	32595.47
812.10	32351.76
812.28	32601.61
812.46	31933.98
812.64	32355.86
812.82	32138.77
813.00	32138.77
813.18	32103.96
813.36	31835.67
813.53	31786.52
813.71	31610.40
813.89	31729.18
814.07	31811.10
814.25	31712.80
814.43	31692.32
814.61	31604.25
814.79	31252.00
814.97	31223.33
815.15	31104.55
815.33	30955.05
815.50	31215.14
815.68	31448.61
815.86	31520.29
816.04	30826.03
816.22	30987.82
816.40	30864.94
816.58	30813.74
816.76	30940.71
816.94	30664.24
817.11	30881.32
817.29	30641.71
817.47	30723.63
817.65	30457.39
817.83	30469.68
818.01	30350.90
818.19	30545.45
818.37	30647.85
818.54	29967.93
818.72	29920.82
818.90	30291.51
819.08	30297.65
819.26	30197.30
819.44	29871.67
819.62	29890.10
819.80	30283.31
819.97	30260.79
820.15	29609.53
820.33	29681.21
820.51	29840.95
820.69	29519.42
820.87	29705.79
821.05	29548.09
821.22	29732.41
821.40	29775.42
821.58	29349.44
821.76	29556.28
821.94	29386.30
822.12	29369.92
822.29	29763.13
822.47	28872.26
822.65	29642.30
822.83	29437.50
823.01	29335.10
823.19	29062.72
823.36	28937.80
823.54	28997.19
823.72	28853.83
823.90	28671.56
824.08	28718.67
824.25	29005.38
824.43	28692.04
824.61	28417.61
824.79	28782.15
824.97	28546.64
825.15	29003.33
825.32	28532.30
825.50	28491.34
825.68	28501.58
825.86	28581.45
826.04	28581.45
826.21	28311.12
826.39	28509.77
826.57	28175.95
826.75	27917.91
826.93	28096.08
827.10	28122.71
827.28	28198.48
827.46	28182.10
827.64	28089.94
827.81	27862.61
827.99	28137.04
828.17	28057.17
828.35	27620.95
828.53	27711.07
828.70	27833.94
828.88	27467.36
829.06	27991.64
829.24	27952.73
829.41	27657.82
829.59	27919.96
829.77	27272.80
829.95	27498.08
830.12	27321.95
830.30	27729.50
830.48	27594.33
830.66	27412.06
830.84	27510.36
831.01	27403.87
831.19	27289.18
831.37	27375.20
831.55	27115.11
831.72	27199.07
831.90	26973.80
832.08	27100.77
832.25	26979.94
832.43	27176.55
832.61	26703.46
832.79	26789.48
832.96	26764.90
833.14	26771.05
833.32	26809.96
833.50	27018.85
833.67	26818.15
833.85	26791.53
834.03	26465.90
834.20	26699.37
834.38	27020.90
834.56	26639.98
834.74	26674.79
834.91	26656.36
835.09	26627.69
835.27	26480.24
835.44	26336.88
835.62	26318.45
835.80	26386.03
835.98	26242.67
836.15	26351.21
836.33	26281.58
836.51	26486.38
836.68	25970.29
836.86	25986.68
837.04	26127.99
837.21	25990.77
837.39	26332.78
837.57	25945.72
837.75	25927.28
837.92	25833.08
838.10	25955.96
838.28	25788.02
838.45	25611.90
838.63	25622.14
838.81	25673.34
838.98	25220.74
839.16	25478.78
839.34	25564.79
839.51	25366.14
839.69	25413.24
839.87	25407.10
840.04	25468.54
840.22	25558.65
840.40	25386.62
840.57	25192.06
840.75	25783.93
840.93	24960.64
841.10	25374.33
841.28	25544.31
841.46	25380.48
841.63	25011.84
841.81	25273.98
841.98	25200.26
842.16	25032.32
842.34	25259.65
842.51	24876.68
842.69	25222.78
842.87	25104.00
843.04	24714.89
843.22	24538.76
843.40	24505.99
843.57	24737.41
843.75	24741.51
843.92	25036.42
844.10	24718.98
844.28	24766.09
844.45	24475.27
844.63	24415.88
844.81	24651.40
844.98	24721.03
845.16	24549.00
845.33	24659.59
845.51	24321.68
845.69	24551.05
845.86	24268.43
846.04	24120.98
846.21	24495.75
846.39	24385.16
846.57	24176.27
846.74	24194.70
846.92	23922.32
847.09	23998.10
847.27	23948.95
847.45	24280.72
847.62	24387.21
847.80	24092.30
847.97	23920.28
848.15	23965.33
848.32	23998.10
848.50	23883.41
848.68	23899.80
848.85	24206.99
849.03	23572.12
849.20	23903.89
849.38	23656.09
849.56	24020.63
849.73	23565.98
849.91	23654.04
850.08	24030.87
850.26	23346.84
850.43	23582.36
850.61	23623.32
850.78	23209.63
850.96	23553.69
851.14	23320.22
851.31	23266.97
851.49	23264.92
851.66	23692.95
851.84	22890.15
852.01	23375.52
852.19	23510.68
852.36	23064.22
852.54	23344.80
852.71	23357.08
852.89	23017.12
853.07	23205.53
853.24	23289.50
853.42	23115.42
853.59	23111.33
853.77	23082.66
853.94	23180.96
854.12	23406.23
854.29	22814.37
854.47	23172.77
854.64	22677.16
854.82	22648.49
854.99	22810.28
855.17	22922.91
855.34	22701.73
855.52	23029.41
855.69	22808.23
855.87	22638.25
856.04	22711.97
856.22	22689.45
856.39	22341.29
856.57	22363.82
856.74	22679.21
856.92	22333.10
857.09	22623.91
857.27	22306.48
857.44	22597.29
857.62	22306.48
857.79	22281.90
857.97	22277.80
858.14	22431.40
858.32	22410.92
858.49	22177.45
858.67	22197.93
858.84	22273.71
859.02	21896.88
859.19	21896.88
859.37	22013.62
859.54	22017.71
859.72	22097.58
859.89	21993.14
860.06	22331.05
860.24	21739.19
860.41	21874.35
860.59	21872.31
860.76	21724.85
860.94	21731.00
861.11	21943.99
861.29	21755.57
861.46	21927.60
861.64	21726.90
861.81	21620.41
861.98	21227.20
862.16	21540.54
862.33	21493.43
862.51	21728.95
862.68	21599.93
862.86	21259.96
863.03	21497.53
863.21	21386.94
863.38	21515.96
863.55	21563.06
863.73	21294.78
863.90	21317.31
864.08	21395.13
864.25	20911.81
864.43	21264.06
864.60	21036.74
864.77	21012.16
864.95	21241.53
865.12	20920.00
865.30	21137.09
865.47	20821.70
865.64	20911.81
865.82	20977.34
865.99	20969.15
866.17	20854.47
866.34	21466.81
866.51	20709.06
866.69	20981.44
866.86	20887.23
867.04	20946.62
867.21	20717.25
867.38	20719.30
867.56	20375.24
867.73	20424.39
867.91	20405.96
868.08	20555.46
868.25	20381.38
868.43	20348.62
868.60	20100.81
868.78	20440.78
868.95	20471.50
869.12	20281.03
869.30	20152.01
869.47	20063.95
869.64	20092.62
869.82	19965.65
869.99	20362.95
870.16	20332.23
870.34	20123.34
870.51	19990.22
870.69	19914.45
870.86	20178.64
871.03	19951.31
871.21	20037.33
871.38	20119.24
871.55	19738.32
871.73	19926.74
871.90	19803.86
872.07	19773.14
872.25	19640.02
872.42	19633.88
872.59	19719.89
872.77	19902.16
872.94	19304.15
873.11	19562.20
873.29	19476.18
873.46	19545.81
873.63	19369.69
873.81	19377.88
873.98	19412.70
874.15	19021.53
874.33	19025.63
874.50	19138.27
874.67	19019.49
874.85	19152.60
875.02	19046.11
875.19	18607.84
875.37	18730.72
875.54	18808.54
875.71	18863.84
875.88	18943.71
876.06	18966.24
876.23	18751.20
876.40	18695.91
876.58	18683.62
876.75	18763.49
876.92	18654.95
877.10	18745.06
877.27	18579.17
877.44	18403.05
877.61	18513.64
877.79	18349.80
877.96	18523.88
878.13	18296.55
878.31	18235.11
878.48	18093.80
878.65	18159.34
878.82	18163.43
879.00	18145.00
879.17	18300.65
879.34	18325.22
879.51	17960.69
879.69	17829.62
879.86	17663.73
880.03	18067.18
880.21	18040.56
880.38	17876.72
880.55	18024.17
880.72	18110.19
880.90	17919.73
881.07	17882.86
881.24	17770.22
881.41	17868.53
881.59	17655.54
881.76	17352.44
881.93	17571.57
882.10	17346.30
882.28	17547.00
882.45	17544.95
882.62	17680.11
882.79	17590.00
882.96	17264.38
883.14	17542.90
883.31	17510.13
883.48	17188.60
883.65	17460.98
883.83	17350.39
884.00	17057.53
884.17	17131.26
884.34	17334.01
884.51	17325.82
884.69	17252.09
884.86	17286.90
885.03	17151.74
885.20	17020.67
885.38	17307.38
885.55	17237.75
885.72	16948.99
885.89	16985.85
886.06	17084.16
886.24	16865.02
886.41	17116.92
886.58	17270.52
886.75	17174.27
886.92	16905.98
887.10	17430.26
887.27	16826.11
887.44	16824.06
887.61	17200.89
887.78	17098.49
887.95	16738.05
888.13	16994.04
888.30	16641.79
888.47	16746.24
888.64	16643.84
888.81	16639.75
888.99	16486.15
889.16	16697.09
889.33	16561.92
889.50	16695.04
889.67	16408.33
889.84	16541.44
890.01	16467.72
890.19	16690.95
890.36	16500.48
890.53	16316.17
890.70	16361.22
890.87	16172.81
891.04	16385.80
891.22	16420.61
891.39	16199.43
891.56	16197.38
891.73	16088.84
891.90	16099.08
892.07	15976.20
892.24	16011.02
892.42	15707.92
892.59	15791.89
892.76	15957.77
892.93	15892.24
893.10	15865.61
893.27	15918.86
893.44	15765.26
893.61	15783.70
893.79	15951.63
893.96	15822.61
894.13	16070.41
894.30	15947.53
894.47	15707.92
894.64	16049.93
894.81	15640.34
894.98	15769.36
895.15	15736.59
895.33	15808.27
895.50	15894.29
895.67	15828.75
895.84	15810.32
896.01	15894.29
896.18	15828.75
896.35	15724.30
896.52	15505.17
896.69	15765.26
896.86	15486.74
897.04	15908.62
897.21	15714.06
897.38	15626.00
897.55	15638.29
897.72	15478.55
897.89	15789.84
898.06	15752.98
898.23	15644.43
898.40	15736.59
898.57	15728.40
898.74	15472.40
898.91	15691.54
899.08	15566.61
899.26	15511.32
899.43	15681.30
899.60	15288.09
899.77	15615.76
899.94	15744.78
900.11	15308.57
900.28	15333.14
900.45	15496.98
900.62	15529.75
900.79	15613.71
900.96	15703.82
901.13	15499.03
901.30	15544.08
901.47	15372.05
901.64	15451.92
901.81	15580.95
901.98	15324.95
902.15	15654.67
902.32	15318.81
902.49	15476.50
902.66	15566.61
902.83	15288.09
903.01	15580.95
903.18	15603.47
903.35	15673.10
903.52	15511.32
903.69	15406.87
903.86	15462.16
904.03	15615.76
904.20	15884.05
904.37	15609.62
904.54	15271.70
904.71	15468.31
904.88	15144.73
905.05	15275.80
905.22	15648.53
905.39	15288.09
905.56	15429.40
905.73	15347.48
905.90	15609.62
906.07	15470.36
906.24	15644.43
906.41	15218.46
906.58	15556.37
906.75	15370.01
906.92	15310.61
907.09	15490.84
907.26	15337.24
907.43	15263.51
907.60	15265.56
907.77	15595.28
907.93	15437.59
908.10	15443.73
908.27	15496.98
908.44	15218.46
908.61	15175.45
908.78	15114.01
908.95	15329.05
909.12	15042.33
909.29	15345.43
909.46	15222.55
909.63	15281.94
909.80	15439.64
909.97	15513.36
910.14	15218.46
910.31	15126.30
910.48	15212.31
910.65	15034.14
910.82	15071.00
910.99	15353.62
911.16	15189.78
911.33	15118.11
911.50	14966.56
911.66	14987.04
911.83	15255.32
912.00	15107.87
912.17	14956.32
912.34	14884.64
912.51	14825.25
912.68	14819.10
912.85	14958.36
913.02	14806.81
913.19	14876.44
913.36	14833.44
913.53	14827.29
913.70	14567.20
913.86	14823.20
914.03	14829.34
914.20	14561.06
914.37	14780.19
914.54	14573.35
914.71	14700.32
914.88	14714.66
915.05	14452.52
915.22	14708.51
915.39	14497.57
915.55	14645.02
915.72	14565.15
915.89	14339.88
916.06	14331.69
916.23	14374.69
916.40	14219.05
916.57	14079.79
916.74	14212.90
916.91	14128.94
917.07	14169.90
917.24	14049.07
917.41	14077.74
917.58	14040.87
917.75	13831.98
917.92	13936.43
918.09	13750.06
918.26	13944.62
918.42	13791.02
918.59	14053.16
918.76	13791.02
918.93	13721.39
919.10	13633.33
919.27	13592.37
919.44	13596.46
919.60	13623.09
919.77	13688.62
919.94	13410.10
920.11	13383.48
920.28	13618.99
920.45	13414.20
920.61	13182.77
920.78	13061.94
920.95	13319.99
921.12	13213.49
921.29	13137.72
921.46	13076.28
921.62	12887.87
921.79	13025.08
921.96	13123.38
922.13	12914.49
922.30	12957.50
922.47	12906.30
922.63	12951.35
922.80	12742.46
922.97	12828.48
923.14	12490.56
923.31	12947.26
923.47	12476.23
923.64	12697.41
923.81	12388.16
923.98	12519.23
924.15	12334.92
924.32	12255.04
924.48	12287.81
924.65	12373.83
924.82	12128.07
924.99	11999.05
925.15	12076.87
925.32	12164.93
925.49	12011.34
925.66	11999.05
925.83	11874.12
925.99	11882.31
926.16	11953.99
926.33	11749.20
926.50	11630.41
926.67	11749.20
926.83	11722.57
927.00	11644.75
927.17	11677.52
927.34	11480.91
927.50	11568.98
927.67	11595.60
927.84	11421.52
928.01	11368.27
928.17	11267.92
928.34	11198.29
928.51	11132.76
928.68	11188.05
928.84	10960.73
929.01	11097.94
929.18	10868.57
929.35	11028.31
929.51	11022.17
929.68	10729.31
929.85	10848.09
930.02	10835.80
930.18	10719.07
930.35	10762.08
930.52	10626.91
930.69	10639.20
930.85	10557.28
931.02	10602.33
931.19	10616.67
931.36	10440.54
931.52	10434.40
931.69	10311.52
931.86	10426.21
932.02	10215.27
932.19	10252.13
932.36	10110.82
932.53	10180.45
932.69	10037.09
932.86	10147.69
933.03	10065.77
933.19	9842.54
933.36	9977.70
933.53	9924.46
933.70	9688.94
933.86	9748.33
934.03	9650.03
934.20	9586.54
934.36	9729.90
934.53	9580.40
934.70	9406.32
934.86	9439.09
935.03	9080.69
935.20	9297.78
935.36	9195.38
935.53	9076.60
935.70	9078.65
935.86	9068.41
936.03	8886.14
936.20	8732.54
936.36	8753.02
936.53	8753.02
936.70	8478.59
936.86	8605.56
937.03	8521.60
937.20	8245.12
937.36	8355.71
937.53	8173.44
937.70	8241.03
937.86	8003.46
938.03	8189.83
938.20	8083.33
938.36	7915.40
938.53	7755.66
938.70	7548.81
938.86	7614.35
939.03	7612.30
939.20	7331.73
939.36	7511.95
939.53	7163.79
939.70	7597.96
939.86	7106.45
940.03	7198.61
940.19	6965.14
940.36	6928.28
940.53	6821.78
940.69	6680.47
940.86	6850.46
941.03	6604.70
941.19	6555.55
941.36	6453.15
941.52	6541.21
941.69	6274.98
941.86	6469.53
942.02	6352.80
942.19	6215.59
942.35	6191.01
942.52	6197.15
942.69	6145.95
942.85	5996.45
943.02	5932.97
943.18	5951.40
943.35	5830.57
943.52	5824.42
943.68	5881.77
943.85	5828.52
944.01	5826.47
944.18	5658.54
944.35	5611.43
944.51	5638.06
944.68	5564.33
944.84	5490.60
945.01	5447.60
945.17	5541.80
945.34	5515.18
945.51	5609.39
945.67	5554.09
945.84	5552.04
946.00	5484.46
946.17	5337.01
946.33	5412.78
946.50	5375.92
946.67	5402.54
946.83	5392.30
947.00	5562.28
947.16	5455.79
947.33	5310.38
947.49	5339.05
947.66	5431.21
947.82	5492.65
947.99	5318.57
948.16	5443.50
948.32	5398.45
948.49	5406.64
948.65	5500.84
948.82	5304.24
948.98	5414.83
949.15	5212.08
949.31	5304.24
949.48	5377.97
949.64	5369.77
949.81	5324.72
949.97	5353.39
950.14	5392.30
950.30	5367.73
950.47	5580.71
950.63	5312.43
950.80	5435.31
950.96	5312.43
951.13	5328.81
951.30	5425.07
951.46	5492.65
951.63	5369.77
951.79	5351.34
951.96	5392.30
952.12	5545.90
952.29	5402.54
952.45	5367.73
952.62	5357.49
952.78	5539.76
952.94	5490.60
953.11	5375.92
953.27	5353.39
953.44	5636.01
953.60	5380.01
953.77	5550.00
953.93	5449.64
954.10	5527.47
954.26	5431.21
954.43	5535.66
954.59	5552.04
954.76	5595.05
954.92	5459.88
955.09	5533.61
955.25	5558.19
955.42	5482.41
955.58	5535.66
955.75	5683.11
955.91	5330.86
956.07	5550.00
956.24	5558.19
956.40	5584.81
956.57	5705.64
956.73	5470.12
956.90	5543.85
957.06	5468.08
957.23	5535.66
957.39	5570.48
957.56	5398.45
957.72	5455.79
957.88	5525.42
958.05	5568.43
958.21	5545.90
958.38	5609.39
958.54	5474.22
958.71	5689.26
958.87	5539.76
959.03	5457.84
959.20	5629.87
959.36	5488.56
959.53	5543.85
959.69	5423.02
959.85	5470.12
960.02	5525.42
960.18	5500.84
960.35	5582.76
960.51	5705.64
960.68	5384.11
960.84	5537.71
961.00	5541.80
961.17	5558.19
961.33	5506.99
961.50	5463.98
961.66	5525.42
961.82	5468.08
961.99	5390.25
962.15	5494.70
962.31	5386.16
962.48	5566.38
962.64	5633.96
962.81	5498.80
962.97	5463.98
963.13	5554.09
963.30	5539.76
963.46	5365.68
963.62	5433.26
963.79	5662.63
963.95	5502.89
964.12	5412.78
964.28	5459.88
964.44	5504.94
964.61	5580.71
964.77	5463.98
964.93	5633.96
965.10	5447.60
965.26	5414.83
965.42	5334.96
965.59	5492.65
965.75	5250.99
965.92	5318.57
966.08	5455.79
966.24	5281.71
966.41	5189.55
966.57	5326.77
966.73	5384.11
966.90	5222.32
967.06	5238.70
967.22	5443.50
967.39	5404.59
967.55	5328.81
967.71	5283.76
967.88	5140.40
968.04	5187.50
968.20	5300.14
968.37	5203.89
968.53	5130.16
968.69	5273.52
968.85	5234.61
969.02	5230.51
969.18	5128.11
969.34	5382.06
969.51	5181.36
969.67	5291.95
969.83	5085.11
970.00	5158.83
970.16	5115.83
970.32	5154.74
970.48	5353.39
970.65	5017.52
970.81	5042.10
970.97	5072.82
971.14	4982.71
971.30	5128.11
971.46	5054.39
971.63	5095.35
971.79	5228.46
971.95	5023.67
972.11	4868.02
972.28	5074.87
972.44	4982.71
972.60	4943.80
972.76	4872.12
972.93	5015.48
973.09	5011.38
973.25	4997.04
973.42	4943.80
973.58	4911.03
973.74	5126.07
973.90	4964.28
974.07	4886.45
974.23	4915.12
974.39	4935.60
974.55	4761.53
974.72	4966.32
974.88	4802.49
975.04	4908.98
975.20	4841.40
975.37	4906.93
975.53	4837.30
975.69	4935.60
975.85	4927.41
976.01	4663.22
976.18	4749.24
976.34	4745.14
976.50	4759.48
976.66	4943.80
976.83	4876.21
976.99	4712.38
977.15	4648.89
977.31	4652.98
977.47	4726.71
977.64	4622.27
977.80	4687.80
977.96	4775.86
978.12	4622.27
978.29	4595.64
978.45	4442.04
978.61	4579.26
978.77	4782.01
978.93	4671.42
979.10	4575.16
979.26	4618.17
979.42	4667.32
979.58	4474.81
979.74	4528.06
979.91	4558.78
980.07	4589.50
980.23	4530.11
980.39	4392.89
980.55	4566.97
980.71	4540.35
980.88	4509.63
981.04	4423.61
981.20	4474.81
981.36	4489.15
981.52	4327.36
981.68	4452.28
981.85	4399.04
982.01	4487.10
982.17	4358.08
982.33	4431.80
982.49	4456.38
982.65	4329.41
982.82	4386.75
982.98	4411.32
983.14	4198.34
983.30	4440.00
983.46	4333.50
983.62	4239.30
983.79	4319.17
983.95	4296.64
984.11	4222.91
984.27	4282.30
984.43	4288.45
984.59	4200.38
984.75	4276.16
984.91	4261.82
985.08	4298.69
985.24	4202.43
985.40	4143.04
985.56	4081.60
985.72	4306.88
985.88	4136.90
986.04	4042.69
986.20	4069.31
986.37	4165.57
986.53	4095.94
986.69	4120.51
986.85	4038.59
987.01	4095.94
987.17	4194.24
987.33	3991.49
987.49	4018.11
987.65	4171.71
987.82	4108.23
987.98	4050.88
988.14	4050.88
988.30	3975.11
988.46	3989.44
988.62	3942.34
988.78	3897.28
988.94	3915.72
989.10	3905.48
989.26	3880.90
989.42	3880.90
989.59	3758.02
989.75	3905.48
989.91	3928.00
990.07	3731.40
990.23	3788.74
990.39	3815.37
990.55	3921.86
990.71	3819.46
990.87	3878.85
991.03	3856.33
991.19	3770.31
991.35	3760.07
991.51	3878.85
991.67	3809.22
991.83	3772.36
992.00	3751.88
992.16	3862.47
992.32	3817.41
992.48	3827.65
992.64	3631.05
992.80	3710.92
992.96	3739.59
993.12	3721.16
993.28	3696.58
993.44	3731.40
993.60	3772.36
993.76	3657.67
993.92	3772.36
994.08	3659.72
994.24	3702.73
994.40	3690.44
994.56	3680.20
994.72	3573.71
994.88	3594.19
995.04	3567.56
995.20	3567.56
995.36	3612.62
995.52	3577.80
995.68	3624.90
995.84	3581.90
996.00	3524.55
996.16	3596.23
996.32	3475.40
996.48	3475.40
996.64	3557.32
996.80	3530.70
996.96	3534.79
997.12	3499.98
997.28	3420.11
997.44	3368.91
997.60	3442.64
997.76	3438.54
997.92	3420.11
998.08	3385.29
998.24	3264.46
998.40	3436.49
998.56	3442.64
998.72	3370.96
998.88	3377.10
999.04	3256.27
999.20	3483.59
999.36	3319.76
999.52	3332.05
999.68	3420.11
999.84	3385.29
1000.00	3383.24
1000.16	3350.48
1000.32	3170.26
1000.48	3391.44
1000.64	3280.85
1000.80	3172.30
1000.95	3198.93
1001.11	3231.69
1001.27	3237.84
1001.43	3264.46
1001.59	3067.86
1001.75	3127.25
1001.91	3303.37
1002.07	3149.78
1002.23	3200.98
1002.39	3092.43
1002.55	3297.23
1002.71	3139.54
1002.87	3035.09
1003.03	3108.82
1003.19	3071.95
1003.34	3227.60
1003.50	3082.19
1003.66	3164.11
1003.82	3223.50
1003.98	3117.01
1004.14	3045.33
1004.30	3108.82
1004.46	3061.71
1004.62	3108.82
1004.78	3076.05
1004.94	3108.82
1005.09	3125.20
1005.25	3059.67
1005.41	2914.26
1005.57	2971.60
1005.73	2985.94
1005.89	2877.40
1006.05	3063.76
1006.21	2930.64
1006.37	2811.86
1006.52	2922.45
1006.68	2834.39
1006.84	3065.81
1007.00	2861.01
1007.16	2914.26
1007.32	2920.40
1007.48	2992.08
1007.64	2908.12
1007.79	2926.55
1007.95	2858.96
1008.11	2975.70
1008.27	2949.08
1008.43	2801.62
1008.59	2832.34
1008.75	2899.92
1008.91	2877.40
1009.06	2793.43
1009.22	2895.83
1009.38	2844.63
1009.54	2893.78
1009.70	2762.71
1009.86	2818.00
1010.01	2912.21
1010.17	2760.66
1010.33	2678.74
1010.49	2744.28
1010.65	2842.58
1010.81	2707.41
1010.96	2820.05
1011.12	2793.43
1011.28	2848.72
1011.44	2713.56
1011.60	2734.04
1011.76	2701.27
1011.91	2750.42
1012.07	2631.64
1012.23	2574.30
1012.39	2715.61
1012.55	2727.89
1012.71	2615.26
1012.86	2635.74
1013.02	2758.61
1013.18	2682.84
1013.34	2656.22
1013.50	2576.34
1013.65	2568.15
1013.81	2584.54
1013.97	2643.93
1014.13	2650.07
1014.29	2592.73
1014.44	2598.87
1014.60	2592.73
1014.76	2631.64
1014.92	2580.44
1015.07	2588.63
1015.23	2592.73
1015.39	2531.29
1015.55	2582.49
1015.71	2584.54
1015.86	2453.47
1016.02	2519.00
1016.18	2428.89
1016.34	2611.16
1016.49	2484.19
1016.65	2555.86
1016.81	2502.62
1016.97	2553.82
1017.12	2492.38
1017.28	2441.18
1017.44	2316.25
1017.60	2394.08
1017.75	2475.99
1017.91	2418.65
1018.07	2422.75
1018.23	2586.58
1018.38	2297.82
1018.54	2420.70
1018.70	2590.68
1018.86	2344.92
1019.01	2439.13
1019.17	2400.22
1019.33	2480.09
1019.49	2369.50
1019.64	2475.99
1019.80	2361.31
1019.96	2471.90
1020.12	2478.04
1020.27	2336.73
1020.43	2359.26
1020.59	2432.99
1020.74	2369.50
1020.90	2435.03
1021.06	2389.98
1021.22	2398.17
1021.37	2383.84
1021.53	2250.72
1021.69	2379.74
1021.84	2215.90
1022.00	2308.06
1022.16	2340.83
1022.31	2328.54
1022.47	2320.35
1022.63	2322.40
1022.79	2297.82
1022.94	2281.44
1023.10	2457.56
1023.26	2336.73
1023.41	2334.68
1023.57	2383.84
1023.73	2326.49
1023.88	2281.44
1024.04	2279.39
1024.20	2320.35
1024.35	2232.29
1024.51	2275.29
1024.67	2326.49
1024.82	2361.31
1024.98	2181.09
1025.14	2308.06
1025.29	2279.39
1025.45	2244.57
1025.61	2193.37
1025.76	2254.81
1025.92	2312.16
1026.08	2258.91
1026.23	2240.48
1026.39	2226.14
1026.55	2215.90
1026.70	2148.32
1026.86	2176.99
1027.02	2283.49
1027.17	2138.08
1027.33	2187.23
1027.48	2181.09
1027.64	2109.41
1027.80	2150.37
1027.95	2232.29
1028.11	2088.93
1028.27	2146.27
1028.42	2191.33
1028.58	2093.02
1028.73	2064.35
1028.89	2097.12
1029.05	2195.42
1029.20	2187.23
>>>>>End Processed Spectral Data<<<<<
