SpectraSuite Data File
++++++++++++++++++++++++++++++++++++
Date: Fri Jun 02 14:51:09 CEST 2017
User: INFO_000
Dark Spectrum Present: No
Reference Spectrum Present: No
Number of Sampled Component Spectra: 1
Spectrometers: USB4H00879
Integration Time (usec): 80000 (USB4H00879)
Spectra Averaged: 1 (USB4H00879)
Boxcar Smoothing: 0 (USB4H00879)
Correct for Electrical Dark: No (USB4H00879)
Strobe/Lamp Enabled: No (USB4H00879)
Correct for Detector Non-linearity: No (USB4H00879)
Correct for Stray Light: No (USB4H00879)
Number of Pixels in Processed Spectrum: 3648
>>>>>Begin Processed Spectral Data<<<<<
345.13	1245.16
345.34	1245.16
345.56	1245.16
345.78	1288.17
345.99	1290.22
346.21	1761.25
346.42	1675.24
346.64	1650.66
346.86	1783.78
347.07	1658.85
347.29	1673.19
347.50	1656.81
347.72	1603.56
347.94	1658.85
348.15	1538.02
348.37	1523.69
348.59	1662.95
348.80	1681.38
349.02	1769.44
349.23	1890.28
349.45	1802.21
349.67	1908.71
349.88	1867.75
350.10	1980.39
350.31	1828.84
350.53	1898.47
350.75	1933.28
350.96	1857.51
351.18	1931.23
351.39	1892.32
351.61	1830.88
351.82	1871.84
352.04	1923.04
352.26	1863.65
352.47	1890.28
352.69	1961.95
352.90	1658.85
353.12	1929.19
353.34	1804.26
353.55	1955.81
353.77	1861.60
353.98	1806.31
354.20	1880.04
354.41	1869.80
354.63	1898.47
354.85	1978.34
355.06	1935.33
355.28	1863.65
355.49	1871.84
355.71	1877.99
355.92	1861.60
356.14	1974.24
356.35	1863.65
356.57	1826.79
356.79	1949.67
357.00	1841.12
357.22	1970.15
357.43	1828.84
357.65	1966.05
357.86	1892.32
358.08	1923.04
358.29	1929.19
358.51	1992.67
358.72	1871.84
358.94	1937.38
359.16	1955.81
359.37	1920.99
359.59	1914.85
359.80	1904.61
360.02	1920.99
360.23	2050.02
360.45	1957.86
360.66	1943.52
360.88	1869.80
361.09	1957.86
361.31	1959.91
361.52	1982.43
361.74	1972.19
361.95	2070.50
362.17	1894.37
362.38	2105.31
362.60	1982.43
362.81	2021.35
363.03	1937.38
363.24	1947.62
363.46	1986.53
363.67	1964.00
363.89	1966.05
364.10	1968.10
364.32	1970.15
364.53	2007.01
364.75	1867.75
364.96	1943.52
365.18	1992.67
365.39	1933.28
365.61	1976.29
365.82	2095.07
366.04	1929.19
366.25	1912.80
366.47	2023.39
366.68	1996.77
366.90	1947.62
367.11	1976.29
367.33	2117.60
367.54	2174.94
367.76	1998.82
367.97	2058.21
368.19	2050.02
368.40	2035.68
368.62	1994.72
368.83	1875.94
369.05	2039.78
369.26	1996.77
369.48	1925.09
369.69	1931.23
369.91	2054.11
370.12	1966.05
370.33	2138.08
370.55	1931.23
370.76	2068.45
370.98	2084.83
371.19	2070.50
371.41	1949.67
371.62	2064.35
371.84	2011.11
372.05	2115.55
372.27	2123.74
372.48	1976.29
372.69	2000.87
372.91	2121.70
373.12	2174.94
373.34	2088.93
373.55	2093.02
373.77	2099.17
373.98	2103.26
374.20	2185.18
374.41	2232.29
374.62	2107.36
374.84	2127.84
375.05	2191.33
375.27	2189.28
375.48	2232.29
375.70	2176.99
375.91	2181.09
376.12	2203.61
376.34	2162.66
376.55	2097.12
376.77	2250.72
376.98	2111.46
377.19	2117.60
377.41	2195.42
377.62	2148.32
377.84	2242.53
378.05	2287.58
378.27	2164.70
378.48	2260.96
378.69	2398.17
378.91	2267.10
379.12	2328.54
379.34	2256.86
379.55	2312.16
379.76	2248.67
379.98	2088.93
380.19	2230.24
380.41	2240.48
380.62	2281.44
380.83	2191.33
381.05	2158.56
381.26	2256.86
381.47	2152.42
381.69	2222.05
381.90	2432.99
382.12	2250.72
382.33	2310.11
382.54	2211.81
382.76	2254.81
382.97	2357.21
383.19	2209.76
383.40	2392.03
383.61	2271.20
383.83	2213.85
384.04	2318.30
384.25	2295.77
384.47	2414.56
384.68	2394.08
384.89	2318.30
385.11	2334.68
385.32	2299.87
385.54	2306.01
385.75	2283.49
385.96	2400.22
386.18	2400.22
386.39	2324.44
386.60	2351.07
386.82	2402.27
387.03	2365.40
387.24	2492.38
387.46	2400.22
387.67	2494.43
387.88	2443.23
388.10	2392.03
388.31	2453.47
388.52	2465.75
388.74	2455.51
388.95	2371.55
389.16	2400.22
389.38	2435.03
389.59	2484.19
389.80	2602.97
390.02	2512.86
390.23	2531.29
390.44	2478.04
390.66	2414.56
390.87	2426.84
391.08	2494.43
391.30	2648.02
391.51	2600.92
391.72	2549.72
391.94	2594.78
392.15	2598.87
392.36	2527.19
392.58	2510.81
392.79	2641.88
393.00	2658.26
393.22	2584.54
393.43	2777.05
393.64	2754.52
393.85	2664.41
394.07	2605.02
394.28	2723.80
394.49	2670.55
394.71	2770.90
394.92	2680.79
395.13	2615.26
395.35	2723.80
395.56	2643.93
395.77	2676.70
395.98	2850.77
396.20	2731.99
396.41	2660.31
396.62	2828.24
396.84	2666.46
397.05	2744.28
397.26	2863.06
397.47	2887.64
397.69	2717.65
397.90	2930.64
398.11	2830.29
398.32	2858.96
398.54	2719.70
398.75	2830.29
398.96	2885.59
399.18	2961.36
399.39	2842.58
399.60	2953.17
399.81	2869.20
400.03	2791.38
400.24	3192.78
400.45	2895.83
400.66	2959.31
400.88	2918.36
401.09	3020.75
401.30	3041.23
401.51	3096.53
401.73	3022.80
401.94	3067.86
402.15	3088.34
402.36	2893.78
402.58	3076.05
402.79	3141.58
403.00	3149.78
403.21	3084.24
403.43	3125.20
403.64	3305.42
403.85	3074.00
404.06	3125.20
404.27	3082.19
404.49	3055.57
404.70	3016.66
404.91	3211.22
405.12	3137.49
405.34	3248.08
405.55	3342.28
405.76	3117.01
405.97	3114.96
406.19	3233.74
406.40	3237.84
406.61	3272.65
406.82	3311.57
407.03	3313.61
407.25	3225.55
407.46	3373.00
407.67	3358.67
407.88	3383.24
408.09	3276.75
408.31	3200.98
408.52	3352.52
408.73	3332.05
408.94	3389.39
409.15	3358.67
409.37	3407.82
409.58	3428.30
409.79	3456.97
410.00	3450.83
410.21	3297.23
410.43	3340.24
410.64	3397.58
410.85	3571.66
411.06	3549.13
411.27	3446.73
411.48	3602.38
411.70	3411.92
411.91	3571.66
412.12	3626.95
412.33	3516.36
412.54	3493.83
412.76	3610.57
412.97	3659.72
413.18	3444.68
413.39	3581.90
413.60	3606.47
413.81	3563.47
414.03	3530.70
414.24	3665.86
414.45	3745.73
414.66	3512.27
414.87	3743.69
415.08	3612.62
415.30	3680.20
415.51	3631.05
415.72	3682.25
415.93	3704.78
416.14	3629.00
416.35	3719.11
416.56	3719.11
416.78	3803.08
416.99	3825.61
417.20	3706.82
417.41	3876.80
417.62	3758.02
417.83	3819.46
418.04	3811.27
418.26	3872.71
418.47	3798.98
418.68	4032.45
418.89	3850.18
419.10	4030.40
419.31	3805.13
419.52	3985.35
419.73	3903.43
419.95	3858.37
420.16	3784.65
420.37	3823.56
420.58	3958.72
420.79	3852.23
421.00	4009.92
421.21	4079.55
421.42	3944.39
421.63	3987.40
421.85	4009.92
422.06	4110.27
422.27	4091.84
422.48	4106.18
422.69	4018.11
422.90	4079.55
423.11	4102.08
423.32	4186.05
423.53	4210.62
423.75	4171.71
423.96	4386.75
424.17	4106.18
424.38	4319.17
424.59	4257.73
424.80	4384.70
425.01	4308.93
425.22	4362.17
425.43	4288.45
425.64	4376.51
425.85	4411.32
426.06	4446.14
426.28	4378.56
426.49	4308.93
426.70	4300.73
426.91	4345.79
427.12	4587.45
427.33	4450.24
427.54	4386.75
427.75	4399.04
427.96	4573.11
428.17	4603.83
428.38	4620.22
428.59	4659.13
428.80	4669.37
429.01	4618.17
429.23	4554.68
429.44	4816.82
429.65	4734.90
429.86	4802.49
430.07	4679.61
430.28	4759.48
430.49	4708.28
430.70	4927.41
430.91	4845.49
431.12	4937.65
431.33	4865.97
431.54	4898.74
431.75	4892.60
431.96	4851.64
432.17	4931.51
432.38	4972.47
432.59	5103.54
432.80	4933.56
433.01	5160.88
433.22	5005.24
433.43	5003.19
433.64	5160.88
433.85	5124.02
434.06	5095.35
434.27	5081.01
434.49	5203.89
434.70	5285.81
434.91	5216.18
435.12	5189.55
435.33	5140.40
435.54	5244.85
435.75	5138.35
435.96	5097.39
436.17	5072.82
436.38	5330.86
436.59	5230.51
436.80	5175.22
437.01	5394.35
437.22	5367.73
437.43	5402.54
437.64	5271.47
437.85	5406.64
438.06	5447.60
438.27	5482.41
438.48	5390.25
438.69	5574.57
438.90	5427.12
439.11	5400.49
439.32	5681.07
439.53	5607.34
439.74	5580.71
439.95	5633.96
440.16	5664.68
440.37	5597.10
440.57	5533.61
440.78	5703.59
440.99	5769.13
441.20	5595.05
441.41	5668.78
441.62	5758.89
441.83	5699.50
442.04	5953.45
442.25	5801.90
442.46	5797.80
442.67	6035.36
442.88	6240.16
443.09	5846.95
443.30	5953.45
443.51	6041.51
443.72	6266.78
443.93	5867.43
444.14	6172.58
444.35	5808.04
444.56	6135.71
444.77	6068.13
444.98	6078.37
445.19	6113.19
445.40	6195.11
445.61	6131.62
445.81	6365.09
446.02	6227.87
446.23	6088.61
446.44	6219.68
446.65	6283.17
446.86	6475.68
447.07	6229.92
447.28	6418.33
447.49	6436.77
447.70	6174.63
447.91	6459.29
448.12	6467.49
448.33	6678.43
448.54	6643.61
448.74	6385.57
448.95	6637.47
449.16	6408.09
449.37	6813.59
449.58	6541.21
449.79	6881.18
450.00	6473.63
450.21	6678.43
450.42	6905.75
450.63	6659.99
450.84	6700.95
451.05	6668.19
451.25	6887.32
451.46	6698.91
451.67	6901.65
451.88	7112.60
452.09	6977.43
452.30	6815.64
452.51	6950.81
452.72	7182.23
452.93	7444.37
453.13	7030.68
453.34	7139.22
453.55	7120.79
453.76	7063.44
453.97	7321.49
454.18	7157.65
454.39	7282.58
454.60	7268.24
454.81	7288.72
455.01	7423.89
455.22	7184.27
455.43	7356.30
455.64	7739.27
455.85	7688.07
456.06	7761.80
456.27	7681.93
456.48	7700.36
456.68	7743.37
456.89	7677.83
457.10	7813.00
457.31	7743.37
457.52	7704.46
457.73	7831.43
457.94	8179.59
458.14	7714.70
458.35	8368.00
458.56	8011.65
458.77	8032.13
458.98	8013.70
459.19	8130.44
459.39	8089.48
459.60	8161.16
459.81	8116.10
460.02	8374.14
460.23	8228.74
460.44	8470.40
460.65	8380.29
460.85	8552.32
461.06	8480.64
461.27	8474.49
461.48	8667.00
461.69	8777.59
461.89	8400.77
462.10	8675.20
462.31	8574.85
462.52	8488.83
462.73	8728.44
462.94	8845.18
463.14	8847.22
463.35	8783.74
463.56	9162.61
463.77	9095.03
463.98	9101.17
464.18	9006.97
464.39	9172.85
464.60	9322.35
464.81	9179.00
465.02	9416.56
465.23	9527.15
465.43	9236.34
465.64	9670.51
465.85	9463.66
466.06	9490.29
466.27	9690.99
466.47	9598.83
466.68	9856.87
466.89	9602.93
467.10	9969.51
467.30	9543.53
467.51	9873.26
467.72	9985.90
467.93	9756.52
468.14	9848.68
468.34	10008.42
468.55	10174.31
468.76	10020.71
468.97	9836.39
469.17	10119.01
469.38	10393.44
469.59	10551.14
469.80	10237.80
470.01	10170.21
470.21	10346.34
470.42	10514.27
470.63	10717.02
470.84	10633.05
471.04	10846.04
471.25	10751.84
471.46	10768.22
471.67	11052.89
471.87	10911.58
472.08	10942.30
472.29	11224.92
472.50	10854.23
472.70	10987.35
472.91	11059.03
473.12	11423.57
473.33	11446.10
473.53	11691.85
473.74	11478.86
473.95	11675.47
474.16	11714.38
474.36	11872.07
474.57	11743.05
474.78	11980.62
474.99	12105.54
475.19	12005.19
475.40	12091.21
475.61	12212.04
475.81	12242.76
476.02	12574.53
476.23	12269.38
476.44	12560.19
476.64	12760.89
476.85	12848.96
477.06	12644.16
477.27	12920.63
477.47	13201.21
477.68	12865.34
477.89	13012.79
478.09	13012.79
478.30	13090.62
478.51	13123.38
478.71	13385.52
478.92	13412.15
479.13	13553.46
479.34	13799.21
479.54	13635.38
479.75	13612.85
479.96	13700.91
480.16	13819.69
480.37	13971.24
480.58	14245.67
480.78	14192.42
480.99	14341.93
481.20	14405.41
481.41	14397.22
481.61	14395.17
481.82	14636.83
482.03	14511.91
482.23	14403.36
482.44	15064.86
482.65	14946.08
482.85	14954.27
483.06	15128.35
483.27	14954.27
483.47	15269.66
483.68	15445.78
483.89	15433.49
484.09	15378.20
484.30	15494.93
484.51	16002.83
484.71	15855.37
484.92	15623.95
485.13	15972.11
485.33	16027.40
485.54	16133.90
485.75	16135.95
485.95	16228.10
486.16	16254.73
486.37	16334.60
486.57	16674.56
486.78	16570.12
486.98	16711.42
487.19	16520.96
487.40	16994.04
487.60	16948.99
487.81	17182.46
488.02	17016.57
488.22	17094.40
488.43	17301.24
488.64	17102.59
488.84	17407.73
489.05	17696.50
489.25	17510.13
489.46	18001.65
489.67	17897.20
489.87	17768.18
490.08	18122.48
490.29	18331.37
490.49	18362.09
490.70	18482.92
490.90	18648.80
491.11	18554.60
491.32	18630.37
491.52	18507.49
491.73	18679.52
491.94	18790.11
492.14	18654.95
492.35	19070.68
492.55	19185.37
492.76	19205.85
492.97	19508.95
493.17	19582.68
493.38	19494.61
493.58	19592.92
493.79	19699.41
494.00	19527.38
494.20	19803.86
494.41	20014.80
494.61	20229.84
494.82	20162.25
495.02	20020.94
495.23	20315.85
495.44	20653.76
495.64	20596.42
495.85	20405.96
496.05	20690.63
496.26	20616.90
496.47	20852.42
496.67	20756.16
496.88	21096.13
497.08	21055.17
497.29	21507.77
497.49	21241.53
497.70	21243.58
497.91	21317.31
498.11	21544.63
498.32	21538.49
498.52	21683.89
498.73	21974.70
498.93	21880.50
499.14	22130.35
499.34	22027.95
499.55	21966.51
499.76	22163.12
499.96	22230.70
500.17	22216.36
500.37	22599.34
500.58	22310.57
500.78	22673.06
500.99	22451.88
501.19	22673.06
501.40	22718.12
501.60	22748.84
501.81	22851.24
502.02	23133.86
502.22	22714.02
502.43	23015.07
502.63	23596.70
502.84	23172.77
503.04	23484.06
503.25	23430.81
503.45	23447.19
503.66	23701.14
503.86	23695.00
504.07	24018.58
504.27	23453.34
504.48	24182.42
504.68	23887.51
504.89	24293.01
505.09	24571.53
505.30	24456.84
505.50	23961.23
505.71	24592.01
505.91	24280.72
506.12	24557.19
506.32	24559.24
506.53	24483.47
506.73	24792.71
506.94	24741.51
507.14	24639.11
507.35	24704.65
507.55	24725.13
507.76	25032.32
507.96	25085.57
508.17	24956.55
508.37	25181.82
508.58	25110.14
508.78	25415.29
508.99	25626.23
509.19	25716.34
509.40	25568.89
509.60	25570.94
509.81	25773.69
510.01	25564.79
510.22	25818.74
510.42	25691.77
510.63	26011.25
510.83	25845.37
511.04	25849.46
511.24	25978.48
511.44	26254.96
511.65	26490.48
511.85	26072.69
512.06	26351.21
512.26	26048.11
512.47	26115.70
512.67	26297.97
512.88	26531.44
513.08	26633.83
513.29	26492.52
513.49	26744.42
513.69	26725.99
513.90	26803.82
514.10	26746.47
514.31	26701.42
514.51	26887.78
514.72	26949.22
514.92	26871.40
515.13	26666.60
515.33	27125.35
515.53	26908.26
515.74	26965.60
515.94	26959.46
516.15	27207.26
516.35	27016.80
516.56	27248.22
516.76	27315.81
516.96	27592.28
517.17	27453.02
517.37	27260.51
517.58	27391.58
517.78	27858.52
517.99	27479.64
518.19	27606.62
518.39	27696.73
518.60	28268.11
518.80	27895.38
519.01	27858.52
519.21	28071.51
519.41	28048.98
519.62	27866.71
519.82	28128.85
520.03	28431.95
520.23	28513.87
520.43	28083.80
520.64	28855.88
520.84	28900.94
521.05	28624.46
521.25	28560.97
521.45	28741.19
521.66	28784.20
521.86	28419.66
522.07	28380.75
522.27	28575.31
522.47	28776.01
522.68	28984.90
522.88	29226.56
523.08	29316.67
523.29	29339.20
523.49	29201.99
523.70	28925.51
523.90	29707.83
524.10	29353.54
524.31	29767.23
524.51	29101.64
524.71	29914.68
524.92	29277.76
525.12	29867.58
525.33	29906.49
525.53	30099.00
525.73	29775.42
525.94	29873.72
526.14	30195.25
526.34	29738.55
526.55	30064.18
526.75	30176.82
526.95	30375.47
527.16	30187.06
527.36	30383.66
527.56	30500.40
527.77	30668.33
527.97	30451.25
528.17	30615.08
528.38	30852.65
528.58	30795.31
528.78	30909.99
528.99	30819.88
529.19	30899.75
529.39	30774.83
529.60	31501.86
529.80	31030.82
530.00	31311.39
530.21	31086.12
530.41	31583.77
530.61	31243.81
530.82	31426.08
531.02	31288.87
531.22	31677.98
531.43	32001.56
531.63	32026.14
531.83	32022.04
532.04	32515.60
532.24	31819.29
532.44	32040.47
532.64	32142.87
532.85	32271.89
533.05	32314.90
533.25	32321.04
533.46	32450.06
533.66	32699.92
533.86	32214.55
534.07	32687.63
534.27	32935.43
534.47	33041.93
534.67	33056.26
534.88	32626.19
535.08	33199.62
535.28	33152.52
535.49	32685.58
535.69	33510.91
535.89	33515.01
536.09	33834.49
536.30	34061.82
536.50	34029.05
536.70	33678.85
536.91	33756.67
537.11	33562.11
537.31	33838.59
537.51	33945.08
537.72	34291.19
537.92	34518.51
538.12	34616.82
538.32	34199.03
538.53	34186.74
538.73	33949.18
538.93	34479.60
539.13	34549.23
539.34	34588.14
539.54	34551.28
539.74	34682.35
539.94	34846.19
540.15	34958.83
540.35	35223.01
540.55	35083.75
540.75	35208.68
540.96	35247.59
541.16	35163.62
541.36	35393.00
541.56	35603.94
541.77	35642.85
541.97	35532.26
542.17	35444.20
542.37	35558.88
542.58	35995.10
542.78	35909.08
542.98	35755.49
543.18	35804.64
543.38	36222.42
543.59	36126.17
543.79	35786.21
543.99	36214.23
544.19	36181.46
544.40	36167.13
544.60	36715.98
544.80	36255.19
545.00	36476.37
545.20	36617.68
545.41	36558.29
545.61	36486.61
545.81	37113.29
546.01	37236.17
546.21	36503.00
546.42	36611.54
546.62	37223.88
546.82	36865.49
547.02	37111.24
547.22	37242.31
547.43	37019.08
547.63	37406.15
547.83	37559.75
548.03	37189.06
548.23	37584.32
548.44	37246.41
548.64	37365.19
548.84	37739.97
549.04	37713.34
549.24	38004.16
549.45	38165.95
549.65	37582.27
549.85	38061.50
550.05	38280.63
550.25	38309.30
550.45	38325.69
550.66	38362.55
550.86	38147.51
551.06	38266.30
551.26	38155.71
551.46	38487.48
551.66	38297.02
551.87	38489.52
552.07	38639.03
552.27	38679.99
552.47	38311.35
552.67	38946.22
552.87	38542.77
553.07	38901.17
553.28	38964.65
553.48	38868.40
553.68	38722.99
553.88	39208.36
554.08	39370.15
554.28	39364.01
554.48	39488.93
554.69	39445.93
554.89	39454.12
555.09	39605.67
555.29	39187.88
555.49	39634.34
555.69	39861.66
555.89	39589.28
556.10	39792.03
556.30	39896.48
556.50	40162.72
556.70	39746.98
556.90	39962.01
557.10	40113.56
557.30	39716.26
557.50	39923.10
557.70	40353.18
557.91	40488.34
558.11	40613.27
558.31	40643.99
558.51	40471.96
558.71	40584.60
558.91	40658.32
559.11	40504.73
559.31	40820.11
559.51	40797.59
559.72	40471.96
559.92	41131.40
560.12	40701.33
560.32	41020.81
560.52	40764.82
560.72	40992.14
560.92	41133.45
561.12	41319.82
561.32	41600.39
561.52	41158.03
561.72	41639.30
561.93	41153.93
562.13	41442.70
562.33	41207.18
562.53	41981.31
562.73	41487.75
562.93	41651.59
563.13	42126.72
563.33	41670.02
563.53	41942.40
563.73	41639.30
563.93	41770.37
564.13	42417.53
564.33	42153.34
564.53	42102.14
564.74	42218.88
564.94	42411.38
565.14	42446.20
565.34	42218.88
565.54	42143.10
565.74	42370.43
565.94	42564.98
566.14	42452.34
566.34	42380.67
566.54	43068.78
566.74	42382.71
566.94	42591.61
567.14	42872.18
567.34	42741.11
567.54	42526.07
567.74	42960.24
567.94	42982.77
568.14	43535.72
568.34	42964.34
568.54	42448.25
568.74	43103.60
568.94	43046.26
569.14	43459.94
569.34	43636.07
569.54	43136.37
569.75	43011.44
569.95	43740.52
570.15	43617.64
570.35	43707.75
570.55	43713.89
570.75	43644.26
570.95	43781.48
571.15	43728.23
571.35	43795.81
571.55	44074.34
571.75	43902.31
571.95	44115.29
572.15	43595.11
572.35	44406.11
572.55	44217.69
572.75	43963.75
572.95	43961.70
573.15	44365.15
573.35	44356.96
573.55	44381.53
573.75	44377.43
573.95	44723.54
574.15	44260.70
574.35	44213.60
574.55	44113.25
574.75	44893.52
574.95	44608.86
575.15	44639.57
575.34	44858.71
575.54	44975.44
575.74	45339.98
575.94	45102.42
576.14	45051.22
576.34	45454.67
576.54	45546.82
576.74	45126.99
576.94	45354.32
577.14	45366.60
577.34	45665.61
577.54	45139.28
577.74	45567.30
577.94	45350.22
578.14	45593.93
578.34	45960.51
578.54	45555.02
578.74	45739.33
578.94	46269.76
579.14	45753.67
579.34	45716.81
579.54	45665.61
579.74	46157.12
579.94	46314.81
580.13	46236.99
580.33	46253.37
580.53	46136.64
580.73	46316.86
580.93	46509.37
581.13	46300.48
581.33	46562.62
581.53	46791.99
581.73	46417.21
581.93	47011.12
582.13	46552.38
582.33	47220.02
582.53	46650.68
582.73	46683.45
582.92	46910.77
583.12	47070.51
583.32	47205.68
583.52	46996.79
583.72	46970.16
583.92	47226.16
584.12	47250.74
584.32	47643.94
584.52	46974.26
584.72	47340.85
584.92	47211.82
585.11	47764.78
585.31	47314.22
585.51	47414.57
585.71	46894.39
585.91	47908.13
586.11	47179.06
586.31	47482.16
586.51	47738.15
586.71	47590.70
586.91	48200.99
587.10	48098.59
587.30	47840.55
587.50	47998.24
587.70	48223.52
587.90	48110.88
588.10	48395.55
588.30	47908.13
588.50	48411.93
588.69	48250.14
588.89	47815.97
589.09	48256.29
589.29	48162.08
589.49	48538.91
589.69	48129.31
589.89	48606.49
590.08	48520.48
590.28	48289.06
590.48	48387.36
590.68	48543.00
590.88	47969.57
591.08	48602.39
591.28	48055.59
591.47	48860.44
591.67	48608.54
591.87	48680.22
592.07	49210.64
592.27	48837.91
592.47	48641.31
592.67	48858.39
592.86	48477.47
593.06	48796.95
593.26	49110.29
593.46	48645.40
593.66	48776.47
593.86	49042.71
594.05	49040.66
594.25	49247.50
594.45	48792.86
594.65	48782.62
594.85	49104.15
595.05	49218.83
595.24	49374.48
595.44	49122.58
595.64	49089.81
595.84	49345.81
596.04	49014.04
596.23	49470.73
596.43	49493.26
596.63	49358.09
596.83	49397.01
597.03	49440.01
597.22	49534.22
597.42	49532.17
597.62	49870.09
597.82	49927.43
598.02	50236.67
598.21	50164.99
598.41	49274.13
598.61	49761.54
598.81	49829.13
599.01	50197.76
599.20	49771.78
599.40	49691.91
599.60	49636.62
599.80	49802.50
600.00	49999.11
600.19	50212.10
600.39	50005.25
600.59	50226.43
600.79	49857.80
600.98	49728.78
601.18	50269.44
601.38	50242.82
601.58	50224.39
601.78	50197.76
601.97	50154.75
602.17	50779.39
602.37	50564.35
602.57	50779.39
602.76	50666.75
602.96	49880.33
603.16	50320.64
603.36	50509.05
603.55	50842.87
603.75	50537.72
603.95	50885.88
604.15	50556.16
604.34	50711.80
604.54	51084.53
604.74	50902.26
604.94	50945.27
605.13	50902.26
605.33	50386.18
605.53	50945.27
605.73	51567.85
605.92	50822.39
606.12	50857.21
606.32	51016.95
606.52	50894.07
606.71	50900.22
606.91	51221.75
607.11	51340.53
607.30	51145.97
607.50	51143.92
607.70	51533.04
607.90	51174.64
608.09	51410.16
608.29	51195.12
608.49	51174.64
608.68	51635.44
608.88	51561.71
609.08	51215.60
609.28	51602.67
609.47	51152.12
609.67	51559.66
609.87	51406.06
610.06	51991.78
610.26	51264.75
610.46	51598.57
610.66	51162.36
610.85	51578.09
611.05	51434.74
611.25	51705.07
611.44	51143.92
611.64	51483.89
611.84	51465.45
612.03	51361.01
612.23	51664.11
612.43	51678.44
612.62	51363.06
612.82	51715.31
613.02	51717.35
613.21	51268.85
613.41	51283.19
613.61	51600.62
613.80	51090.68
614.00	51574.00
614.20	52032.74
614.39	51778.79
614.59	51895.53
614.79	51254.51
614.98	51516.65
615.18	51125.49
615.38	51948.78
615.57	51541.23
615.77	51942.63
615.97	51381.49
616.16	51442.93
616.36	51580.14
616.56	51578.09
616.75	51410.16
616.95	51100.92
617.15	51743.98
617.34	51459.31
617.54	51588.33
617.74	51977.45
617.93	52010.21
618.13	50926.84
618.32	51948.78
618.52	51574.00
618.72	51229.94
618.91	51617.00
619.11	51143.92
619.31	51496.17
619.50	51414.26
619.70	51254.51
619.90	51705.07
620.09	51758.31
620.29	51973.35
620.48	51358.96
620.68	51952.87
620.88	51344.62
621.07	51504.37
621.27	51346.67
621.46	51279.09
621.66	51313.90
621.86	51264.75
622.05	51774.70
622.25	52004.07
622.44	51522.80
622.64	51502.32
622.84	51660.01
623.03	51385.58
623.23	51975.40
623.42	51561.71
623.62	51768.55
623.82	51678.44
624.01	51377.39
624.21	51619.05
624.40	51186.93
624.60	51795.18
624.80	51223.79
624.99	51643.63
625.19	50865.40
625.38	51016.95
625.58	51569.90
625.77	51758.31
625.97	51311.86
626.17	51770.60
626.36	51602.67
626.56	51725.55
626.75	51358.96
626.95	51483.89
627.14	51563.76
627.34	52079.85
627.54	51457.26
627.73	51557.61
627.93	51535.09
628.12	51244.27
628.32	51827.95
628.51	51907.82
628.71	51842.28
628.90	51660.01
629.10	51354.86
629.30	51496.17
629.49	51772.65
629.69	51633.39
629.88	51864.81
630.08	51461.36
630.27	51750.12
630.47	52024.55
630.66	51811.56
630.86	51827.95
631.05	51291.38
631.25	52083.94
631.44	52059.37
631.64	52014.31
631.84	51782.89
632.03	52278.50
632.23	51873.00
632.42	52532.45
632.62	51936.49
632.81	51873.00
633.01	52178.15
633.20	52141.28
633.40	52546.78
633.59	52346.08
633.79	51936.49
633.98	52280.55
634.18	52350.18
634.37	52192.48
634.57	51942.63
634.76	52401.38
634.96	51961.06
635.15	52286.69
635.35	51842.28
635.54	52116.71
635.74	52186.34
635.93	52372.70
636.13	52468.96
636.32	52593.89
636.52	52319.46
636.71	52495.58
636.91	52184.29
637.10	52499.68
637.30	52227.30
637.49	52280.55
637.69	52423.90
637.88	52221.16
638.08	52368.61
638.27	52438.24
638.46	52796.63
638.66	52231.40
638.85	52339.94
639.05	52520.16
639.24	52530.40
639.44	52038.89
639.63	52663.52
639.83	52927.70
640.02	52577.50
640.22	52520.16
640.41	53245.14
640.61	52440.29
640.80	53200.08
640.99	53249.24
641.19	53339.35
641.38	53009.62
641.58	52817.11
641.77	52935.90
641.97	52526.30
642.16	52804.83
642.36	52978.90
642.55	53585.10
642.74	52774.11
642.94	53925.07
643.13	53015.77
643.33	53441.74
643.52	53583.05
643.72	53691.60
643.91	53386.45
644.10	53400.79
644.30	53437.65
644.49	53228.76
644.69	53859.53
644.88	53382.35
645.08	53179.60
645.27	53820.62
645.46	53421.26
645.66	53351.63
645.85	53316.82
646.05	54029.51
646.24	53726.41
646.43	53560.53
646.63	54215.88
646.82	54236.36
647.02	53794.00
647.21	53744.84
647.40	53914.83
647.60	54056.14
647.79	54037.70
647.99	54322.37
648.18	54047.94
648.37	54381.76
648.57	54252.74
648.76	54408.39
648.96	54238.40
649.15	54541.50
649.34	54537.41
649.54	54762.68
649.73	53947.59
649.92	54701.25
650.12	54580.42
650.31	54916.28
650.51	54387.91
650.70	55092.41
650.89	54523.07
651.09	55016.63
651.28	55030.97
651.47	54713.53
651.67	54967.48
651.86	55514.29
652.06	54052.04
652.25	55096.50
652.44	54656.19
652.64	54981.82
652.83	54654.14
653.02	54740.16
653.22	54883.51
653.41	54760.64
653.60	54731.96
653.80	55063.74
653.99	55336.12
654.18	55153.85
654.38	54717.63
654.57	55379.12
654.76	55415.99
654.96	54908.09
655.15	54885.56
655.34	54564.03
655.54	54791.36
655.73	55545.01
655.92	55583.92
656.12	55661.74
656.31	55166.13
656.50	55481.52
656.70	55399.60
656.89	55309.49
657.08	55680.17
657.28	55321.78
657.47	55301.30
657.66	55565.49
657.86	54869.18
658.05	55278.77
658.24	55069.88
658.43	55655.60
658.63	55645.36
658.82	55383.22
659.01	55975.08
659.21	55602.35
659.40	55710.89
659.59	55571.63
659.79	55821.48
659.98	55641.26
660.17	55753.90
660.36	55579.82
660.56	55835.82
660.75	55993.51
660.94	55540.91
661.14	55872.68
661.33	55751.85
661.52	55145.65
661.71	56059.05
661.91	55293.11
662.10	55764.14
662.29	56089.77
662.49	55975.08
662.68	55930.03
662.87	55923.88
663.06	55973.03
663.26	55915.69
663.45	55962.79
663.64	55987.37
663.83	55991.47
664.03	56265.89
664.22	55987.37
664.41	55844.01
664.60	55977.13
664.80	56386.72
664.99	55891.12
665.18	55424.18
665.37	56528.03
665.57	56269.99
665.76	56077.48
665.95	56272.04
666.14	56534.18
666.34	56112.30
666.53	56038.57
666.72	56237.22
666.91	55934.12
667.11	56038.57
667.30	56341.67
667.49	55899.31
667.68	55927.98
667.87	56159.40
668.07	56233.13
668.26	56349.86
668.45	56341.67
668.64	55747.76
668.84	56808.61
669.03	56599.71
669.22	55837.87
669.41	56253.61
669.60	56536.23
669.80	56345.76
669.99	56380.58
670.18	56407.20
670.37	55948.46
670.57	56356.00
670.76	56124.58
670.95	56308.90
671.14	56190.12
671.33	56296.61
671.53	56515.75
671.72	56079.53
671.91	56212.65
672.10	56091.82
672.29	56071.34
672.48	56218.79
672.68	56679.58
672.87	55977.13
673.06	56218.79
673.25	55751.85
673.44	55985.32
673.64	55911.59
673.83	56239.27
674.02	56032.42
674.21	55684.27
674.40	56415.40
674.59	56042.66
674.79	55975.08
674.98	55841.96
675.17	56356.00
675.36	55866.54
675.55	56040.62
675.74	55428.27
675.94	55497.91
676.13	56011.95
676.32	56267.94
676.51	56427.68
676.70	56456.35
676.89	56374.44
677.08	56521.89
677.28	56186.02
677.47	56460.45
677.66	56251.56
677.85	56276.13
678.04	56091.82
678.23	56106.15
678.42	56046.76
678.62	56001.71
678.81	56405.16
679.00	55915.69
679.19	56747.17
679.38	56065.19
679.57	56032.42
679.76	56167.59
679.96	56286.37
680.15	56022.19
680.34	55762.09
680.53	56251.56
680.72	56124.58
680.91	56272.04
681.10	56110.25
681.29	56147.11
681.48	55334.07
681.68	55741.61
681.87	55399.60
682.06	55749.81
682.25	54942.91
682.44	55237.81
682.63	55565.49
682.82	55518.38
683.01	55401.65
683.20	55223.48
683.39	55524.53
683.59	55227.57
683.78	55469.23
683.97	55219.38
684.16	54961.34
684.35	55268.53
684.54	55321.78
684.73	55198.90
684.92	54850.75
685.11	54858.94
685.30	55428.27
685.49	55217.33
685.69	55137.46
685.88	55045.30
686.07	55237.81
686.26	54764.73
686.45	55301.30
686.64	55293.11
686.83	54637.76
687.02	54854.84
687.21	54910.14
687.40	54723.77
687.59	54811.84
687.78	54949.05
687.97	55305.40
688.16	54744.25
688.35	54512.83
688.54	54437.06
688.74	54600.89
688.93	55065.78
689.12	54848.70
689.31	54983.86
689.50	54303.94
689.69	53998.79
689.88	54107.33
690.07	54498.50
690.26	54662.33
690.45	54684.86
690.64	54058.18
690.83	53925.07
691.02	53982.41
691.21	54121.67
691.40	53884.11
691.59	54226.12
691.78	54279.36
691.97	54674.62
692.16	54072.52
692.35	54353.09
692.54	54301.89
692.73	54072.52
692.92	54047.94
693.11	54195.40
693.30	54203.59
693.49	53984.46
693.68	54000.84
693.87	54033.61
694.06	53476.56
694.25	53736.65
694.44	53701.84
694.63	53851.34
694.82	53699.79
695.01	53583.05
695.20	53382.35
695.39	53947.59
695.58	53220.56
695.77	53320.91
695.96	53185.75
696.15	53255.38
696.34	53337.30
696.53	53126.36
696.72	53716.17
696.91	52929.75
697.10	53118.17
697.29	53048.53
697.48	53253.33
697.67	52585.69
697.86	53212.37
698.05	52774.11
698.24	53302.48
698.43	52415.71
698.62	52759.77
698.81	52917.46
699.00	53239.00
699.19	52647.13
699.38	52827.35
699.57	52540.64
699.76	53003.48
699.95	52618.46
700.14	52561.12
700.32	52714.72
700.51	52380.90
700.70	53109.97
700.89	52479.20
701.08	52761.82
701.27	52370.66
701.46	52589.79
701.65	52307.17
701.84	52313.31
702.03	52202.72
702.22	52403.42
702.41	52102.37
702.60	52430.05
702.79	51944.68
702.98	51932.39
703.17	52045.03
703.35	51778.79
703.54	51959.02
703.73	51956.97
703.92	51950.82
704.11	51528.94
704.30	51522.80
704.49	51879.14
704.68	51670.25
704.87	51201.27
705.06	51404.02
705.25	51162.36
705.43	51209.46
705.62	51195.12
705.81	51332.34
706.00	51461.36
706.19	51035.38
706.38	50814.20
706.57	51168.50
706.76	51363.06
706.95	51340.53
707.14	50832.63
707.32	51016.95
707.51	50730.23
707.70	51166.45
707.89	50873.59
708.08	50832.63
708.27	50568.44
708.46	51004.66
708.65	50562.30
708.84	51041.53
709.02	50928.89
709.21	50717.95
709.40	50599.16
709.59	50717.95
709.78	50199.81
709.97	50650.36
710.16	50177.28
710.34	50343.17
710.53	50337.02
710.72	50263.30
710.91	50476.29
711.10	50283.78
711.29	50236.67
711.48	50226.43
711.66	49730.83
711.85	50210.05
712.04	49921.29
712.23	50029.83
712.42	50015.49
712.61	49904.90
712.80	50029.83
712.98	50107.65
713.17	49630.47
713.36	49587.47
713.55	49710.35
713.74	49333.52
713.93	49540.36
714.11	49515.79
714.30	49501.45
714.49	49542.41
714.68	49691.91
714.87	49825.03
715.06	49280.27
715.24	49329.42
715.43	49110.29
715.62	48864.53
715.81	49161.49
716.00	49321.23
716.18	49014.04
716.37	48919.83
716.56	48682.27
716.75	48829.72
716.94	49106.19
717.12	48733.46
717.31	48876.82
717.50	49001.75
717.69	48993.56
717.88	48346.40
718.06	48928.02
718.25	48921.88
718.44	48514.33
718.63	48477.47
718.82	48592.15
719.00	48543.00
719.19	48358.69
719.38	48000.29
719.57	48133.41
719.76	47699.24
719.94	47473.96
720.13	47889.70
720.32	47910.18
720.51	47670.57
720.69	48059.68
720.88	48276.77
721.07	47947.04
721.26	47416.62
721.44	47760.68
721.63	47267.12
721.82	47346.99
722.01	47256.88
722.20	47998.24
722.38	47433.00
722.57	47283.50
722.76	47324.46
722.95	46677.30
723.13	46806.33
723.32	46845.24
723.51	46499.13
723.70	46818.61
723.88	46984.50
724.07	46439.74
724.26	46896.44
724.44	45983.04
724.63	46775.61
724.82	46648.63
725.01	46531.90
725.19	46626.10
725.38	46376.25
725.57	46339.39
725.76	46529.85
725.94	45950.27
726.13	46210.37
726.32	46228.80
726.51	46107.97
726.69	46437.69
726.88	45954.37
727.07	46214.46
727.25	45929.80
727.44	45798.73
727.63	45753.67
727.82	46058.82
728.00	46005.57
728.19	45847.88
728.38	46124.35
728.56	45489.48
728.75	46128.45
728.94	46200.13
729.12	46261.57
729.31	45923.65
729.50	45759.81
729.69	46146.88
729.87	45815.11
730.06	45784.39
730.25	46327.10
730.43	46112.06
730.62	45725.00
730.81	45983.04
730.99	45868.36
731.18	45319.50
731.37	45714.76
731.55	46529.85
731.74	46177.60
731.93	45937.99
732.11	45856.07
732.30	45989.19
732.49	45659.46
732.67	45503.82
732.86	45784.39
733.05	45788.49
733.23	45602.12
733.42	45860.16
733.61	45684.04
733.79	45796.68
733.98	46028.10
734.17	45530.44
734.35	46007.62
734.54	45741.38
734.73	45942.08
734.91	45561.16
735.10	45481.29
735.29	45667.66
735.47	44979.54
735.66	45512.01
735.84	45514.06
736.03	45161.81
736.22	45591.88
736.40	45196.62
736.59	45593.93
736.78	45294.92
736.96	45284.68
737.15	45126.99
737.33	45040.98
737.52	45071.70
737.71	45086.03
737.89	44866.90
738.08	45210.96
738.27	44997.97
738.45	45663.56
738.64	45145.42
738.82	45112.66
739.01	44922.19
739.20	45292.88
739.38	44965.20
739.57	45159.76
739.75	45290.83
739.94	44936.53
740.13	45163.85
740.31	44698.97
740.50	44488.03
740.68	45012.31
740.87	45077.84
741.06	44586.33
741.24	44477.79
741.43	44684.63
741.61	44672.34
741.80	44688.73
741.99	45028.69
742.17	44438.87
742.36	44389.72
742.54	44508.50
742.73	44543.32
742.91	44645.72
743.10	44354.91
743.29	44709.21
743.47	44336.48
743.66	44080.48
743.84	44655.96
744.03	44604.76
744.21	44402.01
744.40	44889.43
744.59	44340.57
744.77	44354.91
744.96	44072.29
745.14	44602.71
745.33	44674.39
745.51	44225.89
745.70	44385.63
745.88	44512.60
746.07	44612.95
746.26	44062.05
746.44	43984.22
746.63	44354.91
746.81	44535.13
747.00	44162.40
747.18	44434.78
747.37	44641.62
747.55	44477.79
747.74	44539.22
747.92	43621.73
748.11	44023.14
748.29	44062.05
748.48	44551.51
748.66	44146.01
748.85	43924.83
749.03	43668.84
749.22	43797.86
749.41	43664.74
749.59	43728.23
749.78	43844.96
749.96	43388.27
750.15	43914.59
750.33	43728.23
750.52	43087.21
750.70	43644.26
750.89	43576.68
751.07	43408.75
751.26	43679.08
751.44	43595.11
751.63	43656.55
751.81	43275.63
752.00	43408.75
752.18	43539.82
752.37	43371.88
752.55	43488.62
752.74	43502.95
752.92	43165.04
753.10	42947.95
753.29	43380.07
753.47	42835.31
753.66	43124.08
753.84	43484.52
754.03	42931.57
754.21	43007.34
754.40	43445.61
754.58	43275.63
754.77	43316.59
754.95	42687.86
755.14	43300.20
755.32	42902.90
755.51	42712.44
755.69	42816.88
755.88	42802.55
756.06	42683.76
756.24	42788.21
756.43	42712.44
756.61	42767.73
756.80	43013.49
756.98	42558.84
757.17	43033.97
757.35	42628.47
757.54	42720.63
757.72	42243.45
757.90	42454.39
758.09	42452.34
758.27	42374.52
758.46	42491.26
758.64	42597.75
758.83	42976.62
759.01	42667.38
759.19	42597.75
759.38	42534.26
759.56	42945.90
759.75	42218.88
759.93	42372.47
760.12	42351.99
760.30	42313.08
760.48	42126.72
760.67	42165.63
760.85	42157.44
761.04	42139.00
761.22	42186.11
761.40	42065.28
761.59	42034.56
761.77	41837.95
761.96	41874.82
762.14	41831.81
762.32	41571.72
762.51	41543.05
762.69	41786.75
762.88	41911.68
763.06	42022.27
763.24	42036.61
763.43	42442.10
763.61	41682.31
763.80	41969.02
763.98	41559.43
764.16	41729.41
764.35	41600.39
764.53	41092.49
764.72	41854.34
764.90	41602.44
765.08	41649.54
765.27	41536.90
765.45	41022.86
765.63	40885.65
765.82	41766.27
766.00	41090.44
766.18	41487.75
766.37	41418.12
766.55	40957.33
766.74	41258.38
766.92	41311.63
767.10	41244.04
767.29	41076.11
767.47	40961.42
767.65	41018.77
767.84	41088.40
768.02	41090.44
768.20	40805.78
768.39	41198.99
768.57	41063.82
768.75	40830.35
768.94	41037.20
769.12	41280.91
769.30	40443.29
769.49	40881.55
769.67	40605.08
769.85	40387.99
770.04	40693.14
770.22	40387.99
770.40	40318.36
770.59	40082.84
770.77	40703.38
770.95	40680.85
771.14	40113.56
771.32	40093.08
771.50	40289.69
771.69	39986.59
771.87	40338.84
772.05	40150.43
772.24	40074.65
772.42	40381.85
772.60	39568.80
772.78	39763.36
772.97	39921.05
773.15	40127.90
773.33	39847.33
773.52	39816.61
773.70	40228.25
773.88	40351.13
774.07	40035.74
774.25	39943.58
774.43	40318.36
774.61	40064.41
774.80	40439.19
774.98	40074.65
775.16	40031.65
775.34	39777.70
775.53	39939.49
775.71	40312.22
775.89	40035.74
776.08	40363.42
776.26	40322.46
776.44	40414.62
776.62	40361.37
776.81	40084.89
776.99	40336.79
777.17	40244.63
777.35	40132.00
777.54	40701.33
777.72	40322.46
777.90	40338.84
778.08	40813.97
778.27	40560.02
778.45	40539.54
778.63	40971.66
778.81	40408.47
779.00	40795.54
779.18	40947.09
779.36	40760.72
779.54	40484.25
779.73	40566.16
779.91	40891.79
780.09	40678.80
780.27	40705.43
780.46	41135.50
780.64	41168.27
780.82	40797.59
781.00	40994.19
781.19	41162.12
781.37	41096.59
781.55	41215.37
781.73	41205.13
781.91	41035.15
782.10	41145.74
782.28	41266.57
782.46	41137.55
782.64	41178.51
782.82	41153.93
783.01	41538.95
783.19	41274.76
783.37	41426.31
783.55	41123.21
783.74	41497.99
783.92	41244.04
784.10	41371.02
784.28	41457.03
784.46	41102.73
784.64	41549.19
784.83	41373.06
785.01	41780.61
785.19	40883.60
785.37	41727.36
785.55	41682.31
785.74	41221.52
785.92	41190.80
786.10	41262.47
786.28	41420.17
786.46	41440.65
786.64	40734.10
786.83	41471.37
787.01	41080.21
787.19	41387.40
787.37	40973.71
787.55	41350.54
787.74	40750.48
787.92	41026.96
788.10	40977.81
788.28	40334.74
788.46	40797.59
788.64	40600.98
788.82	40994.19
789.01	40398.23
789.19	40893.84
789.37	40584.60
789.55	40693.14
789.73	40506.77
789.91	40211.87
790.09	40594.84
790.28	40240.54
790.46	40254.87
790.64	40410.52
790.82	40205.72
791.00	40031.65
791.18	40144.28
791.36	40220.06
791.55	40355.22
791.73	40043.93
791.91	39814.56
792.09	39861.66
792.27	39957.92
792.45	39564.71
792.63	39208.36
792.81	39421.35
793.00	39746.98
793.18	39435.69
793.36	39206.31
793.54	39284.14
793.72	39232.94
793.90	39099.82
794.08	38806.96
794.26	39415.21
794.44	38821.30
794.62	38636.98
794.81	38905.26
794.99	38821.30
795.17	38485.43
795.35	38194.62
795.53	38663.60
795.71	38542.77
795.89	38741.42
796.07	37862.85
796.25	37975.48
796.43	38020.54
796.61	37694.91
796.80	37735.87
796.98	38243.77
797.16	37766.59
797.34	37959.10
797.52	37533.12
797.70	37803.46
797.88	37926.33
798.06	37486.02
798.24	37490.12
798.42	37344.71
798.60	37217.74
798.78	37144.01
798.96	37225.93
799.14	36697.55
799.32	37086.67
799.51	36546.00
799.69	36871.63
799.87	36781.52
800.05	36419.03
800.23	36984.27
800.41	36562.39
800.59	36734.42
800.77	35997.15
800.95	36328.92
801.13	36556.24
801.31	36146.65
801.49	36203.99
801.67	35628.51
801.85	36244.95
802.03	35495.39
802.21	35243.49
802.39	35298.79
802.57	35685.86
802.75	35499.49
802.93	35573.22
803.11	35382.76
803.29	35175.91
803.47	34987.50
803.65	34952.68
803.83	34868.72
804.01	35212.77
804.19	34362.87
804.37	34567.66
804.55	34903.53
804.73	34784.75
804.91	34684.40
805.09	34401.78
805.27	34559.47
805.45	34661.87
805.63	34283.00
805.81	34424.31
805.99	34444.79
806.17	34442.74
806.35	34215.41
806.53	34049.53
806.71	33988.09
806.89	33883.64
807.07	33922.55
807.25	34332.15
807.43	33637.89
807.61	33869.31
807.79	33426.95
807.97	33064.46
808.15	33629.69
808.33	33316.36
808.51	33488.38
808.69	33306.12
808.87	33189.38
809.05	32998.92
809.23	32982.54
809.41	32699.92
809.59	32955.91
809.77	33054.22
809.95	32458.26
810.13	32878.09
810.31	32661.01
810.49	32914.95
810.67	32327.19
810.84	32511.50
811.02	32503.31
811.20	32013.85
811.38	32278.04
811.56	31876.63
811.74	32032.28
811.92	31821.34
812.10	31993.37
812.28	32353.81
812.46	31856.15
812.64	32177.68
812.82	32034.33
813.00	32003.61
813.18	31696.41
813.36	31419.94
813.53	31112.74
813.71	31790.62
813.89	31585.82
814.07	31680.03
814.25	31514.14
814.43	31202.85
814.61	31221.28
814.79	30793.26
814.97	31020.58
815.15	31075.88
815.33	30524.97
815.50	30469.68
815.68	31168.04
815.86	31204.90
816.04	30729.77
816.22	30615.08
816.40	30604.84
816.58	30578.22
816.76	30471.73
816.94	30400.05
817.11	30555.69
817.29	30158.39
817.47	30219.83
817.65	30301.75
817.83	30105.14
818.01	29890.10
818.19	29681.21
818.37	29826.62
818.54	29906.49
818.72	29804.09
818.90	30053.94
819.08	30213.68
819.26	29847.10
819.44	29658.68
819.62	29539.90
819.80	29873.72
819.97	29609.53
820.15	29480.51
820.33	28898.89
820.51	29453.89
820.69	28880.46
820.87	29279.81
821.05	29685.31
821.22	28761.67
821.40	28618.32
821.58	29128.26
821.76	29056.58
821.94	29027.91
822.12	28698.19
822.29	29253.19
822.47	28735.05
822.65	29269.57
822.83	28673.61
823.01	28462.67
823.19	28591.69
823.36	28321.36
823.54	28464.72
823.72	28311.12
823.90	28706.38
824.08	28446.29
824.25	28567.12
824.43	28141.14
824.61	28235.35
824.79	28556.88
824.97	28104.28
825.15	28290.64
825.32	27919.96
825.50	27758.17
825.68	28022.36
825.86	27932.25
826.04	27901.53
826.21	27815.51
826.39	28005.97
826.57	27993.68
826.75	27905.62
826.93	27911.77
827.10	27530.84
827.28	27424.35
827.46	27694.68
827.64	27428.45
827.81	27498.08
827.99	27418.21
828.17	27309.66
828.35	27274.85
828.53	27276.90
828.70	27414.11
828.88	27295.33
829.06	27336.29
829.24	27285.09
829.41	27301.47
829.59	27197.02
829.77	26848.87
829.95	26957.41
830.12	27043.43
830.30	27037.28
830.48	27250.27
830.66	26850.92
830.84	26887.78
831.01	26553.96
831.19	26848.87
831.37	26601.07
831.55	26648.17
831.72	26596.97
831.90	26809.96
832.08	26445.42
832.25	26424.94
832.43	26551.91
832.61	26203.76
832.79	26242.67
832.96	25960.05
833.14	26314.35
833.32	26470.00
833.50	26127.99
833.67	26125.94
833.85	26185.33
834.03	25931.38
834.20	26158.70
834.38	25986.68
834.56	26123.89
834.74	25693.82
834.91	25951.86
835.09	25513.59
835.27	25683.58
835.44	25796.21
835.62	25241.21
835.80	25740.92
835.98	25501.31
836.15	25587.32
836.33	25497.21
836.51	25857.65
836.68	25292.41
836.86	25398.91
837.04	25679.48
837.21	25329.28
837.39	25380.48
837.57	25476.73
837.75	25263.74
837.92	24997.51
838.10	24987.27
838.28	24854.15
838.45	25140.86
838.63	25124.48
838.81	24931.97
838.98	24983.17
839.16	24919.68
839.34	24589.96
839.51	24956.55
839.69	24635.02
839.87	24551.05
840.04	24768.13
840.22	24708.74
840.40	24540.81
840.57	24354.44
840.75	24622.73
840.93	24407.69
841.10	24465.03
841.28	24667.78
841.46	24186.51
841.63	24444.56
841.81	24360.59
841.98	24338.06
842.16	24360.59
842.34	24182.42
842.51	23938.71
842.69	24379.02
842.87	23967.38
843.04	24344.20
843.22	23934.61
843.40	24129.17
843.57	23791.25
843.75	23848.60
843.92	23959.19
844.10	23768.73
844.28	24204.94
844.45	23748.25
844.63	23981.71
844.81	23590.55
844.98	23754.39
845.16	24000.15
845.33	23787.16
845.51	23776.92
845.69	23600.79
845.86	23658.14
846.04	23277.21
846.21	23543.45
846.39	23281.31
846.57	23281.31
846.74	23363.23
846.92	23352.99
847.09	22918.82
847.27	23170.72
847.45	23180.96
847.62	23090.85
847.80	23230.11
847.97	23287.45
848.15	23047.84
848.32	23080.61
848.50	23084.70
848.68	22750.88
848.85	22922.91
849.03	22802.08
849.20	22800.04
849.38	23049.89
849.56	22943.39
849.73	22789.80
849.91	22695.59
850.08	23021.22
850.26	22822.56
850.43	22642.34
850.61	22664.87
850.78	22345.39
850.96	22341.29
851.14	22079.15
851.31	22535.85
851.49	22408.87
851.66	22644.39
851.84	22361.77
852.01	22283.95
852.19	22202.03
852.36	22070.96
852.54	22085.30
852.71	22077.10
852.89	22306.48
853.07	22470.31
853.24	22093.49
853.42	22005.42
853.59	21814.96
853.77	22030.00
853.94	22167.21
854.12	22433.45
854.29	21841.59
854.47	21968.56
854.64	21878.45
854.82	21817.01
854.99	21837.49
855.17	21692.08
855.34	21651.13
855.52	21864.11
855.69	22189.74
855.87	21624.50
856.04	21384.89
856.22	21716.66
856.39	21337.79
856.57	21718.71
856.74	21628.60
856.92	21657.27
857.09	21520.06
857.27	21272.25
857.44	21597.88
857.62	21499.58
857.79	21409.47
857.97	21382.84
858.14	21419.71
858.32	21368.51
858.49	21055.17
858.67	21200.57
858.84	21044.93
859.02	21120.70
859.19	21006.02
859.37	20977.34
859.54	20899.52
859.72	21071.55
859.89	21042.88
860.06	21042.88
860.24	20745.92
860.41	21024.45
860.59	20743.88
860.76	20944.58
860.94	20616.90
861.11	20672.20
861.29	20778.69
861.46	21026.50
861.64	20358.86
861.81	20360.91
861.98	20588.23
862.16	20584.13
862.33	20092.62
862.51	20455.11
862.68	20500.17
862.86	20645.57
863.03	20098.77
863.21	20129.48
863.38	20354.76
863.55	20149.96
863.73	20498.12
863.90	20457.16
864.08	20211.40
864.25	20186.83
864.43	20096.72
864.60	20070.09
864.77	20014.80
864.95	19922.64
865.12	19482.33
865.30	20106.96
865.47	20029.13
865.64	20119.24
865.82	19930.83
865.99	19920.59
866.17	19945.17
866.34	19713.75
866.51	19818.19
866.69	19678.93
866.86	19666.64
867.04	19674.84
867.21	19775.19
867.38	19529.43
867.56	19345.11
867.73	19265.24
867.91	19558.10
868.08	19642.07
868.25	19257.05
868.43	19097.31
868.60	19117.79
868.78	19044.06
868.95	19277.53
869.12	19246.81
869.30	18956.00
869.47	19218.14
869.64	19017.44
869.82	19134.17
869.99	19072.73
870.16	19113.69
870.34	18912.99
870.51	18912.99
870.69	18888.42
870.86	18935.52
871.03	18697.95
871.21	18759.39
871.38	18851.55
871.55	18888.42
871.73	18704.10
871.90	18673.38
872.07	18464.49
872.25	18472.68
872.42	18587.36
872.59	18550.50
872.77	18478.82
872.94	18505.45
873.11	18458.34
873.29	18679.52
873.46	18546.40
873.63	18433.77
873.81	18341.61
873.98	18317.03
874.15	18030.32
874.33	18093.80
874.50	17946.35
874.67	18042.60
874.85	17696.50
875.02	17944.30
875.19	17778.42
875.37	17499.89
875.54	17872.62
875.71	17757.94
875.88	17594.10
876.06	17805.04
876.23	17626.87
876.40	17536.76
876.58	17870.58
876.75	17762.03
876.92	17463.03
877.10	17422.07
877.27	17299.19
877.44	17379.06
877.61	17336.06
877.79	17184.51
877.96	17295.10
878.13	17280.76
878.31	16905.98
878.48	17078.01
878.65	16903.93
878.82	16987.90
879.00	17041.15
879.17	17213.18
879.34	17176.31
879.51	16951.04
879.69	17004.28
879.86	16932.61
880.03	16779.01
880.21	16643.84
880.38	16885.50
880.55	17006.33
880.72	16678.66
880.90	16879.36
881.07	16652.03
881.24	16623.36
881.41	16516.87
881.59	16584.45
881.76	16531.20
881.93	16336.65
882.10	16197.38
882.28	16461.57
882.45	16422.66
882.62	16326.41
882.79	16457.48
882.96	16234.25
883.14	16418.57
883.31	16424.71
883.48	16205.58
883.65	16488.20
883.83	16555.78
884.00	16365.32
884.17	16117.51
884.34	16385.80
884.51	16213.77
884.69	16271.11
884.86	16103.18
885.03	16209.67
885.20	16017.16
885.38	16183.05
885.55	16111.37
885.72	16011.02
885.89	16037.64
886.06	16074.51
886.24	16203.53
886.41	16215.82
886.58	16148.23
886.75	16013.07
886.92	15740.69
887.10	16047.88
887.27	15918.86
887.44	15939.34
887.61	16088.84
887.78	15767.31
887.95	15871.76
888.13	15494.93
888.30	15453.97
888.47	15746.83
888.64	15728.40
888.81	15662.86
888.99	15535.89
889.16	15359.77
889.33	15539.99
889.50	15290.13
889.67	15322.90
889.84	15599.38
890.01	15275.80
890.19	15429.40
890.36	15525.65
890.53	15593.23
890.70	15136.54
890.87	15517.46
891.04	15290.13
891.22	15298.33
891.39	15187.74
891.56	15077.15
891.73	15351.57
891.90	15085.34
892.07	15271.70
892.24	15191.83
892.42	15081.24
892.59	14954.27
892.76	14874.40
892.93	15163.16
893.10	15019.80
893.27	14819.10
893.44	14864.16
893.61	14704.42
893.79	15064.86
893.96	14876.44
894.13	14802.72
894.30	14976.80
894.47	14714.66
894.64	15124.25
894.81	14886.68
894.98	14972.70
895.15	14872.35
895.33	14749.47
895.50	14772.00
895.67	15050.52
895.84	14894.88
896.01	14931.74
896.18	14507.81
896.35	15052.57
896.52	14731.04
896.69	14579.49
896.86	14634.78
897.04	14642.98
897.21	14692.13
897.38	14692.13
897.55	14710.56
897.72	14735.14
897.89	14810.91
898.06	14735.14
898.23	14778.14
898.40	14630.69
898.57	14554.91
898.74	14786.33
898.91	14761.76
899.08	14911.26
899.26	14804.77
899.43	14841.63
899.60	14489.38
899.77	14655.26
899.94	14477.09
900.11	14540.58
900.28	14526.24
900.45	14444.32
900.62	14501.67
900.79	14628.64
900.96	14774.05
901.13	14950.17
901.30	14581.54
901.47	14493.47
901.64	14579.49
901.81	14749.47
901.98	14688.03
902.15	14741.28
902.32	14462.76
902.49	14608.16
902.66	14653.22
902.83	14552.87
903.01	14593.83
903.18	14667.55
903.35	14565.15
903.52	14409.51
903.69	14737.18
903.86	14602.02
904.03	14620.45
904.20	14745.38
904.37	14833.44
904.54	14616.35
904.71	14509.86
904.88	14665.50
905.05	14352.16
905.22	14372.64
905.39	14403.36
905.56	14389.03
905.73	14509.86
905.90	14849.82
906.07	14565.15
906.24	14800.67
906.41	14360.36
906.58	14532.39
906.75	14663.46
906.92	14303.01
907.09	14595.87
907.26	14628.64
907.43	14337.83
907.60	14559.01
907.77	14487.33
907.93	14685.98
908.10	14444.32
908.27	14339.88
908.44	14362.40
908.61	14147.37
908.78	14231.33
908.95	14606.11
909.12	14382.88
909.29	14374.69
909.46	14245.67
909.63	14454.56
909.80	14444.32
909.97	14724.90
910.14	14421.80
910.31	14296.87
910.48	14366.50
910.65	14542.63
910.82	14438.18
910.99	14202.66
911.16	14409.51
911.33	14108.46
911.50	14268.20
911.66	14307.11
911.83	14460.71
912.00	14208.81
912.17	14049.07
912.34	14108.46
912.51	14083.88
912.68	14104.36
912.85	14026.54
913.02	13997.87
913.19	13807.41
913.36	14149.42
913.53	14124.84
913.70	13653.81
913.86	14190.38
914.03	13780.78
914.20	13999.91
914.37	13868.84
914.54	13776.69
914.71	13811.50
914.88	13991.72
915.05	13942.57
915.22	13651.76
915.39	13799.21
915.55	13608.75
915.72	13637.42
915.89	13569.84
916.06	13584.18
916.23	13668.14
916.40	13543.22
916.57	13313.84
916.74	13514.55
916.91	13422.39
917.07	13365.04
917.24	13592.37
917.41	13158.20
917.58	13283.13
917.75	13229.88
917.92	13047.61
918.09	13276.98
918.26	13168.44
918.42	13066.04
918.59	13307.70
918.76	13141.82
918.93	12885.82
919.10	12877.63
919.27	12918.59
919.44	12980.03
919.60	13164.34
919.77	12851.00
919.94	12773.18
920.11	12914.49
920.28	12769.09
920.45	12810.04
920.61	12488.51
920.78	12744.51
920.95	12687.17
921.12	12644.16
921.29	12371.78
921.46	12486.47
921.62	12334.92
921.79	12545.86
921.96	12367.68
922.13	12326.72
922.30	12179.27
922.47	12322.63
922.63	12031.82
922.80	12156.74
922.97	12255.04
923.14	11904.84
923.31	12205.89
923.47	12078.92
923.64	11923.27
923.81	11874.12
923.98	11802.44
924.15	11964.23
924.32	12003.14
924.48	11751.24
924.65	11835.21
924.82	11761.48
924.99	11779.92
925.15	11577.17
925.32	11587.41
925.49	11437.91
925.66	11411.28
925.83	11435.86
925.99	11312.98
926.16	11462.48
926.33	11231.06
926.50	11061.08
926.67	11360.08
926.83	11335.51
927.00	11130.71
927.17	10997.59
927.34	10927.96
927.50	11138.90
927.67	11157.33
927.84	10872.67
928.01	10989.40
928.17	10725.21
928.34	10717.02
928.51	10651.49
928.68	10727.26
928.84	10530.66
929.01	10669.92
929.18	10532.70
929.35	10600.29
929.51	10616.67
929.68	10483.55
929.85	10401.63
930.02	10342.24
930.18	10270.56
930.35	10327.91
930.52	10542.94
930.69	10119.01
930.85	10078.05
931.02	10020.71
931.19	10141.54
931.36	10057.57
931.52	10200.93
931.69	10010.47
931.86	9949.03
932.02	9744.24
932.19	9938.79
932.36	9701.23
932.53	9766.76
932.69	9498.48
932.86	9797.48
933.03	9815.91
933.19	9281.39
933.36	9670.51
933.53	9574.25
933.70	9391.98
933.86	9369.46
934.03	9506.67
934.20	9316.21
934.36	9146.23
934.53	9195.38
934.70	9029.49
934.86	9111.41
935.03	8892.28
935.20	8980.34
935.36	8820.60
935.53	8683.39
935.70	8720.25
935.86	8822.65
936.03	8765.31
936.20	8380.29
936.36	8423.30
936.53	8566.65
936.70	8402.82
936.86	8421.25
937.03	8249.22
937.20	8001.41
937.36	8198.02
937.53	7790.47
937.70	7894.92
937.86	7722.89
938.03	7786.38
938.20	7745.42
938.36	7606.16
938.53	7505.81
938.70	7540.62
938.86	7362.45
939.03	7178.13
939.20	7288.72
939.36	7161.75
939.53	7085.97
939.70	7147.41
939.86	6903.70
940.03	6832.02
940.19	6758.30
940.36	6631.32
940.53	6621.08
940.69	6438.81
940.86	6590.36
941.03	6442.91
941.19	6254.50
941.36	6561.69
941.52	6223.78
941.69	6092.71
941.86	6141.86
942.02	6117.28
942.19	5984.16
942.35	6125.47
942.52	5912.49
942.69	6025.12
942.85	5752.74
943.02	5844.90
943.18	5746.60
943.35	5697.45
943.52	5717.93
943.68	5566.38
943.85	5746.60
944.01	5425.07
944.18	5480.36
944.35	5453.74
944.51	5509.04
944.68	5406.64
944.84	5269.42
945.01	5279.66
945.17	5519.28
945.34	5513.13
945.51	5271.47
945.67	5484.46
945.84	5369.77
946.00	5257.14
946.17	5400.49
946.33	5232.56
946.50	5380.01
946.67	5400.49
946.83	5230.51
947.00	5328.81
947.16	5310.38
947.33	5279.66
947.49	5261.23
947.66	5167.03
947.82	5173.17
947.99	5144.50
948.16	5238.70
948.32	5302.19
948.49	5361.58
948.65	5257.14
948.82	5226.42
948.98	5261.23
949.15	5048.24
949.31	5294.00
949.48	5261.23
949.64	5152.69
949.81	5070.77
949.97	5158.83
950.14	5316.53
950.30	5191.60
950.47	5371.82
950.63	5222.32
950.80	5164.98
950.96	5308.34
951.13	5365.68
951.30	5277.62
951.46	5226.42
951.63	5334.96
951.79	5398.45
951.96	5312.43
952.12	5214.13
952.29	5263.28
952.45	5279.66
952.62	5367.73
952.78	5205.94
952.94	5320.62
953.11	5300.14
953.27	5183.41
953.44	5435.31
953.60	5296.05
953.77	5492.65
953.93	5425.07
954.10	5326.77
954.26	5400.49
954.43	5294.00
954.59	5502.89
954.76	5623.72
954.92	5265.33
955.09	5554.09
955.25	5390.25
955.42	5466.03
955.58	5582.76
955.75	5380.01
955.91	5359.53
956.07	5357.49
956.24	5611.43
956.40	5248.94
956.57	5498.80
956.73	5459.88
956.90	5478.32
957.06	5441.45
957.23	5318.57
957.39	5369.77
957.56	5476.27
957.72	5490.60
957.88	5267.38
958.05	5455.79
958.21	5451.69
958.38	5513.13
958.54	5494.70
958.71	5457.84
958.87	5484.46
959.03	5351.34
959.20	5418.93
959.36	5298.10
959.53	5474.22
959.69	5322.67
959.85	5382.06
960.02	5324.72
960.18	5423.02
960.35	5466.03
960.51	5496.75
960.68	5296.05
960.84	5425.07
961.00	5431.21
961.17	5355.44
961.33	5486.51
961.50	5504.94
961.66	5404.59
961.82	5298.10
961.99	5500.84
962.15	5353.39
962.31	5447.60
962.48	5539.76
962.64	5423.02
962.81	5318.57
962.97	5484.46
963.13	5439.40
963.30	5474.22
963.46	5410.73
963.62	5423.02
963.79	5433.26
963.95	5433.26
964.12	5441.45
964.28	5509.04
964.44	5277.62
964.61	5388.21
964.77	5269.42
964.93	5478.32
965.10	5359.53
965.26	5171.12
965.42	5365.68
965.59	5291.95
965.75	5240.75
965.92	5240.75
966.08	5369.77
966.24	5281.71
966.41	5255.09
966.57	5343.15
966.73	5300.14
966.90	5296.05
967.06	5148.59
967.22	5025.72
967.39	5193.65
967.55	5097.39
967.71	5261.23
967.88	5263.28
968.04	5025.72
968.20	5148.59
968.37	5160.88
968.53	5091.25
968.69	5220.27
968.85	5236.66
969.02	5158.83
969.18	5298.10
969.34	5228.46
969.51	5248.94
969.67	5238.70
969.83	4949.94
970.00	5171.12
970.16	5083.06
970.32	5029.81
970.48	5119.92
970.65	5121.97
970.81	4829.11
970.97	4978.61
971.14	4908.98
971.30	5042.10
971.46	5083.06
971.63	4988.85
971.79	5070.77
971.95	4951.99
972.11	4892.60
972.28	4997.04
972.44	5081.01
972.60	4773.82
972.76	5056.43
972.93	4904.89
973.09	4974.52
973.25	4941.75
973.42	4951.99
973.58	4886.45
973.74	4880.31
973.90	4841.40
974.07	4997.04
974.23	4896.69
974.39	4888.50
974.55	4896.69
974.72	4777.91
974.88	4671.42
975.04	4689.85
975.20	4782.01
975.37	4818.87
975.53	4616.12
975.69	4911.03
975.85	4702.14
976.01	4683.70
976.18	4612.03
976.34	4642.75
976.50	4804.53
976.66	4847.54
976.83	4792.25
976.99	4648.89
977.15	4687.80
977.31	4607.93
977.47	4743.10
977.64	4628.41
977.80	4595.64
977.96	4628.41
978.12	4712.38
978.29	4665.27
978.45	4493.24
978.61	4503.48
978.77	4702.14
978.93	4646.84
979.10	4466.62
979.26	4403.13
979.42	4585.40
979.58	4372.41
979.74	4544.44
979.91	4507.58
980.07	4423.61
980.23	4554.68
980.39	4450.24
980.55	4591.55
980.71	4374.46
980.88	4300.73
981.04	4401.08
981.20	4409.28
981.36	4485.05
981.52	4464.57
981.68	4278.21
981.85	4507.58
982.01	4339.65
982.17	4380.61
982.33	4356.03
982.49	4435.90
982.65	4239.30
982.82	4376.51
982.98	4296.64
983.14	4214.72
983.30	4321.21
983.46	4329.41
983.62	4356.03
983.79	4233.15
983.95	4079.55
984.11	4206.53
984.27	4243.39
984.43	4120.51
984.59	4231.10
984.75	4214.72
984.91	4089.79
985.08	4243.39
985.24	4091.84
985.40	4065.22
985.56	4112.32
985.72	4171.71
985.88	4132.80
986.04	4075.46
986.20	3901.38
986.37	4091.84
986.53	4059.07
986.69	4110.27
986.85	4007.87
987.01	4042.69
987.17	4177.86
987.33	4048.83
987.49	4014.02
987.65	4009.92
987.82	3973.06
987.98	3925.96
988.14	3856.33
988.30	4009.92
988.46	3887.04
988.62	4034.50
988.78	3854.28
988.94	3942.34
989.10	3925.96
989.26	3850.18
989.42	3876.80
989.59	3778.50
989.75	3882.95
989.91	3870.66
990.07	3704.78
990.23	3813.32
990.39	3946.44
990.55	3837.89
990.71	3723.21
990.87	3772.36
991.03	3833.80
991.19	3790.79
991.35	3712.97
991.51	3784.65
991.67	3868.61
991.83	3745.73
992.00	3698.63
992.16	3674.06
992.32	3731.40
992.48	3727.30
992.64	3704.78
992.80	3745.73
992.96	3780.55
993.12	3723.21
993.28	3647.43
993.44	3657.67
993.60	3743.69
993.76	3719.11
993.92	3719.11
994.08	3596.23
994.24	3692.49
994.40	3698.63
994.56	3680.20
994.72	3581.90
994.88	3540.94
995.04	3612.62
995.20	3626.95
995.36	3530.70
995.52	3534.79
995.68	3557.32
995.84	3516.36
996.00	3575.75
996.16	3506.12
996.32	3495.88
996.48	3538.89
996.64	3620.81
996.80	3354.57
996.96	3481.55
997.12	3348.43
997.28	3393.48
997.44	3375.05
997.60	3364.81
997.76	3495.88
997.92	3479.50
998.08	3477.45
998.24	3370.96
998.40	3395.53
998.56	3362.76
998.72	3319.76
998.88	3295.18
999.04	3305.42
999.20	3387.34
999.36	3309.52
999.52	3436.49
999.68	3301.33
999.84	3332.05
1000.00	3346.38
1000.16	3321.81
1000.32	3373.00
1000.48	3264.46
1000.64	3213.26
1000.80	3155.92
1000.95	3172.30
1001.11	3217.36
1001.27	3092.43
1001.43	3264.46
1001.59	3110.86
1001.75	3166.16
1001.91	3200.98
1002.07	3108.82
1002.23	3106.77
1002.39	3133.39
1002.55	3215.31
1002.71	3213.26
1002.87	3028.95
1003.03	3100.62
1003.19	3059.67
1003.34	3141.58
1003.50	3061.71
1003.66	3227.60
1003.82	3145.68
1003.98	3030.99
1004.14	3059.67
1004.30	3053.52
1004.46	3055.57
1004.62	3026.90
1004.78	3016.66
1004.94	2992.08
1005.09	3069.91
1005.25	3088.34
1005.41	2996.18
1005.57	2996.18
1005.73	2938.84
1005.89	2893.78
1006.05	3018.71
1006.21	2914.26
1006.37	2924.50
1006.52	3028.95
1006.68	2854.87
1006.84	3045.33
1007.00	2879.44
1007.16	2955.22
1007.32	2906.07
1007.48	2858.96
1007.64	2885.59
1007.79	2863.06
1007.95	2809.81
1008.11	2949.08
1008.27	2863.06
1008.43	2967.51
1008.59	2824.15
1008.75	2961.36
1008.91	2899.92
1009.06	2848.72
1009.22	2813.91
1009.38	2852.82
1009.54	2813.91
1009.70	2836.44
1009.86	2772.95
1010.01	2871.25
1010.17	2617.30
1010.33	2777.05
1010.49	2772.95
1010.65	2729.94
1010.81	2625.50
1010.96	2846.68
1011.12	2695.13
1011.28	2721.75
1011.44	2742.23
1011.60	2672.60
1011.76	2623.45
1011.91	2789.33
1012.07	2643.93
1012.23	2574.30
1012.39	2531.29
1012.55	2723.80
1012.71	2631.64
1012.86	2588.63
1013.02	2590.68
1013.18	2711.51
1013.34	2693.08
1013.50	2654.17
1013.65	2680.79
1013.81	2670.55
1013.97	2605.02
1014.13	2650.07
1014.29	2619.35
1014.44	2674.65
1014.60	2580.44
1014.76	2633.69
1014.92	2478.04
1015.07	2602.97
1015.23	2602.97
1015.39	2533.34
1015.55	2543.58
1015.71	2527.19
1015.86	2486.23
1016.02	2398.17
1016.18	2576.34
1016.34	2525.15
1016.49	2498.52
1016.65	2533.34
1016.81	2426.84
1016.97	2430.94
1017.12	2619.35
1017.28	2306.01
1017.44	2412.51
1017.60	2428.89
1017.75	2461.66
1017.91	2602.97
1018.07	2543.58
1018.23	2412.51
1018.38	2416.60
1018.54	2490.33
1018.70	2410.46
1018.86	2445.27
1019.01	2385.88
1019.17	2428.89
1019.33	2555.86
1019.49	2475.99
1019.64	2441.18
1019.80	2375.64
1019.96	2379.74
1020.12	2404.32
1020.27	2303.96
1020.43	2349.02
1020.59	2359.26
1020.74	2514.91
1020.90	2414.56
1021.06	2373.60
1021.22	2346.97
1021.37	2383.84
1021.53	2275.29
1021.69	2408.41
1021.84	2209.76
1022.00	2281.44
1022.16	2252.77
1022.31	2314.20
1022.47	2326.49
1022.63	2312.16
1022.79	2158.56
1022.94	2191.33
1023.10	2402.27
1023.26	2213.85
1023.41	2271.20
1023.57	2254.81
1023.73	2260.96
1023.88	2211.81
1024.04	2220.00
1024.20	2174.94
1024.35	2228.19
1024.51	2297.82
1024.67	2240.48
1024.82	2326.49
1024.98	2156.51
1025.14	2263.01
1025.29	2168.80
1025.45	2254.81
1025.61	2236.38
1025.76	2203.61
1025.92	2152.42
1026.08	2211.81
1026.23	2220.00
1026.39	2234.33
1026.55	2189.28
1026.70	2133.98
1026.86	2193.37
1027.02	2215.90
1027.17	2263.01
1027.33	2246.62
1027.48	2166.75
1027.64	2158.56
1027.80	2164.70
1027.95	2203.61
1028.11	2109.41
1028.27	2156.51
1028.42	2203.61
1028.58	2064.35
1028.73	2056.16
1028.89	1998.82
1029.05	2164.70
1029.20	2181.09
>>>>>End Processed Spectral Data<<<<<
