SpectraSuite Data File
++++++++++++++++++++++++++++++++++++
Date: Fri Jun 02 14:47:55 CEST 2017
User: INFO_000
Dark Spectrum Present: No
Reference Spectrum Present: No
Number of Sampled Component Spectra: 1
Spectrometers: USB4H00879
Integration Time (usec): 80000 (USB4H00879)
Spectra Averaged: 1 (USB4H00879)
Boxcar Smoothing: 0 (USB4H00879)
Correct for Electrical Dark: No (USB4H00879)
Strobe/Lamp Enabled: No (USB4H00879)
Correct for Detector Non-linearity: No (USB4H00879)
Correct for Stray Light: No (USB4H00879)
Number of Pixels in Processed Spectrum: 3648
>>>>>Begin Processed Spectral Data<<<<<
345.13	1339.37
345.34	1339.37
345.56	1339.37
345.78	1232.88
345.99	1249.26
346.21	1687.53
346.42	1650.66
346.64	1615.85
346.86	1775.59
347.07	1761.25
347.29	1697.77
347.50	1640.42
347.72	1701.86
347.94	1767.40
348.15	1556.46
348.37	1636.33
348.59	1720.29
348.80	1667.05
349.02	1755.11
349.23	1791.97
349.45	1841.12
349.67	1894.37
349.88	1761.25
350.10	1914.85
350.31	1888.23
350.53	1816.55
350.75	1951.71
350.96	1708.01
351.18	1806.31
351.39	1818.60
351.61	1740.77
351.82	1894.37
352.04	1877.99
352.26	1875.94
352.47	1847.27
352.69	1873.89
352.90	1777.64
353.12	1882.08
353.34	1787.88
353.55	1943.52
353.77	1939.43
353.98	1892.32
354.20	1810.40
354.41	1839.08
354.63	1982.43
354.85	1976.29
355.06	1914.85
355.28	1810.40
355.49	1863.65
355.71	1980.39
355.92	1808.36
356.14	1888.23
356.35	1882.08
356.57	1904.61
356.79	1855.46
357.00	1822.69
357.22	1935.33
357.43	1859.56
357.65	1941.47
357.86	1849.32
358.08	1822.69
358.29	1984.48
358.51	1992.67
358.72	1927.14
358.94	1884.13
359.16	1857.51
359.37	1964.00
359.59	1992.67
359.80	2054.11
360.02	1943.52
360.23	1912.80
360.45	1951.71
360.66	1968.10
360.88	1845.22
361.09	1968.10
361.31	2033.63
361.52	1935.33
361.74	2033.63
361.95	2074.59
362.17	1943.52
362.38	2166.75
362.60	1990.63
362.81	1888.23
363.03	1894.37
363.24	1927.14
363.46	2060.26
363.67	1988.58
363.89	2000.87
364.10	2023.39
364.32	1931.23
364.53	2019.30
364.75	1892.32
364.96	2050.02
365.18	1968.10
365.39	2101.22
365.61	2023.39
365.82	2105.31
366.04	2050.02
366.25	1964.00
366.47	2031.58
366.68	2029.54
366.90	1902.56
367.11	2052.06
367.33	2107.36
367.54	1976.29
367.76	2125.79
367.97	2060.26
368.19	2058.21
368.40	2033.63
368.62	1986.53
368.83	1966.05
369.05	2047.97
369.26	1955.81
369.48	1986.53
369.69	2035.68
369.91	2050.02
370.12	2000.87
370.33	2066.40
370.55	2039.78
370.76	1994.72
370.98	2131.94
371.19	2027.49
371.41	1941.47
371.62	1992.67
371.84	2080.74
372.05	2127.84
372.27	2064.35
372.48	2136.03
372.69	2123.74
372.91	2166.75
373.12	2222.05
373.34	2050.02
373.55	2154.46
373.77	2140.13
373.98	2144.22
374.20	2152.42
374.41	2295.77
374.62	2002.91
374.84	2166.75
375.05	2185.18
375.27	2113.50
375.48	2183.13
375.70	2209.76
375.91	2226.14
376.12	2363.36
376.34	2125.79
376.55	2156.51
376.77	2136.03
376.98	2121.70
377.19	2138.08
377.41	2133.98
377.62	2236.38
377.84	2281.44
378.05	2330.59
378.27	2201.57
378.48	2306.01
378.69	2312.16
378.91	2320.35
379.12	2240.48
379.34	2265.05
379.55	2287.58
379.76	2248.67
379.98	2250.72
380.19	2215.90
380.41	2203.61
380.62	2359.26
380.83	2224.09
381.05	2267.10
381.26	2336.73
381.47	2230.24
381.69	2211.81
381.90	2406.36
382.12	2299.87
382.33	2258.91
382.54	2172.89
382.76	2271.20
382.97	2183.13
383.19	2195.42
383.40	2351.07
383.61	2258.91
383.83	2201.57
384.04	2306.01
384.25	2363.36
384.47	2285.53
384.68	2320.35
384.89	2324.44
385.11	2428.89
385.32	2263.01
385.54	2322.40
385.75	2310.11
385.96	2482.14
386.18	2426.84
386.39	2373.60
386.60	2412.51
386.82	2332.64
387.03	2455.51
387.24	2514.91
387.46	2410.46
387.67	2492.38
387.88	2400.22
388.10	2512.86
388.31	2506.71
388.52	2576.34
388.74	2484.19
388.95	2551.77
389.16	2469.85
389.38	2541.53
389.59	2510.81
389.80	2555.86
390.02	2516.95
390.23	2609.11
390.44	2535.39
390.66	2557.91
390.87	2447.32
391.08	2639.83
391.30	2660.31
391.51	2586.58
391.72	2633.69
391.94	2666.46
392.15	2605.02
392.36	2607.06
392.58	2551.77
392.79	2688.98
393.00	2658.26
393.22	2789.33
393.43	2762.71
393.64	2768.85
393.85	2770.90
394.07	2666.46
394.28	2707.41
394.49	2768.85
394.71	2729.94
394.92	2875.35
395.13	2736.09
395.35	2707.41
395.56	2729.94
395.77	2793.43
395.98	2834.39
396.20	2852.82
396.41	2783.19
396.62	2910.16
396.84	2809.81
397.05	2811.86
397.26	2891.73
397.47	2979.79
397.69	2879.44
397.90	2987.99
398.11	2981.84
398.32	2830.29
398.54	2856.92
398.75	2936.79
398.96	2928.60
399.18	3131.34
399.39	2897.88
399.60	3035.09
399.81	2918.36
400.03	2942.93
400.24	3235.79
400.45	2940.88
400.66	2994.13
400.88	2992.08
401.09	3207.12
401.30	3059.67
401.51	3088.34
401.73	3149.78
401.94	3168.21
402.15	3121.10
402.36	3164.11
402.58	3112.91
402.79	3129.30
403.00	3059.67
403.21	3221.45
403.43	3151.82
403.64	3260.37
403.85	3084.24
404.06	3168.21
404.27	3153.87
404.49	3186.64
404.70	3080.14
404.91	3198.93
405.12	3184.59
405.34	3280.85
405.55	3463.12
405.76	3155.92
405.97	3188.69
406.19	3332.05
406.40	3215.31
406.61	3364.81
406.82	3399.63
407.03	3215.31
407.25	3334.09
407.46	3381.20
407.67	3420.11
407.88	3362.76
408.09	3297.23
408.31	3379.15
408.52	3301.33
408.73	3368.91
408.94	3286.99
409.15	3450.83
409.37	3473.36
409.58	3409.87
409.79	3436.49
410.00	3579.85
410.21	3403.72
410.43	3448.78
410.64	3452.88
410.85	3495.88
411.06	3399.63
411.27	3547.08
411.48	3631.05
411.70	3499.98
411.91	3585.99
412.12	3573.71
412.33	3411.92
412.54	3624.90
412.76	3651.53
412.97	3631.05
413.18	3538.89
413.39	3532.75
413.60	3674.06
413.81	3674.06
414.03	3561.42
414.24	3665.86
414.45	3819.46
414.66	3653.58
414.87	3637.19
415.08	3719.11
415.30	3635.14
415.51	3819.46
415.72	3694.54
415.93	3731.40
416.14	3682.25
416.35	3762.12
416.56	3665.86
416.78	3764.17
416.99	3772.36
417.20	3796.93
417.41	3923.91
417.62	3895.24
417.83	3864.52
418.04	3874.76
418.26	3913.67
418.47	3895.24
418.68	3973.06
418.89	3987.40
419.10	4126.66
419.31	3997.64
419.52	3987.40
419.73	3907.52
419.95	4071.36
420.16	3919.81
420.37	3960.77
420.58	4093.89
420.79	3956.68
421.00	4087.75
421.21	4089.79
421.42	4061.12
421.63	4315.07
421.85	4116.42
422.06	4241.34
422.27	4292.54
422.48	4255.68
422.69	4255.68
422.90	4267.97
423.11	4327.36
423.32	4423.61
423.53	4382.65
423.75	4245.44
423.96	4472.76
424.17	4435.90
424.38	4511.68
424.59	4403.13
424.80	4566.97
425.01	4546.49
425.22	4483.00
425.43	4376.51
425.64	4845.49
425.85	4679.61
426.06	4542.39
426.28	4657.08
426.49	4321.21
426.70	4548.54
426.91	4755.38
427.12	4579.26
427.33	4640.70
427.54	4681.66
427.75	4698.04
427.96	4945.84
428.17	4739.00
428.38	4726.71
428.59	4829.11
428.80	4765.62
429.01	4917.17
429.23	4984.76
429.44	5013.43
429.65	5015.48
429.86	4935.60
430.07	4847.54
430.28	4825.01
430.49	4949.94
430.70	5095.35
430.91	5031.86
431.12	5119.92
431.33	5023.67
431.54	5334.96
431.75	5087.15
431.96	5140.40
432.17	5179.31
432.38	5005.24
432.59	5294.00
432.80	5167.03
433.01	5355.44
433.22	5271.47
433.43	5187.50
433.64	5261.23
433.85	5302.19
434.06	5343.15
434.27	5324.72
434.49	5367.73
434.70	5392.30
434.91	5429.17
435.12	5384.11
435.33	5396.40
435.54	5332.91
435.75	5263.28
435.96	5412.78
436.17	5287.86
436.38	5408.69
436.59	5541.80
436.80	5300.14
437.01	5738.41
437.22	5656.49
437.43	5474.22
437.64	5521.32
437.85	5695.40
438.06	5556.14
438.27	5664.68
438.48	5562.28
438.69	5629.87
438.90	5779.37
439.11	5648.30
439.32	5758.89
439.53	5658.54
439.74	5711.78
439.95	5787.56
440.16	5752.74
440.37	5834.66
440.57	5758.89
440.78	5875.62
440.99	5941.16
441.20	5951.40
441.41	5689.26
441.62	5965.73
441.83	5633.96
442.04	5988.26
442.25	5902.25
442.46	5990.31
442.67	6059.94
442.88	6541.21
443.09	5754.79
443.30	6086.56
443.51	6098.85
443.72	6424.48
443.93	6039.46
444.14	6270.88
444.35	6041.51
444.56	6231.97
444.77	6086.56
444.98	6258.59
445.19	6391.71
445.40	6348.70
445.61	6209.44
445.81	6414.24
446.02	6352.80
446.23	6291.36
446.44	6246.30
446.65	6406.05
446.86	6291.36
447.07	6461.34
447.28	6492.06
447.49	6467.49
447.70	6485.92
447.91	6680.47
448.12	6641.56
448.33	6721.43
448.54	6688.67
448.74	6594.46
448.95	6711.19
449.16	6555.55
449.37	6877.08
449.58	6789.02
449.79	6952.85
450.00	6688.67
450.21	6850.46
450.42	6858.65
450.63	6954.90
450.84	6868.89
451.05	7145.36
451.25	6950.81
451.46	6860.70
451.67	7260.05
451.88	7141.27
452.09	7155.60
452.30	7153.55
452.51	7124.88
452.72	7348.11
452.93	7425.93
453.13	6991.77
453.34	7319.44
453.55	7282.58
453.76	7382.93
453.97	7436.17
454.18	7305.10
454.39	7571.34
454.60	7610.25
454.81	7557.00
455.01	7688.07
455.22	7413.65
455.43	7632.78
455.64	7800.71
455.85	7868.30
456.06	8032.13
456.27	7810.95
456.48	7714.70
456.68	7913.35
456.89	7716.75
457.10	8138.63
457.31	8089.48
457.52	8054.66
457.73	8089.48
457.94	8284.03
458.14	7905.16
458.35	8513.41
458.56	8402.82
458.77	8185.73
458.98	8290.18
459.19	8314.75
459.39	8460.16
459.60	8478.59
459.81	8214.40
460.02	8568.70
460.23	8757.11
460.44	8853.37
460.65	8916.86
460.85	8867.70
461.06	8947.58
461.27	8636.28
461.48	8992.63
461.69	9144.18
461.89	8834.94
462.10	8968.06
462.31	8658.81
462.52	8834.94
462.73	8865.66
462.94	9160.56
463.14	8986.49
463.35	9265.01
463.56	9416.56
463.77	9338.74
463.98	9293.68
464.18	9506.67
464.39	9559.92
464.60	9766.76
464.81	9736.04
465.02	9279.35
465.23	9840.49
465.43	9690.99
465.64	9846.63
465.85	9774.95
466.06	9670.51
466.27	9973.61
466.47	10030.95
466.68	10092.39
466.89	10090.34
467.10	10108.77
467.30	9975.66
467.51	9963.37
467.72	10375.01
467.93	9971.56
468.14	10262.37
468.34	10553.18
468.55	10518.37
468.76	10598.24
468.97	10407.78
469.17	10626.91
469.38	10643.29
469.59	10837.85
469.80	10798.94
470.01	10872.67
470.21	10848.09
470.42	11013.98
470.63	10964.82
470.84	10755.93
471.04	11267.92
471.25	11126.61
471.46	11130.71
471.67	11280.21
471.87	11304.79
472.08	11368.27
472.29	11644.75
472.50	11347.79
472.70	11528.02
472.91	11497.30
473.12	11712.33
473.33	11890.51
473.53	11714.38
473.74	11765.58
473.95	11962.19
474.16	12019.53
474.36	12216.13
474.57	12214.09
474.78	12392.26
474.99	12314.44
475.19	12343.11
475.40	12646.21
475.61	12840.76
475.81	12984.12
476.02	12846.91
476.23	12668.73
476.44	12965.69
476.64	12824.38
476.85	13406.00
477.06	13014.84
477.27	13412.15
477.47	13502.26
477.68	13559.60
477.89	13393.72
478.09	13559.60
478.30	13809.45
478.51	13471.54
478.71	13868.84
478.92	13889.32
479.13	13969.19
479.34	14300.97
479.54	14317.35
479.75	14219.05
479.96	14384.93
480.16	14362.40
480.37	14595.87
480.58	14624.54
480.78	14739.23
480.99	14855.97
481.20	14796.57
481.41	15343.38
481.61	15286.04
481.82	15273.75
482.03	15148.82
482.23	15351.57
482.44	15484.69
482.65	15675.15
482.85	15916.81
483.06	15834.89
483.27	15728.40
483.47	15765.26
483.68	15939.34
483.89	16076.55
484.09	16224.01
484.30	16293.64
484.51	16271.11
484.71	16746.24
484.92	16287.50
485.13	16729.86
485.33	16692.99
485.54	16779.01
485.75	17141.50
485.95	17090.30
486.16	17334.01
486.37	17237.75
486.57	17340.15
486.78	17258.23
486.98	17735.41
487.19	17661.68
487.40	17827.57
487.60	18099.95
487.81	17948.40
488.02	17764.08
488.22	18357.99
488.43	18204.39
488.64	18280.17
488.84	18446.05
489.05	18831.07
489.25	18632.42
489.46	18929.38
489.67	18736.87
489.87	18966.24
490.08	19138.27
490.29	19134.17
490.49	19566.29
490.70	19508.95
490.90	19523.29
491.11	19427.03
491.32	19836.63
491.52	19431.13
491.73	19865.30
491.94	19840.72
492.14	20057.81
492.35	20109.01
492.55	20336.33
492.76	20518.60
492.97	20698.82
493.17	20475.59
493.38	20606.66
493.58	21100.22
493.79	20817.60
494.00	20698.82
494.20	20950.72
494.41	20868.80
494.61	21120.70
494.82	21507.77
495.02	21350.07
495.23	21307.07
495.44	21499.58
495.64	21894.83
495.85	21569.21
496.05	21792.44
496.26	21855.92
496.47	22054.58
496.67	22068.91
496.88	22242.99
497.08	22089.39
497.29	22329.00
497.49	22345.39
497.70	22632.10
497.91	22775.46
498.11	22689.45
498.32	22699.69
498.52	22906.53
498.73	23135.90
498.93	22879.91
499.14	23101.09
499.34	23207.58
499.55	23385.76
499.76	23412.38
499.96	23748.25
500.17	23369.37
500.37	23574.17
500.58	23719.57
500.78	23658.14
500.99	23709.33
501.19	23783.06
501.40	24032.91
501.60	23789.20
501.81	23950.99
502.02	24008.34
502.22	24034.96
502.43	24131.22
502.63	24295.05
502.84	24084.11
503.04	24395.40
503.25	24530.57
503.45	24401.55
503.66	24864.39
503.86	24809.09
504.07	24837.76
504.27	24544.91
504.48	24827.53
504.68	24594.06
504.89	24962.69
505.09	24936.07
505.30	25024.13
505.50	24921.73
505.71	25364.09
505.91	25224.83
506.12	25441.92
506.32	25429.63
506.53	25069.19
506.73	25525.88
506.94	25687.67
507.14	25603.71
507.35	25665.14
507.55	25716.34
507.76	25763.45
507.96	25724.54
508.17	25775.73
508.37	25980.53
508.58	25763.45
508.78	25915.00
508.99	26230.38
509.19	26293.87
509.40	26134.13
509.60	26091.12
509.81	26017.40
510.01	25925.24
510.22	26093.17
510.42	26386.03
510.63	26463.85
510.83	26289.77
511.04	26404.46
511.24	26611.31
511.44	26463.85
511.65	26754.66
511.85	26549.87
512.06	26631.79
512.26	26621.55
512.47	26689.13
512.67	26650.22
512.88	26869.35
513.08	26562.15
513.29	26998.37
513.49	26619.50
513.69	26877.54
513.90	26656.36
514.10	26748.52
514.31	26986.08
514.51	27190.88
514.72	27205.22
514.92	27057.76
515.13	26957.41
515.33	27207.26
515.53	27491.93
515.74	27301.47
515.94	27127.39
516.15	27278.94
516.35	26936.93
516.56	27367.01
516.76	27510.36
516.96	27563.61
517.17	27780.70
517.37	27346.53
517.58	27643.48
517.78	27956.82
517.99	27661.91
518.19	28225.11
518.39	27977.30
518.60	27958.87
518.80	28120.66
519.01	28245.58
519.21	28151.38
519.41	28255.82
519.62	28216.91
519.82	28360.27
520.03	28419.66
520.23	28464.72
520.43	28350.03
520.64	28589.64
520.84	28714.57
521.05	28743.24
521.25	28593.74
521.45	29052.48
521.66	28890.70
521.86	29087.30
522.07	28853.83
522.27	29027.91
522.47	29314.62
522.68	29453.89
522.88	29398.59
523.08	29322.82
523.29	29228.61
523.49	29199.94
523.70	29564.48
523.90	29660.73
524.10	29799.99
524.31	29771.32
524.51	29484.61
524.71	29916.73
524.92	30103.09
525.12	30201.40
525.33	30496.30
525.53	30354.99
525.73	30438.96
525.94	30164.53
526.14	30486.06
526.34	30434.86
526.55	30666.28
526.75	30748.20
526.95	31010.34
527.16	30772.78
527.36	30924.33
527.56	31538.72
527.77	31309.35
527.97	31569.44
528.17	31147.56
528.38	31684.12
528.58	31909.40
528.78	31487.52
528.99	31663.64
529.19	32110.10
529.39	31753.76
529.60	32200.21
529.80	31929.88
530.00	32421.39
530.21	32683.53
530.41	32742.92
530.61	32546.32
530.82	32300.56
531.02	32587.28
531.22	32605.71
531.43	32839.18
531.63	33134.09
531.83	33304.07
532.04	33924.60
532.24	33324.55
532.44	33601.02
532.64	33758.72
532.85	34100.73
533.05	33873.40
533.25	33736.19
533.46	33656.32
533.66	34239.99
533.86	34016.76
534.07	34461.17
534.27	34379.25
534.47	34733.55
534.67	34661.87
534.88	34756.08
535.08	34590.19
535.28	35100.14
535.49	34776.56
535.69	35698.14
535.89	35433.96
536.09	35149.29
536.30	35900.89
536.50	35720.67
536.70	35880.41
536.91	35595.74
537.11	35714.53
537.31	36390.36
537.51	36275.67
537.72	36648.40
537.92	36619.73
538.12	36892.11
538.32	36488.66
538.53	36552.15
538.73	36615.63
538.93	36775.37
539.13	36902.35
539.34	37006.80
539.54	36918.73
539.74	37586.37
539.94	37197.26
540.15	37363.14
540.35	37240.26
540.55	37559.75
540.75	37832.13
540.96	37782.98
541.16	37864.89
541.36	37938.62
541.56	38165.95
541.77	38266.30
541.97	38108.60
542.17	38256.06
542.37	38438.33
542.58	38714.80
542.78	38751.66
542.98	38577.59
543.18	38567.35
543.38	38995.37
543.59	38991.28
543.79	39079.34
543.99	38956.46
544.19	39331.24
544.40	39120.30
544.60	39538.08
544.80	39124.40
545.00	39347.62
545.20	39703.97
545.41	39792.03
545.61	39789.98
545.81	39785.89
546.01	39859.62
546.21	39980.45
546.42	39370.15
546.62	39933.34
546.82	40058.27
547.02	39980.45
547.22	40170.91
547.43	39726.50
547.63	40441.24
547.83	40650.13
548.03	40349.08
548.23	40553.88
548.44	40504.73
548.64	40658.32
548.84	40406.42
549.04	40506.77
549.24	41012.62
549.45	40951.18
549.65	40904.08
549.85	40502.68
550.05	41332.11
550.25	40830.35
550.45	40924.56
550.66	41272.71
550.86	41207.18
551.06	41497.99
551.26	41016.72
551.46	41360.78
551.66	41737.60
551.87	41721.22
552.07	41526.66
552.27	41426.31
552.47	41512.33
552.67	41901.44
552.87	41481.61
553.07	41706.88
553.28	41764.23
553.48	41518.47
553.68	41895.30
553.88	42128.77
554.08	41909.63
554.28	41901.44
554.48	41715.08
554.69	41756.03
554.89	41989.50
555.09	41962.88
555.29	41649.54
555.49	41686.40
555.69	42382.71
555.89	41989.50
556.10	42450.30
556.30	42040.70
556.50	42286.46
556.70	42325.37
556.90	42577.27
557.10	42448.25
557.30	42296.70
557.50	42403.19
557.70	42204.54
557.91	42579.32
558.11	42329.47
558.31	42427.77
558.51	42552.69
558.71	42364.28
558.91	42691.96
559.11	42104.19
559.31	42175.87
559.51	42448.25
559.72	42663.28
559.92	42685.81
560.12	42677.62
560.32	42718.58
560.52	42882.42
560.72	42509.69
560.92	42714.48
561.12	42677.62
561.32	43246.96
561.52	42704.24
561.72	43310.44
561.93	42356.09
562.13	42839.41
562.33	42616.18
562.53	43218.28
562.73	42599.80
562.93	42810.74
563.13	42947.95
563.33	42878.32
563.53	42988.91
563.73	42728.82
563.93	43289.96
564.13	43326.83
564.33	43261.29
564.53	43089.26
564.74	43414.89
564.94	42648.95
565.14	43240.81
565.34	42800.50
565.54	43261.29
565.74	43124.08
565.94	43429.23
566.14	42976.62
566.34	43087.21
566.54	43697.51
566.74	42751.35
566.94	43021.68
567.14	43844.96
567.34	42968.43
567.54	43560.30
567.74	43363.69
567.94	43328.87
568.14	43586.92
568.34	43408.75
568.54	43593.06
568.74	43986.27
568.94	43566.44
569.14	43609.45
569.34	43535.72
569.54	43367.79
569.75	43351.40
569.95	43382.12
570.15	44150.11
570.35	44100.96
570.55	43783.52
570.75	43279.72
570.95	43986.27
571.15	43804.00
571.35	43726.18
571.55	43879.78
571.75	43959.65
571.95	43726.18
572.15	44082.53
572.35	43959.65
572.55	43986.27
572.75	44316.00
572.95	43941.22
573.15	44098.91
573.35	44150.11
573.55	43865.44
573.75	44406.11
573.95	44356.96
574.15	44590.42
574.35	44717.40
574.55	44539.22
574.75	44293.47
574.95	44117.34
575.15	44213.60
575.34	44113.25
575.54	44672.34
575.74	44848.47
575.94	44608.86
576.14	44606.81
576.34	45094.22
576.54	45126.99
576.74	45024.59
576.94	44741.97
577.14	45118.80
577.34	45225.29
577.54	45280.59
577.74	45145.42
577.94	45229.39
578.14	45493.58
578.34	45112.66
578.54	45190.48
578.74	45249.87
578.94	45208.91
579.14	45333.84
579.34	45473.10
579.54	45403.47
579.74	45921.60
579.94	45911.36
580.13	46208.32
580.33	45966.66
580.53	45976.90
580.73	45954.37
580.93	45804.87
581.13	46411.07
581.33	46226.75
581.53	46333.24
581.73	46216.51
581.93	46701.88
582.13	46519.61
582.33	46806.33
582.53	46185.79
582.73	46867.76
582.92	46595.38
583.12	47013.17
583.32	46597.43
583.52	46191.94
583.72	47252.78
583.92	46820.66
584.12	46949.68
584.32	47385.90
584.52	47195.44
584.72	47177.01
584.92	47707.43
585.11	47643.94
585.31	47263.02
585.51	47795.49
585.71	47492.40
585.91	48078.11
586.11	47879.46
586.31	47822.12
586.51	47983.91
586.71	47748.39
586.91	47846.69
587.10	48491.80
587.30	48379.17
587.50	48422.17
587.70	48463.13
587.90	48399.65
588.10	48604.44
588.30	48674.07
588.50	48653.59
588.69	49067.28
588.89	48819.48
589.09	49069.33
589.29	48739.61
589.49	49165.59
589.69	48350.49
589.89	49274.13
590.08	49339.66
590.28	49267.98
590.48	49186.07
590.68	49022.23
590.88	49380.62
591.08	49489.16
591.28	48852.25
591.47	49569.04
591.67	49706.25
591.87	49751.30
592.07	49566.99
592.27	49835.27
592.47	49739.02
592.67	49849.61
592.86	49607.95
593.06	49876.23
593.26	49779.98
593.46	50191.62
593.66	50097.41
593.86	50253.06
594.05	50285.82
594.25	50523.39
594.45	50316.54
594.65	50484.48
594.85	50480.38
595.05	50697.47
595.24	50953.46
595.44	50451.71
595.64	50767.10
595.84	51010.81
596.04	51049.72
596.23	51180.79
596.43	51641.58
596.63	51612.91
596.83	51264.75
597.03	51799.27
597.22	51670.25
597.42	51447.02
597.62	51780.84
597.82	51289.33
598.02	51528.94
598.21	51971.30
598.41	51518.70
598.61	51692.78
598.81	51582.19
599.01	52317.41
599.20	51551.47
599.40	51979.49
599.60	52133.09
599.80	52477.15
600.00	52241.63
600.19	52798.68
600.39	52518.11
600.59	53159.12
600.79	52960.47
600.98	52534.49
601.18	53130.45
601.38	53286.10
601.58	52753.63
601.78	53064.92
601.97	53040.34
602.17	53488.85
602.37	53030.10
602.57	52778.20
602.76	53556.43
602.96	53138.65
603.16	53806.28
603.36	53355.73
603.55	53783.76
603.75	53488.85
603.95	53601.49
604.15	53701.84
604.34	53789.90
604.54	54021.32
604.74	53841.10
604.94	54113.48
605.13	54232.26
605.33	54115.53
605.53	54146.25
605.73	54052.04
605.92	54295.75
606.12	54105.29
606.32	54838.46
606.52	54262.98
606.71	54117.57
606.91	54494.40
607.11	54238.40
607.30	54592.70
607.50	54146.25
607.70	54844.60
607.90	54621.37
608.09	54656.19
608.29	54678.72
608.49	54912.19
608.68	54336.71
608.88	54740.16
609.08	54805.69
609.28	54631.61
609.47	54621.37
609.67	55004.34
609.87	54895.80
610.06	54873.27
610.26	55121.08
610.46	55239.86
610.66	54910.14
610.85	55209.14
611.05	54813.88
611.25	55465.14
611.44	54693.05
611.64	55348.40
611.84	55248.05
612.03	55096.50
612.23	55200.95
612.43	55051.45
612.62	55094.46
612.82	55260.34
613.02	55399.60
613.21	55270.58
613.41	55542.96
613.61	55309.49
613.80	54734.01
614.00	55256.24
614.20	55516.34
614.39	54996.15
614.59	55205.05
614.79	55256.24
614.98	54908.09
615.18	55293.11
615.38	54936.76
615.57	55121.08
615.77	55319.73
615.97	55536.82
616.16	55256.24
616.36	55315.64
616.56	55321.78
616.75	54715.58
616.95	54555.84
617.15	54996.15
617.34	54926.52
617.54	54959.29
617.74	55104.70
617.93	54787.26
618.13	54559.94
618.32	54906.04
618.52	55014.58
618.72	54758.59
618.91	55045.30
619.11	54404.29
619.31	55137.46
619.50	54930.62
619.70	54799.55
619.90	54570.18
620.09	54764.73
620.29	54686.91
620.48	54576.32
620.68	55426.23
620.88	54400.19
621.07	54908.09
621.27	54793.40
621.46	54293.70
621.66	54209.73
621.86	54883.51
622.05	54166.73
622.25	54756.54
622.44	54222.02
622.64	54322.37
622.84	54205.64
623.03	54279.36
623.23	54232.26
623.42	54686.91
623.62	54432.96
623.82	54834.36
624.01	54392.00
624.21	54273.22
624.40	54342.85
624.60	54613.18
624.80	54334.66
624.99	54006.98
625.19	53363.92
625.38	54404.29
625.58	54404.29
625.77	54351.04
625.97	54101.19
626.17	54113.48
626.36	54363.33
626.56	53933.26
626.75	53388.50
626.95	54064.33
627.14	53986.50
627.34	54363.33
627.54	53761.23
627.73	54348.99
627.93	53839.05
628.12	53617.87
628.32	54154.44
628.51	53818.57
628.71	53646.54
628.90	53734.60
629.10	53808.33
629.30	53937.35
629.49	53744.84
629.69	53576.91
629.88	53535.95
630.08	53746.89
630.27	54224.07
630.47	53810.38
630.66	53865.67
630.86	53920.97
631.05	53171.41
631.25	54129.86
631.44	54183.11
631.64	53396.69
631.84	53925.07
632.03	54043.85
632.23	53853.39
632.42	54113.48
632.62	53789.90
632.81	53621.97
633.01	54002.89
633.20	53746.89
633.40	54201.54
633.59	53671.12
633.79	53458.13
633.98	53759.18
634.18	53955.78
634.37	53998.79
634.57	53744.84
634.76	53882.06
634.96	53269.72
635.15	53886.15
635.35	53677.26
635.54	53601.49
635.74	54013.13
635.93	53515.47
636.13	54074.57
636.32	53660.88
636.52	53353.68
636.71	53726.41
636.91	53693.64
637.10	53712.08
637.30	53900.49
637.49	53417.17
637.69	53155.03
637.88	53720.27
638.08	53671.12
638.27	53875.91
638.46	53662.93
638.66	54084.81
638.85	53589.20
639.05	54142.15
639.24	54244.55
639.44	53974.22
639.63	53748.94
639.83	53660.88
640.02	53576.91
640.22	53843.15
640.41	54342.85
640.61	53728.46
640.80	53486.80
640.99	53531.86
641.19	54416.58
641.38	53728.46
641.58	53884.11
641.77	54076.61
641.97	53378.26
642.16	53406.93
642.36	54252.74
642.55	54625.47
642.74	53478.61
642.94	54299.84
643.13	53837.00
643.33	54045.90
643.52	54119.62
643.72	54338.75
643.91	54154.44
644.10	54420.67
644.30	54418.63
644.49	53982.41
644.69	54490.30
644.88	54088.90
645.08	53957.83
645.27	54359.23
645.46	53880.01
645.66	54770.88
645.85	54170.82
646.05	54367.43
646.24	54285.51
646.43	54305.99
646.63	54574.27
646.82	54686.91
647.02	54508.74
647.21	54983.86
647.40	54600.89
647.60	54934.71
647.79	54232.26
647.99	54699.20
648.18	54650.05
648.37	55008.44
648.57	55065.78
648.76	54547.65
648.96	54617.28
649.15	55170.23
649.34	55026.87
649.54	54940.86
649.73	54639.81
649.92	54844.60
650.12	54664.38
650.31	54985.91
650.51	54879.42
650.70	54901.95
650.89	54703.29
651.09	55874.73
651.28	55409.84
651.47	55340.21
651.67	55418.03
651.86	55788.72
652.06	55088.31
652.25	55024.82
652.44	55059.64
652.64	55049.40
652.83	55542.96
653.02	55428.27
653.22	55170.23
653.41	55119.03
653.60	54889.66
653.80	55686.32
653.99	55737.52
654.18	55483.57
654.38	55475.38
654.57	55809.20
654.76	55932.07
654.96	55305.40
655.15	55741.61
655.34	55706.80
655.54	55694.51
655.73	56138.92
655.92	55882.92
656.12	56046.76
656.31	56067.24
656.50	55743.66
656.70	55506.10
656.89	55901.36
657.08	56059.05
657.28	55993.51
657.47	55919.79
657.66	56505.51
657.86	56013.99
658.05	56075.43
658.24	56173.73
658.43	55772.33
658.63	56167.59
658.82	56489.12
659.01	56044.71
659.21	56700.06
659.40	56442.02
659.59	56114.34
659.79	56378.53
659.98	56507.55
660.17	56644.77
660.36	56278.18
660.56	56204.45
660.75	56870.04
660.94	56812.70
661.14	56540.32
661.33	56499.36
661.52	56200.36
661.71	57011.35
661.91	56110.25
662.10	56482.98
662.29	56573.09
662.49	56747.17
662.68	56548.51
662.87	56534.18
663.06	56984.73
663.26	56706.21
663.45	57195.67
663.64	56636.58
663.83	57234.58
664.03	56779.93
664.22	57238.68
664.41	57130.14
664.60	56898.72
664.80	57087.13
664.99	57046.17
665.18	56732.83
665.37	56882.33
665.57	57177.24
665.76	56992.92
665.95	57123.99
666.14	57015.45
666.34	57246.87
666.53	57150.62
666.72	57117.85
666.91	57089.18
667.11	57025.69
667.30	57054.36
667.49	57197.72
667.68	57158.81
667.87	57181.34
668.07	57541.78
668.26	57253.01
668.45	57142.42
668.64	56962.20
668.84	57513.11
669.03	57744.53
669.22	56888.48
669.41	57855.12
669.60	57277.59
669.80	57560.21
669.99	57613.46
670.18	57160.86
670.37	57480.34
670.57	57324.69
670.76	57384.08
670.95	57996.43
671.14	57480.34
671.33	57128.09
671.53	57830.54
671.72	57285.78
671.91	57640.08
672.10	57308.31
672.29	57549.97
672.48	57109.66
672.68	57853.07
672.87	57482.39
673.06	57504.91
673.25	57349.27
673.44	57216.15
673.64	57691.28
673.83	57277.59
674.02	57744.53
674.21	57232.53
674.40	57642.13
674.59	57189.53
674.79	57382.04
674.98	57504.91
675.17	57400.47
675.36	57605.26
675.55	57529.49
675.74	57566.35
675.94	57498.77
676.13	57394.32
676.32	57566.35
676.51	57658.51
676.70	57474.20
676.89	57539.73
677.08	58094.73
677.28	57197.72
677.47	57932.94
677.66	57701.52
677.85	57971.85
678.04	57742.48
678.23	57652.37
678.42	57767.05
678.62	57613.46
678.81	57554.07
679.00	57527.44
679.19	58008.71
679.38	57549.97
679.57	57472.15
679.76	57402.52
679.96	57930.89
680.15	57588.88
680.34	57324.69
680.53	57689.23
680.72	58043.53
680.91	57625.74
681.10	57152.66
681.29	57351.32
681.48	57431.19
681.68	57226.39
681.87	57048.22
682.06	57586.83
682.25	57007.26
682.44	57007.26
682.63	57373.84
682.82	57345.17
683.01	57154.71
683.20	56835.23
683.39	57300.12
683.59	56579.23
683.78	57007.26
683.97	57091.22
684.16	56620.19
684.35	56767.65
684.54	57154.71
684.73	56843.42
684.92	56521.89
685.11	56911.00
685.30	56687.78
685.49	57220.25
685.69	57160.86
685.88	57121.94
686.07	56874.14
686.26	56595.62
686.45	56810.65
686.64	56349.86
686.83	56333.48
687.02	56194.21
687.21	56587.42
687.40	56622.24
687.59	56636.58
687.78	56485.03
687.97	56546.47
688.16	56638.62
688.35	56491.17
688.54	56198.31
688.74	56620.19
688.93	56358.05
689.12	56450.21
689.31	56349.86
689.50	56437.92
689.69	56261.80
689.88	55889.07
690.07	56392.87
690.26	56136.87
690.45	56538.27
690.64	56286.37
690.83	55827.63
691.02	55821.48
691.21	55805.10
691.40	56005.80
691.59	56229.03
691.78	55639.22
691.97	55993.51
692.16	55803.05
692.35	56120.49
692.54	56050.86
692.73	55952.55
692.92	55811.24
693.11	55735.47
693.30	55714.99
693.49	55702.70
693.68	55616.69
693.87	55430.32
694.06	55420.08
694.25	55248.05
694.44	55123.13
694.63	54772.92
694.82	55395.51
695.01	54742.20
695.20	54879.42
695.39	55080.12
695.58	55194.81
695.77	55094.46
695.96	54621.37
696.15	55231.67
696.34	54817.98
696.53	54645.95
696.72	55063.74
696.91	54609.09
697.10	54705.34
697.29	54293.70
697.48	54727.87
697.67	54678.72
697.86	54207.68
698.05	54416.58
698.24	55018.68
698.43	54230.21
698.62	54338.75
698.81	54002.89
699.00	54408.39
699.19	54023.37
699.38	53974.22
699.57	53748.94
699.76	54174.92
699.95	54072.52
700.14	53986.50
700.32	53865.67
700.51	53689.55
700.70	54181.06
700.89	53963.98
701.08	53728.46
701.27	53933.26
701.46	54222.02
701.65	53116.12
701.84	53839.05
702.03	53855.43
702.22	53204.18
702.41	53292.24
702.60	53312.72
702.79	53396.69
702.98	53081.30
703.17	53165.27
703.35	52853.98
703.54	52833.50
703.73	53003.48
703.92	53308.63
704.11	53167.32
704.30	53222.61
704.49	52978.90
704.68	52706.52
704.87	53193.94
705.06	52702.43
705.25	52964.57
705.43	52966.62
705.62	53069.01
705.81	52563.17
706.00	52970.71
706.19	52698.33
706.38	52688.09
706.57	52217.06
706.76	52421.86
706.95	52526.30
707.14	52071.65
707.32	52294.88
707.51	52116.71
707.70	52274.40
707.89	52165.86
708.08	52337.89
708.27	51772.65
708.46	52266.21
708.65	51971.30
708.84	52221.16
709.02	52180.20
709.21	52190.44
709.40	51209.46
709.59	51969.26
709.78	51504.37
709.97	51760.36
710.16	51928.30
710.34	51649.77
710.53	51383.54
710.72	51193.07
710.91	51592.43
711.10	51627.24
711.29	51643.63
711.48	51361.01
711.66	51391.73
711.85	51234.03
712.04	51465.45
712.23	51029.24
712.42	51057.91
712.61	51236.08
712.80	50803.96
712.98	51145.97
713.17	51197.17
713.36	50928.89
713.55	50820.34
713.74	50922.74
713.93	50644.22
714.11	50830.58
714.30	50455.81
714.49	50095.36
714.68	50826.49
714.87	50535.68
715.06	50699.51
715.24	50115.84
715.43	50226.43
715.62	50066.69
715.81	50271.49
716.00	50357.50
716.18	50148.61
716.37	50390.27
716.56	49802.50
716.75	50420.99
716.94	50345.22
717.12	50068.74
717.31	50083.08
717.50	49755.40
717.69	49820.94
717.88	49972.49
718.06	49980.68
718.25	50156.80
718.44	49378.57
718.63	49847.56
718.82	49382.67
719.00	49722.63
719.19	49425.68
719.38	49487.12
719.57	48946.45
719.76	49143.06
719.94	49435.92
720.13	49042.71
720.32	49153.30
720.51	48651.55
720.69	48618.78
720.88	49085.72
721.07	48911.64
721.26	48438.56
721.44	48235.81
721.63	48598.30
721.82	48057.63
722.01	48524.57
722.20	48504.09
722.38	47912.23
722.57	48153.89
722.76	48348.45
722.95	48184.61
723.13	48082.21
723.32	47947.04
723.51	47885.61
723.70	47805.73
723.88	47643.94
724.07	47889.70
724.26	48057.63
724.44	47576.36
724.63	48196.90
724.82	48194.85
725.01	47867.17
725.19	47746.34
725.38	47285.55
725.57	47217.97
725.76	48022.82
725.94	47510.83
726.13	47486.25
726.32	47195.44
726.51	47322.41
726.69	47744.30
726.88	47576.36
727.07	47068.47
727.25	47226.16
727.44	47480.11
727.63	46912.82
727.82	47365.42
728.00	47496.49
728.19	47435.05
728.38	47619.37
728.56	46851.38
728.75	47453.48
728.94	46871.86
729.12	47209.78
729.31	47306.03
729.50	47041.84
729.69	47328.56
729.87	47234.35
730.06	46966.07
730.25	46904.63
730.43	47607.08
730.62	47170.86
730.81	47600.94
730.99	47375.66
731.18	47056.18
731.37	47424.81
731.55	47408.43
731.74	47625.51
731.93	47510.83
732.11	47691.05
732.30	46994.74
732.49	47316.27
732.67	47410.48
732.86	46822.71
733.05	47469.87
733.23	47045.94
733.42	46560.57
733.61	47283.50
733.79	47367.47
733.98	47430.96
734.17	47105.33
734.35	47621.42
734.54	47353.13
734.73	47574.31
734.91	46978.36
735.10	47291.69
735.29	46986.55
735.47	46599.48
735.66	46959.92
735.84	46933.30
736.03	46908.72
736.22	47187.25
736.40	46941.49
736.59	46998.83
736.78	47209.78
736.96	46990.64
737.15	47086.90
737.33	46835.00
737.52	46900.53
737.71	46845.24
737.89	47045.94
738.08	46650.68
738.27	46828.85
738.45	47078.71
738.64	46703.93
738.82	47103.28
739.01	46390.59
739.20	46579.00
739.38	46728.50
739.57	47037.75
739.75	47068.47
739.94	46511.42
740.13	46949.68
740.31	46589.24
740.50	46280.00
740.68	46822.71
740.87	46484.79
741.06	47025.46
741.24	46460.22
741.43	46394.68
741.61	46458.17
741.80	46443.84
741.99	46404.92
742.17	46308.67
742.36	46798.13
742.54	46638.39
742.73	46292.29
742.91	46595.38
743.10	46103.87
743.29	46689.59
743.47	46810.42
743.66	46501.18
743.84	46927.16
744.03	46353.72
744.21	46245.18
744.40	46798.13
744.59	46581.05
744.77	45880.64
744.96	45847.88
745.14	46347.58
745.33	46495.03
745.51	46234.94
745.70	46679.35
745.88	45866.31
746.07	46370.11
746.26	45894.98
746.44	45884.74
746.63	45905.22
746.81	46079.30
747.00	45534.54
747.18	46273.85
747.37	46081.34
747.55	46130.50
747.74	46335.29
747.92	45843.78
748.11	45792.58
748.29	46069.06
748.48	45753.67
748.66	46228.80
748.85	45993.28
749.03	45784.39
749.22	46009.67
749.41	46396.73
749.59	45784.39
749.78	45479.24
749.96	45227.34
750.15	45565.26
750.33	46155.07
750.52	45729.09
750.70	45901.12
750.89	45866.31
751.07	45481.29
751.26	45630.79
751.44	45464.91
751.63	45684.04
751.81	45237.58
752.00	45174.09
752.18	45552.97
752.37	45479.24
752.55	45376.84
752.74	45135.18
752.92	45702.47
753.10	44735.83
753.29	45876.55
753.47	45374.80
753.66	45104.46
753.84	45432.14
754.03	45325.64
754.21	45163.85
754.40	45518.15
754.58	45245.77
754.77	45088.08
754.95	45049.17
755.14	45503.82
755.32	44893.52
755.51	45086.03
755.69	45077.84
755.88	45071.70
756.06	45163.85
756.24	45102.42
756.43	44789.08
756.61	45090.13
756.80	45186.38
756.98	44641.62
757.17	44615.00
757.35	45020.50
757.54	45073.74
757.72	45180.24
757.90	44959.06
758.09	44752.21
758.27	44905.81
758.46	44408.15
758.64	44139.87
758.83	44725.59
759.01	45112.66
759.19	44256.60
759.38	44387.67
759.56	44737.88
759.75	44821.84
759.93	44508.50
760.12	44647.77
760.30	44615.00
760.48	44395.87
760.67	44291.42
760.85	44332.38
761.04	44807.51
761.22	44359.00
761.40	44608.86
761.59	44475.74
761.77	44057.95
761.96	44397.91
762.14	44490.07
762.32	44113.25
762.51	44318.04
762.69	43982.18
762.88	44350.81
763.06	44012.90
763.24	44135.77
763.43	44252.51
763.61	43939.17
763.80	43976.03
763.98	43935.07
764.16	44100.96
764.35	44045.66
764.53	43308.40
764.72	43767.14
764.90	43361.64
765.08	43820.39
765.27	43496.81
765.45	43560.30
765.63	43185.52
765.82	43763.04
766.00	43081.07
766.18	43081.07
766.37	43648.36
766.55	43287.92
766.74	43240.81
766.92	43324.78
767.10	43138.41
767.29	43031.92
767.47	42724.72
767.65	43253.10
767.84	42751.35
768.02	42962.29
768.20	42573.17
768.39	43074.93
768.57	43216.24
768.75	42687.86
768.94	43025.78
769.12	42743.16
769.30	42620.28
769.49	42577.27
769.67	42689.91
769.85	42325.37
770.04	42685.81
770.22	42640.76
770.40	42421.62
770.59	42714.48
770.77	42677.62
770.95	42487.16
771.14	42241.40
771.32	42014.08
771.50	42085.76
771.69	41934.21
771.87	42476.92
772.05	42186.11
772.24	41889.15
772.42	42071.42
772.60	42251.64
772.78	41682.31
772.97	41872.77
773.15	41825.67
773.33	41573.77
773.52	41801.09
773.70	42012.03
773.88	41653.64
774.07	41475.46
774.25	41966.98
774.43	41780.61
774.61	41702.79
774.80	42122.62
774.98	41817.47
775.16	41979.26
775.34	41762.18
775.53	41584.01
775.71	41715.08
775.89	41686.40
776.08	42063.23
776.26	42014.08
776.44	41938.30
776.62	41817.47
776.81	41397.64
776.99	41862.53
777.17	41866.63
777.35	41946.50
777.54	42243.45
777.72	41985.41
777.90	42046.85
778.08	42130.81
778.27	41891.20
778.45	42296.70
778.63	42286.46
778.81	41913.73
779.00	42308.99
779.18	42128.77
779.36	42968.43
779.54	42370.43
779.73	42255.74
779.91	42823.03
780.09	42388.86
780.27	42476.92
780.46	42151.29
780.64	42534.26
780.82	42128.77
781.00	42493.30
781.19	42665.33
781.37	42341.75
781.55	42503.54
781.73	42870.13
781.91	42489.21
782.10	42325.37
782.28	42573.17
782.46	42630.52
782.64	42882.42
782.82	42610.04
783.01	42534.26
783.19	42655.09
783.37	42718.58
783.55	42626.42
783.74	42685.81
783.92	42161.53
784.10	43093.36
784.28	42433.91
784.46	42276.22
784.64	42345.85
784.83	42468.73
785.01	42571.13
785.19	42511.74
785.37	42370.43
785.55	42622.33
785.74	41973.12
785.92	42069.37
786.10	42974.58
786.28	42513.78
786.46	42196.35
786.64	41858.43
786.83	42118.53
787.01	42212.73
787.19	42087.81
787.37	42282.36
787.55	41811.33
787.74	41899.39
787.92	41962.88
788.10	41852.29
788.28	41784.71
788.46	41741.70
788.64	41987.46
788.82	41846.15
789.01	41614.72
789.19	41297.29
789.37	41573.77
789.55	41723.27
789.73	41368.97
789.91	40760.72
790.09	41342.35
790.28	41041.29
790.46	40961.42
790.64	41536.90
790.82	41274.76
791.00	40582.55
791.18	40998.29
791.36	40648.08
791.55	40863.12
791.73	40449.43
791.91	40431.00
792.09	40613.27
792.27	40334.74
792.45	40701.33
792.63	40310.17
792.81	40132.00
793.00	40232.35
793.18	40293.79
793.36	39976.35
793.54	39622.05
793.72	39869.86
793.90	39404.97
794.08	39558.56
794.26	39843.23
794.44	39255.46
794.62	39075.24
794.81	39359.91
794.99	39005.61
795.17	39042.48
795.35	38741.42
795.53	39237.03
795.71	38956.46
795.89	38690.23
796.07	38303.16
796.25	38348.21
796.43	38462.90
796.61	38032.83
796.80	38301.11
796.98	38124.99
797.16	37770.69
797.34	38004.16
797.52	37852.61
797.70	37883.33
797.88	37649.86
798.06	37488.07
798.24	37752.26
798.42	37541.32
798.60	37434.82
798.78	37350.85
798.96	37596.61
799.14	36890.06
799.32	36867.53
799.51	36652.50
799.69	37152.20
799.87	36926.92
800.05	36849.10
800.23	36601.30
800.41	36232.66
800.59	36437.46
800.77	36492.76
800.95	35960.28
801.13	36085.21
801.31	36050.39
801.49	35972.57
801.67	36054.49
801.85	35816.93
802.03	35538.40
802.21	35436.00
802.39	35382.76
802.57	35509.73
802.75	35395.04
802.93	35206.63
803.11	35192.30
803.29	35337.70
803.47	34856.43
803.65	35235.30
803.83	34928.11
804.01	34928.11
804.19	34446.83
804.37	34567.66
804.55	34473.46
804.73	34420.21
804.91	34184.69
805.09	34526.71
805.27	34369.01
805.45	34309.62
805.63	34190.84
805.81	34031.10
805.99	34072.06
806.17	33928.70
806.35	33979.90
806.53	33467.91
806.71	33553.92
806.89	33809.92
807.07	33660.41
807.25	33682.94
807.43	33687.04
807.61	33490.43
807.79	33287.68
807.97	32818.70
808.15	33142.28
808.33	32742.92
808.51	33156.61
808.69	32738.83
808.87	32609.81
809.05	32593.42
809.23	32429.59
809.41	32378.39
809.59	32232.98
809.77	32427.54
809.95	32028.18
810.13	32693.77
810.31	31858.20
810.49	32149.01
810.67	32284.18
810.84	31952.41
811.02	31903.26
811.20	31946.26
811.38	31925.78
811.56	31651.36
811.74	31811.10
811.92	31282.72
812.10	31327.78
812.28	31235.62
812.46	31448.61
812.64	31471.14
812.82	31084.07
813.00	31198.76
813.18	31405.60
813.36	31333.92
813.53	30877.22
813.71	31102.50
813.89	30895.66
814.07	31047.21
814.25	30670.38
814.43	30604.84
814.61	30668.33
814.79	30690.86
814.97	30537.26
815.15	30426.67
815.33	30271.03
815.50	30203.44
815.68	30357.04
815.86	30471.73
816.04	30103.09
816.22	30203.44
816.40	29990.45
816.58	30078.52
816.76	30189.11
816.94	29668.92
817.11	30254.64
817.29	29537.85
817.47	29611.58
817.65	29417.02
817.83	29380.16
818.01	29394.50
818.19	29328.96
818.37	29173.31
818.54	29158.98
818.72	29087.30
818.90	29500.99
819.08	29281.86
819.26	29118.02
819.44	28997.19
819.62	28907.08
819.80	29253.19
819.97	28956.23
820.15	28712.52
820.33	28554.83
820.51	28929.61
820.69	28530.25
820.87	28726.86
821.05	28708.43
821.22	28677.71
821.40	28667.47
821.58	28341.84
821.76	28386.89
821.94	28053.08
822.12	28296.78
822.29	28388.94
822.47	27995.73
822.65	28128.85
822.83	28178.00
823.01	27913.81
823.19	28159.57
823.36	27919.96
823.54	27715.16
823.72	27580.00
823.90	27678.30
824.08	27514.46
824.25	27704.92
824.43	27233.89
824.61	27608.67
824.79	27653.72
824.97	27242.08
825.15	27432.54
825.32	27481.69
825.50	27385.44
825.68	27125.35
825.86	27471.45
826.04	27580.00
826.21	27375.20
826.39	27571.80
826.57	27160.16
826.75	26965.60
826.93	26857.06
827.10	27029.09
827.28	27520.60
827.46	27033.19
827.64	26826.34
827.81	26910.31
827.99	26889.83
828.17	26922.60
828.35	26742.38
828.53	26455.66
828.70	26760.81
828.88	26578.54
829.06	26824.29
829.24	26723.94
829.41	26164.85
829.59	26703.46
829.77	26439.28
829.95	26562.15
830.12	26637.93
830.30	26306.16
830.48	26404.46
830.66	26185.33
830.84	26365.55
831.01	25988.72
831.19	26084.98
831.37	26142.32
831.55	25745.02
831.72	25896.56
831.90	25835.13
832.08	25980.53
832.25	25878.13
832.43	26009.20
832.61	25822.84
832.79	25880.18
832.96	26054.26
833.14	25687.67
833.32	26078.83
833.50	25796.21
833.67	25644.66
833.85	25712.25
834.03	25716.34
834.20	25566.84
834.38	25572.99
834.56	25642.62
834.74	25509.50
834.91	25503.35
835.09	25470.59
835.27	25022.08
835.44	25335.42
835.62	24964.74
835.80	25378.43
835.98	25296.51
836.15	25282.17
836.33	25171.58
836.51	25128.58
836.68	25024.13
836.86	24825.48
837.04	25120.38
837.21	24934.02
837.39	24872.58
837.57	25153.15
837.75	24962.69
837.92	24596.10
838.10	24616.58
838.28	24495.75
838.45	24551.05
838.63	24473.23
838.81	24540.81
838.98	24675.98
839.16	24333.96
839.34	24163.98
839.51	24331.92
839.69	24278.67
839.87	24374.92
840.04	24250.00
840.22	24526.47
840.40	24372.88
840.57	24159.89
840.75	24247.95
840.93	24133.26
841.10	24147.60
841.28	24729.22
841.46	24223.37
841.63	24094.35
841.81	24059.54
841.98	24505.99
842.16	24155.79
842.34	24235.66
842.51	23772.82
842.69	24348.30
842.87	24004.24
843.04	24206.99
843.22	23604.89
843.40	23991.95
843.57	24071.82
843.75	23776.92
843.92	23885.46
844.10	23723.67
844.28	23617.18
844.45	23637.66
844.63	23467.67
844.81	23686.81
844.98	23781.01
845.16	23533.21
845.33	23664.28
845.51	23467.67
845.69	23678.61
845.86	23725.72
846.04	23678.61
846.21	23469.72
846.39	23568.02
846.57	23522.97
846.74	23510.68
846.92	23228.06
847.09	22998.69
847.27	23015.07
847.45	23459.48
847.62	23459.48
847.80	23479.96
847.97	23279.26
848.15	23254.69
848.32	23013.02
848.50	22894.24
848.68	22879.91
848.85	23207.58
849.03	22879.91
849.20	23183.01
849.38	23076.51
849.56	22976.16
849.73	22795.94
849.91	23432.86
850.08	23002.78
850.26	22898.34
850.43	22802.08
850.61	23015.07
850.78	22658.73
850.96	22707.88
851.14	22585.00
851.31	23000.74
851.49	22525.61
851.66	22642.34
851.84	22638.25
852.01	22658.73
852.19	22875.81
852.36	22298.28
852.54	22408.87
852.71	22316.72
852.89	22238.89
853.07	22402.73
853.24	22429.35
853.42	22318.76
853.59	22382.25
853.77	22417.07
853.94	22273.71
854.12	22482.60
854.29	22062.77
854.47	22410.92
854.64	22197.93
854.82	22216.36
854.99	22146.73
855.17	22449.83
855.34	22238.89
855.52	22353.58
855.69	22337.20
855.87	22152.88
856.04	21884.59
856.22	22081.20
856.39	21667.51
856.57	22066.86
856.74	21886.64
856.92	21913.27
857.09	21628.60
857.27	21778.10
857.44	22048.43
857.62	21880.50
857.79	22038.19
857.97	21757.62
858.14	21655.22
858.32	21325.50
858.49	21536.44
858.67	21743.28
858.84	21470.90
859.02	21565.11
859.19	21407.42
859.37	21155.52
859.54	21219.00
859.72	21311.16
859.89	21528.25
860.06	21294.78
860.24	21204.67
860.41	21763.76
860.59	21259.96
860.76	21454.52
860.94	21100.22
861.11	21524.15
861.29	21243.58
861.46	21501.62
861.64	21157.57
861.81	21354.17
861.98	21352.12
862.16	21253.82
862.33	20799.17
862.51	21124.80
862.68	21200.57
862.86	21079.74
863.03	21055.17
863.21	20975.30
863.38	20745.92
863.55	20879.04
863.73	21200.57
863.90	20950.72
864.08	20661.96
864.25	20915.90
864.43	20813.51
864.60	20977.34
864.77	20801.22
864.95	20948.67
865.12	20457.16
865.30	20690.63
865.47	20711.11
865.64	20508.36
865.82	21108.41
865.99	20801.22
866.17	20473.54
866.34	20747.97
866.51	20252.36
866.69	20471.50
866.86	20553.41
867.04	20412.10
867.21	20577.99
867.38	20397.77
867.56	20397.77
867.73	20025.04
867.91	20111.05
868.08	20387.53
868.25	20207.31
868.43	20256.46
868.60	20004.56
868.78	20174.54
868.95	20418.25
869.12	20432.58
869.30	20172.49
869.47	19939.02
869.64	19838.67
869.82	20106.96
869.99	20160.20
870.16	20143.82
870.34	19777.23
870.51	20022.99
870.69	19803.86
870.86	19683.03
871.03	19820.24
871.21	19738.32
871.38	19633.88
871.55	19867.34
871.73	19525.33
871.90	19461.85
872.07	19427.03
872.25	19580.63
872.42	19281.63
872.59	19494.61
872.77	19265.24
872.94	19412.70
873.11	19232.47
873.29	19220.19
873.46	19209.95
873.63	19257.05
873.81	19281.63
873.98	18894.56
874.15	19031.77
874.33	19033.82
874.50	18902.75
874.67	19134.17
874.85	19255.00
875.02	18702.05
875.19	18837.22
875.37	18980.57
875.54	18845.41
875.71	18736.87
875.88	18874.08
876.06	18796.26
876.23	18628.32
876.40	18568.93
876.58	18931.42
876.75	18677.48
876.92	18681.57
877.10	18790.11
877.27	18523.88
877.44	18435.81
877.61	18243.31
877.79	18231.02
877.96	18513.64
878.13	18335.46
878.31	18030.32
878.48	18165.48
878.65	18360.04
878.82	17972.97
879.00	18218.73
879.17	18052.84
879.34	18157.29
879.51	18067.18
879.69	17909.49
879.86	17958.64
880.03	18015.98
880.21	17798.90
880.38	18071.28
880.55	17903.34
880.72	17934.06
880.90	17827.57
881.07	17665.78
881.24	17446.65
881.41	17811.18
881.59	17925.87
881.76	17676.02
881.93	17698.55
882.10	17647.35
882.28	17653.49
882.45	17682.16
882.62	17342.20
882.79	17673.97
882.96	17512.18
883.14	17686.26
883.31	17817.33
883.48	17401.59
883.65	17372.92
883.83	17422.07
884.00	17456.89
884.17	17575.67
884.34	17573.62
884.51	17270.52
884.69	17403.64
884.86	17440.50
885.03	17299.19
885.20	17331.96
885.38	17567.48
885.55	17028.86
885.72	17032.96
885.89	17407.73
886.06	17149.69
886.24	17110.78
886.41	17045.24
886.58	17133.31
886.75	17356.54
886.92	17088.25
887.10	17211.13
887.27	16951.04
887.44	17088.25
887.61	17110.78
887.78	16981.76
887.95	17145.59
888.13	16811.78
888.30	16865.02
888.47	16883.45
888.64	16860.93
888.81	16850.69
888.99	16953.09
889.16	16490.24
889.33	16772.86
889.50	16389.89
889.67	16545.54
889.84	16697.09
890.01	16547.59
890.19	16377.61
890.36	16686.85
890.53	16746.24
890.70	16441.09
890.87	16297.74
891.04	16523.01
891.22	16455.43
891.39	16234.25
891.56	16197.38
891.73	16432.90
891.90	16133.90
892.07	16381.70
892.24	16264.97
892.42	16170.76
892.59	16140.04
892.76	16246.54
892.93	15939.34
893.10	16191.24
893.27	16135.95
893.44	15900.43
893.61	15884.05
893.79	16146.19
893.96	16066.31
894.13	15841.04
894.30	15865.61
894.47	16064.27
894.64	15820.56
894.81	16160.52
894.98	15882.00
895.15	16258.82
895.33	15836.94
895.50	16006.92
895.67	16037.64
895.84	15826.70
896.01	15900.43
896.18	15607.57
896.35	16051.98
896.52	16039.69
896.69	15802.13
896.86	15953.68
897.04	15720.21
897.21	15875.85
897.38	15695.63
897.55	15822.61
897.72	16002.83
897.89	15648.53
898.06	15718.16
898.23	15912.72
898.40	16019.21
898.57	15879.95
898.74	15857.42
898.91	15742.74
899.08	15968.01
899.26	15953.68
899.43	16006.92
899.60	15554.32
899.77	15894.29
899.94	15634.19
900.11	15568.66
900.28	15783.70
900.45	15705.87
900.62	15857.42
900.79	15912.72
900.96	15867.66
901.13	15787.79
901.30	15685.39
901.47	15296.28
901.64	15712.02
901.81	15855.37
901.98	15603.47
902.15	15687.44
902.32	15615.76
902.49	15808.27
902.66	15597.33
902.83	15646.48
903.01	15632.15
903.18	15613.71
903.35	15568.66
903.52	15916.81
903.69	15697.68
903.86	15908.62
904.03	15734.54
904.20	15626.00
904.37	15851.28
904.54	15474.45
904.71	15478.55
904.88	15773.46
905.05	15544.08
905.22	15875.85
905.39	15726.35
905.56	15365.91
905.73	15408.92
905.90	15578.90
906.07	15742.74
906.24	15527.70
906.41	15703.82
906.58	15701.78
906.75	15658.77
906.92	15503.12
907.09	15824.65
907.26	15607.57
907.43	15589.14
907.60	15591.19
907.77	15740.69
907.93	15556.37
908.10	15730.45
908.27	15572.75
908.44	15382.29
908.61	15648.53
908.78	15544.08
908.95	15544.08
909.12	15568.66
909.29	15539.99
909.46	15341.33
909.63	15554.32
909.80	15515.41
909.97	15445.78
910.14	15435.54
910.31	15466.26
910.48	15386.39
910.65	15296.28
910.82	15128.35
910.99	15281.94
911.16	15331.09
911.33	15535.89
911.50	15275.80
911.66	15140.63
911.83	15259.42
912.00	15173.40
912.17	14978.84
912.34	15122.20
912.51	14747.42
912.68	15068.95
912.85	15038.23
913.02	14868.25
913.19	14931.74
913.36	14993.18
913.53	15085.34
913.70	14737.18
913.86	14741.28
914.03	14690.08
914.20	14944.03
914.37	15046.43
914.54	14798.62
914.71	14606.11
914.88	14579.49
915.05	14778.14
915.22	14702.37
915.39	14487.33
915.55	14649.12
915.72	14593.83
915.89	14507.81
916.06	14071.59
916.23	14423.84
916.40	14155.56
916.57	14397.22
916.74	14274.34
916.91	14180.14
917.07	14270.25
917.24	14221.10
917.41	14278.44
917.58	14030.63
917.75	13866.80
917.92	13823.79
918.09	14102.31
918.26	14077.74
918.42	14198.57
918.59	13895.47
918.76	13786.93
918.93	13727.53
919.10	13813.55
919.27	13807.41
919.44	13971.24
919.60	13874.99
919.77	13596.46
919.94	13549.36
920.11	13616.94
920.28	13502.26
920.45	13541.17
920.61	13289.27
920.78	13338.42
920.95	13319.99
921.12	13477.68
921.29	13080.38
921.46	13244.21
921.62	13203.25
921.79	13160.25
921.96	12957.50
922.13	12842.81
922.30	12756.80
922.47	12771.13
922.63	12566.34
922.80	12734.27
922.97	12566.34
923.14	12801.85
923.31	12635.97
923.47	12414.79
923.64	12775.23
923.81	12502.85
923.98	12486.47
924.15	12175.17
924.32	12490.56
924.48	12263.24
924.65	12351.30
924.82	12283.72
924.99	12154.69
925.15	12152.65
925.32	12187.46
925.49	11867.98
925.66	12007.24
925.83	12148.55
925.99	11841.36
926.16	12033.86
926.33	11751.24
926.50	11851.60
926.67	11665.23
926.83	11675.47
927.00	11814.73
927.17	11663.18
927.34	11505.49
927.50	11624.27
927.67	11556.69
927.84	11376.47
928.01	11392.85
928.17	11261.78
928.34	11376.47
928.51	11253.59
928.68	11206.48
928.84	10948.44
929.01	11018.07
929.18	10852.19
929.35	11005.78
929.51	10917.72
929.68	10989.40
929.85	10796.89
930.02	10770.27
930.18	10790.75
930.35	10518.37
930.52	10743.64
930.69	10671.97
930.85	10506.08
931.02	10407.78
931.19	10606.43
931.36	10487.65
931.52	10653.53
931.69	10487.65
931.86	10372.96
932.02	10442.59
932.19	10235.75
932.36	10045.29
932.53	10000.23
932.69	10143.59
932.86	10119.01
933.03	9867.11
933.19	9787.24
933.36	9695.08
933.53	10073.96
933.70	9645.93
933.86	9756.52
934.03	9635.69
934.20	9668.46
934.36	9807.72
934.53	9461.62
934.70	9322.35
934.86	9285.49
935.03	9248.63
935.20	9224.05
935.36	9074.55
935.53	8857.46
935.70	9127.80
935.86	9060.21
936.03	8910.71
936.20	8619.90
936.36	8646.52
936.53	8652.67
936.70	8755.07
936.86	8597.37
937.03	8353.66
937.20	8341.38
937.36	8470.40
937.53	8083.33
937.70	7880.58
937.86	7985.03
938.03	7876.49
938.20	8036.23
938.36	7602.06
938.53	7577.48
938.70	7358.35
938.86	7571.34
939.03	7432.08
939.20	7303.06
939.36	7341.97
939.53	7081.88
939.70	7380.88
939.86	7024.53
940.03	6938.52
940.19	6868.89
940.36	6645.66
940.53	6782.87
940.69	6723.48
940.86	6651.80
941.03	6582.17
941.19	6539.16
941.36	6440.86
941.52	6449.05
941.69	6248.35
941.86	6311.84
942.02	6107.04
942.19	6227.87
942.35	6115.23
942.52	5982.12
942.69	6031.27
942.85	5881.77
943.02	6072.23
943.18	5865.38
943.35	5779.37
943.52	5851.05
943.68	5683.11
943.85	5803.94
944.01	5693.35
944.18	5648.30
944.35	5775.27
944.51	5410.73
944.68	5441.45
944.84	5390.25
945.01	5492.65
945.17	5554.09
945.34	5488.56
945.51	5437.36
945.67	5314.48
945.84	5423.02
946.00	5263.28
946.17	5146.55
946.33	5289.90
946.50	5357.49
946.67	5238.70
946.83	5308.34
947.00	5373.87
947.16	5332.91
947.33	5238.70
947.49	5279.66
947.66	5173.17
947.82	5463.98
947.99	5205.94
948.16	5377.97
948.32	5103.54
948.49	5269.42
948.65	5298.10
948.82	5226.42
948.98	5250.99
949.15	5253.04
949.31	5328.81
949.48	5361.58
949.64	5160.88
949.81	5339.05
949.97	5140.40
950.14	5220.27
950.30	5271.47
950.47	5320.62
950.63	5386.16
950.80	5212.08
950.96	5207.98
951.13	5242.80
951.30	5312.43
951.46	5328.81
951.63	5347.25
951.79	5230.51
951.96	5377.97
952.12	5351.34
952.29	5367.73
952.45	5412.78
952.62	5148.59
952.78	5312.43
952.94	5416.88
953.11	5291.95
953.27	5361.58
953.44	5367.73
953.60	5500.84
953.77	5388.21
953.93	5406.64
954.10	5457.84
954.26	5277.62
954.43	5396.40
954.59	5459.88
954.76	5535.66
954.92	5414.83
955.09	5445.55
955.25	5443.50
955.42	5459.88
955.58	5466.03
955.75	5461.93
955.91	5423.02
956.07	5449.64
956.24	5375.92
956.40	5478.32
956.57	5463.98
956.73	5337.01
956.90	5474.22
957.06	5306.29
957.23	5363.63
957.39	5388.21
957.56	5412.78
957.72	5353.39
957.88	5334.96
958.05	5457.84
958.21	5509.04
958.38	5547.95
958.54	5484.46
958.71	5539.76
958.87	5396.40
959.03	5414.83
959.20	5474.22
959.36	5287.86
959.53	5343.15
959.69	5449.64
959.85	5509.04
960.02	5416.88
960.18	5445.55
960.35	5425.07
960.51	5490.60
960.68	5328.81
960.84	5390.25
961.00	5300.14
961.17	5250.99
961.33	5394.35
961.50	5466.03
961.66	5515.18
961.82	5277.62
961.99	5423.02
962.15	5300.14
962.31	5263.28
962.48	5384.11
962.64	5402.54
962.81	5334.96
962.97	5459.88
963.13	5369.77
963.30	5398.45
963.46	5324.72
963.62	5369.77
963.79	5359.53
963.95	5304.24
964.12	5384.11
964.28	5322.67
964.44	5283.76
964.61	5234.61
964.77	5201.84
964.93	5337.01
965.10	5316.53
965.26	5154.74
965.42	5087.15
965.59	5214.13
965.75	5324.72
965.92	5171.12
966.08	5187.50
966.24	5111.73
966.41	5193.65
966.57	5259.18
966.73	5302.19
966.90	5183.41
967.06	5119.92
967.22	5128.11
967.39	5267.38
967.55	5113.78
967.71	5124.02
967.88	5126.07
968.04	5111.73
968.20	5132.21
968.37	5058.48
968.53	5113.78
968.69	5054.39
968.85	5220.27
969.02	5179.31
969.18	5171.12
969.34	5091.25
969.51	5238.70
969.67	5017.52
969.83	4911.03
970.00	5103.54
970.16	5083.06
970.32	5007.28
970.48	5017.52
970.65	4951.99
970.81	4947.89
970.97	4904.89
971.14	4802.49
971.30	4954.04
971.46	4843.45
971.63	4843.45
971.79	4988.85
971.95	4974.52
972.11	4831.16
972.28	4933.56
972.44	4966.32
972.60	4945.84
972.76	4802.49
972.93	4812.73
973.09	4902.84
973.25	4911.03
973.42	4734.90
973.58	4870.07
973.74	4829.11
973.90	4808.63
974.07	4882.36
974.23	4874.17
974.39	4673.46
974.55	4853.69
974.72	4870.07
974.88	4808.63
975.04	4786.10
975.20	4773.82
975.37	4773.82
975.53	4693.94
975.69	4683.70
975.85	4597.69
976.01	4632.51
976.18	4720.57
976.34	4534.20
976.50	4671.42
976.66	4843.45
976.83	4548.54
976.99	4708.28
977.15	4620.22
977.31	4505.53
977.47	4722.62
977.64	4562.87
977.80	4583.35
977.96	4587.45
978.12	4628.41
978.29	4433.85
978.45	4489.15
978.61	4396.99
978.77	4595.64
978.93	4478.91
979.10	4442.04
979.26	4358.08
979.42	4558.78
979.58	4448.19
979.74	4362.17
979.91	4388.80
980.07	4317.12
980.23	4446.14
980.39	4360.13
980.55	4462.52
980.71	4370.37
980.88	4218.82
981.04	4425.66
981.20	4362.17
981.36	4317.12
981.52	4380.61
981.68	4233.15
981.85	4366.27
982.01	4323.26
982.17	4331.45
982.33	4335.55
982.49	4263.87
982.65	4089.79
982.82	4212.67
982.98	4245.44
983.14	4231.10
983.30	4204.48
983.46	4204.48
983.62	4224.96
983.79	4153.28
983.95	4194.24
984.11	4222.91
984.27	4138.94
984.43	4081.60
984.59	4167.62
984.75	4151.23
984.91	3973.06
985.08	4108.23
985.24	4046.79
985.40	3979.20
985.56	4093.89
985.72	4132.80
985.88	4157.38
986.04	3954.63
986.20	3995.59
986.37	3923.91
986.53	3956.68
986.69	3938.24
986.85	3925.96
987.01	4077.51
987.17	4038.59
987.33	3923.91
987.49	3841.99
987.65	3979.20
987.82	3846.09
987.98	3837.89
988.14	3946.44
988.30	3817.41
988.46	3897.28
988.62	3841.99
988.78	3874.76
988.94	3825.61
989.10	3821.51
989.26	3796.93
989.42	3803.08
989.59	3727.30
989.75	3823.56
989.91	3762.12
990.07	3696.58
990.23	3790.79
990.39	3764.17
990.55	3753.93
990.71	3667.91
990.87	3723.21
991.03	3735.50
991.19	3747.78
991.35	3725.26
991.51	3770.31
991.67	3723.21
991.83	3606.47
992.00	3882.95
992.16	3760.07
992.32	3706.82
992.48	3735.50
992.64	3579.85
992.80	3633.10
992.96	3534.79
993.12	3618.76
993.28	3631.05
993.44	3651.53
993.60	3688.39
993.76	3540.94
993.92	3577.80
994.08	3680.20
994.24	3561.42
994.40	3555.27
994.56	3583.95
994.72	3467.21
994.88	3479.50
995.04	3489.74
995.20	3510.22
995.36	3502.03
995.52	3522.51
995.68	3549.13
995.84	3358.67
996.00	3542.99
996.16	3348.43
996.32	3362.76
996.48	3438.54
996.64	3526.60
996.80	3399.63
996.96	3375.05
997.12	3418.06
997.28	3295.18
997.44	3268.56
997.60	3366.86
997.76	3293.13
997.92	3463.12
998.08	3342.28
998.24	3235.79
998.40	3295.18
998.56	3358.67
998.72	3203.02
998.88	3303.37
999.04	3231.69
999.20	3366.86
999.36	3289.04
999.52	3370.96
999.68	3246.03
999.84	3297.23
1000.00	3342.28
1000.16	3342.28
1000.32	3262.41
1000.48	3307.47
1000.64	3178.45
1000.80	3227.60
1000.95	3243.98
1001.11	3182.54
1001.27	3110.86
1001.43	3211.22
1001.59	3209.17
1001.75	3063.76
1001.91	3121.10
1002.07	3235.79
1002.23	3133.39
1002.39	3082.19
1002.55	3166.16
1002.71	3100.62
1002.87	3043.28
1003.03	2994.13
1003.19	3002.32
1003.34	3065.81
1003.50	3074.00
1003.66	3149.78
1003.82	3114.96
1003.98	3076.05
1004.14	3041.23
1004.30	3033.04
1004.46	2930.64
1004.62	2920.40
1004.78	2920.40
1004.94	2971.60
1005.09	3004.37
1005.25	3078.10
1005.41	2863.06
1005.57	2979.79
1005.73	2930.64
1005.89	2965.46
1006.05	2981.84
1006.21	3082.19
1006.37	2934.74
1006.52	2914.26
1006.68	2850.77
1006.84	2975.70
1007.00	2832.34
1007.16	2928.60
1007.32	2865.11
1007.48	2955.22
1007.64	2889.68
1007.79	2811.86
1007.95	2793.43
1008.11	2916.31
1008.27	2783.19
1008.43	2918.36
1008.59	2793.43
1008.75	2928.60
1008.91	2852.82
1009.06	2824.15
1009.22	2881.49
1009.38	2840.53
1009.54	2893.78
1009.70	2793.43
1009.86	2686.94
1010.01	2787.29
1010.17	2676.70
1010.33	2758.61
1010.49	2602.97
1010.65	2850.77
1010.81	2658.26
1010.96	2707.41
1011.12	2697.17
1011.28	2723.80
1011.44	2822.10
1011.60	2666.46
1011.76	2623.45
1011.91	2715.61
1012.07	2557.91
1012.23	2641.88
1012.39	2588.63
1012.55	2736.09
1012.71	2598.87
1012.86	2559.96
1013.02	2605.02
1013.18	2586.58
1013.34	2545.63
1013.50	2633.69
1013.65	2654.17
1013.81	2549.72
1013.97	2521.05
1014.13	2680.79
1014.29	2478.04
1014.44	2650.07
1014.60	2621.40
1014.76	2504.67
1014.92	2574.30
1015.07	2607.06
1015.23	2613.21
1015.39	2473.95
1015.55	2547.67
1015.71	2494.43
1015.86	2490.33
1016.02	2424.80
1016.18	2437.08
1016.34	2557.91
1016.49	2494.43
1016.65	2539.48
1016.81	2445.27
1016.97	2484.19
1017.12	2570.20
1017.28	2510.81
1017.44	2428.89
1017.60	2381.79
1017.75	2408.41
1017.91	2469.85
1018.07	2496.47
1018.23	2457.56
1018.38	2396.12
1018.54	2418.65
1018.70	2363.36
1018.86	2447.32
1019.01	2377.69
1019.17	2447.32
1019.33	2484.19
1019.49	2367.45
1019.64	2387.93
1019.80	2396.12
1019.96	2441.18
1020.12	2412.51
1020.27	2306.01
1020.43	2365.40
1020.59	2412.51
1020.74	2426.84
1020.90	2394.08
1021.06	2310.11
1021.22	2314.20
1021.37	2328.54
1021.53	2199.52
1021.69	2336.73
1021.84	2236.38
1022.00	2361.31
1022.16	2275.29
1022.31	2332.64
1022.47	2383.84
1022.63	2299.87
1022.79	2207.71
1022.94	2291.68
1023.10	2342.88
1023.26	2306.01
1023.41	2301.92
1023.57	2287.58
1023.73	2246.62
1023.88	2222.05
1024.04	2211.81
1024.20	2217.95
1024.35	2285.53
1024.51	2320.35
1024.67	2220.00
1024.82	2303.96
1024.98	2150.37
1025.14	2328.54
1025.29	2174.94
1025.45	2205.66
1025.61	2154.46
1025.76	2254.81
1025.92	2148.32
1026.08	2303.96
1026.23	2375.64
1026.39	2160.61
1026.55	2162.66
1026.70	2230.24
1026.86	2166.75
1027.02	2174.94
1027.17	2162.66
1027.33	2203.61
1027.48	2164.70
1027.64	2146.27
1027.80	2129.89
1027.95	2117.60
1028.11	2150.37
1028.27	2142.18
1028.42	2140.13
1028.58	2076.64
1028.73	2068.45
1028.89	2039.78
1029.05	2179.04
1029.20	2107.36
>>>>>End Processed Spectral Data<<<<<
