SpectraSuite Data File
++++++++++++++++++++++++++++++++++++
Date: Fri Jun 02 14:48:01 CEST 2017
User: INFO_000
Dark Spectrum Present: No
Reference Spectrum Present: No
Number of Sampled Component Spectra: 1
Spectrometers: USB4H00879
Integration Time (usec): 80000 (USB4H00879)
Spectra Averaged: 1 (USB4H00879)
Boxcar Smoothing: 0 (USB4H00879)
Correct for Electrical Dark: No (USB4H00879)
Strobe/Lamp Enabled: No (USB4H00879)
Correct for Detector Non-linearity: No (USB4H00879)
Correct for Stray Light: No (USB4H00879)
Number of Pixels in Processed Spectrum: 3648
>>>>>Begin Processed Spectral Data<<<<<
345.13	1337.32
345.34	1337.32
345.56	1337.32
345.78	1222.64
345.99	1263.60
346.21	1724.39
346.42	1742.82
346.64	1656.81
346.86	1783.78
347.07	1685.48
347.29	1726.44
347.50	1546.22
347.72	1626.09
347.94	1761.25
348.15	1568.74
348.37	1576.94
348.59	1728.49
348.80	1650.66
349.02	1677.29
349.23	1843.17
349.45	1798.12
349.67	1929.19
349.88	1828.84
350.10	1908.71
350.31	1849.32
350.53	1877.99
350.75	2019.30
350.96	1834.98
351.18	1830.88
351.39	1880.04
351.61	1785.83
351.82	1871.84
352.04	1939.43
352.26	1859.56
352.47	1951.71
352.69	1898.47
352.90	1783.78
353.12	1832.93
353.34	1810.40
353.55	1900.52
353.77	1812.45
353.98	1880.04
354.20	1875.94
354.41	1882.08
354.63	1894.37
354.85	2015.20
355.06	1935.33
355.28	1808.36
355.49	1865.70
355.71	1843.17
355.92	1832.93
356.14	1890.28
356.35	1877.99
356.57	1855.46
356.79	1918.95
357.00	1910.75
357.22	1931.23
357.43	1808.36
357.65	2011.11
357.86	1869.80
358.08	1966.05
358.29	1961.95
358.51	1906.66
358.72	1886.18
358.94	1959.91
359.16	1904.61
359.37	1937.38
359.59	1966.05
359.80	1972.19
360.02	1996.77
360.23	1945.57
360.45	2041.82
360.66	1929.19
360.88	1861.60
361.09	1990.63
361.31	1998.82
361.52	1974.24
361.74	2029.54
361.95	2119.65
362.17	1994.72
362.38	2115.55
362.60	2004.96
362.81	1984.48
363.03	1974.24
363.24	1953.76
363.46	2115.55
363.67	1927.14
363.89	2025.44
364.10	2015.20
364.32	1949.67
364.53	1982.43
364.75	1916.90
364.96	2013.15
365.18	1994.72
365.39	2023.39
365.61	1912.80
365.82	2113.50
366.04	2093.02
366.25	1908.71
366.47	2017.25
366.68	1988.58
366.90	2000.87
367.11	1957.86
367.33	2148.32
367.54	2236.38
367.76	2056.16
367.97	2133.98
368.19	1957.86
368.40	2111.46
368.62	2025.44
368.83	2060.26
369.05	2129.89
369.26	2041.82
369.48	1972.19
369.69	1953.76
369.91	2007.01
370.12	2052.06
370.33	2113.50
370.55	1955.81
370.76	2078.69
370.98	2125.79
371.19	2031.58
371.41	2009.06
371.62	2058.21
371.84	2007.01
372.05	2123.74
372.27	2031.58
372.48	2033.63
372.69	2060.26
372.91	2158.56
373.12	2191.33
373.34	2088.93
373.55	2211.81
373.77	2246.62
373.98	2074.59
374.20	2158.56
374.41	2379.74
374.62	2195.42
374.84	2211.81
375.05	2211.81
375.27	2205.66
375.48	2193.37
375.70	2142.18
375.91	2213.85
376.12	2277.34
376.34	2131.94
376.55	2209.76
376.77	2195.42
376.98	2101.22
377.19	2197.47
377.41	2197.47
377.62	2279.39
377.84	2199.52
378.05	2338.78
378.27	2252.77
378.48	2263.01
378.69	2316.25
378.91	2291.68
379.12	2289.63
379.34	2226.14
379.55	2334.68
379.76	2338.78
379.98	2248.67
380.19	2291.68
380.41	2260.96
380.62	2338.78
380.83	2291.68
381.05	2197.47
381.26	2422.75
381.47	2224.09
381.69	2351.07
381.90	2453.47
382.12	2256.86
382.33	2293.72
382.54	2310.11
382.76	2363.36
382.97	2295.77
383.19	2269.15
383.40	2432.99
383.61	2271.20
383.83	2346.97
384.04	2326.49
384.25	2318.30
384.47	2443.23
384.68	2383.84
384.89	2250.72
385.11	2351.07
385.32	2410.46
385.54	2394.08
385.75	2367.45
385.96	2451.42
386.18	2404.32
386.39	2478.04
386.60	2402.27
386.82	2441.18
387.03	2404.32
387.24	2533.34
387.46	2457.56
387.67	2547.67
387.88	2527.19
388.10	2557.91
388.31	2519.00
388.52	2572.25
388.74	2584.54
388.95	2572.25
389.16	2469.85
389.38	2510.81
389.59	2615.26
389.80	2684.89
390.02	2498.52
390.23	2672.60
390.44	2559.96
390.66	2598.87
390.87	2475.99
391.08	2600.92
391.30	2723.80
391.51	2672.60
391.72	2664.41
391.94	2707.41
392.15	2760.66
392.36	2662.36
392.58	2625.50
392.79	2697.17
393.00	2703.32
393.22	2703.32
393.43	2721.75
393.64	2830.29
393.85	2797.53
394.07	2772.95
394.28	2768.85
394.49	2789.33
394.71	2697.17
394.92	2848.72
395.13	2684.89
395.35	2734.04
395.56	2793.43
395.77	2895.83
395.98	2721.75
396.20	2869.20
396.41	2961.36
396.62	2951.12
396.84	2828.24
397.05	2885.59
397.26	2961.36
397.47	2947.03
397.69	2889.68
397.90	3133.39
398.11	2916.31
398.32	2932.69
398.54	2934.74
398.75	2990.03
398.96	2889.68
399.18	3123.15
399.39	2965.46
399.60	3096.53
399.81	2975.70
400.03	2869.20
400.24	3219.41
400.45	3100.62
400.66	3178.45
400.88	3049.43
401.09	3268.56
401.30	3139.54
401.51	3139.54
401.73	3186.64
401.94	3221.45
402.15	3211.22
402.36	3176.40
402.58	3278.80
402.79	3223.50
403.00	3239.89
403.21	3305.42
403.43	3207.12
403.64	3301.33
403.85	3170.26
404.06	3252.17
404.27	3174.35
404.49	3278.80
404.70	3278.80
404.91	3420.11
405.12	3336.14
405.34	3258.32
405.55	3542.99
405.76	3121.10
405.97	3246.03
406.19	3428.30
406.40	3266.51
406.61	3428.30
406.82	3307.47
407.03	3454.92
407.25	3452.88
407.46	3561.42
407.67	3477.45
407.88	3401.68
408.09	3327.95
408.31	3436.49
408.52	3506.12
408.73	3385.29
408.94	3440.59
409.15	3506.12
409.37	3532.75
409.58	3475.40
409.79	3530.70
410.00	3489.74
410.21	3536.84
410.43	3596.23
410.64	3454.92
410.85	3467.21
411.06	3641.29
411.27	3659.72
411.48	3698.63
411.70	3579.85
411.91	3663.82
412.12	3663.82
412.33	3547.08
412.54	3653.58
412.76	3641.29
412.97	3594.19
413.18	3678.15
413.39	3743.69
413.60	3717.06
413.81	3696.58
414.03	3618.76
414.24	3702.73
414.45	3854.28
414.66	3573.71
414.87	3762.12
415.08	3895.24
415.30	3704.78
415.51	3882.95
415.72	3805.13
415.93	3833.80
416.14	3850.18
416.35	3874.76
416.56	3872.71
416.78	3848.13
416.99	3968.96
417.20	3899.33
417.41	4065.22
417.62	3897.28
417.83	3968.96
418.04	3870.66
418.26	4018.11
418.47	3989.44
418.68	3979.20
418.89	4087.75
419.10	4227.01
419.31	4124.61
419.52	4159.42
419.73	4093.89
419.95	4116.42
420.16	3958.72
420.37	4241.34
420.58	4159.42
420.79	3983.30
421.00	4136.90
421.21	4214.72
421.42	4093.89
421.63	4134.85
421.85	4231.10
422.06	4247.49
422.27	4294.59
422.48	4380.61
422.69	4382.65
422.90	4282.30
423.11	4374.46
423.32	4222.91
423.53	4419.52
423.75	4429.76
423.96	4501.44
424.17	4468.67
424.38	4569.02
424.59	4534.20
424.80	4632.51
425.01	4595.64
425.22	4468.67
425.43	4624.31
425.64	4769.72
425.85	4773.82
426.06	4577.21
426.28	4628.41
426.49	4607.93
426.70	4599.74
426.91	4597.69
427.12	4739.00
427.33	4827.06
427.54	4636.60
427.75	4902.84
427.96	5025.72
428.17	4767.67
428.38	4898.74
428.59	4915.12
428.80	4872.12
429.01	4962.23
429.23	4857.78
429.44	5107.63
429.65	5042.10
429.86	5093.30
430.07	4908.98
430.28	4986.80
430.49	5050.29
430.70	5255.09
430.91	5371.82
431.12	5054.39
431.33	5373.87
431.54	5382.06
431.75	5425.07
431.96	5242.80
432.17	5148.59
432.38	5136.31
432.59	5400.49
432.80	5332.91
433.01	5367.73
433.22	5371.82
433.43	5427.12
433.64	5472.17
433.85	5388.21
434.06	5386.16
434.27	5484.46
434.49	5511.08
434.70	5595.05
434.91	5545.90
435.12	5687.21
435.33	5558.19
435.54	5652.39
435.75	5388.21
435.96	5531.56
436.17	5451.69
436.38	5722.02
436.59	5797.80
436.80	5658.54
437.01	5859.24
437.22	5834.66
437.43	5859.24
437.64	5633.96
437.85	5885.86
438.06	5973.92
438.27	5801.90
438.48	5752.74
438.69	6070.18
438.90	5912.49
439.11	5734.31
439.32	6004.64
439.53	5986.21
439.74	6006.69
439.95	6168.48
440.16	6047.65
440.37	5984.16
440.57	5775.27
440.78	5978.02
440.99	6203.30
441.20	6188.96
441.41	5939.11
441.62	6162.34
441.83	6121.38
442.04	6209.44
442.25	6338.46
442.46	6240.16
442.67	6320.03
442.88	6500.25
443.09	6145.95
443.30	6309.79
443.51	6227.87
443.72	6635.42
443.93	6256.54
444.14	6520.73
444.35	6307.74
444.56	6457.25
444.77	6504.35
444.98	6424.48
445.19	6582.17
445.40	6496.16
445.61	6410.14
445.81	6756.25
446.02	6592.41
446.23	6682.52
446.44	6473.63
446.65	6717.34
446.86	6651.80
447.07	6700.95
447.28	6932.37
447.49	6821.78
447.70	6766.49
447.91	6784.92
448.12	6668.19
448.33	6782.87
448.54	6922.13
448.74	6752.15
448.95	6911.89
449.16	6922.13
449.37	7061.40
449.58	6805.40
449.79	7235.47
450.00	6758.30
450.21	7147.41
450.42	7292.82
450.63	7128.98
450.84	7059.35
451.05	7198.61
451.25	7094.16
451.46	7214.99
451.67	7427.98
451.88	7337.87
452.09	7321.49
452.30	7219.09
452.51	7239.57
452.72	7374.74
452.93	7769.99
453.13	7333.78
453.34	7395.22
453.55	7614.35
453.76	7378.83
453.97	7876.49
454.18	7665.55
454.39	7743.37
454.60	7769.99
454.81	7868.30
455.01	7780.23
455.22	7552.91
455.43	7864.20
455.64	7997.32
455.85	8054.66
456.06	8298.37
456.27	8034.18
456.48	7923.59
456.68	8136.58
456.89	8128.39
457.10	8105.86
457.31	8251.27
457.52	7954.31
457.73	8517.50
457.94	8435.58
458.14	8216.45
458.35	8636.28
458.56	8454.02
458.77	8486.78
458.98	8570.75
459.19	8490.88
459.39	8574.85
459.60	8763.26
459.81	8654.72
460.02	8677.24
460.23	8767.35
460.44	9039.73
460.65	8892.28
460.85	8951.67
461.06	9088.89
461.27	8707.96
461.48	9117.56
461.69	9203.57
461.89	9144.18
462.10	9170.80
462.31	8974.20
462.52	9045.88
462.73	9056.12
462.94	9518.96
463.14	9287.54
463.35	9256.82
463.56	9783.15
463.77	9664.36
463.98	9512.81
464.18	9789.29
464.39	9752.43
464.60	9766.76
464.81	10002.28
465.02	9752.43
465.23	10307.43
465.43	9924.46
465.64	10137.45
465.85	10225.51
466.06	9987.94
466.27	10256.23
466.47	10329.95
466.68	10336.10
466.89	10268.52
467.10	10651.49
467.30	10198.88
467.51	10397.54
467.72	10663.77
467.93	10264.42
468.14	10659.68
468.34	10749.79
468.55	10669.92
468.76	10866.52
468.97	10848.09
469.17	11005.78
469.38	11104.09
469.59	11343.70
469.80	11011.93
470.01	11122.52
470.21	11147.09
470.42	11429.71
470.63	11208.53
470.84	11325.27
471.04	11636.56
471.25	11505.49
471.46	11822.92
471.67	11921.23
471.87	11743.05
472.08	11980.62
472.29	12109.64
472.50	11841.36
472.70	12009.29
472.91	11949.90
473.12	12474.18
473.33	12216.13
473.53	12535.62
473.74	12408.64
473.95	12830.52
474.16	12676.93
474.36	12609.34
474.57	12992.31
474.78	12941.11
474.99	12861.24
475.19	12789.56
475.40	13227.83
475.61	13350.71
475.81	13629.23
476.02	13698.86
476.23	13342.52
476.44	13877.04
476.64	13791.02
476.85	13831.98
477.06	14006.06
477.27	14114.60
477.47	14274.34
477.68	14112.55
477.89	14186.28
478.09	14436.13
478.30	14479.14
478.51	14368.55
478.71	14577.44
478.92	14663.46
479.13	14849.82
479.34	15085.34
479.54	14890.78
479.75	15124.25
479.96	15044.38
480.16	15021.85
480.37	15322.90
480.58	15122.20
480.78	15742.74
480.99	15918.86
481.20	15951.63
481.41	15845.13
481.61	15865.61
481.82	16133.90
482.03	15982.35
482.23	16051.98
482.44	16187.14
482.65	16553.73
482.85	16592.64
483.06	16400.13
483.27	16508.68
483.47	16643.84
483.68	16856.83
483.89	16983.80
484.09	16934.65
484.30	16955.13
484.51	17403.64
484.71	17395.45
484.92	17495.80
485.13	17450.74
485.33	17440.50
485.54	17669.87
485.75	17590.00
485.95	17929.97
486.16	17786.61
486.37	18282.22
486.57	17989.36
486.78	18007.79
486.98	18310.89
487.19	18304.74
487.40	18474.73
487.60	18505.45
487.81	18810.59
488.02	18585.32
488.22	18802.40
488.43	19433.18
488.64	19029.73
488.84	19181.28
489.05	19257.05
489.25	19238.62
489.46	19373.78
489.67	19130.08
489.87	19621.59
490.08	19789.52
490.29	19842.77
490.49	20014.80
490.70	20109.01
490.90	20276.94
491.11	19979.98
491.32	20401.86
491.52	20504.26
491.73	20393.67
491.94	20776.64
492.14	20395.72
492.35	20637.38
492.55	20743.88
492.76	21008.06
492.97	21135.04
493.17	21028.54
493.38	21046.97
493.58	21438.14
493.79	21589.69
494.00	21188.28
494.20	21395.13
494.41	21704.37
494.61	21747.38
494.82	21677.75
495.02	21827.25
495.23	21886.64
495.44	22111.92
495.64	22226.60
495.85	22372.01
496.05	22394.54
496.26	22212.27
496.47	22433.45
496.67	22193.84
496.88	22630.05
497.08	22443.69
497.29	22986.40
497.49	22734.50
497.70	22900.39
497.91	22965.92
498.11	23072.42
498.32	23387.80
498.52	23430.81
498.73	23559.83
498.93	23629.46
499.14	23705.24
499.34	23883.41
499.55	23844.50
499.76	23572.12
499.96	24037.01
500.17	23520.92
500.37	23989.91
500.58	24286.86
500.78	24200.85
500.99	24317.58
501.19	24530.57
501.40	24163.98
501.60	24237.71
501.81	24239.76
502.02	24753.80
502.22	24571.53
502.43	24860.29
502.63	24884.87
502.84	24829.57
503.04	24671.88
503.25	25159.30
503.45	25032.32
503.66	25144.96
503.86	25235.07
504.07	25362.04
504.27	24974.98
504.48	25511.55
504.68	25607.80
504.89	25292.41
505.09	25822.84
505.30	25636.47
505.50	25874.04
505.71	25824.89
505.91	25847.41
506.12	25888.37
506.32	25732.73
506.53	26097.27
506.73	25958.00
506.94	26166.90
507.14	26361.45
507.35	26447.47
507.55	26429.04
507.76	26637.93
507.96	26502.76
508.17	26566.25
508.37	26388.08
508.58	26603.11
508.78	26556.01
508.99	27180.64
509.19	27086.43
509.40	27022.95
509.60	26906.21
509.81	27432.54
510.01	27260.51
510.22	27072.10
510.42	27080.29
510.63	27528.80
510.83	27645.53
511.04	26938.98
511.24	27364.96
511.44	27188.83
511.65	27653.72
511.85	27643.48
512.06	27723.35
512.26	27815.51
512.47	27897.43
512.67	27635.29
512.88	28085.84
513.08	27801.18
513.29	27956.82
513.49	28198.48
513.69	27895.38
513.90	28118.61
514.10	27979.35
514.31	28429.90
514.51	28237.39
514.72	28296.78
514.92	28198.48
515.13	28231.25
515.33	28702.28
515.53	28657.23
515.74	28624.46
515.94	28724.81
516.15	28933.70
516.35	28780.10
516.56	28683.85
516.76	28620.36
516.96	28872.26
517.17	29077.06
517.37	29036.10
517.58	29431.36
517.78	29306.43
517.99	28931.65
518.19	29580.86
518.39	29668.92
518.60	29681.21
518.80	29429.31
519.01	29670.97
519.21	29857.34
519.41	29576.76
519.62	29775.42
519.82	29986.36
520.03	30037.56
520.23	29775.42
520.43	30123.57
520.64	30463.54
520.84	30326.32
521.05	30041.65
521.25	30217.78
521.45	30711.34
521.66	30725.68
521.86	30813.74
522.07	30557.74
522.27	30754.35
522.47	30672.43
522.68	30914.09
522.88	30508.59
523.08	31022.63
523.29	30983.72
523.49	31286.82
523.70	31297.06
523.90	31569.44
524.10	31751.71
524.31	31729.18
524.51	31116.84
524.71	32171.54
524.92	31823.39
525.12	32169.49
525.33	32019.99
525.53	32323.09
525.73	32318.99
525.94	32124.44
526.14	32204.31
526.34	32130.58
526.55	32669.20
526.75	32826.89
526.95	32548.37
527.16	32491.02
527.36	32505.36
527.56	32818.70
527.77	32921.10
527.97	32933.39
528.17	32849.42
528.38	33428.99
528.58	33433.09
528.78	33641.98
528.99	33304.07
529.19	33789.44
529.39	33242.63
529.60	34041.34
529.80	33734.14
530.00	33961.47
530.21	33969.66
530.41	34098.68
530.61	34330.10
530.82	34233.85
531.02	34205.17
531.22	34184.69
531.43	34489.84
531.63	34489.84
531.83	34549.23
532.04	34799.08
532.24	34799.08
532.44	35118.57
532.64	35067.37
532.85	35296.74
533.05	35505.63
533.25	35433.96
533.46	35241.45
533.66	35659.23
533.86	35536.35
534.07	36085.21
534.27	35671.52
534.47	36259.29
534.67	36083.16
534.88	35825.12
535.08	35806.69
535.28	36275.67
535.49	36242.90
535.69	36701.65
535.89	36541.91
536.09	37068.23
536.30	37201.35
536.50	36885.97
536.70	37219.78
536.91	36879.82
537.11	37035.47
537.31	37244.36
537.51	37250.50
537.72	37547.46
537.92	37461.44
538.12	37739.97
538.32	37563.84
538.53	38198.71
538.73	37649.86
538.93	37375.43
539.13	38143.42
539.34	37662.15
539.54	38118.84
539.74	38432.18
539.94	38432.18
540.15	38245.82
540.35	38743.47
540.55	38567.35
540.75	38794.67
540.96	38696.37
541.16	38661.55
541.36	38372.79
541.56	38641.07
541.77	39191.98
541.97	38622.64
542.17	39189.93
542.37	39572.90
542.58	39054.76
542.78	39450.02
542.98	39382.44
543.18	39523.75
543.38	39749.03
543.59	39742.88
543.79	39431.59
543.99	39566.76
544.19	40207.77
544.40	39953.82
544.60	40437.14
544.80	39792.03
545.00	39990.69
545.20	40435.10
545.41	40021.41
545.61	39974.30
545.81	40891.79
546.01	40613.27
546.21	40277.40
546.42	40488.34
546.62	40844.69
546.82	40517.01
547.02	40797.59
547.22	40598.93
547.43	40795.54
547.63	41020.81
547.83	41151.88
548.03	40658.32
548.23	40904.08
548.44	41454.98
548.64	41049.49
548.84	41586.05
549.04	41205.13
549.24	41526.66
549.45	41729.41
549.65	41280.91
549.85	41944.45
550.05	41842.05
550.25	41733.51
550.45	41762.18
550.66	41964.93
550.86	41989.50
551.06	42399.10
551.26	42136.96
551.46	42245.50
551.66	42386.81
551.87	42503.54
552.07	42407.29
552.27	42440.06
552.47	42601.85
552.67	42407.29
552.87	42476.92
553.07	42784.12
553.28	42661.24
553.48	42630.52
553.68	42438.01
553.88	42739.06
554.08	42751.35
554.28	43021.68
554.48	42915.19
554.69	43050.35
554.89	43054.45
555.09	42857.84
555.29	42843.51
555.49	43036.02
555.69	43314.54
555.89	43234.67
556.10	43390.31
556.30	42960.24
556.50	42906.99
556.70	43353.45
556.90	43431.27
557.10	43703.65
557.30	43521.38
557.50	43496.81
557.70	43953.51
557.91	43801.96
558.11	43695.46
558.31	44021.09
558.51	43289.96
558.71	44045.66
558.91	43951.46
559.11	43908.45
559.31	43545.96
559.51	43726.18
559.72	43967.84
559.92	44316.00
560.12	43924.83
560.32	44176.73
560.52	44150.11
560.72	44494.17
560.92	44602.71
561.12	44236.12
561.32	44957.01
561.52	44299.61
561.72	44703.06
561.93	44035.42
562.13	44528.98
562.33	44184.93
562.53	44643.67
562.73	44449.11
562.93	44848.47
563.13	44645.72
563.33	44600.66
563.53	44774.74
563.73	44932.43
563.93	44875.09
564.13	45204.81
564.33	45036.88
564.53	45055.31
564.74	45469.00
564.94	44707.16
565.14	45043.02
565.34	44899.67
565.54	45067.60
565.74	45319.50
565.94	45634.89
566.14	45417.80
566.34	45135.18
566.54	45622.60
566.74	45008.21
566.94	45516.11
567.14	45546.82
567.34	45632.84
567.54	45536.59
567.74	45239.63
567.94	45610.31
568.14	45800.77
568.34	45974.85
568.54	45491.53
568.74	45464.91
568.94	45892.93
569.14	46159.17
569.34	45862.21
569.54	45880.64
569.75	45413.71
569.95	46105.92
570.15	46234.94
570.35	46294.33
570.55	45948.23
570.75	46071.10
570.95	46331.20
571.15	46351.68
571.35	46325.05
571.55	46546.23
571.75	46603.58
571.95	46720.31
572.15	46327.10
572.35	46974.26
572.55	46509.37
572.75	46535.99
572.95	46818.61
573.15	46949.68
573.35	46828.85
573.55	46531.90
573.75	46800.18
573.95	46945.59
574.15	46589.24
574.35	47170.86
574.55	47187.25
574.75	46671.16
574.95	47029.55
575.15	47220.02
575.34	47240.50
575.54	47045.94
575.74	47570.22
575.94	47777.06
576.14	47072.56
576.34	47525.16
576.54	47625.51
576.74	47441.20
576.94	47392.04
577.14	47471.92
577.34	48434.46
577.54	47666.47
577.74	47926.56
577.94	47772.97
578.14	47748.39
578.34	48203.04
578.54	47422.76
578.74	47904.04
578.94	48528.67
579.14	48094.50
579.34	48299.30
579.54	48264.48
579.74	48614.68
579.94	48446.75
580.13	48829.72
580.33	48289.06
580.53	48469.28
580.73	48526.62
580.93	48469.28
581.13	48586.01
581.33	49132.82
581.53	49308.94
581.73	48846.10
581.93	48848.15
582.13	48993.56
582.33	49177.87
582.53	48944.41
582.73	49020.18
582.92	49120.53
583.12	49646.86
583.32	49091.86
583.52	49222.93
583.72	49700.11
583.92	49544.46
584.12	49403.15
584.32	49775.88
584.52	49347.86
584.72	49483.02
584.92	49683.72
585.11	50124.04
585.31	49868.04
585.51	50136.32
585.71	49403.15
585.91	50226.43
586.11	50117.89
586.31	50144.51
586.51	50001.16
586.71	50314.50
586.91	50255.11
587.10	50023.68
587.30	50525.44
587.50	50324.74
587.70	50668.79
587.90	50869.50
588.10	50777.34
588.30	50328.83
588.50	50402.56
588.69	50693.37
588.89	50840.82
589.09	50758.91
589.29	50717.95
589.49	51428.59
589.69	50588.92
589.89	51059.96
590.08	50955.51
590.28	50760.95
590.48	50967.80
590.68	51016.95
590.88	51111.16
591.08	51213.55
591.28	51188.98
591.47	51420.40
591.67	51172.60
591.87	51504.37
592.07	51447.02
592.27	51373.30
592.47	51594.48
592.67	51426.54
592.86	51508.46
593.06	51557.61
593.26	51574.00
593.46	51385.58
593.66	52083.94
593.86	51647.72
594.05	51827.95
594.25	51827.95
594.45	51928.30
594.65	51995.88
594.85	51948.78
595.05	51977.45
595.24	52360.42
595.44	52014.31
595.64	52053.22
595.84	52327.65
596.04	52133.09
596.23	52198.63
596.43	52546.78
596.63	52294.88
596.83	52460.77
597.03	52618.46
597.22	52747.48
597.42	52659.42
597.62	53048.53
597.82	53191.89
598.02	52716.76
598.21	52847.83
598.41	52665.56
598.61	52794.59
598.81	53210.32
599.01	53109.97
599.20	53001.43
599.40	53200.08
599.60	53189.84
599.80	53038.29
600.00	53460.18
600.19	53456.08
600.39	53542.10
600.59	53695.69
600.79	53759.18
600.98	53171.41
601.18	53724.36
601.38	54033.61
601.58	54183.11
601.78	54150.34
601.97	53982.41
602.17	54348.99
602.37	54058.18
602.57	53716.17
602.76	54584.51
602.96	53857.48
603.16	54566.08
603.36	54473.92
603.55	54465.73
603.75	54074.57
603.95	54680.77
604.15	54500.54
604.34	54277.32
604.54	54656.19
604.74	54582.46
604.94	54523.07
605.13	55211.19
605.33	54664.38
605.53	54533.31
605.73	54887.61
605.92	55041.21
606.12	55293.11
606.32	55221.43
606.52	55014.58
606.71	55080.12
606.91	55196.85
607.11	55014.58
607.30	55534.77
607.50	55159.99
607.70	55635.12
607.90	55114.94
608.09	55395.51
608.29	55542.96
608.49	55477.43
608.68	55391.41
608.88	55678.13
609.08	55557.30
609.28	55506.10
609.47	55264.44
609.67	56116.39
609.87	55637.17
610.06	55970.99
610.26	55805.10
610.46	56118.44
610.66	55798.96
610.85	56169.64
611.05	55432.37
611.25	55762.09
611.44	55727.28
611.64	56026.28
611.84	55803.05
612.03	55903.40
612.23	55874.73
612.43	56212.65
612.62	56013.99
612.82	55786.67
613.02	56173.73
613.21	56138.92
613.41	55817.39
613.61	56360.10
613.80	55970.99
614.00	56341.67
614.20	56112.30
614.39	56366.24
614.59	56087.72
614.79	56153.26
614.98	56501.41
615.18	56523.94
615.38	56241.32
615.57	56071.34
615.77	56280.23
615.97	56362.15
616.16	56339.62
616.36	56640.67
616.56	56327.33
616.75	56665.25
616.95	56296.61
617.15	56751.26
617.34	56259.75
617.54	56253.61
617.74	56464.55
617.93	56573.09
618.13	56104.10
618.32	56110.25
618.52	55895.21
618.72	56024.23
618.91	56308.90
619.11	56278.18
619.31	56366.24
619.50	56210.60
619.70	55948.46
619.90	56687.78
620.09	56198.31
620.29	56310.95
620.48	56601.76
620.68	56755.36
620.88	56093.86
621.07	56587.42
621.27	56114.34
621.46	55747.76
621.66	56382.63
621.86	56097.96
622.05	56020.14
622.25	56261.80
622.44	56263.85
622.64	56120.49
622.84	56382.63
623.03	55901.36
623.23	56517.79
623.42	56640.67
623.62	56841.37
623.82	56519.84
624.01	56403.11
624.21	56278.18
624.40	56624.29
624.60	56057.00
624.80	55870.64
624.99	56501.41
625.19	56235.17
625.38	56452.26
625.58	56288.42
625.77	56579.23
625.97	56294.56
626.17	56235.17
626.36	56274.09
626.56	56290.47
626.75	55542.96
626.95	56632.48
627.14	56186.02
627.34	56454.31
627.54	55975.08
627.73	56140.97
627.93	56384.68
628.12	56077.48
628.32	56657.06
628.51	56644.77
628.71	56523.94
628.90	56532.13
629.10	56239.27
629.30	56775.84
629.49	56325.28
629.69	56554.66
629.88	56661.15
630.08	56857.76
630.27	56448.16
630.47	56714.40
630.66	56284.33
630.86	56409.25
631.05	56298.66
631.25	56786.08
631.44	56374.44
631.64	56439.97
631.84	56691.87
632.03	56874.14
632.23	56155.30
632.42	56902.81
632.62	56579.23
632.81	56175.78
633.01	56708.25
633.20	56622.24
633.40	56851.61
633.59	56863.90
633.79	56259.75
633.98	56657.06
634.18	56646.82
634.37	56499.36
634.57	56673.44
634.76	56710.30
634.96	56489.12
635.15	56691.87
635.35	56644.77
635.54	56382.63
635.74	56718.49
635.93	56368.29
636.13	56456.35
636.32	57212.06
636.52	56743.07
636.71	56704.16
636.91	56450.21
637.10	57013.40
637.30	56861.85
637.49	56829.08
637.69	56525.99
637.88	57236.63
638.08	56771.74
638.27	56734.88
638.46	56816.80
638.66	57089.18
638.85	57023.64
639.05	57148.57
639.24	57021.59
639.44	56308.90
639.63	57119.90
639.83	57001.11
640.02	56999.07
640.22	56820.89
640.41	57302.17
640.61	56743.07
640.80	56849.56
640.99	56695.97
641.19	57513.11
641.38	57332.89
641.58	56741.02
641.77	57062.55
641.97	56681.63
642.16	56898.72
642.36	57197.72
642.55	57367.70
642.74	56931.48
642.94	57660.56
643.13	56767.65
643.33	57435.28
643.52	57119.90
643.72	57799.82
643.91	57277.59
644.10	57496.72
644.30	57748.62
644.49	57021.59
644.69	57416.85
644.88	57562.26
645.08	57443.48
645.27	57775.25
645.46	57404.56
645.66	57631.89
645.85	57537.68
646.05	57521.30
646.24	57881.74
646.43	57887.88
646.63	57906.32
646.82	57779.34
647.02	57556.11
647.21	57726.10
647.40	57007.26
647.60	57791.63
647.79	57453.72
647.99	57498.77
648.18	57762.96
648.37	58418.31
648.57	57846.93
648.76	57963.66
648.96	57836.69
649.15	58135.69
649.34	58021.00
649.54	57678.99
649.73	57322.65
649.92	57394.32
650.12	57795.73
650.31	57965.71
650.51	57930.89
650.70	57832.59
650.89	57793.68
651.09	58492.04
651.28	58248.33
651.47	57990.28
651.67	57867.40
651.86	58301.57
652.06	58070.15
652.25	58215.56
652.44	58184.84
652.64	57631.89
652.83	58168.46
653.02	57853.07
653.22	58207.37
653.41	57957.52
653.60	57783.44
653.80	57955.47
653.99	57963.66
654.18	57988.24
654.38	58164.36
654.57	58029.19
654.76	58039.43
654.96	58498.18
655.15	58262.66
655.34	58358.92
655.54	57746.57
655.73	58293.38
655.92	58733.70
656.12	58309.77
656.31	58004.62
656.50	58504.32
656.70	57928.84
656.89	58332.29
657.08	58414.21
657.28	58262.66
657.47	57785.49
657.66	58305.67
657.86	58320.01
658.05	58291.33
658.24	58469.51
658.43	58299.53
658.63	58375.30
658.82	58631.30
659.01	58547.33
659.21	58705.02
659.40	58735.74
659.59	57908.36
659.79	58621.06
659.98	58260.62
660.17	58958.97
660.36	58365.06
660.56	58578.05
660.75	58342.53
660.94	58395.78
661.14	57959.56
661.33	58377.35
661.52	58350.73
661.71	58424.45
661.91	58432.64
662.10	58412.16
662.29	58864.77
662.49	58354.82
662.68	58590.34
662.87	58526.85
663.06	58500.23
663.26	58520.71
663.45	58999.93
663.64	58516.61
663.83	59358.33
664.03	59004.03
664.22	58614.91
664.41	58627.20
664.60	58092.68
664.80	58651.78
664.99	58512.52
665.18	58141.83
665.37	58217.61
665.57	58924.16
665.76	58217.61
665.95	58612.87
666.14	58078.35
666.34	58299.53
666.53	58340.49
666.72	58352.77
666.91	58152.07
667.11	58406.02
667.30	58303.62
667.49	58107.02
667.68	58408.07
667.87	58328.20
668.07	58911.87
668.26	58442.88
668.45	58758.27
668.64	58070.15
668.84	59004.03
669.03	58860.67
669.22	58127.50
669.41	58293.38
669.60	58201.22
669.80	58416.26
669.99	58692.74
670.18	58625.15
670.37	58219.66
670.57	58791.04
670.76	58203.27
670.95	58684.54
671.14	58578.05
671.33	58358.92
671.53	58879.10
671.72	58700.93
671.91	58520.71
672.10	58397.83
672.29	58510.47
672.48	58090.63
672.68	58455.17
672.87	58512.52
673.06	58559.62
673.25	58041.48
673.44	58287.24
673.64	58262.66
673.83	58293.38
674.02	58551.43
674.21	58332.29
674.40	58365.06
674.59	58033.29
674.79	58176.65
674.98	58147.98
675.17	58348.68
675.36	58012.81
675.55	58752.13
675.74	58348.68
675.94	58391.68
676.13	57801.87
676.32	58113.16
676.51	58459.27
676.70	58500.23
676.89	58518.66
677.08	58799.23
677.28	58473.60
677.47	58768.51
677.66	58532.99
677.85	58143.88
678.04	58377.35
678.23	58672.26
678.42	58666.11
678.62	57994.38
678.81	58588.29
679.00	58053.77
679.19	58608.77
679.38	58332.29
679.57	58266.76
679.76	58444.93
679.96	58600.58
680.15	58352.77
680.34	58018.95
680.53	58061.96
680.72	57857.17
680.91	58496.13
681.10	58012.81
681.29	58195.08
681.48	58270.85
681.68	57939.08
681.87	58039.43
682.06	58123.40
682.25	58186.89
682.44	57746.57
682.63	58004.62
682.82	57779.34
683.01	58021.00
683.20	57693.33
683.39	58233.99
683.59	58242.18
683.78	57625.74
683.97	57654.42
684.16	57846.93
684.35	57685.14
684.54	57724.05
684.73	57605.26
684.92	57662.61
685.11	57578.64
685.30	57607.31
685.49	57891.98
685.69	57674.90
685.88	57765.01
686.07	57644.18
686.26	57304.21
686.45	56972.44
686.64	57549.97
686.83	57504.91
687.02	57734.29
687.21	57560.21
687.40	57353.36
687.59	57492.63
687.78	57560.21
687.97	57500.82
688.16	57367.70
688.35	57212.06
688.54	57312.41
688.74	57537.68
688.93	57390.23
689.12	57132.18
689.31	56992.92
689.50	57132.18
689.69	57160.86
689.88	56988.83
690.07	57111.70
690.26	57263.25
690.45	57361.56
690.64	56804.51
690.83	57029.79
691.02	56671.39
691.21	57459.86
691.40	57062.55
691.59	57365.65
691.78	56900.76
691.97	56808.61
692.16	56886.43
692.35	57044.12
692.54	56941.72
692.73	56956.06
692.92	56851.61
693.11	57021.59
693.30	56777.89
693.49	57087.13
693.68	56726.69
693.87	57105.56
694.06	56521.89
694.25	56493.22
694.44	56294.56
694.63	56777.89
694.82	56693.92
695.01	56409.25
695.20	56235.17
695.39	56122.54
695.58	56337.57
695.77	56138.92
695.96	56415.40
696.15	56341.67
696.34	56208.55
696.53	56525.99
696.72	56337.57
696.91	55989.42
697.10	56546.47
697.29	55899.31
697.48	56100.01
697.67	55801.00
697.86	55968.94
698.05	55936.17
698.24	56554.66
698.43	55880.88
698.62	56411.30
698.81	55624.88
699.00	56220.84
699.19	55805.10
699.38	56229.03
699.57	55489.71
699.76	56050.86
699.95	55708.85
700.14	55788.72
700.32	55700.65
700.51	55710.89
700.70	56118.44
700.89	56005.80
701.08	55602.35
701.27	55522.48
701.46	56181.93
701.65	55405.75
701.84	55555.25
702.03	55645.36
702.22	55415.99
702.41	55698.61
702.60	55581.87
702.79	55381.17
702.98	54936.76
703.17	55254.20
703.35	55055.54
703.54	55372.98
703.73	55270.58
703.92	55157.94
704.11	55444.66
704.30	54836.41
704.49	55110.84
704.68	54709.44
704.87	55524.53
705.06	55106.74
705.25	55127.22
705.43	54940.86
705.62	55299.25
705.81	55155.89
706.00	55125.17
706.19	54707.39
706.38	54654.14
706.57	54801.60
706.76	54721.72
706.95	54678.72
707.14	54402.24
707.32	54418.63
707.51	54338.75
707.70	54424.77
707.89	54527.17
708.08	54727.87
708.27	54611.13
708.46	54707.39
708.65	54408.39
708.84	54541.50
709.02	54584.51
709.21	54617.28
709.40	54629.57
709.59	54435.01
709.78	54367.43
709.97	54645.95
710.16	54396.10
710.34	54244.55
710.53	54203.59
710.72	53834.95
710.91	53894.35
711.10	54154.44
711.29	53908.68
711.48	53744.84
711.66	53941.45
711.85	53945.54
712.04	53992.65
712.23	53826.76
712.42	53552.33
712.61	53845.19
712.80	53480.66
712.98	53744.84
713.17	53486.80
713.36	53716.17
713.55	53646.54
713.74	53667.02
713.93	53691.60
714.11	53531.86
714.30	53077.21
714.49	53263.57
714.68	53707.98
714.87	53445.84
715.06	53744.84
715.24	53454.03
715.43	53476.56
715.62	52917.46
715.81	53230.80
716.00	53384.40
716.18	52589.79
716.37	52757.72
716.56	52704.48
716.75	53644.49
716.94	53069.01
717.12	52903.13
717.31	53226.71
717.50	52860.12
717.69	52808.92
717.88	52872.41
718.06	52638.94
718.25	53089.49
718.44	52735.20
718.63	52788.44
718.82	52026.60
719.00	52370.66
719.19	52155.62
719.38	52468.96
719.57	51672.30
719.76	51813.61
719.94	51963.11
720.13	51930.34
720.32	52024.55
720.51	52149.48
720.69	51946.73
720.88	51559.66
721.07	51819.75
721.26	51598.57
721.44	51789.03
721.63	51723.50
721.82	51700.97
722.01	51713.26
722.20	51858.66
722.38	51105.01
722.57	50846.97
722.76	51213.55
722.95	51494.13
723.13	51123.44
723.32	51014.90
723.51	50670.84
723.70	50476.29
723.88	51002.61
724.07	50656.51
724.26	50951.41
724.44	50265.34
724.63	51268.85
724.82	50734.33
725.01	50447.61
725.19	50975.99
725.38	50382.08
725.57	50627.84
725.76	50636.03
725.94	50281.73
726.13	50537.72
726.32	50593.02
726.51	50218.24
726.69	50496.77
726.88	50361.60
727.07	50588.92
727.25	50533.63
727.44	50537.72
727.63	50550.01
727.82	50328.83
728.00	50181.38
728.19	50083.08
728.38	50392.32
728.56	50402.56
728.75	50316.54
728.94	49851.66
729.12	49945.86
729.31	50009.35
729.50	50078.98
729.69	49886.47
729.87	49782.02
730.06	49618.19
730.25	49878.28
730.43	50275.58
730.62	50033.92
730.81	50308.35
730.99	50310.40
731.18	49913.09
731.37	50197.76
731.55	49990.92
731.74	49927.43
731.93	50093.32
732.11	50089.22
732.30	50095.36
732.49	50003.20
732.67	49818.89
732.86	49999.11
733.05	50066.69
733.23	49378.57
733.42	49878.28
733.61	49550.60
733.79	49730.83
733.98	49960.20
734.17	49818.89
734.35	49925.38
734.54	49982.73
734.73	49765.64
734.91	50013.44
735.10	49466.64
735.29	50031.88
735.47	49235.22
735.66	49372.43
735.84	49786.12
736.03	49333.52
736.22	50199.81
736.40	49538.32
736.59	49722.63
736.78	49501.45
736.96	49673.48
737.15	49906.95
737.33	49618.19
737.52	49411.34
737.71	49276.18
737.89	48944.41
738.08	49153.30
738.27	48936.21
738.45	49327.38
738.64	49480.97
738.82	49224.98
739.01	49390.86
739.20	48966.93
739.38	49106.19
739.57	49231.12
739.75	49403.15
739.94	49026.32
740.13	49169.68
740.31	49235.22
740.50	49085.72
740.68	49456.40
740.87	49136.91
741.06	49192.21
741.24	49042.71
741.43	48540.96
741.61	48590.11
741.80	48520.48
741.99	48866.58
742.17	48704.79
742.36	48528.67
742.54	48420.13
742.73	49229.07
742.91	48960.79
743.10	48354.59
743.29	48639.26
743.47	48583.96
743.66	48465.18
743.84	48678.17
744.03	48338.21
744.21	48305.44
744.40	48930.07
744.59	47973.67
744.77	48489.76
744.96	48364.83
745.14	47934.76
745.33	48248.10
745.51	48170.27
745.70	48145.70
745.88	48233.76
746.07	48125.22
746.26	47740.20
746.44	47963.43
746.63	47957.28
746.81	48059.68
747.00	47613.23
747.18	48219.42
747.37	48049.44
747.55	48227.62
747.74	48225.57
747.92	47846.69
748.11	47619.37
748.29	47752.49
748.48	47707.43
748.66	47754.54
748.85	47301.93
749.03	47697.19
749.22	47824.17
749.41	47414.57
749.59	47893.80
749.78	47191.34
749.96	47080.75
750.15	47402.28
750.33	47519.02
750.52	47732.01
750.70	47357.23
750.89	46986.55
751.07	47240.50
751.26	47215.92
751.44	46787.89
751.63	47265.07
751.81	46869.81
752.00	46869.81
752.18	47078.71
752.37	46929.20
752.55	46609.72
752.74	46816.57
752.92	46540.09
753.10	46648.63
753.29	46710.07
753.47	46527.80
753.66	46460.22
753.84	46968.12
754.03	46617.91
754.21	46548.28
754.40	46544.19
754.58	46558.52
754.77	46904.63
754.95	46515.51
755.14	46314.81
755.32	46411.07
755.51	46335.29
755.69	46011.71
755.88	46296.38
756.06	45987.14
756.24	46562.62
756.43	46249.28
756.61	46376.25
756.80	46269.76
756.98	46058.82
757.17	45569.35
757.35	45954.37
757.54	46087.49
757.72	45897.03
757.90	45694.28
758.09	45788.49
758.27	45602.12
758.46	45628.74
758.64	45976.90
758.83	45473.10
759.01	46015.81
759.19	45417.80
759.38	45483.34
759.56	45913.41
759.75	45309.26
759.93	45280.59
760.12	45325.64
760.30	45937.99
760.48	45182.29
760.67	45319.50
760.85	45239.63
761.04	45174.09
761.22	45460.81
761.40	44924.24
761.59	45139.28
761.77	45135.18
761.96	44926.29
762.14	45110.61
762.32	45139.28
762.51	44727.64
762.69	44846.42
762.88	44987.73
763.06	45210.96
763.24	44774.74
763.43	44875.09
763.61	44485.98
763.80	44651.86
763.98	44459.35
764.16	44229.98
764.35	44223.84
764.53	43951.46
764.72	44205.41
764.90	44029.28
765.08	44541.27
765.27	44457.31
765.45	43951.46
765.63	43955.55
765.82	44092.77
766.00	43666.79
766.18	44234.08
766.37	44014.94
766.55	43756.90
766.74	43871.59
766.92	43543.91
767.10	43771.24
767.29	43554.15
767.47	43470.18
767.65	43459.94
767.84	43609.45
768.02	43588.97
768.20	43474.28
768.39	43902.31
768.57	43220.33
768.75	42833.27
768.94	43570.54
769.12	43433.32
769.30	43312.49
769.49	43173.23
769.67	43234.67
769.85	42904.95
770.04	43236.72
770.22	42524.02
770.40	42933.62
770.59	42782.07
770.77	43005.30
770.95	42974.58
771.14	42923.38
771.32	42411.38
771.50	42544.50
771.69	42585.46
771.87	42706.29
772.05	42198.40
772.24	42050.94
772.42	42382.71
772.60	42349.95
772.78	42587.51
772.97	42259.84
773.15	42734.96
773.33	42339.71
773.52	42063.23
773.70	41686.40
773.88	42550.65
774.07	41856.39
774.25	42141.05
774.43	42638.71
774.61	42124.67
774.80	42272.12
774.98	42261.88
775.16	42392.95
775.34	42108.29
775.53	41770.37
775.71	42620.28
775.89	42206.59
776.08	42360.19
776.26	42302.84
776.44	42384.76
776.62	41921.92
776.81	42153.34
776.99	42478.97
777.17	42415.48
777.35	42356.09
777.54	42653.05
777.72	42419.58
777.90	42626.42
778.08	42519.93
778.27	42274.17
778.45	42386.81
778.63	42546.55
778.81	41987.46
779.00	43079.02
779.18	42935.66
779.36	42988.91
779.54	42564.98
779.73	42886.51
779.91	42898.80
780.09	43033.97
780.27	42868.08
780.46	42771.83
780.64	42947.95
780.82	42767.73
781.00	43099.50
781.19	43406.70
781.37	43275.63
781.55	42737.01
781.73	43425.13
781.91	42773.88
782.10	42786.16
782.28	43199.85
782.46	43304.30
782.64	42911.09
782.82	42702.20
783.01	43687.27
783.19	43246.96
783.37	43451.75
783.55	42962.29
783.74	43396.46
783.92	43474.28
784.10	43609.45
784.28	43060.59
784.46	43036.02
784.64	42714.48
784.83	42927.47
785.01	43107.69
785.19	42960.24
785.37	43203.95
785.55	43015.54
785.74	42935.66
785.92	42757.49
786.10	42909.04
786.28	43038.06
786.46	42745.20
786.64	42833.27
786.83	42829.17
787.01	42794.36
787.19	43023.73
787.37	42931.57
787.55	42841.46
787.74	42145.15
787.92	42757.49
788.10	42302.84
788.28	41958.78
788.46	42433.91
788.64	42048.89
788.82	42370.43
789.01	42413.43
789.19	42415.48
789.37	42147.20
789.55	42149.24
789.73	41758.08
789.91	41760.13
790.09	41960.83
790.28	41586.05
790.46	41872.77
790.64	41747.84
790.82	42059.13
791.00	41203.08
791.18	41407.88
791.36	41266.57
791.55	41987.46
791.73	41581.96
791.91	41080.21
792.09	41393.54
792.27	41477.51
792.45	41086.35
792.63	41522.57
792.81	41278.86
793.00	41205.13
793.18	41035.15
793.36	41155.98
793.54	40957.33
793.72	40682.90
793.90	40304.02
794.08	40357.27
794.26	40703.38
794.44	40019.36
794.62	39620.00
794.81	40295.83
794.99	40113.56
795.17	39761.31
795.35	39716.26
795.53	40162.72
795.71	39966.11
795.89	39179.69
796.07	39427.49
796.25	39540.13
796.43	39163.31
796.61	38849.97
796.80	39460.26
796.98	39167.40
797.16	39323.05
797.34	39005.61
797.52	38895.02
797.70	38946.22
797.88	38374.84
798.06	38704.56
798.24	38772.14
798.42	38620.59
798.60	38696.37
798.78	38589.88
798.96	38309.30
799.14	38624.69
799.32	37991.87
799.51	38124.99
799.69	38516.15
799.87	37844.41
800.05	37592.51
800.23	37887.42
800.41	37713.34
800.59	37246.41
800.77	37377.48
800.95	36744.66
801.13	37121.48
801.31	37154.25
801.49	37051.85
801.67	36922.83
801.85	36996.56
802.03	36957.64
802.21	36820.43
802.39	36660.69
802.57	36453.84
802.75	36408.79
802.93	36603.35
803.11	36709.84
803.29	36316.63
803.47	36156.89
803.65	36429.27
803.83	36156.89
804.01	36167.13
804.19	35648.99
804.37	35784.16
804.55	35976.67
804.73	35440.10
804.91	35759.58
805.09	35892.70
805.27	35798.49
805.45	35788.25
805.63	35436.00
805.81	35552.74
805.99	35481.06
806.17	35173.86
806.35	35526.11
806.53	34926.06
806.71	35167.72
806.89	35173.86
807.07	34971.11
807.25	34737.65
807.43	34940.39
807.61	34838.00
807.79	34915.82
807.97	34340.34
808.15	34457.07
808.33	34340.34
808.51	34371.06
808.69	34668.02
808.87	33920.51
809.05	33717.76
809.23	33986.04
809.41	33662.46
809.59	33744.38
809.77	33920.51
809.95	33347.08
810.13	34106.87
810.31	33566.21
810.49	34010.62
810.67	33783.29
810.84	33830.40
811.02	33332.74
811.20	33312.26
811.38	33496.58
811.56	32957.96
811.74	33279.49
811.92	32929.29
812.10	33369.60
812.28	33195.53
812.46	33078.79
812.64	32972.30
812.82	32681.49
813.00	32755.21
813.18	32722.44
813.36	32634.38
813.53	32409.11
813.71	32706.06
813.89	32427.54
814.07	32701.96
814.25	32153.11
814.43	32515.60
814.61	32331.28
814.79	32042.52
814.97	32112.15
815.15	32445.97
815.33	31727.13
815.50	31258.15
815.68	32069.14
815.86	31907.35
816.04	32015.90
816.22	31374.88
816.40	31819.29
816.58	31843.87
816.76	31594.01
816.94	31338.02
817.11	31512.10
817.29	31266.34
817.47	31307.30
817.65	30975.53
817.83	31225.38
818.01	30897.70
818.19	30971.43
818.37	31163.94
818.54	30885.42
818.72	30731.82
818.90	30893.61
819.08	30756.39
819.26	30844.46
819.44	30705.20
819.62	30719.53
819.80	30457.39
819.97	30543.41
820.15	30807.59
820.33	30389.81
820.51	30785.07
820.69	30178.87
820.87	30772.78
821.05	30756.39
821.22	30377.52
821.40	30086.71
821.58	30412.34
821.76	29781.56
821.94	29818.42
822.12	30080.56
822.29	29881.91
822.47	29840.95
822.65	29957.69
822.83	29918.78
823.01	29951.54
823.19	29500.99
823.36	29767.23
823.54	29791.80
823.72	29562.43
823.90	29097.54
824.08	29406.78
824.25	29105.73
824.43	29095.49
824.61	29572.67
824.79	29290.05
824.97	29101.64
825.15	29269.57
825.32	29089.35
825.50	28929.61
825.68	28618.32
825.86	28974.66
826.04	29038.15
826.21	28759.63
826.39	29128.26
826.57	28862.02
826.75	28847.69
826.93	28603.98
827.10	28509.77
827.28	28814.92
827.46	28749.39
827.64	28816.97
827.81	28628.56
827.99	28806.73
828.17	28642.89
828.35	28268.11
828.53	28450.38
828.70	28178.00
828.88	28347.98
829.06	28507.72
829.24	28548.68
829.41	28200.53
829.59	28503.63
829.77	28210.77
829.95	28028.50
830.12	27764.31
830.30	27811.42
830.48	28155.47
830.66	27854.42
830.84	27993.68
831.01	27799.13
831.19	27883.09
831.37	27846.23
831.55	27915.86
831.72	27573.85
831.90	27592.28
832.08	27940.44
832.25	27479.64
832.43	27745.88
832.61	27606.62
832.79	27362.91
832.96	27375.20
833.14	27629.15
833.32	27860.57
833.50	27764.31
833.67	27493.98
833.85	27569.76
834.03	27074.15
834.20	27180.64
834.38	27113.06
834.56	27362.91
834.74	26728.04
834.91	27090.53
835.09	27299.42
835.27	26791.53
835.44	26959.46
835.62	26631.79
835.80	26736.23
835.98	27168.35
836.15	26826.34
836.33	26584.68
836.51	26553.96
836.68	26494.57
836.86	26648.17
837.04	26525.29
837.21	26599.02
837.39	26611.31
837.57	26605.16
837.75	26785.38
837.92	26041.97
838.10	26379.89
838.28	26295.92
838.45	26375.79
838.63	26074.74
838.81	26367.60
838.98	26308.21
839.16	25992.82
839.34	25906.80
839.51	26046.07
839.69	25767.54
839.87	25949.81
840.04	26060.40
840.22	26050.16
840.40	25812.60
840.57	25982.58
840.75	26072.69
840.93	25841.27
841.10	25642.62
841.28	25996.92
841.46	25747.06
841.63	25845.37
841.81	25564.79
841.98	25564.79
842.16	25900.66
842.34	25720.44
842.51	25661.05
842.69	25382.52
842.87	25642.62
843.04	25593.47
843.22	25370.24
843.40	25562.75
843.57	25210.50
843.75	25699.96
843.92	25357.95
844.10	25472.64
844.28	25517.69
844.45	25419.39
844.63	25423.48
844.81	25048.71
844.98	25273.98
845.16	25060.99
845.33	25063.04
845.51	25044.61
845.69	24735.37
845.86	24802.95
846.04	24940.16
846.21	24682.12
846.39	24872.58
846.57	24753.80
846.74	24741.51
846.92	24534.67
847.09	24415.88
847.27	24526.47
847.45	24563.34
847.62	24303.25
847.80	24876.68
847.97	24540.81
848.15	24346.25
848.32	24643.21
848.50	24497.80
848.68	24170.13
848.85	24170.13
849.03	24241.81
849.20	24485.51
849.38	24250.00
849.56	24200.85
849.73	23985.81
849.91	24131.22
850.08	24428.17
850.26	23922.32
850.43	23807.64
850.61	24071.82
850.78	23733.91
850.96	24264.33
851.14	23783.06
851.31	24059.54
851.49	23815.83
851.66	23965.33
851.84	23748.25
852.01	23910.04
852.19	23981.71
852.36	23721.62
852.54	23723.67
852.71	23348.89
852.89	23512.73
853.07	23533.21
853.24	23475.87
853.42	23535.26
853.59	23514.78
853.77	23449.24
853.94	23821.97
854.12	23803.54
854.29	23246.49
854.47	23260.83
854.64	23309.98
854.82	23342.75
854.99	23334.56
855.17	23465.63
855.34	23428.76
855.52	23195.29
855.69	23465.63
855.87	23060.13
856.04	22949.54
856.22	22673.06
856.39	22668.97
856.57	23115.42
856.74	23029.41
856.92	23023.26
857.09	22613.67
857.27	22771.36
857.44	22996.64
857.62	22984.35
857.79	23019.17
857.97	22972.07
858.14	22728.36
858.32	22730.41
858.49	22812.32
858.67	22703.78
858.84	22464.17
859.02	22496.94
859.19	22427.31
859.37	22425.26
859.54	22572.71
859.72	22533.80
859.89	22380.20
860.06	22308.52
860.24	22331.05
860.41	22351.53
860.59	22384.30
860.76	22304.43
860.94	22068.91
861.11	22406.83
861.29	22267.56
861.46	22496.94
861.64	22017.71
861.81	22161.07
861.98	22394.54
862.16	21886.64
862.33	22068.91
862.51	21915.31
862.68	21774.00
862.86	21503.67
863.03	22048.43
863.21	21892.79
863.38	21913.27
863.55	21649.08
863.73	21812.92
863.90	21741.24
864.08	21874.35
864.25	21640.89
864.43	21712.56
864.60	21704.37
864.77	21411.51
864.95	21499.58
865.12	21259.96
865.30	21489.34
865.47	21485.24
865.64	21515.96
865.82	21399.23
865.99	21589.69
866.17	21219.00
866.34	21585.59
866.51	20844.23
866.69	21372.60
866.86	21542.58
867.04	21040.83
867.21	21116.61
867.38	21417.66
867.56	21083.84
867.73	20827.84
867.91	21020.35
868.08	21110.46
868.25	20795.07
868.43	20784.83
868.60	20889.28
868.78	20956.86
868.95	20723.40
869.12	20809.41
869.30	20678.34
869.47	20946.62
869.64	20399.82
869.82	20405.96
869.99	20590.28
870.16	20627.14
870.34	20569.80
870.51	20539.08
870.69	20231.88
870.86	20426.44
871.03	20375.24
871.21	20082.38
871.38	20475.59
871.55	20164.30
871.73	20321.99
871.90	20092.62
872.07	19953.36
872.25	20016.85
872.42	19988.18
872.59	20039.37
872.77	20035.28
872.94	19818.19
873.11	19769.04
873.29	19893.97
873.46	19979.98
873.63	19928.78
873.81	19480.28
873.98	19496.66
874.15	19685.08
874.33	19513.05
874.50	19386.07
874.67	19568.34
874.85	19629.78
875.02	19781.33
875.19	19244.76
875.37	19455.70
875.54	19246.81
875.71	19316.44
875.88	19283.67
876.06	19085.02
876.23	19429.08
876.40	19205.85
876.58	19230.43
876.75	19273.43
876.92	19048.16
877.10	19064.54
877.27	19105.50
877.44	18726.63
877.61	19056.35
877.79	18886.37
877.96	18646.76
878.13	18863.84
878.31	18652.90
878.48	18597.60
878.65	18697.95
878.82	18616.04
879.00	18622.18
879.17	18468.58
879.34	18415.34
879.51	18181.87
879.69	18341.61
879.86	18271.98
880.03	18218.73
880.21	18175.72
880.38	18362.09
880.55	18208.49
880.72	17948.40
880.90	18214.63
881.07	18099.95
881.24	18339.56
881.41	18409.19
881.59	18134.76
881.76	17956.59
881.93	18001.65
882.10	17821.42
882.28	18054.89
882.45	18169.58
882.62	17833.71
882.79	18032.36
882.96	17618.68
883.14	17823.47
883.31	17753.84
883.48	17854.19
883.65	17897.20
883.83	17979.12
884.00	17835.76
884.17	17694.45
884.34	17778.42
884.51	17755.89
884.69	17708.79
884.86	17876.72
885.03	17518.32
885.20	17536.76
885.38	17374.97
885.55	17331.96
885.72	17602.29
885.89	17356.54
886.06	17463.03
886.24	17362.68
886.41	17512.18
886.58	17608.44
886.75	17594.10
886.92	17100.54
887.10	17579.76
887.27	17325.82
887.44	17329.91
887.61	17329.91
887.78	17385.21
887.95	17247.99
888.13	17176.31
888.30	17008.38
888.47	17004.28
888.64	17082.11
888.81	17030.91
888.99	17018.62
889.16	17071.87
889.33	16682.75
889.50	16774.91
889.67	16963.33
889.84	16518.92
890.01	16811.78
890.19	16699.14
890.36	16897.79
890.53	16959.23
890.70	16621.31
890.87	16613.12
891.04	16420.61
891.22	16344.84
891.39	16652.03
891.56	16297.74
891.73	16609.03
891.90	16375.56
892.07	16281.35
892.24	16303.88
892.42	16244.49
892.59	16170.76
892.76	16217.86
892.93	16457.48
893.10	16410.37
893.27	16281.35
893.44	15976.20
893.61	16054.03
893.79	16293.64
893.96	16158.47
894.13	16107.27
894.30	16164.62
894.47	16066.31
894.64	16164.62
894.81	16123.66
894.98	16203.53
895.15	16195.34
895.33	16109.32
895.50	16006.92
895.67	16256.78
895.84	16070.41
896.01	15974.16
896.18	15998.73
896.35	16109.32
896.52	15978.25
896.69	15951.63
896.86	15912.72
897.04	15996.68
897.21	15908.62
897.38	16045.84
897.55	15937.29
897.72	16090.89
897.89	15953.68
898.06	16080.65
898.23	16031.50
898.40	15965.96
898.57	15818.51
898.74	15744.78
898.91	15806.22
899.08	16080.65
899.26	15832.85
899.43	15984.40
899.60	15890.19
899.77	15957.77
899.94	15755.02
900.11	15677.20
900.28	15879.95
900.45	15703.82
900.62	15648.53
900.79	16039.69
900.96	15615.76
901.13	15669.01
901.30	15714.06
901.47	15468.31
901.64	15826.70
901.81	15699.73
901.98	15597.33
902.15	15845.13
902.32	15769.36
902.49	15916.81
902.66	15931.15
902.83	15623.95
903.01	15580.95
903.18	15701.78
903.35	15795.98
903.52	15703.82
903.69	15830.80
903.86	15877.90
904.03	15765.26
904.20	15927.05
904.37	15955.72
904.54	15644.43
904.71	15709.97
904.88	15912.72
905.05	15709.97
905.22	15871.76
905.39	15599.38
905.56	15890.19
905.73	15544.08
905.90	15748.88
906.07	15896.33
906.24	15984.40
906.41	15476.50
906.58	15953.68
906.75	15828.75
906.92	15726.35
907.09	15603.47
907.26	15712.02
907.43	15695.63
907.60	15654.67
907.77	15714.06
907.93	15757.07
908.10	15752.98
908.27	15800.08
908.44	15742.74
908.61	15572.75
908.78	15554.32
908.95	15511.32
909.12	15441.68
909.29	15591.19
909.46	15623.95
909.63	15701.78
909.80	15611.67
909.97	15449.88
910.14	15519.51
910.31	15417.11
910.48	15636.24
910.65	15642.39
910.82	15441.68
910.99	15413.01
911.16	15648.53
911.33	15443.73
911.50	15144.73
911.66	15353.62
911.83	15329.05
912.00	15380.25
912.17	15183.64
912.34	15136.54
912.51	15169.30
912.68	15089.43
912.85	15206.17
913.02	15263.51
913.19	15042.33
913.36	15220.50
913.53	14950.17
913.70	15021.85
913.86	15275.80
914.03	15036.19
914.20	14978.84
914.37	15081.24
914.54	15060.76
914.71	15111.96
914.88	14792.48
915.05	14749.47
915.22	14952.22
915.39	14866.21
915.55	14815.01
915.72	14565.15
915.89	14612.26
916.06	14526.24
916.23	14847.77
916.40	14100.26
916.57	14479.14
916.74	14503.71
916.91	14352.16
917.07	14096.17
917.24	14327.59
917.41	14516.00
917.58	14333.73
917.75	14386.98
917.92	14171.94
918.09	14276.39
918.26	14364.45
918.42	14186.28
918.59	13967.15
918.76	14214.95
918.93	14087.98
919.10	14030.63
919.27	13926.19
919.44	14143.27
919.60	13995.82
919.77	13813.55
919.94	13641.52
920.11	13711.15
920.28	13567.79
920.45	13571.89
920.61	13522.74
920.78	13670.19
920.95	13596.46
921.12	13551.41
921.29	13186.87
921.46	13340.47
921.62	13395.76
921.79	13297.46
921.96	13156.15
922.13	13086.52
922.30	13203.25
922.47	12973.88
922.63	12873.53
922.80	13084.47
922.97	12996.41
923.14	12805.95
923.31	13049.66
923.47	12773.18
923.64	12894.01
923.81	12508.99
923.98	12799.80
924.15	12517.18
924.32	12586.82
924.48	12681.02
924.65	12554.05
924.82	12302.15
924.99	12384.07
925.15	12302.15
925.32	12373.83
925.49	12134.21
925.66	12048.20
925.83	12179.27
925.99	12066.63
926.16	11960.14
926.33	12019.53
926.50	11900.75
926.67	12052.30
926.83	12031.82
927.00	11876.17
927.17	11892.55
927.34	11757.39
927.50	11626.32
927.67	12144.45
927.84	11650.89
928.01	11741.00
928.17	11493.20
928.34	11421.52
928.51	11476.82
928.68	11249.49
928.84	11374.42
929.01	11208.53
929.18	11210.58
929.35	11259.73
929.51	11087.70
929.68	11302.74
929.85	11253.59
930.02	10950.49
930.18	11038.55
930.35	10979.16
930.52	10776.41
930.69	10661.73
930.85	10936.15
931.02	10659.68
931.19	10934.11
931.36	10776.41
931.52	10700.64
931.69	10702.68
931.86	10592.09
932.02	10461.02
932.19	10653.53
932.36	10424.16
932.53	10338.15
932.69	10319.71
932.86	10385.25
933.03	10172.26
933.19	10006.38
933.36	10289.00
933.53	10143.59
933.70	9877.35
933.86	10078.05
934.03	9906.02
934.20	9850.73
934.36	9856.87
934.53	9672.56
934.70	9535.34
934.86	9678.70
935.03	9551.73
935.20	9320.31
935.36	9467.76
935.53	9330.55
935.70	9152.37
935.86	9406.32
936.03	8970.10
936.20	9049.97
936.36	8916.86
936.53	8822.65
936.70	8773.50
936.86	8818.55
937.03	8503.17
937.20	8513.41
937.36	8527.74
937.53	8345.47
937.70	8142.72
937.86	8052.61
938.03	8120.20
938.20	8083.33
938.36	7987.08
938.53	7995.27
938.70	7671.69
938.86	7774.09
939.03	7688.07
939.20	7620.49
939.36	7446.41
939.53	7411.60
939.70	7499.66
939.86	7165.84
940.03	7186.32
940.19	6866.84
940.36	6915.99
940.53	6959.00
940.69	6866.84
940.86	6915.99
941.03	6817.69
941.19	6715.29
941.36	6633.37
941.52	6594.46
941.69	6463.39
941.86	6490.01
942.02	6338.46
942.19	6616.99
942.35	6471.58
942.52	6162.34
942.69	6154.15
942.85	6156.19
943.02	6072.23
943.18	6098.85
943.35	6025.12
943.52	6021.03
943.68	5914.53
943.85	5818.28
944.01	5722.02
944.18	5783.46
944.35	5773.22
944.51	5681.07
944.68	5492.65
944.84	5566.38
945.01	5617.58
945.17	5570.48
945.34	5607.34
945.51	5621.67
945.67	5490.60
945.84	5472.17
946.00	5500.84
946.17	5484.46
946.33	5453.74
946.50	5480.36
946.67	5418.93
946.83	5392.30
947.00	5617.58
947.16	5515.18
947.33	5412.78
947.49	5498.80
947.66	5457.84
947.82	5490.60
947.99	5328.81
948.16	5603.24
948.32	5349.29
948.49	5394.35
948.65	5402.54
948.82	5519.28
948.98	5625.77
949.15	5283.76
949.31	5517.23
949.48	5541.80
949.64	5369.77
949.81	5492.65
949.97	5386.16
950.14	5529.52
950.30	5242.80
950.47	5531.56
950.63	5472.17
950.80	5474.22
950.96	5353.39
951.13	5466.03
951.30	5576.62
951.46	5625.77
951.63	5666.73
951.79	5523.37
951.96	5627.82
952.12	5504.94
952.29	5527.47
952.45	5457.84
952.62	5525.42
952.78	5642.15
952.94	5500.84
953.11	5482.41
953.27	5517.23
953.44	5822.38
953.60	5513.13
953.77	5527.47
953.93	5494.70
954.10	5480.36
954.26	5631.91
954.43	5400.49
954.59	5703.59
954.76	5517.23
954.92	5603.24
955.09	5742.50
955.25	5552.04
955.42	5629.87
955.58	5685.16
955.75	5459.88
955.91	5525.42
956.07	5648.30
956.24	5724.07
956.40	5627.82
956.57	5773.22
956.73	5568.43
956.90	5758.89
957.06	5468.08
957.23	5664.68
957.39	5617.58
957.56	5603.24
957.72	5445.55
957.88	5525.42
958.05	5599.15
958.21	5693.35
958.38	5580.71
958.54	5656.49
958.71	5795.75
958.87	5523.37
959.03	5525.42
959.20	5588.91
959.36	5654.44
959.53	5576.62
959.69	5541.80
959.85	5713.83
960.02	5582.76
960.18	5754.79
960.35	5603.24
960.51	5658.54
960.68	5599.15
960.84	5640.11
961.00	5685.16
961.17	5662.63
961.33	5662.63
961.50	5595.05
961.66	5547.95
961.82	5564.33
961.99	5572.52
962.15	5572.52
962.31	5597.10
962.48	5627.82
962.64	5535.66
962.81	5539.76
962.97	5558.19
963.13	5709.74
963.30	5496.75
963.46	5490.60
963.62	5435.31
963.79	5609.39
963.95	5502.89
964.12	5468.08
964.28	5463.98
964.44	5570.48
964.61	5490.60
964.77	5484.46
964.93	5640.11
965.10	5431.21
965.26	5496.75
965.42	5339.05
965.59	5457.84
965.75	5359.53
965.92	5312.43
966.08	5535.66
966.24	5556.14
966.41	5425.07
966.57	5386.16
966.73	5400.49
966.90	5455.79
967.06	5486.51
967.22	5291.95
967.39	5461.93
967.55	5353.39
967.71	5474.22
967.88	5294.00
968.04	5455.79
968.20	5351.34
968.37	5238.70
968.53	5320.62
968.69	5265.33
968.85	5365.68
969.02	5451.69
969.18	5271.47
969.34	5226.42
969.51	5369.77
969.67	5341.10
969.83	5189.55
970.00	5420.97
970.16	5365.68
970.32	5279.66
970.48	5375.92
970.65	5193.65
970.81	5156.79
970.97	5185.46
971.14	5097.39
971.30	5197.74
971.46	5226.42
971.63	5214.13
971.79	5222.32
971.95	5101.49
972.11	5097.39
972.28	5013.43
972.44	5158.83
972.60	4853.69
972.76	5052.34
972.93	5087.15
973.09	5238.70
973.25	5138.35
973.42	5025.72
973.58	5070.77
973.74	5197.74
973.90	5095.35
974.07	4978.61
974.23	4958.13
974.39	5009.33
974.55	4941.75
974.72	4925.36
974.88	4947.89
975.04	5007.28
975.20	5050.29
975.37	5031.86
975.53	4949.94
975.69	4992.95
975.85	4954.04
976.01	4927.41
976.18	4896.69
976.34	4810.68
976.50	4960.18
976.66	4958.13
976.83	4816.82
976.99	4771.77
977.15	4851.64
977.31	4702.14
977.47	4857.78
977.64	4847.54
977.80	4745.14
977.96	4683.70
978.12	4710.33
978.29	4720.57
978.45	4739.00
978.61	4603.83
978.77	4724.66
978.93	4657.08
979.10	4632.51
979.26	4726.71
979.42	4595.64
979.58	4693.94
979.74	4622.27
979.91	4607.93
980.07	4476.86
980.23	4616.12
980.39	4546.49
980.55	4550.59
980.71	4540.35
980.88	4564.92
981.04	4628.41
981.20	4507.58
981.36	4419.52
981.52	4513.72
981.68	4538.30
981.85	4532.15
982.01	4556.73
982.17	4476.86
982.33	4480.96
982.49	4501.44
982.65	4341.69
982.82	4323.26
982.98	4419.52
983.14	4304.83
983.30	4407.23
983.46	4362.17
983.62	4261.82
983.79	4243.39
983.95	4349.89
984.11	4429.76
984.27	4321.21
984.43	4327.36
984.59	4184.00
984.75	4345.79
984.91	4255.68
985.08	4265.92
985.24	4147.14
985.40	4114.37
985.56	4263.87
985.72	4286.40
985.88	4304.83
986.04	4132.80
986.20	4149.18
986.37	4188.10
986.53	4179.90
986.69	4171.71
986.85	4206.53
987.01	4106.18
987.17	4214.72
987.33	4200.38
987.49	4009.92
987.65	4112.32
987.82	4138.94
987.98	4059.07
988.14	4124.61
988.30	4136.90
988.46	4009.92
988.62	4089.79
988.78	4069.31
988.94	3983.30
989.10	4081.60
989.26	3952.58
989.42	3968.96
989.59	3948.48
989.75	3858.37
989.91	4028.35
990.07	3753.93
990.23	3874.76
990.39	3913.67
990.55	3999.68
990.71	3921.86
990.87	3878.85
991.03	3786.69
991.19	3862.47
991.35	3846.09
991.51	3960.77
991.67	3909.57
991.83	3925.96
992.00	3837.89
992.16	3901.38
992.32	3848.13
992.48	3862.47
992.64	3633.10
992.80	3854.28
992.96	3809.22
993.12	3657.67
993.28	3721.16
993.44	3774.41
993.60	3663.82
993.76	3700.68
993.92	3723.21
994.08	3639.24
994.24	3792.84
994.40	3727.30
994.56	3751.88
994.72	3538.89
994.88	3448.78
995.04	3733.45
995.20	3590.09
995.36	3575.75
995.52	3663.82
995.68	3563.47
995.84	3600.33
996.00	3655.62
996.16	3637.19
996.32	3495.88
996.48	3592.14
996.64	3680.20
996.80	3465.16
996.96	3555.27
997.12	3428.30
997.28	3487.69
997.44	3502.03
997.60	3497.93
997.76	3497.93
997.92	3545.03
998.08	3598.28
998.24	3387.34
998.40	3442.64
998.56	3598.28
998.72	3356.62
998.88	3354.57
999.04	3405.77
999.20	3495.88
999.36	3338.19
999.52	3434.44
999.68	3313.61
999.84	3389.39
1000.00	3401.68
1000.16	3387.34
1000.32	3311.57
1000.48	3440.59
1000.64	3311.57
1000.80	3157.97
1000.95	3147.73
1001.11	3274.70
1001.27	3241.93
1001.43	3411.92
1001.59	3276.75
1001.75	3272.65
1001.91	3360.72
1002.07	3219.41
1002.23	3196.88
1002.39	3200.98
1002.55	3157.97
1002.71	3198.93
1002.87	3160.02
1003.03	3186.64
1003.19	3200.98
1003.34	3231.69
1003.50	3131.34
1003.66	3209.17
1003.82	3186.64
1003.98	3057.62
1004.14	3145.68
1004.30	3008.47
1004.46	3065.81
1004.62	3010.51
1004.78	3119.06
1004.94	2981.84
1005.09	3135.44
1005.25	3153.87
1005.41	3051.47
1005.57	3020.75
1005.73	3043.28
1005.89	2979.79
1006.05	3024.85
1006.21	3071.95
1006.37	2904.02
1006.52	3037.14
1006.68	2955.22
1006.84	3125.20
1007.00	2942.93
1007.16	3045.33
1007.32	3033.04
1007.48	2983.89
1007.64	2965.46
1007.79	2979.79
1007.95	2787.29
1008.11	3016.66
1008.27	2934.74
1008.43	2901.97
1008.59	2842.58
1008.75	2867.16
1008.91	2969.55
1009.06	2797.53
1009.22	2873.30
1009.38	2863.06
1009.54	2842.58
1009.70	2820.05
1009.86	2850.77
1010.01	2906.07
1010.17	2824.15
1010.33	2930.64
1010.49	2754.52
1010.65	2875.35
1010.81	2678.74
1010.96	2772.95
1011.12	2760.66
1011.28	2748.37
1011.44	2760.66
1011.60	2672.60
1011.76	2723.80
1011.91	2826.20
1012.07	2639.83
1012.23	2676.70
1012.39	2684.89
1012.55	2705.37
1012.71	2707.41
1012.86	2621.40
1013.02	2635.74
1013.18	2670.55
1013.34	2592.73
1013.50	2650.07
1013.65	2660.31
1013.81	2639.83
1013.97	2639.83
1014.13	2688.98
1014.29	2605.02
1014.44	2731.99
1014.60	2605.02
1014.76	2725.85
1014.92	2549.72
1015.07	2572.25
1015.23	2656.22
1015.39	2619.35
1015.55	2592.73
1015.71	2574.30
1015.86	2568.15
1016.02	2564.06
1016.18	2478.04
1016.34	2566.10
1016.49	2502.62
1016.65	2633.69
1016.81	2525.15
1016.97	2600.92
1017.12	2609.11
1017.28	2494.43
1017.44	2516.95
1017.60	2500.57
1017.75	2553.82
1017.91	2471.90
1018.07	2486.23
1018.23	2445.27
1018.38	2519.00
1018.54	2475.99
1018.70	2516.95
1018.86	2541.53
1019.01	2465.75
1019.17	2463.71
1019.33	2525.15
1019.49	2437.08
1019.64	2428.89
1019.80	2445.27
1019.96	2527.19
1020.12	2432.99
1020.27	2355.16
1020.43	2371.55
1020.59	2406.36
1020.74	2533.34
1020.90	2488.28
1021.06	2338.78
1021.22	2392.03
1021.37	2293.72
1021.53	2381.79
1021.69	2369.50
1021.84	2297.82
1022.00	2389.98
1022.16	2381.79
1022.31	2355.16
1022.47	2316.25
1022.63	2387.93
1022.79	2228.19
1022.94	2207.71
1023.10	2394.08
1023.26	2287.58
1023.41	2340.83
1023.57	2334.68
1023.73	2334.68
1023.88	2246.62
1024.04	2209.76
1024.20	2244.57
1024.35	2310.11
1024.51	2256.86
1024.67	2287.58
1024.82	2285.53
1024.98	2099.17
1025.14	2281.44
1025.29	2230.24
1025.45	2248.67
1025.61	2131.94
1025.76	2271.20
1025.92	2148.32
1026.08	2254.81
1026.23	2248.67
1026.39	2285.53
1026.55	2164.70
1026.70	2121.70
1026.86	2183.13
1027.02	2238.43
1027.17	2111.46
1027.33	2201.57
1027.48	2166.75
1027.64	2174.94
1027.80	2174.94
1027.95	2215.90
1028.11	2074.59
1028.27	2152.42
1028.42	2158.56
1028.58	2185.18
1028.73	2127.84
1028.89	2011.11
1029.05	2254.81
1029.20	2179.04
>>>>>End Processed Spectral Data<<<<<
