SpectraSuite Data File
++++++++++++++++++++++++++++++++++++
Date: Fri Jun 02 14:48:00 CEST 2017
User: INFO_000
Dark Spectrum Present: No
Reference Spectrum Present: No
Number of Sampled Component Spectra: 1
Spectrometers: USB4H00879
Integration Time (usec): 80000 (USB4H00879)
Spectra Averaged: 1 (USB4H00879)
Boxcar Smoothing: 0 (USB4H00879)
Correct for Electrical Dark: No (USB4H00879)
Strobe/Lamp Enabled: No (USB4H00879)
Correct for Detector Non-linearity: No (USB4H00879)
Correct for Stray Light: No (USB4H00879)
Number of Pixels in Processed Spectrum: 3648
>>>>>Begin Processed Spectral Data<<<<<
345.13	1253.36
345.34	1253.36
345.56	1253.36
345.78	1267.69
345.99	1273.84
346.21	1683.43
346.42	1718.25
346.64	1699.81
346.86	1767.40
347.07	1660.90
347.29	1716.20
347.50	1669.09
347.72	1673.19
347.94	1761.25
348.15	1597.42
348.37	1609.70
348.59	1740.77
348.80	1683.43
349.02	1806.31
349.23	1896.42
349.45	1888.23
349.67	1871.84
349.88	1802.21
350.10	1982.43
350.31	1894.37
350.53	1757.16
350.75	1961.95
350.96	1789.92
351.18	1867.75
351.39	1892.32
351.61	1755.11
351.82	1959.91
352.04	1834.98
352.26	1767.40
352.47	1904.61
352.69	1949.67
352.90	1720.29
353.12	1894.37
353.34	1839.08
353.55	1966.05
353.77	1863.65
353.98	1886.18
354.20	1771.49
354.41	1986.53
354.63	1927.14
354.85	2019.30
355.06	1859.56
355.28	1867.75
355.49	1894.37
355.71	1871.84
355.92	1888.23
356.14	1900.52
356.35	1775.59
356.57	1847.27
356.79	1953.76
357.00	1918.95
357.22	1931.23
357.43	1916.90
357.65	2035.68
357.86	1875.94
358.08	1916.90
358.29	1888.23
358.51	1996.77
358.72	1920.99
358.94	1847.27
359.16	1920.99
359.37	1966.05
359.59	1910.75
359.80	1980.39
360.02	1884.13
360.23	1920.99
360.45	1996.77
360.66	1888.23
360.88	1814.50
361.09	1888.23
361.31	1978.34
361.52	1945.57
361.74	2033.63
361.95	2009.06
362.17	2043.87
362.38	2062.30
362.60	1986.53
362.81	1951.71
363.03	1869.80
363.24	1974.24
363.46	1992.67
363.67	1968.10
363.89	1986.53
364.10	2019.30
364.32	1964.00
364.53	2056.16
364.75	1847.27
364.96	1918.95
365.18	2068.45
365.39	2047.97
365.61	1875.94
365.82	2052.06
366.04	2027.49
366.25	1925.09
366.47	2056.16
366.68	2058.21
366.90	1984.48
367.11	2013.15
367.33	1998.82
367.54	2103.26
367.76	2078.69
367.97	2156.51
368.19	2054.11
368.40	2039.78
368.62	2025.44
368.83	1929.19
369.05	2025.44
369.26	1957.86
369.48	1986.53
369.69	2021.35
369.91	1980.39
370.12	1959.91
370.33	2052.06
370.55	2021.35
370.76	2082.78
370.98	2136.03
371.19	2035.68
371.41	1996.77
371.62	2099.17
371.84	2031.58
372.05	2195.42
372.27	2056.16
372.48	2047.97
372.69	2125.79
372.91	2133.98
373.12	2056.16
373.34	2099.17
373.55	2136.03
373.77	2166.75
373.98	2109.41
374.20	2166.75
374.41	2289.63
374.62	2109.41
374.84	2080.74
375.05	2244.57
375.27	2078.69
375.48	2256.86
375.70	2109.41
375.91	2123.74
376.12	2271.20
376.34	2187.23
376.55	2138.08
376.77	2193.37
376.98	2105.31
377.19	2117.60
377.41	2150.37
377.62	2131.94
377.84	2183.13
378.05	2334.68
378.27	2136.03
378.48	2299.87
378.69	2459.61
378.91	2316.25
379.12	2283.49
379.34	2205.66
379.55	2303.96
379.76	2314.20
379.98	2232.29
380.19	2265.05
380.41	2336.73
380.62	2271.20
380.83	2246.62
381.05	2246.62
381.26	2398.17
381.47	2265.05
381.69	2258.91
381.90	2412.51
382.12	2273.25
382.33	2275.29
382.54	2322.40
382.76	2308.06
382.97	2344.92
383.19	2222.05
383.40	2285.53
383.61	2279.39
383.83	2215.90
384.04	2244.57
384.25	2381.79
384.47	2385.88
384.68	2351.07
384.89	2297.82
385.11	2254.81
385.32	2279.39
385.54	2385.88
385.75	2379.74
385.96	2375.64
386.18	2408.41
386.39	2449.37
386.60	2396.12
386.82	2381.79
387.03	2400.22
387.24	2455.51
387.46	2396.12
387.67	2506.71
387.88	2496.47
388.10	2430.94
388.31	2486.23
388.52	2543.58
388.74	2430.94
388.95	2412.51
389.16	2506.71
389.38	2451.42
389.59	2578.39
389.80	2488.28
390.02	2510.81
390.23	2607.06
390.44	2519.00
390.66	2584.54
390.87	2469.85
391.08	2543.58
391.30	2627.54
391.51	2570.20
391.72	2746.33
391.94	2664.41
392.15	2648.02
392.36	2549.72
392.58	2648.02
392.79	2631.64
393.00	2699.22
393.22	2779.09
393.43	2760.66
393.64	2754.52
393.85	2828.24
394.07	2674.65
394.28	2697.17
394.49	2795.48
394.71	2721.75
394.92	2785.24
395.13	2711.51
395.35	2686.94
395.56	2797.53
395.77	2813.91
395.98	2842.58
396.20	2852.82
396.41	2818.00
396.62	2863.06
396.84	2787.29
397.05	2754.52
397.26	3002.32
397.47	2899.92
397.69	2805.72
397.90	3002.32
398.11	3049.43
398.32	2955.22
398.54	2795.48
398.75	2875.35
398.96	2920.40
399.18	2953.17
399.39	2977.75
399.60	3024.85
399.81	3022.80
400.03	3014.61
400.24	3147.73
400.45	2975.70
400.66	3125.20
400.88	3012.56
401.09	3172.30
401.30	3018.71
401.51	3129.30
401.73	3047.38
401.94	3205.07
402.15	3104.72
402.36	3076.05
402.58	3082.19
402.79	3182.54
403.00	3035.09
403.21	3147.73
403.43	3131.34
403.64	3213.26
403.85	3061.71
404.06	3346.38
404.27	3008.47
404.49	3196.88
404.70	3074.00
404.91	3215.31
405.12	3188.69
405.34	3297.23
405.55	3440.59
405.76	3211.22
405.97	3297.23
406.19	3389.39
406.40	3254.22
406.61	3313.61
406.82	3330.00
407.03	3231.69
407.25	3227.60
407.46	3364.81
407.67	3391.44
407.88	3403.72
408.09	3397.58
408.31	3293.13
408.52	3348.43
408.73	3399.63
408.94	3330.00
409.15	3473.36
409.37	3506.12
409.58	3547.08
409.79	3497.93
410.00	3549.13
410.21	3477.45
410.43	3469.26
410.64	3479.50
410.85	3534.79
411.06	3522.51
411.27	3549.13
411.48	3561.42
411.70	3469.26
411.91	3465.16
412.12	3608.52
412.33	3577.80
412.54	3481.55
412.76	3706.82
412.97	3590.09
413.18	3506.12
413.39	3641.29
413.60	3655.62
413.81	3684.30
414.03	3579.85
414.24	3553.23
414.45	3809.22
414.66	3571.66
414.87	3780.55
415.08	3723.21
415.30	3608.52
415.51	3733.45
415.72	3690.44
415.93	3733.45
416.14	3710.92
416.35	3813.32
416.56	3698.63
416.78	3856.33
416.99	3878.85
417.20	3854.28
417.41	3827.65
417.62	3846.09
417.83	3950.53
418.04	3964.87
418.26	3960.77
418.47	3903.43
418.68	3928.00
418.89	4054.98
419.10	4071.36
419.31	3885.00
419.52	3948.48
419.73	3917.76
419.95	4011.97
420.16	3803.08
420.37	4112.32
420.58	4116.42
420.79	3811.27
421.00	4059.07
421.21	4057.03
421.42	4050.88
421.63	4145.09
421.85	4020.16
422.06	4231.10
422.27	4196.29
422.48	4130.75
422.69	4249.54
422.90	4192.19
423.11	4278.21
423.32	4241.34
423.53	4272.06
423.75	4280.25
423.96	4366.27
424.17	4313.02
424.38	4536.25
424.59	4407.23
424.80	4517.82
425.01	4407.23
425.22	4378.56
425.43	4329.41
425.64	4573.11
425.85	4652.98
426.06	4476.86
426.28	4501.44
426.49	4370.37
426.70	4472.76
426.91	4599.74
427.12	4675.51
427.33	4681.66
427.54	4511.68
427.75	4681.66
427.96	4847.54
428.17	4698.04
428.38	4835.25
428.59	4755.38
428.80	4722.62
429.01	4927.41
429.23	4804.53
429.44	4880.31
429.65	4876.21
429.86	4847.54
430.07	4747.19
430.28	4804.53
430.49	4900.79
430.70	5074.87
430.91	5031.86
431.12	4919.22
431.33	5046.20
431.54	5181.36
431.75	5097.39
431.96	5195.70
432.17	4980.66
432.38	5175.22
432.59	5359.53
432.80	5324.72
433.01	5222.32
433.22	5304.24
433.43	5226.42
433.64	5271.47
433.85	5300.14
434.06	5230.51
434.27	5238.70
434.49	5500.84
434.70	5539.76
434.91	5367.73
435.12	5382.06
435.33	5437.36
435.54	5420.97
435.75	5365.68
435.96	5435.31
436.17	5402.54
436.38	5574.57
436.59	5552.04
436.80	5689.26
437.01	5685.16
437.22	5832.62
437.43	5597.10
437.64	5566.38
437.85	5633.96
438.06	5666.73
438.27	5717.93
438.48	5664.68
438.69	5797.80
438.90	5793.70
439.11	5621.67
439.32	5765.03
439.53	5750.70
439.74	5930.92
439.95	5889.96
440.16	5832.62
440.37	5777.32
440.57	5760.94
440.78	5846.95
440.99	5889.96
441.20	6010.79
441.41	5871.53
441.62	5982.12
441.83	5875.62
442.04	6061.99
442.25	6002.60
442.46	6018.98
442.67	6358.94
442.88	6467.49
443.09	5930.92
443.30	6096.80
443.51	6250.40
443.72	6428.57
443.93	6154.15
444.14	6479.77
444.35	6285.22
444.56	6221.73
444.77	6336.42
444.98	6416.29
445.19	6426.53
445.40	6283.17
445.61	6438.81
445.81	6442.91
446.02	6576.03
446.23	6295.46
446.44	6264.74
446.65	6451.10
446.86	6545.31
447.07	6559.64
447.28	6545.31
447.49	6563.74
447.70	6459.29
447.91	6586.27
448.12	6559.64
448.33	6596.51
448.54	6616.99
448.74	6614.94
448.95	6774.68
449.16	6602.65
449.37	7024.53
449.58	6743.96
449.79	7036.82
450.00	6541.21
450.21	6784.92
450.42	6954.90
450.63	6959.00
450.84	6856.60
451.05	7028.63
451.25	6963.09
451.46	6950.81
451.67	7176.08
451.88	7210.90
452.09	6999.96
452.30	7030.68
452.51	6913.94
452.72	7319.44
452.93	7516.05
453.13	7141.27
453.34	7194.51
453.55	7292.82
453.76	7278.48
453.97	7679.88
454.18	7348.11
454.39	7620.49
454.60	7452.56
454.81	7423.89
455.01	7632.78
455.22	7290.77
455.43	7499.66
455.64	7724.94
455.85	7878.54
456.06	7806.86
456.27	7808.90
456.48	7774.09
456.68	7876.49
456.89	7804.81
457.10	7968.65
457.31	8085.38
457.52	7960.45
457.73	7950.21
457.94	8073.09
458.14	7829.38
458.35	8290.18
458.56	8044.42
458.77	8118.15
458.98	8105.86
459.19	8310.66
459.39	8046.47
459.60	8523.65
459.81	8271.75
460.02	8497.02
460.23	8318.85
460.44	8566.65
460.65	8564.61
460.85	8546.17
461.06	8726.39
461.27	8613.76
461.48	8836.99
461.69	8927.10
461.89	8718.20
462.10	8681.34
462.31	8613.76
462.52	8832.89
462.73	8918.90
462.94	9334.64
463.14	9006.97
463.35	9052.02
463.56	9490.29
463.77	9269.11
463.98	9154.42
464.18	9197.43
464.39	9381.74
464.60	9615.21
464.81	9469.81
465.02	9496.43
465.23	9811.82
465.43	9635.69
465.64	9895.78
465.85	9758.57
466.06	9471.86
466.27	10026.86
466.47	9879.40
466.68	10037.09
466.89	9996.14
467.10	10039.14
467.30	10037.09
467.51	10121.06
467.72	10231.65
467.93	10127.21
468.14	10190.69
468.34	10497.89
468.55	10493.79
468.76	10549.09
468.97	10471.26
469.17	10610.53
469.38	10778.46
469.59	10825.56
469.80	10561.37
470.01	10526.56
470.21	10899.29
470.42	10852.19
470.63	11192.15
470.84	10987.35
471.04	11153.24
471.25	11429.71
471.46	11112.28
471.67	11464.53
471.87	11499.34
472.08	11462.48
472.29	11525.97
472.50	11349.84
472.70	11585.36
472.91	11929.42
473.12	11716.43
473.33	12128.07
473.53	11933.51
473.74	12046.15
473.95	12031.82
474.16	12177.22
474.36	12275.52
474.57	12568.38
474.78	12615.49
474.99	12363.59
475.19	12402.50
475.40	12799.80
475.61	12707.65
475.81	13061.94
476.02	13111.10
476.23	13041.46
476.44	13033.27
476.64	13422.39
476.85	13578.03
477.06	13526.83
477.27	13897.52
477.47	13774.64
477.68	13791.02
477.89	13758.25
478.09	13774.64
478.30	13831.98
478.51	14018.35
478.71	14157.61
478.92	14337.83
479.13	14384.93
479.34	14495.52
479.54	14520.10
479.75	14440.23
479.96	14651.17
480.16	14624.54
480.37	14755.61
480.58	14905.12
480.78	14948.12
480.99	14999.32
481.20	15281.94
481.41	15310.61
481.61	15615.76
481.82	15394.58
482.03	15413.01
482.23	15441.68
482.44	15630.10
482.65	16031.50
482.85	15955.72
483.06	15896.33
483.27	16056.08
483.47	16150.28
483.68	16240.39
483.89	16469.76
484.09	16305.93
484.30	16471.81
484.51	16738.05
484.71	16723.71
484.92	16811.78
485.13	16836.35
485.33	17088.25
485.54	16867.07
485.75	17108.73
485.95	17161.98
486.16	17219.32
486.37	17569.52
486.57	17508.08
486.78	17491.70
486.98	17319.67
487.19	17846.00
487.40	17901.29
487.60	17487.61
487.81	17876.72
488.02	18294.50
488.22	17948.40
488.43	18306.79
488.64	18179.82
488.84	18480.87
489.05	18448.10
489.25	18507.49
489.46	18992.86
489.67	18679.52
489.87	18665.19
490.08	18982.62
490.29	18945.76
490.49	19318.49
490.70	19437.27
490.90	19332.82
491.11	19461.85
491.32	19592.92
491.52	19332.82
491.73	19515.09
491.94	19562.20
492.14	19511.00
492.35	19898.06
492.55	20043.47
492.76	19883.73
492.97	20235.98
493.17	20162.25
493.38	20154.06
493.58	20547.27
493.79	20477.64
494.00	20491.98
494.20	20545.22
494.41	20954.82
494.61	20940.48
494.82	20905.66
495.02	21071.55
495.23	21196.48
495.44	21235.39
495.64	21231.29
495.85	21454.52
496.05	21601.97
496.26	21466.81
496.47	21601.97
496.67	21708.47
496.88	21806.77
497.08	21462.71
497.29	22165.17
497.49	21907.12
497.70	22326.96
497.91	22286.00
498.11	22025.90
498.32	22253.23
498.52	22398.63
498.73	22572.71
498.93	22458.03
499.14	22724.26
499.34	22748.84
499.55	22959.78
499.76	22716.07
499.96	23043.74
500.17	22752.93
500.37	23105.18
500.58	23062.18
500.78	23070.37
500.99	23213.73
501.19	23410.33
501.40	23305.88
501.60	23303.84
501.81	23275.16
502.02	23516.83
502.22	23367.32
502.43	23588.50
502.63	23621.27
502.84	23649.94
503.04	23967.38
503.25	24028.82
503.45	23987.86
503.66	24364.68
503.86	24182.42
504.07	24426.12
504.27	24278.67
504.48	24471.18
504.68	24385.16
504.89	24745.61
505.09	24981.12
505.30	24686.22
505.50	24774.28
505.71	24802.95
505.91	24929.92
506.12	25054.85
506.32	25005.70
506.53	25065.09
506.73	25085.57
506.94	25734.78
507.14	25425.53
507.35	25446.01
507.55	25493.12
507.76	25423.48
507.96	25294.46
508.17	25773.69
508.37	25585.27
508.58	25917.04
508.78	25738.87
508.99	25798.26
509.19	25816.69
509.40	26279.54
509.60	25826.93
509.81	25966.20
510.01	25990.77
510.22	26111.60
510.42	25890.42
510.63	26398.32
510.83	26437.23
511.04	26185.33
511.24	26572.39
511.44	26386.03
511.65	26793.58
511.85	26496.62
512.06	26775.14
512.26	26760.81
512.47	26703.46
512.67	27051.62
512.88	26969.70
513.08	26603.11
513.29	27160.16
513.49	26850.92
513.69	26959.46
513.90	27092.58
514.10	27493.98
514.31	27211.36
514.51	27383.39
514.72	27299.42
514.92	27311.71
515.13	27586.14
515.33	27258.46
515.53	27934.29
515.74	27491.93
515.94	27635.29
516.15	27944.53
516.35	27758.17
516.56	27926.10
516.76	27623.00
516.96	28010.07
517.17	28065.36
517.37	28036.69
517.58	28061.27
517.78	28472.91
517.99	28288.59
518.19	28427.85
518.39	28632.65
518.60	28563.02
518.80	28536.40
519.01	28718.67
519.21	28687.95
519.41	28663.37
519.62	28814.92
519.82	29115.97
520.03	28876.36
520.23	28876.36
520.43	28771.91
520.64	29455.93
520.84	29214.27
521.05	29394.50
521.25	29423.17
521.45	29365.82
521.66	29603.39
521.86	29486.65
522.07	29556.28
522.27	29531.71
522.47	29560.38
522.68	29711.93
522.88	29711.93
523.08	30111.28
523.29	30154.29
523.49	30053.94
523.70	30146.10
523.90	30684.72
524.10	30455.34
524.31	30447.15
524.51	30123.57
524.71	30871.08
524.92	30619.18
525.12	30787.11
525.33	30537.26
525.53	30934.57
525.73	30946.86
525.94	30891.56
526.14	30764.59
526.34	31528.48
526.55	31209.00
526.75	31071.78
526.95	31174.18
527.16	31614.49
527.36	31256.10
527.56	31737.37
527.77	31788.57
527.97	31667.74
528.17	31954.46
528.38	31950.36
528.58	31923.74
528.78	32089.62
528.99	32386.58
529.19	32462.35
529.39	31958.55
529.60	32581.13
529.80	32615.95
530.00	32263.70
530.21	32525.84
530.41	32503.31
530.61	32970.25
530.82	32773.64
531.02	32572.94
531.22	33007.11
531.43	32986.63
531.63	33261.06
531.83	33465.86
532.04	33596.93
532.24	33445.38
532.44	33728.00
532.64	33963.51
532.85	33799.68
533.05	33723.90
533.25	33701.37
533.46	34199.03
533.66	34311.67
533.86	34092.54
534.07	34584.05
534.27	34221.56
534.47	34428.40
534.67	34686.45
534.88	34393.59
535.08	34864.62
535.28	34952.68
535.49	34921.96
535.69	35243.49
535.89	35311.08
536.09	35296.74
536.30	35610.08
536.50	35605.98
536.70	35935.71
536.91	35436.00
537.11	35493.35
537.31	35550.69
537.51	35685.86
537.72	35907.04
537.92	36193.75
538.12	36292.05
538.32	36066.78
538.53	36402.64
538.73	36236.76
538.93	36208.09
539.13	36482.52
539.34	36584.91
539.54	36298.20
539.74	36810.19
539.94	36451.80
540.15	36808.14
540.35	37311.94
540.55	36992.46
540.75	37430.72
540.96	36918.73
541.16	37232.07
541.36	37363.14
541.56	37606.85
541.77	37723.58
541.97	37432.77
542.17	37555.65
542.37	37551.56
542.58	37799.36
542.78	38032.83
542.98	37750.21
543.18	37750.21
543.38	38188.47
543.59	38061.50
543.79	38086.07
543.99	38018.49
544.19	38348.21
544.40	38383.03
544.60	38784.43
544.80	38440.37
545.00	38778.29
545.20	38880.69
545.41	38155.71
545.61	38602.16
545.81	39075.24
546.01	39003.56
546.21	39257.51
546.42	38747.57
546.62	39454.12
546.82	38876.59
547.02	38933.93
547.22	39581.09
547.43	39247.27
547.63	39069.10
547.83	39552.42
548.03	39001.52
548.23	39603.62
548.44	39531.94
548.64	39775.65
548.84	39595.43
549.04	39779.74
549.24	40211.87
549.45	39652.77
549.65	39921.05
549.85	40154.52
550.05	40336.79
550.25	40005.02
550.45	40529.30
550.66	40002.97
550.86	40037.79
551.06	40379.80
551.26	40301.98
551.46	40510.87
551.66	40539.54
551.87	40326.55
552.07	40811.92
552.27	40566.16
552.47	40949.14
552.67	40859.02
552.87	41180.56
553.07	41225.61
553.28	40840.59
553.48	41170.32
553.68	40695.19
553.88	41569.67
554.08	41348.49
554.28	41442.70
554.48	40957.33
554.69	41336.20
554.89	41411.98
555.09	41301.39
555.29	41110.92
555.49	41325.96
555.69	41473.42
555.89	41465.22
556.10	42159.48
556.30	41168.27
556.50	41813.38
556.70	41551.24
556.90	42122.62
557.10	41952.64
557.30	41713.03
557.50	41727.36
557.70	41913.73
557.91	41905.54
558.11	42296.70
558.31	42548.60
558.51	42091.90
558.71	42403.19
558.91	42231.16
559.11	41821.57
559.31	42665.33
559.51	42044.80
559.72	42679.67
559.92	42546.55
560.12	42509.69
560.32	42636.66
560.52	42343.80
560.72	42737.01
560.92	42763.64
561.12	42743.16
561.32	42882.42
561.52	42866.03
561.72	43324.78
561.93	42691.96
562.13	42843.51
562.33	42796.40
562.53	43455.85
562.73	43007.34
562.93	42988.91
563.13	43134.32
563.33	43029.87
563.53	43328.87
563.73	42902.90
563.93	43505.00
564.13	43423.08
564.33	43482.47
564.53	43816.29
564.74	43451.75
564.94	43507.05
565.14	43261.29
565.34	43550.06
565.54	43548.01
565.74	43871.59
565.94	43806.05
566.14	43758.95
566.34	43705.70
566.54	44064.10
566.74	43791.72
566.94	43652.45
567.14	43859.30
567.34	44137.82
567.54	43951.46
567.74	43842.92
567.94	43664.74
568.14	44485.98
568.34	44381.53
568.54	44410.20
568.74	44442.97
568.94	44299.61
569.14	44666.20
569.34	44758.36
569.54	44535.13
569.75	44348.76
569.95	44543.32
570.15	44936.53
570.35	44533.08
570.55	44617.05
570.75	44561.75
570.95	44535.13
571.15	44733.78
571.35	44653.91
571.55	45344.08
571.75	44782.93
571.95	44901.71
572.15	44846.42
572.35	44885.33
572.55	45325.64
572.75	45296.97
572.95	45190.48
573.15	45159.76
573.35	44967.25
573.55	44979.54
573.75	45155.66
573.95	45204.81
574.15	45733.19
574.35	45258.06
574.55	45774.15
574.75	45485.39
574.95	45856.07
575.15	45546.82
575.34	45688.13
575.54	45671.75
575.74	45942.08
575.94	46101.82
576.14	45897.03
576.34	46085.44
576.54	46382.40
576.74	46013.76
576.94	45956.42
577.14	46175.55
577.34	46628.15
577.54	46009.67
577.74	46355.77
577.94	46183.74
578.14	46302.53
578.34	46687.54
578.54	46052.67
578.74	46026.05
578.94	46794.04
579.14	46290.24
579.34	46556.47
579.54	46382.40
579.74	46976.31
579.94	46654.78
580.13	46746.93
580.33	46576.95
580.53	47013.17
580.73	46978.36
580.93	46937.40
581.13	47158.58
581.33	47129.90
581.53	47045.94
581.73	46941.49
581.93	47226.16
582.13	47308.08
582.33	47394.09
582.53	47451.44
582.73	47279.41
582.92	47281.45
583.12	47666.47
583.32	47314.22
583.52	47373.61
583.72	47770.92
583.92	47598.89
584.12	47985.96
584.32	48409.89
584.52	47502.64
584.72	48053.54
584.92	48016.68
585.11	48469.28
585.31	48305.44
585.51	48579.87
585.71	48182.56
585.91	48766.23
586.11	48098.59
586.31	48186.66
586.51	48244.00
586.71	48051.49
586.91	48090.40
587.10	48753.94
587.30	48813.34
587.50	48334.11
587.70	48432.41
587.90	49204.50
588.10	48667.93
588.30	48741.66
588.50	49126.67
588.69	48885.01
588.89	48692.50
589.09	49091.86
589.29	48862.49
589.49	49427.73
589.69	48768.28
589.89	49304.85
590.08	49050.90
590.28	49214.74
590.48	49261.84
590.68	48819.48
590.88	49556.75
591.08	49556.75
591.28	48839.96
591.47	49962.25
591.67	49104.15
591.87	49425.68
592.07	49655.05
592.27	49794.31
592.47	49362.19
592.67	49448.21
592.86	49435.92
593.06	49751.30
593.26	49388.81
593.46	49872.14
593.66	49917.19
593.86	49687.82
594.05	49839.37
594.25	49855.75
594.45	49714.44
594.65	50099.46
594.85	49532.17
595.05	49786.12
595.24	50795.77
595.44	50132.23
595.64	50357.50
595.84	49992.97
596.04	49952.01
596.23	50459.90
596.43	50724.09
596.63	50289.92
596.83	50300.16
597.03	50562.30
597.22	50859.26
597.42	50705.66
597.62	50713.85
597.82	50586.88
598.02	50625.79
598.21	51064.05
598.41	50447.61
598.61	50799.86
598.81	50967.80
599.01	51414.26
599.20	50861.30
599.40	51062.00
599.60	51100.92
599.80	51217.65
600.00	51424.50
600.19	51653.87
600.39	51229.94
600.59	51547.37
600.79	51629.29
600.98	51170.55
601.18	51633.39
601.38	51641.58
601.58	51791.08
601.78	51934.44
601.97	51612.91
602.17	52466.91
602.37	51729.64
602.57	51918.06
602.76	51948.78
602.96	51684.59
603.16	51856.62
603.36	52180.20
603.55	52425.95
603.75	51905.77
603.95	52286.69
604.15	52077.80
604.34	52219.11
604.54	52577.50
604.74	52552.93
604.94	52497.63
605.13	52370.66
605.33	52419.81
605.53	52401.38
605.73	52645.08
605.92	52544.73
606.12	52813.02
606.32	52923.61
606.52	52845.79
606.71	53101.78
606.91	53228.76
607.11	52663.52
607.30	53392.59
607.50	53322.96
607.70	53107.93
607.90	52706.52
608.09	53026.01
608.29	52942.04
608.49	53230.80
608.68	53136.60
608.88	53568.72
609.08	53785.80
609.28	53447.89
609.47	52876.51
609.67	53798.09
609.87	53183.70
610.06	53871.82
610.26	53560.53
610.46	53884.11
610.66	53738.70
610.85	53771.47
611.05	53609.68
611.25	53599.44
611.44	53683.40
611.64	54183.11
611.84	53118.17
612.03	53392.59
612.23	53867.72
612.43	53517.52
612.62	53490.90
612.82	54293.70
613.02	53507.28
613.21	54019.27
613.41	53712.08
613.61	53947.59
613.80	53724.36
614.00	54199.49
614.20	53837.00
614.39	53785.80
614.59	54217.92
614.79	54191.30
614.98	54273.22
615.18	54144.20
615.38	54406.34
615.57	54029.51
615.77	54619.33
615.97	54215.88
616.16	54115.53
616.36	54136.01
616.56	54013.13
616.75	54400.19
616.95	53675.21
617.15	54211.78
617.34	53943.50
617.54	54060.23
617.74	54574.27
617.93	54236.36
618.13	53884.11
618.32	54596.80
618.52	53832.91
618.72	54224.07
618.91	54932.67
619.11	54021.32
619.31	54160.58
619.50	54039.75
619.70	53941.45
619.90	54215.88
620.09	54332.61
620.29	54369.47
620.48	54828.22
620.68	54777.02
620.88	54043.85
621.07	53998.79
621.27	54609.09
621.46	54049.99
621.66	54297.80
621.86	54467.78
622.05	54015.18
622.25	54736.06
622.44	54203.59
622.64	54377.67
622.84	54361.28
623.03	53976.26
623.23	54461.63
623.42	53894.35
623.62	54648.00
623.82	54912.19
624.01	54435.01
624.21	54834.36
624.40	54248.64
624.60	54641.85
624.80	54523.07
624.99	54193.35
625.19	54037.70
625.38	54363.33
625.58	54518.98
625.77	54377.67
625.97	54729.92
626.17	54133.96
626.36	54289.60
626.56	54639.81
626.75	54342.85
626.95	54424.77
627.14	54533.31
627.34	54959.29
627.54	54310.08
627.73	54553.79
627.93	54588.61
628.12	54236.36
628.32	54494.40
628.51	54795.45
628.71	54617.28
628.90	54723.77
629.10	54289.60
629.30	54631.61
629.49	54629.57
629.69	54250.69
629.88	54734.01
630.08	54473.92
630.27	55211.19
630.47	54678.72
630.66	54383.81
630.86	54705.34
631.05	54396.10
631.25	55243.96
631.44	54916.28
631.64	54666.43
631.84	54852.80
632.03	55334.07
632.23	54639.81
632.42	55164.09
632.62	54928.57
632.81	54365.38
633.01	55030.97
633.20	54940.86
633.40	55254.20
633.59	54768.83
633.79	54455.49
633.98	54922.43
634.18	54920.38
634.37	55186.61
634.57	55159.99
634.76	55362.74
634.96	54914.23
635.15	55186.61
635.35	54723.77
635.54	54641.85
635.74	55231.67
635.93	54750.40
636.13	55030.97
636.32	55182.52
636.52	54367.43
636.71	54783.16
636.91	54811.84
637.10	55092.41
637.30	54736.06
637.49	54959.29
637.69	54817.98
637.88	55499.95
638.08	54887.61
638.27	55628.98
638.46	55162.04
638.66	55194.81
638.85	55227.57
639.05	55309.49
639.24	55628.98
639.44	55100.60
639.63	55444.66
639.83	55348.40
640.02	55342.26
640.22	55565.49
640.41	55749.81
640.61	54994.10
640.80	55172.28
640.99	55041.21
641.19	55610.54
641.38	54926.52
641.58	55327.92
641.77	54879.42
641.97	55082.17
642.16	55096.50
642.36	55712.94
642.55	55768.24
642.74	55071.93
642.94	55739.57
643.13	55395.51
643.33	55375.03
643.52	55700.65
643.72	55655.60
643.91	55448.75
644.10	55948.46
644.30	55561.39
644.49	55467.19
644.69	55915.69
644.88	55676.08
645.08	55698.61
645.27	55895.21
645.46	55073.98
645.66	55698.61
645.85	55696.56
646.05	56075.43
646.24	56116.39
646.43	55592.11
646.63	56104.10
646.82	55674.03
647.02	55833.77
647.21	56399.01
647.40	55837.87
647.60	56140.97
647.79	56075.43
647.99	56138.92
648.18	55467.19
648.37	56767.65
648.57	56280.23
648.76	56040.62
648.96	55893.16
649.15	56173.73
649.34	56349.86
649.54	56396.96
649.73	55710.89
649.92	56585.38
650.12	56261.80
650.31	55780.52
650.51	55923.88
650.70	56313.00
650.89	55641.26
651.09	56861.85
651.28	56140.97
651.47	56274.09
651.67	56296.61
651.86	56538.27
652.06	56022.19
652.25	56126.63
652.44	56491.17
652.64	56198.31
652.83	55960.75
653.02	55964.84
653.22	56476.83
653.41	55975.08
653.60	56132.78
653.80	56220.84
653.99	56482.98
654.18	56136.87
654.38	56485.03
654.57	56349.86
654.76	56159.40
654.96	56272.04
655.15	56204.45
655.34	56100.01
655.54	56175.78
655.73	56030.38
655.92	56495.27
656.12	56351.91
656.31	55966.89
656.50	56376.48
656.70	56261.80
656.89	56222.89
657.08	56319.14
657.28	56278.18
657.47	56315.04
657.66	56808.61
657.86	56366.24
658.05	56382.63
658.24	56970.39
658.43	56163.50
658.63	56288.42
658.82	56351.91
659.01	56366.24
659.21	56536.23
659.40	56374.44
659.59	56147.11
659.79	56485.03
659.98	57011.35
660.17	56628.38
660.36	56095.91
660.56	56556.70
660.75	56431.78
660.94	56091.82
661.14	56532.13
661.33	56646.82
661.52	56214.69
661.71	56618.14
661.91	56530.08
662.10	56239.27
662.29	56491.17
662.49	56317.09
662.68	56513.70
662.87	56325.28
663.06	56767.65
663.26	56321.19
663.45	57123.99
663.64	56026.28
663.83	56493.22
664.03	56620.19
664.22	56087.72
664.41	56507.55
664.60	56034.47
664.80	56171.69
664.99	56196.26
665.18	55993.51
665.37	56224.93
665.57	56665.25
665.76	56143.02
665.95	56439.97
666.14	56505.51
666.34	56374.44
666.53	56505.51
666.72	56278.18
666.91	56136.87
667.11	55827.63
667.30	56448.16
667.49	56343.72
667.68	56179.88
667.87	56290.47
668.07	56489.12
668.26	56093.86
668.45	56294.56
668.64	56237.22
668.84	56573.09
669.03	56374.44
669.22	56261.80
669.41	56083.62
669.60	56108.20
669.80	56333.48
669.99	56349.86
670.18	56110.25
670.37	56343.72
670.57	56413.35
670.76	56243.37
670.95	56186.02
671.14	56175.78
671.33	55927.98
671.53	56415.40
671.72	56026.28
671.91	55991.47
672.10	55936.17
672.29	56145.06
672.48	55989.42
672.68	56714.40
672.87	56097.96
673.06	56091.82
673.25	56093.86
673.44	56210.60
673.64	55745.71
673.83	56005.80
674.02	55747.76
674.21	55919.79
674.40	56351.91
674.59	55719.09
674.79	55893.16
674.98	56147.11
675.17	56280.23
675.36	56007.85
675.55	56349.86
675.74	55678.13
675.94	56005.80
676.13	55946.41
676.32	55647.41
676.51	55878.83
676.70	56274.09
676.89	55758.00
677.08	56036.52
677.28	55708.85
677.47	56382.63
677.66	56224.93
677.85	55547.06
678.04	55975.08
678.23	56145.06
678.42	56218.79
678.62	55825.58
678.81	55905.45
679.00	56079.53
679.19	56255.65
679.38	56194.21
679.57	55956.65
679.76	55921.83
679.96	55917.74
680.15	56054.95
680.34	55200.95
680.53	55839.92
680.72	56433.83
680.91	55762.09
681.10	55727.28
681.29	55821.48
681.48	55825.58
681.68	55792.81
681.87	55649.45
682.06	55860.40
682.25	55282.87
682.44	55583.92
682.63	55528.62
682.82	55461.04
683.01	55622.83
683.20	55221.43
683.39	55379.12
683.59	55653.55
683.78	55196.85
683.97	55022.78
684.16	55700.65
684.35	55329.97
684.54	55450.80
684.73	54901.95
684.92	55471.28
685.11	55018.68
685.30	55180.47
685.49	55155.89
685.69	55004.34
685.88	55221.43
686.07	54785.21
686.26	54686.91
686.45	55469.23
686.64	55260.34
686.83	55061.69
687.02	55180.47
687.21	55452.85
687.40	54856.89
687.59	54887.61
687.78	55415.99
687.97	55186.61
688.16	54973.63
688.35	54731.96
688.54	54842.56
688.74	54938.81
688.93	54729.92
689.12	54908.09
689.31	55018.68
689.50	55289.01
689.69	54992.06
689.88	54314.18
690.07	54977.72
690.26	54719.68
690.45	55360.69
690.64	54756.54
690.83	54308.04
691.02	54383.81
691.21	54580.42
691.40	54648.00
691.59	54541.50
691.78	54627.52
691.97	54672.57
692.16	54478.02
692.35	55010.49
692.54	54625.47
692.73	54619.33
692.92	54553.79
693.11	54592.70
693.30	54473.92
693.49	54482.11
693.68	54447.30
693.87	54707.39
694.06	53933.26
694.25	54645.95
694.44	54133.96
694.63	54439.11
694.82	54496.45
695.01	53976.26
695.20	54009.03
695.39	53949.64
695.58	54197.44
695.77	53605.58
695.96	53841.10
696.15	54342.85
696.34	54273.22
696.53	54033.61
696.72	54303.94
696.91	53920.97
697.10	53998.79
697.29	53394.64
697.48	54228.16
697.67	54019.27
697.86	53591.25
698.05	53859.53
698.24	54207.68
698.43	53886.15
698.62	54181.06
698.81	53560.53
699.00	54277.32
699.19	53656.78
699.38	53525.71
699.57	53382.35
699.76	53843.15
699.95	53474.51
700.14	53558.48
700.32	53535.95
700.51	53904.59
700.70	54203.59
700.89	53945.54
701.08	53812.43
701.27	53753.04
701.46	53728.46
701.65	53384.40
701.84	53802.19
702.03	53521.62
702.22	53703.88
702.41	53507.28
702.60	53646.54
702.79	53322.96
702.98	53421.26
703.17	53216.47
703.35	52739.29
703.54	52995.29
703.73	53388.50
703.92	53376.21
704.11	52843.74
704.30	52991.19
704.49	53095.64
704.68	53284.05
704.87	53042.39
705.06	52929.75
705.25	53032.15
705.43	53230.80
705.62	52960.47
705.81	53374.16
706.00	52856.03
706.19	52741.34
706.38	52665.56
706.57	52851.93
706.76	52731.10
706.95	53009.62
707.14	52790.49
707.32	52804.83
707.51	52632.80
707.70	52583.65
707.89	52569.31
708.08	52661.47
708.27	53019.86
708.46	53320.91
708.65	52198.63
708.84	53028.05
709.02	53007.58
709.21	52708.57
709.40	52917.46
709.59	52763.87
709.78	52483.30
709.97	52935.90
710.16	52337.89
710.34	52503.77
710.53	52702.43
710.72	52165.86
710.91	52511.97
711.10	52176.10
711.29	52012.26
711.48	52622.56
711.66	52024.55
711.85	51819.75
712.04	52483.30
712.23	52262.11
712.42	51967.21
712.61	51905.77
712.80	51942.63
712.98	52026.60
713.17	51985.64
713.36	52081.89
713.55	51989.73
713.74	52290.79
713.93	52053.22
714.11	51944.68
714.30	51815.66
714.49	51836.14
714.68	52135.14
714.87	51574.00
715.06	51946.73
715.24	51678.44
715.43	51619.05
715.62	51530.99
715.81	51506.41
716.00	51805.42
716.18	51639.53
716.37	51301.62
716.56	51240.18
716.75	51983.59
716.94	51598.57
717.12	51481.84
717.31	50998.52
717.50	50947.32
717.69	51315.95
717.88	51283.19
718.06	51016.95
718.25	51174.64
718.44	51051.76
718.63	51285.23
718.82	50969.85
719.00	51082.48
719.19	50711.80
719.38	50824.44
719.57	50611.45
719.76	50363.65
719.94	50076.93
720.13	50222.34
720.32	50697.47
720.51	50502.91
720.69	50429.18
720.88	50394.37
721.07	50339.07
721.26	49874.18
721.44	49894.66
721.63	50070.79
721.82	49982.73
722.01	49673.48
722.20	50242.82
722.38	49700.11
722.57	49837.32
722.76	50134.28
722.95	49937.67
723.13	49319.18
723.32	49646.86
723.51	49607.95
723.70	49313.04
723.88	49589.52
724.07	48915.73
724.26	49493.26
724.44	49132.82
724.63	49528.08
724.82	49167.63
725.01	49382.67
725.19	49167.63
725.38	49190.16
725.57	49202.45
725.76	49409.29
725.94	48805.14
726.13	48592.15
726.32	49098.00
726.51	48948.50
726.69	49267.98
726.88	49315.09
727.07	49114.39
727.25	48897.30
727.44	49495.31
727.63	49036.56
727.82	48856.34
728.00	48964.88
728.19	48788.76
728.38	49036.56
728.56	48293.15
728.75	49034.52
728.94	48723.22
729.12	49003.80
729.31	48968.98
729.50	48624.92
729.69	48821.53
729.87	48338.21
730.06	48704.79
730.25	48551.20
730.43	49204.50
730.62	48217.38
730.81	48735.51
730.99	48823.58
731.18	48532.76
731.37	48610.59
731.55	48919.83
731.74	48995.60
731.93	48960.79
732.11	48581.91
732.30	48710.94
732.49	48731.42
732.67	48676.12
732.86	48592.15
733.05	48655.64
733.23	48104.74
733.42	48731.42
733.61	48362.78
733.79	49032.47
733.98	48827.67
734.17	48354.59
734.35	48198.94
734.54	48354.59
734.73	48459.04
734.91	48409.89
735.10	47979.81
735.29	48684.31
735.47	47576.36
735.66	48506.14
735.84	48237.86
736.03	47867.17
736.22	48381.21
736.40	47635.75
736.59	48104.74
736.78	48266.53
736.96	48327.97
737.15	48051.49
737.33	47998.24
737.52	47938.85
737.71	47623.47
737.89	47766.82
738.08	47619.37
738.27	47426.86
738.45	47908.13
738.64	48094.50
738.82	48010.53
739.01	47627.56
739.20	47914.28
739.38	47734.06
739.57	48164.13
739.75	47725.86
739.94	47351.09
740.13	47607.08
740.31	47396.14
740.50	47371.57
740.68	47977.76
740.87	47439.15
741.06	47734.06
741.24	47289.65
741.43	46873.91
741.61	47502.64
741.80	47136.05
741.99	47052.08
742.17	47248.69
742.36	47289.65
742.54	46837.05
742.73	47162.67
742.91	47318.32
743.10	47226.16
743.29	47256.88
743.47	47037.75
743.66	46824.76
743.84	47062.32
744.03	47322.41
744.21	47113.52
744.40	47377.71
744.59	46544.19
744.77	46736.69
744.96	46769.46
745.14	46869.81
745.33	46630.20
745.51	46611.77
745.70	47019.31
745.88	46755.13
746.07	46458.17
746.26	46710.07
746.44	46579.00
746.63	46517.56
746.81	46730.55
747.00	46034.24
747.18	46243.13
747.37	46331.20
747.55	46497.08
747.74	47025.46
747.92	45866.31
748.11	46288.19
748.29	45925.70
748.48	46275.90
748.66	45997.38
748.85	46449.98
749.03	46013.76
749.22	45940.04
749.41	45802.82
749.59	46220.61
749.78	45497.67
749.96	45413.71
750.15	45555.02
750.33	46044.48
750.52	45768.01
750.70	45845.83
750.89	45626.70
751.07	45249.87
751.26	45651.27
751.44	45454.67
751.63	45507.91
751.81	45225.29
752.00	45393.23
752.18	45514.06
752.37	45393.23
752.55	44891.48
752.74	45206.86
752.92	44905.81
753.10	45096.27
753.29	44991.83
753.47	44914.00
753.66	44774.74
753.84	44737.88
754.03	44735.83
754.21	44727.64
754.40	45141.33
754.58	44813.65
754.77	44905.81
754.95	44782.93
755.14	44680.53
755.32	44670.29
755.51	44619.10
755.69	44664.15
755.88	44100.96
756.06	45053.26
756.24	44262.75
756.43	44318.04
756.61	44326.24
756.80	44526.94
756.98	44176.73
757.17	44569.94
757.35	44217.69
757.54	43699.56
757.72	44174.69
757.90	44055.90
758.09	43754.85
758.27	44135.77
758.46	43998.56
758.64	43808.10
758.83	44189.02
759.01	44076.38
759.19	43570.54
759.38	43795.81
759.56	43808.10
759.75	43720.04
759.93	43693.41
760.12	43402.60
760.30	43543.91
760.48	43525.48
760.67	43554.15
760.85	43840.87
761.04	43660.65
761.22	43756.90
761.40	43558.25
761.59	43451.75
761.77	43414.89
761.96	43226.48
762.14	43068.78
762.32	42972.53
762.51	42775.92
762.69	43193.71
762.88	43044.21
763.06	43402.60
763.24	43214.19
763.43	43269.48
763.61	42792.31
763.80	42913.14
763.98	42694.00
764.16	42892.66
764.35	42362.23
764.53	42222.97
764.72	42198.40
764.90	42491.26
765.08	42317.18
765.27	42265.98
765.45	42214.78
765.63	42073.47
765.82	42536.31
766.00	42139.00
766.18	42231.16
766.37	42188.16
766.55	41991.55
766.74	41915.78
766.92	41670.02
767.10	41801.09
767.29	41704.84
767.47	41403.78
767.65	41883.01
767.84	41293.19
768.02	41733.51
768.20	41356.68
768.39	41360.78
768.57	41405.83
768.75	41487.75
768.94	41485.70
769.12	41751.94
769.30	41368.97
769.49	41747.84
769.67	41135.50
769.85	41112.97
770.04	41489.80
770.22	41092.49
770.40	41031.05
770.59	41047.44
770.77	41024.91
770.95	40789.39
771.14	40555.93
771.32	40410.52
771.50	40549.78
771.69	40748.43
771.87	41039.25
772.05	40865.17
772.24	40553.88
772.42	40629.65
772.60	40476.05
772.78	40502.68
772.97	40301.98
773.15	41100.68
773.33	40449.43
773.52	40035.74
773.70	40490.39
773.88	40818.07
774.07	40228.25
774.25	40326.55
774.43	40535.45
774.61	40312.22
774.80	40463.77
774.98	40320.41
775.16	40711.57
775.34	40512.92
775.53	40121.76
775.71	40590.74
775.89	40492.44
776.08	40453.53
776.26	40627.60
776.44	40334.74
776.62	40471.96
776.81	39851.42
776.99	40428.95
777.17	40607.12
777.35	40637.84
777.54	40867.22
777.72	40459.67
777.90	40496.53
778.08	40492.44
778.27	40410.52
778.45	40492.44
778.63	40562.07
778.81	40377.75
779.00	41018.77
779.18	40627.60
779.36	41063.82
779.54	40762.77
779.73	40805.78
779.91	40744.34
780.09	41186.70
780.27	41250.19
780.46	40656.28
780.64	40906.13
780.82	40609.17
781.00	40871.31
781.19	40672.66
781.37	40983.95
781.55	41172.36
781.73	41250.19
781.91	41127.31
782.10	41301.39
782.28	41141.64
782.46	41102.73
782.64	41508.23
782.82	41049.49
783.01	41469.32
783.19	40846.74
783.37	41315.72
783.55	41112.97
783.74	41065.87
783.92	41020.81
784.10	41749.89
784.28	41387.40
784.46	40916.37
784.64	41035.15
784.83	41100.68
785.01	41809.28
785.19	40891.79
785.37	41457.03
785.55	41092.49
785.74	41104.78
785.92	40893.84
786.10	41395.59
786.28	41065.87
786.46	41158.03
786.64	40662.42
786.83	40701.33
787.01	40803.73
787.19	41020.81
787.37	40785.30
787.55	40705.43
787.74	40572.31
787.92	40736.15
788.10	40551.83
788.28	40822.16
788.46	40486.29
788.64	40119.71
788.82	40486.29
789.01	40566.16
789.19	40191.39
789.37	40015.26
789.55	40123.80
789.73	39841.18
789.91	39939.49
790.09	40156.57
790.28	39777.70
790.46	39503.27
790.64	40142.24
790.82	39849.38
791.00	39804.32
791.18	39921.05
791.36	39663.01
791.55	39806.37
791.73	39486.89
791.91	39376.30
792.09	39587.24
792.27	39556.52
792.45	39437.73
792.63	39484.84
792.81	38958.51
793.00	39028.14
793.18	39230.89
793.36	39351.72
793.54	39073.20
793.72	38675.89
793.90	38524.34
794.08	38469.04
794.26	38774.19
794.44	38409.65
794.62	38464.95
794.81	38417.85
794.99	38526.39
795.17	38225.34
795.35	38563.25
795.53	38170.04
795.71	38155.71
795.89	37948.86
796.07	37656.00
796.25	37510.60
796.43	37719.49
796.61	37410.25
796.80	37754.30
796.98	37942.72
797.16	37426.63
797.34	37313.99
797.52	37074.38
797.70	37809.60
797.88	37281.22
798.06	36908.49
798.24	37160.39
798.42	36849.10
798.60	36931.02
798.78	36781.52
798.96	36838.86
799.14	36644.30
799.32	36715.98
799.51	36521.43
799.69	36466.13
799.87	36572.63
800.05	36160.98
800.23	36525.52
800.41	35773.92
800.59	36091.35
800.77	35526.11
800.95	35556.83
801.13	35948.00
801.31	35671.52
801.49	35542.50
801.67	35593.70
801.85	35573.22
802.03	35431.91
802.21	35198.44
802.39	35288.55
802.57	35098.09
802.75	35157.48
802.93	35155.43
803.11	34784.75
803.29	34762.22
803.47	34356.72
803.65	34760.17
803.83	34733.55
804.01	34567.66
804.19	34467.31
804.37	34276.85
804.55	34285.04
804.73	34512.37
804.91	34108.92
805.09	34262.52
805.27	34631.15
805.45	34158.07
805.63	34082.30
805.81	34061.82
805.99	33932.79
806.17	33998.33
806.35	34055.67
806.53	33635.84
806.71	33521.15
806.89	33672.70
807.07	33461.76
807.25	33510.91
807.43	33259.01
807.61	33828.35
807.79	33076.74
807.97	33078.79
808.15	33326.60
808.33	32953.87
808.51	33230.34
808.69	32925.19
808.87	33052.17
809.05	32863.75
809.23	32650.77
809.41	32527.89
809.59	32583.18
809.77	32675.34
809.95	32452.11
810.13	32839.18
810.31	32425.49
810.49	32665.10
810.67	32114.20
810.84	32413.20
811.02	32095.77
811.20	32189.97
811.38	32275.99
811.56	31852.06
811.74	32108.05
811.92	31489.57
812.10	32032.28
812.28	32003.61
812.46	31952.41
812.64	31895.07
812.82	31497.76
813.00	31733.28
813.18	31604.25
813.36	31419.94
813.53	31516.19
813.71	31270.43
813.89	31421.98
814.07	31266.34
814.25	31434.27
814.43	31225.38
814.61	31141.41
814.79	30897.70
814.97	31055.40
815.15	31135.27
815.33	30993.96
815.50	30694.96
815.68	30963.24
815.86	31131.17
816.04	30721.58
816.22	30533.17
816.40	30606.89
816.58	30389.81
816.76	30180.92
816.94	30322.23
817.11	30584.37
817.29	30457.39
817.47	30359.09
817.65	30137.91
817.83	30107.19
818.01	30125.62
818.19	30146.10
818.37	30002.74
818.54	29541.95
818.72	29775.42
818.90	30129.72
819.08	30041.65
819.26	29783.61
819.44	29877.82
819.62	29916.73
819.80	29781.56
819.97	29812.28
820.15	29726.27
820.33	29402.69
820.51	29564.48
820.69	29525.57
820.87	29552.19
821.05	29564.48
821.22	29371.97
821.40	29505.09
821.58	29242.95
821.76	29140.55
821.94	29195.84
822.12	29212.23
822.29	29353.54
822.47	28843.59
822.65	29146.69
822.83	28954.18
823.01	28673.61
823.19	28704.33
823.36	28718.67
823.54	28747.34
823.72	28599.88
823.90	28747.34
824.08	28343.89
824.25	28558.92
824.43	27760.22
824.61	28812.87
824.79	28350.03
824.97	28182.10
825.15	28493.39
825.32	28317.26
825.50	28085.84
825.68	27631.19
825.86	28337.74
826.04	28382.80
826.21	27864.66
826.39	28112.47
826.57	27842.14
826.75	27696.73
826.93	27756.12
827.10	27805.27
827.28	27872.85
827.46	28165.71
827.64	27915.86
827.81	27500.12
827.99	27805.27
828.17	27584.09
828.35	27659.87
828.53	27758.17
828.70	27618.91
828.88	27741.78
829.06	27819.61
829.24	27426.40
829.41	27512.41
829.59	27653.72
829.77	27346.53
829.95	27565.66
830.12	27254.37
830.30	27338.33
830.48	27557.47
830.66	27225.70
830.84	27336.29
831.01	27020.90
831.19	27311.71
831.37	26992.23
831.55	26975.84
831.72	26996.32
831.90	26875.49
832.08	26742.38
832.25	26926.69
832.43	27154.02
832.61	26723.94
832.79	26910.31
832.96	26955.36
833.14	26879.59
833.32	26783.34
833.50	26644.07
833.67	26668.65
833.85	26787.43
834.03	26549.87
834.20	26517.10
834.38	26816.10
834.56	26674.79
834.74	26340.97
834.91	26539.63
835.09	26480.24
835.27	26242.67
835.44	26265.20
835.62	25814.65
835.80	26209.90
835.98	25933.43
836.15	26201.71
836.33	25937.52
836.51	26138.23
836.68	25837.17
836.86	25835.13
837.04	25955.96
837.21	25831.03
837.39	25960.05
837.57	25955.96
837.75	25845.37
837.92	25335.42
838.10	25339.52
838.28	25450.11
838.45	25656.95
838.63	25613.95
838.81	25468.54
838.98	25421.44
839.16	25347.71
839.34	25417.34
839.51	25515.64
839.69	25177.73
839.87	25063.04
840.04	25187.97
840.22	25333.37
840.40	25306.75
840.57	24934.02
840.75	25398.91
840.93	25015.94
841.10	25009.79
841.28	25486.97
841.46	24936.07
841.63	25304.70
841.81	25187.97
841.98	25212.54
842.16	25079.43
842.34	25233.02
842.51	24690.31
842.69	25026.18
842.87	24780.42
843.04	25196.16
843.22	24729.22
843.40	24891.01
843.57	25024.13
843.75	24776.33
843.92	25122.43
844.10	24495.75
844.28	24864.39
844.45	24514.19
844.63	24612.49
844.81	24606.34
844.98	24381.07
845.16	24276.62
845.33	24434.32
845.51	24401.55
845.69	24323.72
845.86	24352.40
846.04	24180.37
846.21	24409.74
846.39	24123.02
846.57	24188.56
846.74	24139.41
846.92	24182.42
847.09	24110.74
847.27	23770.77
847.45	23836.31
847.62	23840.40
847.80	24434.32
847.97	23815.83
848.15	23899.80
848.32	23846.55
848.50	24133.26
848.68	23326.36
848.85	23826.07
849.03	23541.40
849.20	23817.88
849.38	23778.97
849.56	23639.70
849.73	23557.78
849.91	23500.44
850.08	23664.28
850.26	23494.30
850.43	23748.25
850.61	23408.28
850.78	23162.53
850.96	23348.89
851.14	23445.15
851.31	23502.49
851.49	23090.85
851.66	23832.21
851.84	23025.31
852.01	23363.23
852.19	23379.61
852.36	23293.60
852.54	23338.65
852.71	22941.35
852.89	23019.17
853.07	22843.04
853.24	23019.17
853.42	22965.92
853.59	23019.17
853.77	22605.48
853.94	22804.13
854.12	23111.33
854.29	22855.33
854.47	22859.43
854.64	22750.88
854.82	22568.62
854.99	22847.14
855.17	22855.33
855.34	22703.78
855.52	22797.99
855.69	22787.75
855.87	22136.49
856.04	22156.97
856.22	22443.69
856.39	22435.50
856.57	22529.70
856.74	22294.19
856.92	22550.18
857.09	22273.71
857.27	22111.92
857.44	22630.05
857.62	22267.56
857.79	22247.08
857.97	22093.49
858.14	21970.61
858.32	22064.82
858.49	21954.22
858.67	22228.65
858.84	22165.17
859.02	21950.13
859.19	21911.22
859.37	21782.20
859.54	21759.67
859.72	21853.87
859.89	21833.39
860.06	22130.35
860.24	21626.55
860.41	21941.94
860.59	21538.49
860.76	22118.06
860.94	21604.02
861.11	21669.56
861.29	21890.74
861.46	21481.14
861.64	21479.10
861.81	21610.17
861.98	21589.69
862.16	21376.70
862.33	21311.16
862.51	21763.76
862.68	21337.79
862.86	21423.80
863.03	21446.33
863.21	21253.82
863.38	21100.22
863.55	21311.16
863.73	21110.46
863.90	21325.50
864.08	21302.97
864.25	21219.00
864.43	21311.16
864.60	21038.78
864.77	20901.57
864.95	20995.78
865.12	20649.67
865.30	21075.65
865.47	20944.58
865.64	21059.26
865.82	21057.21
865.99	21065.41
866.17	20565.70
866.34	20551.37
866.51	20381.38
866.69	20852.42
866.86	20639.43
867.04	20563.65
867.21	20807.36
867.38	20446.92
867.56	20285.13
867.73	20489.93
867.91	20178.64
868.08	20287.18
868.25	20307.66
868.43	20358.86
868.60	20391.62
868.78	20100.81
868.95	20369.10
869.12	20078.29
869.30	20066.00
869.47	20287.18
869.64	19795.67
869.82	20121.29
869.99	20070.09
870.16	19912.40
870.34	19928.78
870.51	20215.50
870.69	19537.62
870.86	19793.62
871.03	19885.78
871.21	19760.85
871.38	19656.40
871.55	19568.34
871.73	19515.09
871.90	19517.14
872.07	19406.55
872.25	19449.56
872.42	19648.21
872.59	19326.68
872.77	19148.51
872.94	19394.26
873.11	19158.75
873.29	19328.73
873.46	19017.44
873.63	18966.24
873.81	18851.55
873.98	18736.87
874.15	18773.73
874.33	19011.29
874.50	18869.98
874.67	19076.83
874.85	18982.62
875.02	18593.51
875.19	18783.97
875.37	18992.86
875.54	18792.16
875.71	18597.60
875.88	18804.45
876.06	18716.39
876.23	18398.95
876.40	18396.90
876.58	18310.89
876.75	18259.69
876.92	18372.33
877.10	18437.86
877.27	18247.40
877.44	18173.67
877.61	18128.62
877.79	18282.22
877.96	17962.73
878.13	18239.21
878.31	18145.00
878.48	18075.37
878.65	17940.21
878.82	17946.35
879.00	17927.92
879.17	17864.43
879.34	17784.56
879.51	17737.46
879.69	17592.05
879.86	17682.16
880.03	17647.35
880.21	17428.21
880.38	17497.84
880.55	17704.69
880.72	17487.61
880.90	17497.84
881.07	17276.66
881.24	17395.45
881.41	17493.75
881.59	17436.41
881.76	17379.06
881.93	17317.62
882.10	17436.41
882.28	17336.06
882.45	17469.17
882.62	17207.03
882.79	17125.11
882.96	16789.25
883.14	17022.72
883.31	17383.16
883.48	17114.87
883.65	17106.68
883.83	17211.13
884.00	17131.26
884.17	16830.21
884.34	17186.55
884.51	17139.45
884.69	17215.23
884.86	17055.48
885.03	16981.76
885.20	17022.72
885.38	16977.66
885.55	17071.87
885.72	16703.23
885.89	16842.50
886.06	16981.76
886.24	16996.09
886.41	16801.54
886.58	16699.14
886.75	16795.39
886.92	16606.98
887.10	16703.23
887.27	16502.53
887.44	16627.46
887.61	16877.31
887.78	16842.50
887.95	16518.92
888.13	16725.76
888.30	16459.52
888.47	16465.67
888.64	16467.72
888.81	16310.02
888.99	16211.72
889.16	15951.63
889.33	15980.30
889.50	15998.73
889.67	16060.17
889.84	16062.22
890.01	16217.86
890.19	16013.07
890.36	16172.81
890.53	16072.46
890.70	15818.51
890.87	15666.96
891.04	15988.49
891.22	15884.05
891.39	15699.73
891.56	16002.83
891.73	15648.53
891.90	15945.48
892.07	15648.53
892.24	15687.44
892.42	15601.43
892.59	15724.30
892.76	15640.34
892.93	15779.60
893.10	15642.39
893.27	15707.92
893.44	15503.12
893.61	15617.81
893.79	15525.65
893.96	15441.68
894.13	15517.46
894.30	15550.23
894.47	15421.20
894.64	15494.93
894.81	15431.44
894.98	15372.05
895.15	15515.41
895.33	15372.05
895.50	15263.51
895.67	15548.18
895.84	15546.13
896.01	15413.01
896.18	15394.58
896.35	15599.38
896.52	15380.25
896.69	15124.25
896.86	15206.17
897.04	15273.75
897.21	15296.28
897.38	15245.08
897.55	15275.80
897.72	15327.00
897.89	15181.59
898.06	15386.39
898.23	15316.76
898.40	15306.52
898.57	14962.46
898.74	15249.18
898.91	14931.74
899.08	15146.78
899.26	15073.05
899.43	15144.73
899.60	14980.89
899.77	15189.78
899.94	15005.47
900.11	15105.82
900.28	15134.49
900.45	15111.96
900.62	14913.31
900.79	15322.90
900.96	15109.91
901.13	15077.15
901.30	15103.77
901.47	15142.68
901.64	15124.25
901.81	15154.97
901.98	14933.79
902.15	15021.85
902.32	15048.47
902.49	15212.31
902.66	15363.86
902.83	15187.74
903.01	15085.34
903.18	14995.23
903.35	15157.02
903.52	15077.15
903.69	15218.46
903.86	15222.55
904.03	15101.72
904.20	15081.24
904.37	15257.37
904.54	15212.31
904.71	15140.63
904.88	15218.46
905.05	15066.91
905.22	15048.47
905.39	14841.63
905.56	15124.25
905.73	14810.91
905.90	14989.08
906.07	15068.95
906.24	15128.35
906.41	15017.75
906.58	14995.23
906.75	15103.77
906.92	14935.84
907.09	14941.98
907.26	14806.81
907.43	15062.81
907.60	14808.86
907.77	14925.60
907.93	14888.73
908.10	14933.79
908.27	14962.46
908.44	14976.80
908.61	14997.28
908.78	14864.16
908.95	15208.22
909.12	14929.69
909.29	14978.84
909.46	14878.49
909.63	15040.28
909.80	14769.95
909.97	14630.69
910.14	14724.90
910.31	14909.21
910.48	14794.53
910.65	14894.88
910.82	14911.26
910.99	14692.13
911.16	14794.53
911.33	14708.51
911.50	14737.18
911.66	14374.69
911.83	14698.27
912.00	14546.72
912.17	14399.27
912.34	14415.65
912.51	14477.09
912.68	14440.23
912.85	14327.59
913.02	14534.43
913.19	14464.80
913.36	14294.82
913.53	14466.85
913.70	14298.92
913.86	14516.00
914.03	14372.64
914.20	14493.47
914.37	14192.42
914.54	13969.19
914.71	14053.16
914.88	14069.55
915.05	13911.85
915.22	14145.32
915.39	14184.23
915.55	14022.44
915.72	13889.32
915.89	14018.35
916.06	13848.36
916.23	14020.39
916.40	13780.78
916.57	13721.39
916.74	13612.85
916.91	13778.73
917.07	13694.77
917.24	13733.68
917.41	13725.49
917.58	13711.15
917.75	13666.10
917.92	13506.35
918.09	13651.76
918.26	13348.66
918.42	13369.14
918.59	13643.57
918.76	13150.01
918.93	13244.21
919.10	13242.17
919.27	13332.28
919.44	13254.45
919.60	13377.33
919.77	13074.23
919.94	13311.80
920.11	13014.84
920.28	13217.59
920.45	13133.62
920.61	12955.45
920.78	12814.14
920.95	12808.00
921.12	12660.54
921.29	12687.17
921.46	12738.37
921.62	12496.71
921.79	12631.87
921.96	12613.44
922.13	12414.79
922.30	12543.81
922.47	12513.09
922.63	12582.72
922.80	12525.38
922.97	12191.56
923.14	12001.10
923.31	12248.90
923.47	12093.26
923.64	12412.74
923.81	12136.26
923.98	12011.34
924.15	11870.03
924.32	11904.84
924.48	12025.67
924.65	11843.40
924.82	11913.03
924.99	11900.75
925.15	11427.67
925.32	11753.29
925.49	11679.57
925.66	11702.09
925.83	11571.02
925.99	11618.13
926.16	11573.07
926.33	11585.36
926.50	11409.23
926.67	11614.03
926.83	11554.64
927.00	11482.96
927.17	11245.40
927.34	11155.29
927.50	11208.53
927.67	11300.69
927.84	11112.28
928.01	11079.51
928.17	10995.54
928.34	10938.20
928.51	11118.42
928.68	10940.25
928.84	10880.86
929.01	10772.32
929.18	10622.81
929.35	10755.93
929.51	10415.97
929.68	10538.85
929.85	10456.93
930.02	10643.29
930.18	10389.35
930.35	10631.01
930.52	10518.37
930.69	10522.46
930.85	10266.47
931.02	10202.98
931.19	10198.88
931.36	9985.90
931.52	10172.26
931.69	10170.21
931.86	10151.78
932.02	10092.39
932.19	10018.66
932.36	9871.21
932.53	9992.04
932.69	9932.65
932.86	9924.46
933.03	9793.39
933.19	9389.94
933.36	9758.57
933.53	9734.00
933.70	9566.06
933.86	9473.90
934.03	9512.81
934.20	9355.12
934.36	9525.10
934.53	9275.25
934.70	9082.74
934.86	9281.39
935.03	9090.93
935.20	8941.43
935.36	9090.93
935.53	8941.43
935.70	8884.09
935.86	8810.36
936.03	8740.73
936.20	8593.28
936.36	8550.27
936.53	8519.55
936.70	8363.90
936.86	8333.18
937.03	8300.42
937.20	8052.61
937.36	8163.20
937.53	7823.24
937.70	7841.67
937.86	7905.16
938.03	7839.62
938.20	7989.13
938.36	7575.44
938.53	7563.15
938.70	7301.01
938.86	7489.42
939.03	7362.45
939.20	7331.73
939.36	7239.57
939.53	7053.20
939.70	7305.10
939.86	6979.48
940.03	6805.40
940.19	6875.03
940.36	6805.40
940.53	6883.22
940.69	6659.99
940.86	6623.13
941.03	6553.50
941.19	6371.23
941.36	6375.33
941.52	6424.48
941.69	6164.39
941.86	6205.35
942.02	6164.39
942.19	6131.62
942.35	6129.57
942.52	6080.42
942.69	5828.52
942.85	5914.53
943.02	5801.90
943.18	5746.60
943.35	5941.16
943.52	5660.59
943.68	5748.65
943.85	5762.98
944.01	5730.22
944.18	5633.96
944.35	5650.35
944.51	5629.87
944.68	5506.99
944.84	5527.47
945.01	5390.25
945.17	5519.28
945.34	5351.34
945.51	5443.50
945.67	5300.14
945.84	5351.34
946.00	5267.38
946.17	5261.23
946.33	5205.94
946.50	5248.94
946.67	5236.66
946.83	5337.01
947.00	5318.57
947.16	5365.68
947.33	5263.28
947.49	5414.83
947.66	5281.71
947.82	5326.77
947.99	5150.64
948.16	5394.35
948.32	5265.33
948.49	5308.34
948.65	5255.09
948.82	5443.50
948.98	5326.77
949.15	5232.56
949.31	5259.18
949.48	5261.23
949.64	5093.30
949.81	5314.48
949.97	5210.03
950.14	5320.62
950.30	5212.08
950.47	5500.84
950.63	5367.73
950.80	5195.70
950.96	5388.21
951.13	5246.90
951.30	5210.03
951.46	5547.95
951.63	5427.12
951.79	5341.10
951.96	5330.86
952.12	5349.29
952.29	5400.49
952.45	5384.11
952.62	5371.82
952.78	5525.42
952.94	5265.33
953.11	5214.13
953.27	5117.87
953.44	5509.04
953.60	5453.74
953.77	5435.31
953.93	5406.64
954.10	5408.69
954.26	5345.20
954.43	5332.91
954.59	5513.13
954.76	5513.13
954.92	5318.57
955.09	5523.37
955.25	5343.15
955.42	5523.37
955.58	5615.53
955.75	5529.52
955.91	5523.37
956.07	5566.38
956.24	5560.24
956.40	5517.23
956.57	5558.19
956.73	5244.85
956.90	5676.97
957.06	5463.98
957.23	5529.52
957.39	5439.40
957.56	5478.32
957.72	5459.88
957.88	5439.40
958.05	5638.06
958.21	5607.34
958.38	5273.52
958.54	5533.61
958.71	5468.08
958.87	5345.20
959.03	5513.13
959.20	5527.47
959.36	5441.45
959.53	5543.85
959.69	5482.41
959.85	5447.60
960.02	5355.44
960.18	5433.26
960.35	5463.98
960.51	5502.89
960.68	5441.45
960.84	5429.17
961.00	5412.78
961.17	5504.94
961.33	5398.45
961.50	5494.70
961.66	5504.94
961.82	5482.41
961.99	5414.83
962.15	5375.92
962.31	5441.45
962.48	5386.16
962.64	5566.38
962.81	5255.09
962.97	5517.23
963.13	5310.38
963.30	5521.32
963.46	5361.58
963.62	5463.98
963.79	5423.02
963.95	5345.20
964.12	5322.67
964.28	5349.29
964.44	5230.51
964.61	5441.45
964.77	5347.25
964.93	5443.50
965.10	5300.14
965.26	5447.60
965.42	5408.69
965.59	5412.78
965.75	5300.14
965.92	5326.77
966.08	5433.26
966.24	5287.86
966.41	5224.37
966.57	5449.64
966.73	5347.25
966.90	5353.39
967.06	5193.65
967.22	5263.28
967.39	5308.34
967.55	5195.70
967.71	5199.79
967.88	5173.17
968.04	5250.99
968.20	5091.25
968.37	5224.37
968.53	5203.89
968.69	5361.58
968.85	5326.77
969.02	5183.41
969.18	5310.38
969.34	5236.66
969.51	5017.52
969.67	5291.95
969.83	5132.21
970.00	5238.70
970.16	5072.82
970.32	5038.00
970.48	5197.74
970.65	5115.83
970.81	5126.07
970.97	4923.32
971.14	5070.77
971.30	5097.39
971.46	5003.19
971.63	5066.67
971.79	5187.50
971.95	4980.66
972.11	4976.56
972.28	5017.52
972.44	4972.47
972.60	4921.27
972.76	5175.22
972.93	4841.40
973.09	5095.35
973.25	4984.76
973.42	4945.84
973.58	4886.45
973.74	4902.84
973.90	4999.09
974.07	4898.74
974.23	5025.72
974.39	4958.13
974.55	4900.79
974.72	4796.34
974.88	4710.33
975.04	4847.54
975.20	4822.97
975.37	4796.34
975.53	4708.28
975.69	4861.88
975.85	4759.48
976.01	4757.43
976.18	4829.11
976.34	4857.78
976.50	4769.72
976.66	4855.73
976.83	4818.87
976.99	4804.53
977.15	4673.46
977.31	4605.88
977.47	4798.39
977.64	4642.75
977.80	4589.50
977.96	4601.79
978.12	4691.90
978.29	4655.03
978.45	4532.15
978.61	4542.39
978.77	4747.19
978.93	4556.73
979.10	4589.50
979.26	4571.07
979.42	4538.30
979.58	4591.55
979.74	4497.34
979.91	4532.15
980.07	4460.48
980.23	4468.67
980.39	4349.89
980.55	4415.42
980.71	4411.32
980.88	4333.50
981.04	4325.31
981.20	4468.67
981.36	4468.67
981.52	4308.93
981.68	4450.24
981.85	4444.09
982.01	4433.85
982.17	4351.93
982.33	4290.49
982.49	4386.75
982.65	4353.98
982.82	4280.25
982.98	4298.69
983.14	4173.76
983.30	4413.37
983.46	4243.39
983.62	4235.20
983.79	4276.16
983.95	4282.30
984.11	4280.25
984.27	4243.39
984.43	4304.83
984.59	4175.81
984.75	4143.04
984.91	4353.98
985.08	4288.45
985.24	4067.27
985.40	4079.55
985.56	4153.28
985.72	4280.25
985.88	4235.20
986.04	4114.37
986.20	4112.32
986.37	4100.03
986.53	4069.31
986.69	4110.27
986.85	4140.99
987.01	4024.26
987.17	4106.18
987.33	3948.48
987.49	3983.30
987.65	4001.73
987.82	3989.44
987.98	3932.10
988.14	3913.67
988.30	4083.65
988.46	4016.07
988.62	4028.35
988.78	3983.30
988.94	3944.39
989.10	3905.48
989.26	3913.67
989.42	3958.72
989.59	3786.69
989.75	3958.72
989.91	3928.00
990.07	3751.88
990.23	3827.65
990.39	3823.56
990.55	3921.86
990.71	3755.97
990.87	3841.99
991.03	3919.81
991.19	3819.46
991.35	3903.43
991.51	3753.93
991.67	3901.38
991.83	3743.69
992.00	3858.37
992.16	3852.23
992.32	3753.93
992.48	3801.03
992.64	3649.48
992.80	3669.96
992.96	3747.78
993.12	3669.96
993.28	3807.17
993.44	3739.59
993.60	3680.20
993.76	3655.62
993.92	3635.14
994.08	3702.73
994.24	3583.95
994.40	3655.62
994.56	3747.78
994.72	3583.95
994.88	3567.56
995.04	3542.99
995.20	3583.95
995.36	3567.56
995.52	3538.89
995.68	3489.74
995.84	3524.55
996.00	3563.47
996.16	3549.13
996.32	3409.87
996.48	3524.55
996.64	3633.10
996.80	3557.32
996.96	3502.03
997.12	3477.45
997.28	3385.29
997.44	3370.96
997.60	3430.35
997.76	3338.19
997.92	3444.68
998.08	3573.71
998.24	3364.81
998.40	3344.33
998.56	3438.54
998.72	3217.36
998.88	3330.00
999.04	3350.48
999.20	3432.40
999.36	3327.95
999.52	3338.19
999.68	3282.89
999.84	3442.64
1000.00	3276.75
1000.16	3348.43
1000.32	3270.61
1000.48	3254.22
1000.64	3252.17
1000.80	3149.78
1000.95	3256.27
1001.11	3346.38
1001.27	3260.37
1001.43	3233.74
1001.59	3055.57
1001.75	3117.01
1001.91	3104.72
1002.07	3149.78
1002.23	3114.96
1002.39	3131.34
1002.55	3149.78
1002.71	3020.75
1002.87	3119.06
1003.03	3043.28
1003.19	3039.19
1003.34	3223.50
1003.50	3170.26
1003.66	3250.13
1003.82	3139.54
1003.98	3176.40
1004.14	3117.01
1004.30	3069.91
1004.46	3039.19
1004.62	3143.63
1004.78	2994.13
1004.94	2959.31
1005.09	3104.72
1005.25	3049.43
1005.41	2971.60
1005.57	2961.36
1005.73	3028.95
1005.89	2961.36
1006.05	3069.91
1006.21	3069.91
1006.37	2957.27
1006.52	2951.12
1006.68	2879.44
1006.84	2981.84
1007.00	2942.93
1007.16	2973.65
1007.32	2985.94
1007.48	2932.69
1007.64	2887.64
1007.79	2934.74
1007.95	2883.54
1008.11	2957.27
1008.27	2936.79
1008.43	2951.12
1008.59	2940.88
1008.75	2824.15
1008.91	2871.25
1009.06	2787.29
1009.22	2783.19
1009.38	2846.68
1009.54	2891.73
1009.70	2803.67
1009.86	2822.10
1010.01	2813.91
1010.17	2781.14
1010.33	2877.40
1010.49	2777.05
1010.65	2828.24
1010.81	2688.98
1010.96	2734.04
1011.12	2691.03
1011.28	2650.07
1011.44	2801.62
1011.60	2734.04
1011.76	2625.50
1011.91	2861.01
1012.07	2752.47
1012.23	2637.78
1012.39	2652.12
1012.55	2711.51
1012.71	2652.12
1012.86	2637.78
1013.02	2594.78
1013.18	2660.31
1013.34	2637.78
1013.50	2660.31
1013.65	2672.60
1013.81	2592.73
1013.97	2543.58
1014.13	2605.02
1014.29	2576.34
1014.44	2678.74
1014.60	2654.17
1014.76	2648.02
1014.92	2641.88
1015.07	2594.78
1015.23	2656.22
1015.39	2516.95
1015.55	2576.34
1015.71	2547.67
1015.86	2484.19
1016.02	2514.91
1016.18	2615.26
1016.34	2602.97
1016.49	2535.39
1016.65	2658.26
1016.81	2582.49
1016.97	2451.42
1017.12	2574.30
1017.28	2469.85
1017.44	2416.60
1017.60	2486.23
1017.75	2439.13
1017.91	2613.21
1018.07	2473.95
1018.23	2492.38
1018.38	2443.23
1018.54	2473.95
1018.70	2527.19
1018.86	2432.99
1019.01	2439.13
1019.17	2439.13
1019.33	2529.24
1019.49	2523.10
1019.64	2445.27
1019.80	2484.19
1019.96	2377.69
1020.12	2437.08
1020.27	2267.10
1020.43	2447.32
1020.59	2461.66
1020.74	2387.93
1020.90	2430.94
1021.06	2293.72
1021.22	2465.75
1021.37	2365.40
1021.53	2277.34
1021.69	2353.12
1021.84	2338.78
1022.00	2342.88
1022.16	2346.97
1022.31	2281.44
1022.47	2361.31
1022.63	2340.83
1022.79	2189.28
1022.94	2215.90
1023.10	2435.03
1023.26	2254.81
1023.41	2269.15
1023.57	2224.09
1023.73	2340.83
1023.88	2248.67
1024.04	2265.05
1024.20	2201.57
1024.35	2228.19
1024.51	2301.92
1024.67	2246.62
1024.82	2357.21
1024.98	2189.28
1025.14	2334.68
1025.29	2199.52
1025.45	2371.55
1025.61	2150.37
1025.76	2228.19
1025.92	2170.85
1026.08	2222.05
1026.23	2199.52
1026.39	2209.76
1026.55	2181.09
1026.70	2185.18
1026.86	2240.48
1027.02	2183.13
1027.17	2172.89
1027.33	2187.23
1027.48	2172.89
1027.64	2146.27
1027.80	2215.90
1027.95	2183.13
1028.11	2007.01
1028.27	2322.40
1028.42	2103.26
1028.58	2119.65
1028.73	2099.17
1028.89	2064.35
1029.05	2209.76
1029.20	2166.75
>>>>>End Processed Spectral Data<<<<<
