SpectraSuite Data File
++++++++++++++++++++++++++++++++++++
Date: Fri Jun 02 14:47:55 CEST 2017
User: INFO_000
Dark Spectrum Present: No
Reference Spectrum Present: No
Number of Sampled Component Spectra: 1
Spectrometers: USB4H00879
Integration Time (usec): 80000 (USB4H00879)
Spectra Averaged: 1 (USB4H00879)
Boxcar Smoothing: 0 (USB4H00879)
Correct for Electrical Dark: No (USB4H00879)
Strobe/Lamp Enabled: No (USB4H00879)
Correct for Detector Non-linearity: No (USB4H00879)
Correct for Stray Light: No (USB4H00879)
Number of Pixels in Processed Spectrum: 3648
>>>>>Begin Processed Spectral Data<<<<<
345.13	1247.21
345.34	1247.21
345.56	1247.21
345.78	1257.45
345.99	1316.84
346.21	1691.62
346.42	1675.24
346.64	1630.18
346.86	1789.92
347.07	1695.72
347.29	1630.18
347.50	1720.29
347.72	1658.85
347.94	1742.82
348.15	1650.66
348.37	1544.17
348.59	1744.87
348.80	1636.33
349.02	1873.89
349.23	1806.31
349.45	1798.12
349.67	1920.99
349.88	1839.08
350.10	1951.71
350.31	1896.42
350.53	1751.01
350.75	2002.91
350.96	1765.35
351.18	1904.61
351.39	1796.07
351.61	1789.92
351.82	1863.65
352.04	1888.23
352.26	1863.65
352.47	1802.21
352.69	1884.13
352.90	1742.82
353.12	1896.42
353.34	1826.79
353.55	1968.10
353.77	1880.04
353.98	1861.60
354.20	1800.16
354.41	2007.01
354.63	1986.53
354.85	2101.22
355.06	1910.75
355.28	1789.92
355.49	1867.75
355.71	1943.52
355.92	1837.03
356.14	1888.23
356.35	1902.56
356.57	1888.23
356.79	1886.18
357.00	1886.18
357.22	1964.00
357.43	1869.80
357.65	1970.15
357.86	1869.80
358.08	1925.09
358.29	1980.39
358.51	2009.06
358.72	1908.71
358.94	1959.91
359.16	1947.62
359.37	1957.86
359.59	1941.47
359.80	2052.06
360.02	1964.00
360.23	1857.51
360.45	2023.39
360.66	1953.76
360.88	1925.09
361.09	1920.99
361.31	1953.76
361.52	1980.39
361.74	2043.87
361.95	1992.67
362.17	1959.91
362.38	2058.21
362.60	2025.44
362.81	1964.00
363.03	1929.19
363.24	2011.11
363.46	2041.82
363.67	1961.95
363.89	2025.44
364.10	1925.09
364.32	1918.95
364.53	2007.01
364.75	1894.37
364.96	2086.88
365.18	1972.19
365.39	1923.04
365.61	1951.71
365.82	2062.30
366.04	2015.20
366.25	1902.56
366.47	2004.96
366.68	2084.83
366.90	2015.20
367.11	2076.64
367.33	2150.37
367.54	2082.78
367.76	2058.21
367.97	2117.60
368.19	2013.15
368.40	2062.30
368.62	1937.38
368.83	2004.96
369.05	2078.69
369.26	2017.25
369.48	1961.95
369.69	2007.01
369.91	2039.78
370.12	2013.15
370.33	2164.70
370.55	1927.14
370.76	2095.07
370.98	2072.54
371.19	2101.22
371.41	1994.72
371.62	2060.26
371.84	1949.67
372.05	2166.75
372.27	1964.00
372.48	2160.61
372.69	2148.32
372.91	2105.31
373.12	2142.18
373.34	2109.41
373.55	2117.60
373.77	2117.60
373.98	2058.21
374.20	2107.36
374.41	2291.68
374.62	2111.46
374.84	2123.74
375.05	2222.05
375.27	2131.94
375.48	2164.70
375.70	2058.21
375.91	2236.38
376.12	2326.49
376.34	2123.74
376.55	2146.27
376.77	2189.28
376.98	2148.32
377.19	2154.46
377.41	2107.36
377.62	2189.28
377.84	2244.57
378.05	2230.24
378.27	2113.50
378.48	2297.82
378.69	2342.88
378.91	2349.02
379.12	2213.85
379.34	2211.81
379.55	2289.63
379.76	2246.62
379.98	2127.84
380.19	2222.05
380.41	2246.62
380.62	2328.54
380.83	2158.56
381.05	2265.05
381.26	2398.17
381.47	2222.05
381.69	2185.18
381.90	2383.84
382.12	2377.69
382.33	2228.19
382.54	2373.60
382.76	2344.92
382.97	2269.15
383.19	2226.14
383.40	2289.63
383.61	2363.36
383.83	2263.01
384.04	2252.77
384.25	2379.74
384.47	2459.61
384.68	2334.68
384.89	2250.72
385.11	2322.40
385.32	2424.80
385.54	2400.22
385.75	2342.88
385.96	2445.27
386.18	2449.37
386.39	2418.65
386.60	2338.78
386.82	2326.49
387.03	2406.36
387.24	2535.39
387.46	2416.60
387.67	2492.38
387.88	2457.56
388.10	2357.21
388.31	2469.85
388.52	2631.64
388.74	2467.80
388.95	2494.43
389.16	2504.67
389.38	2537.43
389.59	2570.20
389.80	2664.41
390.02	2535.39
390.23	2541.53
390.44	2519.00
390.66	2576.34
390.87	2500.57
391.08	2566.10
391.30	2662.36
391.51	2652.12
391.72	2598.87
391.94	2645.98
392.15	2650.07
392.36	2596.82
392.58	2555.86
392.79	2758.61
393.00	2688.98
393.22	2654.17
393.43	2789.33
393.64	2813.91
393.85	2811.86
394.07	2457.56
394.28	2725.85
394.49	2764.76
394.71	2729.94
394.92	2834.39
395.13	2631.64
395.35	2709.46
395.56	2680.79
395.77	2834.39
395.98	2729.94
396.20	2801.62
396.41	2744.28
396.62	2801.62
396.84	2768.85
397.05	2861.01
397.26	2846.68
397.47	2906.07
397.69	2865.11
397.90	2985.94
398.11	2926.55
398.32	2994.13
398.54	2883.54
398.75	2887.64
398.96	2940.88
399.18	3102.67
399.39	2973.65
399.60	3096.53
399.81	2965.46
400.03	2938.84
400.24	3289.04
400.45	2906.07
400.66	3149.78
400.88	3033.04
401.09	3248.08
401.30	3065.81
401.51	3246.03
401.73	3090.38
401.94	3078.10
402.15	3125.20
402.36	3135.44
402.58	3246.03
402.79	3190.74
403.00	3153.87
403.21	3227.60
403.43	3178.45
403.64	3182.54
403.85	3157.97
404.06	3094.48
404.27	3149.78
404.49	3203.02
404.70	3100.62
404.91	3307.47
405.12	3264.46
405.34	3198.93
405.55	3426.25
405.76	3108.82
405.97	3266.51
406.19	3393.48
406.40	3237.84
406.61	3237.84
406.82	3270.61
407.03	3379.15
407.25	3256.27
407.46	3442.64
407.67	3330.00
407.88	3612.62
408.09	3344.33
408.31	3305.42
408.52	3432.40
408.73	3336.14
408.94	3395.53
409.15	3444.68
409.37	3579.85
409.58	3499.98
409.79	3545.03
410.00	3538.89
410.21	3426.25
410.43	3450.83
410.64	3354.57
410.85	3579.85
411.06	3657.67
411.27	3608.52
411.48	3600.33
411.70	3504.07
411.91	3641.29
412.12	3727.30
412.33	3608.52
412.54	3622.86
412.76	3600.33
412.97	3680.20
413.18	3493.83
413.39	3659.72
413.60	3680.20
413.81	3741.64
414.03	3641.29
414.24	3559.37
414.45	3897.28
414.66	3520.46
414.87	3694.54
415.08	3678.15
415.30	3520.46
415.51	3776.45
415.72	3661.77
415.93	3774.41
416.14	3751.88
416.35	3766.21
416.56	3745.73
416.78	3758.02
416.99	3870.66
417.20	3770.31
417.41	3983.30
417.62	3819.46
417.83	3923.91
418.04	3762.12
418.26	3821.51
418.47	3981.25
418.68	4100.03
418.89	3901.38
419.10	4028.35
419.31	3928.00
419.52	3921.86
419.73	4050.88
419.95	3999.68
420.16	3940.29
420.37	3954.63
420.58	4046.79
420.79	3862.47
421.00	4038.59
421.21	4087.75
421.42	3966.92
421.63	4177.86
421.85	3999.68
422.06	4085.70
422.27	4124.61
422.48	4081.60
422.69	4153.28
422.90	4196.29
423.11	4229.06
423.32	4163.52
423.53	4294.59
423.75	4218.82
423.96	4499.39
424.17	4356.03
424.38	4462.52
424.59	4356.03
424.80	4526.01
425.01	4368.32
425.22	4476.86
425.43	4435.90
425.64	4554.68
425.85	4485.05
426.06	4556.73
426.28	4485.05
426.49	4550.59
426.70	4446.14
426.91	4407.23
427.12	4677.56
427.33	4693.94
427.54	4616.12
427.75	4736.95
427.96	4767.67
428.17	4794.29
428.38	4753.34
428.59	4732.86
428.80	4691.90
429.01	5001.14
429.23	4777.91
429.44	4986.80
429.65	4892.60
429.86	4939.70
430.07	4736.95
430.28	4968.37
430.49	4896.69
430.70	5177.26
430.91	5228.46
431.12	5038.00
431.33	5150.64
431.54	5240.75
431.75	5177.26
431.96	5136.31
432.17	5089.20
432.38	5115.83
432.59	5341.10
432.80	5285.81
433.01	5390.25
433.22	5242.80
433.43	5324.72
433.64	5283.76
433.85	5136.31
434.06	5318.57
434.27	5306.29
434.49	5330.86
434.70	5504.94
434.91	5506.99
435.12	5511.08
435.33	5332.91
435.54	5390.25
435.75	5418.93
435.96	5576.62
436.17	5468.08
436.38	5707.69
436.59	5660.59
436.80	5484.46
437.01	5752.74
437.22	5789.61
437.43	5736.36
437.64	5613.48
437.85	5869.48
438.06	5797.80
438.27	5672.87
438.48	5742.50
438.69	6014.88
438.90	5869.48
439.11	5681.07
439.32	5922.73
439.53	5963.68
439.74	5758.89
439.95	5994.40
440.16	5812.14
440.37	5828.52
440.57	5834.66
440.78	5949.35
440.99	5846.95
441.20	5953.45
441.41	5935.01
441.62	5947.30
441.83	5877.67
442.04	6025.12
442.25	6057.89
442.46	5928.87
442.67	6225.82
442.88	6440.86
443.09	6158.24
443.30	6074.28
443.51	6088.61
443.72	6381.47
443.93	6193.06
444.14	6416.29
444.35	5949.35
444.56	6277.02
444.77	6311.84
444.98	6180.77
445.19	6379.42
445.40	6320.03
445.61	6309.79
445.81	6494.11
446.02	6508.44
446.23	6391.71
446.44	6354.85
446.65	6610.84
446.86	6600.60
447.07	6494.11
447.28	6803.35
447.49	6637.47
447.70	6379.42
447.91	6530.97
448.12	6635.42
448.33	6612.89
448.54	6672.28
448.74	6705.05
448.95	6762.39
449.16	6705.05
449.37	6844.31
449.58	6678.43
449.79	6817.69
450.00	6872.98
450.21	6868.89
450.42	6950.81
450.63	6809.50
450.84	6784.92
451.05	6805.40
451.25	6926.23
451.46	6897.56
451.67	7112.60
451.88	7049.11
452.09	6999.96
452.30	6997.91
452.51	7083.92
452.72	7114.64
452.93	7456.65
453.13	7110.55
453.34	6973.33
453.55	7270.29
453.76	7202.71
453.97	7507.85
454.18	7253.91
454.39	7419.79
454.60	7393.17
454.81	7403.41
455.01	7538.57
455.22	7188.37
455.43	7608.20
455.64	7819.14
455.85	7638.92
456.06	7767.95
456.27	7784.33
456.48	7692.17
456.68	7823.24
456.89	7853.96
457.10	7993.22
457.31	7823.24
457.52	7780.23
457.73	7950.21
457.94	8097.67
458.14	7997.32
458.35	8294.27
458.56	8069.00
458.77	8071.04
458.98	8093.57
459.19	8165.25
459.39	8337.28
459.60	8279.94
459.81	8537.98
460.02	8433.54
460.23	8497.02
460.44	8607.61
460.65	8789.88
460.85	8648.57
461.06	8710.01
461.27	8355.71
461.48	8810.36
461.69	8970.10
461.89	8609.66
462.10	8863.61
462.31	8691.58
462.52	8933.24
462.73	8892.28
462.94	8974.20
463.14	9072.50
463.35	8976.25
463.56	9609.07
463.77	9424.75
463.98	9258.87
464.18	9303.92
464.39	9484.14
464.60	9645.93
464.81	9832.30
465.02	9619.31
465.23	9635.69
465.43	9707.37
465.64	10090.34
465.85	9717.61
466.06	9559.92
466.27	10080.10
466.47	9981.80
466.68	9979.75
466.89	9854.83
467.10	10278.76
467.30	10086.25
467.51	10209.12
467.72	10424.16
467.93	10293.09
468.14	10368.87
468.34	10454.88
468.55	10512.22
468.76	10559.33
468.97	10336.10
469.17	10626.91
469.38	10954.58
469.59	10970.97
469.80	10616.67
470.01	10911.58
470.21	11028.31
470.42	11126.61
470.63	11304.79
470.84	11132.76
471.04	11419.47
471.25	11421.52
471.46	11470.67
471.67	11642.70
471.87	11663.18
472.08	11593.55
472.29	11761.48
472.50	11456.34
472.70	11761.48
472.91	11654.99
473.12	12017.48
473.33	11947.85
473.53	12109.64
473.74	11984.71
473.95	12281.67
474.16	12345.16
474.36	12298.05
474.57	12640.06
474.78	12717.89
474.99	12476.23
475.19	12492.61
475.40	12750.65
475.61	13059.90
475.81	12996.41
476.02	13393.72
476.23	12992.31
476.44	13162.30
476.64	13240.12
476.85	13582.13
477.06	13365.04
477.27	13727.53
477.47	13631.28
477.68	13879.08
477.89	14053.16
478.09	13750.06
478.30	13981.48
478.51	13973.29
478.71	14374.69
478.92	14190.38
479.13	14317.35
479.34	14438.18
479.54	14565.15
479.75	14528.29
479.96	14581.54
480.16	14659.36
480.37	14702.37
480.58	14925.60
480.78	15087.39
480.99	15019.80
481.20	15390.49
481.41	15197.98
481.61	15421.20
481.82	15781.65
482.03	15310.61
482.23	15593.23
482.44	15648.53
482.65	15814.41
482.85	15826.70
483.06	16047.88
483.27	15912.72
483.47	15996.68
483.68	16174.86
483.89	16310.02
484.09	16328.45
484.30	16465.67
484.51	16588.55
484.71	16633.60
484.92	16570.12
485.13	16721.66
485.33	16856.83
485.54	16770.82
485.75	17155.83
485.95	17149.69
486.16	17288.95
486.37	17297.14
486.57	17252.09
486.78	17243.90
486.98	17391.35
487.19	17647.35
487.40	17862.38
487.60	17477.37
487.81	18099.95
488.02	17837.81
488.22	18009.84
488.43	18308.84
488.64	18312.94
488.84	18437.86
489.05	18329.32
489.25	18390.76
489.46	18593.51
489.67	18548.45
489.87	18953.95
490.08	18808.54
490.29	18775.78
490.49	19080.92
490.70	19160.80
490.90	19207.90
491.11	19023.58
491.32	19343.06
491.52	19533.53
491.73	19359.45
491.94	19586.77
492.14	19494.61
492.35	19730.13
492.55	19859.15
492.76	19891.92
492.97	20111.05
493.17	20158.16
493.38	20178.64
493.58	20657.86
493.79	20483.78
494.00	20514.50
494.20	20596.42
494.41	20549.32
494.61	20727.49
494.82	20879.04
495.02	20674.24
495.23	20780.74
495.44	20973.25
495.64	21290.68
495.85	21163.71
496.05	21546.68
496.26	21251.77
496.47	21456.57
496.67	21409.47
496.88	21571.25
497.08	21704.37
497.29	22009.52
497.49	22101.68
497.70	22116.01
497.91	22218.41
498.11	22359.72
498.32	22124.21
498.52	22460.07
498.73	22634.15
498.93	22603.43
499.14	22716.07
499.34	22638.25
499.55	22902.43
499.76	23142.05
499.96	22912.67
500.17	22875.81
500.37	22826.66
500.58	23254.69
500.78	23015.07
500.99	23461.53
501.19	23543.45
501.40	23328.41
501.60	23602.84
501.81	23555.74
502.02	23858.84
502.22	24041.11
502.43	23807.64
502.63	24141.46
502.84	24217.23
503.04	24114.83
503.25	23975.57
503.45	24069.78
503.66	24157.84
503.86	24475.27
504.07	24733.32
504.27	24731.27
504.48	24749.70
504.68	24942.21
504.89	25007.75
505.09	24972.93
505.30	24725.13
505.50	25099.90
505.71	24901.25
505.91	25421.44
506.12	25349.76
506.32	25349.76
506.53	25642.62
506.73	25448.06
506.94	25331.33
507.14	25499.26
507.35	25405.05
507.55	25757.30
507.76	25841.27
507.96	25321.09
508.17	26050.16
508.37	25785.97
508.58	26015.35
508.78	26185.33
508.99	26316.40
509.19	26656.36
509.40	26195.57
509.60	26627.69
509.81	26396.27
510.01	26336.88
510.22	26465.90
510.42	26494.57
510.63	26697.32
510.83	26928.74
511.04	26431.08
511.24	26877.54
511.44	27057.76
511.65	26781.29
511.85	26793.58
512.06	26900.07
512.26	27137.63
512.47	27211.36
512.67	26852.97
512.88	26981.99
513.08	26928.74
513.29	27356.77
513.49	27319.90
513.69	27211.36
513.90	27373.15
514.10	27625.05
514.31	27465.31
514.51	27715.16
514.72	27792.98
514.92	27403.87
515.13	27524.70
515.33	27860.57
515.53	27686.49
515.74	28218.96
515.94	27690.59
516.15	28194.39
516.35	27852.38
516.56	28284.50
516.76	27965.01
516.96	27795.03
517.17	28313.17
517.37	28352.08
517.58	28128.85
517.78	28368.46
517.99	28413.52
518.19	28286.54
518.39	28812.87
518.60	29066.82
518.80	28388.94
519.01	28790.34
519.21	28911.17
519.41	28745.29
519.62	28819.02
519.82	29163.08
520.03	29214.27
520.23	29009.48
520.43	28999.24
520.64	29124.16
520.84	29331.01
521.05	29331.01
521.25	29431.36
521.45	29613.63
521.66	29720.12
521.86	29402.69
522.07	29513.28
522.27	29746.75
522.47	29666.88
522.68	29972.02
522.88	29890.10
523.08	30326.32
523.29	29953.59
523.49	29914.68
523.70	30234.16
523.90	30438.96
524.10	30072.37
524.31	30406.19
524.51	30015.03
524.71	30664.24
524.92	30246.45
525.12	30500.40
525.33	30690.86
525.53	30807.59
525.73	31041.06
525.94	31122.98
526.14	30660.14
526.34	31063.59
526.55	30987.82
526.75	30864.94
526.95	31333.92
527.16	31092.26
527.36	31239.72
527.56	31391.26
527.77	31776.28
527.97	31804.95
528.17	31684.12
528.38	31565.34
528.58	31942.17
528.78	31786.52
528.99	31809.05
529.19	32183.83
529.39	32013.85
529.60	32347.67
529.80	32038.42
530.00	32249.36
530.21	32314.90
530.41	32202.26
530.61	32611.85
530.82	32841.23
531.02	32462.35
531.22	32953.87
531.43	32671.25
531.63	32996.87
531.83	33252.87
532.04	33551.87
532.24	32701.96
532.44	33295.88
532.64	33252.87
532.85	33629.69
533.05	33687.04
533.25	33478.15
533.46	33412.61
533.66	33797.63
533.86	33867.26
534.07	34448.88
534.27	34055.67
534.47	34440.69
534.67	34629.10
534.88	34151.93
535.08	34559.47
535.28	34452.98
535.49	34670.06
535.69	34823.66
535.89	34571.76
536.09	34899.44
536.30	35304.93
536.50	35190.25
536.70	35431.91
536.91	34985.45
537.11	35462.63
537.31	35390.95
537.51	35374.56
537.72	35925.47
537.92	35540.45
538.12	36038.11
538.32	35384.80
538.53	36343.25
538.73	35945.95
538.93	36306.39
539.13	35982.81
539.34	36074.97
539.54	36109.78
539.74	36857.29
539.94	36595.15
540.15	36459.99
540.35	36902.35
540.55	36640.21
540.75	36961.74
540.96	36888.01
541.16	36924.88
541.36	37195.21
541.56	37227.98
541.77	37129.67
541.97	36933.07
542.17	37500.36
542.37	37463.49
542.58	37699.01
542.78	37539.27
542.98	37500.36
543.18	37909.95
543.38	37940.67
543.59	38098.36
543.79	37864.89
543.99	38272.44
544.19	38454.71
544.40	38122.94
544.60	38446.52
544.80	38186.43
545.00	38385.08
545.20	38712.75
545.41	38567.35
545.61	38571.44
545.81	39177.64
546.01	39097.77
546.21	38876.59
546.42	39083.44
546.62	39247.27
546.82	39165.35
547.02	39171.50
547.22	39572.90
547.43	39122.35
547.63	39677.35
547.83	39859.62
548.03	39241.13
548.23	39908.77
548.44	40039.84
548.64	39880.10
548.84	39964.06
549.04	40234.39
549.24	40387.99
549.45	40334.74
549.65	40355.22
549.85	40113.56
550.05	40465.81
550.25	40261.02
550.45	40721.81
550.66	40629.65
550.86	40768.91
551.06	40914.32
551.26	40803.73
551.46	41198.99
551.66	40631.70
551.87	40770.96
552.07	41102.73
552.27	41237.90
552.47	41289.10
552.67	42032.51
552.87	41362.82
553.07	41233.80
553.28	41768.32
553.48	41751.94
553.68	41618.82
553.88	41833.86
554.08	41737.60
554.28	42032.51
554.48	41500.04
554.69	41629.06
554.89	41880.96
555.09	42323.32
555.29	41821.57
555.49	41885.06
555.69	42327.42
555.89	42431.86
556.10	42485.11
556.30	42354.04
556.50	42218.88
556.70	42182.01
556.90	42245.50
557.10	42802.55
557.30	42016.13
557.50	42730.87
557.70	42763.64
557.91	43261.29
558.11	42612.09
558.31	43011.44
558.51	42780.02
558.71	42947.95
558.91	43298.16
559.11	42616.18
559.31	42915.19
559.51	42734.96
559.72	43371.88
559.92	43091.31
560.12	42722.68
560.32	43660.65
560.52	42947.95
560.72	43394.41
560.92	43126.13
561.12	43375.98
561.32	43957.60
561.52	43658.60
561.72	44107.10
561.93	43361.64
562.13	43627.88
562.33	42995.06
562.53	43894.11
562.73	43445.61
562.93	43928.93
563.13	43740.52
563.33	43472.23
563.53	43699.56
563.73	43398.51
563.93	43861.35
564.13	44430.68
564.33	43957.60
564.53	44250.46
564.74	44252.51
564.94	43953.51
565.14	44219.74
565.34	43871.59
565.54	44283.23
565.74	43996.51
565.94	44442.97
566.14	44045.66
566.34	44154.21
566.54	44492.12
566.74	44457.31
566.94	44676.44
567.14	44359.00
567.34	44424.54
567.54	44535.13
567.74	44203.36
567.94	44565.85
568.14	44469.59
568.34	44580.18
568.54	44832.08
568.74	44805.46
568.94	44215.65
569.14	44780.88
569.34	44881.24
569.54	44770.64
569.75	44684.63
569.95	44653.91
570.15	45159.76
570.35	44905.81
570.55	44854.61
570.75	45000.02
570.95	45106.51
571.15	45024.59
571.35	44768.60
571.55	45360.46
571.75	44918.10
571.95	45387.08
572.15	45223.25
572.35	45069.65
572.55	45165.90
572.75	45409.61
572.95	45233.49
573.15	44948.82
573.35	45425.99
573.55	45069.65
573.75	45442.38
573.95	45612.36
574.15	45290.83
574.35	45462.86
574.55	45716.81
574.75	45382.99
574.95	45440.33
575.15	45296.97
575.34	45344.08
575.54	45909.32
575.74	45620.55
575.94	45589.83
576.14	45618.50
576.34	45675.85
576.54	45845.83
576.74	45864.26
576.94	45751.62
577.14	45489.48
577.34	46249.28
577.54	45628.74
577.74	45741.38
577.94	45974.85
578.14	46128.45
578.34	46259.52
578.54	45647.18
578.74	45878.60
578.94	46122.30
579.14	46036.29
579.34	46073.15
579.54	46363.96
579.74	46454.08
579.94	46415.16
580.13	46255.42
580.33	46294.33
580.53	46298.43
580.73	46601.53
580.93	46484.79
581.13	46585.15
581.33	46712.12
581.53	46478.65
581.73	46529.85
581.93	46693.69
582.13	46933.30
582.33	46961.97
582.53	46675.26
582.73	46880.05
582.92	46839.09
583.12	47043.89
583.32	46853.43
583.52	46630.20
583.72	47238.45
583.92	46814.52
584.12	47625.51
584.32	47799.59
584.52	46937.40
584.72	47322.41
584.92	46984.50
585.11	47793.45
585.31	47613.23
585.51	47521.07
585.71	47492.40
585.91	47326.51
586.11	47412.52
586.31	47404.33
586.51	47703.34
586.71	47562.03
586.91	47949.09
587.10	47822.12
587.30	48006.44
587.50	47412.52
587.70	48026.92
587.90	48123.17
588.10	48340.25
588.30	48057.63
588.50	48409.89
588.69	48264.48
588.89	47918.37
589.09	48334.11
589.29	47965.48
589.49	48579.87
589.69	48074.02
589.89	48395.55
590.08	48608.54
590.28	48217.38
590.48	48479.52
590.68	48651.55
590.88	48555.29
591.08	49007.89
591.28	48139.55
591.47	48948.50
591.67	49292.56
591.87	49034.52
592.07	48876.82
592.27	49083.67
592.47	49128.72
592.67	49220.88
592.86	48878.87
593.06	49245.46
593.26	49243.41
593.46	49329.42
593.66	49329.42
593.86	49126.67
594.05	49372.43
594.25	49341.71
594.45	49329.42
594.65	49329.42
594.85	49296.66
595.05	50015.49
595.24	49450.25
595.44	49503.50
595.64	49829.13
595.84	49468.69
596.04	49784.07
596.23	49992.97
596.43	50447.61
596.63	50363.65
596.83	50439.42
597.03	50597.12
597.22	50382.08
597.42	50105.60
597.62	50404.61
597.82	50611.45
598.02	50429.18
598.21	50273.54
598.41	50615.55
598.61	50908.41
598.81	51205.36
599.01	50992.37
599.20	50853.11
599.40	51004.66
599.60	50932.98
599.80	51332.34
600.00	51086.58
600.19	51262.71
600.39	51168.50
600.59	51328.24
600.79	51537.13
600.98	51612.91
601.18	51571.95
601.38	51582.19
601.58	51922.15
601.78	52090.09
601.97	51805.42
602.17	52145.38
602.37	52147.43
602.57	52163.81
602.76	52057.32
602.96	51539.18
603.16	52210.92
603.36	52282.59
603.55	53077.21
603.75	52677.85
603.95	52448.48
604.15	52452.58
604.34	52911.32
604.54	52923.61
604.74	52659.42
604.94	52974.81
605.13	52931.80
605.33	53138.65
605.53	52810.97
605.73	53658.83
605.92	52925.66
606.12	52911.32
606.32	53124.31
606.52	53175.51
606.71	53449.94
606.91	53161.17
607.11	53626.06
607.30	53712.08
607.50	53777.61
607.70	53892.30
607.90	53626.06
608.09	53386.45
608.29	53728.46
608.49	54150.34
608.68	53656.78
608.88	53980.36
609.08	54123.72
609.28	54191.30
609.47	53966.02
609.67	54588.61
609.87	54443.20
610.06	54707.39
610.26	54744.25
610.46	54518.98
610.66	54578.37
610.85	54332.61
611.05	54377.67
611.25	54398.15
611.44	54797.50
611.64	54392.00
611.84	54418.63
612.03	54023.37
612.23	54764.73
612.43	54998.20
612.62	54903.99
612.82	54437.06
613.02	54828.22
613.21	54688.96
613.41	54658.24
613.61	55143.61
613.80	54742.20
614.00	54957.24
614.20	55162.04
614.39	54944.95
614.59	55063.74
614.79	55088.31
614.98	54822.08
615.18	54781.12
615.38	55123.13
615.57	55147.70
615.77	55645.36
615.97	55829.68
616.16	55172.28
616.36	55268.53
616.56	55506.10
616.75	55442.61
616.95	55221.43
617.15	55858.35
617.34	55403.70
617.54	55422.13
617.74	55833.77
617.93	55801.00
618.13	55153.85
618.32	55362.74
618.52	55332.02
618.72	55465.14
618.91	55612.59
619.11	55014.58
619.31	55344.31
619.50	55461.04
619.70	55237.81
619.90	55211.19
620.09	55297.20
620.29	55338.16
620.48	55383.22
620.68	55540.91
620.88	55190.71
621.07	55342.26
621.27	55444.66
621.46	55084.22
621.66	55063.74
621.86	55246.00
622.05	55256.24
622.25	55653.55
622.44	55243.96
622.64	55047.35
622.84	55846.06
623.03	55280.82
623.23	55387.31
623.42	54869.18
623.62	55196.85
623.82	55522.48
624.01	55485.62
624.21	55540.91
624.40	55203.00
624.60	55391.41
624.80	55377.08
624.99	55200.95
625.19	54932.67
625.38	55329.97
625.58	55043.26
625.77	54899.90
625.97	55590.06
626.17	55168.18
626.36	55055.54
626.56	55514.29
626.75	55182.52
626.95	55375.03
627.14	54830.27
627.34	55579.82
627.54	54844.60
627.73	55440.56
627.93	55428.27
628.12	55078.07
628.32	55098.55
628.51	55063.74
628.71	55366.84
628.90	55336.12
629.10	55168.18
629.30	55143.61
629.49	54924.47
629.69	54666.43
629.88	54944.95
630.08	55350.45
630.27	55174.33
630.47	55264.44
630.66	54940.86
630.86	55116.98
631.05	54908.09
631.25	55219.38
631.44	54772.92
631.64	55073.98
631.84	55227.57
632.03	55532.72
632.23	55198.90
632.42	55645.36
632.62	55182.52
632.81	54803.64
633.01	54996.15
633.20	54817.98
633.40	55350.45
633.59	54973.63
633.79	54742.20
633.98	55098.55
634.18	54951.10
634.37	55235.77
634.57	54850.75
634.76	55418.03
634.96	55166.13
635.15	55297.20
635.35	54858.94
635.54	55403.70
635.74	55006.39
635.93	54545.60
636.13	55323.83
636.32	55131.32
636.52	54748.35
636.71	54449.35
636.91	55080.12
637.10	55162.04
637.30	54549.70
637.49	55045.30
637.69	54867.13
637.88	55047.35
638.08	54807.74
638.27	55006.39
638.46	54856.89
638.66	55155.89
638.85	55047.35
639.05	55370.93
639.24	55252.15
639.44	54961.34
639.63	54930.62
639.83	54893.75
640.02	55260.34
640.22	55239.86
640.41	54865.08
640.61	54385.86
640.80	54850.75
640.99	54580.42
641.19	54969.53
641.38	54557.89
641.58	54844.60
641.77	54750.40
641.97	54858.94
642.16	54860.99
642.36	54793.40
642.55	54639.81
642.74	54707.39
642.94	55540.91
643.13	54752.44
643.33	54940.86
643.52	54965.43
643.72	54959.29
643.91	54574.27
644.10	55196.85
644.30	55332.02
644.49	55014.58
644.69	55180.47
644.88	54977.72
645.08	54981.82
645.27	54592.70
645.46	54725.82
645.66	55069.88
645.85	54752.44
646.05	55229.62
646.24	54729.92
646.43	54924.47
646.63	55254.20
646.82	55465.14
647.02	54901.95
647.21	55178.42
647.40	54906.04
647.60	54969.53
647.79	55442.61
647.99	54916.28
648.18	54615.23
648.37	55348.40
648.57	55196.85
648.76	55096.50
648.96	54793.40
649.15	55092.41
649.34	54940.86
649.54	55299.25
649.73	54660.29
649.92	55579.82
650.12	54871.23
650.31	55006.39
650.51	54779.07
650.70	55399.60
650.89	55063.74
651.09	55489.71
651.28	55092.41
651.47	55356.60
651.67	55061.69
651.86	55391.41
652.06	54650.05
652.25	55346.36
652.44	54858.94
652.64	55162.04
652.83	55219.38
653.02	54887.61
653.22	54836.41
653.41	54928.57
653.60	54723.77
653.80	54944.95
653.99	55233.72
654.18	54973.63
654.38	55301.30
654.57	54760.64
654.76	55579.82
654.96	55325.88
655.15	54973.63
655.34	54838.46
655.54	55002.30
655.73	55211.19
655.92	55405.75
656.12	55276.72
656.31	55229.62
656.50	55489.71
656.70	55391.41
656.89	55102.65
657.08	55223.48
657.28	55301.30
657.47	55489.71
657.66	55549.10
657.86	55254.20
658.05	55145.65
658.24	55377.08
658.43	55321.78
658.63	55477.43
658.82	55686.32
659.01	55297.20
659.21	55334.07
659.40	55405.75
659.59	55219.38
659.79	55344.31
659.98	55375.03
660.17	55166.13
660.36	55573.68
660.56	55936.17
660.75	55848.11
660.94	55596.21
661.14	55168.18
661.33	55540.91
661.52	55203.00
661.71	56032.42
661.91	55415.99
662.10	55213.24
662.29	56220.84
662.49	55471.28
662.68	55522.48
662.87	55289.01
663.06	55780.52
663.26	55821.48
663.45	55745.71
663.64	55561.39
663.83	56239.27
664.03	55387.31
664.22	55837.87
664.41	56073.38
664.60	55317.68
664.80	55565.49
664.99	55465.14
665.18	55907.50
665.37	56100.01
665.57	55874.73
665.76	55917.74
665.95	55741.61
666.14	55946.41
666.34	55676.08
666.53	55856.30
666.72	55764.14
666.91	55393.46
667.11	55784.62
667.30	56251.56
667.49	55825.58
667.68	55753.90
667.87	55770.28
668.07	55850.16
668.26	56171.69
668.45	56016.04
668.64	55719.09
668.84	56620.19
669.03	55927.98
669.22	55964.84
669.41	55923.88
669.60	55995.56
669.80	55932.07
669.99	56442.02
670.18	55897.26
670.37	56122.54
670.57	56186.02
670.76	56263.85
670.95	56323.24
671.14	55977.13
671.33	55758.00
671.53	56865.95
671.72	56603.81
671.91	56175.78
672.10	55981.23
672.29	56013.99
672.48	56272.04
672.68	56409.25
672.87	55674.03
673.06	56097.96
673.25	56128.68
673.44	55950.51
673.64	56333.48
673.83	56069.29
674.02	56102.06
674.21	56349.86
674.40	56337.57
674.59	56243.37
674.79	55944.36
674.98	55884.97
675.17	56517.79
675.36	55973.03
675.55	56632.48
675.74	56071.34
675.94	56128.68
676.13	56671.39
676.32	56362.15
676.51	56636.58
676.70	56669.34
676.89	56476.83
677.08	56689.82
677.28	56134.82
677.47	56472.74
677.66	57003.16
677.85	56820.89
678.04	56452.26
678.23	56790.17
678.42	56620.19
678.62	56343.72
678.81	56702.11
679.00	56489.12
679.19	57193.62
679.38	56505.51
679.57	56427.68
679.76	56446.11
679.96	56638.62
680.15	56448.16
680.34	56587.42
680.53	56431.78
680.72	56753.31
680.91	56439.97
681.10	56288.42
681.29	57029.79
681.48	56310.95
681.68	56749.21
681.87	56485.03
682.06	56575.14
682.25	56427.68
682.44	56452.26
682.63	56775.84
682.82	56505.51
683.01	56571.04
683.20	56587.42
683.39	56642.72
683.59	56362.15
683.78	56325.28
683.97	56304.80
684.16	56698.01
684.35	56063.14
684.54	56765.60
684.73	56190.12
684.92	56419.49
685.11	56663.20
685.30	56437.92
685.49	56511.65
685.69	56032.42
685.88	56100.01
686.07	55954.60
686.26	56333.48
686.45	56779.93
686.64	56399.01
686.83	56351.91
687.02	56292.52
687.21	56413.35
687.40	56730.78
687.59	56378.53
687.78	56417.44
687.97	56489.12
688.16	56657.06
688.35	56235.17
688.54	56247.46
688.74	56206.50
688.93	56210.60
689.12	55821.48
689.31	56335.52
689.50	56528.03
689.69	55798.96
689.88	56300.71
690.07	56562.85
690.26	56220.84
690.45	56534.18
690.64	56063.14
690.83	56298.66
691.02	56220.84
691.21	56085.67
691.40	56063.14
691.59	56313.00
691.78	55751.85
691.97	55962.79
692.16	55942.31
692.35	56085.67
692.54	56315.04
692.73	55911.59
692.92	55952.55
693.11	55968.94
693.30	55647.41
693.49	55839.92
693.68	56216.74
693.87	55397.55
694.06	55981.23
694.25	55936.17
694.44	55827.63
694.63	55743.66
694.82	56143.02
695.01	55794.86
695.20	55831.72
695.39	56108.20
695.58	55551.15
695.77	55635.12
695.96	55415.99
696.15	55112.89
696.34	55536.82
696.53	55465.14
696.72	55370.93
696.91	55065.78
697.10	55139.51
697.29	54944.95
697.48	55094.46
697.67	55168.18
697.86	55026.87
698.05	55104.70
698.24	55669.93
698.43	55284.92
698.62	55368.88
698.81	54803.64
699.00	55420.08
699.19	54609.09
699.38	55049.40
699.57	54860.99
699.76	55440.56
699.95	54645.95
700.14	54582.46
700.32	54723.77
700.51	54850.75
700.70	55098.55
700.89	54441.15
701.08	54826.17
701.27	54326.47
701.46	54490.30
701.65	54338.75
701.84	54453.44
702.03	55190.71
702.22	54293.70
702.41	54275.27
702.60	54893.75
702.79	54334.66
702.98	53732.56
703.17	54338.75
703.35	54105.29
703.54	54254.79
703.73	54314.18
703.92	54195.40
704.11	54457.54
704.30	54002.89
704.49	54035.66
704.68	53847.24
704.87	54021.32
705.06	54285.51
705.25	53978.31
705.43	53771.47
705.62	54056.14
705.81	53910.73
706.00	53986.50
706.19	53509.33
706.38	53585.10
706.57	53785.80
706.76	53683.40
706.95	53794.00
707.14	53796.04
707.32	53466.32
707.51	53318.87
707.70	53630.16
707.89	52980.95
708.08	53048.53
708.27	53355.73
708.46	53830.86
708.65	53318.87
708.84	53505.23
709.02	53476.56
709.21	53581.01
709.40	53124.31
709.59	53400.79
709.78	52917.46
709.97	53079.25
710.16	52901.08
710.34	53228.76
710.53	52942.04
710.72	52475.10
710.91	52716.76
711.10	52794.59
711.29	52651.23
711.48	52985.05
711.66	52737.24
711.85	52622.56
712.04	52436.19
712.23	52229.35
712.42	52344.03
712.61	52616.41
712.80	52071.65
712.98	52573.41
713.17	52475.10
713.36	52270.31
713.55	52442.34
713.74	52391.14
713.93	52239.59
714.11	52344.03
714.30	52135.14
714.49	51807.47
714.68	52094.18
714.87	52016.36
715.06	52292.83
715.24	51582.19
715.43	52014.31
715.62	51549.42
715.81	51340.53
716.00	51709.16
716.18	51541.23
716.37	51287.28
716.56	51483.89
716.75	51887.34
716.94	51516.65
717.12	51502.32
717.31	51293.43
717.50	50744.57
717.69	51066.10
717.88	51111.16
718.06	50906.36
718.25	51213.55
718.44	51051.76
718.63	50545.92
718.82	50304.26
719.00	50164.99
719.19	50541.82
719.38	50660.60
719.57	50021.64
719.76	50046.21
719.94	50210.05
720.13	50126.08
720.32	49892.61
720.51	50001.16
720.69	49968.39
720.88	50015.49
721.07	50117.89
721.26	49501.45
721.44	49362.19
721.63	49677.58
721.82	49280.27
722.01	49337.62
722.20	49581.32
722.38	49179.92
722.57	48784.66
722.76	49263.89
722.95	49186.07
723.13	48913.69
723.32	48745.75
723.51	48803.10
723.70	48731.42
723.88	49081.62
724.07	48430.36
724.26	49108.24
724.44	48465.18
724.63	48524.57
724.82	48330.01
725.01	48469.28
725.19	48608.54
725.38	48579.87
725.57	48239.90
725.76	48340.25
725.94	48287.01
726.13	47672.62
726.32	48106.79
726.51	48295.20
726.69	48221.47
726.88	48409.89
727.07	48342.30
727.25	47836.45
727.44	48039.20
727.63	47789.35
727.82	47930.66
728.00	48149.79
728.19	47836.45
728.38	48086.31
728.56	47351.09
728.75	47756.58
728.94	48014.63
729.12	47908.13
729.31	47686.95
729.50	47645.99
729.69	48268.58
729.87	47506.73
730.06	47600.94
730.25	47496.49
730.43	47705.38
730.62	47301.93
730.81	47717.67
730.99	47723.82
731.18	47676.71
731.37	47549.74
731.55	47824.17
731.74	47832.36
731.93	47613.23
732.11	47662.38
732.30	47887.65
732.49	47217.97
732.67	47541.55
732.86	47451.44
733.05	47392.04
733.23	46732.60
733.42	47244.59
733.61	47060.27
733.79	47277.36
733.98	47125.81
734.17	47013.17
734.35	47105.33
734.54	47297.84
734.73	47387.95
734.91	47131.95
735.10	46953.78
735.29	47283.50
735.47	46753.08
735.66	47277.36
735.84	47076.66
736.03	46245.18
736.22	47080.75
736.40	46519.61
736.59	47244.59
736.78	46839.09
736.96	46898.48
737.15	46896.44
737.33	46826.81
737.52	46748.98
737.71	47076.66
737.89	46798.13
738.08	46593.34
738.27	46349.63
738.45	46904.63
738.64	46662.97
738.82	46570.81
739.01	46630.20
739.20	46445.88
739.38	46251.33
739.57	46898.48
739.75	46331.20
739.94	46105.92
740.13	46521.66
740.31	46171.46
740.50	46306.62
740.68	46294.33
740.87	46732.60
741.06	46546.23
741.24	46206.27
741.43	45888.84
741.61	46400.83
741.80	46058.82
741.99	45894.98
742.17	46308.67
742.36	46179.65
742.54	46191.94
742.73	45952.32
742.91	46105.92
743.10	46032.19
743.29	46486.84
743.47	46142.78
743.66	45817.16
743.84	45718.85
744.03	46290.24
744.21	45768.01
744.40	46046.53
744.59	45638.98
744.77	46232.89
744.96	45434.19
745.14	45753.67
745.33	45684.04
745.51	45399.37
745.70	45372.75
745.88	45407.56
746.07	45604.17
746.26	45227.34
746.44	45249.87
746.63	45430.09
746.81	45333.84
747.00	45329.74
747.18	45532.49
747.37	45385.04
747.55	45149.52
747.74	46099.78
747.92	44821.84
748.11	44672.34
748.29	44819.80
748.48	45274.45
748.66	44793.17
748.85	45184.33
749.03	45358.41
749.22	45030.74
749.41	45000.02
749.59	45253.97
749.78	45040.98
749.96	44574.04
750.15	45225.29
750.33	44862.80
750.52	44467.55
750.70	45018.45
750.89	44780.88
751.07	44258.65
751.26	44502.36
751.44	44391.77
751.63	44827.99
751.81	44787.03
752.00	44701.01
752.18	44658.01
752.37	44514.65
752.55	44131.68
752.74	44455.26
752.92	44399.96
753.10	44084.58
753.29	44488.03
753.47	44602.71
753.66	44008.80
753.84	44629.34
754.03	44420.44
754.21	44051.81
754.40	44504.41
754.58	44148.06
754.77	44500.31
754.95	43908.45
755.14	44094.82
755.32	44232.03
755.51	43779.43
755.69	43890.02
755.88	44129.63
756.06	44070.24
756.24	44449.11
756.43	44129.63
756.61	43937.12
756.80	43840.87
756.98	43527.53
757.17	43877.73
757.35	43935.07
757.54	43398.51
757.72	43644.26
757.90	43658.60
758.09	43509.10
758.27	43851.11
758.46	43445.61
758.64	43709.80
758.83	43664.74
759.01	43517.29
759.19	43787.62
759.38	43859.30
759.56	43765.09
759.75	43455.85
759.93	43898.21
760.12	43316.59
760.30	43654.50
760.48	43548.01
760.67	43597.16
760.85	43382.12
761.04	43871.59
761.22	43416.94
761.40	43640.17
761.59	43191.66
761.77	43300.20
761.96	43197.80
762.14	43212.14
762.32	43017.58
762.51	43099.50
762.69	43251.05
762.88	43152.75
763.06	43461.99
763.24	43201.90
763.43	43013.49
763.61	43009.39
763.80	43349.35
763.98	42755.44
764.16	42780.02
764.35	42728.82
764.53	42364.28
764.72	42753.40
764.90	42710.39
765.08	42374.52
765.27	42786.16
765.45	42194.30
765.63	42222.97
765.82	42276.22
766.00	42243.45
766.18	42417.53
766.37	42288.51
766.55	42151.29
766.74	42454.39
766.92	42302.84
767.10	42128.77
767.29	42401.14
767.47	41864.58
767.65	42489.21
767.84	41274.76
768.02	42016.13
768.20	42251.64
768.39	42249.60
768.57	42163.58
768.75	41803.14
768.94	41803.14
769.12	41864.58
769.30	41700.74
769.49	41790.85
769.67	41448.84
769.85	41123.21
770.04	41360.78
770.22	41356.68
770.40	41731.46
770.59	41571.72
770.77	41688.45
770.95	41704.84
771.14	41231.75
771.32	41383.30
771.50	41223.56
771.69	41354.63
771.87	41801.09
772.05	41133.45
772.24	40891.79
772.42	41305.48
772.60	41395.59
772.78	41049.49
772.97	40725.91
773.15	41588.10
773.33	40719.76
773.52	41147.79
773.70	40764.82
773.88	41002.38
774.07	40844.69
774.25	40826.26
774.43	41112.97
774.61	41131.40
774.80	41364.87
774.98	40957.33
775.16	41461.13
775.34	41090.44
775.53	40899.98
775.71	41411.98
775.89	41485.70
776.08	41006.48
776.26	41405.83
776.44	40938.90
776.62	41463.18
776.81	41434.50
776.99	41547.14
777.17	41743.75
777.35	41248.14
777.54	41694.60
777.72	41258.38
777.90	41661.83
778.08	41686.40
778.27	41670.02
778.45	41901.44
778.63	42014.08
778.81	41127.31
779.00	42548.60
779.18	41702.79
779.36	42143.10
779.54	41940.35
779.73	41541.00
779.91	42435.96
780.09	41600.39
780.27	41948.54
780.46	41979.26
780.64	42046.85
780.82	41846.15
781.00	42081.66
781.19	41999.74
781.37	42149.24
781.55	42374.52
781.73	42497.40
781.91	42022.27
782.10	42122.62
782.28	42575.22
782.46	42395.00
782.64	42870.13
782.82	41969.02
783.01	42448.25
783.19	42710.39
783.37	42227.07
783.55	42366.33
783.74	42812.79
783.92	42028.41
784.10	42816.88
784.28	42374.52
784.46	42333.56
784.64	42302.84
784.83	42603.89
785.01	42689.91
785.19	42313.08
785.37	42753.40
785.55	42456.44
785.74	41995.65
785.92	42495.35
786.10	42454.39
786.28	42628.47
786.46	42102.14
786.64	41899.39
786.83	42055.04
787.01	42732.92
787.19	42186.11
787.37	41938.30
787.55	42112.38
787.74	42065.28
787.92	41999.74
788.10	41885.06
788.28	41567.62
788.46	42022.27
788.64	41573.77
788.82	42091.90
789.01	41661.83
789.19	41717.12
789.37	41524.61
789.55	41571.72
789.73	41000.33
789.91	40969.61
790.09	41356.68
790.28	41039.25
790.46	41274.76
790.64	41375.11
790.82	41137.55
791.00	40947.09
791.18	41084.30
791.36	40750.48
791.55	40719.76
791.73	40781.20
791.91	40402.33
792.09	41166.22
792.27	40486.29
792.45	40566.16
792.63	40746.39
792.81	40752.53
793.00	40385.94
793.18	40555.93
793.36	40197.53
793.54	40209.82
793.72	40371.61
793.90	40474.01
794.08	39781.79
794.26	39929.25
794.44	39490.98
794.62	39533.99
794.81	40095.13
794.99	39482.79
795.17	39454.12
795.35	39292.33
795.53	39796.13
795.71	39413.16
795.89	39189.93
796.07	39257.51
796.25	39204.27
796.43	38815.15
796.61	38510.00
796.80	38489.52
796.98	38641.07
797.16	38491.57
797.34	38596.02
797.52	38378.93
797.70	38704.56
797.88	38331.83
798.06	37957.05
798.24	38106.55
798.42	37811.65
798.60	37770.69
798.78	37995.96
798.96	37916.09
799.14	37260.74
799.32	37756.35
799.51	37461.44
799.69	37952.96
799.87	37703.10
800.05	37379.53
800.23	37195.21
800.41	36988.36
800.59	37074.38
800.77	36847.05
800.95	36550.10
801.13	36865.49
801.31	36505.04
801.49	36597.20
801.67	36169.18
801.85	36521.43
802.03	36247.00
802.21	36222.42
802.39	36242.90
802.57	36203.99
802.75	36132.31
802.93	35999.19
803.11	35778.01
803.29	35538.40
803.47	35354.08
803.65	35622.37
803.83	35591.65
804.01	35550.69
804.19	35239.40
804.37	34977.26
804.55	35214.82
804.73	34895.34
804.91	35241.45
805.09	35075.56
805.27	35089.90
805.45	35050.99
805.63	34844.14
805.81	34887.15
805.99	34962.92
806.17	35091.94
806.35	34663.92
806.53	34027.00
806.71	34491.89
806.89	34379.25
807.07	34268.66
807.25	34004.47
807.43	34151.93
807.61	34364.92
807.79	34211.32
807.97	33773.05
808.15	33674.75
808.33	33785.34
808.51	33850.88
808.69	34106.87
808.87	33469.95
809.05	33279.49
809.23	33066.50
809.41	33517.06
809.59	33050.12
809.77	33240.58
809.95	33015.30
810.13	33347.08
810.31	32790.03
810.49	32790.03
810.67	32742.92
810.84	32990.73
811.02	32513.55
811.20	32470.54
811.38	32507.41
811.56	32306.71
811.74	32327.19
811.92	32130.58
812.10	32187.92
812.28	32484.88
812.46	32345.62
812.64	32306.71
812.82	32128.53
813.00	32355.86
813.18	32329.23
813.36	31862.30
813.53	31428.13
813.71	32022.04
813.89	31612.45
814.07	31612.45
814.25	31643.17
814.43	31450.66
814.61	31317.54
814.79	31362.59
814.97	31307.30
815.15	31272.48
815.33	30996.01
815.50	31067.69
815.68	30950.95
815.86	31254.05
816.04	30959.14
816.22	30801.45
816.40	31014.44
816.58	31075.88
816.76	30430.77
816.94	30672.43
817.11	30717.48
817.29	30684.72
817.47	30649.90
817.65	30295.60
817.83	30535.21
818.01	30000.69
818.19	30152.24
818.37	29941.30
818.54	29978.17
818.72	29627.96
818.90	29875.77
819.08	29816.38
819.26	29683.26
819.44	29572.67
819.62	29609.53
819.80	29705.79
819.97	29824.57
820.15	29736.51
820.33	29210.18
820.51	29627.96
820.69	29457.98
820.87	29521.47
821.05	29875.77
821.22	29273.67
821.40	29189.70
821.58	29222.47
821.76	29138.50
821.94	29173.31
822.12	28675.66
822.29	28784.20
822.47	28591.69
822.65	29216.32
822.83	28927.56
823.01	28929.61
823.19	28726.86
823.36	28552.78
823.54	28784.20
823.72	28253.78
823.90	28278.35
824.08	28325.46
824.25	28008.02
824.43	28143.19
824.61	28046.93
824.79	28218.96
824.97	28223.06
825.15	28251.73
825.32	28171.86
825.50	27840.09
825.68	27747.93
825.86	28300.88
826.04	27969.11
826.21	27983.44
826.39	27883.09
826.57	27397.73
826.75	27729.50
826.93	27471.45
827.10	27567.71
827.28	27280.99
827.46	27768.41
827.64	27637.34
827.81	27303.52
827.99	27479.64
828.17	27324.00
828.35	27242.08
828.53	27090.53
828.70	27252.32
828.88	27166.31
829.06	27510.36
829.24	27301.47
829.41	26805.86
829.59	27053.67
829.77	26926.69
829.95	26996.32
830.12	26644.07
830.30	26865.25
830.48	26769.00
830.66	26680.94
830.84	26861.16
831.01	26537.58
831.19	26904.17
831.37	26439.28
831.55	26527.34
831.72	26363.50
831.90	26386.03
832.08	26482.28
832.25	26414.70
832.43	26662.51
832.61	26056.31
832.79	26195.57
832.96	26259.06
833.14	26287.73
833.32	26369.65
833.50	26257.01
833.67	25933.43
833.85	25984.63
834.03	25853.56
834.20	25880.18
834.38	25945.72
834.56	25988.72
834.74	25745.02
834.91	25781.88
835.09	25794.17
835.27	25394.81
835.44	25835.13
835.62	25194.11
835.80	25554.55
835.98	25568.89
836.15	25706.10
836.33	25284.22
836.51	25437.82
836.68	25136.77
836.86	25208.45
837.04	25343.61
837.21	25392.76
837.39	25398.91
837.57	25118.34
837.75	25392.76
837.92	24768.13
838.10	24962.69
838.28	24680.07
838.45	24989.31
838.63	24977.03
838.81	24835.72
838.98	24729.22
839.16	24706.70
839.34	24831.62
839.51	24565.39
839.69	24491.66
839.87	24837.76
840.04	24694.41
840.22	24866.44
840.40	24501.90
840.57	24364.68
840.75	24594.06
840.93	24325.77
841.10	24637.06
841.28	24571.53
841.46	24397.45
841.63	24348.30
841.81	24024.72
841.98	24051.34
842.16	24366.73
842.34	24374.92
842.51	23891.60
842.69	24376.97
842.87	24194.70
843.04	24233.61
843.22	24147.60
843.40	24282.77
843.57	24065.68
843.75	23897.75
843.92	23815.83
844.10	23658.14
844.28	23768.73
844.45	23996.05
844.63	23824.02
844.81	23842.45
844.98	23754.39
845.16	23596.70
845.33	23760.53
845.51	23748.25
845.69	23471.77
845.86	23541.40
846.04	23336.60
846.21	23494.30
846.39	23338.65
846.57	23289.50
846.74	23557.78
846.92	23271.07
847.09	23381.66
847.27	23053.98
847.45	23191.20
847.62	23297.69
847.80	23236.25
847.97	23312.03
848.15	23236.25
848.32	23307.93
848.50	23103.14
848.68	22724.26
848.85	22802.08
849.03	22625.96
849.20	22879.91
849.38	23176.86
849.56	22826.66
849.73	22945.44
849.91	22849.19
850.08	23217.82
850.26	22652.58
850.43	22693.54
850.61	22933.15
850.78	22425.26
850.96	22564.52
851.14	22353.58
851.31	22781.60
851.49	22314.67
851.66	22668.97
851.84	22408.87
852.01	22689.45
852.19	22353.58
852.36	22372.01
852.54	22556.33
852.71	22351.53
852.89	22116.01
853.07	22148.78
853.24	22337.20
853.42	21784.24
853.59	22398.63
853.77	22079.15
853.94	22070.96
854.12	22312.62
854.29	22011.57
854.47	22167.21
854.64	21890.74
854.82	21821.11
854.99	22138.54
855.17	21896.88
855.34	21860.02
855.52	22314.67
855.69	21933.75
855.87	21671.61
856.04	21657.27
856.22	21800.63
856.39	21712.56
856.57	21669.56
856.74	21561.02
856.92	21567.16
857.09	21579.45
857.27	21601.97
857.44	21720.76
857.62	21513.91
857.79	21563.06
857.97	21401.27
858.14	21718.71
858.32	21585.59
858.49	21466.81
858.67	21423.80
858.84	21395.13
859.02	21354.17
859.19	21194.43
859.37	21020.35
859.54	21077.69
859.72	21429.94
859.89	21421.75
860.06	21257.92
860.24	20790.98
860.41	21075.65
860.59	20731.59
860.76	21036.74
860.94	20930.24
861.11	20995.78
861.29	20965.06
861.46	21094.08
861.64	20657.86
861.81	20811.46
861.98	20623.05
862.16	20874.95
862.33	20270.79
862.51	20760.26
862.68	20623.05
862.86	20688.58
863.03	20618.95
863.21	20453.06
863.38	20621.00
863.55	20596.42
863.73	20602.57
863.90	20655.81
864.08	20311.75
864.25	20395.72
864.43	20674.24
864.60	20336.33
864.77	20172.49
864.95	20152.01
865.12	20442.82
865.30	20313.80
865.47	20262.60
865.64	20291.27
865.82	20256.46
865.99	20428.49
866.17	20205.26
866.34	20068.05
866.51	20143.82
866.69	20334.28
866.86	20233.93
867.04	20094.67
867.21	19932.88
867.38	19844.82
867.56	20000.46
867.73	20004.56
867.91	19785.43
868.08	20092.62
868.25	19810.00
868.43	19621.59
868.60	19707.60
868.78	19599.06
868.95	19932.88
869.12	19549.91
869.30	19680.98
869.47	19588.82
869.64	19738.32
869.82	19443.42
869.99	19578.58
870.16	19826.39
870.34	19433.18
870.51	19513.05
870.69	19359.45
870.86	19406.55
871.03	19648.21
871.21	19353.30
871.38	19371.74
871.55	19128.03
871.73	19187.42
871.90	18941.66
872.07	19093.21
872.25	19009.25
872.42	18958.05
872.59	19095.26
872.77	18659.04
872.94	18910.94
873.11	18923.23
873.29	18966.24
873.46	18884.32
873.63	18743.01
873.81	18513.64
873.98	18589.41
874.15	18521.83
874.33	18626.28
874.50	18464.49
874.67	18818.78
874.85	18577.12
875.02	18573.03
875.19	18390.76
875.37	18433.77
875.54	18638.56
875.71	18478.82
875.88	18169.58
876.06	18392.81
876.23	18394.86
876.40	18065.13
876.58	18097.90
876.75	18163.43
876.92	17903.34
877.10	18204.39
877.27	18167.53
877.44	18044.65
877.61	18151.15
877.79	18255.59
877.96	17723.12
878.13	18063.08
878.31	17932.01
878.48	17800.94
878.65	17612.53
878.82	17768.18
879.00	17854.19
879.17	17694.45
879.34	17716.98
879.51	17657.59
879.69	17489.65
879.86	17266.42
880.03	17649.39
880.21	17422.07
880.38	17622.77
880.55	17549.04
880.72	17577.72
880.90	17280.76
881.07	17346.30
881.24	17272.57
881.41	17430.26
881.59	17352.44
881.76	17506.04
881.93	17397.49
882.10	17172.22
882.28	17116.92
882.45	17153.79
882.62	16989.95
882.79	17465.08
882.96	16920.32
883.14	17295.10
883.31	17186.55
883.48	17243.90
883.65	17035.00
883.83	17239.80
884.00	17227.51
884.17	17123.07
884.34	17112.83
884.51	16948.99
884.69	17157.88
884.86	16883.45
885.03	17037.05
885.20	16836.35
885.38	16998.14
885.55	16828.16
885.72	16895.74
885.89	16721.66
886.06	17092.35
886.24	16942.85
886.41	16787.20
886.58	16836.35
886.75	16764.67
886.92	16484.10
887.10	16518.92
887.27	16649.99
887.44	16733.95
887.61	16834.30
887.78	16586.50
887.95	16721.66
888.13	16537.35
888.30	16600.83
888.47	16242.44
888.64	16404.23
888.81	16510.72
888.99	16357.13
889.16	16353.03
889.33	16312.07
889.50	16291.59
889.67	16232.20
889.84	16125.71
890.01	16281.35
890.19	16295.69
890.36	16396.04
890.53	16285.45
890.70	16215.82
890.87	16127.75
891.04	16248.58
891.22	16203.53
891.39	15908.62
891.56	15912.72
891.73	15922.96
891.90	15882.00
892.07	15818.51
892.24	15769.36
892.42	15859.47
892.59	15738.64
892.76	15849.23
892.93	15675.15
893.10	16033.55
893.27	15892.24
893.44	15795.98
893.61	15709.97
893.79	15744.78
893.96	15683.34
894.13	15802.13
894.30	15828.75
894.47	15703.82
894.64	16066.31
894.81	15879.95
894.98	15904.53
895.15	15892.24
895.33	15556.37
895.50	15582.99
895.67	16049.93
895.84	15650.58
896.01	15644.43
896.18	15408.92
896.35	15828.75
896.52	15417.11
896.69	15531.80
896.86	15630.10
897.04	15779.60
897.21	15640.34
897.38	15460.12
897.55	15619.86
897.72	15601.43
897.89	15605.52
898.06	15593.23
898.23	15533.84
898.40	15677.20
898.57	15793.94
898.74	15697.68
898.91	15548.18
899.08	15550.23
899.26	15476.50
899.43	15566.61
899.60	15562.51
899.77	15560.47
899.94	15255.32
900.11	15425.30
900.28	15556.37
900.45	15322.90
900.62	15462.16
900.79	15572.75
900.96	15591.19
901.13	15480.60
901.30	15470.36
901.47	15525.65
901.64	15683.34
901.81	15552.27
901.98	15365.91
902.15	15689.49
902.32	15433.49
902.49	15437.59
902.66	15361.81
902.83	15666.96
903.01	15570.71
903.18	15503.12
903.35	15724.30
903.52	15406.87
903.69	15513.36
903.86	15499.03
904.03	15570.71
904.20	15499.03
904.37	15662.86
904.54	15322.90
904.71	15544.08
904.88	15677.20
905.05	15386.39
905.22	15648.53
905.39	15447.83
905.56	15632.15
905.73	15626.00
905.90	15288.09
906.07	15619.86
906.24	15472.40
906.41	15386.39
906.58	15638.29
906.75	15449.88
906.92	15322.90
907.09	15306.52
907.26	15626.00
907.43	15306.52
907.60	15271.70
907.77	15527.70
907.93	15435.54
908.10	15576.85
908.27	15460.12
908.44	15181.59
908.61	15339.29
908.78	15208.22
908.95	15335.19
909.12	15288.09
909.29	15210.26
909.46	15392.53
909.63	15499.03
909.80	15437.59
909.97	15288.09
910.14	15036.19
910.31	15460.12
910.48	15279.89
910.65	15206.17
910.82	15236.89
910.99	15224.60
911.16	15230.74
911.33	15374.10
911.50	14882.59
911.66	15093.53
911.83	15240.98
912.00	14888.73
912.17	15234.84
912.34	14964.51
912.51	15148.82
912.68	14970.65
912.85	14993.18
913.02	15150.87
913.19	15048.47
913.36	15081.24
913.53	15228.70
913.70	14688.03
913.86	15159.06
914.03	14999.32
914.20	14755.61
914.37	15083.29
914.54	14843.68
914.71	14937.88
914.88	14706.46
915.05	14376.74
915.22	14542.63
915.39	14837.53
915.55	14378.79
915.72	14532.39
915.89	14464.80
916.06	14528.29
916.23	14518.05
916.40	14217.00
916.57	14237.48
916.74	14235.43
916.91	14292.77
917.07	14069.55
917.24	14227.24
917.41	14284.58
917.58	14210.86
917.75	14042.92
917.92	14231.33
918.09	14028.59
918.26	14010.15
918.42	14057.26
918.59	14194.47
918.76	13932.33
918.93	13940.52
919.10	13813.55
919.27	13754.16
919.44	13979.43
919.60	13860.65
919.77	13766.45
919.94	13698.86
920.11	13541.17
920.28	13668.14
920.45	13524.79
920.61	13567.79
920.78	13481.78
920.95	13467.44
921.12	13408.05
921.29	13233.97
921.46	13260.60
921.62	13023.03
921.79	13201.21
921.96	13018.94
922.13	12851.00
922.30	13000.51
922.47	12777.28
922.63	12808.00
922.80	12803.90
922.97	12957.50
923.14	12570.43
923.31	12764.99
923.47	12574.53
923.64	12975.93
923.81	12703.55
923.98	12422.98
924.15	12484.42
924.32	12695.36
924.48	12541.76
924.65	12427.07
924.82	12257.09
924.99	12205.89
925.15	12136.26
925.32	12314.44
925.49	11968.33
925.66	11919.18
925.83	11956.04
925.99	11988.81
926.16	11997.00
926.33	12242.76
926.50	12015.43
926.67	12121.93
926.83	11767.63
927.00	11888.46
927.17	11724.62
927.34	11640.65
927.50	11698.00
927.67	11609.93
927.84	11523.92
928.01	11573.07
928.17	11372.37
928.34	11464.53
928.51	11306.84
928.68	11241.30
928.84	11145.05
929.01	11196.25
929.18	11186.01
929.35	11120.47
929.51	11007.83
929.68	10932.06
929.85	10895.19
930.02	10639.20
930.18	10899.29
930.35	10948.44
930.52	10776.41
930.69	10788.70
930.85	10536.80
931.02	10661.73
931.19	10557.28
931.36	10528.61
931.52	10565.47
931.69	10508.13
931.86	10442.59
932.02	10569.57
932.19	10411.87
932.36	10293.09
932.53	10415.97
932.69	10336.10
932.86	10147.69
933.03	10147.69
933.19	10135.40
933.36	9740.14
933.53	10114.92
933.70	9975.66
933.86	9906.02
934.03	9981.80
934.20	9875.31
934.36	9774.95
934.53	9664.36
934.70	9504.62
934.86	9459.57
935.03	9457.52
935.20	9187.19
935.36	9271.15
935.53	9322.35
935.70	9176.95
935.86	9043.83
936.03	8920.95
936.20	8865.66
936.36	8615.80
936.53	8812.41
936.70	8779.64
936.86	8695.68
937.03	8613.76
937.20	8343.42
937.36	8576.89
937.53	8269.70
937.70	7999.37
937.86	8126.34
938.03	8198.02
938.20	8077.19
938.36	7950.21
938.53	7858.06
938.70	7690.12
938.86	7630.73
939.03	7522.19
939.20	7516.05
939.36	7579.53
939.53	7217.04
939.70	7499.66
939.86	7069.59
940.03	7122.84
940.19	6789.02
940.36	6883.22
940.53	7020.44
940.69	6741.91
940.86	6764.44
941.03	6748.06
941.19	6514.59
941.36	6553.50
941.52	6571.93
941.69	6408.09
941.86	6313.89
942.02	6399.90
942.19	6248.35
942.35	6365.09
942.52	6061.99
942.69	5836.71
942.85	6021.03
943.02	5879.72
943.18	5857.19
943.35	5867.43
943.52	5695.40
943.68	5805.99
943.85	5822.38
944.01	5740.46
944.18	5646.25
944.35	5734.31
944.51	5576.62
944.68	5564.33
944.84	5427.12
945.01	5541.80
945.17	5468.08
945.34	5593.00
945.51	5572.52
945.67	5480.36
945.84	5427.12
946.00	5355.44
946.17	5398.45
946.33	5353.39
946.50	5453.74
946.67	5386.16
946.83	5498.80
947.00	5486.51
947.16	5330.86
947.33	5461.93
947.49	5332.91
947.66	5392.30
947.82	5226.42
947.99	5427.12
948.16	5269.42
948.32	5353.39
948.49	5463.98
948.65	5398.45
948.82	5320.62
948.98	5279.66
949.15	5246.90
949.31	5351.34
949.48	5369.77
949.64	5294.00
949.81	5402.54
949.97	5253.04
950.14	5488.56
950.30	5302.19
950.47	5527.47
950.63	5310.38
950.80	5334.96
950.96	5470.12
951.13	5267.38
951.30	5451.69
951.46	5474.22
951.63	5463.98
951.79	5437.36
951.96	5640.11
952.12	5334.96
952.29	5377.97
952.45	5343.15
952.62	5367.73
952.78	5457.84
952.94	5318.57
953.11	5486.51
953.27	5255.09
953.44	5547.95
953.60	5404.59
953.77	5474.22
953.93	5547.95
954.10	5509.04
954.26	5431.21
954.43	5439.40
954.59	5506.99
954.76	5631.91
954.92	5361.58
955.09	5472.17
955.25	5482.41
955.42	5509.04
955.58	5425.07
955.75	5537.71
955.91	5425.07
956.07	5556.14
956.24	5433.26
956.40	5506.99
956.57	5566.38
956.73	5500.84
956.90	5597.10
957.06	5392.30
957.23	5420.97
957.39	5361.58
957.56	5564.33
957.72	5361.58
957.88	5408.69
958.05	5685.16
958.21	5629.87
958.38	5431.21
958.54	5629.87
958.71	5652.39
958.87	5410.73
959.03	5502.89
959.20	5451.69
959.36	5443.50
959.53	5371.82
959.69	5492.65
959.85	5543.85
960.02	5427.12
960.18	5566.38
960.35	5500.84
960.51	5521.32
960.68	5304.24
960.84	5443.50
961.00	5269.42
961.17	5556.14
961.33	5394.35
961.50	5457.84
961.66	5445.55
961.82	5357.49
961.99	5502.89
962.15	5513.13
962.31	5384.11
962.48	5537.71
962.64	5363.63
962.81	5324.72
962.97	5410.73
963.13	5470.12
963.30	5492.65
963.46	5404.59
963.62	5398.45
963.79	5420.97
963.95	5392.30
964.12	5380.01
964.28	5441.45
964.44	5367.73
964.61	5296.05
964.77	5341.10
964.93	5550.00
965.10	5283.76
965.26	5269.42
965.42	5349.29
965.59	5189.55
965.75	5431.21
965.92	5377.97
966.08	5363.63
966.24	5418.93
966.41	5294.00
966.57	5312.43
966.73	5285.81
966.90	5347.25
967.06	5320.62
967.22	5232.56
967.39	5177.26
967.55	5136.31
967.71	5195.70
967.88	5152.69
968.04	5197.74
968.20	5197.74
968.37	5070.77
968.53	5089.20
968.69	5103.54
968.85	5300.14
969.02	5007.28
969.18	5025.72
969.34	5132.21
969.51	5126.07
969.67	5105.59
969.83	5011.38
970.00	5040.05
970.16	5156.79
970.32	5070.77
970.48	5173.17
970.65	5019.57
970.81	5013.43
970.97	4990.90
971.14	4943.80
971.30	5068.72
971.46	5130.16
971.63	5029.81
971.79	5040.05
971.95	5076.91
972.11	4921.27
972.28	5062.58
972.44	4976.56
972.60	4943.80
972.76	4984.76
972.93	4868.02
973.09	4925.36
973.25	5007.28
973.42	4818.87
973.58	4956.08
973.74	4804.53
973.90	5001.14
974.07	4876.21
974.23	4708.28
974.39	4835.25
974.55	4792.25
974.72	4802.49
974.88	4792.25
975.04	4859.83
975.20	4822.97
975.37	4739.00
975.53	4683.70
975.69	4720.57
975.85	4706.23
976.01	4743.10
976.18	4732.86
976.34	4736.95
976.50	4833.21
976.66	4876.21
976.83	4562.87
976.99	4671.42
977.15	4640.70
977.31	4640.70
977.47	4767.67
977.64	4552.63
977.80	4573.11
977.96	4650.94
978.12	4585.40
978.29	4593.59
978.45	4569.02
978.61	4575.16
978.77	4460.48
978.93	4478.91
979.10	4587.45
979.26	4540.35
979.42	4493.24
979.58	4409.28
979.74	4444.09
979.91	4472.76
980.07	4423.61
980.23	4427.71
980.39	4401.08
980.55	4358.08
980.71	4370.37
980.88	4431.80
981.04	4405.18
981.20	4343.74
981.36	4419.52
981.52	4407.23
981.68	4175.81
981.85	4401.08
982.01	4487.10
982.17	4333.50
982.33	4435.90
982.49	4366.27
982.65	4313.02
982.82	4331.45
982.98	4280.25
983.14	4220.86
983.30	4229.06
983.46	4276.16
983.62	4261.82
983.79	4165.57
983.95	4161.47
984.11	4073.41
984.27	4212.67
984.43	4192.19
984.59	4267.97
984.75	4214.72
984.91	4091.84
985.08	4134.85
985.24	4046.79
985.40	3997.64
985.56	4165.57
985.72	4161.47
985.88	4124.61
986.04	4028.35
986.20	3977.16
986.37	4091.84
986.53	3932.10
986.69	4018.11
986.85	3917.76
987.01	3989.44
987.17	3907.52
987.33	3930.05
987.49	3991.49
987.65	4038.59
987.82	3977.16
987.98	3954.63
988.14	4001.73
988.30	4018.11
988.46	3835.85
988.62	3803.08
988.78	3778.50
988.94	3798.98
989.10	3739.59
989.26	3819.46
989.42	3954.63
989.59	3841.99
989.75	3760.07
989.91	3813.32
990.07	3715.02
990.23	3686.34
990.39	3712.97
990.55	3780.55
990.71	3803.08
990.87	3745.73
991.03	3909.57
991.19	3735.50
991.35	3631.05
991.51	3690.44
991.67	3655.62
991.83	3758.02
992.00	3690.44
992.16	3704.78
992.32	3766.21
992.48	3823.56
992.64	3678.15
992.80	3694.54
992.96	3600.33
993.12	3600.33
993.28	3618.76
993.44	3624.90
993.60	3659.72
993.76	3596.23
993.92	3561.42
994.08	3542.99
994.24	3577.80
994.40	3585.99
994.56	3682.25
994.72	3489.74
994.88	3426.25
995.04	3514.31
995.20	3583.95
995.36	3526.60
995.52	3456.97
995.68	3338.19
995.84	3418.06
996.00	3577.80
996.16	3549.13
996.32	3385.29
996.48	3459.02
996.64	3473.36
996.80	3362.76
996.96	3510.22
997.12	3467.21
997.28	3370.96
997.44	3360.72
997.60	3225.55
997.76	3307.47
997.92	3350.48
998.08	3282.89
998.24	3342.28
998.40	3370.96
998.56	3379.15
998.72	3176.40
998.88	3299.28
999.04	3301.33
999.20	3319.76
999.36	3225.55
999.52	3297.23
999.68	3401.68
999.84	3327.95
1000.00	3307.47
1000.16	3313.61
1000.32	3237.84
1000.48	3235.79
1000.64	3063.76
1000.80	3112.91
1000.95	3059.67
1001.11	3219.41
1001.27	3098.58
1001.43	3149.78
1001.59	2990.03
1001.75	3178.45
1001.91	3114.96
1002.07	3125.20
1002.23	3039.19
1002.39	3014.61
1002.55	3106.77
1002.71	3094.48
1002.87	3094.48
1003.03	3063.76
1003.19	3018.71
1003.34	3061.71
1003.50	3067.86
1003.66	3133.39
1003.82	3049.43
1003.98	3022.80
1004.14	2987.99
1004.30	2959.31
1004.46	3055.57
1004.62	3024.85
1004.78	2973.65
1004.94	3006.42
1005.09	3139.54
1005.25	2987.99
1005.41	2887.64
1005.57	3010.51
1005.73	2979.79
1005.89	3039.19
1006.05	2959.31
1006.21	2861.01
1006.37	2824.15
1006.52	2820.05
1006.68	2797.53
1006.84	3076.05
1007.00	2887.64
1007.16	2975.70
1007.32	2899.92
1007.48	2836.44
1007.64	2852.82
1007.79	2813.91
1007.95	2791.38
1008.11	2772.95
1008.27	2840.53
1008.43	2811.86
1008.59	2766.81
1008.75	2805.72
1008.91	2889.68
1009.06	2719.70
1009.22	2789.33
1009.38	2877.40
1009.54	2813.91
1009.70	2832.34
1009.86	2797.53
1010.01	2805.72
1010.17	2631.64
1010.33	2779.09
1010.49	2858.96
1010.65	2863.06
1010.81	2635.74
1010.96	2809.81
1011.12	2709.46
1011.28	2676.70
1011.44	2688.98
1011.60	2617.30
1011.76	2545.63
1011.91	2789.33
1012.07	2656.22
1012.23	2553.82
1012.39	2629.59
1012.55	2527.19
1012.71	2623.45
1012.86	2543.58
1013.02	2594.78
1013.18	2535.39
1013.34	2625.50
1013.50	2611.16
1013.65	2654.17
1013.81	2529.24
1013.97	2480.09
1014.13	2643.93
1014.29	2572.25
1014.44	2635.74
1014.60	2600.92
1014.76	2559.96
1014.92	2486.23
1015.07	2568.15
1015.23	2570.20
1015.39	2512.86
1015.55	2516.95
1015.71	2617.30
1015.86	2557.91
1016.02	2471.90
1016.18	2432.99
1016.34	2578.39
1016.49	2502.62
1016.65	2602.97
1016.81	2439.13
1016.97	2494.43
1017.12	2361.31
1017.28	2355.16
1017.44	2387.93
1017.60	2385.88
1017.75	2463.71
1017.91	2465.75
1018.07	2437.08
1018.23	2400.22
1018.38	2432.99
1018.54	2432.99
1018.70	2408.41
1018.86	2379.74
1019.01	2293.72
1019.17	2375.64
1019.33	2471.90
1019.49	2439.13
1019.64	2363.36
1019.80	2375.64
1019.96	2367.45
1020.12	2387.93
1020.27	2328.54
1020.43	2359.26
1020.59	2359.26
1020.74	2324.44
1020.90	2371.55
1021.06	2263.01
1021.22	2332.64
1021.37	2308.06
1021.53	2232.29
1021.69	2293.72
1021.84	2162.66
1022.00	2383.84
1022.16	2306.01
1022.31	2340.83
1022.47	2248.67
1022.63	2293.72
1022.79	2220.00
1022.94	2263.01
1023.10	2303.96
1023.26	2271.20
1023.41	2273.25
1023.57	2187.23
1023.73	2279.39
1023.88	2289.63
1024.04	2129.89
1024.20	2228.19
1024.35	2232.29
1024.51	2277.34
1024.67	2195.42
1024.82	2287.58
1024.98	2183.13
1025.14	2158.56
1025.29	2240.48
1025.45	2256.86
1025.61	2181.09
1025.76	2209.76
1025.92	2156.51
1026.08	2234.33
1026.23	2248.67
1026.39	2230.24
1026.55	2187.23
1026.70	2129.89
1026.86	2138.08
1027.02	2271.20
1027.17	2174.94
1027.33	2154.46
1027.48	2115.55
1027.64	2246.62
1027.80	2115.55
1027.95	2068.45
1028.11	2035.68
1028.27	2166.75
1028.42	2174.94
1028.58	2084.83
1028.73	2172.89
1028.89	2068.45
1029.05	2183.13
1029.20	2115.55
>>>>>End Processed Spectral Data<<<<<
