SpectraSuite Data File
++++++++++++++++++++++++++++++++++++
Date: Fri Jun 02 14:48:00 CEST 2017
User: INFO_000
Dark Spectrum Present: No
Reference Spectrum Present: No
Number of Sampled Component Spectra: 1
Spectrometers: USB4H00879
Integration Time (usec): 80000 (USB4H00879)
Spectra Averaged: 1 (USB4H00879)
Boxcar Smoothing: 0 (USB4H00879)
Correct for Electrical Dark: No (USB4H00879)
Strobe/Lamp Enabled: No (USB4H00879)
Correct for Detector Non-linearity: No (USB4H00879)
Correct for Stray Light: No (USB4H00879)
Number of Pixels in Processed Spectrum: 3648
>>>>>Begin Processed Spectral Data<<<<<
345.13	1210.35
345.34	1210.35
345.56	1210.35
345.78	1257.45
345.99	1286.12
346.21	1759.21
346.42	1718.25
346.64	1658.85
346.86	1839.08
347.07	1630.18
347.29	1648.61
347.50	1630.18
347.72	1617.90
347.94	1712.10
348.15	1585.13
348.37	1544.17
348.59	1699.81
348.80	1662.95
349.02	1705.96
349.23	1808.36
349.45	1814.50
349.67	1880.04
349.88	1775.59
350.10	1955.81
350.31	1812.45
350.53	1765.35
350.75	1961.95
350.96	1759.21
351.18	1837.03
351.39	1853.41
351.61	1847.27
351.82	1927.14
352.04	1902.56
352.26	1794.02
352.47	1834.98
352.69	1970.15
352.90	1785.83
353.12	1824.74
353.34	1877.99
353.55	1894.37
353.77	1933.28
353.98	1808.36
354.20	1865.70
354.41	1966.05
354.63	1943.52
354.85	1951.71
355.06	1951.71
355.28	1837.03
355.49	1847.27
355.71	1910.75
355.92	1882.08
356.14	1968.10
356.35	1894.37
356.57	1863.65
356.79	1951.71
357.00	1869.80
357.22	1933.28
357.43	1773.54
357.65	1982.43
357.86	1861.60
358.08	1910.75
358.29	1945.57
358.51	1974.24
358.72	1961.95
358.94	1976.29
359.16	1918.95
359.37	2002.91
359.59	1927.14
359.80	2076.64
360.02	1912.80
360.23	1986.53
360.45	2033.63
360.66	1900.52
360.88	1896.42
361.09	1927.14
361.31	1992.67
361.52	1994.72
361.74	1976.29
361.95	2103.26
362.17	1906.66
362.38	2052.06
362.60	2043.87
362.81	2052.06
363.03	1941.47
363.24	1982.43
363.46	2047.97
363.67	2027.49
363.89	2021.35
364.10	2041.82
364.32	1994.72
364.53	2115.55
364.75	1877.99
364.96	2045.92
365.18	2074.59
365.39	1994.72
365.61	2025.44
365.82	2086.88
366.04	2025.44
366.25	1925.09
366.47	2101.22
366.68	2095.07
366.90	2058.21
367.11	2189.28
367.33	2047.97
367.54	2084.83
367.76	2011.11
367.97	2072.54
368.19	2019.30
368.40	2023.39
368.62	1951.71
368.83	2004.96
369.05	2068.45
369.26	2043.87
369.48	2033.63
369.69	2052.06
369.91	2107.36
370.12	2023.39
370.33	2062.30
370.55	1941.47
370.76	1976.29
370.98	2045.92
371.19	2033.63
371.41	1951.71
371.62	2054.11
371.84	2019.30
372.05	2181.09
372.27	2039.78
372.48	2105.31
372.69	2097.12
372.91	2203.61
373.12	2183.13
373.34	2076.64
373.55	2236.38
373.77	2133.98
373.98	2066.40
374.20	2187.23
374.41	2201.57
374.62	2115.55
374.84	2228.19
375.05	2150.37
375.27	2179.04
375.48	2154.46
375.70	2115.55
375.91	2273.25
376.12	2295.77
376.34	2207.71
376.55	2242.53
376.77	2185.18
376.98	2131.94
377.19	2078.69
377.41	2215.90
377.62	2215.90
377.84	2289.63
378.05	2273.25
378.27	2224.09
378.48	2314.20
378.69	2248.67
378.91	2291.68
379.12	2222.05
379.34	2234.33
379.55	2308.06
379.76	2342.88
379.98	2220.00
380.19	2344.92
380.41	2258.91
380.62	2377.69
380.83	2291.68
381.05	2181.09
381.26	2398.17
381.47	2263.01
381.69	2250.72
381.90	2420.70
382.12	2303.96
382.33	2267.10
382.54	2349.02
382.76	2318.30
382.97	2363.36
383.19	2271.20
383.40	2418.65
383.61	2314.20
383.83	2420.70
384.04	2377.69
384.25	2385.88
384.47	2355.16
384.68	2404.32
384.89	2361.31
385.11	2308.06
385.32	2332.64
385.54	2273.25
385.75	2379.74
385.96	2375.64
386.18	2408.41
386.39	2455.51
386.60	2279.39
386.82	2451.42
387.03	2486.23
387.24	2494.43
387.46	2475.99
387.67	2469.85
387.88	2506.71
388.10	2512.86
388.31	2633.69
388.52	2639.83
388.74	2576.34
388.95	2545.63
389.16	2615.26
389.38	2514.91
389.59	2670.55
389.80	2594.78
390.02	2615.26
390.23	2756.57
390.44	2586.58
390.66	2621.40
390.87	2521.05
391.08	2652.12
391.30	2772.95
391.51	2641.88
391.72	2772.95
391.94	2711.51
392.15	2686.94
392.36	2676.70
392.58	2582.49
392.79	2707.41
393.00	2572.25
393.22	2772.95
393.43	2715.61
393.64	2834.39
393.85	2750.42
394.07	2670.55
394.28	2748.37
394.49	2766.81
394.71	2736.09
394.92	2944.98
395.13	2762.71
395.35	2666.46
395.56	2707.41
395.77	2875.35
395.98	2779.09
396.20	2844.63
396.41	2846.68
396.62	2916.31
396.84	2846.68
397.05	2922.45
397.26	2820.05
397.47	3045.33
397.69	2979.79
397.90	3049.43
398.11	2846.68
398.32	2944.98
398.54	2987.99
398.75	2858.96
398.96	2975.70
399.18	3123.15
399.39	3012.56
399.60	3063.76
399.81	2908.12
400.03	2934.74
400.24	3264.46
400.45	3018.71
400.66	3088.34
400.88	3022.80
401.09	3200.98
401.30	3104.72
401.51	3272.65
401.73	3094.48
401.94	3196.88
402.15	3100.62
402.36	3223.50
402.58	3205.07
402.79	3205.07
403.00	3213.26
403.21	3229.65
403.43	3239.89
403.64	3217.36
403.85	3129.30
404.06	3409.87
404.27	3160.02
404.49	3286.99
404.70	3162.06
404.91	3278.80
405.12	3252.17
405.34	3340.24
405.55	3356.62
405.76	3276.75
405.97	3295.18
406.19	3426.25
406.40	3254.22
406.61	3360.72
406.82	3360.72
407.03	3278.80
407.25	3350.48
407.46	3465.16
407.67	3477.45
407.88	3526.60
408.09	3411.92
408.31	3502.03
408.52	3510.22
408.73	3407.82
408.94	3325.90
409.15	3524.55
409.37	3481.55
409.58	3592.14
409.79	3512.27
410.00	3610.57
410.21	3542.99
410.43	3516.36
410.64	3448.78
410.85	3622.86
411.06	3534.79
411.27	3633.10
411.48	3614.66
411.70	3655.62
411.91	3655.62
412.12	3712.97
412.33	3569.61
412.54	3686.34
412.76	3841.99
412.97	3651.53
413.18	3590.09
413.39	3811.27
413.60	3755.97
413.81	3753.93
414.03	3616.71
414.24	3715.02
414.45	3874.76
414.66	3567.56
414.87	3784.65
415.08	3788.74
415.30	3796.93
415.51	3835.85
415.72	3725.26
415.93	3762.12
416.14	3829.70
416.35	3930.05
416.56	3813.32
416.78	3952.58
416.99	3930.05
417.20	3733.45
417.41	3850.18
417.62	3925.96
417.83	3975.11
418.04	3964.87
418.26	3950.53
418.47	3928.00
418.68	4136.90
418.89	4024.26
419.10	4126.66
419.31	4165.57
419.52	4083.65
419.73	4091.84
419.95	4186.05
420.16	4093.89
420.37	4050.88
420.58	4138.94
420.79	4052.93
421.00	4157.38
421.21	4151.23
421.42	4059.07
421.63	4212.67
421.85	4308.93
422.06	4128.70
422.27	4278.21
422.48	4270.01
422.69	4216.77
422.90	4423.61
423.11	4376.51
423.32	4384.70
423.53	4523.96
423.75	4384.70
423.96	4515.77
424.17	4470.72
424.38	4556.73
424.59	4435.90
424.80	4650.94
425.01	4491.20
425.22	4501.44
425.43	4515.77
425.64	4755.38
425.85	4812.73
426.06	4595.64
426.28	4593.59
426.49	4589.50
426.70	4632.51
426.91	4831.16
427.12	4614.07
427.33	4730.81
427.54	4747.19
427.75	4874.17
427.96	4933.56
428.17	4687.80
428.38	4990.90
428.59	4958.13
428.80	4960.18
429.01	4857.78
429.23	4949.94
429.44	5029.81
429.65	4984.76
429.86	5005.24
430.07	4927.41
430.28	4956.08
430.49	5156.79
430.70	5353.39
430.91	4990.90
431.12	5171.12
431.33	5259.18
431.54	5294.00
431.75	5218.22
431.96	5390.25
432.17	5193.65
432.38	5220.27
432.59	5511.08
432.80	5279.66
433.01	5484.46
433.22	5359.53
433.43	5392.30
433.64	5437.36
433.85	5343.15
434.06	5595.05
434.27	5394.35
434.49	5523.37
434.70	5578.67
434.91	5576.62
435.12	5541.80
435.33	5756.84
435.54	5625.77
435.75	5476.27
435.96	5531.56
436.17	5431.21
436.38	5752.74
436.59	5795.75
436.80	5590.95
437.01	5879.72
437.22	5869.48
437.43	5752.74
437.64	5666.73
437.85	5953.45
438.06	5967.78
438.27	5781.42
438.48	5754.79
438.69	5861.29
438.90	5787.56
439.11	5674.92
439.32	6053.80
439.53	5992.36
439.74	5994.40
439.95	6193.06
440.16	6027.17
440.37	6084.52
440.57	5992.36
440.78	5990.31
440.99	6072.23
441.20	6098.85
441.41	5818.28
441.62	6168.48
441.83	6068.13
442.04	6152.10
442.25	6203.30
442.46	6270.88
442.67	6236.06
442.88	6766.49
443.09	6225.82
443.30	6340.51
443.51	6305.70
443.72	6508.44
443.93	6289.31
444.14	6664.09
444.35	6107.04
444.56	6606.75
444.77	6512.54
444.98	6408.09
445.19	6623.13
445.40	6614.94
445.61	6649.75
445.81	6682.52
446.02	6586.27
446.23	6569.88
446.44	6418.33
446.65	6508.44
446.86	6690.71
447.07	6825.88
447.28	6743.96
447.49	6883.22
447.70	6700.95
447.91	6870.94
448.12	6956.95
448.33	6918.04
448.54	6901.65
448.74	6786.97
448.95	6827.93
449.16	6752.15
449.37	7155.60
449.58	6905.75
449.79	7120.79
450.00	7042.96
450.21	7065.49
450.42	7045.01
450.63	7061.40
450.84	7217.04
451.05	7243.67
451.25	7065.49
451.46	7024.53
451.67	7468.94
451.88	7473.04
452.09	7423.89
452.30	7149.46
452.51	7235.47
452.72	7530.38
452.93	7663.50
453.13	7325.58
453.34	7186.32
453.55	7473.04
453.76	7354.26
453.97	7823.24
454.18	7683.98
454.39	7835.53
454.60	7649.16
454.81	7638.92
455.01	7884.68
455.22	7628.68
455.43	7757.71
455.64	7937.93
455.85	8099.72
456.06	8281.99
456.27	8134.53
456.48	7989.13
456.68	7962.50
456.89	8146.82
457.10	8183.68
457.31	8140.68
457.52	8044.42
457.73	8251.27
457.94	8347.52
458.14	8114.05
458.35	8638.33
458.56	8396.67
458.77	8441.73
458.98	8583.04
459.19	8540.03
459.39	8671.10
459.60	8720.25
459.81	8572.80
460.02	8804.22
460.23	8521.60
460.44	9072.50
460.65	9027.45
460.85	8808.31
461.06	9047.93
461.27	8847.22
461.48	9133.94
461.69	9070.45
461.89	8955.77
462.10	9211.76
462.31	8970.10
462.52	9191.28
462.73	9224.05
462.94	9359.22
463.14	9469.81
463.35	9297.78
463.56	9815.91
463.77	9621.36
463.98	9439.09
464.18	9662.32
464.39	9604.97
464.60	9967.46
464.81	9891.69
465.02	9736.04
465.23	9973.61
465.43	9969.51
465.64	10000.23
465.85	9938.79
466.06	10178.40
466.27	10301.28
466.47	10295.14
466.68	10465.12
466.89	10252.13
467.10	10245.99
467.30	10209.12
467.51	10467.17
467.72	10729.31
467.93	10149.73
468.14	10532.70
468.34	10774.36
468.55	10688.35
468.76	10817.37
468.97	10649.44
469.17	11044.70
469.38	11056.98
469.59	11173.72
469.80	11186.01
470.01	11069.27
470.21	11059.03
470.42	11347.79
470.63	11634.51
470.84	11282.26
471.04	11585.36
471.25	11515.73
471.46	11415.38
471.67	11820.88
471.87	11851.60
472.08	11734.86
472.29	12164.93
472.50	11607.89
472.70	11937.61
472.91	12164.93
473.12	12492.61
473.33	12298.05
473.53	12410.69
473.74	12666.69
473.95	12697.41
474.16	12887.87
474.36	12525.38
474.57	12851.00
474.78	13025.08
474.99	12744.51
475.19	12734.27
475.40	13346.61
475.61	13244.21
475.81	13311.80
476.02	13625.14
476.23	13336.37
476.44	13598.51
476.64	13602.61
476.85	13610.80
477.06	13465.39
477.27	14020.39
477.47	14065.45
477.68	14053.16
477.89	14296.87
478.09	14378.79
478.30	14448.42
478.51	14493.47
478.71	14559.01
478.92	14636.83
479.13	14745.38
479.34	15142.68
479.54	14909.21
479.75	15015.71
479.96	15140.63
480.16	15150.87
480.37	15402.77
480.58	15189.78
480.78	15652.63
480.99	15599.38
481.20	15755.02
481.41	15834.89
481.61	15955.72
481.82	16094.99
482.03	16117.51
482.23	16125.71
482.44	16224.01
482.65	16469.76
482.85	16699.14
483.06	16320.26
483.27	16582.40
483.47	16545.54
483.68	16750.34
483.89	17024.76
484.09	16983.80
484.30	16967.42
484.51	17047.29
484.71	17295.10
484.92	17295.10
485.13	17436.41
485.33	17479.41
485.54	17553.14
485.75	17860.34
485.95	17970.93
486.16	17915.63
486.37	18214.63
486.57	17905.39
486.78	18276.07
486.98	18013.93
487.19	18482.92
487.40	18542.31
487.60	18396.90
487.81	18618.08
488.02	18575.08
488.22	18896.61
488.43	18974.43
488.64	19117.79
488.84	18869.98
489.05	19218.14
489.25	19164.89
489.46	19617.49
489.67	19357.40
489.87	19816.15
490.08	19588.82
490.29	19793.62
490.49	20041.42
490.70	20106.96
490.90	20102.86
491.11	20248.27
491.32	20176.59
491.52	20440.78
491.73	20506.31
491.94	20252.36
492.14	20446.92
492.35	20664.00
492.55	20694.72
492.76	20768.45
492.97	21333.69
493.17	20936.38
493.38	21122.75
493.58	21403.32
493.79	21622.45
494.00	21071.55
494.20	21548.73
494.41	21735.09
494.61	21630.65
494.82	21763.76
495.02	21507.77
495.23	22152.88
495.44	22288.04
495.64	22156.97
495.85	21837.49
496.05	22171.31
496.26	22013.62
496.47	22578.86
496.67	22359.72
496.88	22707.88
497.08	22355.63
497.29	22574.76
497.49	22908.58
497.70	22908.58
497.91	23039.65
498.11	22941.35
498.32	23140.00
498.52	23064.22
498.73	23674.52
498.93	23393.95
499.14	23477.91
499.34	23281.31
499.55	23936.66
499.76	23785.11
499.96	23821.97
500.17	23774.87
500.37	23590.55
500.58	24127.12
500.78	24135.31
500.99	24149.65
501.19	24348.30
501.40	24155.79
501.60	24006.29
501.81	24321.68
502.02	24385.16
502.22	24256.14
502.43	24831.62
502.63	24786.57
502.84	24907.40
503.04	24905.35
503.25	24934.02
503.45	24741.51
503.66	25353.85
503.86	25212.54
504.07	25620.09
504.27	24977.03
504.48	25833.08
504.68	25579.13
504.89	25642.62
505.09	25599.61
505.30	25605.75
505.50	25785.97
505.71	25683.58
505.91	25628.28
506.12	25988.72
506.32	25822.84
506.53	26068.59
506.73	26058.35
506.94	26431.08
507.14	26365.55
507.35	26805.86
507.55	26379.89
507.76	26574.44
507.96	26435.18
508.17	26185.33
508.37	26508.91
508.58	26666.60
508.78	26623.59
508.99	26754.66
509.19	26861.16
509.40	27002.47
509.60	26803.82
509.81	27143.78
510.01	26740.33
510.22	26859.11
510.42	27203.17
510.63	27256.42
510.83	27272.80
511.04	27381.34
511.24	27289.18
511.44	27623.00
511.65	27657.82
511.85	27338.33
512.06	27696.73
512.26	27737.69
512.47	27686.49
512.67	27780.70
512.88	27960.92
513.08	27760.22
513.29	27881.05
513.49	27829.85
513.69	27940.44
513.90	28069.46
514.10	28143.19
514.31	28431.95
514.51	28227.15
514.72	28282.45
514.92	28434.00
515.13	28399.18
515.33	28286.54
515.53	28567.12
515.74	28552.78
515.94	28677.71
516.15	28687.95
516.35	28634.70
516.56	28843.59
516.76	28544.59
516.96	28859.98
517.17	29341.25
517.37	29046.34
517.58	29050.44
517.78	28896.84
517.99	29285.95
518.19	29177.41
518.39	29640.25
518.60	29822.52
518.80	29496.89
519.01	29709.88
519.21	29613.63
519.41	30199.35
519.62	29965.88
519.82	30037.56
520.03	30103.09
520.23	29759.03
520.43	29748.79
520.64	30133.81
520.84	30307.89
521.05	30471.73
521.25	30246.45
521.45	30506.54
521.66	30586.41
521.86	30633.52
522.07	30764.59
522.27	30760.49
522.47	30494.25
522.68	30885.42
522.88	30877.22
523.08	31331.87
523.29	30957.10
523.49	31012.39
523.70	31307.30
523.90	31438.37
524.10	31335.97
524.31	31428.13
524.51	31389.22
524.71	31598.11
524.92	31573.53
525.12	32239.12
525.33	31647.26
525.53	32009.75
525.73	32069.14
525.94	32458.26
526.14	32253.46
526.34	32392.72
526.55	32679.44
526.75	32448.02
526.95	32912.91
527.16	32482.83
527.36	32527.89
527.56	33043.98
527.77	32894.47
527.97	32865.80
528.17	33154.57
528.38	33330.69
528.58	33017.35
528.78	33275.40
528.99	33289.73
529.19	33631.74
529.39	33328.64
529.60	33865.21
529.80	33426.95
530.00	33854.97
530.21	33904.12
530.41	34190.84
530.61	33885.69
530.82	34223.61
531.02	34047.48
531.22	34201.08
531.43	34000.38
531.63	34618.86
531.83	34655.73
532.04	35503.59
532.24	34717.17
532.44	34862.57
532.64	35298.79
532.85	35063.27
533.05	35005.93
533.25	35388.90
533.46	35358.18
533.66	35735.01
533.86	35538.40
534.07	35921.37
534.27	35526.11
534.47	36083.16
534.67	35782.11
534.88	36175.32
535.08	35954.14
535.28	36206.04
535.49	36470.23
535.69	36672.98
535.89	36541.91
536.09	36818.38
536.30	36898.25
536.50	36998.60
536.70	37049.80
536.91	37037.51
537.11	36980.17
537.31	37156.30
537.51	37508.55
537.72	37610.95
537.92	37631.43
538.12	37905.85
538.32	37500.36
538.53	37873.09
538.73	37426.63
538.93	37815.74
539.13	37797.31
539.34	37965.24
539.54	37735.87
539.74	38409.65
539.94	38282.68
540.15	38305.21
540.35	38362.55
540.55	38317.50
540.75	38376.89
540.96	38849.97
541.16	38512.05
541.36	38677.94
541.56	39222.70
541.77	39204.27
541.97	38667.70
542.17	39105.96
542.37	39368.10
542.58	39194.03
542.78	39204.27
542.98	39048.62
543.18	39378.34
543.38	39904.67
543.59	39828.90
543.79	39470.50
543.99	39253.42
544.19	39828.90
544.40	39597.48
544.60	40291.74
544.80	39957.92
545.00	40054.17
545.20	40486.29
545.41	40226.20
545.61	40467.86
545.81	40314.26
546.01	40641.94
546.21	40490.39
546.42	40195.48
546.62	40889.74
546.82	40301.98
547.02	40707.47
547.22	41072.01
547.43	40797.59
547.63	40908.18
547.83	40738.19
548.03	41061.77
548.23	41223.56
548.44	40940.94
548.64	40938.90
548.84	41309.58
549.04	40926.61
549.24	41624.96
549.45	41637.25
549.65	41436.55
549.85	41471.37
550.05	41465.22
550.25	41622.92
550.45	41801.09
550.66	42018.17
550.86	41643.40
551.06	42073.47
551.26	41911.68
551.46	42585.46
551.66	42210.68
551.87	42419.58
552.07	42003.84
552.27	42505.59
552.47	42192.25
552.67	42243.45
552.87	42304.89
553.07	42743.16
553.28	42423.67
553.48	42651.00
553.68	42421.62
553.88	43103.60
554.08	42792.31
554.28	43054.45
554.48	42548.60
554.69	42941.81
554.89	42874.23
555.09	42759.54
555.29	42837.36
555.49	43265.39
555.69	43144.56
555.89	43449.70
556.10	43455.85
556.30	43136.37
556.50	43464.04
556.70	42972.53
556.90	43081.07
557.10	43767.14
557.30	43408.75
557.50	43408.75
557.70	43455.85
557.91	43631.97
558.11	43627.88
558.31	43992.42
558.51	43064.69
558.71	43681.13
558.91	44025.18
559.11	44180.83
559.31	43717.99
559.51	43488.62
559.72	44189.02
559.92	43808.10
560.12	44162.40
560.32	44438.87
560.52	44320.09
560.72	43883.87
560.92	44332.38
561.12	44391.77
561.32	44479.83
561.52	44070.24
561.72	44586.33
561.93	44406.11
562.13	44756.31
562.33	44283.23
562.53	44985.68
562.73	44367.20
562.93	44528.98
563.13	44637.53
563.33	44584.28
563.53	44930.39
563.73	44359.00
563.93	44600.66
564.13	45198.67
564.33	44854.61
564.53	44670.29
564.74	45172.05
564.94	45075.79
565.14	45059.41
565.34	44668.25
565.54	44959.06
565.74	45223.25
565.94	45139.28
566.14	45215.05
566.34	45141.33
566.54	45677.90
566.74	45217.10
566.94	45213.01
567.14	45137.23
567.34	45202.77
567.54	45520.20
567.74	45016.40
567.94	45503.82
568.14	45770.05
568.34	45757.77
568.54	45569.35
568.74	45638.98
568.94	45589.83
569.14	45964.61
569.34	45888.84
569.54	45970.75
569.75	45612.36
569.95	45905.22
570.15	46794.04
570.35	46388.54
570.55	46216.51
570.75	45790.53
570.95	45970.75
571.15	46441.79
571.35	46642.49
571.55	46572.86
571.75	46155.07
571.95	46929.20
572.15	46282.05
572.35	46576.95
572.55	46552.38
572.75	46533.95
572.95	46337.34
573.15	46814.52
573.35	46961.97
573.55	46472.51
573.75	46716.22
573.95	47117.62
574.15	46857.52
574.35	46906.68
574.55	47074.61
574.75	46839.09
574.95	46976.31
575.15	46718.26
575.34	47105.33
575.54	47070.51
575.74	47615.27
575.94	47367.47
576.14	47342.89
576.34	47129.90
576.54	47435.05
576.74	47666.47
576.94	47463.72
577.14	47654.18
577.34	48262.43
577.54	47326.51
577.74	47547.69
577.94	47789.35
578.14	48229.66
578.34	47815.97
578.54	47564.07
578.74	47715.62
578.94	47959.33
579.14	47815.97
579.34	48284.96
579.54	48293.15
579.74	48440.60
579.94	48461.08
580.13	48676.12
580.33	48698.65
580.53	48295.20
580.73	48467.23
580.93	48674.07
581.13	48801.05
581.33	49036.56
581.53	48516.38
581.73	48665.88
581.93	49143.06
582.13	49083.67
582.33	48985.36
582.53	49007.89
582.73	49433.87
582.92	49091.86
583.12	49249.55
583.32	49304.85
583.52	48831.77
583.72	49315.09
583.92	49421.58
584.12	49337.62
584.32	49521.93
584.52	49249.55
584.72	49640.71
584.92	49704.20
585.11	50017.54
585.31	49677.58
585.51	50089.22
585.71	49825.03
585.91	50060.55
586.11	49849.61
586.31	49825.03
586.51	49956.10
586.71	50019.59
586.91	49909.00
587.10	50445.57
587.30	50558.20
587.50	50691.32
587.70	50377.98
587.90	50224.39
588.10	50476.29
588.30	50341.12
588.50	50744.57
588.69	50357.50
588.89	50840.82
589.09	50898.17
589.29	50779.39
589.49	51498.22
589.69	50756.86
589.89	51029.24
590.08	50924.79
590.28	50894.07
590.48	50836.73
590.68	51229.94
590.88	51363.06
591.08	51033.33
591.28	51186.93
591.47	51938.54
591.67	51205.36
591.87	51320.05
592.07	51258.61
592.27	51295.47
592.47	51430.64
592.67	51094.77
592.86	50980.09
593.06	51758.31
593.26	51602.67
593.46	51948.78
593.66	51705.07
593.86	51797.23
594.05	51879.14
594.25	51997.93
594.45	51852.52
594.65	51780.84
594.85	51377.39
595.05	52106.47
595.24	52202.72
595.44	52188.39
595.64	51934.44
595.84	52272.35
596.04	52286.69
596.23	52606.17
596.43	52856.03
596.63	52511.97
596.83	52782.30
597.03	53169.36
597.22	52909.27
597.42	52628.70
597.62	53142.74
597.82	52972.76
598.02	52669.66
598.21	53185.75
598.41	52786.39
598.61	52712.67
598.81	52839.64
599.01	53181.65
599.20	53304.53
599.40	52851.93
599.60	53302.48
599.80	53105.88
600.00	52950.23
600.19	53454.03
600.39	53257.43
600.59	53724.36
600.79	53744.84
600.98	53839.05
601.18	53728.46
601.38	53705.93
601.58	53466.32
601.78	53699.79
601.97	53531.86
602.17	54330.56
602.37	54129.86
602.57	54039.75
602.76	54486.21
602.96	53888.20
603.16	53925.07
603.36	54179.01
603.55	54707.39
603.75	54670.53
603.95	54373.57
604.15	54525.12
604.34	54518.98
604.54	54811.84
604.74	54629.57
604.94	54918.33
605.13	54826.17
605.33	55159.99
605.53	54244.55
605.73	54998.20
605.92	54787.26
606.12	54764.73
606.32	54992.06
606.52	54912.19
606.71	54916.28
606.91	55506.10
607.11	55239.86
607.30	55409.84
607.50	55125.17
607.70	55665.84
607.90	55006.39
608.09	55178.42
608.29	55207.09
608.49	55907.50
608.68	55178.42
608.88	55559.34
609.08	55364.79
609.28	55721.13
609.47	55510.19
609.67	56091.82
609.87	55473.33
610.06	56091.82
610.26	55864.49
610.46	56022.19
610.66	55231.67
610.85	56120.49
611.05	55510.19
611.25	56276.13
611.44	55831.72
611.64	55923.88
611.84	55936.17
612.03	55227.57
612.23	55860.40
612.43	56235.17
612.62	56005.80
612.82	55731.37
613.02	55964.84
613.21	56442.02
613.41	55712.94
613.61	56294.56
613.80	55280.82
614.00	55770.28
614.20	56212.65
614.39	56386.72
614.59	56605.86
614.79	56243.37
614.98	56235.17
615.18	56196.26
615.38	56452.26
615.57	55923.88
615.77	56444.07
615.97	56274.09
616.16	56038.57
616.36	56317.09
616.56	56204.45
616.75	56761.50
616.95	55882.92
617.15	56253.61
617.34	56186.02
617.54	56106.15
617.74	56659.10
617.93	56655.01
618.13	56091.82
618.32	56493.22
618.52	55876.78
618.72	56321.19
618.91	56464.55
619.11	56341.67
619.31	56485.03
619.50	55944.36
619.70	56052.90
619.90	56591.52
620.09	56044.71
620.29	56032.42
620.48	56267.94
620.68	56599.71
620.88	56143.02
621.07	56335.52
621.27	55962.79
621.46	55731.37
621.66	55946.41
621.86	56044.71
622.05	55973.03
622.25	56530.08
622.44	56057.00
622.64	56204.45
622.84	56267.94
623.03	55608.50
623.23	56003.75
623.42	56720.54
623.62	55864.49
623.82	56448.16
624.01	56222.89
624.21	56564.90
624.40	56401.06
624.60	56173.73
624.80	56243.37
624.99	56294.56
625.19	56102.06
625.38	56788.13
625.58	56009.90
625.77	56284.33
625.97	56579.23
626.17	55864.49
626.36	56374.44
626.56	56507.55
626.75	55760.05
626.95	56542.37
627.14	56165.54
627.34	56747.17
627.54	56229.03
627.73	56157.35
627.93	56059.05
628.12	56110.25
628.32	56454.31
628.51	56472.74
628.71	56591.52
628.90	56315.04
629.10	56200.36
629.30	56595.62
629.49	56243.37
629.69	56382.63
629.88	56321.19
630.08	56677.54
630.27	56646.82
630.47	56276.13
630.66	56298.66
630.86	56591.52
631.05	56163.50
631.25	56534.18
631.44	56525.99
631.64	56345.76
631.84	56554.66
632.03	57136.28
632.23	56468.64
632.42	57064.60
632.62	56157.35
632.81	55985.32
633.01	56560.80
633.20	56679.58
633.40	57013.40
633.59	56788.13
633.79	56210.60
633.98	56454.31
634.18	56960.15
634.37	56603.81
634.57	56427.68
634.76	56552.61
634.96	56714.40
635.15	56863.90
635.35	56655.01
635.54	56147.11
635.74	56675.49
635.93	56054.95
636.13	56831.13
636.32	56757.41
636.52	56693.92
636.71	56741.02
636.91	56827.04
637.10	56890.52
637.30	56644.77
637.49	56808.61
637.69	56331.43
637.88	56939.68
638.08	56710.30
638.27	57152.66
638.46	56542.37
638.66	56882.33
638.85	56671.39
639.05	57097.37
639.24	57232.53
639.44	56837.28
639.63	57134.23
639.83	56876.19
640.02	56790.17
640.22	56951.96
640.41	57146.52
640.61	56396.96
640.80	56802.46
640.99	56614.05
641.19	57341.08
641.38	57160.86
641.58	57017.50
641.77	56716.45
641.97	56497.31
642.16	56878.24
642.36	57271.45
642.55	57509.01
642.74	56747.17
642.94	57308.31
643.13	57029.79
643.33	57482.39
643.52	57423.00
643.72	56978.59
643.91	57316.50
644.10	57054.36
644.30	57758.86
644.49	57068.70
644.69	57119.90
644.88	57320.60
645.08	57230.49
645.27	57314.45
645.46	56650.91
645.66	57775.25
645.85	57377.94
646.05	57193.62
646.24	57820.30
646.43	57336.98
646.63	57877.64
646.82	57652.37
647.02	57654.42
647.21	57846.93
647.40	57179.29
647.60	58064.01
647.79	57627.79
647.99	57777.29
648.18	57259.16
648.37	58283.14
648.57	57812.11
648.76	57814.16
648.96	57539.73
649.15	57900.17
649.34	58313.86
649.54	57926.80
649.73	57549.97
649.92	58182.79
650.12	57595.03
650.31	57934.99
650.51	57980.04
650.70	58023.05
650.89	57961.61
651.09	58619.01
651.28	57719.95
651.47	58006.67
651.67	57857.17
651.86	58610.82
652.06	57611.41
652.25	57945.23
652.44	58029.19
652.64	58037.39
652.83	58315.91
653.02	58143.88
653.22	58422.40
653.41	57584.79
653.60	57732.24
653.80	57767.05
653.99	58190.98
654.18	57904.27
654.38	57748.62
654.57	57996.43
654.76	58098.83
654.96	57519.25
655.15	57816.21
655.34	58166.41
655.54	57670.80
655.73	58176.65
655.92	58195.08
656.12	58098.83
656.31	58373.25
656.50	58023.05
656.70	58352.77
656.89	58127.50
657.08	58174.60
657.28	58182.79
657.47	57910.41
657.66	58379.40
657.86	58291.33
658.05	58365.06
658.24	58139.78
658.43	58250.38
658.63	58571.91
658.82	58240.14
659.01	58477.70
659.21	58768.51
659.40	58455.17
659.59	58162.31
659.79	58442.88
659.98	58424.45
660.17	58684.54
660.36	58356.87
660.56	58363.01
660.75	58866.81
660.94	58586.24
661.14	58369.16
661.33	58397.83
661.52	58209.42
661.71	58444.93
661.91	58442.88
662.10	58272.90
662.29	58848.38
662.49	58406.02
662.68	58457.22
662.87	58848.38
663.06	58664.06
663.26	58360.97
663.45	58811.52
663.64	58492.04
663.83	58670.21
664.03	58885.25
664.22	58307.72
664.41	58440.84
664.60	58328.20
664.80	58754.18
664.99	58604.67
665.18	57924.75
665.37	58283.14
665.57	58666.11
665.76	58014.86
665.95	58227.85
666.14	58750.08
666.34	58279.05
666.53	58498.18
666.72	58438.79
666.91	58344.58
667.11	57947.28
667.30	58555.52
667.49	58176.65
667.68	58229.90
667.87	58369.16
668.07	58506.37
668.26	58213.51
668.45	58807.42
668.64	57799.82
668.84	58868.86
669.03	58688.64
669.22	58217.61
669.41	58387.59
669.60	58639.49
669.80	57957.52
669.99	58553.47
670.18	58137.74
670.37	58131.59
670.57	58762.37
670.76	58156.17
670.95	58647.68
671.14	58432.64
671.33	58303.62
671.53	58758.27
671.72	58494.08
671.91	58164.36
672.10	58363.01
672.29	58600.58
672.48	58193.03
672.68	58803.33
672.87	58260.62
673.06	57988.24
673.25	57779.34
673.44	58389.64
673.64	58082.44
673.83	58344.58
674.02	58160.26
674.21	57934.99
674.40	58483.84
674.59	57975.95
674.79	58250.38
674.98	57926.80
675.17	58424.45
675.36	57830.54
675.55	58670.21
675.74	58598.53
675.94	58074.25
676.13	58387.59
676.32	58088.59
676.51	58358.92
676.70	58440.84
676.89	58150.02
677.08	58827.90
677.28	57756.81
677.47	58496.13
677.66	58705.02
677.85	58094.73
678.04	58492.04
678.23	58127.50
678.42	58430.60
678.62	58217.61
678.81	58381.45
679.00	58383.49
679.19	58700.93
679.38	57998.48
679.57	58244.23
679.76	58152.07
679.96	58207.37
680.15	58330.25
680.34	57730.19
680.53	57812.11
680.72	58197.13
680.91	58193.03
681.10	57496.72
681.29	58375.30
681.48	57894.03
681.68	57955.47
681.87	57916.56
682.06	57801.87
682.25	57881.74
682.44	57947.28
682.63	57474.20
682.82	57494.67
683.01	57760.91
683.20	57388.18
683.39	57699.47
683.59	57861.26
683.78	57742.48
683.97	57296.02
684.16	57586.83
684.35	57650.32
684.54	57627.79
684.73	57715.86
684.92	57461.91
685.11	57670.80
685.30	57369.75
685.49	57431.19
685.69	57674.90
685.88	57867.40
686.07	57056.41
686.26	57140.38
686.45	57476.24
686.64	57578.64
686.83	57355.41
687.02	57339.03
687.21	57738.38
687.40	57396.37
687.59	56992.92
687.78	57334.93
687.97	57494.67
688.16	57324.69
688.35	57382.04
688.54	56956.06
688.74	57107.61
688.93	57046.17
689.12	57457.81
689.31	57633.94
689.50	57107.61
689.69	56796.32
689.88	56759.45
690.07	57705.62
690.26	57062.55
690.45	57257.11
690.64	57099.42
690.83	56931.48
691.02	56841.37
691.21	57212.06
691.40	56933.53
691.59	57267.35
691.78	56859.80
691.97	56720.54
692.16	56693.92
692.35	57156.76
692.54	56689.82
692.73	57257.11
692.92	57048.22
693.11	56968.35
693.30	56685.73
693.49	57029.79
693.68	56685.73
693.87	56663.20
694.06	56718.49
694.25	56321.19
694.44	56564.90
694.63	56497.31
694.82	56138.92
695.01	56159.40
695.20	56399.01
695.39	56188.07
695.58	56505.51
695.77	55889.07
695.96	56214.69
696.15	56501.41
696.34	56259.75
696.53	56456.35
696.72	56337.57
696.91	55702.70
697.10	56145.06
697.29	56065.19
697.48	56161.45
697.67	56212.65
697.86	55538.86
698.05	55717.04
698.24	56009.90
698.43	55805.10
698.62	56198.31
698.81	55628.98
699.00	56216.74
699.19	55012.54
699.38	55784.62
699.57	55547.06
699.76	56114.34
699.95	55383.22
700.14	55194.81
700.32	55555.25
700.51	55612.59
700.70	56042.66
700.89	55481.52
701.08	55801.00
701.27	55571.63
701.46	55788.72
701.65	54975.67
701.84	55178.42
702.03	55383.22
702.22	55780.52
702.41	55155.89
702.60	56052.90
702.79	55018.68
702.98	54887.61
703.17	55235.77
703.35	55121.08
703.54	54799.55
703.73	55491.76
703.92	55192.76
704.11	55368.88
704.30	54959.29
704.49	55325.88
704.68	54670.53
704.87	54906.04
705.06	55186.61
705.25	54619.33
705.43	54805.69
705.62	55157.94
705.81	55362.74
706.00	55248.05
706.19	54516.93
706.38	54426.82
706.57	54678.72
706.76	54543.55
706.95	54658.24
707.14	54641.85
707.32	54572.22
707.51	54207.68
707.70	54555.84
707.89	54523.07
708.08	54385.86
708.27	54529.22
708.46	54938.81
708.65	54609.09
708.84	54795.45
709.02	54758.59
709.21	54174.92
709.40	54047.94
709.59	54394.05
709.78	54179.01
709.97	53941.45
710.16	54013.13
710.34	54363.33
710.53	54152.39
710.72	54043.85
710.91	54080.71
711.10	54136.01
711.29	54236.36
711.48	54138.05
711.66	53892.30
711.85	53615.82
712.04	53906.63
712.23	53757.13
712.42	53908.68
712.61	53886.15
712.80	53892.30
712.98	53679.31
713.17	53572.81
713.36	53615.82
713.55	53634.25
713.74	53742.80
713.93	53988.55
714.11	53501.14
714.30	53081.30
714.49	53265.62
714.68	53523.66
714.87	53343.44
715.06	53433.55
715.24	53245.14
715.43	53384.40
715.62	53314.77
715.81	53073.11
716.00	53236.95
716.18	52999.38
716.37	52172.00
716.56	52733.15
716.75	53546.19
716.94	53228.76
717.12	53064.92
717.31	52888.79
717.50	52727.00
717.69	52946.14
717.88	52774.11
718.06	52978.90
718.25	52663.52
718.44	52499.68
718.63	52311.27
718.82	52366.56
719.00	52614.37
719.19	52081.89
719.38	52495.58
719.57	52133.09
719.76	51975.40
719.94	52270.31
720.13	52149.48
720.32	51696.88
720.51	51893.48
720.69	52028.65
720.88	52012.26
721.07	51657.96
721.26	51434.74
721.44	51774.70
721.63	51188.98
721.82	51172.60
722.01	51266.80
722.20	51897.58
722.38	51033.33
722.57	50941.17
722.76	51262.71
722.95	51352.82
723.13	50683.13
723.32	51152.12
723.51	50859.26
723.70	51442.93
723.88	51172.60
724.07	51039.48
724.26	51150.07
724.44	50208.00
724.63	50693.37
724.82	50957.56
725.01	50482.43
725.19	50396.42
725.38	50910.46
725.57	50466.05
725.76	50742.52
725.94	50380.03
726.13	50519.29
726.32	50107.65
726.51	50009.35
726.69	50793.72
726.88	50269.44
727.07	50423.04
727.25	50380.03
727.44	50324.74
727.63	50232.58
727.82	50457.85
728.00	50234.63
728.19	50390.27
728.38	50361.60
728.56	49673.48
728.75	50035.97
728.94	49947.91
729.12	50068.74
729.31	50238.72
729.50	50287.87
729.69	49956.10
729.87	50083.08
730.06	49820.94
730.25	49782.02
730.43	50533.63
730.62	50009.35
730.81	50040.07
730.99	50328.83
731.18	49962.25
731.37	50050.31
731.55	50300.16
731.74	50093.32
731.93	49995.01
732.11	50353.41
732.30	50185.47
732.49	49720.59
732.67	50349.31
732.86	49900.81
733.05	50052.36
733.23	49919.24
733.42	50072.84
733.61	49992.97
733.79	50001.16
733.98	50216.19
734.17	49532.17
734.35	49642.76
734.54	49736.97
734.73	49679.63
734.91	49642.76
735.10	49601.80
735.29	49403.15
735.47	49022.23
735.66	49687.82
735.84	49507.60
736.03	49202.45
736.22	49796.36
736.40	49603.85
736.59	49224.98
736.78	49415.44
736.96	49284.37
737.15	49618.19
737.33	49368.33
737.52	49599.76
737.71	49380.62
737.89	49464.59
738.08	48889.11
738.27	49171.73
738.45	49526.03
738.64	49468.69
738.82	48956.69
739.01	49282.32
739.20	48827.67
739.38	48973.08
739.57	49505.55
739.75	49122.58
739.94	48872.73
740.13	49001.75
740.31	48829.72
740.50	48790.81
740.68	49081.62
740.87	49171.73
741.06	49005.84
741.24	48510.24
741.43	48639.26
741.61	48672.03
741.80	48540.96
741.99	48674.07
742.17	48200.99
742.36	49042.71
742.54	48710.94
742.73	48463.13
742.91	48829.72
743.10	48661.79
743.29	48788.76
743.47	48633.11
743.66	48403.74
743.84	48665.88
744.03	48528.67
744.21	48332.06
744.40	48708.89
744.59	48065.83
744.77	48129.31
744.96	48309.53
745.14	48051.49
745.33	48463.13
745.51	47881.51
745.70	48026.92
745.88	47672.62
746.07	47856.93
746.26	47766.82
746.44	47775.02
746.63	47887.65
746.81	48059.68
747.00	47641.90
747.18	47574.31
747.37	47916.32
747.55	47906.08
747.74	47863.08
747.92	47519.02
748.11	47732.01
748.29	47430.96
748.48	47586.60
748.66	47437.10
748.85	47801.64
749.03	47762.73
749.22	47842.60
749.41	47547.69
749.59	47629.61
749.78	47093.04
749.96	47103.28
750.15	47402.28
750.33	47445.29
750.52	46980.40
750.70	47283.50
750.89	47191.34
751.07	47234.35
751.26	47109.43
751.44	46777.65
751.63	47033.65
751.81	46921.01
752.00	46902.58
752.18	47183.15
752.37	46644.54
752.55	46898.48
752.74	46832.95
752.92	46636.34
753.10	46538.04
753.29	46738.74
753.47	46894.39
753.66	46241.09
753.84	46880.05
754.03	46628.15
754.21	46398.78
754.40	46980.40
754.58	46374.20
754.77	46384.44
754.95	46341.44
755.14	46628.15
755.32	46261.57
755.51	46366.01
755.69	46099.78
755.88	45792.58
756.06	46527.80
756.24	46241.09
756.43	46064.96
756.61	46171.46
756.80	46042.43
756.98	46042.43
757.17	45655.37
757.35	45827.40
757.54	45819.20
757.72	46132.54
757.90	46103.87
758.09	45862.21
758.27	45587.78
758.46	45722.95
758.64	45294.92
758.83	45860.16
759.01	45458.76
759.19	45243.73
759.38	45694.28
759.56	45770.05
759.75	45352.27
759.93	45444.43
760.12	45016.40
760.30	45278.54
760.48	45159.76
760.67	45213.01
760.85	44983.63
761.04	45120.85
761.22	45425.99
761.40	45325.64
761.59	45425.99
761.77	44803.41
761.96	45028.69
762.14	44784.98
762.32	44766.55
762.51	44795.22
762.69	44649.81
762.88	44356.96
763.06	45407.56
763.24	44748.12
763.43	45081.94
763.61	44612.95
763.80	44707.16
763.98	44662.10
764.16	44160.35
764.35	44295.52
764.53	43908.45
764.72	44342.62
764.90	44547.42
765.08	44232.03
765.27	44023.14
765.45	43904.35
765.63	43677.03
765.82	44033.38
766.00	43810.15
766.18	43502.95
766.37	44219.74
766.55	43973.98
766.74	43855.20
766.92	43425.13
767.10	44113.25
767.29	43607.40
767.47	43261.29
767.65	43808.10
767.84	43388.27
768.02	43724.13
768.20	43406.70
768.39	43480.42
768.57	43066.73
768.75	43699.56
768.94	43265.39
769.12	43556.20
769.30	42982.77
769.49	43222.38
769.67	43154.80
769.85	42749.30
770.04	42837.36
770.22	42630.52
770.40	42456.44
770.59	42687.86
770.77	42847.60
770.95	43095.41
771.14	42581.37
771.32	42540.41
771.50	42739.06
771.69	42800.50
771.87	42603.89
772.05	42532.22
772.24	42116.48
772.42	42718.58
772.60	42012.03
772.78	42349.95
772.97	42356.09
773.15	42470.78
773.33	42155.39
773.52	42175.87
773.70	42202.49
773.88	42407.29
774.07	41989.50
774.25	41864.58
774.43	42061.18
774.61	42151.29
774.80	42550.65
774.98	42169.72
775.16	42192.25
775.34	42282.36
775.53	42003.84
775.71	42384.76
775.89	42431.86
776.08	42360.19
776.26	42278.27
776.44	42306.94
776.62	42102.14
776.81	42259.84
776.99	42536.31
777.17	42483.06
777.35	42528.12
777.54	42472.82
777.72	42020.22
777.90	42319.23
778.08	42100.09
778.27	42474.87
778.45	42292.60
778.63	42571.13
778.81	42069.37
779.00	42835.31
779.18	42712.44
779.36	43058.54
779.54	42898.80
779.73	42646.90
779.91	42612.09
780.09	42622.33
780.27	42702.20
780.46	42657.14
780.64	42950.00
780.82	42714.48
781.00	42714.48
781.19	43048.30
781.37	43185.52
781.55	43281.77
781.73	43238.76
781.91	42728.82
782.10	42909.04
782.28	43242.86
782.46	42892.66
782.64	43480.42
782.82	42861.94
783.01	43085.17
783.19	43038.06
783.37	43232.62
783.55	42898.80
783.74	43044.21
783.92	42923.38
784.10	43910.50
784.28	43154.80
784.46	42947.95
784.64	42773.88
784.83	43144.56
785.01	43216.24
785.19	42956.14
785.37	43365.74
785.55	42859.89
785.74	43040.11
785.92	42902.90
786.10	42851.70
786.28	43048.30
786.46	42753.40
786.64	42493.30
786.83	42825.07
787.01	42829.17
787.19	42685.81
787.37	43079.02
787.55	42526.07
787.74	42483.06
787.92	42235.26
788.10	42268.03
788.28	42415.48
788.46	42257.79
788.64	42050.94
788.82	42974.58
789.01	42374.52
789.19	42218.88
789.37	41803.14
789.55	41895.30
789.73	42003.84
789.91	41571.72
790.09	42196.35
790.28	41854.34
790.46	41278.86
790.64	42124.67
790.82	41837.95
791.00	41710.98
791.18	41055.63
791.36	41526.66
791.55	41629.06
791.73	41354.63
791.91	41055.63
792.09	41448.84
792.27	41266.57
792.45	41559.43
792.63	41131.40
792.81	41012.62
793.00	40918.42
793.18	40936.85
793.36	40826.26
793.54	41129.36
793.72	40674.71
793.90	40586.64
794.08	40291.74
794.26	40244.63
794.44	39888.29
794.62	40076.70
794.81	40281.50
794.99	39849.38
795.17	40060.32
795.35	39962.01
795.53	40279.45
795.71	39753.12
795.89	39767.46
796.07	39306.66
796.25	39374.25
796.43	39577.00
796.61	38852.02
796.80	39179.69
796.98	39234.99
797.16	38774.19
797.34	38892.97
797.52	38882.73
797.70	39163.31
797.88	38786.48
798.06	38698.42
798.24	38368.69
798.42	38313.40
798.60	38577.59
798.78	38376.89
798.96	38657.46
799.14	38163.90
799.32	38251.96
799.51	38081.98
799.69	38139.32
799.87	37993.92
800.05	37838.27
800.23	37907.90
800.41	37365.19
800.59	37639.62
800.77	37320.13
800.95	37070.28
801.13	37549.51
801.31	36615.63
801.49	37500.36
801.67	37311.94
801.85	36685.26
802.03	37103.05
802.21	37023.18
802.39	36656.59
802.57	36709.84
802.75	36492.76
802.93	36648.40
803.11	36083.16
803.29	36025.82
803.47	36224.47
803.65	35917.28
803.83	36210.14
804.01	36531.67
804.19	35804.64
804.37	35845.60
804.55	35823.07
804.73	35698.14
804.91	35718.62
805.09	35771.87
805.27	35528.16
805.45	35345.89
805.63	35370.47
805.81	35333.60
805.99	35556.83
806.17	35128.81
806.35	35046.89
806.53	34825.71
806.71	34887.15
806.89	35235.30
807.07	34713.07
807.25	35046.89
807.43	34522.61
807.61	34616.82
807.79	34747.89
807.97	34346.48
808.15	34039.29
808.33	34567.66
808.51	34295.28
808.69	34119.16
808.87	34129.40
809.05	34379.25
809.23	33820.16
809.41	33801.72
809.59	34182.65
809.77	34192.89
809.95	33652.22
810.13	33828.35
810.31	33660.41
810.49	33631.74
810.67	33531.39
810.84	33916.41
811.02	33322.50
811.20	32906.76
811.38	33347.08
811.56	32841.23
811.74	33111.56
811.92	33084.94
812.10	33140.23
812.28	33146.37
812.46	32830.99
812.64	32943.63
812.82	32857.61
813.00	32882.19
813.18	32960.01
813.36	32945.67
813.53	32310.80
813.71	32497.17
813.89	32402.96
814.07	32519.70
814.25	32419.35
814.43	32097.81
814.61	31807.00
814.79	32054.81
814.97	31921.69
815.15	32177.68
815.33	31612.45
815.50	31847.96
815.68	31919.64
815.86	31833.63
816.04	31778.33
816.22	31364.64
816.40	31716.89
816.58	31565.34
816.76	31614.49
816.94	31606.30
817.11	31602.21
817.29	31292.96
817.47	31532.57
817.65	31180.32
817.83	31213.09
818.01	31094.31
818.19	30959.14
818.37	30598.70
818.54	30668.33
818.72	30647.85
818.90	30580.27
819.08	30625.32
819.26	30975.53
819.44	30705.20
819.62	30725.68
819.80	30989.86
819.97	30651.95
820.15	30553.65
820.33	30516.78
820.51	30885.42
820.69	30289.46
820.87	30131.76
821.05	30596.65
821.22	30262.83
821.40	30389.81
821.58	29918.78
821.76	29894.20
821.94	30232.11
822.12	30215.73
822.29	30086.71
822.47	29957.69
822.65	29969.97
822.83	29703.74
823.01	29615.68
823.19	29531.71
823.36	29558.33
823.54	29552.19
823.72	29630.01
823.90	29433.41
824.08	29191.75
824.25	29331.01
824.43	29156.93
824.61	29312.58
824.79	29204.03
824.97	29089.35
825.15	29187.65
825.32	29218.37
825.50	28902.98
825.68	29042.24
825.86	29351.49
826.04	29058.63
826.21	28823.11
826.39	28929.61
826.57	28790.34
826.75	28708.43
826.93	28638.80
827.10	28931.65
827.28	28771.91
827.46	28931.65
827.64	28542.54
827.81	28302.93
827.99	29025.86
828.17	28526.16
828.35	28081.75
828.53	28659.27
828.70	28161.62
828.88	28362.32
829.06	28362.32
829.24	28190.29
829.41	28237.39
829.59	28458.57
829.77	28382.80
829.95	28280.40
830.12	28200.53
830.30	28040.79
830.48	28046.93
830.66	27930.20
830.84	28065.36
831.01	27801.18
831.19	27651.67
831.37	27854.42
831.55	27584.09
831.72	27649.63
831.90	27463.26
832.08	27797.08
832.25	27309.66
832.43	27803.22
832.61	27369.05
832.79	27489.88
832.96	27235.94
833.14	27420.25
833.32	27477.60
833.50	27825.75
833.67	27510.36
833.85	27375.20
834.03	26910.31
834.20	27213.41
834.38	27360.86
834.56	27199.07
834.74	27084.39
834.91	27229.79
835.09	26910.31
835.27	26388.08
835.44	26906.21
835.62	26928.74
835.80	26881.64
835.98	26904.17
836.15	27012.71
836.33	26906.21
836.51	26934.88
836.68	26381.93
836.86	26449.52
837.04	26570.35
837.21	26629.74
837.39	26664.55
837.57	26406.51
837.75	26504.81
837.92	26109.55
838.10	26603.11
838.28	26025.59
838.45	26220.14
838.63	25939.57
838.81	26205.81
838.98	26127.99
839.16	25996.92
839.34	26058.35
839.51	26216.05
839.69	26064.50
839.87	25923.19
840.04	25878.13
840.22	26039.92
840.40	25785.97
840.57	25679.48
840.75	25749.11
840.93	25529.98
841.10	25800.31
841.28	26082.93
841.46	25661.05
841.63	25740.92
841.81	25884.28
841.98	25394.81
842.16	25722.49
842.34	25564.79
842.51	25450.11
842.69	25687.67
842.87	25470.59
843.04	25398.91
843.22	25540.22
843.40	25396.86
843.57	25335.42
843.75	25353.85
843.92	25613.95
844.10	25226.88
844.28	25284.22
844.45	25235.07
844.63	25073.28
844.81	24903.30
844.98	25325.18
845.16	24868.48
845.33	25155.20
845.51	25093.76
845.69	25085.57
845.86	24866.44
846.04	24393.36
846.21	24905.35
846.39	24725.13
846.57	24487.56
846.74	24821.38
846.92	24899.20
847.09	24626.82
847.27	24323.72
847.45	24387.21
847.62	24559.24
847.80	24866.44
847.97	24692.36
848.15	24632.97
848.32	24549.00
848.50	24366.73
848.68	24350.35
848.85	24346.25
849.03	23877.27
849.20	24227.47
849.38	24225.42
849.56	24127.12
849.73	24098.45
849.91	23963.28
850.08	24508.04
850.26	24012.43
850.43	23981.71
850.61	23864.98
850.78	23989.91
850.96	23946.90
851.14	23723.67
851.31	23998.10
851.49	23815.83
851.66	24153.74
851.84	23627.42
852.01	23916.18
852.19	23707.29
852.36	23768.73
852.54	23551.64
852.71	23840.40
852.89	23543.45
853.07	23502.49
853.24	23490.20
853.42	23467.67
853.59	23367.32
853.77	23416.47
853.94	23723.67
854.12	23570.07
854.29	23103.14
854.47	23520.92
854.64	23469.72
854.82	23369.37
854.99	23078.56
855.17	23492.25
855.34	23101.09
855.52	23017.12
855.69	23162.53
855.87	23008.93
856.04	22777.51
856.22	23045.79
856.39	22683.30
856.57	22779.56
856.74	22920.87
856.92	23037.60
857.09	22955.68
857.27	22740.64
857.44	23160.48
857.62	23088.80
857.79	23010.98
857.97	22890.15
858.14	22984.35
858.32	22974.11
858.49	22810.28
858.67	22879.91
858.84	22714.02
859.02	22695.59
859.19	22595.24
859.37	22591.14
859.54	22472.36
859.72	22748.84
859.89	22312.62
860.06	22400.68
860.24	22415.02
860.41	22546.09
860.59	22195.89
860.76	22288.04
860.94	22142.64
861.11	22171.31
861.29	22191.79
861.46	22152.88
861.64	21778.10
861.81	22222.51
861.98	22144.69
862.16	22148.78
862.33	22122.16
862.51	21581.49
862.68	21900.98
862.86	21980.85
863.03	21618.36
863.21	21952.18
863.38	21841.59
863.55	21833.39
863.73	21726.90
863.90	21952.18
864.08	21690.04
864.25	22066.86
864.43	21599.93
864.60	21624.50
864.77	21716.66
864.95	21728.95
865.12	21601.97
865.30	21745.33
865.47	21139.13
865.64	21329.59
865.82	21442.23
865.99	21278.40
866.17	21311.16
866.34	21542.58
866.51	21231.29
866.69	21284.54
866.86	21616.31
867.04	21319.35
867.21	20922.05
867.38	20856.51
867.56	21163.71
867.73	21040.83
867.91	20854.47
868.08	21063.36
868.25	20747.97
868.43	20876.99
868.60	20704.96
868.78	20889.28
868.95	20809.41
869.12	20737.73
869.30	20668.10
869.47	20860.61
869.64	20397.77
869.82	20549.32
869.99	20383.43
870.16	20647.62
870.34	20655.81
870.51	20606.66
870.69	20297.42
870.86	20272.84
871.03	20754.12
871.21	20098.77
871.38	20387.53
871.55	20070.09
871.73	19984.08
871.90	20031.18
872.07	20000.46
872.25	20025.04
872.42	19869.39
872.59	19865.30
872.77	20164.30
872.94	20039.37
873.11	19863.25
873.29	19865.30
873.46	19582.68
873.63	19703.51
873.81	20022.99
873.98	19478.23
874.15	19545.81
874.33	19265.24
874.50	19424.98
874.67	19613.40
874.85	19582.68
875.02	19416.79
875.19	19189.47
875.37	19490.52
875.54	19160.80
875.71	19302.11
875.88	19224.28
876.06	19336.92
876.23	19144.41
876.40	19044.06
876.58	19187.42
876.75	19033.82
876.92	19128.03
877.10	18984.67
877.27	19082.97
877.44	18798.31
877.61	18583.27
877.79	18765.54
877.96	18566.88
878.13	18718.43
878.31	19007.20
878.48	18616.04
878.65	18454.25
878.82	18648.80
879.00	18517.73
879.17	18525.93
879.34	18675.43
879.51	18587.36
879.69	18249.45
879.86	18132.72
880.03	18310.89
880.21	18061.04
880.38	18441.96
880.55	18343.66
880.72	18364.14
880.90	17999.60
881.07	18093.80
881.24	18134.76
881.41	18218.73
881.59	18030.32
881.76	18136.81
881.93	17899.25
882.10	17872.62
882.28	17649.39
882.45	17964.78
882.62	17852.14
882.79	18218.73
882.96	17682.16
883.14	17682.16
883.31	17596.15
883.48	17772.27
883.65	17755.89
883.83	17733.36
884.00	17653.49
884.17	17841.90
884.34	17985.26
884.51	17624.82
884.69	17733.36
884.86	17669.87
885.03	17663.73
885.20	17561.33
885.38	17657.59
885.55	17626.87
885.72	17446.65
885.89	17313.53
886.06	17422.07
886.24	17510.13
886.41	17219.32
886.58	17735.41
886.75	17534.71
886.92	17032.96
887.10	17377.01
887.27	17219.32
887.44	17256.18
887.61	17491.70
887.78	17407.73
887.95	17413.88
888.13	17059.58
888.30	17035.00
888.47	16903.93
888.64	17276.66
888.81	17170.17
888.99	17012.48
889.16	16807.68
889.33	16803.58
889.50	16740.10
889.67	16994.04
889.84	16879.36
890.01	16871.17
890.19	16674.56
890.36	16723.71
890.53	16584.45
890.70	16520.96
890.87	16471.81
891.04	16488.20
891.22	16525.06
891.39	16367.37
891.56	16346.89
891.73	16387.85
891.90	16199.43
892.07	16224.01
892.24	16488.20
892.42	16183.05
892.59	16316.17
892.76	16176.91
892.93	15984.40
893.10	16244.49
893.27	16353.03
893.44	16320.26
893.61	16105.23
893.79	16187.14
893.96	16148.23
894.13	16142.09
894.30	16207.62
894.47	16181.00
894.64	16166.67
894.81	16348.93
894.98	16133.90
895.15	16393.99
895.33	16031.50
895.50	16258.82
895.67	16348.93
895.84	16027.40
896.01	16037.64
896.18	16021.26
896.35	16258.82
896.52	15908.62
896.69	15789.84
896.86	15949.58
897.04	16209.67
897.21	16056.08
897.38	15939.34
897.55	15812.37
897.72	16015.12
897.89	15990.54
898.06	15937.29
898.23	16062.22
898.40	15970.06
898.57	15963.92
898.74	15894.29
898.91	15798.03
899.08	15824.65
899.26	15763.22
899.43	15974.16
899.60	15869.71
899.77	15793.94
899.94	15757.07
900.11	15660.82
900.28	15855.37
900.45	15736.59
900.62	15527.70
900.79	16013.07
900.96	15611.67
901.13	15935.24
901.30	15818.51
901.47	15918.86
901.64	15773.46
901.81	15703.82
901.98	15558.42
902.15	15773.46
902.32	15529.75
902.49	15687.44
902.66	15509.27
902.83	15724.30
903.01	15898.38
903.18	15687.44
903.35	15916.81
903.52	15673.10
903.69	15752.98
903.86	15562.51
904.03	15812.37
904.20	15818.51
904.37	15877.90
904.54	15798.03
904.71	15673.10
904.88	15867.66
905.05	15548.18
905.22	15906.57
905.39	15658.77
905.56	15879.95
905.73	15630.10
905.90	15677.20
906.07	15767.31
906.24	15994.64
906.41	15761.17
906.58	15798.03
906.75	15759.12
906.92	15789.84
907.09	15441.68
907.26	15752.98
907.43	15427.35
907.60	15550.23
907.77	15808.27
907.93	15873.81
908.10	15578.90
908.27	16064.27
908.44	15466.26
908.61	15494.93
908.78	15572.75
908.95	15591.19
909.12	15718.16
909.29	15341.33
909.46	15425.30
909.63	15656.72
909.80	15853.33
909.97	15607.57
910.14	15425.30
910.31	15654.67
910.48	15218.46
910.65	15605.52
910.82	15451.92
910.99	15441.68
911.16	15257.37
911.33	15238.94
911.50	15130.39
911.66	15148.82
911.83	15447.83
912.00	15261.46
912.17	15179.54
912.34	15095.58
912.51	15228.70
912.68	15347.48
912.85	15056.67
913.02	15111.96
913.19	15281.94
913.36	14921.50
913.53	15183.64
913.70	14966.56
913.86	15349.53
914.03	15073.05
914.20	14837.53
914.37	14964.51
914.54	15083.29
914.71	14905.12
914.88	14827.29
915.05	14788.38
915.22	14870.30
915.39	14503.71
915.55	14581.54
915.72	14718.75
915.89	14599.97
916.06	14343.97
916.23	14354.21
916.40	14448.42
916.57	14470.95
916.74	14339.88
916.91	14458.66
917.07	14444.32
917.24	14473.00
917.41	14272.29
917.58	14434.08
917.75	14208.81
917.92	14204.71
918.09	14266.15
918.26	14067.50
918.42	14153.51
918.59	13985.58
918.76	14049.07
918.93	13956.91
919.10	13758.25
919.27	13831.98
919.44	13991.72
919.60	14036.78
919.77	13836.08
919.94	13680.43
920.11	13731.63
920.28	13664.05
920.45	13549.36
920.61	13440.82
920.78	13700.91
920.95	13371.19
921.12	13367.09
921.29	13369.14
921.46	13377.33
921.62	13164.34
921.79	13240.12
921.96	13283.13
922.13	13094.71
922.30	13008.70
922.47	12828.48
922.63	13092.66
922.80	13014.84
922.97	12881.72
923.14	12654.40
923.31	12832.57
923.47	12863.29
923.64	12885.82
923.81	12674.88
923.98	12635.97
924.15	12375.88
924.32	12488.51
924.48	12773.18
924.65	12642.11
924.82	12488.51
924.99	12533.57
925.15	12465.99
925.32	12318.53
925.49	12160.84
925.66	12261.19
925.83	12052.30
925.99	11921.23
926.16	12040.01
926.33	12054.34
926.50	12003.14
926.67	12093.26
926.83	12054.34
927.00	12001.10
927.17	12001.10
927.34	11761.48
927.50	11579.22
927.67	11859.79
927.84	11673.42
928.01	11763.53
928.17	11609.93
928.34	11392.85
928.51	11337.56
928.68	11480.91
928.84	11308.88
929.01	11339.60
929.18	11183.96
929.35	11226.96
929.51	11140.95
929.68	10952.54
929.85	11095.89
930.02	11089.75
930.18	10852.19
930.35	10835.80
930.52	11202.39
930.69	10819.42
930.85	10778.46
931.02	10792.80
931.19	10678.11
931.36	10555.23
931.52	10663.77
931.69	10473.31
931.86	10461.02
932.02	10350.43
932.19	10512.22
932.36	10289.00
932.53	10299.23
932.69	10227.56
932.86	10397.54
933.03	10340.19
933.19	10041.19
933.36	10047.33
933.53	10041.19
933.70	10051.43
933.86	9979.75
934.03	10086.25
934.20	9512.81
934.36	10041.19
934.53	9695.08
934.70	9580.40
934.86	9647.98
935.03	9588.59
935.20	9412.46
935.36	9531.25
935.53	9398.13
935.70	9049.97
935.86	9285.49
936.03	8906.62
936.20	8974.20
936.36	8800.12
936.53	8814.46
936.70	8707.96
936.86	8855.42
937.03	8615.80
937.20	8423.30
937.36	8636.28
937.53	8224.64
937.70	8058.76
937.86	8040.33
938.03	7972.74
938.20	8257.41
938.36	7956.36
938.53	7829.38
938.70	7593.87
938.86	7821.19
939.03	7565.20
939.20	7538.57
939.36	7448.46
939.53	7407.50
939.70	7452.56
939.86	7090.07
940.03	7153.55
940.19	7047.06
940.36	6975.38
940.53	6997.91
940.69	6739.87
940.86	6709.15
941.03	6684.57
941.19	6711.19
941.36	6774.68
941.52	6580.12
941.69	6506.40
941.86	6524.83
942.02	6356.90
942.19	6442.91
942.35	6395.81
942.52	6154.15
942.69	6219.68
942.85	6039.46
943.02	6049.70
943.18	6000.55
943.35	5986.21
943.52	5973.92
943.68	5916.58
943.85	5935.01
944.01	5754.79
944.18	5646.25
944.35	6047.65
944.51	5748.65
944.68	5566.38
944.84	5613.48
945.01	5568.43
945.17	5550.00
945.34	5650.35
945.51	5689.26
945.67	5705.64
945.84	5576.62
946.00	5552.04
946.17	5418.93
946.33	5431.21
946.50	5375.92
946.67	5517.23
946.83	5412.78
947.00	5482.41
947.16	5519.28
947.33	5496.75
947.49	5369.77
947.66	5361.58
947.82	5275.57
947.99	5521.32
948.16	5648.30
948.32	5271.47
948.49	5400.49
948.65	5500.84
948.82	5382.06
948.98	5375.92
949.15	5279.66
949.31	5539.76
949.48	5552.04
949.64	5410.73
949.81	5486.51
949.97	5418.93
950.14	5527.47
950.30	5402.54
950.47	5543.85
950.63	5513.13
950.80	5441.45
950.96	5316.53
951.13	5369.77
951.30	5490.60
951.46	5552.04
951.63	5595.05
951.79	5527.47
951.96	5533.61
952.12	5437.36
952.29	5478.32
952.45	5529.52
952.62	5482.41
952.78	5593.00
952.94	5541.80
953.11	5496.75
953.27	5377.97
953.44	5681.07
953.60	5502.89
953.77	5685.16
953.93	5556.14
954.10	5400.49
954.26	5613.48
954.43	5640.11
954.59	5633.96
954.76	5726.12
954.92	5638.06
955.09	5578.67
955.25	5511.08
955.42	5484.46
955.58	5619.63
955.75	5625.77
955.91	5689.26
956.07	5515.18
956.24	5468.08
956.40	5658.54
956.57	5648.30
956.73	5519.28
956.90	5695.40
957.06	5574.57
957.23	5480.36
957.39	5623.72
957.56	5744.55
957.72	5623.72
957.88	5601.19
958.05	5689.26
958.21	5660.59
958.38	5789.61
958.54	5529.52
958.71	5797.80
958.87	5595.05
959.03	5554.09
959.20	5574.57
959.36	5531.56
959.53	5550.00
959.69	5609.39
959.85	5474.22
960.02	5562.28
960.18	5652.39
960.35	5500.84
960.51	5738.41
960.68	5519.28
960.84	5687.21
961.00	5609.39
961.17	5570.48
961.33	5689.26
961.50	5541.80
961.66	5603.24
961.82	5484.46
961.99	5652.39
962.15	5566.38
962.31	5509.04
962.48	5605.29
962.64	5578.67
962.81	5517.23
962.97	5611.43
963.13	5474.22
963.30	5636.01
963.46	5427.12
963.62	5521.32
963.79	5441.45
963.95	5457.84
964.12	5525.42
964.28	5676.97
964.44	5580.71
964.61	5599.15
964.77	5506.99
964.93	5590.95
965.10	5545.90
965.26	5388.21
965.42	5386.16
965.59	5584.81
965.75	5515.18
965.92	5504.94
966.08	5463.98
966.24	5455.79
966.41	5406.64
966.57	5412.78
966.73	5322.67
966.90	5388.21
967.06	5451.69
967.22	5250.99
967.39	5302.19
967.55	5294.00
967.71	5291.95
967.88	5359.53
968.04	5226.42
968.20	5289.90
968.37	5330.86
968.53	5289.90
968.69	5261.23
968.85	5357.49
969.02	5308.34
969.18	5232.56
969.34	5320.62
969.51	5373.87
969.67	5304.24
969.83	5185.46
970.00	5332.91
970.16	5300.14
970.32	5273.52
970.48	5484.46
970.65	5007.28
970.81	5271.47
970.97	5152.69
971.14	5038.00
971.30	5318.57
971.46	5121.97
971.63	5128.11
971.79	5312.43
971.95	5236.66
972.11	4984.76
972.28	5091.25
972.44	5179.31
972.60	4986.80
972.76	5027.76
972.93	5160.88
973.09	5124.02
973.25	5210.03
973.42	4949.94
973.58	5152.69
973.74	4988.85
973.90	5009.33
974.07	5005.24
974.23	5038.00
974.39	5097.39
974.55	4968.37
974.72	4921.27
974.88	4855.73
975.04	4999.09
975.20	4810.68
975.37	4884.41
975.53	4849.59
975.69	4868.02
975.85	4865.97
976.01	4816.82
976.18	4831.16
976.34	4853.69
976.50	4857.78
976.66	4911.03
976.83	4929.46
976.99	4908.98
977.15	4900.79
977.31	4736.95
977.47	4886.45
977.64	4829.11
977.80	4786.10
977.96	4724.66
978.12	4624.31
978.29	4753.34
978.45	4640.70
978.61	4677.56
978.77	4648.89
978.93	4769.72
979.10	4564.92
979.26	4700.09
979.42	4655.03
979.58	4634.55
979.74	4587.45
979.91	4714.42
980.07	4466.62
980.23	4564.92
980.39	4571.07
980.55	4511.68
980.71	4513.72
980.88	4583.35
981.04	4450.24
981.20	4444.09
981.36	4483.00
981.52	4528.06
981.68	4351.93
981.85	4546.49
982.01	4431.80
982.17	4405.18
982.33	4480.96
982.49	4499.39
982.65	4353.98
982.82	4407.23
982.98	4394.94
983.14	4304.83
983.30	4554.68
983.46	4509.63
983.62	4392.89
983.79	4286.40
983.95	4259.78
984.11	4251.58
984.27	4302.78
984.43	4288.45
984.59	4251.58
984.75	4353.98
984.91	4304.83
985.08	4188.10
985.24	4220.86
985.40	4263.87
985.56	4247.49
985.72	4362.17
985.88	4351.93
986.04	4251.58
986.20	4071.36
986.37	4173.76
986.53	4227.01
986.69	4116.42
986.85	4149.18
987.01	4140.99
987.17	4169.66
987.33	4093.89
987.49	4108.23
987.65	4124.61
987.82	4181.95
987.98	3999.68
988.14	4048.83
988.30	4007.87
988.46	4071.36
988.62	3936.20
988.78	3991.49
988.94	3942.34
989.10	3868.61
989.26	3917.76
989.42	3872.71
989.59	3762.12
989.75	3977.16
989.91	3968.96
990.07	3934.15
990.23	3882.95
990.39	3911.62
990.55	3923.91
990.71	3878.85
990.87	3866.56
991.03	3950.53
991.19	3934.15
991.35	3973.06
991.51	3913.67
991.67	3891.14
991.83	3895.24
992.00	3821.51
992.16	3934.15
992.32	3868.61
992.48	3919.81
992.64	3743.69
992.80	3837.89
992.96	3706.82
993.12	3815.37
993.28	3796.93
993.44	3669.96
993.60	3743.69
993.76	3774.41
993.92	3770.31
994.08	3674.06
994.24	3678.15
994.40	3694.54
994.56	3665.86
994.72	3596.23
994.88	3559.37
995.04	3631.05
995.20	3606.47
995.36	3583.95
995.52	3694.54
995.68	3624.90
995.84	3598.28
996.00	3620.81
996.16	3585.99
996.32	3418.06
996.48	3522.51
996.64	3653.58
996.80	3502.03
996.96	3432.40
997.12	3506.12
997.28	3432.40
997.44	3522.51
997.60	3383.24
997.76	3395.53
997.92	3385.29
998.08	3473.36
998.24	3338.19
998.40	3348.43
998.56	3514.31
998.72	3327.95
998.88	3340.24
999.04	3334.09
999.20	3344.33
999.36	3385.29
999.52	3456.97
999.68	3403.72
999.84	3422.16
1000.00	3493.83
1000.16	3426.25
1000.32	3221.45
1000.48	3465.16
1000.64	3241.93
1000.80	3301.33
1000.95	3241.93
1001.11	3243.98
1001.27	3268.56
1001.43	3313.61
1001.59	3160.02
1001.75	3297.23
1001.91	3200.98
1002.07	3166.16
1002.23	3157.97
1002.39	3162.06
1002.55	3164.11
1002.71	3129.30
1002.87	3155.92
1003.03	3157.97
1003.19	3071.95
1003.34	3143.63
1003.50	3170.26
1003.66	3192.78
1003.82	3108.82
1003.98	3022.80
1004.14	3166.16
1004.30	3020.75
1004.46	3110.86
1004.62	3160.02
1004.78	3063.76
1004.94	2957.27
1005.09	3059.67
1005.25	3121.10
1005.41	3121.10
1005.57	2959.31
1005.73	3069.91
1005.89	2987.99
1006.05	3110.86
1006.21	3043.28
1006.37	3033.04
1006.52	2930.64
1006.68	2897.88
1006.84	3024.85
1007.00	2955.22
1007.16	3012.56
1007.32	2936.79
1007.48	2953.17
1007.64	2963.41
1007.79	2953.17
1007.95	2787.29
1008.11	2990.03
1008.27	2838.48
1008.43	2901.97
1008.59	2852.82
1008.75	2930.64
1008.91	2879.44
1009.06	2799.57
1009.22	2852.82
1009.38	2834.39
1009.54	2877.40
1009.70	2805.72
1009.86	2852.82
1010.01	2865.11
1010.17	2822.10
1010.33	2838.48
1010.49	2807.77
1010.65	2822.10
1010.81	2727.89
1010.96	2750.42
1011.12	2729.94
1011.28	2760.66
1011.44	2789.33
1011.60	2787.29
1011.76	2740.18
1011.91	2779.09
1012.07	2684.89
1012.23	2680.79
1012.39	2654.17
1012.55	2711.51
1012.71	2693.08
1012.86	2701.27
1013.02	2633.69
1013.18	2639.83
1013.34	2709.46
1013.50	2594.78
1013.65	2635.74
1013.81	2693.08
1013.97	2545.63
1014.13	2607.06
1014.29	2621.40
1014.44	2723.80
1014.60	2734.04
1014.76	2555.86
1014.92	2617.30
1015.07	2549.72
1015.23	2625.50
1015.39	2596.82
1015.55	2504.67
1015.71	2666.46
1015.86	2629.59
1016.02	2578.39
1016.18	2410.46
1016.34	2584.54
1016.49	2539.48
1016.65	2641.88
1016.81	2459.61
1016.97	2549.72
1017.12	2568.15
1017.28	2471.90
1017.44	2469.85
1017.60	2383.84
1017.75	2471.90
1017.91	2482.14
1018.07	2455.51
1018.23	2367.45
1018.38	2467.80
1018.54	2424.80
1018.70	2478.04
1018.86	2408.41
1019.01	2457.56
1019.17	2383.84
1019.33	2453.47
1019.49	2363.36
1019.64	2453.47
1019.80	2519.00
1019.96	2478.04
1020.12	2461.66
1020.27	2312.16
1020.43	2394.08
1020.59	2428.89
1020.74	2326.49
1020.90	2508.76
1021.06	2322.40
1021.22	2461.66
1021.37	2365.40
1021.53	2320.35
1021.69	2353.12
1021.84	2338.78
1022.00	2367.45
1022.16	2281.44
1022.31	2254.81
1022.47	2404.32
1022.63	2392.03
1022.79	2256.86
1022.94	2365.40
1023.10	2367.45
1023.26	2293.72
1023.41	2252.77
1023.57	2224.09
1023.73	2297.82
1023.88	2258.91
1024.04	2215.90
1024.20	2248.67
1024.35	2289.63
1024.51	2254.81
1024.67	2265.05
1024.82	2367.45
1024.98	2185.18
1025.14	2252.77
1025.29	2197.47
1025.45	2279.39
1025.61	2258.91
1025.76	2224.09
1025.92	2256.86
1026.08	2273.25
1026.23	2287.58
1026.39	2232.29
1026.55	2158.56
1026.70	2179.04
1026.86	2226.14
1027.02	2222.05
1027.17	2191.33
1027.33	2185.18
1027.48	2125.79
1027.64	2166.75
1027.80	2142.18
1027.95	2209.76
1028.11	2078.69
1028.27	2273.25
1028.42	2174.94
1028.58	2127.84
1028.73	2099.17
1028.89	2121.70
1029.05	2252.77
1029.20	2113.50
>>>>>End Processed Spectral Data<<<<<
