SpectraSuite Data File
++++++++++++++++++++++++++++++++++++
Date: Fri Jun 02 14:47:58 CEST 2017
User: INFO_000
Dark Spectrum Present: No
Reference Spectrum Present: No
Number of Sampled Component Spectra: 1
Spectrometers: USB4H00879
Integration Time (usec): 80000 (USB4H00879)
Spectra Averaged: 1 (USB4H00879)
Boxcar Smoothing: 0 (USB4H00879)
Correct for Electrical Dark: No (USB4H00879)
Strobe/Lamp Enabled: No (USB4H00879)
Correct for Detector Non-linearity: No (USB4H00879)
Correct for Stray Light: No (USB4H00879)
Number of Pixels in Processed Spectrum: 3648
>>>>>Begin Processed Spectral Data<<<<<
345.13	1325.04
345.34	1325.04
345.56	1325.04
345.78	1249.26
345.99	1294.32
346.21	1751.01
346.42	1626.09
346.64	1632.23
346.86	1716.20
347.07	1695.72
347.29	1728.49
347.50	1650.66
347.72	1654.76
347.94	1736.68
348.15	1605.61
348.37	1658.85
348.59	1656.81
348.80	1632.23
349.02	1810.40
349.23	1869.80
349.45	1761.25
349.67	1892.32
349.88	1851.36
350.10	1959.91
350.31	1834.98
350.53	1828.84
350.75	1945.57
350.96	1757.16
351.18	1884.13
351.39	1906.66
351.61	1751.01
351.82	1929.19
352.04	1863.65
352.26	1845.22
352.47	1855.46
352.69	1900.52
352.90	1738.73
353.12	1855.46
353.34	1824.74
353.55	1861.60
353.77	1830.88
353.98	1855.46
354.20	1886.18
354.41	1929.19
354.63	1955.81
354.85	2068.45
355.06	1865.70
355.28	1761.25
355.49	1916.90
355.71	1861.60
355.92	1908.71
356.14	1931.23
356.35	1908.71
356.57	1890.28
356.79	1906.66
357.00	1849.32
357.22	1984.48
357.43	1908.71
357.65	1949.67
357.86	1748.97
358.08	1935.33
358.29	1904.61
358.51	1966.05
358.72	1949.67
358.94	1894.37
359.16	1910.75
359.37	1908.71
359.59	1949.67
359.80	2023.39
360.02	1914.85
360.23	1970.15
360.45	2031.58
360.66	1968.10
360.88	1845.22
361.09	1906.66
361.31	1974.24
361.52	1935.33
361.74	2052.06
361.95	2095.07
362.17	1894.37
362.38	2015.20
362.60	2002.91
362.81	2011.11
363.03	1920.99
363.24	1941.47
363.46	2058.21
363.67	2070.50
363.89	1972.19
364.10	2017.25
364.32	1970.15
364.53	2009.06
364.75	1988.58
364.96	1957.86
365.18	1992.67
365.39	2004.96
365.61	1961.95
365.82	2086.88
366.04	2031.58
366.25	1953.76
366.47	2058.21
366.68	2025.44
366.90	2019.30
367.11	2060.26
367.33	2117.60
367.54	2097.12
367.76	1992.67
367.97	2023.39
368.19	2062.30
368.40	2084.83
368.62	1986.53
368.83	2004.96
369.05	2101.22
369.26	1943.52
369.48	1974.24
369.69	1945.57
369.91	1990.63
370.12	2066.40
370.33	1972.19
370.55	2007.01
370.76	2052.06
370.98	2072.54
371.19	2056.16
371.41	2023.39
371.62	2013.15
371.84	2064.35
372.05	2146.27
372.27	2021.35
372.48	1968.10
372.69	2103.26
372.91	2142.18
373.12	2117.60
373.34	2060.26
373.55	2133.98
373.77	2117.60
373.98	2054.11
374.20	2174.94
374.41	2293.72
374.62	2150.37
374.84	2125.79
375.05	2195.42
375.27	2095.07
375.48	2240.48
375.70	2199.52
375.91	2215.90
376.12	2306.01
376.34	2183.13
376.55	2138.08
376.77	2207.71
376.98	2097.12
377.19	2109.41
377.41	2246.62
377.62	2224.09
377.84	2142.18
378.05	2297.82
378.27	2193.37
378.48	2303.96
378.69	2383.84
378.91	2271.20
379.12	2224.09
379.34	2248.67
379.55	2256.86
379.76	2322.40
379.98	2260.96
380.19	2285.53
380.41	2277.34
380.62	2211.81
380.83	2248.67
381.05	2189.28
381.26	2387.93
381.47	2224.09
381.69	2203.61
381.90	2369.50
382.12	2353.12
382.33	2334.68
382.54	2256.86
382.76	2220.00
382.97	2330.59
383.19	2287.58
383.40	2447.32
383.61	2281.44
383.83	2242.53
384.04	2285.53
384.25	2344.92
384.47	2432.99
384.68	2293.72
384.89	2248.67
385.11	2201.57
385.32	2363.36
385.54	2349.02
385.75	2312.16
385.96	2465.75
386.18	2344.92
386.39	2447.32
386.60	2328.54
386.82	2402.27
387.03	2414.56
387.24	2490.33
387.46	2457.56
387.67	2389.98
387.88	2531.29
388.10	2363.36
388.31	2488.28
388.52	2617.30
388.74	2512.86
388.95	2559.96
389.16	2590.68
389.38	2459.61
389.59	2508.76
389.80	2625.50
390.02	2541.53
390.23	2615.26
390.44	2588.63
390.66	2568.15
390.87	2498.52
391.08	2535.39
391.30	2779.09
391.51	2557.91
391.72	2596.82
391.94	2578.39
392.15	2570.20
392.36	2568.15
392.58	2562.01
392.79	2609.11
393.00	2648.02
393.22	2740.18
393.43	2826.20
393.64	2695.13
393.85	2861.01
394.07	2619.35
394.28	2666.46
394.49	2756.57
394.71	2748.37
394.92	2789.33
395.13	2633.69
395.35	2719.70
395.56	2738.13
395.77	2797.53
395.98	2766.81
396.20	2775.00
396.41	2842.58
396.62	2842.58
396.84	2775.00
397.05	2818.00
397.26	2762.71
397.47	3002.32
397.69	2858.96
397.90	3106.77
398.11	2914.26
398.32	2940.88
398.54	2901.97
398.75	2893.78
398.96	2973.65
399.18	2990.03
399.39	2879.44
399.60	3112.91
399.81	3035.09
400.03	2965.46
400.24	3223.50
400.45	3002.32
400.66	3084.24
400.88	2973.65
401.09	3293.13
401.30	3067.86
401.51	3088.34
401.73	3086.29
401.94	3108.82
402.15	3143.63
402.36	3127.25
402.58	3139.54
402.79	3129.30
403.00	3200.98
403.21	3254.22
403.43	3143.63
403.64	3190.74
403.85	3139.54
404.06	3211.22
404.27	3184.59
404.49	3215.31
404.70	3321.81
404.91	3397.58
405.12	3295.18
405.34	3241.93
405.55	3416.01
405.76	3155.92
405.97	3256.27
406.19	3434.44
406.40	3172.30
406.61	3307.47
406.82	3399.63
407.03	3284.94
407.25	3289.04
407.46	3407.82
407.67	3379.15
407.88	3510.22
408.09	3315.66
408.31	3385.29
408.52	3323.85
408.73	3327.95
408.94	3368.91
409.15	3477.45
409.37	3493.83
409.58	3420.11
409.79	3418.06
410.00	3553.23
410.21	3360.72
410.43	3407.82
410.64	3391.44
410.85	3471.31
411.06	3569.61
411.27	3657.67
411.48	3676.10
411.70	3497.93
411.91	3669.96
412.12	3633.10
412.33	3665.86
412.54	3620.81
412.76	3635.14
412.97	3614.66
413.18	3538.89
413.39	3577.80
413.60	3553.23
413.81	3739.59
414.03	3583.95
414.24	3618.76
414.45	3801.03
414.66	3545.03
414.87	3719.11
415.08	3657.67
415.30	3704.78
415.51	3647.43
415.72	3665.86
415.93	3626.95
416.14	3839.94
416.35	3780.55
416.56	3715.02
416.78	3803.08
416.99	3841.99
417.20	3819.46
417.41	3919.81
417.62	3925.96
417.83	3872.71
418.04	3745.73
418.26	3796.93
418.47	3899.33
418.68	3923.91
418.89	3852.23
419.10	4175.81
419.31	3944.39
419.52	3973.06
419.73	3942.34
419.95	4067.27
420.16	4003.78
420.37	3946.44
420.58	3985.35
420.79	3856.33
421.00	4126.66
421.21	4036.55
421.42	4050.88
421.63	4057.03
421.85	4126.66
422.06	4177.86
422.27	4171.71
422.48	4093.89
422.69	4134.85
422.90	4315.07
423.11	4233.15
423.32	4198.34
423.53	4214.72
423.75	4265.92
423.96	4382.65
424.17	4292.54
424.38	4503.48
424.59	4401.08
424.80	4495.29
425.01	4370.37
425.22	4394.94
425.43	4407.23
425.64	4620.22
425.85	4532.15
426.06	4577.21
426.28	4483.00
426.49	4474.81
426.70	4452.28
426.91	4624.31
427.12	4640.70
427.33	4640.70
427.54	4528.06
427.75	4675.51
427.96	4831.16
428.17	4876.21
428.38	4739.00
428.59	4839.35
428.80	4681.66
429.01	4933.56
429.23	4753.34
429.44	5011.38
429.65	4870.07
429.86	4833.21
430.07	4777.91
430.28	4782.01
430.49	4943.80
430.70	5107.63
430.91	5113.78
431.12	4915.12
431.33	5033.91
431.54	5074.87
431.75	5148.59
431.96	5134.26
432.17	5072.82
432.38	5171.12
432.59	5195.70
432.80	5332.91
433.01	5298.10
433.22	5425.07
433.43	5140.40
433.64	5201.84
433.85	5255.09
434.06	5410.73
434.27	5326.77
434.49	5398.45
434.70	5572.52
434.91	5267.38
435.12	5601.19
435.33	5410.73
435.54	5394.35
435.75	5371.82
435.96	5466.03
436.17	5515.18
436.38	5726.12
436.59	5595.05
436.80	5660.59
437.01	5816.23
437.22	5805.99
437.43	5617.58
437.64	5482.41
437.85	5705.64
438.06	5732.26
438.27	5615.53
438.48	5679.02
438.69	5803.94
438.90	5760.94
439.11	5629.87
439.32	5912.49
439.53	5779.37
439.74	5869.48
439.95	5838.76
440.16	5820.33
440.37	5844.90
440.57	5748.65
440.78	6018.98
440.99	6057.89
441.20	5832.62
441.41	5785.51
441.62	5990.31
441.83	5844.90
442.04	6102.95
442.25	6018.98
442.46	5924.77
442.67	6100.90
442.88	6342.56
443.09	6006.69
443.30	6070.18
443.51	6074.28
443.72	6301.60
443.93	6086.56
444.14	6451.10
444.35	5998.50
444.56	6381.47
444.77	6270.88
444.98	6369.18
445.19	6440.86
445.40	6383.52
445.61	6447.01
445.81	6447.01
446.02	6598.56
446.23	6408.09
446.44	6258.59
446.65	6418.33
446.86	6414.24
447.07	6485.92
447.28	6516.64
447.49	6533.02
447.70	6498.20
447.91	6647.71
448.12	6444.96
448.33	6825.88
448.54	6662.04
448.74	6428.57
448.95	6692.76
449.16	6631.32
449.37	6932.37
449.58	6686.62
449.79	7098.26
450.00	6635.42
450.21	6928.28
450.42	6975.38
450.63	6901.65
450.84	6838.17
451.05	6805.40
451.25	7047.06
451.46	6866.84
451.67	6973.33
451.88	7024.53
452.09	7042.96
452.30	7102.36
452.51	7002.01
452.72	7225.23
452.93	7399.31
453.13	7036.82
453.34	6981.53
453.55	7227.28
453.76	7200.66
453.97	7589.77
454.18	7341.97
454.39	7552.91
454.60	7376.78
454.81	7331.73
455.01	7550.86
455.22	7282.58
455.43	7425.93
455.64	7593.87
455.85	7788.43
456.06	7716.75
456.27	7557.00
456.48	7647.12
456.68	7743.37
456.89	7647.12
457.10	7747.47
457.31	7755.66
457.52	7880.58
457.73	7851.91
457.94	8243.07
458.14	7876.49
458.35	8193.92
458.56	8048.52
458.77	8081.28
458.98	8279.94
459.19	8255.36
459.39	8183.68
459.60	8355.71
459.81	8497.02
460.02	8537.98
460.23	8425.34
460.44	8644.48
460.65	8589.18
460.85	8560.51
461.06	8605.56
461.27	8329.09
461.48	8634.24
461.69	9031.54
461.89	8585.08
462.10	8834.94
462.31	8640.38
462.52	8802.17
462.73	8746.87
462.94	9160.56
463.14	9017.21
463.35	9109.36
463.56	9469.81
463.77	9398.13
463.98	9138.04
464.18	9049.97
464.39	9318.26
464.60	9600.88
464.81	9566.06
465.02	9523.05
465.23	9664.36
465.43	9416.56
465.64	9766.76
465.85	9768.81
466.06	9654.12
466.27	10006.38
466.47	9860.97
466.68	10039.14
466.89	10028.90
467.10	9981.80
467.30	9951.08
467.51	10108.77
467.72	10434.40
467.93	10166.12
468.14	10444.64
468.34	10405.73
468.55	10420.06
468.76	10497.89
468.97	10465.12
469.17	10696.54
469.38	10884.95
469.59	10938.20
469.80	10749.79
470.01	10727.26
470.21	10993.50
470.42	11198.29
470.63	11345.75
470.84	11224.92
471.04	11229.01
471.25	11382.61
471.46	11210.58
471.67	11599.70
471.87	11497.30
472.08	11644.75
472.29	11759.44
472.50	11552.59
472.70	11568.98
472.91	11611.98
473.12	11951.95
473.33	12062.54
473.53	12191.56
473.74	11956.04
473.95	12164.93
474.16	12300.10
474.36	12484.42
474.57	12535.62
474.78	12744.51
474.99	12560.19
475.19	12672.83
475.40	12957.50
475.61	13012.79
475.81	13031.23
476.02	13197.11
476.23	13125.43
476.44	13377.33
476.64	13543.22
476.85	13430.58
477.06	13324.08
477.27	13711.15
477.47	13731.63
477.68	13559.60
477.89	14090.02
478.09	14167.85
478.30	13995.82
478.51	14135.08
478.71	14100.26
478.92	14114.60
479.13	14489.38
479.34	14634.78
479.54	14677.79
479.75	14483.24
479.96	14677.79
480.16	15073.05
480.37	14892.83
480.58	14989.08
480.78	14929.69
480.99	14954.27
481.20	15302.42
481.41	15294.23
481.61	15595.28
481.82	15480.60
482.03	15499.03
482.23	15367.96
482.44	15800.08
482.65	15982.35
482.85	15927.05
483.06	15806.22
483.27	16258.82
483.47	16133.90
483.68	16244.49
483.89	16273.16
484.09	16381.70
484.30	16477.96
484.51	16770.82
484.71	17092.35
484.92	16625.41
485.13	16852.73
485.33	16746.24
485.54	17084.16
485.75	17147.64
485.95	17471.22
486.16	17161.98
486.37	17557.24
486.57	17430.26
486.78	17460.98
486.98	17794.80
487.19	17352.44
487.40	17839.86
487.60	17749.75
487.81	17714.93
488.02	18030.32
488.22	18083.56
488.43	18314.98
488.64	18620.13
488.84	18331.37
489.05	18224.87
489.25	18462.44
489.46	18611.94
489.67	18579.17
489.87	18740.96
490.08	18976.48
490.29	18874.08
490.49	19316.44
490.70	19078.88
490.90	19171.04
491.11	19093.21
491.32	19220.19
491.52	19310.30
491.73	19592.92
491.94	19513.05
492.14	19689.17
492.35	19730.13
492.55	19805.91
492.76	20033.23
492.97	19979.98
493.17	20020.94
493.38	19982.03
493.58	20387.53
493.79	20383.43
494.00	20213.45
494.20	20635.33
494.41	20559.56
494.61	20373.19
494.82	20944.58
495.02	20952.77
495.23	20842.18
495.44	20655.81
495.64	21018.30
495.85	21233.34
496.05	21065.41
496.26	21466.81
496.47	21366.46
496.67	21311.16
496.88	21669.56
497.08	21378.75
497.29	21935.79
497.49	21300.92
497.70	22044.34
497.91	22050.48
498.11	21905.07
498.32	22062.77
498.52	22425.26
498.73	22593.19
498.93	22175.41
499.14	22345.39
499.34	22617.77
499.55	22527.66
499.76	22429.35
499.96	22861.48
500.17	22605.48
500.37	22820.52
500.58	22783.65
500.78	23129.76
500.99	22898.34
501.19	23371.42
501.40	23242.40
501.60	23109.28
501.81	23219.87
502.02	23365.28
502.22	23244.45
502.43	23760.53
502.63	23926.42
502.84	23801.49
503.04	23942.80
503.25	23914.13
503.45	23758.49
503.66	24094.35
503.86	23893.65
504.07	24344.20
504.27	24028.82
504.48	24528.52
504.68	24489.61
504.89	24843.91
505.09	24731.27
505.30	24544.91
505.50	24872.58
505.71	24704.65
505.91	25126.53
506.12	24954.50
506.32	25011.84
506.53	24886.92
506.73	25124.48
506.94	25263.74
507.14	25331.33
507.35	25484.92
507.55	25550.46
507.76	25548.41
507.96	25536.12
508.17	25448.06
508.37	25341.57
508.58	25667.19
508.78	25990.77
508.99	26048.11
509.19	25966.20
509.40	26056.31
509.60	26173.04
509.81	26029.68
510.01	26130.03
510.22	26179.18
510.42	26240.62
510.63	26476.14
510.83	26365.55
511.04	26519.15
511.24	26613.35
511.44	26433.13
511.65	26465.90
511.85	26551.91
512.06	26455.66
512.26	26814.05
512.47	27160.16
512.67	26998.37
512.88	26975.84
513.08	26953.32
513.29	27315.81
513.49	27467.36
513.69	27133.54
513.90	26814.05
514.10	27739.74
514.31	27539.04
514.51	27268.70
514.72	27504.22
514.92	27754.07
515.13	27307.62
515.33	27682.39
515.53	27831.90
515.74	27977.30
515.94	27807.32
516.15	28008.02
516.35	27958.87
516.56	28477.01
516.76	28108.37
516.96	28298.83
517.17	28462.67
517.37	28343.89
517.58	28221.01
517.78	28462.67
517.99	28630.60
518.19	28511.82
518.39	28485.20
518.60	29083.20
518.80	28448.33
519.01	29279.81
519.21	28905.03
519.41	28937.80
519.62	28773.96
519.82	28907.08
520.03	29240.90
520.23	29091.40
520.43	29029.96
520.64	29748.79
520.84	29343.30
521.05	29408.83
521.25	29838.90
521.45	29908.54
521.66	29720.12
521.86	29648.44
522.07	29804.09
522.27	29982.26
522.47	30039.61
522.68	30342.70
522.88	30189.11
523.08	30258.74
523.29	30094.90
523.49	30660.14
523.70	30492.21
523.90	31157.80
524.10	30404.14
524.31	30627.37
524.51	30402.10
524.71	31065.64
524.92	30813.74
525.12	30932.52
525.33	30602.80
525.53	31069.73
525.73	31274.53
525.94	31190.56
526.14	31567.39
526.34	31018.53
526.55	31559.20
526.75	31520.29
526.95	31667.74
527.16	31589.92
527.36	31690.27
527.56	31893.02
527.77	31907.35
527.97	32278.04
528.17	32001.56
528.38	31940.12
528.58	32255.51
528.78	32120.34
528.99	32396.82
529.19	32683.53
529.39	32226.84
529.60	32587.28
529.80	32640.53
530.00	32443.92
530.21	33029.64
530.41	33007.11
530.61	32937.48
530.82	33052.17
531.02	33066.50
531.22	33086.98
531.43	32790.03
531.63	33218.05
531.83	33469.95
532.04	33508.86
532.24	33676.80
532.44	33977.85
532.64	33590.78
532.85	33816.06
533.05	34076.15
533.25	34061.82
533.46	33979.90
533.66	34471.41
533.86	34137.59
534.07	34674.16
534.27	34328.05
534.47	34524.66
534.67	34530.80
534.88	34668.02
535.08	34895.34
535.28	34600.43
535.49	34876.91
535.69	35200.49
535.89	34979.31
536.09	35132.90
536.30	35380.71
536.50	35087.85
536.70	35337.70
536.91	35417.57
537.11	35403.24
537.31	35722.72
537.51	35239.40
537.72	35937.76
537.92	35911.13
538.12	36230.62
538.32	35937.76
538.53	35962.33
538.73	35948.00
538.93	36128.22
539.13	36048.35
539.34	36048.35
539.54	36081.11
539.74	36675.02
539.94	36677.07
540.15	36275.67
540.35	36636.11
540.55	36677.07
540.75	36580.82
540.96	36863.44
541.16	36625.87
541.36	37086.67
541.56	36664.78
541.77	37350.85
541.97	37357.00
542.17	37412.29
542.37	37436.87
542.58	37475.78
542.78	37498.31
542.98	37205.45
543.18	37414.34
543.38	37807.55
543.59	37584.32
543.79	37725.63
543.99	37893.57
544.19	37967.29
544.40	37844.41
544.60	37807.55
544.80	37932.48
545.00	38337.98
545.20	38145.47
545.41	38120.89
545.61	38270.39
545.81	38229.43
546.01	38405.56
546.21	38348.21
546.42	38471.09
546.62	38749.62
546.82	38557.11
547.02	38669.75
547.22	38895.02
547.43	38692.27
547.63	38833.58
547.83	38639.03
548.03	38704.56
548.23	39327.14
548.44	39241.13
548.64	39574.95
548.84	39323.05
549.04	39331.24
549.24	39611.81
549.45	39675.30
549.65	39476.65
549.85	39654.82
550.05	39789.98
550.25	39636.39
550.45	40359.32
550.66	39800.22
550.86	39695.78
551.06	39859.62
551.26	39699.87
551.46	39955.87
551.66	40068.51
551.87	40088.99
552.07	40539.54
552.27	40621.46
552.47	40297.88
552.67	40449.43
552.87	40273.31
553.07	40633.75
553.28	40422.81
553.48	40670.61
553.68	40877.46
553.88	41018.77
554.08	40809.87
554.28	41100.68
554.48	40611.22
554.69	41330.06
554.89	41119.12
555.09	41215.37
555.29	41137.55
555.49	41061.77
555.69	41330.06
555.89	41145.74
556.10	41233.80
556.30	41581.96
556.50	41532.81
556.70	41084.30
556.90	41854.34
557.10	41682.31
557.30	41729.41
557.50	41792.90
557.70	41702.79
557.91	42130.81
558.11	41461.13
558.31	42210.68
558.51	42012.03
558.71	42308.99
558.91	42132.86
559.11	42366.33
559.31	42071.42
559.51	42042.75
559.72	42661.24
559.92	42747.25
560.12	42386.81
560.32	42253.69
560.52	42311.03
560.72	43021.68
560.92	42810.74
561.12	42472.82
561.32	42745.20
561.52	42554.74
561.72	42780.02
561.93	43111.79
562.13	42964.34
562.33	43033.97
562.53	43265.39
562.73	42681.72
562.93	43021.68
563.13	43126.13
563.33	42755.44
563.53	43943.27
563.73	43478.38
563.93	43025.78
564.13	43844.96
564.33	43431.27
564.53	43335.02
564.74	43961.70
564.94	43482.47
565.14	44143.97
565.34	43236.72
565.54	43824.48
565.74	43828.58
565.94	44180.83
566.14	44021.09
566.34	44141.92
566.54	44285.28
566.74	43830.63
566.94	43775.33
567.14	44328.28
567.34	43994.46
567.54	44379.48
567.74	44184.93
567.94	44254.56
568.14	44891.48
568.34	44578.14
568.54	44301.66
568.74	44549.46
568.94	44533.08
569.14	44793.17
569.34	44875.09
569.54	45112.66
569.75	44533.08
569.95	45028.69
570.15	45557.06
570.35	45219.15
570.55	44717.40
570.75	45012.31
570.95	45063.50
571.15	45337.93
571.35	45016.40
571.55	45612.36
571.75	45315.40
571.95	45546.82
572.15	45122.90
572.35	45798.73
572.55	45460.81
572.75	45432.14
572.95	45561.16
573.15	45798.73
573.35	45925.70
573.55	45432.14
573.75	45710.66
573.95	45720.90
574.15	45618.50
574.35	46173.50
574.55	46122.30
574.75	45729.09
574.95	46185.79
575.15	45653.32
575.34	46357.82
575.54	46036.29
575.74	46155.07
575.94	46241.09
576.14	46116.16
576.34	46384.44
576.54	46425.40
576.74	46546.23
576.94	46236.99
577.14	46976.31
577.34	46419.26
577.54	46822.71
577.74	47074.61
577.94	46611.77
578.14	46970.16
578.34	47109.43
578.54	46511.42
578.74	46724.41
578.94	47162.67
579.14	46546.23
579.34	47019.31
579.54	47113.52
579.74	47584.55
579.94	47224.11
580.13	47557.93
580.33	47500.59
580.53	47506.73
580.73	47705.38
580.93	47746.34
581.13	47342.89
581.33	47891.75
581.53	47543.59
581.73	47316.27
581.93	47553.83
582.13	48125.22
582.33	47541.55
582.53	47486.25
582.73	48086.31
582.92	47813.93
583.12	48121.12
583.32	48000.29
583.52	47723.82
583.72	47990.05
583.92	48164.13
584.12	47842.60
584.32	48315.68
584.52	48100.64
584.72	48166.18
584.92	48141.60
585.11	48383.26
585.31	48321.82
585.51	48305.44
585.71	48149.79
585.91	48758.04
586.11	48579.87
586.31	48780.57
586.51	48213.28
586.71	48424.22
586.91	48878.87
587.10	48659.74
587.30	48626.97
587.50	48796.95
587.70	49409.29
587.90	48940.31
588.10	48913.69
588.30	48913.69
588.50	49224.98
588.69	48919.83
588.89	48874.77
589.09	49313.04
589.29	49014.04
589.49	49777.93
589.69	48885.01
589.89	49589.52
590.08	49095.95
590.28	49519.88
590.48	49079.57
590.68	49397.01
590.88	49317.14
591.08	49024.28
591.28	48710.94
591.47	49513.74
591.67	49153.30
591.87	49624.33
592.07	49597.71
592.27	49470.73
592.47	49775.88
592.67	49276.18
592.86	49390.86
593.06	49681.67
593.26	49790.22
593.46	49726.73
593.66	49425.68
593.86	49782.02
594.05	49968.39
594.25	49853.70
594.45	49566.99
594.65	49863.94
594.85	49255.70
595.05	50033.92
595.24	50324.74
595.44	50277.63
595.64	50033.92
595.84	50265.34
596.04	50052.36
596.23	50361.60
596.43	50496.77
596.63	50193.67
596.83	50441.47
597.03	50482.43
597.22	50531.58
597.42	50496.77
597.62	50584.83
597.82	50640.12
598.02	50296.06
598.21	50314.50
598.41	50359.55
598.61	50586.88
598.81	50568.44
599.01	50717.95
599.20	50672.89
599.40	50541.82
599.60	50846.97
599.80	50451.71
600.00	50713.85
600.19	50795.77
600.39	50660.60
600.59	51082.48
600.79	51088.63
600.98	51076.34
601.18	51049.72
601.38	51037.43
601.58	51086.58
601.78	51426.54
601.97	50988.28
602.17	51557.61
602.37	51344.62
602.57	51231.99
602.76	51975.40
602.96	51479.79
603.16	51250.42
603.36	51901.67
603.55	51778.79
603.75	51418.35
603.95	51778.79
604.15	51887.34
604.34	51760.36
604.54	51856.62
604.74	51711.21
604.94	52094.18
605.13	52395.23
605.33	51905.77
605.53	51807.47
605.73	51952.87
605.92	51903.72
606.12	52321.51
606.32	52450.53
606.52	51862.76
606.71	52354.27
606.91	52552.93
607.11	52294.88
607.30	52622.56
607.50	52325.60
607.70	52563.17
607.90	52384.99
608.09	52522.21
608.29	52694.24
608.49	52559.07
608.68	52200.68
608.88	52856.03
609.08	52841.69
609.28	52772.06
609.47	52548.83
609.67	53034.20
609.87	52827.35
610.06	53245.14
610.26	53150.93
610.46	53380.31
610.66	53060.82
610.85	53183.70
611.05	53091.54
611.25	53239.00
611.44	53077.21
611.64	53040.34
611.84	52704.48
612.03	52939.99
612.23	53408.98
612.43	53349.59
612.62	53257.43
612.82	53572.81
613.02	53327.06
613.21	53691.60
613.41	53009.62
613.61	53607.63
613.80	52937.94
614.00	53042.39
614.20	53460.18
614.39	53408.98
614.59	53679.31
614.79	53239.00
614.98	53503.18
615.18	53236.95
615.38	53597.39
615.57	53150.93
615.77	53841.10
615.97	53918.92
616.16	54027.46
616.36	53697.74
616.56	53761.23
616.75	54021.32
616.95	53755.08
617.15	53730.51
617.34	53734.60
617.54	53980.36
617.74	54322.37
617.93	54125.77
618.13	53566.67
618.32	53865.67
618.52	53535.95
618.72	53531.86
618.91	53810.38
619.11	53691.60
619.31	53681.36
619.50	53572.81
619.70	53429.46
619.90	53785.80
620.09	53970.12
620.29	54088.90
620.48	54000.84
620.68	54105.29
620.88	53501.14
621.07	54052.04
621.27	54070.47
621.46	53920.97
621.66	53728.46
621.86	54488.26
622.05	53955.78
622.25	54531.26
622.44	54080.71
622.64	53908.68
622.84	54420.67
623.03	53880.01
623.23	53982.41
623.42	54121.67
623.62	54209.73
623.82	54498.50
624.01	54576.32
624.21	54140.10
624.40	54373.57
624.60	54533.31
624.80	53851.34
624.99	54015.18
625.19	53994.70
625.38	54906.04
625.58	54498.50
625.77	54478.02
625.97	54361.28
626.17	53912.78
626.36	54398.15
626.56	54441.15
626.75	53880.01
626.95	54432.96
627.14	54697.15
627.34	54641.85
627.54	54664.38
627.73	54779.07
627.93	54584.51
628.12	54023.37
628.32	54727.87
628.51	54420.67
628.71	54158.53
628.90	54973.63
629.10	54695.10
629.30	54570.18
629.49	54707.39
629.69	54455.49
629.88	54604.99
630.08	54949.05
630.27	55073.98
630.47	54858.94
630.66	55041.21
630.86	55100.60
631.05	54748.35
631.25	54797.50
631.44	55041.21
631.64	54883.51
631.84	55053.50
632.03	55387.31
632.23	54949.05
632.42	55463.09
632.62	55424.18
632.81	54760.64
633.01	54801.60
633.20	55737.52
633.40	55573.68
633.59	55393.46
633.79	54906.04
633.98	55508.14
634.18	55551.15
634.37	55248.05
634.57	55391.41
634.76	55809.20
634.96	55424.18
635.15	55671.98
635.35	54973.63
635.54	55002.30
635.74	55723.18
635.93	55049.40
636.13	55262.39
636.32	55526.58
636.52	55121.08
636.71	55467.19
636.91	55506.10
637.10	55399.60
637.30	55469.23
637.49	55467.19
637.69	55510.19
637.88	55841.96
638.08	55268.53
638.27	56026.28
638.46	55743.66
638.66	55880.88
638.85	56042.66
639.05	55616.69
639.24	55884.97
639.44	55653.55
639.63	55561.39
639.83	55833.77
640.02	55481.52
640.22	55350.45
640.41	55893.16
640.61	55684.27
640.80	55596.21
640.99	56302.76
641.19	56048.81
641.38	55665.84
641.58	55817.39
641.77	56063.14
641.97	55930.03
642.16	56007.85
642.36	56356.00
642.55	56218.79
642.74	55764.14
642.94	56870.04
643.13	55624.88
643.33	56321.19
643.52	56431.78
643.72	56403.11
643.91	55743.66
644.10	56439.97
644.30	56706.21
644.49	56005.80
644.69	56097.96
644.88	56376.48
645.08	56374.44
645.27	56317.09
645.46	56345.76
645.66	56612.00
645.85	56048.81
646.05	56573.09
646.24	56726.69
646.43	56816.80
646.63	56710.30
646.82	56827.04
647.02	56351.91
647.21	56800.41
647.40	56562.85
647.60	56722.59
647.79	56566.94
647.99	56691.87
648.18	56435.87
648.37	57025.69
648.57	56630.43
648.76	57025.69
648.96	56730.78
649.15	56708.25
649.34	56482.98
649.54	56947.87
649.73	56175.78
649.92	56796.32
650.12	56337.57
650.31	56759.45
650.51	57130.14
650.70	57201.82
650.89	56661.15
651.09	57500.82
651.28	56908.96
651.47	56878.24
651.67	57017.50
651.86	57461.91
652.06	56665.25
652.25	57103.51
652.44	56636.58
652.64	56384.68
652.83	56808.61
653.02	56999.07
653.22	56528.03
653.41	56642.72
653.60	56728.73
653.80	56341.67
653.99	56685.73
654.18	56738.97
654.38	56226.98
654.57	56949.92
654.76	56501.41
654.96	56915.10
655.15	56784.03
655.34	56632.48
655.54	56454.31
655.73	56493.22
655.92	56571.04
656.12	56482.98
656.31	56835.23
656.50	56683.68
656.70	56472.74
656.89	56843.42
657.08	56448.16
657.28	56841.37
657.47	56167.59
657.66	56628.38
657.86	57015.45
658.05	56786.08
658.24	56835.23
658.43	56378.53
658.63	57142.42
658.82	57040.03
659.01	56984.73
659.21	56904.86
659.40	56927.39
659.59	56497.31
659.79	57246.87
659.98	56927.39
660.17	56734.88
660.36	56712.35
660.56	56786.08
660.75	57093.27
660.94	56550.56
661.14	56712.35
661.33	56773.79
661.52	56274.09
661.71	56745.12
661.91	56466.59
662.10	56571.04
662.29	56687.78
662.49	56411.30
662.68	56505.51
662.87	56855.71
663.06	56214.69
663.26	56579.23
663.45	56646.82
663.64	56472.74
663.83	57027.74
664.03	56868.00
664.22	56380.58
664.41	57013.40
664.60	56100.01
664.80	56517.79
664.99	56960.15
665.18	56534.18
665.37	56550.56
665.57	56439.97
665.76	56261.80
665.95	56143.02
666.14	56468.64
666.34	56214.69
666.53	56476.83
666.72	56636.58
666.91	56104.10
667.11	55846.06
667.30	56226.98
667.49	56071.34
667.68	55999.66
667.87	56063.14
668.07	56806.56
668.26	55817.39
668.45	56106.15
668.64	55977.13
668.84	56702.11
669.03	56472.74
669.22	56308.90
669.41	56140.97
669.60	56280.23
669.80	55925.93
669.99	56220.84
670.18	56018.09
670.37	56071.34
670.57	56497.31
670.76	56114.34
670.95	56261.80
671.14	55934.12
671.33	55696.56
671.53	56249.51
671.72	55643.31
671.91	56366.24
672.10	55872.68
672.29	55927.98
672.48	55680.17
672.68	55882.92
672.87	55807.15
673.06	55792.81
673.25	55504.05
673.44	55682.22
673.64	55727.28
673.83	56136.87
674.02	55383.22
674.21	55719.09
674.40	56358.05
674.59	55524.53
674.79	55854.25
674.98	55248.05
675.17	55817.39
675.36	54795.45
675.55	55735.47
675.74	55336.12
675.94	55618.74
676.13	55340.21
676.32	55561.39
676.51	55702.70
676.70	55485.62
676.89	55448.75
677.08	55340.21
677.28	55293.11
677.47	55403.70
677.66	55270.58
677.85	56007.85
678.04	55467.19
678.23	55231.67
678.42	55547.06
678.62	55073.98
678.81	55909.55
679.00	55354.55
679.19	55706.80
679.38	55362.74
679.57	55293.11
679.76	55188.66
679.96	55796.91
680.15	54797.50
680.34	55463.09
680.53	54994.10
680.72	55702.70
680.91	55293.11
681.10	55188.66
681.29	55223.48
681.48	55225.53
681.68	55383.22
681.87	55127.22
682.06	55096.50
682.25	54576.32
682.44	55006.39
682.63	55231.67
682.82	54600.89
683.01	54916.28
683.20	54432.96
683.39	54805.69
683.59	54609.09
683.78	54762.68
683.97	54138.05
684.16	54529.22
684.35	54422.72
684.54	54521.02
684.73	54498.50
684.92	54756.54
685.11	54564.03
685.30	54312.13
685.49	54310.08
685.69	54426.82
685.88	54234.31
686.07	53941.45
686.26	54279.36
686.45	54291.65
686.64	54480.06
686.83	54197.44
687.02	54924.47
687.21	54588.61
687.40	54637.76
687.59	54348.99
687.78	54441.15
687.97	54654.14
688.16	54242.50
688.35	54351.04
688.54	54475.97
688.74	54146.25
688.93	54056.14
689.12	54029.51
689.31	54238.40
689.50	54099.14
689.69	53814.47
689.88	53361.87
690.07	54097.09
690.26	54023.37
690.45	54703.29
690.64	53949.64
690.83	54043.85
691.02	53597.39
691.21	53929.16
691.40	53970.12
691.59	54641.85
691.78	54297.80
691.97	53794.00
692.16	53871.82
692.35	53900.49
692.54	53963.98
692.73	54205.64
692.92	53757.13
693.11	53861.58
693.30	53798.09
693.49	54009.03
693.68	53675.21
693.87	54025.42
694.06	53458.13
694.25	53687.50
694.44	53593.29
694.63	53490.90
694.82	53671.12
695.01	53671.12
695.20	53712.08
695.39	53384.40
695.58	53544.14
695.77	53077.21
695.96	53279.96
696.15	53449.94
696.34	53542.10
696.53	53781.71
696.72	53669.07
696.91	53734.60
697.10	53208.28
697.29	53167.32
697.48	53583.05
697.67	53454.03
697.86	52827.35
698.05	53079.25
698.24	53828.81
698.43	52804.83
698.62	53503.18
698.81	53132.50
699.00	53429.46
699.19	52952.28
699.38	53273.81
699.57	52602.08
699.76	53867.72
699.95	53286.10
700.14	52794.59
700.32	53148.88
700.51	52851.93
700.70	53136.60
700.89	53464.27
701.08	53003.48
701.27	53269.72
701.46	53652.69
701.65	52520.16
701.84	52892.89
702.03	52794.59
702.22	53048.53
702.41	52765.91
702.60	53241.04
702.79	53171.41
702.98	52706.52
703.17	52628.70
703.35	52903.13
703.54	52960.47
703.73	53152.98
703.92	52858.07
704.11	52894.94
704.30	52524.25
704.49	52567.26
704.68	52616.41
704.87	52983.00
705.06	52716.76
705.25	52661.47
705.43	52729.05
705.62	52745.44
705.81	52954.33
706.00	52430.05
706.19	52778.20
706.38	52387.04
706.57	52765.91
706.76	52847.83
706.95	52614.37
707.14	52165.86
707.32	52327.65
707.51	52229.35
707.70	52262.11
707.89	52647.13
708.08	52061.41
708.27	52366.56
708.46	52692.19
708.65	52643.04
708.84	52860.12
709.02	52600.03
709.21	52516.06
709.40	52514.01
709.59	52620.51
709.78	52176.10
709.97	52571.36
710.16	52292.83
710.34	52321.51
710.53	52317.41
710.72	52184.29
710.91	52165.86
711.10	52491.49
711.29	52323.55
711.48	52083.94
711.66	52303.07
711.85	52147.43
712.04	52280.55
712.23	52139.24
712.42	52282.59
712.61	52362.46
712.80	52151.52
712.98	52151.52
713.17	51956.97
713.36	52172.00
713.55	52247.78
713.74	51795.18
713.93	51926.25
714.11	52006.12
714.30	51856.62
714.49	52077.80
714.68	52133.09
714.87	52012.26
715.06	51834.09
715.24	51705.07
715.43	51832.04
715.62	51518.70
715.81	51207.41
716.00	51664.11
716.18	51383.54
716.37	51068.15
716.56	51750.12
716.75	52364.51
716.94	51623.15
717.12	51688.68
717.31	51610.86
717.50	51858.66
717.69	51602.67
717.88	51428.59
718.06	51770.60
718.25	51879.14
718.44	51633.39
718.63	51244.27
718.82	51240.18
719.00	51115.25
719.19	51090.68
719.38	51330.29
719.57	50703.61
719.76	50969.85
719.94	50627.84
720.13	50453.76
720.32	50820.34
720.51	50300.16
720.69	51135.73
720.88	50418.94
721.07	50410.75
721.26	50468.09
721.44	50162.95
721.63	50273.54
721.82	50711.80
722.01	50289.92
722.20	50140.42
722.38	50152.71
722.57	49923.33
722.76	50177.28
722.95	50246.91
723.13	50013.44
723.32	49847.56
723.51	50189.57
723.70	49870.09
723.88	50046.21
724.07	49612.04
724.26	49675.53
724.44	49005.84
724.63	49722.63
724.82	49702.15
725.01	49925.38
725.19	49632.52
725.38	49683.72
725.57	49571.08
725.76	49562.89
725.94	48835.86
726.13	49061.14
726.32	49468.69
726.51	49259.79
726.69	49878.28
726.88	49706.25
727.07	49575.18
727.25	49251.60
727.44	49220.88
727.63	49519.88
727.82	49433.87
728.00	49327.38
728.19	49399.05
728.38	49435.92
728.56	49067.28
728.75	49941.77
728.94	48905.49
729.12	49323.28
729.31	49560.84
729.50	49251.60
729.69	49083.67
729.87	49288.46
730.06	49065.24
730.25	49132.82
730.43	49356.05
730.62	49378.57
730.81	49478.92
730.99	49536.27
731.18	48997.65
731.37	49288.46
731.55	49356.05
731.74	49620.23
731.93	49718.54
732.11	49571.08
732.30	49145.11
732.49	48983.32
732.67	49337.62
732.86	49028.37
733.05	48971.03
733.23	48852.25
733.42	49087.76
733.61	49136.91
733.79	49472.78
733.98	49257.74
734.17	49159.44
734.35	49179.92
734.54	49091.86
734.73	48979.22
734.91	48782.62
735.10	48997.65
735.29	49229.07
735.47	48420.13
735.66	49083.67
735.84	48907.54
736.03	48532.76
736.22	48833.81
736.40	48557.34
736.59	49009.94
736.78	48461.08
736.96	48637.21
737.15	48586.01
737.33	48518.43
737.52	48604.44
737.71	48487.71
737.89	48385.31
738.08	48334.11
738.27	48399.65
738.45	48727.32
738.64	48956.69
738.82	48338.21
739.01	48456.99
739.20	48475.42
739.38	48262.43
739.57	48160.03
739.75	48330.01
739.94	48407.84
740.13	48137.51
740.31	48252.19
740.50	47949.09
740.68	48129.31
740.87	48448.80
741.06	48471.32
741.24	47981.86
741.43	47818.02
741.61	47957.28
741.80	48059.68
741.99	47861.03
742.17	47580.46
742.36	48053.54
742.54	47822.12
742.73	47789.35
742.91	48166.18
743.10	48006.44
743.29	48100.64
743.47	47904.04
743.66	47842.60
743.84	48149.79
744.03	47643.94
744.21	47488.30
744.40	48080.16
744.59	47512.88
744.77	47465.77
744.96	47420.72
745.14	47582.51
745.33	47605.03
745.51	46798.13
745.70	47508.78
745.88	47054.13
746.07	47086.90
746.26	46849.33
746.44	46730.55
746.63	46710.07
746.81	47056.18
747.00	46652.73
747.18	46916.92
747.37	46751.03
747.55	46683.45
747.74	47402.28
747.92	46124.35
748.11	46523.71
748.29	46708.02
748.48	46669.11
748.66	46388.54
748.85	46220.61
749.03	46814.52
749.22	46470.46
749.41	46482.75
749.59	46703.93
749.78	46351.68
749.96	45978.95
750.15	46398.78
750.33	46374.20
750.52	46314.81
750.70	46153.02
750.89	46048.58
751.07	45952.32
751.26	45956.42
751.44	45882.69
751.63	45841.73
751.81	45454.67
752.00	45980.99
752.18	45970.75
752.37	45430.09
752.55	45317.45
752.74	45346.12
752.92	45325.64
753.10	45186.38
753.29	45833.54
753.47	45380.94
753.66	45491.53
753.84	45524.30
754.03	45137.23
754.21	45473.10
754.40	45411.66
754.58	45413.71
754.77	45651.27
754.95	44905.81
755.14	45221.20
755.32	44823.89
755.51	44680.53
755.69	44920.15
755.88	45008.21
756.06	44926.29
756.24	44737.88
756.43	44750.17
756.61	44741.97
756.80	44805.46
756.98	44807.51
757.17	44414.30
757.35	44713.30
757.54	44270.94
757.72	44739.93
757.90	44164.45
758.09	44449.11
758.27	44551.51
758.46	43701.61
758.64	43996.51
758.83	44393.82
759.01	44158.30
759.19	44250.46
759.38	44049.76
759.56	44297.56
759.75	44105.06
759.93	43627.88
760.12	43578.73
760.30	43662.69
760.48	43564.39
760.67	43752.80
760.85	43564.39
761.04	44086.62
761.22	43916.64
761.40	43578.73
761.59	43691.37
761.77	43181.42
761.96	43300.20
762.14	43160.94
762.32	42823.03
762.51	42855.79
762.69	43044.21
762.88	43623.78
763.06	43173.23
763.24	43226.48
763.43	42943.86
763.61	43193.71
763.80	42923.38
763.98	43042.16
764.16	42360.19
764.35	42464.63
764.53	42114.43
764.72	42265.98
764.90	42591.61
765.08	42386.81
765.27	42356.09
765.45	42165.63
765.63	42130.81
765.82	42571.13
766.00	41725.32
766.18	41897.34
766.37	42345.85
766.55	41897.34
766.74	42354.04
766.92	42141.05
767.10	41870.72
767.29	41786.75
767.47	41559.43
767.65	41713.03
767.84	41504.13
768.02	41907.58
768.20	41532.81
768.39	41667.97
768.57	41325.96
768.75	41610.63
768.94	41055.63
769.12	41227.66
769.30	41037.20
769.49	40996.24
769.67	41231.75
769.85	40922.51
770.04	41352.58
770.22	40674.71
770.40	40910.22
770.59	40918.42
770.77	41108.88
770.95	40811.92
771.14	40850.83
771.32	40170.91
771.50	39910.82
771.69	40566.16
771.87	40834.45
772.05	40310.17
772.24	39919.01
772.42	40162.72
772.60	39939.49
772.78	40318.36
772.97	40082.84
773.15	40175.00
773.33	40103.32
773.52	39982.49
773.70	40019.36
773.88	40043.93
774.07	40379.80
774.25	40082.84
774.43	40132.00
774.61	40258.97
774.80	40248.73
774.98	39927.20
775.16	40041.88
775.34	40369.56
775.53	39654.82
775.71	40078.75
775.89	40058.27
776.08	40095.13
776.26	40240.54
776.44	39777.70
776.62	40140.19
776.81	39947.68
776.99	40609.17
777.17	40187.29
777.35	40289.69
777.54	40365.46
777.72	40170.91
777.90	40177.05
778.08	40478.10
778.27	39953.82
778.45	40443.29
778.63	40371.61
778.81	39597.48
779.00	40453.53
779.18	40451.48
779.36	40932.75
779.54	40514.97
779.73	40416.66
779.91	40617.36
780.09	40844.69
780.27	40617.36
780.46	40293.79
780.64	40899.98
780.82	40283.55
781.00	40482.20
781.19	40496.53
781.37	40899.98
781.55	40879.50
781.73	40963.47
781.91	40555.93
782.10	40684.95
782.28	40539.54
782.46	40676.76
782.64	40824.21
782.82	40287.64
783.01	40770.96
783.19	40949.14
783.37	40775.06
783.55	40394.14
783.74	41024.91
783.92	40295.83
784.10	40707.47
784.28	40730.00
784.46	40379.80
784.64	40658.32
784.83	40551.83
785.01	40973.71
785.19	40715.67
785.37	41020.81
785.55	40658.32
785.74	40215.96
785.92	40646.04
786.10	40340.89
786.28	40613.27
786.46	40234.39
786.64	40258.97
786.83	40367.51
787.01	40566.16
787.19	40398.23
787.37	40207.77
787.55	40326.55
787.74	40066.46
787.92	40132.00
788.10	39746.98
788.28	39962.01
788.46	39935.39
788.64	39931.29
788.82	40258.97
789.01	39607.72
789.19	39509.41
789.37	39722.40
789.55	39601.57
789.73	39441.83
789.91	39331.24
790.09	39267.75
790.28	39331.24
790.46	39372.20
790.64	39757.22
790.82	39572.90
791.00	39103.92
791.18	39024.04
791.36	39155.11
791.55	39560.61
791.73	38749.62
791.91	38942.13
792.09	38888.88
792.27	38835.63
792.45	38899.12
792.63	38659.51
792.81	38553.01
793.00	38624.69
793.18	38729.14
793.36	38444.47
793.54	38311.35
793.72	38024.64
793.90	38491.57
794.08	37965.24
794.26	38315.45
794.44	37889.47
794.62	37608.90
794.81	38024.64
794.99	37887.42
795.17	37868.99
795.35	37545.41
795.53	37674.43
795.71	37680.58
795.89	37514.69
796.07	37332.42
796.25	37350.85
796.43	37074.38
796.61	36640.21
796.80	36859.34
796.98	36750.80
797.16	36650.45
797.34	37025.23
797.52	36619.73
797.70	36879.82
797.88	36734.42
798.06	36304.34
798.24	36373.97
798.42	36304.34
798.60	36330.97
798.78	36548.05
798.96	36437.46
799.14	36046.30
799.32	36648.40
799.51	35907.04
799.69	35972.57
799.87	35450.34
800.05	35599.84
800.23	36152.79
800.41	35501.54
800.59	35597.79
800.77	35272.17
800.95	35411.43
801.13	35479.01
801.31	35075.56
801.49	35386.85
801.67	35151.34
801.85	34891.24
802.03	34682.35
802.21	34627.06
802.39	34557.42
802.57	34608.62
802.75	34794.99
802.93	34416.11
803.11	34362.87
803.29	34379.25
803.47	34317.81
803.65	34522.61
803.83	34141.69
804.01	34272.76
804.19	33646.08
804.37	33814.01
804.55	33965.56
804.73	34100.73
804.91	33725.95
805.09	33644.03
805.27	33619.46
805.45	33748.48
805.63	33613.31
805.81	33736.19
805.99	33572.35
806.17	33580.54
806.35	33320.45
806.53	32996.87
806.71	33426.95
806.89	33005.06
807.07	33158.66
807.25	33191.43
807.43	32749.07
807.61	33103.37
807.79	32968.20
807.97	32935.43
808.15	32495.12
808.33	32695.82
808.51	32833.04
808.69	32640.53
808.87	32370.19
809.05	32208.40
809.23	32394.77
809.41	32237.08
809.59	32368.15
809.77	32304.66
809.95	31989.27
810.13	32142.87
810.31	32204.31
810.49	32261.65
810.67	32208.40
810.84	31809.05
811.02	32306.71
811.20	31464.99
811.38	31823.39
811.56	31618.59
811.74	31831.58
811.92	31378.98
812.10	32048.66
812.28	31831.58
812.46	31528.48
812.64	31325.73
812.82	31426.08
813.00	31329.83
813.18	31534.62
813.36	31260.20
813.53	31133.22
813.71	31073.83
813.89	31178.28
814.07	30832.17
814.25	31135.27
814.43	30758.44
814.61	30955.05
814.79	30625.32
814.97	30352.94
815.15	30817.83
815.33	30694.96
815.50	30594.61
815.68	30625.32
815.86	31104.55
816.04	30406.19
816.22	30250.55
816.40	30473.78
816.58	29998.65
816.76	30074.42
816.94	30400.05
817.11	30164.53
817.29	30373.42
817.47	30082.61
817.65	29951.54
817.83	29912.63
818.01	29529.66
818.19	29716.03
818.37	29744.70
818.54	29752.89
818.72	29771.32
818.90	29503.04
819.08	29318.72
819.26	29818.42
819.44	29562.43
819.62	29773.37
819.80	29656.64
819.97	29699.64
820.15	29406.78
820.33	29281.86
820.51	29525.57
820.69	29015.62
820.87	29429.31
821.05	29529.66
821.22	29242.95
821.40	29404.74
821.58	28921.41
821.76	28862.02
821.94	29124.16
822.12	29226.56
822.29	28874.31
822.47	28696.14
822.65	28898.89
822.83	28902.98
823.01	28677.71
823.19	28474.96
823.36	28448.33
823.54	28620.36
823.72	28292.69
823.90	28444.24
824.08	28139.09
824.25	28487.25
824.43	28059.22
824.61	28294.74
824.79	28372.56
824.97	28425.81
825.15	28290.64
825.32	28085.84
825.50	27997.78
825.68	28091.99
825.86	28395.09
826.04	28178.00
826.21	27991.64
826.39	28010.07
826.57	27768.41
826.75	27823.70
826.93	27899.48
827.10	27903.57
827.28	28014.16
827.46	27981.40
827.64	27694.68
827.81	27473.50
827.99	27483.74
828.17	27489.88
828.35	27825.75
828.53	27524.70
828.70	27381.34
828.88	27496.03
829.06	27506.27
829.24	27833.94
829.41	27209.31
829.59	27612.76
829.77	27289.18
829.95	27393.63
830.12	27039.33
830.30	27272.80
830.48	27465.31
830.66	27129.44
830.84	27231.84
831.01	26904.17
831.19	27401.82
831.37	26910.31
831.55	27192.93
831.72	27102.82
831.90	27219.55
832.08	26924.65
832.25	27237.98
832.43	27252.32
832.61	26918.50
832.79	26635.88
832.96	26750.57
833.14	27027.04
833.32	26926.69
833.50	26902.12
833.67	27035.24
833.85	26678.89
834.03	26756.71
834.20	26771.05
834.38	26414.70
834.56	26644.07
834.74	26232.43
834.91	26492.52
835.09	26576.49
835.27	26429.04
835.44	26441.32
835.62	26259.06
835.80	25966.20
835.98	26513.00
836.15	26437.23
836.33	26025.59
836.51	26340.97
836.68	26117.75
836.86	25992.82
837.04	26230.38
837.21	26234.48
837.39	26001.01
837.57	25974.39
837.75	25781.88
837.92	25777.78
838.10	25874.04
838.28	25697.91
838.45	25716.34
838.63	25620.09
838.81	25804.41
838.98	25646.71
839.16	25628.28
839.34	25433.72
839.51	25636.47
839.69	25390.72
839.87	25552.51
840.04	25636.47
840.22	25579.13
840.40	25478.78
840.57	25415.29
840.75	25339.52
840.93	24977.03
841.10	25566.84
841.28	25577.08
841.46	25132.67
841.63	25503.35
841.81	25114.24
841.98	25257.60
842.16	25419.39
842.34	25331.33
842.51	24964.74
842.69	25249.41
842.87	24714.89
843.04	24917.64
843.22	25054.85
843.40	25071.23
843.57	25030.27
843.75	25263.74
843.92	25075.33
844.10	24659.59
844.28	24921.73
844.45	24942.21
844.63	24923.78
844.81	24489.61
844.98	25026.18
845.16	24737.41
845.33	24684.17
845.51	24657.54
845.69	24856.20
845.86	24577.67
846.04	24411.79
846.21	24569.48
846.39	24485.51
846.57	24413.84
846.74	24315.53
846.92	24497.80
847.09	24444.56
847.27	24151.70
847.45	24405.64
847.62	24403.60
847.80	24276.62
847.97	24379.02
848.15	23824.02
848.32	24190.61
848.50	24213.13
848.68	23877.27
848.85	23977.62
849.03	23709.33
849.20	24051.34
849.38	24149.65
849.56	23922.32
849.73	23615.13
849.91	24063.63
850.08	23729.81
850.26	23721.62
850.43	23778.97
850.61	23762.58
850.78	23471.77
850.96	23750.29
851.14	23742.10
851.31	23578.26
851.49	23416.47
851.66	23709.33
851.84	23619.22
852.01	23502.49
852.19	23658.14
852.36	23651.99
852.54	23160.48
852.71	23490.20
852.89	23152.29
853.07	23183.01
853.24	23303.84
853.42	23256.73
853.59	23232.16
853.77	23082.66
853.94	23490.20
854.12	23238.30
854.29	23045.79
854.47	22894.24
854.64	22894.24
854.82	23193.25
854.99	22998.69
855.17	22984.35
855.34	23094.94
855.52	22740.64
855.69	22890.15
855.87	22732.45
856.04	22935.20
856.22	22816.42
856.39	22402.73
856.57	22734.50
856.74	22658.73
856.92	22847.14
857.09	22658.73
857.27	22533.80
857.44	22675.11
857.62	22515.37
857.79	22734.50
857.97	22634.15
858.14	22367.91
858.32	22554.28
858.49	22079.15
858.67	22400.68
858.84	22281.90
859.02	22339.24
859.19	22638.25
859.37	22390.44
859.54	22036.14
859.72	22365.87
859.89	22159.02
860.06	22167.21
860.24	22017.71
860.41	22150.83
860.59	22105.77
860.76	22087.34
860.94	21841.59
861.11	21923.51
861.29	21687.99
861.46	21905.07
861.64	21593.78
861.81	21857.97
861.98	22019.76
862.16	21706.42
862.33	21655.22
862.51	21532.34
862.68	21817.01
862.86	21599.93
863.03	21747.38
863.21	21417.66
863.38	21741.24
863.55	21624.50
863.73	21644.98
863.90	21563.06
864.08	21388.99
864.25	21335.74
864.43	21251.77
864.60	21544.63
864.77	21335.74
864.95	21081.79
865.12	21116.61
865.30	21352.12
865.47	21069.50
865.64	20965.06
865.82	21206.72
865.99	21274.30
866.17	20897.47
866.34	20989.63
866.51	20917.95
866.69	20854.47
866.86	20920.00
867.04	21049.02
867.21	20840.13
867.38	20827.84
867.56	20653.76
867.73	20543.17
867.91	20537.03
868.08	20616.90
868.25	20815.55
868.43	20502.22
868.60	20614.85
868.78	20442.82
868.95	20692.68
869.12	20412.10
869.30	20246.22
869.47	20287.18
869.64	20274.89
869.82	20326.09
869.99	20190.92
870.16	20192.97
870.34	19996.37
870.51	19994.32
870.69	19723.99
870.86	19924.69
871.03	20061.90
871.21	19912.40
871.38	20086.48
871.55	19853.01
871.73	19912.40
871.90	19449.56
872.07	19609.30
872.25	19680.98
872.42	19640.02
872.59	19515.09
872.77	19568.34
872.94	19447.51
873.11	19291.87
873.29	19349.21
873.46	19390.17
873.63	19375.83
873.81	19617.49
873.98	19330.78
874.15	19142.36
874.33	19056.35
874.50	18953.95
874.67	19173.08
874.85	19019.49
875.02	19074.78
875.19	19154.65
875.37	18800.35
875.54	19087.07
875.71	18999.01
875.88	18710.24
876.06	19103.45
876.23	18536.17
876.40	18706.15
876.58	18538.21
876.75	18484.97
876.92	18640.61
877.10	18568.93
877.27	18562.79
877.44	18177.77
877.61	18437.86
877.79	18173.67
877.96	18140.91
878.13	18259.69
878.31	18222.83
878.48	18153.20
878.65	18122.48
878.82	17876.72
879.00	17946.35
879.17	18001.65
879.34	18065.13
879.51	17774.32
879.69	17870.58
879.86	17547.00
880.03	17790.70
880.21	17821.42
880.38	18116.33
880.55	17909.49
880.72	17762.03
880.90	17846.00
881.07	17620.72
881.24	17616.63
881.41	17647.35
881.59	17577.72
881.76	17536.76
881.93	17262.33
882.10	17313.53
882.28	17530.61
882.45	17411.83
882.62	17336.06
882.79	17602.29
882.96	17137.40
883.14	17565.43
883.31	17483.51
883.48	17268.47
883.65	17075.96
883.83	17407.73
884.00	17217.27
884.17	17544.95
884.34	17327.86
884.51	17178.36
884.69	17137.40
884.86	17190.65
885.03	17073.92
885.20	16926.46
885.38	16828.16
885.55	16953.09
885.72	16955.13
885.89	16811.78
886.06	16912.13
886.24	16961.28
886.41	16748.29
886.58	17196.79
886.75	16832.26
886.92	16568.07
887.10	16649.99
887.27	16781.06
887.44	16551.68
887.61	17012.48
887.78	16633.60
887.95	16707.33
888.13	16510.72
888.30	16518.92
888.47	16457.48
888.64	16486.15
888.81	16348.93
888.99	16637.70
889.16	16183.05
889.33	16377.61
889.50	16334.60
889.67	16119.56
889.84	16158.47
890.01	16260.87
890.19	16221.96
890.36	16207.62
890.53	16189.19
890.70	16084.75
890.87	16027.40
891.04	15898.38
891.22	16166.67
891.39	15763.22
891.56	15793.94
891.73	15898.38
891.90	15929.10
892.07	15906.57
892.24	15998.73
892.42	15814.41
892.59	15935.24
892.76	15693.58
892.93	15544.08
893.10	15689.49
893.27	15744.78
893.44	15505.17
893.61	15558.42
893.79	15576.85
893.96	15408.92
894.13	15394.58
894.30	15658.77
894.47	15679.25
894.64	15687.44
894.81	15626.00
894.98	15628.05
895.15	15517.46
895.33	15560.47
895.50	15419.16
895.67	15355.67
895.84	15589.14
896.01	15398.68
896.18	15283.99
896.35	15656.72
896.52	15324.95
896.69	15148.82
896.86	15372.05
897.04	15322.90
897.21	15445.78
897.38	15310.61
897.55	15279.89
897.72	15570.71
897.89	15386.39
898.06	15421.20
898.23	15374.10
898.40	15632.15
898.57	15314.71
898.74	15195.93
898.91	15378.20
899.08	15208.22
899.26	15087.39
899.43	15255.32
899.60	15046.43
899.77	15060.76
899.94	15263.51
900.11	14835.49
900.28	15273.75
900.45	15097.63
900.62	14923.55
900.79	15048.47
900.96	15175.45
901.13	15214.36
901.30	15064.86
901.47	14982.94
901.64	14982.94
901.81	15091.48
901.98	14997.28
902.15	15269.66
902.32	14917.40
902.49	15302.42
902.66	15046.43
902.83	15148.82
903.01	14870.30
903.18	14909.21
903.35	14847.77
903.52	15040.28
903.69	15136.54
903.86	15320.85
904.03	15019.80
904.20	15109.91
904.37	14925.60
904.54	15275.80
904.71	15083.29
904.88	15232.79
905.05	15040.28
905.22	15232.79
905.39	14876.44
905.56	14984.99
905.73	14911.26
905.90	15007.52
906.07	14794.53
906.24	15093.53
906.41	14917.40
906.58	15206.17
906.75	14817.05
906.92	14698.27
907.09	14995.23
907.26	14802.72
907.43	14706.46
907.60	14987.04
907.77	14880.54
907.93	14878.49
908.10	14831.39
908.27	14941.98
908.44	14507.81
908.61	14780.19
908.78	14831.39
908.95	15027.99
909.12	14931.74
909.29	14864.16
909.46	14579.49
909.63	14890.78
909.80	14698.27
909.97	14696.22
910.14	14567.20
910.31	14706.46
910.48	14675.74
910.65	14821.15
910.82	14546.72
910.99	14751.52
911.16	14685.98
911.33	14638.88
911.50	14534.43
911.66	14487.33
911.83	14665.50
912.00	14403.36
912.17	14196.52
912.34	14333.73
912.51	14393.12
912.68	14233.38
912.85	14348.07
913.02	14411.56
913.19	14266.15
913.36	14290.73
913.53	14270.25
913.70	14241.57
913.86	14401.32
914.03	13993.77
914.20	14169.90
914.37	14143.27
914.54	14165.80
914.71	14153.51
914.88	13979.43
915.05	13809.45
915.22	13791.02
915.39	13881.13
915.55	13954.86
915.72	13985.58
915.89	13934.38
916.06	13635.38
916.23	13834.03
916.40	13608.75
916.57	13729.58
916.74	13557.55
916.91	13737.77
917.07	13539.12
917.24	13641.52
917.41	13500.21
917.58	13698.86
917.75	13510.45
917.92	13422.39
918.09	13412.15
918.26	13211.45
918.42	13559.60
918.59	13383.48
918.76	13221.69
918.93	13217.59
919.10	12969.79
919.27	13047.61
919.44	13117.24
919.60	13141.82
919.77	13063.99
919.94	12916.54
920.11	12963.64
920.28	13006.65
920.45	12930.87
920.61	12869.44
920.78	12791.61
920.95	12715.84
921.12	12638.02
921.29	12455.75
921.46	12537.66
921.62	12513.09
921.79	12678.97
921.96	12652.35
922.13	12420.93
922.30	12265.28
922.47	12379.97
922.63	12359.49
922.80	12259.14
922.97	12126.02
923.14	12048.20
923.31	12158.79
923.47	11986.76
923.64	12107.59
923.81	11792.20
923.98	11990.86
924.15	12070.73
924.32	12021.58
924.48	11802.44
924.65	11872.07
924.82	11681.61
924.99	11505.49
925.15	11792.20
925.32	11634.51
925.49	11495.25
925.66	11460.43
925.83	11593.55
925.99	11495.25
926.16	11421.52
926.33	11450.19
926.50	11140.95
926.67	11503.44
926.83	11308.88
927.00	11355.99
927.17	11183.96
927.34	10932.06
927.50	10944.34
927.67	11157.33
927.84	11036.50
928.01	11054.94
928.17	10864.47
928.34	10827.61
928.51	10669.92
928.68	10624.86
928.84	10809.18
929.01	10563.42
929.18	10567.52
929.35	10422.11
929.51	10610.53
929.68	10329.95
929.85	10209.12
930.02	10342.24
930.18	10323.81
930.35	10153.83
930.52	10319.71
930.69	10360.67
930.85	10289.00
931.02	9944.94
931.19	10280.80
931.36	10182.50
931.52	10129.25
931.69	10145.64
931.86	9926.50
932.02	10086.25
932.19	9860.97
932.36	9953.13
932.53	9748.33
932.69	9641.84
932.86	9670.51
933.03	9639.79
933.19	9637.74
933.36	9527.15
933.53	9523.05
933.70	9330.55
933.86	9332.59
934.03	9490.29
934.20	9328.50
934.36	9193.33
934.53	9195.38
934.70	9017.21
934.86	9197.43
935.03	8998.77
935.20	8959.86
935.36	8716.16
935.53	8929.14
935.70	8818.55
935.86	8814.46
936.03	8626.04
936.20	8482.69
936.36	8570.75
936.53	8445.82
936.70	8322.94
936.86	8474.49
937.03	8243.07
937.20	8011.65
937.36	8081.28
937.53	8007.56
937.70	7802.76
937.86	7810.95
938.03	7714.70
938.20	7782.28
938.36	7522.19
938.53	7602.06
938.70	7362.45
938.86	7315.34
939.03	7315.34
939.20	7067.54
939.36	7174.03
939.53	6993.81
939.70	7290.77
939.86	6750.10
940.03	6680.47
940.19	6768.54
940.36	6717.34
940.53	6780.82
940.69	6563.74
940.86	6469.53
941.03	6344.61
941.19	6295.46
941.36	6373.28
941.52	6166.43
941.69	5975.97
941.86	6109.09
942.02	6143.91
942.19	6086.56
942.35	5961.64
942.52	6039.46
942.69	5875.62
942.85	5865.38
943.02	5650.35
943.18	5779.37
943.35	5746.60
943.52	5584.81
943.68	5621.67
943.85	5703.59
944.01	5556.14
944.18	5488.56
944.35	5568.43
944.51	5410.73
944.68	5390.25
944.84	5463.98
945.01	5337.01
945.17	5302.19
945.34	5357.49
945.51	5326.77
945.67	5433.26
945.84	5304.24
946.00	5134.26
946.17	5279.66
946.33	5275.57
946.50	5345.20
946.67	5199.79
946.83	5271.47
947.00	5216.18
947.16	5261.23
947.33	5377.97
947.49	5169.07
947.66	5255.09
947.82	5343.15
947.99	5214.13
948.16	5257.14
948.32	5189.55
948.49	5175.22
948.65	5308.34
948.82	5222.32
948.98	5154.74
949.15	5111.73
949.31	5341.10
949.48	5201.84
949.64	5187.50
949.81	5210.03
949.97	5312.43
950.14	5330.86
950.30	5236.66
950.47	5418.93
950.63	5322.67
950.80	5466.03
950.96	5240.75
951.13	5279.66
951.30	5318.57
951.46	5359.53
951.63	5320.62
951.79	5341.10
951.96	5308.34
952.12	5326.77
952.29	5334.96
952.45	5261.23
952.62	5375.92
952.78	5318.57
952.94	5238.70
953.11	5212.08
953.27	5232.56
953.44	5392.30
953.60	5476.27
953.77	5447.60
953.93	5312.43
954.10	5330.86
954.26	5402.54
954.43	5316.53
954.59	5416.88
954.76	5451.69
954.92	5326.77
955.09	5294.00
955.25	5328.81
955.42	5402.54
955.58	5484.46
955.75	5494.70
955.91	5294.00
956.07	5511.08
956.24	5408.69
956.40	5525.42
956.57	5431.21
956.73	5369.77
956.90	5408.69
957.06	5427.12
957.23	5435.31
957.39	5377.97
957.56	5521.32
957.72	5310.38
957.88	5408.69
958.05	5418.93
958.21	5425.07
958.38	5377.97
958.54	5361.58
958.71	5443.50
958.87	5420.97
959.03	5351.34
959.20	5341.10
959.36	5304.24
959.53	5425.07
959.69	5380.01
959.85	5623.72
960.02	5357.49
960.18	5394.35
960.35	5324.72
960.51	5431.21
960.68	5427.12
960.84	5498.80
961.00	5250.99
961.17	5423.02
961.33	5320.62
961.50	5461.93
961.66	5339.05
961.82	5337.01
961.99	5472.17
962.15	5435.31
962.31	5365.68
962.48	5431.21
962.64	5521.32
962.81	5394.35
962.97	5398.45
963.13	5382.06
963.30	5351.34
963.46	5320.62
963.62	5418.93
963.79	5330.86
963.95	5283.76
964.12	5253.04
964.28	5312.43
964.44	5261.23
964.61	5240.75
964.77	5410.73
964.93	5484.46
965.10	5332.91
965.26	5267.38
965.42	5312.43
965.59	5224.37
965.75	5199.79
965.92	5320.62
966.08	5310.38
966.24	5369.77
966.41	5257.14
966.57	5218.22
966.73	5146.55
966.90	5226.42
967.06	5142.45
967.22	5162.93
967.39	5164.98
967.55	5132.21
967.71	5201.84
967.88	5105.59
968.04	5285.81
968.20	5167.03
968.37	5130.16
968.53	5205.94
968.69	5148.59
968.85	4966.32
969.02	5160.88
969.18	5220.27
969.34	5070.77
969.51	5001.14
969.67	5230.51
969.83	4986.80
970.00	5271.47
970.16	5222.32
970.32	5085.11
970.48	5140.40
970.65	5013.43
970.81	4997.04
970.97	5019.57
971.14	4937.65
971.30	5169.07
971.46	4970.42
971.63	5035.96
971.79	5130.16
971.95	5087.15
972.11	4865.97
972.28	4976.56
972.44	5019.57
972.60	4902.84
972.76	5058.48
972.93	5017.52
973.09	4911.03
973.25	4990.90
973.42	4962.23
973.58	4976.56
973.74	4923.32
973.90	4906.93
974.07	4769.72
974.23	4782.01
974.39	4865.97
974.55	4728.76
974.72	4773.82
974.88	4775.86
975.04	4851.64
975.20	4900.79
975.37	4865.97
975.53	4925.36
975.69	4865.97
975.85	4675.51
976.01	4663.22
976.18	4661.18
976.34	4788.15
976.50	4767.67
976.66	4802.49
976.83	4804.53
976.99	4685.75
977.15	4652.98
977.31	4583.35
977.47	4775.86
977.64	4769.72
977.80	4661.18
977.96	4722.62
978.12	4689.85
978.29	4517.82
978.45	4554.68
978.61	4444.09
978.77	4622.27
978.93	4566.97
979.10	4622.27
979.26	4431.80
979.42	4573.11
979.58	4462.52
979.74	4460.48
979.91	4497.34
980.07	4300.73
980.23	4423.61
980.39	4495.29
980.55	4401.08
980.71	4442.04
980.88	4435.90
981.04	4333.50
981.20	4544.44
981.36	4446.14
981.52	4448.19
981.68	4378.56
981.85	4425.66
982.01	4196.29
982.17	4245.44
982.33	4442.04
982.49	4468.67
982.65	4255.68
982.82	4253.63
982.98	4405.18
983.14	4239.30
983.30	4282.30
983.46	4288.45
983.62	4419.52
983.79	4173.76
983.95	4163.52
984.11	4186.05
984.27	4298.69
984.43	4143.04
984.59	4196.29
984.75	4229.06
984.91	4175.81
985.08	4167.62
985.24	4153.28
985.40	4163.52
985.56	4231.10
985.72	4118.47
985.88	4171.71
986.04	4171.71
986.20	4147.14
986.37	4132.80
986.53	4038.59
986.69	4202.43
986.85	3942.34
987.01	4149.18
987.17	4108.23
987.33	3960.77
987.49	3966.92
987.65	4100.03
987.82	4024.26
987.98	4097.99
988.14	4061.12
988.30	4022.21
988.46	4009.92
988.62	3987.40
988.78	3950.53
988.94	3952.58
989.10	3932.10
989.26	3837.89
989.42	3932.10
989.59	3817.41
989.75	3821.51
989.91	3860.42
990.07	3704.78
990.23	3692.49
990.39	3813.32
990.55	3928.00
990.71	3751.88
990.87	3676.10
991.03	3895.24
991.19	3721.16
991.35	3760.07
991.51	3813.32
991.67	3839.94
991.83	3792.84
992.00	3758.02
992.16	3674.06
992.32	3782.60
992.48	3837.89
992.64	3712.97
992.80	3739.59
992.96	3749.83
993.12	3723.21
993.28	3700.68
993.44	3698.63
993.60	3778.50
993.76	3622.86
993.92	3557.32
994.08	3665.86
994.24	3598.28
994.40	3549.13
994.56	3678.15
994.72	3553.23
994.88	3635.14
995.04	3614.66
995.20	3624.90
995.36	3508.17
995.52	3563.47
995.68	3600.33
995.84	3551.18
996.00	3633.10
996.16	3504.07
996.32	3473.36
996.48	3514.31
996.64	3561.42
996.80	3551.18
996.96	3528.65
997.12	3514.31
997.28	3418.06
997.44	3397.58
997.60	3532.75
997.76	3413.96
997.92	3418.06
998.08	3411.92
998.24	3370.96
998.40	3346.38
998.56	3377.10
998.72	3321.81
998.88	3391.44
999.04	3286.99
999.20	3598.28
999.36	3297.23
999.52	3381.20
999.68	3393.48
999.84	3360.72
1000.00	3327.95
1000.16	3305.42
1000.32	3262.41
1000.48	3405.77
1000.64	3182.54
1000.80	3268.56
1000.95	3252.17
1001.11	3344.33
1001.27	3186.64
1001.43	3289.04
1001.59	3088.34
1001.75	3182.54
1001.91	3174.35
1002.07	3108.82
1002.23	3196.88
1002.39	3145.68
1002.55	3252.17
1002.71	3203.02
1002.87	3190.74
1003.03	3100.62
1003.19	3057.62
1003.34	3243.98
1003.50	3080.14
1003.66	3221.45
1003.82	3205.07
1003.98	3024.85
1004.14	3135.44
1004.30	3057.62
1004.46	3043.28
1004.62	3026.90
1004.78	3051.47
1004.94	2981.84
1005.09	3063.76
1005.25	3047.38
1005.41	2996.18
1005.57	3119.06
1005.73	3065.81
1005.89	2971.60
1006.05	3055.57
1006.21	3041.23
1006.37	2781.14
1006.52	2936.79
1006.68	2883.54
1006.84	3061.71
1007.00	2865.11
1007.16	3051.47
1007.32	2867.16
1007.48	2961.36
1007.64	2971.60
1007.79	2914.26
1007.95	2756.57
1008.11	3069.91
1008.27	2815.96
1008.43	2998.23
1008.59	2895.83
1008.75	2867.16
1008.91	2922.45
1009.06	2928.60
1009.22	2920.40
1009.38	2947.03
1009.54	2852.82
1009.70	2809.81
1009.86	2807.77
1010.01	2842.58
1010.17	2801.62
1010.33	2873.30
1010.49	2807.77
1010.65	2789.33
1010.81	2787.29
1010.96	2762.71
1011.12	2754.52
1011.28	2727.89
1011.44	2721.75
1011.60	2824.15
1011.76	2729.94
1011.91	2867.16
1012.07	2637.78
1012.23	2674.65
1012.39	2635.74
1012.55	2697.17
1012.71	2764.76
1012.86	2645.98
1013.02	2731.99
1013.18	2631.64
1013.34	2666.46
1013.50	2768.85
1013.65	2686.94
1013.81	2568.15
1013.97	2652.12
1014.13	2729.94
1014.29	2629.59
1014.44	2688.98
1014.60	2596.82
1014.76	2576.34
1014.92	2582.49
1015.07	2697.17
1015.23	2668.50
1015.39	2545.63
1015.55	2574.30
1015.71	2508.76
1015.86	2557.91
1016.02	2570.20
1016.18	2435.03
1016.34	2607.06
1016.49	2484.19
1016.65	2514.91
1016.81	2596.82
1016.97	2555.86
1017.12	2516.95
1017.28	2402.27
1017.44	2447.32
1017.60	2455.51
1017.75	2508.76
1017.91	2586.58
1018.07	2461.66
1018.23	2521.05
1018.38	2426.84
1018.54	2478.04
1018.70	2529.24
1018.86	2441.18
1019.01	2408.41
1019.17	2408.41
1019.33	2566.10
1019.49	2461.66
1019.64	2373.60
1019.80	2355.16
1019.96	2392.03
1020.12	2361.31
1020.27	2396.12
1020.43	2422.75
1020.59	2359.26
1020.74	2432.99
1020.90	2396.12
1021.06	2332.64
1021.22	2490.33
1021.37	2445.27
1021.53	2334.68
1021.69	2314.20
1021.84	2250.72
1022.00	2363.36
1022.16	2363.36
1022.31	2293.72
1022.47	2336.73
1022.63	2277.34
1022.79	2181.09
1022.94	2344.92
1023.10	2328.54
1023.26	2293.72
1023.41	2269.15
1023.57	2263.01
1023.73	2260.96
1023.88	2326.49
1024.04	2189.28
1024.20	2240.48
1024.35	2295.77
1024.51	2238.43
1024.67	2211.81
1024.82	2338.78
1024.98	2183.13
1025.14	2183.13
1025.29	2232.29
1025.45	2291.68
1025.61	2172.89
1025.76	2250.72
1025.92	2213.85
1026.08	2320.35
1026.23	2267.10
1026.39	2299.87
1026.55	2254.81
1026.70	2234.33
1026.86	2164.70
1027.02	2301.92
1027.17	2160.61
1027.33	2207.71
1027.48	2172.89
1027.64	2109.41
1027.80	2103.26
1027.95	2224.09
1028.11	2158.56
1028.27	2207.71
1028.42	2127.84
1028.58	2156.51
1028.73	2131.94
1028.89	2054.11
1029.05	2162.66
1029.20	2058.21
>>>>>End Processed Spectral Data<<<<<
