SpectraSuite Data File
++++++++++++++++++++++++++++++++++++
Date: Fri Jun 02 14:47:57 CEST 2017
User: INFO_000
Dark Spectrum Present: No
Reference Spectrum Present: No
Number of Sampled Component Spectra: 1
Spectrometers: USB4H00879
Integration Time (usec): 80000 (USB4H00879)
Spectra Averaged: 1 (USB4H00879)
Boxcar Smoothing: 0 (USB4H00879)
Correct for Electrical Dark: No (USB4H00879)
Strobe/Lamp Enabled: No (USB4H00879)
Correct for Detector Non-linearity: No (USB4H00879)
Correct for Stray Light: No (USB4H00879)
Number of Pixels in Processed Spectrum: 3648
>>>>>Begin Processed Spectral Data<<<<<
345.13	1263.60
345.34	1263.60
345.56	1263.60
345.78	1325.04
345.99	1279.98
346.21	1693.67
346.42	1619.94
346.64	1593.32
346.86	1769.44
347.07	1640.42
347.29	1740.77
347.50	1654.76
347.72	1658.85
347.94	1740.77
348.15	1591.27
348.37	1652.71
348.59	1697.77
348.80	1624.04
349.02	1763.30
349.23	1896.42
349.45	1839.08
349.67	1912.80
349.88	1767.40
350.10	1871.84
350.31	1806.31
350.53	1839.08
350.75	1949.67
350.96	1763.30
351.18	1865.70
351.39	1830.88
351.61	1806.31
351.82	1908.71
352.04	1935.33
352.26	1861.60
352.47	1882.08
352.69	1939.43
352.90	1830.88
353.12	1732.58
353.34	1818.60
353.55	1961.95
353.77	1941.47
353.98	1880.04
354.20	1802.21
354.41	1880.04
354.63	1949.67
354.85	1998.82
355.06	1927.14
355.28	1837.03
355.49	1877.99
355.71	1888.23
355.92	1855.46
356.14	2002.91
356.35	1877.99
356.57	1994.72
356.79	1951.71
357.00	1773.54
357.22	1996.77
357.43	1912.80
357.65	1900.52
357.86	1843.17
358.08	1941.47
358.29	1871.84
358.51	1988.58
358.72	1953.76
358.94	1892.32
359.16	1785.83
359.37	1984.48
359.59	1992.67
359.80	1964.00
360.02	1988.58
360.23	2035.68
360.45	1933.28
360.66	1880.04
360.88	1873.89
361.09	1888.23
361.31	2015.20
361.52	2007.01
361.74	2058.21
361.95	2072.54
362.17	1877.99
362.38	2072.54
362.60	2013.15
362.81	1953.76
363.03	1933.28
363.24	1964.00
363.46	1990.63
363.67	2033.63
363.89	1970.15
364.10	1992.67
364.32	1982.43
364.53	2056.16
364.75	1894.37
364.96	2015.20
365.18	2033.63
365.39	1990.63
365.61	1976.29
365.82	2183.13
366.04	2050.02
366.25	2015.20
366.47	2043.87
366.68	2037.73
366.90	1976.29
367.11	2078.69
367.33	2084.83
367.54	1988.58
367.76	2029.54
367.97	2144.22
368.19	2072.54
368.40	1994.72
368.62	2060.26
368.83	1867.75
369.05	1988.58
369.26	1992.67
369.48	1984.48
369.69	2007.01
369.91	1990.63
370.12	2019.30
370.33	2097.12
370.55	1947.62
370.76	2047.97
370.98	2025.44
371.19	1990.63
371.41	2029.54
371.62	2113.50
371.84	1959.91
372.05	2193.37
372.27	2078.69
372.48	2090.98
372.69	2105.31
372.91	2160.61
373.12	2086.88
373.34	2111.46
373.55	2109.41
373.77	2166.75
373.98	2068.45
374.20	2211.81
374.41	2181.09
374.62	2109.41
374.84	2140.13
375.05	2215.90
375.27	2154.46
375.48	2162.66
375.70	2189.28
375.91	2199.52
376.12	2303.96
376.34	2117.60
376.55	2107.36
376.77	2185.18
376.98	2068.45
377.19	2213.85
377.41	2138.08
377.62	2203.61
377.84	2209.76
378.05	2359.26
378.27	2213.85
378.48	2234.33
378.69	2351.07
378.91	2326.49
379.12	2181.09
379.34	2250.72
379.55	2275.29
379.76	2121.70
379.98	2199.52
380.19	2158.56
380.41	2263.01
380.62	2334.68
380.83	2220.00
381.05	2240.48
381.26	2394.08
381.47	2265.05
381.69	2310.11
381.90	2422.75
382.12	2281.44
382.33	2283.49
382.54	2306.01
382.76	2228.19
382.97	2310.11
383.19	2248.67
383.40	2420.70
383.61	2281.44
383.83	2322.40
384.04	2295.77
384.25	2351.07
384.47	2355.16
384.68	2379.74
384.89	2349.02
385.11	2353.12
385.32	2361.31
385.54	2301.92
385.75	2306.01
385.96	2361.31
386.18	2369.50
386.39	2447.32
386.60	2424.80
386.82	2455.51
387.03	2404.32
387.24	2572.25
387.46	2496.47
387.67	2447.32
387.88	2504.67
388.10	2478.04
388.31	2437.08
388.52	2664.41
388.74	2500.57
388.95	2498.52
389.16	2445.27
389.38	2490.33
389.59	2631.64
389.80	2639.83
390.02	2508.76
390.23	2654.17
390.44	2488.28
390.66	2516.95
390.87	2443.23
391.08	2566.10
391.30	2666.46
391.51	2639.83
391.72	2592.73
391.94	2588.63
392.15	2519.00
392.36	2545.63
392.58	2557.91
392.79	2662.36
393.00	2688.98
393.22	2645.98
393.43	2652.12
393.64	2772.95
393.85	2756.57
394.07	2697.17
394.28	2744.28
394.49	2777.05
394.71	2770.90
394.92	2797.53
395.13	2738.13
395.35	2707.41
395.56	2664.41
395.77	2801.62
395.98	2801.62
396.20	2889.68
396.41	2824.15
396.62	2807.77
396.84	2865.11
397.05	2854.87
397.26	2822.10
397.47	2961.36
397.69	2693.08
397.90	2938.84
398.11	2994.13
398.32	2813.91
398.54	2953.17
398.75	2854.87
398.96	2844.63
399.18	2981.84
399.39	2842.58
399.60	3026.90
399.81	2965.46
400.03	2904.02
400.24	3164.11
400.45	3016.66
400.66	2992.08
400.88	3071.95
401.09	3063.76
401.30	3069.91
401.51	3131.34
401.73	3057.62
401.94	3106.77
402.15	3102.67
402.36	3188.69
402.58	3106.77
402.79	3131.34
403.00	3227.60
403.21	3239.89
403.43	3145.68
403.64	3297.23
403.85	3190.74
404.06	3229.65
404.27	3098.58
404.49	3227.60
404.70	3094.48
404.91	3227.60
405.12	3252.17
405.34	3219.41
405.55	3391.44
405.76	3100.62
405.97	3227.60
406.19	3217.36
406.40	3196.88
406.61	3264.46
406.82	3260.37
407.03	3342.28
407.25	3151.82
407.46	3440.59
407.67	3471.31
407.88	3438.54
408.09	3268.56
408.31	3375.05
408.52	3258.32
408.73	3309.52
408.94	3317.71
409.15	3370.96
409.37	3409.87
409.58	3459.02
409.79	3588.04
410.00	3565.51
410.21	3428.30
410.43	3542.99
410.64	3399.63
410.85	3536.84
411.06	3483.59
411.27	3526.60
411.48	3590.09
411.70	3542.99
411.91	3575.75
412.12	3569.61
412.33	3579.85
412.54	3635.14
412.76	3680.20
412.97	3665.86
413.18	3592.14
413.39	3657.67
413.60	3751.88
413.81	3667.91
414.03	3672.01
414.24	3651.53
414.45	3821.51
414.66	3532.75
414.87	3747.78
415.08	3739.59
415.30	3571.66
415.51	3751.88
415.72	3608.52
415.93	3727.30
416.14	3762.12
416.35	3856.33
416.56	3837.89
416.78	3819.46
416.99	3915.72
417.20	3823.56
417.41	3805.13
417.62	3850.18
417.83	3919.81
418.04	3932.10
418.26	3809.22
418.47	3858.37
418.68	3952.58
418.89	3930.05
419.10	4069.31
419.31	3956.68
419.52	4104.13
419.73	3997.64
419.95	4069.31
420.16	4014.02
420.37	3936.20
420.58	4231.10
420.79	3844.04
421.00	4009.92
421.21	4014.02
421.42	3985.35
421.63	4044.74
421.85	4001.73
422.06	4130.75
422.27	4085.70
422.48	4188.10
422.69	4165.57
422.90	4114.37
423.11	4231.10
423.32	4155.33
423.53	4470.72
423.75	4153.28
423.96	4364.22
424.17	4429.76
424.38	4304.83
424.59	4274.11
424.80	4483.00
425.01	4392.89
425.22	4448.19
425.43	4417.47
425.64	4491.20
425.85	4507.58
426.06	4505.53
426.28	4503.48
426.49	4476.86
426.70	4480.96
426.91	4704.18
427.12	4562.87
427.33	4603.83
427.54	4536.25
427.75	4634.55
427.96	4794.29
428.17	4663.22
428.38	4745.14
428.59	4712.38
428.80	4693.94
429.01	4749.24
429.23	4849.59
429.44	4849.59
429.65	4982.71
429.86	4951.99
430.07	4767.67
430.28	4728.76
430.49	4978.61
430.70	5035.96
430.91	5095.35
431.12	4951.99
431.33	5128.11
431.54	5193.65
431.75	5035.96
431.96	5009.33
432.17	5103.54
432.38	5189.55
432.59	5234.61
432.80	5173.17
433.01	5224.37
433.22	5318.57
433.43	5140.40
433.64	5222.32
433.85	5105.59
434.06	5498.80
434.27	5121.97
434.49	5332.91
434.70	5470.12
434.91	5420.97
435.12	5468.08
435.33	5449.64
435.54	5332.91
435.75	5382.06
435.96	5330.86
436.17	5334.96
436.38	5654.44
436.59	5717.93
436.80	5572.52
437.01	5779.37
437.22	5697.45
437.43	5728.17
437.64	5468.08
437.85	5822.38
438.06	5722.02
438.27	5588.91
438.48	5791.66
438.69	5793.70
438.90	5818.28
439.11	5828.52
439.32	5765.03
439.53	5849.00
439.74	5943.21
439.95	5842.85
440.16	5898.15
440.37	5885.86
440.57	5812.14
440.78	5889.96
440.99	6012.84
441.20	5982.12
441.41	5746.60
441.62	5984.16
441.83	5920.68
442.04	6121.38
442.25	6100.90
442.46	6012.84
442.67	6141.86
442.88	6438.81
443.09	6027.17
443.30	6127.52
443.51	6223.78
443.72	6432.67
443.93	6176.67
444.14	6438.81
444.35	6098.85
444.56	6365.09
444.77	6283.17
444.98	6354.85
445.19	6356.90
445.40	6481.82
445.61	6524.83
445.81	6459.29
446.02	6557.60
446.23	6277.02
446.44	6408.09
446.65	6490.01
446.86	6528.92
447.07	6592.41
447.28	6819.74
447.49	6662.04
447.70	6449.05
447.91	6733.72
448.12	6514.59
448.33	6836.12
448.54	6700.95
448.74	6645.66
448.95	6647.71
449.16	6739.87
449.37	7114.64
449.58	6811.54
449.79	6938.52
450.00	6686.62
450.21	6981.53
450.42	7022.48
450.63	6977.43
450.84	6924.18
451.05	6879.13
451.25	7022.48
451.46	6959.00
451.67	7088.02
451.88	7237.52
452.09	7075.73
452.30	7010.20
452.51	7126.93
452.72	7174.03
452.93	7423.89
453.13	7071.64
453.34	7333.78
453.55	7208.85
453.76	7223.19
453.97	7581.58
454.18	7239.57
454.39	7419.79
454.60	7542.67
454.81	7489.42
455.01	7626.64
455.22	7274.38
455.43	7737.23
455.64	7618.44
455.85	7802.76
456.06	7966.60
456.27	7573.39
456.48	7700.36
456.68	7700.36
456.89	7907.21
457.10	7901.06
457.31	7874.44
457.52	7813.00
457.73	7966.60
457.94	8036.23
458.14	7868.30
458.35	8253.31
458.56	7950.21
458.77	7966.60
458.98	8273.79
459.19	8046.47
459.39	8363.90
459.60	8550.27
459.81	8144.77
460.02	8390.53
460.23	8261.51
460.44	8521.60
460.65	8408.96
460.85	8525.69
461.06	8671.10
461.27	8320.90
461.48	8736.63
461.69	8912.76
461.89	8554.37
462.10	8783.74
462.31	8718.20
462.52	8742.78
462.73	8730.49
462.94	9004.92
463.14	9025.40
463.35	8925.05
463.56	9250.67
463.77	9340.79
463.98	9017.21
464.18	9183.09
464.39	9191.28
464.60	9330.55
464.81	9199.48
465.02	9484.14
465.23	9598.83
465.43	9478.00
465.64	9799.53
465.85	9521.01
466.06	9672.56
466.27	9740.14
466.47	9867.11
466.68	9946.98
466.89	9777.00
467.10	9973.61
467.30	9774.95
467.51	10112.87
467.72	10239.84
467.93	10004.33
468.14	10227.56
468.34	10469.22
468.55	10415.97
468.76	10211.17
468.97	10217.32
469.17	10674.01
469.38	10753.88
469.59	10889.05
469.80	10446.69
470.01	10774.36
470.21	10721.12
470.42	11044.70
470.63	11202.39
470.84	10915.67
471.04	11186.01
471.25	11251.54
471.46	11347.79
471.67	11534.16
471.87	11112.28
472.08	11792.20
472.29	11741.00
472.50	11573.07
472.70	11462.48
472.91	11761.48
473.12	11966.28
473.33	11921.23
473.53	12056.39
473.74	12029.77
473.95	12244.81
474.16	12422.98
474.36	12377.92
474.57	12607.30
474.78	12607.30
474.99	12441.41
475.19	12500.80
475.40	12754.75
475.61	12865.34
475.81	13082.42
476.02	13135.67
476.23	13061.94
476.44	13066.04
476.64	13471.54
476.85	13709.10
477.06	13311.80
477.27	13737.77
477.47	13821.74
477.68	13776.69
477.89	13989.67
478.09	13940.52
478.30	13973.29
478.51	14171.94
478.71	14307.11
478.92	14321.45
479.13	14311.21
479.34	14550.82
479.54	14513.95
479.75	14614.30
479.96	14784.29
480.16	14825.25
480.37	14716.70
480.58	15060.76
480.78	15228.70
480.99	15437.59
481.20	15183.64
481.41	15304.47
481.61	15591.19
481.82	15605.52
482.03	15634.19
482.23	15632.15
482.44	15822.61
482.65	16189.19
482.85	16109.32
483.06	15937.29
483.27	16244.49
483.47	16314.12
483.68	16402.18
483.89	16402.18
484.09	16240.39
484.30	16725.76
484.51	16701.19
484.71	16860.93
484.92	16932.61
485.13	17022.72
485.33	17174.27
485.54	16959.23
485.75	17245.94
485.95	17356.54
486.16	17450.74
486.37	17745.65
486.57	17475.32
486.78	17712.88
486.98	17770.22
487.19	17936.11
487.40	18114.28
487.60	17999.60
487.81	18267.88
488.02	17929.97
488.22	18235.11
488.43	18585.32
488.64	18482.92
488.84	18521.83
489.05	18788.07
489.25	18515.69
489.46	18898.66
489.67	18878.18
489.87	19015.39
490.08	19136.22
490.29	19097.31
490.49	19406.55
490.70	19160.80
490.90	19613.40
491.11	19531.48
491.32	19414.74
491.52	19699.41
491.73	19766.99
491.94	19891.92
492.14	19723.99
492.35	19771.09
492.55	20133.58
492.76	20129.48
492.97	20420.30
493.17	20534.98
493.38	20369.10
493.58	20422.34
493.79	20534.98
494.00	20244.17
494.20	20770.50
494.41	20668.10
494.61	20596.42
494.82	20541.13
495.02	20995.78
495.23	21122.75
495.44	21071.55
495.64	21110.46
495.85	21223.10
496.05	21239.48
496.26	21231.29
496.47	21522.10
496.67	21454.52
496.88	21696.18
497.08	21749.43
497.29	21806.77
497.49	21925.55
497.70	22064.82
497.91	21972.66
498.11	22083.25
498.32	22138.54
498.52	22073.01
498.73	22316.72
498.93	22238.89
499.14	22488.74
499.34	22402.73
499.55	22554.28
499.76	22513.32
499.96	22984.35
500.17	22820.52
500.37	22828.71
500.58	22621.86
500.78	22722.21
500.99	23090.85
501.19	23439.00
501.40	23197.34
501.60	23144.09
501.81	23537.30
502.02	23457.43
502.22	23340.70
502.43	23428.76
502.63	23617.18
502.84	23494.30
503.04	23721.62
503.25	23490.20
503.45	23840.40
503.66	23826.07
503.86	24059.54
504.07	24424.08
504.27	23719.57
504.48	24327.82
504.68	24264.33
504.89	24557.19
505.09	24346.25
505.30	24442.51
505.50	24458.89
505.71	24577.67
505.91	24864.39
506.12	24665.74
506.32	24800.90
506.53	24665.74
506.73	24815.24
506.94	24952.45
507.14	25126.53
507.35	25214.59
507.55	24874.63
507.76	25144.96
507.96	24886.92
508.17	25226.88
508.37	25196.16
508.58	25278.08
508.78	25562.75
508.99	25685.62
509.19	25626.23
509.40	25740.92
509.60	26025.59
509.81	25708.15
510.01	25828.98
510.22	26007.16
510.42	26121.84
510.63	26158.70
510.83	26052.21
511.04	25865.85
511.24	26187.38
511.44	26316.40
511.65	26631.79
511.85	26467.95
512.06	26109.55
512.26	26455.66
512.47	26400.37
512.67	26619.50
512.88	26476.14
513.08	26564.20
513.29	26758.76
513.49	27037.28
513.69	26848.87
513.90	27127.39
514.10	27147.87
514.31	27147.87
514.51	27254.37
514.72	26857.06
514.92	26943.08
515.13	27162.21
515.33	27328.10
515.53	27381.34
515.74	27815.51
515.94	28141.14
516.15	27448.93
516.35	27551.32
516.56	27870.81
516.76	27430.49
516.96	28075.60
517.17	28085.84
517.37	28429.90
517.58	28048.98
517.78	28239.44
517.99	28130.90
518.19	28511.82
518.39	28233.30
518.60	28776.01
518.80	28665.42
519.01	28411.47
519.21	28579.40
519.41	29062.72
519.62	29118.02
519.82	29136.45
520.03	29193.79
520.23	29064.77
520.43	29064.77
520.64	28937.80
520.84	29544.00
521.05	29263.43
521.25	29578.81
521.45	29746.75
521.66	29875.77
521.86	29445.69
522.07	29949.50
522.27	29709.88
522.47	29988.41
522.68	30301.75
522.88	30174.77
523.08	30578.22
523.29	30291.51
523.49	30344.75
523.70	30449.20
523.90	30592.56
524.10	30635.56
524.31	30686.76
524.51	30354.99
524.71	31026.73
524.92	30850.60
525.12	31262.24
525.33	31051.30
525.53	31442.46
525.73	31438.37
525.94	31340.07
526.14	31483.42
526.34	31462.94
526.55	31700.51
526.75	31645.21
526.95	31903.26
527.16	31469.09
527.36	31804.95
527.56	32130.58
527.77	32327.19
527.97	32372.24
528.17	32323.09
528.38	32273.94
528.58	32470.54
528.78	32337.43
528.99	32204.31
529.19	32781.84
529.39	32540.18
529.60	33048.07
529.80	32724.49
530.00	32833.04
530.21	33267.20
530.41	33181.19
530.61	33285.64
530.82	33369.60
531.02	33052.17
531.22	33244.68
531.43	33537.54
531.63	33551.87
531.83	34043.38
532.04	34133.50
532.24	33676.80
532.44	34221.56
532.64	34147.83
532.85	33979.90
533.05	34221.56
533.25	34309.62
533.46	34612.72
533.66	34823.66
533.86	34436.59
534.07	34651.63
534.27	34569.71
534.47	34930.16
534.67	34956.78
534.88	34926.06
535.08	35315.17
535.28	35216.87
535.49	35300.84
535.69	35724.77
535.89	35300.84
536.09	35651.04
536.30	35927.52
536.50	35692.00
536.70	35882.46
536.91	35552.74
537.11	35915.23
537.31	35855.84
537.51	36189.66
537.72	36488.66
537.92	36263.38
538.12	36724.18
538.32	36322.77
538.53	36496.85
538.73	36361.69
538.93	36275.67
539.13	36965.84
539.34	36867.53
539.54	36451.80
539.74	36857.29
539.94	36851.15
540.15	36971.98
540.35	37201.35
540.55	36931.02
540.75	36935.12
540.96	37283.27
541.16	37041.61
541.36	36802.00
541.56	37346.76
541.77	37754.30
541.97	37463.49
542.17	37635.52
542.37	37828.03
542.58	37518.79
542.78	37729.73
542.98	37774.78
543.18	37920.19
543.38	38204.86
543.59	38204.86
543.79	37791.17
543.99	37840.32
544.19	38106.55
544.40	38034.88
544.60	38536.63
544.80	38057.40
545.00	38247.86
545.20	38751.66
545.41	38557.11
545.61	38211.00
545.81	38587.83
546.01	38686.13
546.21	38569.40
546.42	38659.51
546.62	38749.62
546.82	38675.89
547.02	38630.83
547.22	39067.05
547.43	39110.06
547.63	38954.41
547.83	38901.17
548.03	38925.74
548.23	39243.18
548.44	39095.72
548.64	39480.74
548.84	39654.82
549.04	39386.54
549.24	39759.27
549.45	39527.84
549.65	39394.73
549.85	39228.84
550.05	39376.30
550.25	39687.59
550.45	40125.85
550.66	39806.37
550.86	39540.13
551.06	39855.52
551.26	40052.12
551.46	39818.66
551.66	39933.34
551.87	40136.09
552.07	40009.12
552.27	39925.15
552.47	40064.41
552.67	40400.28
552.87	40127.90
553.07	40476.05
553.28	40533.40
553.48	40195.48
553.68	40406.42
553.88	40678.80
554.08	40768.91
554.28	40668.56
554.48	40353.18
554.69	40699.28
554.89	40969.61
555.09	40701.33
555.29	40590.74
555.49	41045.39
555.69	41145.74
555.89	41026.96
556.10	40981.90
556.30	41358.73
556.50	41330.06
556.70	41119.12
556.90	41115.02
557.10	40975.76
557.30	41205.13
557.50	41393.54
557.70	41813.38
557.91	41616.77
558.11	41473.42
558.31	41602.44
558.51	41581.96
558.71	41661.83
558.91	41702.79
559.11	41817.47
559.31	41680.26
559.51	41563.53
559.72	41829.76
559.92	42286.46
560.12	41950.59
560.32	42214.78
560.52	41948.54
560.72	41778.56
560.92	42112.38
561.12	42300.79
561.32	42567.03
561.52	41981.31
561.72	42898.80
561.93	42157.44
562.13	42048.89
562.33	42093.95
562.53	42950.00
562.73	42325.37
562.93	42444.15
563.13	42646.90
563.33	42620.28
563.53	42644.85
563.73	42384.76
563.93	42950.00
564.13	43001.20
564.33	43005.30
564.53	43113.84
564.74	43246.96
564.94	42935.66
565.14	43201.90
565.34	43011.44
565.54	43550.06
565.74	42716.53
565.94	43406.70
566.14	43281.77
566.34	43124.08
566.54	43525.48
566.74	43406.70
566.94	43722.08
567.14	43631.97
567.34	43265.39
567.54	43386.22
567.74	43515.24
567.94	43453.80
568.14	43857.25
568.34	44053.86
568.54	43898.21
568.74	44318.04
568.94	44049.76
569.14	44506.46
569.34	44375.39
569.54	44717.40
569.75	44367.20
569.95	44135.77
570.15	44406.11
570.35	44459.35
570.55	44301.66
570.75	44445.02
570.95	44791.12
571.15	44875.09
571.35	44563.80
571.55	44793.17
571.75	44563.80
571.95	45176.14
572.15	45153.62
572.35	44909.91
572.55	45395.28
572.75	45096.27
572.95	45268.30
573.15	45081.94
573.35	45499.72
573.55	44977.49
573.75	45124.94
573.95	45686.09
574.15	45481.29
574.35	45610.31
574.55	45540.68
574.75	45303.12
574.95	45870.40
575.15	45530.44
575.34	45829.44
575.54	45880.64
575.74	46273.85
575.94	46122.30
576.14	45737.29
576.34	46548.28
576.54	46118.21
576.74	46619.96
576.94	46320.96
577.14	46384.44
577.34	46853.43
577.54	46288.19
577.74	46841.14
577.94	46740.79
578.14	46857.52
578.34	46972.21
578.54	46341.44
578.74	47119.66
578.94	46892.34
579.14	46759.22
579.34	47009.07
579.54	46968.12
579.74	47134.00
579.94	47492.40
580.13	47654.18
580.33	47539.50
580.53	47412.52
580.73	47453.48
580.93	47656.23
581.13	47545.64
581.33	47611.18
581.53	47875.37
581.73	47719.72
581.93	48094.50
582.13	47883.56
582.33	48162.08
582.53	47793.45
582.73	48026.92
582.92	48014.63
583.12	48135.46
583.32	48174.37
583.52	47973.67
583.72	48493.85
583.92	48332.06
584.12	48559.39
584.32	48913.69
584.52	48106.79
584.72	48614.68
584.92	48794.90
585.11	49265.94
585.31	48669.98
585.51	48917.78
585.71	48633.11
585.91	48796.95
586.11	49067.28
586.31	48805.14
586.51	49055.00
586.71	48799.00
586.91	49374.48
587.10	49265.94
587.30	49222.93
587.50	49046.80
587.70	49403.15
587.90	49675.53
588.10	49833.22
588.30	49581.32
588.50	49683.72
588.69	49304.85
588.89	49446.16
589.09	49550.60
589.29	49583.37
589.49	49679.63
589.69	49210.64
589.89	49773.83
590.08	49865.99
590.28	49888.52
590.48	49763.59
590.68	49456.40
590.88	50228.48
591.08	49706.25
591.28	49437.97
591.47	50132.23
591.67	49956.10
591.87	50105.60
592.07	49878.28
592.27	50291.97
592.47	50074.88
592.67	50568.44
592.86	49988.87
593.06	49952.01
593.26	50670.84
593.46	50722.04
593.66	50271.49
593.86	50226.43
594.05	50285.82
594.25	50615.55
594.45	50328.83
594.65	50590.97
594.85	50136.32
595.05	50541.82
595.24	50681.08
595.44	50533.63
595.64	50789.62
595.84	50758.91
596.04	50996.47
596.23	50713.85
596.43	50736.38
596.63	51049.72
596.83	50902.26
597.03	51238.13
597.22	51440.88
597.42	51170.55
597.62	51481.84
597.82	50967.80
598.02	51135.73
598.21	51578.09
598.41	50685.18
598.61	51356.91
598.81	51242.23
599.01	51412.21
599.20	51309.81
599.40	51180.79
599.60	51209.46
599.80	51236.08
600.00	51305.71
600.19	51455.21
600.39	51455.21
600.59	51461.36
600.79	51981.54
600.98	51229.94
601.18	51782.89
601.38	51922.15
601.58	51866.86
601.78	51911.91
601.97	52141.28
602.17	52610.27
602.37	52059.37
602.57	51789.03
602.76	52145.38
602.96	51782.89
603.16	51789.03
603.36	52264.16
603.55	52284.64
603.75	52133.09
603.95	52200.68
604.15	52274.40
604.34	52083.94
604.54	52616.41
604.74	52612.32
604.94	52540.64
605.13	52909.27
605.33	52677.85
605.53	52600.03
605.73	52729.05
605.92	52565.21
606.12	52647.13
606.32	52270.31
606.52	52647.13
606.71	52729.05
606.91	53232.85
607.11	52561.12
607.30	52720.86
607.50	52821.21
607.70	53302.48
607.90	52962.52
608.09	52933.85
608.29	52985.05
608.49	53339.35
608.68	52501.73
608.88	52528.35
609.08	53052.63
609.28	53132.50
609.47	52778.20
609.67	53472.46
609.87	52962.52
610.06	53118.17
610.26	53499.09
610.46	53282.00
610.66	53019.86
610.85	53212.37
611.05	52980.95
611.25	53642.45
611.44	53130.45
611.64	53425.36
611.84	53187.80
612.03	52868.31
612.23	53599.44
612.43	53443.79
612.62	52772.06
612.82	53386.45
613.02	52714.72
613.21	53361.87
613.41	53269.72
613.61	53570.77
613.80	52903.13
614.00	53302.48
614.20	52942.04
614.39	53294.29
614.59	53327.06
614.79	53361.87
614.98	53066.97
615.18	53169.36
615.38	53474.51
615.57	53118.17
615.77	53624.01
615.97	53413.07
616.16	53765.32
616.36	53396.69
616.56	53607.63
616.75	53978.31
616.95	53101.78
617.15	53564.62
617.34	53773.52
617.54	53937.35
617.74	53884.11
617.93	53591.25
618.13	53204.18
618.32	53198.04
618.52	53544.14
618.72	53134.55
618.91	53920.97
619.11	53126.36
619.31	53570.77
619.50	53365.97
619.70	52942.04
619.90	53554.38
620.09	53206.23
620.29	53540.05
620.48	53576.91
620.68	53419.22
620.88	53464.27
621.07	53529.81
621.27	53593.29
621.46	53433.55
621.66	53263.57
621.86	53617.87
622.05	52942.04
622.25	53683.40
622.44	53400.79
622.64	53380.31
622.84	53804.24
623.03	53322.96
623.23	53198.04
623.42	53482.70
623.62	53683.40
623.82	53505.23
624.01	53316.82
624.21	53673.16
624.40	53615.82
624.60	53990.60
624.80	53646.54
624.99	53654.73
625.19	53312.72
625.38	53488.85
625.58	53794.00
625.77	53779.66
625.97	54015.18
626.17	53298.39
626.36	53353.68
626.56	53867.72
626.75	53331.15
626.95	53796.04
627.14	53462.22
627.34	53824.71
627.54	53581.01
627.73	53736.65
627.93	53738.70
628.12	53396.69
628.32	53908.68
628.51	53798.09
628.71	53912.78
628.90	53548.24
629.10	53771.47
629.30	53845.19
629.49	53886.15
629.69	53673.16
629.88	53757.13
630.08	54342.85
630.27	54285.51
630.47	53818.57
630.66	53814.47
630.86	54121.67
631.05	53523.66
631.25	54381.76
631.44	54252.74
631.64	54363.33
631.84	53912.78
632.03	54678.72
632.23	54359.23
632.42	54506.69
632.62	54123.72
632.81	54303.94
633.01	54205.64
633.20	54723.77
633.40	54596.80
633.59	54596.80
633.79	54158.53
633.98	54228.16
634.18	54518.98
634.37	54439.11
634.57	54725.82
634.76	54414.53
634.96	54723.77
635.15	54537.41
635.35	54453.44
635.54	54531.26
635.74	54793.40
635.93	54076.61
636.13	54498.50
636.32	55235.77
636.52	54099.14
636.71	54650.05
636.91	55055.54
637.10	54908.09
637.30	54656.19
637.49	54742.20
637.69	54774.97
637.88	54957.24
638.08	54926.52
638.27	55198.90
638.46	55055.54
638.66	54355.14
638.85	54811.84
639.05	54869.18
639.24	55383.22
639.44	54611.13
639.63	55407.79
639.83	55375.03
640.02	55454.90
640.22	55491.76
640.41	55366.84
640.61	54879.42
640.80	55014.58
640.99	55153.85
641.19	55651.50
641.38	55170.23
641.58	55229.62
641.77	55418.03
641.97	55149.75
642.16	55401.65
642.36	55555.25
642.55	55809.20
642.74	55645.36
642.94	56100.01
643.13	55129.27
643.33	55813.29
643.52	55655.60
643.72	55817.39
643.91	55655.60
644.10	55796.91
644.30	55846.06
644.49	56138.92
644.69	56300.71
644.88	55981.23
645.08	56009.90
645.27	55993.51
645.46	55575.73
645.66	56222.89
645.85	55944.36
646.05	56308.90
646.24	55942.31
646.43	56177.83
646.63	56835.23
646.82	56370.34
647.02	56534.18
647.21	56544.42
647.40	56390.82
647.60	56431.78
647.79	56077.48
647.99	56620.19
648.18	56095.91
648.37	56882.33
648.57	56753.31
648.76	56822.94
648.96	56138.92
649.15	57085.08
649.34	56851.61
649.54	56581.28
649.73	56384.68
649.92	56974.49
650.12	56824.99
650.31	56691.87
650.51	56767.65
650.70	56890.52
650.89	56976.54
651.09	57234.58
651.28	56845.47
651.47	57017.50
651.67	56691.87
651.86	57406.61
652.06	56614.05
652.25	56992.92
652.44	57042.07
652.64	56890.52
652.83	57150.62
653.02	56523.94
653.22	57017.50
653.41	57103.51
653.60	56585.38
653.80	57001.11
653.99	57064.60
654.18	56528.03
654.38	57080.98
654.57	57146.52
654.76	57087.13
654.96	57025.69
655.15	57320.60
655.34	56716.45
655.54	56720.54
655.73	56802.46
655.92	57062.55
656.12	57336.98
656.31	56771.74
656.50	57435.28
656.70	57185.43
656.89	56800.41
657.08	57236.63
657.28	57007.26
657.47	57123.99
657.66	57304.21
657.86	57226.39
658.05	57040.03
658.24	57365.65
658.43	57179.29
658.63	57361.56
658.82	57046.17
659.01	57078.94
659.21	57578.64
659.40	57633.94
659.59	56657.06
659.79	57040.03
659.98	57418.90
660.17	57281.69
660.36	57291.93
660.56	57287.83
660.75	57097.37
660.94	57302.17
661.14	57357.46
661.33	57269.40
661.52	57029.79
661.71	57160.86
661.91	57109.66
662.10	57119.90
662.29	57793.68
662.49	57599.12
662.68	57253.01
662.87	57529.49
663.06	57169.05
663.26	57310.36
663.45	57709.71
663.64	57171.10
663.83	57660.56
664.03	57490.58
664.22	57648.27
664.41	57455.76
664.60	57242.77
664.80	56992.92
664.99	57042.07
665.18	57078.94
665.37	57277.59
665.57	57416.85
665.76	56779.93
665.95	56876.19
666.14	57121.94
666.34	57152.66
666.53	57291.93
666.72	56919.20
666.91	57140.38
667.11	56841.37
667.30	56724.64
667.49	56702.11
667.68	56652.96
667.87	56747.17
668.07	57228.44
668.26	57210.01
668.45	56902.81
668.64	56624.29
668.84	57418.90
669.03	57128.09
669.22	56638.62
669.41	56900.76
669.60	56601.76
669.80	56603.81
669.99	56693.92
670.18	56577.18
670.37	56904.86
670.57	57013.40
670.76	56728.73
670.95	56947.87
671.14	56366.24
671.33	56251.56
671.53	56974.49
671.72	56931.48
671.91	56310.95
672.10	56509.60
672.29	56575.14
672.48	56857.76
672.68	56988.83
672.87	56632.48
673.06	56640.67
673.25	56306.85
673.44	56652.96
673.64	56470.69
673.83	56442.02
674.02	56575.14
674.21	56435.87
674.40	56614.05
674.59	56458.40
674.79	56075.43
674.98	56288.42
675.17	56226.98
675.36	55782.57
675.55	56466.59
675.74	55817.39
675.94	56136.87
676.13	56106.15
676.32	56296.61
676.51	56253.61
676.70	56118.44
676.89	55999.66
677.08	56495.27
677.28	55612.59
677.47	56435.87
677.66	56304.80
677.85	56151.21
678.04	56507.55
678.23	56206.50
678.42	56190.12
678.62	55456.95
678.81	56362.15
679.00	56153.26
679.19	56044.71
679.38	55786.67
679.57	55919.79
679.76	56050.86
679.96	55917.74
680.15	55428.27
680.34	55917.74
680.53	55637.17
680.72	55772.33
680.91	56024.23
681.10	55426.23
681.29	55669.93
681.48	55731.37
681.68	55688.37
681.87	55729.33
682.06	55729.33
682.25	55157.94
682.44	55737.52
682.63	55612.59
682.82	54934.71
683.01	55370.93
683.20	54994.10
683.39	55602.35
683.59	55313.59
683.78	54983.86
683.97	55110.84
684.16	55639.22
684.35	55092.41
684.54	54875.32
684.73	55151.80
684.92	55157.94
685.11	54713.53
685.30	54877.37
685.49	55336.12
685.69	54670.53
685.88	54717.63
686.07	54801.60
686.26	54871.23
686.45	55119.03
686.64	55014.58
686.83	54863.03
687.02	54238.40
687.21	55073.98
687.40	54645.95
687.59	54987.96
687.78	54410.43
687.97	54996.15
688.16	54688.96
688.35	54527.17
688.54	54181.06
688.74	54330.56
688.93	54965.43
689.12	54604.99
689.31	54480.06
689.50	54244.55
689.69	54441.15
689.88	53963.98
690.07	54486.21
690.26	54213.83
690.45	54828.22
690.64	54043.85
690.83	54367.43
691.02	53830.86
691.21	54015.18
691.40	54019.27
691.59	54113.48
691.78	54215.88
691.97	53982.41
692.16	54006.98
692.35	53994.70
692.54	54064.33
692.73	53957.83
692.92	53765.32
693.11	53986.50
693.30	54203.59
693.49	53763.28
693.68	53624.01
693.87	53652.69
694.06	53525.71
694.25	53894.35
694.44	53435.60
694.63	53408.98
694.82	53769.42
695.01	53605.58
695.20	53589.20
695.39	53093.59
695.58	53253.33
695.77	53435.60
695.96	53048.53
696.15	53417.17
696.34	53372.11
696.53	53484.75
696.72	53488.85
696.91	52954.33
697.10	53220.56
697.29	53032.15
697.48	53245.14
697.67	53335.25
697.86	53095.64
698.05	52755.68
698.24	53597.39
698.43	52788.44
698.62	53128.41
698.81	52595.93
699.00	53466.32
699.19	53062.87
699.38	52980.95
699.57	52221.16
699.76	53122.26
699.95	52544.73
700.14	52620.51
700.32	52247.78
700.51	52528.35
700.70	52884.70
700.89	52749.53
701.08	52733.15
701.27	52559.07
701.46	52552.93
701.65	52368.61
701.84	52819.16
702.03	52307.17
702.22	52348.13
702.41	52335.84
702.60	52335.84
702.79	52671.71
702.98	52436.19
703.17	52274.40
703.35	52231.40
703.54	52341.99
703.73	52172.00
703.92	52122.85
704.11	52415.71
704.30	52206.82
704.49	52145.38
704.68	52190.44
704.87	52233.44
705.06	52495.58
705.25	51879.14
705.43	52303.07
705.62	52503.77
705.81	52272.35
706.00	52090.09
706.19	51674.35
706.38	51637.48
706.57	51752.17
706.76	52042.98
706.95	52286.69
707.14	51922.15
707.32	52008.17
707.51	51604.72
707.70	51868.90
707.89	51428.59
708.08	51643.63
708.27	51885.29
708.46	51973.35
708.65	51209.46
708.84	51909.86
709.02	51762.41
709.21	52049.13
709.40	51946.73
709.59	51655.92
709.78	51571.95
709.97	51891.43
710.16	51676.40
710.34	51684.59
710.53	51430.64
710.72	51191.03
710.91	51596.52
711.10	51668.20
711.29	51797.23
711.48	51371.25
711.66	51010.81
711.85	51172.60
712.04	51467.50
712.23	51369.20
712.42	51221.75
712.61	51246.32
712.80	51084.53
712.98	51645.68
713.17	51188.98
713.36	51219.70
713.55	51342.58
713.74	51260.66
713.93	51315.95
714.11	51123.44
714.30	51076.34
714.49	50754.81
714.68	51401.97
714.87	51100.92
715.06	51682.54
715.24	50674.94
715.43	51006.71
715.62	50420.99
715.81	51066.10
716.00	51553.52
716.18	50560.25
716.37	50201.86
716.56	50529.53
716.75	51205.36
716.94	50517.25
717.12	50461.95
717.31	51049.72
717.50	50830.58
717.69	50525.44
717.88	50357.50
718.06	50595.07
718.25	51164.40
718.44	50345.22
718.63	50572.54
718.82	50300.16
719.00	50015.49
719.19	50337.02
719.38	50341.12
719.57	50246.91
719.76	49892.61
719.94	49741.06
720.13	50087.17
720.32	50144.51
720.51	49763.59
720.69	50017.54
720.88	49829.13
721.07	49724.68
721.26	49638.67
721.44	49474.83
721.63	49818.89
721.82	49329.42
722.01	49726.73
722.20	49648.91
722.38	49763.59
722.57	49347.86
722.76	49489.16
722.95	49351.95
723.13	49005.84
723.32	49317.14
723.51	49202.45
723.70	49308.94
723.88	49276.18
724.07	49267.98
724.26	49229.07
724.44	48485.66
724.63	49497.36
724.82	49669.39
725.01	48917.78
725.19	49413.39
725.38	48672.03
725.57	48487.71
725.76	48565.53
725.94	48866.58
726.13	48493.85
726.32	48921.88
726.51	48567.58
726.69	49044.76
726.88	49009.94
727.07	49212.69
727.25	48635.16
727.44	48983.32
727.63	48665.88
727.82	49091.86
728.00	48661.79
728.19	48813.34
728.38	49331.47
728.56	48467.23
728.75	49202.45
728.94	48590.11
729.12	48850.20
729.31	48913.69
729.50	48907.54
729.69	48846.10
729.87	48944.41
730.06	48782.62
730.25	48954.64
730.43	48958.74
730.62	48712.98
730.81	48575.77
730.99	49167.63
731.18	48387.36
731.37	48850.20
731.55	49259.79
731.74	48940.31
731.93	48842.01
732.11	49079.57
732.30	48774.42
732.49	48602.39
732.67	48809.24
732.86	48641.31
733.05	48737.56
733.23	48559.39
733.42	48448.80
733.61	48659.74
733.79	48776.47
733.98	49085.72
734.17	48817.43
734.35	48569.63
734.54	48743.70
734.73	48629.02
734.91	48592.15
735.10	48604.44
735.29	48792.86
735.47	48289.06
735.66	48379.17
735.84	48819.48
736.03	48522.52
736.22	48389.41
736.40	48272.67
736.59	48641.31
736.78	48557.34
736.96	48370.97
737.15	48487.71
737.33	48405.79
737.52	48448.80
737.71	48215.33
737.89	48223.52
738.08	48436.51
738.27	48287.01
738.45	48588.06
738.64	48348.45
738.82	48485.66
739.01	48170.27
739.20	48035.11
739.38	48319.77
739.57	48272.67
739.75	48104.74
739.94	48010.53
740.13	47957.28
740.31	47973.67
740.50	47979.81
740.68	48043.30
740.87	48346.40
741.06	48102.69
741.24	47818.02
741.43	48465.18
741.61	47803.69
741.80	47961.38
741.99	47459.63
742.17	47764.78
742.36	48182.56
742.54	47981.86
742.73	47715.62
742.91	48086.31
743.10	47480.11
743.29	48350.49
743.47	48346.40
743.66	47807.78
743.84	48174.37
744.03	47697.19
744.21	47562.03
744.40	47666.47
744.59	47617.32
744.77	47523.11
744.96	47428.91
745.14	47645.99
745.33	47285.55
745.51	47387.95
745.70	47770.92
745.88	47400.24
746.07	47136.05
746.26	47170.86
746.44	46841.14
746.63	47107.38
746.81	47633.71
747.00	46671.16
747.18	47078.71
747.37	46777.65
747.55	47238.45
747.74	47289.65
747.92	46593.34
748.11	46888.24
748.29	46740.79
748.48	46660.92
748.66	46785.85
748.85	46898.48
749.03	46697.78
749.22	46548.28
749.41	46677.30
749.59	46732.60
749.78	46404.92
749.96	46161.22
750.15	46591.29
750.33	46781.75
750.52	46867.76
750.70	46722.36
750.89	46638.39
751.07	46099.78
751.26	46495.03
751.44	46044.48
751.63	46441.79
751.81	46480.70
752.00	45978.95
752.18	46226.75
752.37	45718.85
752.55	45870.40
752.74	45751.62
752.92	46191.94
753.10	45978.95
753.29	45780.29
753.47	45638.98
753.66	45567.30
753.84	45997.38
754.03	45983.04
754.21	45718.85
754.40	46017.86
754.58	45847.88
754.77	45925.70
754.95	45528.39
755.14	45352.27
755.32	45628.74
755.51	45020.50
755.69	45512.01
755.88	45133.14
756.06	45518.15
756.24	45217.10
756.43	45290.83
756.61	45350.22
756.80	45356.36
756.98	44838.23
757.17	44920.15
757.35	45053.26
757.54	45114.70
757.72	45573.45
757.90	44924.24
758.09	44684.63
758.27	44662.10
758.46	44596.57
758.64	44660.05
758.83	44840.28
759.01	44838.23
759.19	44516.70
759.38	44868.95
759.56	44850.52
759.75	44488.03
759.93	44250.46
760.12	44438.87
760.30	44551.51
760.48	44324.19
760.67	44211.55
760.85	44397.91
761.04	44586.33
761.22	44219.74
761.40	44473.69
761.59	44469.59
761.77	44164.45
761.96	44035.42
762.14	43763.04
762.32	43728.23
762.51	43785.57
762.69	44150.11
762.88	44170.59
763.06	43947.36
763.24	43875.68
763.43	43793.76
763.61	43593.06
763.80	43812.20
763.98	43322.73
764.16	43308.40
764.35	43144.56
764.53	42706.29
764.72	43588.97
764.90	43308.40
765.08	43386.22
765.27	43160.94
765.45	42833.27
765.63	42902.90
765.82	42966.38
766.00	42810.74
766.18	42804.59
766.37	42921.33
766.55	42511.74
766.74	42702.20
766.92	42618.23
767.10	42571.13
767.29	42470.78
767.47	42454.39
767.65	42513.78
767.84	41936.26
768.02	42182.01
768.20	42175.87
768.39	42460.54
768.57	42134.91
768.75	42218.88
768.94	42284.41
769.12	42118.53
769.30	41629.06
769.49	41821.57
769.67	41575.81
769.85	41442.70
770.04	41842.05
770.22	41829.76
770.40	41444.74
770.59	41368.97
770.77	41743.75
770.95	41557.38
771.14	41051.53
771.32	40674.71
771.50	40998.29
771.69	40740.24
771.87	41555.33
772.05	41080.21
772.24	40949.14
772.42	40484.25
772.60	41162.12
772.78	40762.77
772.97	40875.41
773.15	40973.71
773.33	40633.75
773.52	40449.43
773.70	40508.82
773.88	40807.83
774.07	40490.39
774.25	40607.12
774.43	40850.83
774.61	40504.73
774.80	40482.20
774.98	40435.10
775.16	40764.82
775.34	41094.54
775.53	40560.02
775.71	40781.20
775.89	40635.80
776.08	40658.32
776.26	40457.62
776.44	41090.44
776.62	40654.23
776.81	40949.14
776.99	40365.46
777.17	40445.33
777.35	40732.05
777.54	40730.00
777.72	40531.35
777.90	40443.29
778.08	40635.80
778.27	40641.94
778.45	40629.65
778.63	41299.34
778.81	40439.19
779.00	41325.96
779.18	40777.11
779.36	41022.86
779.54	40779.15
779.73	40727.95
779.91	40963.47
780.09	40777.11
780.27	41149.84
780.46	41395.59
780.64	40791.44
780.82	40328.60
781.00	40766.87
781.19	40801.68
781.37	41194.89
781.55	40785.30
781.73	41805.19
781.91	40936.85
782.10	41225.61
782.28	41293.19
782.46	41364.87
782.64	41379.21
782.82	40983.95
783.01	41383.30
783.19	41244.04
783.37	41264.52
783.55	40957.33
783.74	41094.54
783.92	41020.81
784.10	41141.64
784.28	41508.23
784.46	40934.80
784.64	40791.44
784.83	40906.13
785.01	41190.80
785.19	40785.30
785.37	40699.28
785.55	40959.38
785.74	40682.90
785.92	40424.86
786.10	41186.70
786.28	40758.67
786.46	40775.06
786.64	40711.57
786.83	40699.28
787.01	41057.68
787.19	40545.69
787.37	40770.96
787.55	40619.41
787.74	40248.73
787.92	40547.73
788.10	40340.89
788.28	40017.31
788.46	40543.64
788.64	39886.24
788.82	40635.80
789.01	40289.69
789.19	40000.93
789.37	40007.07
789.55	39966.11
789.73	39663.01
789.91	39519.65
790.09	39898.53
790.28	39646.63
790.46	39777.70
790.64	40115.61
790.82	39624.10
791.00	39458.21
791.18	39400.87
791.36	39081.39
791.55	39577.00
791.73	38811.06
791.91	38813.10
792.09	38905.26
792.27	39071.15
792.45	39079.34
792.63	39073.20
792.81	38759.86
793.00	39050.67
793.18	38667.70
793.36	38577.59
793.54	38677.94
793.72	37991.87
793.90	38460.85
794.08	38405.56
794.26	38221.24
794.44	38282.68
794.62	37832.13
794.81	38124.99
794.99	37750.21
795.17	37684.67
795.35	37221.83
795.53	37727.68
795.71	37991.87
795.89	37187.02
796.07	37522.88
796.25	37268.94
796.43	37117.39
796.61	36847.05
796.80	37037.51
796.98	37152.20
797.16	36949.45
797.34	37039.56
797.52	36550.10
797.70	37031.37
797.88	36789.71
798.06	36351.45
798.24	36402.64
798.42	35898.84
798.60	36234.71
798.78	36537.81
798.96	36314.58
799.14	35845.60
799.32	36326.87
799.51	35692.00
799.69	35812.83
799.87	35980.76
800.05	35376.61
800.23	35698.14
800.41	35612.13
800.59	35620.32
800.77	35093.99
800.95	34999.79
801.13	35558.88
801.31	35216.87
801.49	35134.95
801.67	34864.62
801.85	34930.16
802.03	34708.97
802.21	34784.75
802.39	34549.23
802.57	34409.97
802.75	34416.11
802.93	34547.18
803.11	34248.18
803.29	34194.93
803.47	34166.26
803.65	34311.67
803.83	34129.40
804.01	34072.06
804.19	33621.50
804.37	33973.75
804.55	33371.65
804.73	33529.34
804.91	33639.93
805.09	33648.13
805.27	33455.62
805.45	33527.30
805.63	33412.61
805.81	33091.08
805.99	33146.37
806.17	33592.83
806.35	33281.54
806.53	33043.98
806.71	33062.41
806.89	33345.03
807.07	33218.05
807.25	32759.31
807.43	32624.14
807.61	32742.92
807.79	32454.16
807.97	32364.05
808.15	32601.61
808.33	32454.16
808.51	32480.78
808.69	32556.56
808.87	32181.78
809.05	32208.40
809.23	32028.18
809.41	32034.33
809.59	31796.76
809.77	32069.14
809.95	31858.20
810.13	31835.67
810.31	31692.32
810.49	31956.50
810.67	31909.40
810.84	31958.55
811.02	31743.52
811.20	31292.96
811.38	31673.88
811.56	31102.50
811.74	31186.47
811.92	30971.43
812.10	31292.96
812.28	31239.72
812.46	31223.33
812.64	31002.15
812.82	30836.27
813.00	30907.94
813.18	31000.10
813.36	30856.75
813.53	30766.63
813.71	30953.00
813.89	30668.33
814.07	30658.09
814.25	30852.65
814.43	30453.30
814.61	30637.61
814.79	30492.21
814.97	30391.86
815.15	30709.29
815.33	30205.49
815.50	30271.03
815.68	30234.16
815.86	30268.98
816.04	30004.79
816.22	30131.76
816.40	30197.30
816.58	30182.96
816.76	29830.71
816.94	29771.32
817.11	29783.61
817.29	29627.96
817.47	29656.64
817.65	29378.11
817.83	29552.19
818.01	29009.48
818.19	29484.61
818.37	29290.05
818.54	29457.98
818.72	29021.77
818.90	29439.55
819.08	29134.40
819.26	29118.02
819.44	29308.48
819.62	28972.61
819.80	29029.96
819.97	29048.39
820.15	28892.74
820.33	28905.03
820.51	29269.57
820.69	28595.79
820.87	28937.80
821.05	29234.75
821.22	28446.29
821.40	29066.82
821.58	28694.09
821.76	28800.58
821.94	28616.27
822.12	28573.26
822.29	28390.99
822.47	28509.77
822.65	28583.50
822.83	28442.19
823.01	28325.46
823.19	28024.40
823.36	28118.61
823.54	28145.23
823.72	27975.25
823.90	28188.24
824.08	27704.92
824.25	28008.02
824.43	28012.12
824.61	28053.08
824.79	27844.18
824.97	27749.98
825.15	28114.52
825.32	27817.56
825.50	27592.28
825.68	27590.24
825.86	28190.29
826.04	27917.91
826.21	27823.70
826.39	27690.59
826.57	27608.67
826.75	27643.48
826.93	27453.02
827.10	27258.46
827.28	27551.32
827.46	27696.73
827.64	27549.28
827.81	27375.20
827.99	27178.59
828.17	27166.31
828.35	26904.17
828.53	27367.01
828.70	27240.03
828.88	26924.65
829.06	27133.54
829.24	27274.85
829.41	26965.60
829.59	27156.07
829.77	26906.21
829.95	26717.80
830.12	26744.42
830.30	26961.51
830.48	27111.01
830.66	26756.71
830.84	26893.93
831.01	26971.75
831.19	26910.31
831.37	26605.16
831.55	26885.73
831.72	26705.51
831.90	26576.49
832.08	26783.34
832.25	26746.47
832.43	26404.46
832.61	26388.08
832.79	26517.10
832.96	26377.84
833.14	26730.09
833.32	26693.22
833.50	26523.24
833.67	26633.83
833.85	26242.67
834.03	26138.23
834.20	26480.24
834.38	26388.08
834.56	26553.96
834.74	25808.50
834.91	26121.84
835.09	26035.83
835.27	25824.89
835.44	26048.11
835.62	25683.58
835.80	25773.69
835.98	25890.42
836.15	26037.87
836.33	25560.70
836.51	26099.31
836.68	25388.67
836.86	25417.34
837.04	25824.89
837.21	25638.52
837.39	25683.58
837.57	25640.57
837.75	25800.31
837.92	25443.96
838.10	25214.59
838.28	25136.77
838.45	25360.00
838.63	25177.73
838.81	25538.17
838.98	24979.07
839.16	25388.67
839.34	25321.09
839.51	25331.33
839.69	25169.54
839.87	25323.13
840.04	25392.76
840.22	25450.11
840.40	24917.64
840.57	24954.50
840.75	25052.80
840.93	24565.39
841.10	24897.16
841.28	25220.74
841.46	25017.99
841.63	25022.08
841.81	24915.59
841.98	24616.58
842.16	25048.71
842.34	24837.76
842.51	24610.44
842.69	24743.56
842.87	24845.96
843.04	24880.77
843.22	24972.93
843.40	24737.41
843.57	24946.31
843.75	25024.13
843.92	24825.48
844.10	24501.90
844.28	24602.25
844.45	24647.30
844.63	24565.39
844.81	24370.83
844.98	24415.88
845.16	24671.88
845.33	24604.30
845.51	24438.41
845.69	24268.43
845.86	24290.96
846.04	24063.63
846.21	24188.56
846.39	24037.01
846.57	24143.50
846.74	24295.05
846.92	24182.42
847.09	24120.98
847.27	23922.32
847.45	24004.24
847.62	23879.32
847.80	24073.87
847.97	23930.51
848.15	24006.29
848.32	23940.75
848.50	24096.40
848.68	23684.76
848.85	23877.27
849.03	23668.37
849.20	23619.22
849.38	23676.57
849.56	23731.86
849.73	23236.25
849.91	23787.16
850.08	23824.02
850.26	23463.58
850.43	23584.41
850.61	23322.27
850.78	23125.66
850.96	23617.18
851.14	23371.42
851.31	23324.32
851.49	23647.90
851.66	23621.27
851.84	23185.05
852.01	23697.05
852.19	23453.34
852.36	23242.40
852.54	23213.73
852.71	23234.21
852.89	22920.87
853.07	23092.90
853.24	23090.85
853.42	23195.29
853.59	22789.80
853.77	23105.18
853.94	23162.53
854.12	23490.20
854.29	22488.74
854.47	23117.47
854.64	23027.36
854.82	22734.50
854.99	22877.86
855.17	22826.66
855.34	22867.62
855.52	22927.01
855.69	22900.39
855.87	22636.20
856.04	22734.50
856.22	22828.71
856.39	22767.27
856.57	22836.90
856.74	22384.30
856.92	22458.03
857.09	22476.46
857.27	22429.35
857.44	22822.56
857.62	22683.30
857.79	22625.96
857.97	22181.55
858.14	22378.15
858.32	22195.89
858.49	22355.63
858.67	22136.49
858.84	22095.53
859.02	22134.45
859.19	22376.11
859.37	22134.45
859.54	22042.29
859.72	22214.32
859.89	21925.55
860.06	22245.04
860.24	22345.39
860.41	22161.07
860.59	21941.94
860.76	22093.49
860.94	21716.66
861.11	21767.86
861.29	22075.06
861.46	21843.63
861.64	21839.54
861.81	21796.53
861.98	21876.40
862.16	21524.15
862.33	21767.86
862.51	21464.76
862.68	21567.16
862.86	21671.61
863.03	21644.98
863.21	21470.90
863.38	21477.05
863.55	21454.52
863.73	21702.32
863.90	21507.77
864.08	21477.05
864.25	21393.08
864.43	21536.44
864.60	21321.40
864.77	21325.50
864.95	21403.32
865.12	20868.80
865.30	21319.35
865.47	20993.73
865.64	21352.12
865.82	21061.31
865.99	21384.89
866.17	21137.09
866.34	21421.75
866.51	20805.31
866.69	20958.91
866.86	20917.95
867.04	20975.30
867.21	20885.19
867.38	20893.38
867.56	20881.09
867.73	20672.20
867.91	20739.78
868.08	20514.50
868.25	20573.89
868.43	20645.57
868.60	20709.06
868.78	20629.19
868.95	20797.12
869.12	20436.68
869.30	20465.35
869.47	20473.54
869.64	20227.79
869.82	20258.51
869.99	20186.83
870.16	20240.08
870.34	20311.75
870.51	20260.55
870.69	20133.58
870.86	20090.57
871.03	20029.13
871.21	20197.07
871.38	20291.27
871.55	19805.91
871.73	19793.62
871.90	19781.33
872.07	19896.02
872.25	19611.35
872.42	19693.27
872.59	19617.49
872.77	19543.77
872.94	19672.79
873.11	19562.20
873.29	19619.54
873.46	19580.63
873.63	19255.00
873.81	19293.91
873.98	19283.67
874.15	19390.17
874.33	19068.64
874.50	19197.66
874.67	19291.87
874.85	19298.01
875.02	19203.80
875.19	19220.19
875.37	18976.48
875.54	19035.87
875.71	18779.87
875.88	18968.29
876.06	19230.43
876.23	18990.81
876.40	18677.48
876.58	18943.71
876.75	18708.19
876.92	18638.56
877.10	18900.70
877.27	18632.42
877.44	18405.10
877.61	18673.38
877.79	18466.53
877.96	18745.06
878.13	18669.28
878.31	18167.53
878.48	18396.90
878.65	18403.05
878.82	18388.71
879.00	18456.29
879.17	18333.42
879.34	18185.96
879.51	18013.93
879.69	17858.29
879.86	17936.11
880.03	17737.46
880.21	17968.88
880.38	18034.41
880.55	17878.77
880.72	17932.01
880.90	18085.61
881.07	17710.83
881.24	17809.14
881.41	17882.86
881.59	17956.59
881.76	17927.92
881.93	17673.97
882.10	17526.52
882.28	17645.30
882.45	17585.91
882.62	17716.98
882.79	17659.63
882.96	17471.22
883.14	17581.81
883.31	17633.01
883.48	17448.69
883.65	17723.12
883.83	17561.33
884.00	17471.22
884.17	17336.06
884.34	17633.01
884.51	17350.39
884.69	17301.24
884.86	17256.18
885.03	17262.33
885.20	17321.72
885.38	17385.21
885.55	17110.78
885.72	17133.31
885.89	16938.75
886.06	17411.83
886.24	17245.94
886.41	16912.13
886.58	17153.79
886.75	17407.73
886.92	16815.87
887.10	17106.68
887.27	16969.47
887.44	16680.71
887.61	16828.16
887.78	16998.14
887.95	16979.71
888.13	16721.66
888.30	16707.33
888.47	16658.18
888.64	16520.96
888.81	16629.51
888.99	16512.77
889.16	16291.59
889.33	16357.13
889.50	16494.34
889.67	16625.41
889.84	16463.62
890.01	16318.22
890.19	16533.25
890.36	16355.08
890.53	16426.76
890.70	16199.43
890.87	16172.81
891.04	16256.78
891.22	16301.83
891.39	16291.59
891.56	16105.23
891.73	15873.81
891.90	16219.91
892.07	15927.05
892.24	16246.54
892.42	15841.04
892.59	15877.90
892.76	15978.25
892.93	15849.23
893.10	16113.42
893.27	15804.17
893.44	15802.13
893.61	15691.54
893.79	15789.84
893.96	15685.39
894.13	15951.63
894.30	15781.65
894.47	15771.41
894.64	15836.94
894.81	15773.46
894.98	15599.38
895.15	15875.85
895.33	15421.20
895.50	15707.92
895.67	15736.59
895.84	15509.27
896.01	15922.96
896.18	15566.61
896.35	15605.52
896.52	15449.88
896.69	15605.52
896.86	15925.00
897.04	15630.10
897.21	15593.23
897.38	15644.43
897.55	15421.20
897.72	15582.99
897.89	15662.86
898.06	15673.10
898.23	15664.91
898.40	15537.94
898.57	15474.45
898.74	15558.42
898.91	15560.47
899.08	15609.62
899.26	15558.42
899.43	15460.12
899.60	15306.52
899.77	15617.81
899.94	15193.88
900.11	15095.58
900.28	15374.10
900.45	15064.86
900.62	15367.96
900.79	15415.06
900.96	15363.86
901.13	15283.99
901.30	15042.33
901.47	15025.95
901.64	15183.64
901.81	15419.16
901.98	15099.67
902.15	15570.71
902.32	15374.10
902.49	15263.51
902.66	15152.92
902.83	15429.40
903.01	15220.50
903.18	15347.48
903.35	15234.84
903.52	15281.94
903.69	15279.89
903.86	15300.37
904.03	15171.35
904.20	15294.23
904.37	15343.38
904.54	15447.83
904.71	15259.42
904.88	15546.13
905.05	15140.63
905.22	15388.44
905.39	14911.26
905.56	14991.13
905.73	15101.72
905.90	15202.07
906.07	15267.61
906.24	15245.08
906.41	15183.64
906.58	15140.63
906.75	15220.50
906.92	15044.38
907.09	15181.59
907.26	15331.09
907.43	14909.21
907.60	14982.94
907.77	15154.97
907.93	15109.91
908.10	14964.51
908.27	15027.99
908.44	15181.59
908.61	15011.61
908.78	15034.14
908.95	15204.12
909.12	14806.81
909.29	14935.84
909.46	14882.59
909.63	15056.67
909.80	15083.29
909.97	15095.58
910.14	14999.32
910.31	15003.42
910.48	14839.58
910.65	15118.11
910.82	14851.87
910.99	14671.65
911.16	14731.04
911.33	14759.71
911.50	14696.22
911.66	14722.85
911.83	14843.68
912.00	14769.95
912.17	14483.24
912.34	14706.46
912.51	14554.91
912.68	14569.25
912.85	14632.74
913.02	14581.54
913.19	14540.58
913.36	14638.88
913.53	14700.32
913.70	14270.25
913.86	14782.24
914.03	14640.93
914.20	14339.88
914.37	14309.16
914.54	14149.42
914.71	14130.98
914.88	14413.60
915.05	14065.45
915.22	14165.80
915.39	14073.64
915.55	14085.93
915.72	13989.67
915.89	14038.83
916.06	13618.99
916.23	13977.39
916.40	13930.28
916.57	13920.04
916.74	13969.19
916.91	13758.25
917.07	13846.32
917.24	13639.47
917.41	13668.14
917.58	13782.83
917.75	13813.55
917.92	13453.11
918.09	13483.83
918.26	13438.77
918.42	13246.26
918.59	13518.64
918.76	13213.49
918.93	13434.68
919.10	13311.80
919.27	13338.42
919.44	13377.33
919.60	13322.04
919.77	13229.88
919.94	13201.21
920.11	13035.32
920.28	13211.45
920.45	12896.06
920.61	12865.34
920.78	12891.96
920.95	13018.94
921.12	12867.39
921.29	12777.28
921.46	12904.25
921.62	12648.26
921.79	12726.08
921.96	12558.14
922.13	12652.35
922.30	12515.14
922.47	12564.29
922.63	12281.67
922.80	12523.33
922.97	12105.54
923.14	12201.80
923.31	12306.24
923.47	12095.30
923.64	12336.96
923.81	12025.67
923.98	12017.48
924.15	12099.40
924.32	12087.11
924.48	11974.47
924.65	12193.61
924.82	11773.77
924.99	11738.96
925.15	11652.94
925.32	11632.46
925.49	11751.24
925.66	11683.66
925.83	11710.29
925.99	11591.50
926.16	11439.95
926.33	11708.24
926.50	11327.32
926.67	11503.44
926.83	11411.28
927.00	11355.99
927.17	11282.26
927.34	11210.58
927.50	11095.89
927.67	11421.52
927.84	11132.76
928.01	11288.40
928.17	10899.29
928.34	10862.43
928.51	10905.43
928.68	10850.14
928.84	10626.91
929.01	10674.01
929.18	10489.70
929.35	10807.13
929.51	10764.12
929.68	10440.54
929.85	10600.29
930.02	10395.49
930.18	10518.37
930.35	10528.61
930.52	10430.30
930.69	10366.82
930.85	10282.85
931.02	10309.47
931.19	10121.06
931.36	9987.94
931.52	10221.41
931.69	10168.16
931.86	9938.79
932.02	10071.91
932.19	9824.11
932.36	9846.63
932.53	9910.12
932.69	9856.87
932.86	9961.32
933.03	9701.23
933.19	9545.58
933.36	9609.07
933.53	9717.61
933.70	9641.84
933.86	9664.36
934.03	9473.90
934.20	9121.65
934.36	9463.66
934.53	9062.26
934.70	9185.14
934.86	9023.35
935.03	8871.80
935.20	8857.46
935.36	8920.95
935.53	8914.81
935.70	8599.42
935.86	8855.42
936.03	8732.54
936.20	8417.15
936.36	8449.92
936.53	8472.45
936.70	8421.25
936.86	8417.15
937.03	8228.74
937.20	8007.56
937.36	8351.62
937.53	7694.22
937.70	7825.29
937.86	7745.42
938.03	7810.95
938.20	7894.92
938.36	7444.37
938.53	7450.51
938.70	7604.11
938.86	7258.00
939.03	7067.54
939.20	7122.84
939.36	7253.91
939.53	7098.26
939.70	7274.38
939.86	6897.56
940.03	6719.39
940.19	6590.36
940.36	6651.80
940.53	6666.14
940.69	6582.17
940.86	6475.68
941.03	6350.75
941.19	6250.40
941.36	6393.76
941.52	6346.66
941.69	6076.32
941.86	5926.82
942.02	5935.01
942.19	6104.99
942.35	6070.18
942.52	5955.49
942.69	5795.75
942.85	5877.67
943.02	5638.06
943.18	5779.37
943.35	5832.62
943.52	5674.92
943.68	5535.66
943.85	5599.15
944.01	5660.59
944.18	5560.24
944.35	5500.84
944.51	5517.23
944.68	5365.68
944.84	5435.31
945.01	5347.25
945.17	5402.54
945.34	5402.54
945.51	5328.81
945.67	5334.96
945.84	5375.92
946.00	5187.50
946.17	5253.04
946.33	5173.17
946.50	5287.86
946.67	5134.26
946.83	5171.12
947.00	5246.90
947.16	5185.46
947.33	5189.55
947.49	5207.98
947.66	5171.12
947.82	5310.38
947.99	5287.86
948.16	5199.79
948.32	5109.68
948.49	5287.86
948.65	5154.74
948.82	5164.98
948.98	5255.09
949.15	5132.21
949.31	5244.85
949.48	5224.37
949.64	5363.63
949.81	5164.98
949.97	5042.10
950.14	5289.90
950.30	5164.98
950.47	5246.90
950.63	5246.90
950.80	5263.28
950.96	5171.12
951.13	5218.22
951.30	5275.57
951.46	5269.42
951.63	5377.97
951.79	5259.18
951.96	5402.54
952.12	5193.65
952.29	5246.90
952.45	5234.61
952.62	5353.39
952.78	5250.99
952.94	5207.98
953.11	5234.61
953.27	5269.42
953.44	5420.97
953.60	5162.93
953.77	5351.34
953.93	5304.24
954.10	5283.76
954.26	5273.52
954.43	5410.73
954.59	5410.73
954.76	5423.02
954.92	5433.26
955.09	5410.73
955.25	5240.75
955.42	5345.20
955.58	5472.17
955.75	5517.23
955.91	5328.81
956.07	5205.94
956.24	5459.88
956.40	5404.59
956.57	5539.76
956.73	5451.69
956.90	5261.23
957.06	5363.63
957.23	5517.23
957.39	5271.47
957.56	5423.02
957.72	5298.10
957.88	5300.14
958.05	5457.84
958.21	5537.71
958.38	5433.26
958.54	5416.88
958.71	5459.88
958.87	5472.17
959.03	5275.57
959.20	5410.73
959.36	5234.61
959.53	5425.07
959.69	5367.73
959.85	5525.42
960.02	5150.64
960.18	5406.64
960.35	5461.93
960.51	5314.48
960.68	5318.57
960.84	5281.71
961.00	5318.57
961.17	5341.10
961.33	5447.60
961.50	5326.77
961.66	5435.31
961.82	5277.62
961.99	5466.03
962.15	5427.12
962.31	5322.67
962.48	5392.30
962.64	5337.01
962.81	5367.73
962.97	5273.52
963.13	5396.40
963.30	5386.16
963.46	5289.90
963.62	5324.72
963.79	5388.21
963.95	5222.32
964.12	5349.29
964.28	5425.07
964.44	5248.94
964.61	5347.25
964.77	5339.05
964.93	5380.01
965.10	5298.10
965.26	5296.05
965.42	5283.76
965.59	5097.39
965.75	5107.63
965.92	5306.29
966.08	5246.90
966.24	5228.46
966.41	5107.63
966.57	5207.98
966.73	5203.89
966.90	5384.11
967.06	5238.70
967.22	5294.00
967.39	5179.31
967.55	5109.68
967.71	5263.28
967.88	5199.79
968.04	5050.29
968.20	5134.26
968.37	4980.66
968.53	5087.15
968.69	5050.29
968.85	5107.63
969.02	5181.36
969.18	5181.36
969.34	5083.06
969.51	5074.87
969.67	5154.74
969.83	4984.76
970.00	5017.52
970.16	4966.32
970.32	4980.66
970.48	5042.10
970.65	4984.76
970.81	4927.41
970.97	4915.12
971.14	4929.46
971.30	5029.81
971.46	4990.90
971.63	4894.65
971.79	4999.09
971.95	4933.56
972.11	4919.22
972.28	4908.98
972.44	4966.32
972.60	4872.12
972.76	5025.72
972.93	5048.24
973.09	4820.92
973.25	4945.84
973.42	4816.82
973.58	4763.58
973.74	4798.39
973.90	4917.17
974.07	4820.92
974.23	4808.63
974.39	4878.26
974.55	4695.99
974.72	4792.25
974.88	4704.18
975.04	4849.59
975.20	4698.04
975.37	4837.30
975.53	4753.34
975.69	4724.66
975.85	4685.75
976.01	4698.04
976.18	4661.18
976.34	4681.66
976.50	4614.07
976.66	4841.40
976.83	4806.58
976.99	4689.85
977.15	4751.29
977.31	4542.39
977.47	4683.70
977.64	4622.27
977.80	4607.93
977.96	4569.02
978.12	4489.15
978.29	4521.92
978.45	4272.06
978.61	4472.76
978.77	4695.99
978.93	4616.12
979.10	4437.95
979.26	4435.90
979.42	4468.67
979.58	4415.42
979.74	4405.18
979.91	4345.79
980.07	4362.17
980.23	4540.35
980.39	4407.23
980.55	4466.62
980.71	4409.28
980.88	4472.76
981.04	4362.17
981.20	4401.08
981.36	4409.28
981.52	4356.03
981.68	4278.21
981.85	4347.84
982.01	4251.58
982.17	4487.10
982.33	4261.82
982.49	4374.46
982.65	4353.98
982.82	4218.82
982.98	4308.93
983.14	4224.96
983.30	4417.47
983.46	4483.00
983.62	4151.23
983.79	4267.97
983.95	4212.67
984.11	4067.27
984.27	4235.20
984.43	4235.20
984.59	4192.19
984.75	4169.66
984.91	4233.15
985.08	4063.17
985.24	4130.75
985.40	4102.08
985.56	4216.77
985.72	4132.80
985.88	4067.27
986.04	4042.69
986.20	4034.50
986.37	4116.42
986.53	4079.55
986.69	4036.55
986.85	3946.44
987.01	4095.94
987.17	4063.17
987.33	3923.91
987.49	3895.24
987.65	3981.25
987.82	3991.49
987.98	3989.44
988.14	4063.17
988.30	3936.20
988.46	3803.08
988.62	3938.24
988.78	3917.76
988.94	3860.42
989.10	3846.09
989.26	3827.65
989.42	3780.55
989.59	3792.84
989.75	3782.60
989.91	3885.00
990.07	3717.06
990.23	3803.08
990.39	3913.67
990.55	3768.26
990.71	3819.46
990.87	3839.94
991.03	3893.19
991.19	3778.50
991.35	3803.08
991.51	3901.38
991.67	3897.28
991.83	3932.10
992.00	3753.93
992.16	3774.41
992.32	3768.26
992.48	3696.58
992.64	3538.89
992.80	3887.04
992.96	3655.62
993.12	3764.17
993.28	3635.14
993.44	3583.95
993.60	3622.86
993.76	3610.57
993.92	3706.82
994.08	3672.01
994.24	3667.91
994.40	3588.04
994.56	3590.09
994.72	3516.36
994.88	3532.75
995.04	3532.75
995.20	3577.80
995.36	3489.74
995.52	3600.33
995.68	3483.59
995.84	3538.89
996.00	3612.62
996.16	3588.04
996.32	3413.96
996.48	3549.13
996.64	3555.27
996.80	3424.20
996.96	3571.66
997.12	3526.60
997.28	3405.77
997.44	3436.49
997.60	3459.02
997.76	3366.86
997.92	3403.72
998.08	3450.83
998.24	3387.34
998.40	3305.42
998.56	3393.48
998.72	3246.03
998.88	3370.96
999.04	3321.81
999.20	3356.62
999.36	3389.39
999.52	3422.16
999.68	3313.61
999.84	3354.57
1000.00	3344.33
1000.16	3364.81
1000.32	3336.14
1000.48	3303.37
1000.64	3196.88
1000.80	3170.26
1000.95	3153.87
1001.11	3256.27
1001.27	3223.50
1001.43	3114.96
1001.59	3147.73
1001.75	3182.54
1001.91	3178.45
1002.07	3196.88
1002.23	3227.60
1002.39	3119.06
1002.55	3049.43
1002.71	3141.58
1002.87	3096.53
1003.03	3016.66
1003.19	3071.95
1003.34	3088.34
1003.50	3133.39
1003.66	2961.36
1003.82	3153.87
1003.98	2983.89
1004.14	3135.44
1004.30	3008.47
1004.46	3088.34
1004.62	2951.12
1004.78	3030.99
1004.94	3100.62
1005.09	2957.27
1005.25	3049.43
1005.41	3037.14
1005.57	3055.57
1005.73	3030.99
1005.89	2922.45
1006.05	2977.75
1006.21	2942.93
1006.37	2969.55
1006.52	2906.07
1006.68	2932.69
1006.84	3022.80
1007.00	2949.08
1007.16	3002.32
1007.32	2873.30
1007.48	2887.64
1007.64	2891.73
1007.79	2963.41
1007.95	2848.72
1008.11	2883.54
1008.27	2854.87
1008.43	2807.77
1008.59	2865.11
1008.75	2826.20
1008.91	2832.34
1009.06	2854.87
1009.22	2912.21
1009.38	2914.26
1009.54	2832.34
1009.70	2813.91
1009.86	2865.11
1010.01	2871.25
1010.17	2746.33
1010.33	2797.53
1010.49	2758.61
1010.65	2779.09
1010.81	2729.94
1010.96	2758.61
1011.12	2793.43
1011.28	2713.56
1011.44	2756.57
1011.60	2877.40
1011.76	2709.46
1011.91	2744.28
1012.07	2756.57
1012.23	2633.69
1012.39	2672.60
1012.55	2729.94
1012.71	2756.57
1012.86	2650.07
1013.02	2684.89
1013.18	2613.21
1013.34	2648.02
1013.50	2762.71
1013.65	2707.41
1013.81	2605.02
1013.97	2615.26
1014.13	2631.64
1014.29	2559.96
1014.44	2691.03
1014.60	2555.86
1014.76	2592.73
1014.92	2615.26
1015.07	2529.24
1015.23	2572.25
1015.39	2541.53
1015.55	2621.40
1015.71	2539.48
1015.86	2582.49
1016.02	2543.58
1016.18	2404.32
1016.34	2551.77
1016.49	2576.34
1016.65	2641.88
1016.81	2459.61
1016.97	2521.05
1017.12	2496.47
1017.28	2510.81
1017.44	2533.34
1017.60	2475.99
1017.75	2418.65
1017.91	2478.04
1018.07	2557.91
1018.23	2426.84
1018.38	2486.23
1018.54	2469.85
1018.70	2408.41
1018.86	2312.16
1019.01	2375.64
1019.17	2402.27
1019.33	2465.75
1019.49	2396.12
1019.64	2396.12
1019.80	2500.57
1019.96	2484.19
1020.12	2465.75
1020.27	2308.06
1020.43	2457.56
1020.59	2365.40
1020.74	2326.49
1020.90	2441.18
1021.06	2256.86
1021.22	2269.15
1021.37	2394.08
1021.53	2285.53
1021.69	2367.45
1021.84	2322.40
1022.00	2332.64
1022.16	2232.29
1022.31	2240.48
1022.47	2361.31
1022.63	2357.21
1022.79	2217.95
1022.94	2260.96
1023.10	2373.60
1023.26	2310.11
1023.41	2242.53
1023.57	2312.16
1023.73	2248.67
1023.88	2234.33
1024.04	2226.14
1024.20	2205.66
1024.35	2275.29
1024.51	2232.29
1024.67	2265.05
1024.82	2344.92
1024.98	2209.76
1025.14	2220.00
1025.29	2301.92
1025.45	2355.16
1025.61	2131.94
1025.76	2273.25
1025.92	2195.42
1026.08	2224.09
1026.23	2252.77
1026.39	2172.89
1026.55	2082.78
1026.70	2191.33
1026.86	2111.46
1027.02	2220.00
1027.17	2123.74
1027.33	2199.52
1027.48	2097.12
1027.64	2189.28
1027.80	2150.37
1027.95	2215.90
1028.11	2076.64
1028.27	2228.19
1028.42	2164.70
1028.58	2090.98
1028.73	2084.83
1028.89	2140.13
1029.05	2232.29
1029.20	2199.52
>>>>>End Processed Spectral Data<<<<<
