SpectraSuite Data File
++++++++++++++++++++++++++++++++++++
Date: Fri Jun 02 14:48:00 CEST 2017
User: INFO_000
Dark Spectrum Present: No
Reference Spectrum Present: No
Number of Sampled Component Spectra: 1
Spectrometers: USB4H00879
Integration Time (usec): 80000 (USB4H00879)
Spectra Averaged: 1 (USB4H00879)
Boxcar Smoothing: 0 (USB4H00879)
Correct for Electrical Dark: No (USB4H00879)
Strobe/Lamp Enabled: No (USB4H00879)
Correct for Detector Non-linearity: No (USB4H00879)
Correct for Stray Light: No (USB4H00879)
Number of Pixels in Processed Spectrum: 3648
>>>>>Begin Processed Spectral Data<<<<<
345.13	1290.22
345.34	1290.22
345.56	1290.22
345.78	1277.93
345.99	1275.88
346.21	1669.09
346.42	1644.52
346.64	1619.94
346.86	1787.88
347.07	1658.85
347.29	1675.24
347.50	1576.94
347.72	1609.70
347.94	1705.96
348.15	1654.76
348.37	1667.05
348.59	1691.62
348.80	1675.24
349.02	1785.83
349.23	1859.56
349.45	1753.06
349.67	1912.80
349.88	1826.79
350.10	1929.19
350.31	1820.64
350.53	1853.41
350.75	1951.71
350.96	1826.79
351.18	1853.41
351.39	1871.84
351.61	1716.20
351.82	1898.47
352.04	1904.61
352.26	1822.69
352.47	1906.66
352.69	1898.47
352.90	1789.92
353.12	1777.64
353.34	1785.83
353.55	2017.25
353.77	1941.47
353.98	1798.12
354.20	1892.32
354.41	1853.41
354.63	1902.56
354.85	1990.63
355.06	1871.84
355.28	1724.39
355.49	1923.04
355.71	1851.36
355.92	1853.41
356.14	1998.82
356.35	1918.95
356.57	1796.07
356.79	1906.66
357.00	1841.12
357.22	1976.29
357.43	1888.23
357.65	1988.58
357.86	1908.71
358.08	1834.98
358.29	1974.24
358.51	1955.81
358.72	1998.82
358.94	1976.29
359.16	1943.52
359.37	1886.18
359.59	2033.63
359.80	2037.73
360.02	1918.95
360.23	1980.39
360.45	1904.61
360.66	1910.75
360.88	1902.56
361.09	1929.19
361.31	1974.24
361.52	1949.67
361.74	2029.54
361.95	2109.41
362.17	1920.99
362.38	2076.64
362.60	2082.78
362.81	1914.85
363.03	1964.00
363.24	2039.78
363.46	1982.43
363.67	2017.25
363.89	2011.11
364.10	1986.53
364.32	2021.35
364.53	2023.39
364.75	1964.00
364.96	2113.50
365.18	2041.82
365.39	2027.49
365.61	1925.09
365.82	2066.40
366.04	2060.26
366.25	2039.78
366.47	1957.86
366.68	2027.49
366.90	1945.57
367.11	2062.30
367.33	2090.98
367.54	2004.96
367.76	2050.02
367.97	2035.68
368.19	1994.72
368.40	2072.54
368.62	2000.87
368.83	2031.58
369.05	2009.06
369.26	1953.76
369.48	2002.91
369.69	2025.44
369.91	2142.18
370.12	2066.40
370.33	2090.98
370.55	1994.72
370.76	2068.45
370.98	2080.74
371.19	2056.16
371.41	2060.26
371.62	1972.19
371.84	2043.87
372.05	2142.18
372.27	2125.79
372.48	2105.31
372.69	2076.64
372.91	2160.61
373.12	2123.74
373.34	2023.39
373.55	2152.42
373.77	2183.13
373.98	2103.26
374.20	2172.89
374.41	2263.01
374.62	2156.51
374.84	2099.17
375.05	2123.74
375.27	2090.98
375.48	2136.03
375.70	2230.24
375.91	2281.44
376.12	2322.40
376.34	2131.94
376.55	2213.85
376.77	2256.86
376.98	2109.41
377.19	2117.60
377.41	2205.66
377.62	2195.42
377.84	2174.94
378.05	2334.68
378.27	2150.37
378.48	2367.45
378.69	2379.74
378.91	2297.82
379.12	2207.71
379.34	2246.62
379.55	2363.36
379.76	2336.73
379.98	2240.48
380.19	2236.38
380.41	2273.25
380.62	2369.50
380.83	2220.00
381.05	2250.72
381.26	2381.79
381.47	2205.66
381.69	2254.81
381.90	2445.27
382.12	2349.02
382.33	2293.72
382.54	2316.25
382.76	2281.44
382.97	2285.53
383.19	2361.31
383.40	2420.70
383.61	2312.16
383.83	2285.53
384.04	2392.03
384.25	2344.92
384.47	2449.37
384.68	2338.78
384.89	2394.08
385.11	2334.68
385.32	2344.92
385.54	2310.11
385.75	2322.40
385.96	2418.65
386.18	2418.65
386.39	2389.98
386.60	2322.40
386.82	2398.17
387.03	2422.75
387.24	2502.62
387.46	2519.00
387.67	2461.66
387.88	2629.59
388.10	2525.15
388.31	2512.86
388.52	2574.30
388.74	2535.39
388.95	2496.47
389.16	2545.63
389.38	2537.43
389.59	2639.83
389.80	2639.83
390.02	2584.54
390.23	2650.07
390.44	2607.06
390.66	2623.45
390.87	2412.51
391.08	2641.88
391.30	2701.27
391.51	2693.08
391.72	2727.89
391.94	2625.50
392.15	2631.64
392.36	2639.83
392.58	2535.39
392.79	2725.85
393.00	2697.17
393.22	2721.75
393.43	2697.17
393.64	2717.65
393.85	2850.77
394.07	2643.93
394.28	2715.61
394.49	2820.05
394.71	2748.37
394.92	2908.12
395.13	2799.57
395.35	2742.23
395.56	2686.94
395.77	2770.90
395.98	2885.59
396.20	2842.58
396.41	2869.20
396.62	2967.51
396.84	2883.54
397.05	2867.16
397.26	2904.02
397.47	2951.12
397.69	2887.64
397.90	2990.03
398.11	2883.54
398.32	2983.89
398.54	2918.36
398.75	2897.88
398.96	2887.64
399.18	3143.63
399.39	2994.13
399.60	3102.67
399.81	2930.64
400.03	3043.28
400.24	3270.61
400.45	3102.67
400.66	3035.09
400.88	3098.58
401.09	3248.08
401.30	3106.77
401.51	3182.54
401.73	3117.01
401.94	3065.81
402.15	3192.78
402.36	3211.22
402.58	3125.20
402.79	3153.87
403.00	3180.50
403.21	3215.31
403.43	3252.17
403.64	3129.30
403.85	3133.39
404.06	3256.27
404.27	3198.93
404.49	3223.50
404.70	3205.07
404.91	3368.91
405.12	3313.61
405.34	3354.57
405.55	3420.11
405.76	3166.16
405.97	3327.95
406.19	3358.67
406.40	3229.65
406.61	3368.91
406.82	3448.78
407.03	3354.57
407.25	3332.05
407.46	3379.15
407.67	3452.88
407.88	3442.64
408.09	3346.38
408.31	3272.65
408.52	3399.63
408.73	3461.07
408.94	3381.20
409.15	3438.54
409.37	3516.36
409.58	3594.19
409.79	3526.60
410.00	3559.37
410.21	3444.68
410.43	3549.13
410.64	3418.06
410.85	3514.31
411.06	3530.70
411.27	3549.13
411.48	3686.34
411.70	3651.53
411.91	3559.37
412.12	3790.79
412.33	3688.39
412.54	3565.51
412.76	3725.26
412.97	3770.31
413.18	3477.45
413.39	3698.63
413.60	3850.18
413.81	3780.55
414.03	3583.95
414.24	3629.00
414.45	3829.70
414.66	3629.00
414.87	3733.45
415.08	3794.89
415.30	3825.61
415.51	3917.76
415.72	3780.55
415.93	3706.82
416.14	3882.95
416.35	3915.72
416.56	3905.48
416.78	3876.80
416.99	3905.48
417.20	3887.04
417.41	3905.48
417.62	3981.25
417.83	3977.16
418.04	4022.21
418.26	4052.93
418.47	3983.30
418.68	3985.35
418.89	4040.64
419.10	4134.85
419.31	4147.14
419.52	4140.99
419.73	3948.48
419.95	4026.31
420.16	3993.54
420.37	4014.02
420.58	4147.14
420.79	4061.12
421.00	4280.25
421.21	4300.73
421.42	4083.65
421.63	4128.70
421.85	4353.98
422.06	4167.62
422.27	4304.83
422.48	4124.61
422.69	4255.68
422.90	4308.93
423.11	4425.66
423.32	4327.36
423.53	4532.15
423.75	4368.32
423.96	4708.28
424.17	4464.57
424.38	4564.92
424.59	4548.54
424.80	4607.93
425.01	4519.87
425.22	4427.71
425.43	4421.56
425.64	4769.72
425.85	4804.53
426.06	4716.47
426.28	4532.15
426.49	4618.17
426.70	4609.98
426.91	4669.37
427.12	4743.10
427.33	4646.84
427.54	4673.46
427.75	4745.14
427.96	4882.36
428.17	4788.15
428.38	4874.17
428.59	5027.76
428.80	4829.11
429.01	5054.39
429.23	4882.36
429.44	5083.06
429.65	5038.00
429.86	5029.81
430.07	5011.38
430.28	5101.49
430.49	5072.82
430.70	5207.98
430.91	5234.61
431.12	5130.16
431.33	5320.62
431.54	5334.96
431.75	5285.81
431.96	5226.42
432.17	5197.74
432.38	5269.42
432.59	5404.59
432.80	5382.06
433.01	5363.63
433.22	5504.94
433.43	5377.97
433.64	5445.55
433.85	5275.57
434.06	5533.61
434.27	5470.12
434.49	5660.59
434.70	5636.01
434.91	5550.00
435.12	5527.47
435.33	5582.76
435.54	5713.83
435.75	5400.49
435.96	5539.76
436.17	5590.95
436.38	5711.78
436.59	5679.02
436.80	5656.49
437.01	5836.71
437.22	5902.25
437.43	5834.66
437.64	5506.99
437.85	5775.27
438.06	6012.84
438.27	5824.42
438.48	5896.10
438.69	5963.68
438.90	5978.02
439.11	5818.28
439.32	6031.27
439.53	6025.12
439.74	5978.02
439.95	5990.31
440.16	5996.45
440.37	6037.41
440.57	5943.21
440.78	6137.76
440.99	6109.09
441.20	6180.77
441.41	6119.33
441.62	6148.00
441.83	6125.47
442.04	6252.45
442.25	6035.36
442.46	6317.98
442.67	6244.26
442.88	6680.47
443.09	6188.96
443.30	6223.78
443.51	6150.05
443.72	6657.95
443.93	6305.70
444.14	6584.22
444.35	6145.95
444.56	6498.20
444.77	6547.36
444.98	6412.19
445.19	6520.73
445.40	6580.12
445.61	6619.04
445.81	6688.67
446.02	6717.34
446.23	6709.15
446.44	6463.39
446.65	6541.21
446.86	6676.38
447.07	6735.77
447.28	6918.04
447.49	6860.70
447.70	6799.26
447.91	6942.61
448.12	6817.69
448.33	6846.36
448.54	6952.85
448.74	6772.63
448.95	6973.33
449.16	6866.84
449.37	7118.74
449.58	7024.53
449.79	7233.43
450.00	7006.10
450.21	7251.86
450.42	7294.86
450.63	7337.87
450.84	7014.29
451.05	7155.60
451.25	7174.03
451.46	7075.73
451.67	7514.00
451.88	7280.53
452.09	7266.19
452.30	7374.74
452.51	7309.20
452.72	7673.74
452.93	7597.96
453.13	7356.30
453.34	7468.94
453.55	7503.76
453.76	7407.50
453.97	7878.54
454.18	7628.68
454.39	7696.27
454.60	7737.23
454.81	7856.01
455.01	8023.94
455.22	7491.47
455.43	7808.90
455.64	8007.56
455.85	8056.71
456.06	8273.79
456.27	8071.04
456.48	7851.91
456.68	8050.57
456.89	8005.51
457.10	8146.82
457.31	8056.71
457.52	8134.53
457.73	8224.64
457.94	8478.59
458.14	8228.74
458.35	8570.75
458.56	8468.35
458.77	8417.15
458.98	8607.61
459.19	8597.37
459.39	8771.45
459.60	8734.59
459.81	8542.08
460.02	8781.69
460.23	8687.48
460.44	8875.90
460.65	8994.68
460.85	8898.42
461.06	8966.01
461.27	8888.18
461.48	9174.90
461.69	9351.03
461.89	8900.47
462.10	9074.55
462.31	8951.67
462.52	9033.59
462.73	9228.15
462.94	9414.51
463.14	9342.83
463.35	9351.03
463.56	9676.65
463.77	9734.00
463.98	9324.40
464.18	9631.60
464.39	9713.52
464.60	9906.02
464.81	9797.48
465.02	9742.19
465.23	9936.74
465.43	9920.36
465.64	10030.95
465.85	10033.00
466.06	10022.76
466.27	10260.32
466.47	10207.08
466.68	10356.58
466.89	10375.01
467.10	10456.93
467.30	10321.76
467.51	10348.39
467.72	10671.97
467.93	10465.12
468.14	10448.74
468.34	10911.58
468.55	10686.30
468.76	10989.40
468.97	10692.44
469.17	11089.75
469.38	11183.96
469.59	11290.45
469.80	11087.70
470.01	11110.23
470.21	11429.71
470.42	11405.14
470.63	11562.83
470.84	11460.43
471.04	11573.07
471.25	11609.93
471.46	11439.95
471.67	11906.89
471.87	11687.76
472.08	12031.82
472.29	12037.96
472.50	11779.92
472.70	12035.91
472.91	12033.86
473.12	12005.19
473.33	12212.04
473.53	12480.32
473.74	12425.03
473.95	12476.23
474.16	12783.42
474.36	12601.15
474.57	13045.56
474.78	13049.66
474.99	12857.15
475.19	12894.01
475.40	13336.37
475.61	13270.84
475.81	13461.30
476.02	13819.69
476.23	13330.23
476.44	13670.19
476.64	13918.00
476.85	14063.40
477.06	13745.97
477.27	14473.00
477.47	14155.56
477.68	14196.52
477.89	14192.42
478.09	14227.24
478.30	14493.47
478.51	14546.72
478.71	14518.05
478.92	14612.26
479.13	14860.06
479.34	14993.18
479.54	14946.08
479.75	15097.63
479.96	15050.52
480.16	15089.43
480.37	15210.26
480.58	15224.60
480.78	15603.47
480.99	15707.92
481.20	15720.21
481.41	15838.99
481.61	15826.70
481.82	16299.78
482.03	15752.98
482.23	15871.76
482.44	16152.33
482.65	16348.93
482.85	16647.94
483.06	16543.49
483.27	16699.14
483.47	16764.67
483.68	16729.86
483.89	16951.04
484.09	17024.76
484.30	17170.17
484.51	17153.79
484.71	17307.38
484.92	17186.55
485.13	17719.03
485.33	17301.24
485.54	17757.94
485.75	17731.31
485.95	18042.60
486.16	17907.44
486.37	18163.43
486.57	17889.01
486.78	18276.07
486.98	18317.03
487.19	18351.85
487.40	18413.29
487.60	18220.78
487.81	18738.91
488.02	18648.80
488.22	18806.50
488.43	18632.42
488.64	19287.77
488.84	19316.44
489.05	19453.66
489.25	19089.12
489.46	19529.43
489.67	19609.30
489.87	19740.37
490.08	19859.15
490.29	19519.19
490.49	20025.04
490.70	19988.18
490.90	19891.92
491.11	20336.33
491.32	20371.15
491.52	20299.47
491.73	20262.60
491.94	20577.99
492.14	20692.68
492.35	20444.87
492.55	21008.06
492.76	20786.88
492.97	20909.76
493.17	21278.40
493.38	21284.54
493.58	21530.30
493.79	21528.25
494.00	21083.84
494.20	21366.46
494.41	21696.18
494.61	21599.93
494.82	21726.90
495.02	21438.14
495.23	22017.71
495.44	22087.34
495.64	22103.73
495.85	22068.91
496.05	22390.44
496.26	22011.57
496.47	22597.29
496.67	22587.05
496.88	22707.88
497.08	22187.69
497.29	22746.79
497.49	22818.47
497.70	22800.04
497.91	23084.70
498.11	23090.85
498.32	23013.02
498.52	23219.87
498.73	23721.62
498.93	23291.55
499.14	23574.17
499.34	23449.24
499.55	23918.23
499.76	23670.42
499.96	23781.01
500.17	23744.15
500.37	23967.38
500.58	24102.54
500.78	24071.82
500.99	23856.79
501.19	24434.32
501.40	24559.24
501.60	24297.10
501.81	24555.15
502.02	24774.28
502.22	24479.37
502.43	24577.67
502.63	24915.59
502.84	24944.26
503.04	24716.93
503.25	24852.10
503.45	24923.78
503.66	25077.38
503.86	25169.54
504.07	25534.07
504.27	25327.23
504.48	25675.38
504.68	25546.36
504.89	25917.04
505.09	25882.23
505.30	25718.39
505.50	25542.27
505.71	26039.92
505.91	25833.08
506.12	26330.73
506.32	25919.09
506.53	26080.88
506.73	26275.44
506.94	26252.91
507.14	26474.09
507.35	26408.56
507.55	26242.67
507.76	26474.09
507.96	26355.31
508.17	26613.35
508.37	26459.76
508.58	26601.07
508.78	26674.79
508.99	27092.58
509.19	27012.71
509.40	26842.73
509.60	27143.78
509.81	27223.65
510.01	27115.11
510.22	27149.92
510.42	26932.84
510.63	27235.94
510.83	27487.84
511.04	27037.28
511.24	27254.37
511.44	27237.98
511.65	27399.77
511.85	27915.86
512.06	27549.28
512.26	27659.87
512.47	27698.78
512.67	27780.70
512.88	28165.71
513.08	27545.18
513.29	27993.68
513.49	28020.31
513.69	27698.78
513.90	28061.27
514.10	28061.27
514.31	28165.71
514.51	28407.37
514.72	28278.35
514.92	28321.36
515.13	28399.18
515.33	28565.07
515.53	28288.59
515.74	28618.32
515.94	28618.32
516.15	29007.43
516.35	28706.38
516.56	29161.03
516.76	28792.39
516.96	28673.61
517.17	29107.78
517.37	29089.35
517.58	29144.64
517.78	29101.64
517.99	29283.91
518.19	29206.08
518.39	29570.62
518.60	29521.47
518.80	29500.99
519.01	30131.76
519.21	29826.62
519.41	29738.55
519.62	29605.44
519.82	29580.86
520.03	30148.15
520.23	30174.77
520.43	29726.27
520.64	30422.58
520.84	30422.58
521.05	30088.76
521.25	30291.51
521.45	30549.55
521.66	30578.22
521.86	30578.22
522.07	30729.77
522.27	30514.73
522.47	30604.84
522.68	31018.53
522.88	30975.53
523.08	30770.73
523.29	31206.95
523.49	31108.65
523.70	31170.08
523.90	31542.81
524.10	31368.74
524.31	31862.30
524.51	31448.61
524.71	32073.24
524.92	31847.96
525.12	31999.51
525.33	31823.39
525.53	32163.35
525.73	32380.43
525.94	32292.37
526.14	32097.81
526.34	32120.34
526.55	32310.80
526.75	32595.47
526.95	32437.78
527.16	32364.05
527.36	32882.19
527.56	32935.43
527.77	33330.69
527.97	33187.33
528.17	32712.20
528.38	33529.34
528.58	33392.13
528.78	33517.06
528.99	33404.42
529.19	33535.49
529.39	33373.70
529.60	33965.56
529.80	33398.27
530.00	33879.55
530.21	33973.75
530.41	34199.03
530.61	34070.01
530.82	34141.69
531.02	34596.34
531.22	34330.10
531.43	34131.45
531.63	34520.56
531.83	34788.85
532.04	34661.87
532.24	34506.23
532.44	35276.26
532.64	35042.79
532.85	35382.76
533.05	35196.39
533.25	35268.07
533.46	35393.00
533.66	35622.37
533.86	35186.15
534.07	35821.02
534.27	35698.14
534.47	36185.56
534.67	36206.04
534.88	36226.52
535.08	36238.81
535.28	36191.70
535.49	36484.56
535.69	36687.31
535.89	36210.14
536.09	36490.71
536.30	36818.38
536.50	36793.81
536.70	36847.05
536.91	36898.25
537.11	37459.40
537.31	37252.55
537.51	37203.40
537.72	37488.07
537.92	37649.86
538.12	38014.40
538.32	37713.34
538.53	37969.34
538.73	37586.37
538.93	37733.82
539.13	37733.82
539.34	37991.87
539.54	37946.81
539.74	38206.90
539.94	37946.81
540.15	38270.39
540.35	38573.49
540.55	38604.21
540.75	38546.87
540.96	38892.97
541.16	38927.79
541.36	38698.42
541.56	38890.93
541.77	39306.66
541.97	39349.67
542.17	39128.49
542.37	39343.53
542.58	39124.40
542.78	39316.90
542.98	39218.60
543.18	39400.87
543.38	39843.23
543.59	39620.00
543.79	39792.03
543.99	39476.65
544.19	39587.24
544.40	39820.70
544.60	40009.12
544.80	40179.10
545.00	39867.81
545.20	40594.84
545.41	40279.45
545.61	40263.07
545.81	40621.46
546.01	40400.28
546.21	40719.76
546.42	40623.51
546.62	41016.72
546.82	40662.42
547.02	40744.34
547.22	41041.29
547.43	40871.31
547.63	41069.97
547.83	40942.99
548.03	41033.10
548.23	40938.90
548.44	40979.85
548.64	41311.63
548.84	41465.22
549.04	41614.72
549.24	41700.74
549.45	41571.72
549.65	41444.74
549.85	41553.29
550.05	41481.61
550.25	41645.44
550.45	41936.26
550.66	42026.37
550.86	41817.47
551.06	42313.08
551.26	42438.01
551.46	42308.99
551.66	42175.87
551.87	42063.23
552.07	42333.56
552.27	42745.20
552.47	42777.97
552.67	42454.39
552.87	42149.24
553.07	42691.96
553.28	42532.22
553.48	42550.65
553.68	42743.16
553.88	42694.00
554.08	42993.01
554.28	42835.31
554.48	42519.93
554.69	42818.93
554.89	42986.86
555.09	43560.30
555.29	42863.99
555.49	42956.14
555.69	42976.62
555.89	43046.26
556.10	43122.03
556.30	43253.10
556.50	43513.19
556.70	43287.92
556.90	43285.87
557.10	43775.33
557.30	42872.18
557.50	43847.01
557.70	43674.98
557.91	43554.15
558.11	43750.76
558.31	43697.51
558.51	44000.61
558.71	43580.78
558.91	43982.18
559.11	43717.99
559.31	43865.44
559.51	43894.11
559.72	44119.39
559.92	44383.58
560.12	44162.40
560.32	44619.10
560.52	43922.79
560.72	44092.77
560.92	44541.27
561.12	44096.86
561.32	44363.10
561.52	44047.71
561.72	44969.30
561.93	44393.82
562.13	44633.43
562.33	44336.48
562.53	45106.51
562.73	44569.94
562.93	44889.43
563.13	45020.50
563.33	44709.21
563.53	44961.11
563.73	44590.42
563.93	44918.10
564.13	45106.51
564.33	45274.45
564.53	45284.68
564.74	45059.41
564.94	44940.63
565.14	45174.09
565.34	44805.46
565.54	44963.15
565.74	45083.98
565.94	45243.73
566.14	45530.44
566.34	45124.94
566.54	45530.44
566.74	45102.42
566.94	45589.83
567.14	45702.47
567.34	45503.82
567.54	45456.71
567.74	45380.94
567.94	45417.80
568.14	45720.90
568.34	45774.15
568.54	45835.59
568.74	45937.99
568.94	45575.50
569.14	46236.99
569.34	46241.09
569.54	45925.70
569.75	45978.95
569.95	45612.36
570.15	46155.07
570.35	46419.26
570.55	45768.01
570.75	46120.26
570.95	45788.49
571.15	46376.25
571.35	46398.78
571.55	46538.04
571.75	46128.45
571.95	46429.50
572.15	46470.46
572.35	46781.75
572.55	46384.44
572.75	46353.72
572.95	46488.89
573.15	46716.22
573.35	46828.85
573.55	46527.80
573.75	46859.57
573.95	47162.67
574.15	46847.29
574.35	47441.20
574.55	46751.03
574.75	46900.53
574.95	46923.06
575.15	46708.02
575.34	47144.24
575.54	47492.40
575.74	47234.35
575.94	47523.11
576.14	47412.52
576.34	47750.44
576.54	47529.26
576.74	47430.96
576.94	47639.85
577.14	47854.89
577.34	47963.43
577.54	47529.26
577.74	48002.34
577.94	47975.72
578.14	48143.65
578.34	48442.65
578.54	47783.21
578.74	47744.30
578.94	48192.80
579.14	47828.26
579.34	48063.78
579.54	48442.65
579.74	48651.55
579.94	48643.35
580.13	48586.01
580.33	48332.06
580.53	48403.74
580.73	48799.00
580.93	48534.81
581.13	48852.25
581.33	49110.29
581.53	48672.03
581.73	48553.24
581.93	48600.35
582.13	48737.56
582.33	49063.19
582.53	49095.95
582.73	49169.68
582.92	49329.42
583.12	49284.37
583.32	49296.66
583.52	49300.75
583.72	49595.66
583.92	49380.62
584.12	49372.43
584.32	50001.16
584.52	49431.82
584.72	50093.32
584.92	50095.36
585.11	50285.82
585.31	49878.28
585.51	49513.74
585.71	50283.78
585.91	50511.10
586.11	50052.36
586.31	49741.06
586.51	49904.90
586.71	50279.68
586.91	50443.52
587.10	50550.01
587.30	50304.26
587.50	50631.93
587.70	50384.13
587.90	50441.47
588.10	50539.77
588.30	50222.34
588.50	50513.15
588.69	50615.55
588.89	50511.10
589.09	50975.99
589.29	50982.13
589.49	50799.86
589.69	50599.16
589.89	51025.14
590.08	50844.92
590.28	50877.69
590.48	50806.01
590.68	51113.20
590.88	51115.25
591.08	51008.76
591.28	50902.26
591.47	51641.58
591.67	51254.51
591.87	51262.71
592.07	51469.55
592.27	51418.35
592.47	51320.05
592.67	51725.55
592.86	51449.07
593.06	51639.53
593.26	51934.44
593.46	51666.16
593.66	51639.53
593.86	52075.75
594.05	51766.51
594.25	52321.51
594.45	51913.96
594.65	51938.54
594.85	51635.44
595.05	52165.86
595.24	52348.13
595.44	52210.92
595.64	52315.36
595.84	52129.00
596.04	52303.07
596.23	52579.55
596.43	52673.76
596.63	52659.42
596.83	52794.59
597.03	52923.61
597.22	53175.51
597.42	53019.86
597.62	52810.97
597.82	52788.44
598.02	52546.78
598.21	52817.11
598.41	52882.65
598.61	52933.85
598.81	53284.05
599.01	52866.27
599.20	52966.62
599.40	53421.26
599.60	53193.94
599.80	53155.03
600.00	53243.09
600.19	53867.72
600.39	53462.22
600.59	53603.53
600.79	53748.94
600.98	53605.58
601.18	53837.00
601.38	54148.29
601.58	53898.44
601.78	53423.31
601.97	53677.26
602.17	54291.65
602.37	54160.58
602.57	54011.08
602.76	54039.75
602.96	54269.12
603.16	54353.09
603.36	54383.81
603.55	54553.79
603.75	54344.90
603.95	54908.09
604.15	54445.25
604.34	54715.58
604.54	54584.51
604.74	54359.23
604.94	54992.06
605.13	54666.43
605.33	54881.47
605.53	54469.82
605.73	54441.15
605.92	54867.13
606.12	55065.78
606.32	54813.88
606.52	54994.10
606.71	55221.43
606.91	55436.47
607.11	54781.12
607.30	55366.84
607.50	55129.27
607.70	55585.97
607.90	55379.12
608.09	54973.63
608.29	55522.48
608.49	55207.09
608.68	55321.78
608.88	55227.57
609.08	55223.48
609.28	55659.69
609.47	55497.91
609.67	56079.53
609.87	55690.41
610.06	55600.30
610.26	55770.28
610.46	56153.26
610.66	55776.43
610.85	55866.54
611.05	55375.03
611.25	55983.27
611.44	55424.18
611.64	56136.87
611.84	55710.89
612.03	55911.59
612.23	55977.13
612.43	56401.06
612.62	55751.85
612.82	56368.29
613.02	55944.36
613.21	56183.97
613.41	56009.90
613.61	55973.03
613.80	56104.10
614.00	56433.83
614.20	56132.78
614.39	56210.60
614.59	56226.98
614.79	55909.55
614.98	56175.78
615.18	56425.64
615.38	56513.70
615.57	55790.76
615.77	56753.31
615.97	56497.31
616.16	56288.42
616.36	55975.08
616.56	56433.83
616.75	56583.33
616.95	56179.88
617.15	56284.33
617.34	56482.98
617.54	56288.42
617.74	56554.66
617.93	56468.64
618.13	55694.51
618.32	56407.20
618.52	56005.80
618.72	56358.05
618.91	56419.49
619.11	56325.28
619.31	56476.83
619.50	55960.75
619.70	56151.21
619.90	56452.26
620.09	56370.34
620.29	56251.56
620.48	56220.84
620.68	56349.86
620.88	56011.95
621.07	56224.93
621.27	56038.57
621.46	55915.69
621.66	56179.88
621.86	56513.70
622.05	56208.55
622.25	56489.12
622.44	56165.54
622.64	55942.31
622.84	56624.29
623.03	55870.64
623.23	56188.07
623.42	56341.67
623.62	56253.61
623.82	56784.03
624.01	56063.14
624.21	56575.14
624.40	56433.83
624.60	56222.89
624.80	56360.10
624.99	56364.20
625.19	56218.79
625.38	56280.23
625.58	56411.30
625.77	56671.39
625.97	56386.72
626.17	55966.89
626.36	56456.35
626.56	56401.06
626.75	55858.35
626.95	56661.15
627.14	56411.30
627.34	56495.27
627.54	56333.48
627.73	56415.40
627.93	56409.25
628.12	56218.79
628.32	56358.05
628.51	56497.31
628.71	56140.97
628.90	56536.23
629.10	56345.76
629.30	56689.82
629.49	56226.98
629.69	56136.87
629.88	56114.34
630.08	56605.86
630.27	56454.31
630.47	56949.92
630.66	56439.97
630.86	56581.28
631.05	56456.35
631.25	56820.89
631.44	56958.11
631.64	55903.40
631.84	56464.55
632.03	56728.73
632.23	56431.78
632.42	57236.63
632.62	56874.14
632.81	56587.42
633.01	56313.00
633.20	56833.18
633.40	56292.52
633.59	57046.17
633.79	56212.65
633.98	56655.01
634.18	56749.21
634.37	56833.18
634.57	56073.38
634.76	57035.93
634.96	56638.62
635.15	56945.82
635.35	56556.70
635.54	56351.91
635.74	56738.97
635.93	56401.06
636.13	56976.54
636.32	56710.30
636.52	56528.03
636.71	56624.29
636.91	56829.08
637.10	56573.09
637.30	56419.49
637.49	56186.02
637.69	56857.76
637.88	56929.44
638.08	56399.01
638.27	57035.93
638.46	56927.39
638.66	56587.42
638.85	56356.00
639.05	57259.16
639.24	57427.09
639.44	56540.32
639.63	57005.21
639.83	57019.55
640.02	57142.42
640.22	56485.03
640.41	57173.14
640.61	56726.69
640.80	56847.52
640.99	56911.00
641.19	57232.53
641.38	56736.93
641.58	57300.12
641.77	57019.55
641.97	57535.63
642.16	56646.82
642.36	56824.99
642.55	57357.46
642.74	57177.24
642.94	57488.53
643.13	56908.96
643.33	57414.80
643.52	57318.55
643.72	57404.56
643.91	57437.33
644.10	57887.88
644.30	57906.32
644.49	57726.10
644.69	57226.39
644.88	57238.68
645.08	57439.38
645.27	57046.17
645.46	57111.70
645.66	57709.71
645.85	57601.17
646.05	57775.25
646.24	57423.00
646.43	57545.87
646.63	58125.45
646.82	58055.82
647.02	57509.01
647.21	57672.85
647.40	57414.80
647.60	57760.91
647.79	57906.32
647.99	57926.80
648.18	57808.01
648.37	58018.95
648.57	58160.26
648.76	57709.71
648.96	58094.73
649.15	57873.55
649.34	58227.85
649.54	57767.05
649.73	57900.17
649.92	57652.37
650.12	58184.84
650.31	57934.99
650.51	57799.82
650.70	58123.40
650.89	57472.15
651.09	58336.39
651.28	58258.57
651.47	58139.78
651.67	58451.08
651.86	58510.47
652.06	57744.53
652.25	58350.73
652.44	58102.92
652.64	57672.85
652.83	58129.54
653.02	58117.26
653.22	58125.45
653.41	58000.52
653.60	57779.34
653.80	57736.34
653.99	58299.53
654.18	58164.36
654.38	57971.85
654.57	58127.50
654.76	58526.85
654.96	58039.43
655.15	57922.70
655.34	58508.42
655.54	57818.25
655.73	57871.50
655.92	58252.42
656.12	58274.95
656.31	58061.96
656.50	58315.91
656.70	58324.10
656.89	57738.38
657.08	58332.29
657.28	58117.26
657.47	58541.19
657.66	58471.56
657.86	58170.50
658.05	58547.33
658.24	58870.91
658.43	58061.96
658.63	58647.68
658.82	58303.62
659.01	58467.46
659.21	57978.00
659.40	58561.67
659.59	58356.87
659.79	58399.88
659.98	58401.92
660.17	58547.33
660.36	58600.58
660.56	58768.51
660.75	58356.87
660.94	58381.45
661.14	58135.69
661.33	58498.18
661.52	58213.51
661.71	58909.82
661.91	58391.68
662.10	58057.87
662.29	58537.09
662.49	58293.38
662.68	58348.68
662.87	58674.30
663.06	58537.09
663.26	58422.40
663.45	58973.31
663.64	58664.06
663.83	58809.47
664.03	58860.67
664.22	58621.06
664.41	58580.10
664.60	58332.29
664.80	58879.10
664.99	58901.63
665.18	58743.94
665.37	58541.19
665.57	58545.28
665.76	58281.09
665.95	58320.01
666.14	58260.62
666.34	58537.09
666.53	58375.30
666.72	58262.66
666.91	58086.54
667.11	58324.10
667.30	58815.61
667.49	58965.12
667.68	58254.47
667.87	58283.14
668.07	58412.16
668.26	58248.33
668.45	58571.91
668.64	58008.71
668.84	59221.11
669.03	59094.14
669.22	58535.04
669.41	58520.71
669.60	58436.74
669.80	57914.51
669.99	58592.39
670.18	58987.64
670.37	58537.09
670.57	58555.52
670.76	58287.24
670.95	58469.51
671.14	58240.14
671.33	58156.17
671.53	58782.85
671.72	58860.67
671.91	58209.42
672.10	58168.46
672.29	58320.01
672.48	58475.65
672.68	58870.91
672.87	58410.12
673.06	58264.71
673.25	57891.98
673.44	58164.36
673.64	58127.50
673.83	58090.63
674.02	58537.09
674.21	57834.64
674.40	58639.49
674.59	57863.31
674.79	58266.76
674.98	58006.67
675.17	58356.87
675.36	57472.15
675.55	58510.47
675.74	58225.80
675.94	57898.12
676.13	58238.09
676.32	58299.53
676.51	58754.18
676.70	58213.51
676.89	58301.57
677.08	58762.37
677.28	58295.43
677.47	58393.73
677.66	58301.57
677.85	58565.76
678.04	58299.53
678.23	58242.18
678.42	58504.32
678.62	58135.69
678.81	58440.84
679.00	58143.88
679.19	58885.25
679.38	58301.57
679.57	58145.93
679.76	58094.73
679.96	58236.04
680.15	57889.93
680.34	57814.16
680.53	58094.73
680.72	58193.03
680.91	58483.84
681.10	58061.96
681.29	58250.38
681.48	57879.69
681.68	58031.24
681.87	57920.65
682.06	58074.25
682.25	57271.45
682.44	57881.74
682.63	57973.90
682.82	57990.28
683.01	57980.04
683.20	57390.23
683.39	58256.52
683.59	57656.46
683.78	57717.90
683.97	57779.34
684.16	57988.24
684.35	57754.77
684.54	57691.28
684.73	58102.92
684.92	57400.47
685.11	57498.77
685.30	57146.52
685.49	58123.40
685.69	57951.37
685.88	57754.77
686.07	57486.48
686.26	57635.98
686.45	57693.33
686.64	57582.74
686.83	57879.69
687.02	57617.55
687.21	57566.35
687.40	56994.97
687.59	57472.15
687.78	57490.58
687.97	58053.77
688.16	57379.99
688.35	57054.36
688.54	57175.19
688.74	57287.83
688.93	56945.82
689.12	57078.94
689.31	57191.58
689.50	57758.86
689.69	56779.93
689.88	57214.10
690.07	57255.06
690.26	56773.79
690.45	57713.81
690.64	57234.58
690.83	57087.13
691.02	57052.31
691.21	56614.05
691.40	57076.89
691.59	57345.17
691.78	56755.36
691.97	56724.64
692.16	56751.26
692.35	57177.24
692.54	57076.89
692.73	56980.63
692.92	57263.25
693.11	57214.10
693.30	56710.30
693.49	56796.32
693.68	56751.26
693.87	57009.31
694.06	56550.56
694.25	56814.75
694.44	56577.18
694.63	56849.56
694.82	56489.12
695.01	56738.97
695.20	56556.70
695.39	56450.21
695.58	56450.21
695.77	55868.59
695.96	56073.38
696.15	56147.11
696.34	56153.26
696.53	56294.56
696.72	56247.46
696.91	56106.15
697.10	56083.62
697.29	56046.76
697.48	56317.09
697.67	56265.89
697.86	55633.07
698.05	55686.32
698.24	56091.82
698.43	55942.31
698.62	56112.30
698.81	55950.51
699.00	56065.19
699.19	55475.38
699.38	55721.13
699.57	55282.87
699.76	56345.76
699.95	55446.71
700.14	55182.52
700.32	55702.70
700.51	55575.73
700.70	55641.26
700.89	55792.81
701.08	55753.90
701.27	55415.99
701.46	55776.43
701.65	55137.46
701.84	55569.58
702.03	55375.03
702.22	55563.44
702.41	55534.77
702.60	55303.35
702.79	55192.76
702.98	55076.02
703.17	55190.71
703.35	55035.06
703.54	55145.65
703.73	55542.96
703.92	55059.64
704.11	55344.31
704.30	55268.53
704.49	54924.47
704.68	55516.34
704.87	55166.13
705.06	55409.84
705.25	54658.24
705.43	55284.92
705.62	55213.24
705.81	55133.37
706.00	55071.93
706.19	54389.95
706.38	54447.30
706.57	54604.99
706.76	54736.06
706.95	54949.05
707.14	54371.52
707.32	54549.70
707.51	54830.27
707.70	54744.25
707.89	53767.37
708.08	54500.54
708.27	54461.63
708.46	54940.86
708.65	53931.21
708.84	54959.29
709.02	54389.95
709.21	54570.18
709.40	54400.19
709.59	54375.62
709.78	54017.22
709.97	54445.25
710.16	54437.06
710.34	54117.57
710.53	53884.11
710.72	54330.56
710.91	54125.77
711.10	54009.03
711.29	53857.48
711.48	54222.02
711.66	53853.39
711.85	53750.99
712.04	53673.16
712.23	53970.12
712.42	53957.83
712.61	53904.59
712.80	53955.78
712.98	53859.53
713.17	53750.99
713.36	53755.08
713.55	53318.87
713.74	53961.93
713.93	53736.65
714.11	53730.51
714.30	53118.17
714.49	53445.84
714.68	53509.33
714.87	53447.89
715.06	53753.04
715.24	53302.48
715.43	53318.87
715.62	52985.05
715.81	52925.66
716.00	53363.92
716.18	53165.27
716.37	52780.25
716.56	52770.01
716.75	53380.31
716.94	52788.44
717.12	52731.10
717.31	53249.24
717.50	53163.22
717.69	52716.76
717.88	52657.37
718.06	53136.60
718.25	53017.82
718.44	52407.52
718.63	52720.86
718.82	52688.09
719.00	52147.43
719.19	52272.35
719.38	52139.24
719.57	52042.98
719.76	52030.69
719.94	52122.85
720.13	52129.00
720.32	51946.73
720.51	52176.10
720.69	51809.51
720.88	51971.30
721.07	51672.30
721.26	51414.26
721.44	51461.36
721.63	51234.03
721.82	51012.85
722.01	51541.23
722.20	51186.93
722.38	51254.51
722.57	50670.84
722.76	51350.77
722.95	51328.24
723.13	51119.35
723.32	51332.34
723.51	50994.42
723.70	50756.86
723.88	51090.68
724.07	50597.12
724.26	50824.44
724.44	50529.53
724.63	51102.96
724.82	50935.03
725.01	50547.96
725.19	50732.28
725.38	50236.67
725.57	50267.39
725.76	50623.74
725.94	50312.45
726.13	50150.66
726.32	50482.43
726.51	50849.02
726.69	51119.35
726.88	50480.38
727.07	50609.40
727.25	50541.82
727.44	50177.28
727.63	50523.39
727.82	50038.02
728.00	50242.82
728.19	50267.39
728.38	50763.00
728.56	50154.75
728.75	50590.97
728.94	50361.60
729.12	50255.11
729.31	50623.74
729.50	50203.91
729.69	50179.33
729.87	50216.19
730.06	50001.16
730.25	50144.51
730.43	50361.60
730.62	49915.14
730.81	50025.73
730.99	50044.16
731.18	49593.61
731.37	49843.46
731.55	50283.78
731.74	50699.51
731.93	50287.87
732.11	50068.74
732.30	50138.37
732.49	49882.37
732.67	50171.14
732.86	50197.76
733.05	50025.73
733.23	49585.42
733.42	49775.88
733.61	49964.29
733.79	50056.45
733.98	50074.88
734.17	50296.06
734.35	50275.58
734.54	50042.12
734.73	50035.97
734.91	49630.47
735.10	49417.49
735.29	49761.54
735.47	49294.61
735.66	49390.86
735.84	49976.58
736.03	49368.33
736.22	50009.35
736.40	49693.96
736.59	49493.26
736.78	49577.23
736.96	49528.08
737.15	49575.18
737.33	49739.02
737.52	49796.36
737.71	49478.92
737.89	49167.63
738.08	49177.87
738.27	49138.96
738.45	49528.08
738.64	49153.30
738.82	49300.75
739.01	49454.35
739.20	49147.15
739.38	49179.92
739.57	49337.62
739.75	48901.40
739.94	48563.48
740.13	49126.67
740.31	48973.08
740.50	49014.04
740.68	48891.16
740.87	49055.00
741.06	49095.95
741.24	48743.70
741.43	48626.97
741.61	48674.07
741.80	49009.94
741.99	48913.69
742.17	48375.07
742.36	48848.15
742.54	48846.10
742.73	48600.35
742.91	48772.38
743.10	48334.11
743.29	48870.68
743.47	48641.31
743.66	48696.60
743.84	48547.10
744.03	48850.20
744.21	48563.48
744.40	48655.64
744.59	48119.07
744.77	48323.87
744.96	48162.08
745.14	48448.80
745.33	48059.68
745.51	47813.93
745.70	48725.27
745.88	47842.60
746.07	48180.51
746.26	47879.46
746.44	47686.95
746.63	48047.39
746.81	48092.45
747.00	47787.30
747.18	47840.55
747.37	47676.71
747.55	47529.26
747.74	48147.75
747.92	47519.02
748.11	48074.02
748.29	47801.64
748.48	47445.29
748.66	47441.20
748.85	47940.90
749.03	47732.01
749.22	47858.98
749.41	47428.91
749.59	47463.72
749.78	47547.69
749.96	47107.38
750.15	47439.15
750.33	47703.34
750.52	47576.36
750.70	47543.59
750.89	47338.80
751.07	46986.55
751.26	47164.72
751.44	47154.48
751.63	47093.04
751.81	47037.75
752.00	46624.06
752.18	47346.99
752.37	46892.34
752.55	46429.50
752.74	47490.35
752.92	46816.57
753.10	46449.98
753.29	46939.44
753.47	46667.06
753.66	46779.70
753.84	46335.29
754.03	46585.15
754.21	46302.53
754.40	46812.47
754.58	46470.46
754.77	46398.78
754.95	46478.65
755.14	46419.26
755.32	46404.92
755.51	45745.48
755.69	46083.39
755.88	46163.26
756.06	46163.26
756.24	46312.77
756.43	45989.19
756.61	46206.27
756.80	45860.16
756.98	45796.68
757.17	45854.02
757.35	45897.03
757.54	45626.70
757.72	45903.17
757.90	46030.15
758.09	45798.73
758.27	45440.33
758.46	45376.84
758.64	45718.85
758.83	45360.46
759.01	45747.53
759.19	45473.10
759.38	45512.01
759.56	45557.06
759.75	45503.82
759.93	45649.22
760.12	45172.05
760.30	45348.17
760.48	45452.62
760.67	45012.31
760.85	45755.72
761.04	45419.85
761.22	45499.72
761.40	45598.02
761.59	45360.46
761.77	45071.70
761.96	45186.38
762.14	45071.70
762.32	44883.28
762.51	45020.50
762.69	44979.54
762.88	45028.69
763.06	44866.90
763.24	44975.44
763.43	45165.90
763.61	44504.41
763.80	44793.17
763.98	44721.49
764.16	44449.11
764.35	44406.11
764.53	43906.40
764.72	43955.55
764.90	44426.59
765.08	44281.18
765.27	44250.46
765.45	43959.65
765.63	43783.52
765.82	43910.50
766.00	44205.41
766.18	43951.46
766.37	44066.14
766.55	43652.45
766.74	43926.88
766.92	43695.46
767.10	43437.42
767.29	43345.26
767.47	43455.85
767.65	43677.03
767.84	43414.89
768.02	43789.67
768.20	43423.08
768.39	43666.79
768.57	43513.19
768.75	43302.25
768.94	43359.59
769.12	42997.10
769.30	43081.07
769.49	43203.95
769.67	43054.45
769.85	43005.30
770.04	42835.31
770.22	42724.72
770.40	43076.97
770.59	42743.16
770.77	42749.30
770.95	42812.79
771.14	42855.79
771.32	42149.24
771.50	42462.58
771.69	42491.26
771.87	42898.80
772.05	42671.48
772.24	42018.17
772.42	42210.68
772.60	42290.55
772.78	42055.04
772.97	41995.65
773.15	42462.58
773.33	42597.75
773.52	42046.85
773.70	42120.57
773.88	42706.29
774.07	41958.78
774.25	42235.26
774.43	42255.74
774.61	42155.39
774.80	42292.60
774.98	41790.85
775.16	42784.12
775.34	42423.67
775.53	42014.08
775.71	42378.62
775.89	42628.47
776.08	42368.38
776.26	42327.42
776.44	42427.77
776.62	42141.05
776.81	41934.21
776.99	42417.53
777.17	42415.48
777.35	42665.33
777.54	42515.83
777.72	42159.48
777.90	42458.49
778.08	42677.62
778.27	42255.74
778.45	42376.57
778.63	42450.30
778.81	42331.51
779.00	43292.01
779.18	42423.67
779.36	43138.41
779.54	42687.86
779.73	42814.83
779.91	42997.10
780.09	42743.16
780.27	42843.51
780.46	42794.36
780.64	42913.14
780.82	42489.21
781.00	42851.70
781.19	42638.71
781.37	42857.84
781.55	42982.77
781.73	42997.10
781.91	42931.57
782.10	42939.76
782.28	43156.85
782.46	42806.64
782.64	43332.97
782.82	43062.64
783.01	43365.74
783.19	43132.27
783.37	43267.44
783.55	42886.51
783.74	43369.83
783.92	42960.24
784.10	43447.66
784.28	43128.17
784.46	42468.73
784.64	43388.27
784.83	43036.02
785.01	43271.53
785.19	42988.91
785.37	42868.08
785.55	43320.68
785.74	43029.87
785.92	42933.62
786.10	43197.80
786.28	42784.12
786.46	42804.59
786.64	42685.81
786.83	42896.75
787.01	42624.37
787.19	42653.05
787.37	43140.46
787.55	42800.50
787.74	42708.34
787.92	42775.92
788.10	42501.50
788.28	42458.49
788.46	42775.92
788.64	42173.82
788.82	42685.81
789.01	42481.02
789.19	42589.56
789.37	41956.74
789.55	42200.44
789.73	41835.91
789.91	41618.82
790.09	41868.67
790.28	42012.03
790.46	41807.23
790.64	41983.36
790.82	42014.08
791.00	41713.03
791.18	41442.70
791.36	41473.42
791.55	41514.37
791.73	40830.35
791.91	41211.28
792.09	41465.22
792.27	41182.60
792.45	41409.93
792.63	41360.78
792.81	40611.22
793.00	41307.53
793.18	41072.01
793.36	40730.00
793.54	40449.43
793.72	40689.04
793.90	40506.77
794.08	40351.13
794.26	40676.76
794.44	40252.83
794.62	39787.94
794.81	40527.25
794.99	40048.03
795.17	39902.62
795.35	39953.82
795.53	40031.65
795.71	40138.14
795.89	39411.11
796.07	39755.17
796.25	39445.93
796.43	39495.08
796.61	39245.23
796.80	39067.05
796.98	39441.83
797.16	39255.46
797.34	39122.35
797.52	38907.31
797.70	39130.54
797.88	38684.08
798.06	38483.38
798.24	38833.58
798.42	38426.04
798.60	38335.93
798.78	38325.69
798.96	38362.55
799.14	37909.95
799.32	38417.85
799.51	37649.86
799.69	38137.27
799.87	37918.14
800.05	37897.66
800.23	38165.95
800.41	37426.63
800.59	37780.93
800.77	37402.05
800.95	37131.72
801.13	37465.54
801.31	37205.45
801.49	37119.43
801.67	36931.02
801.85	37146.06
802.03	36609.49
802.21	36595.15
802.39	36511.19
802.57	36752.85
802.75	36402.64
802.93	36421.08
803.11	36488.66
803.29	36021.72
803.47	36083.16
803.65	36173.27
803.83	35874.27
804.01	36218.33
804.19	35810.78
804.37	35882.46
804.55	35575.27
804.73	36027.87
804.91	35491.30
805.09	35759.58
805.27	35775.97
805.45	35874.27
805.63	35423.72
805.81	35362.28
805.99	35423.72
806.17	35118.57
806.35	35479.01
806.53	34989.55
806.71	34997.74
806.89	34878.96
807.07	34606.58
807.25	35112.42
807.43	34827.76
807.61	35018.22
807.79	34545.14
807.97	34518.51
808.15	34340.34
808.33	34287.09
808.51	33992.19
808.69	34287.09
808.87	34129.40
809.05	33840.64
809.23	34139.64
809.41	33955.32
809.59	33633.79
809.77	33938.94
809.95	33803.77
810.13	33877.50
810.31	33619.46
810.49	33854.97
810.67	33445.38
810.84	33617.41
811.02	33304.07
811.20	33107.46
811.38	33443.33
811.56	32908.81
811.74	33068.55
811.92	32994.82
812.10	33195.53
812.28	33347.08
812.46	32896.52
812.64	32812.56
812.82	32769.55
813.00	32695.82
813.18	32894.47
813.36	32562.70
813.53	32536.08
813.71	32448.02
813.89	32519.70
814.07	32488.98
814.25	32409.11
814.43	32077.33
814.61	32060.95
814.79	32132.63
814.97	31794.71
815.15	32388.63
815.33	31852.06
815.50	31667.74
815.68	31923.74
815.86	31710.75
816.04	32036.38
816.22	31397.41
816.40	31436.32
816.58	31432.22
816.76	31444.51
816.94	31622.69
817.11	31608.35
817.29	31295.01
817.47	31383.07
817.65	31301.15
817.83	31211.04
818.01	30834.22
818.19	31032.87
818.37	31073.83
818.54	30866.98
818.72	30473.78
818.90	30830.12
819.08	30731.82
819.26	30846.51
819.44	30617.13
819.62	30729.77
819.80	30846.51
819.97	30719.53
820.15	30588.46
820.33	30744.11
820.51	30707.24
820.69	30043.70
820.87	30596.65
821.05	30610.99
821.22	30330.42
821.40	30236.21
821.58	30389.81
821.76	30062.13
821.94	29918.78
822.12	30103.09
822.29	30201.40
822.47	29611.58
822.65	30150.20
822.83	29617.72
823.01	29881.91
823.19	29589.05
823.36	29556.28
823.54	29808.19
823.72	29840.95
823.90	29572.67
824.08	29138.50
824.25	29333.06
824.43	28911.17
824.61	29337.15
824.79	29429.31
824.97	29054.53
825.15	29298.24
825.32	29197.89
825.50	29036.10
825.68	29228.61
825.86	29187.65
826.04	28948.04
826.21	29068.87
826.39	28970.57
826.57	28747.34
826.75	28898.89
826.93	28354.13
827.10	28474.96
827.28	28685.90
827.46	28950.09
827.64	28798.54
827.81	28497.49
827.99	28718.67
828.17	28460.62
828.35	28233.30
828.53	28601.93
828.70	28667.47
828.88	28329.55
829.06	28423.76
829.24	28520.01
829.41	28163.67
829.59	28380.75
829.77	27940.44
829.95	28423.76
830.12	28239.44
830.30	28091.99
830.48	28354.13
830.66	27864.66
830.84	28180.05
831.01	27483.74
831.19	27997.78
831.37	27999.83
831.55	27760.22
831.72	27530.84
831.90	27797.08
832.08	27881.05
832.25	27960.92
832.43	27661.91
832.61	27307.62
832.79	27500.12
832.96	27491.93
833.14	27715.16
833.32	27659.87
833.50	27633.24
833.67	27377.25
833.85	27223.65
834.03	26857.06
834.20	27381.34
834.38	27086.43
834.56	27516.51
834.74	27307.62
834.91	26875.49
835.09	27111.01
835.27	26738.28
835.44	27111.01
835.62	26977.89
835.80	26902.12
835.98	27006.56
836.15	26824.29
836.33	26742.38
836.51	27068.00
836.68	26674.79
836.86	26515.05
837.04	26740.33
837.21	26445.42
837.39	26730.09
837.57	26539.63
837.75	26498.67
837.92	26310.25
838.10	26193.52
838.28	26162.80
838.45	26457.71
838.63	25902.71
838.81	26269.30
838.98	26179.18
839.16	26117.75
839.34	26019.44
839.51	26011.25
839.69	25976.44
839.87	26142.32
840.04	26338.93
840.22	26357.36
840.40	25779.83
840.57	25683.58
840.75	26140.27
840.93	25912.95
841.10	25810.55
841.28	26095.22
841.46	25532.03
841.63	25734.78
841.81	25669.24
841.98	25720.44
842.16	25931.38
842.34	25554.55
842.51	25280.13
842.69	25837.17
842.87	25636.47
843.04	25591.42
843.22	25212.54
843.40	25640.57
843.57	25560.70
843.75	25409.15
843.92	25450.11
844.10	25441.92
844.28	25347.71
844.45	25370.24
844.63	25067.14
844.81	25159.30
844.98	25249.41
845.16	25253.50
845.33	25343.61
845.51	25134.72
845.69	24751.75
845.86	24600.20
846.04	24979.07
846.21	24538.76
846.39	24682.12
846.57	24602.25
846.74	24696.46
846.92	24837.76
847.09	24733.32
847.27	24628.87
847.45	24710.79
847.62	24819.33
847.80	24673.93
847.97	24835.72
848.15	24354.44
848.32	24245.90
848.50	24487.56
848.68	23959.19
848.85	24168.08
849.03	24084.11
849.20	24596.10
849.38	24096.40
849.56	24080.02
849.73	24508.04
849.91	23926.42
850.08	24239.76
850.26	23975.57
850.43	23922.32
850.61	24059.54
850.78	23795.35
850.96	24008.34
851.14	23858.84
851.31	24104.59
851.49	23879.32
851.66	24172.18
851.84	23768.73
852.01	23740.05
852.19	23834.26
852.36	24024.72
852.54	23840.40
852.71	23557.78
852.89	23461.53
853.07	23322.27
853.24	23688.85
853.42	23529.11
853.59	23654.04
853.77	23457.43
853.94	23543.45
854.12	23613.08
854.29	23465.63
854.47	23502.49
854.64	23160.48
854.82	23424.67
854.99	23193.25
855.17	23242.40
855.34	23127.71
855.52	23127.71
855.69	23512.73
855.87	23174.81
856.04	22881.95
856.22	23010.98
856.39	22773.41
856.57	23129.76
856.74	22894.24
856.92	22963.87
857.09	22912.67
857.27	23162.53
857.44	23099.04
857.62	22771.36
857.79	23031.46
857.97	22697.64
858.14	22619.81
858.32	22761.12
858.49	22511.27
858.67	22648.49
858.84	22470.31
859.02	22615.72
859.19	22367.91
859.37	22421.16
859.54	22408.87
859.72	22666.92
859.89	22570.66
860.06	22654.63
860.24	22474.41
860.41	22417.07
860.59	22519.46
860.76	22259.37
860.94	22085.30
861.11	22378.15
861.29	22003.38
861.46	22191.79
861.64	22091.44
861.81	22353.58
861.98	22210.22
862.16	22222.51
862.33	21980.85
862.51	22025.90
862.68	21862.07
862.86	21745.33
863.03	21882.55
863.21	21970.61
863.38	21872.31
863.55	21749.43
863.73	22066.86
863.90	21786.29
864.08	21620.41
864.25	21509.82
864.43	21610.17
864.60	21802.68
864.77	21460.66
864.95	21593.78
865.12	21364.41
865.30	21731.00
865.47	21765.81
865.64	21399.23
865.82	21642.93
865.99	21483.19
866.17	21450.42
866.34	20958.91
866.51	21038.78
866.69	21384.89
866.86	21454.52
867.04	21237.44
867.21	21176.00
867.38	20977.34
867.56	20901.57
867.73	21026.50
867.91	20852.42
868.08	21030.59
868.25	20833.99
868.43	20934.34
868.60	20874.95
868.78	20842.18
868.95	21059.26
869.12	20784.83
869.30	20819.65
869.47	20930.24
869.64	20299.47
869.82	20653.76
869.99	20473.54
870.16	20555.46
870.34	20614.85
870.51	20604.61
870.69	20508.36
870.86	20373.19
871.03	20246.22
871.21	20399.82
871.38	20567.75
871.55	20295.37
871.73	20149.96
871.90	20031.18
872.07	19947.22
872.25	19783.38
872.42	19961.55
872.59	19793.62
872.77	19979.98
872.94	20041.42
873.11	19723.99
873.29	19736.27
873.46	19824.34
873.63	19855.06
873.81	19644.12
873.98	19601.11
874.15	19459.80
874.33	19394.26
874.50	19365.59
874.67	19977.94
874.85	19470.04
875.02	19404.50
875.19	19506.90
875.37	19431.13
875.54	19287.77
875.71	19381.98
875.88	19162.84
876.06	19437.27
876.23	19218.14
876.40	19105.50
876.58	19347.16
876.75	19111.64
876.92	19183.32
877.10	18771.68
877.27	19080.92
877.44	19080.92
877.61	18945.76
877.79	18894.56
877.96	18771.68
878.13	18728.67
878.31	18530.02
878.48	18456.29
878.65	18912.99
878.82	18403.05
879.00	18568.93
879.17	18671.33
879.34	18525.93
879.51	18527.97
879.69	18274.03
879.86	18280.17
880.03	18218.73
880.21	18271.98
880.38	18063.08
880.55	18321.13
880.72	18155.24
880.90	18142.96
881.07	18138.86
881.24	18550.50
881.41	18441.96
881.59	18167.53
881.76	18169.58
881.93	17944.30
882.10	17772.27
882.28	17891.06
882.45	17981.17
882.62	18013.93
882.79	17944.30
882.96	17571.57
883.14	17876.72
883.31	17819.38
883.48	17940.21
883.65	17688.31
883.83	17721.07
884.00	17843.95
884.17	17649.39
884.34	17829.62
884.51	17710.83
884.69	17534.71
884.86	17403.64
885.03	17602.29
885.20	17512.18
885.38	17526.52
885.55	17456.89
885.72	17516.28
885.89	17243.90
886.06	17514.23
886.24	17528.56
886.41	17309.43
886.58	17571.57
886.75	17561.33
886.92	17348.34
887.10	17463.03
887.27	17239.80
887.44	17211.13
887.61	17401.59
887.78	17178.36
887.95	17209.08
888.13	17092.35
888.30	16807.68
888.47	17080.06
888.64	17176.31
888.81	17217.27
888.99	16942.85
889.16	16926.46
889.33	16903.93
889.50	16895.74
889.67	16883.45
889.84	16748.29
890.01	16754.43
890.19	16875.26
890.36	16750.34
890.53	16723.71
890.70	16441.09
890.87	16475.91
891.04	16469.76
891.22	16688.90
891.39	16557.83
891.56	16471.81
891.73	16527.11
891.90	16387.85
892.07	16426.76
892.24	16426.76
892.42	16119.56
892.59	16211.72
892.76	16197.38
892.93	16301.83
893.10	16113.42
893.27	16379.65
893.44	15890.19
893.61	16269.06
893.79	16248.58
893.96	16297.74
894.13	16101.13
894.30	16166.67
894.47	16248.58
894.64	16250.63
894.81	16174.86
894.98	16320.26
895.15	16154.38
895.33	15953.68
895.50	16295.69
895.67	16172.81
895.84	15951.63
896.01	15777.55
896.18	16039.69
896.35	16129.80
896.52	15789.84
896.69	16064.27
896.86	15869.71
897.04	15890.19
897.21	15836.94
897.38	15707.92
897.55	16004.88
897.72	16140.04
897.89	16291.59
898.06	15877.90
898.23	15968.01
898.40	15863.57
898.57	15947.53
898.74	15742.74
898.91	15822.61
899.08	16037.64
899.26	15746.83
899.43	15990.54
899.60	16045.84
899.77	16058.12
899.94	15707.92
900.11	15523.60
900.28	15736.59
900.45	15734.54
900.62	15685.39
900.79	16043.79
900.96	15494.93
901.13	15722.26
901.30	15759.12
901.47	15623.95
901.64	15716.11
901.81	15789.84
901.98	15685.39
902.15	15814.41
902.32	15722.26
902.49	15671.06
902.66	15763.22
902.83	15732.50
903.01	15814.41
903.18	15476.50
903.35	15808.27
903.52	15740.69
903.69	16070.41
903.86	16049.93
904.03	15890.19
904.20	15961.87
904.37	16066.31
904.54	15652.63
904.71	15712.02
904.88	15752.98
905.05	15572.75
905.22	15884.05
905.39	15644.43
905.56	15582.99
905.73	15783.70
905.90	15709.97
906.07	15736.59
906.24	15685.39
906.41	15705.87
906.58	15664.91
906.75	15769.36
906.92	15660.82
907.09	15617.81
907.26	15748.88
907.43	15546.13
907.60	15613.71
907.77	15619.86
907.93	15712.02
908.10	15634.19
908.27	15673.10
908.44	15431.44
908.61	15568.66
908.78	15599.38
908.95	15599.38
909.12	15601.43
909.29	15685.39
909.46	15429.40
909.63	15476.50
909.80	15619.86
909.97	15341.33
910.14	15423.25
910.31	15484.69
910.48	15597.33
910.65	15488.79
910.82	15566.61
910.99	15329.05
911.16	15415.06
911.33	15320.85
911.50	15290.13
911.66	15292.18
911.83	15195.93
912.00	15367.96
912.17	14894.88
912.34	15148.82
912.51	15372.05
912.68	15048.47
912.85	15159.06
913.02	15249.18
913.19	14853.92
913.36	15245.08
913.53	15005.47
913.70	15054.62
913.86	15224.60
914.03	14966.56
914.20	14751.52
914.37	15068.95
914.54	14722.85
914.71	14866.21
914.88	14825.25
915.05	14575.39
915.22	14673.70
915.39	14685.98
915.55	14780.19
915.72	14722.85
915.89	14616.35
916.06	14618.40
916.23	14688.03
916.40	14544.67
916.57	14548.77
916.74	14458.66
916.91	14638.88
917.07	14352.16
917.24	14182.18
917.41	14315.30
917.58	14378.79
917.75	14415.65
917.92	14155.56
918.09	14366.50
918.26	14036.78
918.42	13958.96
918.59	14184.23
918.76	14036.78
918.93	14077.74
919.10	13872.94
919.27	13764.40
919.44	13999.91
919.60	13709.10
919.77	13717.29
919.94	13868.84
920.11	13797.17
920.28	13895.47
920.45	13518.64
920.61	13623.09
920.78	13369.14
920.95	13485.87
921.12	13582.13
921.29	13399.86
921.46	13242.17
921.62	13080.38
921.79	13264.69
921.96	13338.42
922.13	13061.94
922.30	13061.94
922.47	13072.18
922.63	13150.01
922.80	13133.62
922.97	12707.65
923.14	12805.95
923.31	12916.54
923.47	12711.74
923.64	12844.86
923.81	12848.96
923.98	12771.13
924.15	12560.19
924.32	12767.04
924.48	12848.96
924.65	12545.86
924.82	12347.20
924.99	12279.62
925.15	12402.50
925.32	12097.35
925.49	12209.99
925.66	12250.95
925.83	11956.04
925.99	12093.26
926.16	12117.83
926.33	12132.17
926.50	11951.95
926.67	12019.53
926.83	11888.46
927.00	11792.20
927.17	11702.09
927.34	11872.07
927.50	11773.77
927.67	11755.34
927.84	11523.92
928.01	11667.28
928.17	11564.88
928.34	11435.86
928.51	11722.57
928.68	11493.20
928.84	11458.39
929.01	11065.18
929.18	11208.53
929.35	11341.65
929.51	11226.96
929.68	11157.33
929.85	11020.12
930.02	11022.17
930.18	11032.41
930.35	10958.68
930.52	10989.40
930.69	10973.02
930.85	10854.23
931.02	10698.59
931.19	10631.01
931.36	10661.73
931.52	10684.25
931.69	10651.49
931.86	10753.88
932.02	10602.33
932.19	10383.20
932.36	10620.77
932.53	10506.08
932.69	10289.00
932.86	10358.63
933.03	10022.76
933.19	10045.29
933.36	10055.53
933.53	9946.98
933.70	9977.70
933.86	10342.24
934.03	9969.51
934.20	9756.52
934.36	9887.59
934.53	9793.39
934.70	9555.82
934.86	9633.64
935.03	9447.28
935.20	9222.00
935.36	9332.59
935.53	9330.55
935.70	9203.57
935.86	9346.93
936.03	9092.98
936.20	9049.97
936.36	8949.62
936.53	8986.49
936.70	8705.92
936.86	8859.51
937.03	8699.77
937.20	8415.10
937.36	8484.73
937.53	8363.90
937.70	8251.27
937.86	8036.23
938.03	8144.77
938.20	8144.77
938.36	8040.33
938.53	8081.28
938.70	7759.75
938.86	7882.63
939.03	7597.96
939.20	7520.14
939.36	7473.04
939.53	7409.55
939.70	7718.79
939.86	7106.45
940.03	7143.32
940.19	7014.29
940.36	7014.29
940.53	7010.20
940.69	6850.46
940.86	6850.46
941.03	6817.69
941.19	6547.36
941.36	6678.43
941.52	6551.45
941.69	6422.43
941.86	6344.61
942.02	6311.84
942.19	6367.13
942.35	6283.17
942.52	6293.41
942.69	6125.47
942.85	6037.41
943.02	6143.91
943.18	6053.80
943.35	6070.18
943.52	5982.12
943.68	5851.05
943.85	5908.39
944.01	5775.27
944.18	5799.85
944.35	5844.90
944.51	5629.87
944.68	5562.28
944.84	5644.20
945.01	5697.45
945.17	5582.76
945.34	5681.07
945.51	5670.83
945.67	5480.36
945.84	5545.90
946.00	5449.64
946.17	5617.58
946.33	5367.73
946.50	5586.86
946.67	5367.73
946.83	5371.82
947.00	5486.51
947.16	5410.73
947.33	5267.38
947.49	5459.88
947.66	5390.25
947.82	5482.41
947.99	5375.92
948.16	5558.19
948.32	5275.57
948.49	5316.53
948.65	5535.66
948.82	5521.32
948.98	5384.11
949.15	5228.46
949.31	5480.36
949.48	5386.16
949.64	5390.25
949.81	5343.15
949.97	5617.58
950.14	5427.12
950.30	5482.41
950.47	5476.27
950.63	5554.09
950.80	5525.42
950.96	5513.13
951.13	5375.92
951.30	5568.43
951.46	5461.93
951.63	5537.71
951.79	5627.82
951.96	5484.46
952.12	5463.98
952.29	5416.88
952.45	5361.58
952.62	5679.02
952.78	5533.61
952.94	5418.93
953.11	5484.46
953.27	5451.69
953.44	5713.83
953.60	5644.20
953.77	5699.50
953.93	5504.94
954.10	5537.71
954.26	5670.83
954.43	5443.50
954.59	5697.45
954.76	5738.41
954.92	5605.29
955.09	5685.16
955.25	5474.22
955.42	5576.62
955.58	5711.78
955.75	5574.57
955.91	5488.56
956.07	5633.96
956.24	5545.90
956.40	5654.44
956.57	5867.43
956.73	5603.24
956.90	5701.54
957.06	5662.63
957.23	5668.78
957.39	5595.05
957.56	5636.01
957.72	5517.23
957.88	5611.43
958.05	5728.17
958.21	5652.39
958.38	5574.57
958.54	5662.63
958.71	5656.49
958.87	5670.83
959.03	5758.89
959.20	5855.14
959.36	5478.32
959.53	5746.60
959.69	5539.76
959.85	5705.64
960.02	5523.37
960.18	5595.05
960.35	5709.74
960.51	5599.15
960.68	5597.10
960.84	5687.21
961.00	5638.06
961.17	5550.00
961.33	5687.21
961.50	5509.04
961.66	5509.04
961.82	5666.73
961.99	5599.15
962.15	5619.63
962.31	5527.47
962.48	5664.68
962.64	5783.46
962.81	5425.07
962.97	5660.59
963.13	5533.61
963.30	5459.88
963.46	5496.75
963.62	5457.84
963.79	5572.52
963.95	5439.40
964.12	5593.00
964.28	5674.92
964.44	5513.13
964.61	5449.64
964.77	5441.45
964.93	5593.00
965.10	5412.78
965.26	5527.47
965.42	5466.03
965.59	5519.28
965.75	5459.88
965.92	5484.46
966.08	5433.26
966.24	5437.36
966.41	5273.52
966.57	5515.18
966.73	5517.23
966.90	5558.19
967.06	5463.98
967.22	5369.77
967.39	5390.25
967.55	5455.79
967.71	5363.63
967.88	5478.32
968.04	5443.50
968.20	5384.11
968.37	5246.90
968.53	5339.05
968.69	5326.77
968.85	5459.88
969.02	5367.73
969.18	5357.49
969.34	5160.88
969.51	5328.81
969.67	5418.93
969.83	5230.51
970.00	5361.58
970.16	5316.53
970.32	5189.55
970.48	5392.30
970.65	5191.60
970.81	5160.88
970.97	5267.38
971.14	5191.60
971.30	5324.72
971.46	5070.77
971.63	5093.30
971.79	5220.27
971.95	5076.91
972.11	5042.10
972.28	5109.68
972.44	5216.18
972.60	4943.80
972.76	5095.35
972.93	5025.72
973.09	5050.29
973.25	5189.55
973.42	4935.60
973.58	5101.49
973.74	5015.48
973.90	5109.68
974.07	5042.10
974.23	5128.11
974.39	5085.11
974.55	4980.66
974.72	4900.79
974.88	4804.53
975.04	4921.27
975.20	4978.61
975.37	4995.00
975.53	4960.18
975.69	5046.20
975.85	5050.29
976.01	4898.74
976.18	4882.36
976.34	4833.21
976.50	4976.56
976.66	4902.84
976.83	4786.10
976.99	4741.05
977.15	4900.79
977.31	4698.04
977.47	4779.96
977.64	4808.63
977.80	4714.42
977.96	4767.67
978.12	4790.20
978.29	4663.22
978.45	4736.95
978.61	4730.81
978.77	4702.14
978.93	4677.56
979.10	4769.72
979.26	4640.70
979.42	4552.63
979.58	4562.87
979.74	4669.37
979.91	4575.16
980.07	4546.49
980.23	4526.01
980.39	4616.12
980.55	4747.19
980.71	4460.48
980.88	4540.35
981.04	4452.28
981.20	4546.49
981.36	4521.92
981.52	4579.26
981.68	4462.52
981.85	4534.20
982.01	4417.47
982.17	4333.50
982.33	4448.19
982.49	4472.76
982.65	4368.32
982.82	4399.04
982.98	4423.61
983.14	4382.65
983.30	4431.80
983.46	4425.66
983.62	4390.84
983.79	4405.18
983.95	4243.39
984.11	4280.25
984.27	4292.54
984.43	4310.97
984.59	4347.84
984.75	4425.66
984.91	4278.21
985.08	4317.12
985.24	4300.73
985.40	4216.77
985.56	4276.16
985.72	4313.02
985.88	4157.38
986.04	4083.65
986.20	4132.80
986.37	4235.20
986.53	4100.03
986.69	4106.18
986.85	4038.59
987.01	4210.62
987.17	4102.08
987.33	4100.03
987.49	4046.79
987.65	3993.54
987.82	4011.97
987.98	4011.97
988.14	4067.27
988.30	4198.34
988.46	4065.22
988.62	4050.88
988.78	4005.83
988.94	4081.60
989.10	4061.12
989.26	3989.44
989.42	3909.57
989.59	3911.62
989.75	3913.67
989.91	3874.76
990.07	3825.61
990.23	3837.89
990.39	3893.19
990.55	3966.92
990.71	3841.99
990.87	3880.90
991.03	3901.38
991.19	3837.89
991.35	3876.80
991.51	3872.71
991.67	3915.72
991.83	3831.75
992.00	3839.94
992.16	3776.45
992.32	3813.32
992.48	3786.69
992.64	3612.62
992.80	3739.59
992.96	3885.00
993.12	3745.73
993.28	3782.60
993.44	3725.26
993.60	3704.78
993.76	3815.37
993.92	3745.73
994.08	3733.45
994.24	3655.62
994.40	3612.62
994.56	3715.02
994.72	3569.61
994.88	3635.14
995.04	3563.47
995.20	3518.41
995.36	3602.38
995.52	3620.81
995.68	3614.66
995.84	3565.51
996.00	3794.89
996.16	3616.71
996.32	3508.17
996.48	3606.47
996.64	3639.24
996.80	3502.03
996.96	3551.18
997.12	3526.60
997.28	3495.88
997.44	3434.44
997.60	3512.27
997.76	3502.03
997.92	3534.79
998.08	3493.83
998.24	3375.05
998.40	3502.03
998.56	3518.41
998.72	3512.27
998.88	3286.99
999.04	3481.55
999.20	3448.78
999.36	3428.30
999.52	3387.34
999.68	3370.96
999.84	3373.00
1000.00	3454.92
1000.16	3432.40
1000.32	3334.09
1000.48	3440.59
1000.64	3188.69
1000.80	3252.17
1000.95	3135.44
1001.11	3346.38
1001.27	3205.07
1001.43	3383.24
1001.59	3176.40
1001.75	3215.31
1001.91	3262.41
1002.07	3168.21
1002.23	3215.31
1002.39	3209.17
1002.55	3190.74
1002.71	3135.44
1002.87	3147.73
1003.03	3110.86
1003.19	3184.59
1003.34	3196.88
1003.50	3174.35
1003.66	3203.02
1003.82	3223.50
1003.98	3043.28
1004.14	3129.30
1004.30	3141.58
1004.46	3053.52
1004.62	3082.19
1004.78	3000.27
1004.94	3100.62
1005.09	3102.67
1005.25	2990.03
1005.41	3008.47
1005.57	3053.52
1005.73	2996.18
1005.89	2961.36
1006.05	3037.14
1006.21	3088.34
1006.37	2926.55
1006.52	2930.64
1006.68	2979.79
1006.84	2969.55
1007.00	2875.35
1007.16	2977.75
1007.32	2961.36
1007.48	2987.99
1007.64	2944.98
1007.79	2953.17
1007.95	2916.31
1008.11	2981.84
1008.27	3010.51
1008.43	2940.88
1008.59	2832.34
1008.75	3010.51
1008.91	2875.35
1009.06	2777.05
1009.22	2842.58
1009.38	2834.39
1009.54	2775.00
1009.70	2904.02
1009.86	2899.92
1010.01	2885.59
1010.17	2818.00
1010.33	2844.63
1010.49	2793.43
1010.65	2914.26
1010.81	2705.37
1010.96	2783.19
1011.12	2762.71
1011.28	2656.22
1011.44	2750.42
1011.60	2713.56
1011.76	2709.46
1011.91	2672.60
1012.07	2752.47
1012.23	2645.98
1012.39	2674.65
1012.55	2756.57
1012.71	2664.41
1012.86	2654.17
1013.02	2723.80
1013.18	2756.57
1013.34	2658.26
1013.50	2641.88
1013.65	2756.57
1013.81	2609.11
1013.97	2637.78
1014.13	2643.93
1014.29	2725.85
1014.44	2686.94
1014.60	2627.54
1014.76	2629.59
1014.92	2627.54
1015.07	2678.74
1015.23	2592.73
1015.39	2523.10
1015.55	2500.57
1015.71	2562.01
1015.86	2553.82
1016.02	2523.10
1016.18	2441.18
1016.34	2621.40
1016.49	2600.92
1016.65	2605.02
1016.81	2490.33
1016.97	2551.77
1017.12	2574.30
1017.28	2564.06
1017.44	2490.33
1017.60	2480.09
1017.75	2531.29
1017.91	2527.19
1018.07	2486.23
1018.23	2510.81
1018.38	2441.18
1018.54	2469.85
1018.70	2482.14
1018.86	2432.99
1019.01	2506.71
1019.17	2471.90
1019.33	2568.15
1019.49	2377.69
1019.64	2416.60
1019.80	2531.29
1019.96	2385.88
1020.12	2402.27
1020.27	2297.82
1020.43	2432.99
1020.59	2504.67
1020.74	2373.60
1020.90	2496.47
1021.06	2299.87
1021.22	2353.12
1021.37	2369.50
1021.53	2316.25
1021.69	2373.60
1021.84	2293.72
1022.00	2361.31
1022.16	2326.49
1022.31	2371.55
1022.47	2346.97
1022.63	2404.32
1022.79	2260.96
1022.94	2277.34
1023.10	2334.68
1023.26	2312.16
1023.41	2242.53
1023.57	2183.13
1023.73	2301.92
1023.88	2252.77
1024.04	2279.39
1024.20	2224.09
1024.35	2289.63
1024.51	2273.25
1024.67	2248.67
1024.82	2344.92
1024.98	2131.94
1025.14	2334.68
1025.29	2238.43
1025.45	2355.16
1025.61	2140.13
1025.76	2232.29
1025.92	2201.57
1026.08	2207.71
1026.23	2314.20
1026.39	2285.53
1026.55	2277.34
1026.70	2168.80
1026.86	2150.37
1027.02	2234.33
1027.17	2250.72
1027.33	2207.71
1027.48	2131.94
1027.64	2199.52
1027.80	2166.75
1027.95	2189.28
1028.11	2127.84
1028.27	2224.09
1028.42	2160.61
1028.58	2076.64
1028.73	2170.85
1028.89	2068.45
1029.05	2166.75
1029.20	2222.05
>>>>>End Processed Spectral Data<<<<<
