SpectraSuite Data File
++++++++++++++++++++++++++++++++++++
Date: Fri Jun 02 14:47:54 CEST 2017
User: INFO_000
Dark Spectrum Present: No
Reference Spectrum Present: No
Number of Sampled Component Spectra: 1
Spectrometers: USB4H00879
Integration Time (usec): 80000 (USB4H00879)
Spectra Averaged: 1 (USB4H00879)
Boxcar Smoothing: 0 (USB4H00879)
Correct for Electrical Dark: No (USB4H00879)
Strobe/Lamp Enabled: No (USB4H00879)
Correct for Detector Non-linearity: No (USB4H00879)
Correct for Stray Light: No (USB4H00879)
Number of Pixels in Processed Spectrum: 3648
>>>>>Begin Processed Spectral Data<<<<<
345.13	1273.84
345.34	1273.84
345.56	1273.84
345.78	1333.23
345.99	1279.98
346.21	1728.49
346.42	1677.29
346.64	1589.22
346.86	1757.16
347.07	1667.05
347.29	1712.10
347.50	1560.55
347.72	1642.47
347.94	1705.96
348.15	1626.09
348.37	1640.42
348.59	1724.39
348.80	1619.94
349.02	1755.11
349.23	1859.56
349.45	1794.02
349.67	1865.70
349.88	1775.59
350.10	1925.09
350.31	1806.31
350.53	1794.02
350.75	1976.29
350.96	1724.39
351.18	1892.32
351.39	1863.65
351.61	1775.59
351.82	1959.91
352.04	1853.41
352.26	1769.44
352.47	1853.41
352.69	1943.52
352.90	1773.54
353.12	1794.02
353.34	1798.12
353.55	1896.42
353.77	1857.51
353.98	1791.97
354.20	1855.46
354.41	1871.84
354.63	1892.32
354.85	2035.68
355.06	1855.46
355.28	1755.11
355.49	1892.32
355.71	1880.04
355.92	1892.32
356.14	1894.37
356.35	1869.80
356.57	1814.50
356.79	1875.94
357.00	1812.45
357.22	1953.76
357.43	1775.59
357.65	1943.52
357.86	1779.68
358.08	1927.14
358.29	1875.94
358.51	1947.62
358.72	1980.39
358.94	1980.39
359.16	1957.86
359.37	1906.66
359.59	1959.91
359.80	1990.63
360.02	1931.23
360.23	1933.28
360.45	2011.11
360.66	1947.62
360.88	1855.46
361.09	1890.28
361.31	1996.77
361.52	1972.19
361.74	2047.97
361.95	2060.26
362.17	1955.81
362.38	2029.54
362.60	2033.63
362.81	1994.72
363.03	1877.99
363.24	2004.96
363.46	2084.83
363.67	2050.02
363.89	1929.19
364.10	2047.97
364.32	2007.01
364.53	1966.05
364.75	1820.64
364.96	2050.02
365.18	2043.87
365.39	1976.29
365.61	1988.58
365.82	2136.03
366.04	1943.52
366.25	1931.23
366.47	2093.02
366.68	2070.50
366.90	1984.48
367.11	2025.44
367.33	2033.63
367.54	2107.36
367.76	1974.24
367.97	2076.64
368.19	1947.62
368.40	2142.18
368.62	1941.47
368.83	1957.86
369.05	2080.74
369.26	1968.10
369.48	2004.96
369.69	1961.95
369.91	2148.32
370.12	2047.97
370.33	2158.56
370.55	1966.05
370.76	2004.96
370.98	2113.50
371.19	1966.05
371.41	2019.30
371.62	2113.50
371.84	2099.17
372.05	2207.71
372.27	1980.39
372.48	2090.98
372.69	2056.16
372.91	2162.66
373.12	2166.75
373.34	2093.02
373.55	2158.56
373.77	2183.13
373.98	2117.60
374.20	2131.94
374.41	2234.33
374.62	2127.84
374.84	2174.94
375.05	2207.71
375.27	2164.70
375.48	2222.05
375.70	2181.09
375.91	2197.47
376.12	2289.63
376.34	2176.99
376.55	2154.46
376.77	2140.13
376.98	2131.94
377.19	2172.89
377.41	2172.89
377.62	2299.87
377.84	2209.76
378.05	2439.13
378.27	2166.75
378.48	2271.20
378.69	2334.68
378.91	2328.54
379.12	2211.81
379.34	2207.71
379.55	2322.40
379.76	2271.20
379.98	2203.61
380.19	2244.57
380.41	2220.00
380.62	2346.97
380.83	2242.53
381.05	2240.48
381.26	2351.07
381.47	2256.86
381.69	2334.68
381.90	2361.31
382.12	2318.30
382.33	2236.38
382.54	2381.79
382.76	2256.86
382.97	2324.44
383.19	2269.15
383.40	2363.36
383.61	2283.49
383.83	2252.77
384.04	2310.11
384.25	2340.83
384.47	2402.27
384.68	2330.59
384.89	2248.67
385.11	2326.49
385.32	2314.20
385.54	2267.10
385.75	2353.12
385.96	2389.98
386.18	2420.70
386.39	2387.93
386.60	2353.12
386.82	2473.95
387.03	2455.51
387.24	2516.95
387.46	2461.66
387.67	2353.12
387.88	2531.29
388.10	2469.85
388.31	2475.99
388.52	2668.50
388.74	2502.62
388.95	2496.47
389.16	2562.01
389.38	2494.43
389.59	2580.44
389.80	2641.88
390.02	2588.63
390.23	2623.45
390.44	2504.67
390.66	2523.10
390.87	2506.71
391.08	2648.02
391.30	2715.61
391.51	2488.28
391.72	2721.75
391.94	2541.53
392.15	2676.70
392.36	2611.16
392.58	2576.34
392.79	2731.99
393.00	2656.22
393.22	2715.61
393.43	2711.51
393.64	2840.53
393.85	2865.11
394.07	2658.26
394.28	2652.12
394.49	2709.46
394.71	2846.68
394.92	2865.11
395.13	2695.13
395.35	2768.85
395.56	2699.22
395.77	2787.29
395.98	2748.37
396.20	2918.36
396.41	2869.20
396.62	2869.20
396.84	2867.16
397.05	2803.67
397.26	2942.93
397.47	2895.83
397.69	2863.06
397.90	2992.08
398.11	2936.79
398.32	2844.63
398.54	2756.57
398.75	2969.55
398.96	2957.27
399.18	3100.62
399.39	2973.65
399.60	3067.86
399.81	2809.81
400.03	2959.31
400.24	3274.70
400.45	2885.59
400.66	3045.33
400.88	2920.40
401.09	3233.74
401.30	3043.28
401.51	3213.26
401.73	3157.97
401.94	3129.30
402.15	3168.21
402.36	3162.06
402.58	3131.34
402.79	3203.02
403.00	3188.69
403.21	3217.36
403.43	3172.30
403.64	3196.88
403.85	3084.24
404.06	3289.04
404.27	3157.97
404.49	3172.30
404.70	3153.87
404.91	3268.56
405.12	3182.54
405.34	3121.10
405.55	3409.87
405.76	3178.45
405.97	3246.03
406.19	3305.42
406.40	3207.12
406.61	3342.28
406.82	3330.00
407.03	3344.33
407.25	3262.41
407.46	3379.15
407.67	3444.68
407.88	3286.99
408.09	3321.81
408.31	3362.76
408.52	3450.83
408.73	3286.99
408.94	3340.24
409.15	3383.24
409.37	3487.69
409.58	3418.06
409.79	3540.94
410.00	3559.37
410.21	3438.54
410.43	3383.24
410.64	3397.58
410.85	3522.51
411.06	3368.91
411.27	3592.14
411.48	3467.21
411.70	3436.49
411.91	3547.08
412.12	3678.15
412.33	3620.81
412.54	3508.17
412.76	3635.14
412.97	3684.30
413.18	3579.85
413.39	3665.86
413.60	3575.75
413.81	3749.83
414.03	3618.76
414.24	3653.58
414.45	3760.07
414.66	3553.23
414.87	3649.48
415.08	3710.92
415.30	3762.12
415.51	3778.50
415.72	3780.55
415.93	3700.68
416.14	3878.85
416.35	3907.52
416.56	3704.78
416.78	3731.40
416.99	3700.68
417.20	3844.04
417.41	3854.28
417.62	3968.96
417.83	3862.47
418.04	3790.79
418.26	4036.55
418.47	3899.33
418.68	3952.58
418.89	3944.39
419.10	4005.83
419.31	3993.54
419.52	4054.98
419.73	4128.70
419.95	4091.84
420.16	3991.49
420.37	4034.50
420.58	4130.75
420.79	3880.90
421.00	4097.99
421.21	4188.10
421.42	3993.54
421.63	4249.54
421.85	4134.85
422.06	4239.30
422.27	4114.37
422.48	4241.34
422.69	4257.73
422.90	4210.62
423.11	4212.67
423.32	4290.49
423.53	4323.26
423.75	4358.08
423.96	4526.01
424.17	4396.99
424.38	4499.39
424.59	4530.11
424.80	4597.69
425.01	4560.83
425.22	4392.89
425.43	4468.67
425.64	4720.57
425.85	4650.94
426.06	4505.53
426.28	4716.47
426.49	4474.81
426.70	4515.77
426.91	4540.35
427.12	4796.34
427.33	4687.80
427.54	4677.56
427.75	4765.62
427.96	4812.73
428.17	4652.98
428.38	4589.50
428.59	4863.93
428.80	4683.70
429.01	4935.60
429.23	4771.77
429.44	4935.60
429.65	5113.78
429.86	4949.94
430.07	4825.01
430.28	4874.17
430.49	4923.32
430.70	5115.83
430.91	5087.15
431.12	4890.55
431.33	5027.76
431.54	5138.35
431.75	5025.72
431.96	5013.43
432.17	5054.39
432.38	5099.44
432.59	5285.81
432.80	5173.17
433.01	5291.95
433.22	5228.46
433.43	5171.12
433.64	5306.29
433.85	5259.18
434.06	5271.47
434.27	5271.47
434.49	5248.94
434.70	5410.73
434.91	5343.15
435.12	5277.62
435.33	5386.16
435.54	5410.73
435.75	5328.81
435.96	5523.37
436.17	5269.42
436.38	5504.94
436.59	5640.11
436.80	5470.12
437.01	5648.30
437.22	5679.02
437.43	5593.00
437.64	5554.09
437.85	5742.50
438.06	5691.31
438.27	5494.70
438.48	5695.40
438.69	5787.56
438.90	5683.11
439.11	5609.39
439.32	5881.77
439.53	5978.02
439.74	5791.66
439.95	5803.94
440.16	5881.77
440.37	5980.07
440.57	5584.81
440.78	5785.51
440.99	5877.67
441.20	5828.52
441.41	5820.33
441.62	5851.05
441.83	5771.18
442.04	6070.18
442.25	6076.32
442.46	6082.47
442.67	6066.08
442.88	6397.85
443.09	5918.63
443.30	5978.02
443.51	6180.77
443.72	6393.76
443.93	6131.62
444.14	6320.03
444.35	6004.64
444.56	6221.73
444.77	6197.15
444.98	6262.69
445.19	6303.65
445.40	6258.59
445.61	6195.11
445.81	6506.40
446.02	6487.96
446.23	6274.98
446.44	6156.19
446.65	6471.58
446.86	6436.77
447.07	6586.27
447.28	6645.66
447.49	6768.54
447.70	6563.74
447.91	6621.08
448.12	6752.15
448.33	6703.00
448.54	6809.50
448.74	6659.99
448.95	6844.31
449.16	6557.60
449.37	6893.46
449.58	6854.55
449.79	6936.47
450.00	6764.44
450.21	6969.24
450.42	6965.14
450.63	7114.64
450.84	6991.77
451.05	6956.95
451.25	7100.31
451.46	6950.81
451.67	7298.96
451.88	7182.23
452.09	7335.82
452.30	7051.16
452.51	7233.43
452.72	7344.02
452.93	7557.00
453.13	7090.07
453.34	7212.95
453.55	7301.01
453.76	7339.92
453.97	7618.44
454.18	7309.20
454.39	7683.98
454.60	7303.06
454.81	7483.28
455.01	7581.58
455.22	7352.21
455.43	7511.95
455.64	7747.47
455.85	7894.92
456.06	7974.79
456.27	7669.64
456.48	7751.56
456.68	7946.12
456.89	7827.34
457.10	7921.54
457.31	8120.20
457.52	7919.50
457.73	8064.90
457.94	8245.12
458.14	7896.97
458.35	8449.92
458.56	8253.31
458.77	8128.39
458.98	8341.38
459.19	8343.42
459.39	8523.65
459.60	8437.63
459.81	8195.97
460.02	8486.78
460.23	8511.36
460.44	8828.79
460.65	8621.95
460.85	8675.20
461.06	8763.26
461.27	8470.40
461.48	8937.34
461.69	8853.37
461.89	8646.52
462.10	8914.81
462.31	8683.39
462.52	8767.35
462.73	8933.24
462.94	9129.84
463.14	9041.78
463.35	8892.28
463.56	9570.16
463.77	9463.66
463.98	9072.50
464.18	9203.57
464.39	9482.10
464.60	9668.46
464.81	9445.23
465.02	9559.92
465.23	9674.60
465.43	9668.46
465.64	9670.51
465.85	9711.47
466.06	9830.25
466.27	9957.22
466.47	9916.26
466.68	9969.51
466.89	9877.35
467.10	9934.70
467.30	9740.14
467.51	10264.42
467.72	10293.09
467.93	10010.47
468.14	10110.82
468.34	10338.15
468.55	10309.47
468.76	10530.66
468.97	10434.40
469.17	10655.58
469.38	10725.21
469.59	10796.89
469.80	10483.55
470.01	10825.56
470.21	10700.64
470.42	10874.71
470.63	10985.30
470.84	10819.42
471.04	11106.13
471.25	11009.88
471.46	11157.33
471.67	11435.86
471.87	11296.60
472.08	11489.10
472.29	11583.31
472.50	11153.24
472.70	11442.00
472.91	11575.12
473.12	11745.10
473.33	11822.92
473.53	12062.54
473.74	11693.90
473.95	11859.79
474.16	11986.76
474.36	12166.98
474.57	12351.30
474.78	12470.08
474.99	12527.42
475.19	12445.51
475.40	12627.78
475.61	12812.09
475.81	12832.57
476.02	13143.86
476.23	12894.01
476.44	12975.93
476.64	13209.40
476.85	13444.91
477.06	13332.28
477.27	13598.51
477.47	13518.64
477.68	13625.14
477.89	13897.52
478.09	13825.84
478.30	13911.85
478.51	13870.89
478.71	14036.78
478.92	14331.69
479.13	14262.05
479.34	14372.64
479.54	14413.60
479.75	14346.02
479.96	14622.50
480.16	14704.42
480.37	14772.00
480.58	14872.35
480.78	15265.56
480.99	15013.66
481.20	15415.06
481.41	15433.49
481.61	15320.85
481.82	15421.20
482.03	15445.78
482.23	15472.40
482.44	15894.29
482.65	16051.98
482.85	16105.23
483.06	15826.70
483.27	16267.02
483.47	16303.88
483.68	16391.94
483.89	16393.99
484.09	16447.24
484.30	16408.33
484.51	16707.33
484.71	16774.91
484.92	16627.46
485.13	17032.96
485.33	16844.54
485.54	17016.57
485.75	17286.90
485.95	17497.84
486.16	17483.51
486.37	17608.44
486.57	17518.32
486.78	17538.80
486.98	17684.21
487.19	17811.18
487.40	17927.92
487.60	18069.23
487.81	18327.27
488.02	18022.12
488.22	18333.42
488.43	18362.09
488.64	18444.01
488.84	18593.51
489.05	18988.77
489.25	18816.74
489.46	18984.67
489.67	18921.18
489.87	19164.89
490.08	19236.57
490.29	19121.88
490.49	19717.84
490.70	19443.42
490.90	19830.48
491.11	19472.09
491.32	19783.38
491.52	19777.23
491.73	19877.58
491.94	20051.66
492.14	19906.26
492.35	20455.11
492.55	20238.03
492.76	20336.33
492.97	20584.13
493.17	20588.23
493.38	20459.21
493.58	20795.07
493.79	20752.07
494.00	20913.86
494.20	20915.90
494.41	21122.75
494.61	21147.33
494.82	21018.30
495.02	21251.77
495.23	21315.26
495.44	21339.83
495.64	21472.95
495.85	21679.80
496.05	21761.72
496.26	21655.22
496.47	21907.12
496.67	21542.58
496.88	22062.77
497.08	21843.63
497.29	21995.18
497.49	22075.06
497.70	22337.20
497.91	22419.11
498.11	22482.60
498.32	22582.95
498.52	22486.70
498.73	22660.77
498.93	22726.31
499.14	22652.58
499.34	23027.36
499.55	23013.02
499.76	22988.45
499.96	22871.72
500.17	23080.61
500.37	23252.64
500.58	23215.77
500.78	23248.54
500.99	23213.73
501.19	23537.30
501.40	23522.97
501.60	23152.29
501.81	23338.65
502.02	23664.28
502.22	23322.27
502.43	23611.03
502.63	23950.99
502.84	24018.58
503.04	23903.89
503.25	24170.13
503.45	24133.26
503.66	24280.72
503.86	23850.64
504.07	24272.53
504.27	23946.90
504.48	24805.00
504.68	24344.20
504.89	24673.93
505.09	24645.26
505.30	24569.48
505.50	24708.74
505.71	24626.82
505.91	24979.07
506.12	24706.70
506.32	24813.19
506.53	24602.25
506.73	24950.40
506.94	25216.64
507.14	24850.05
507.35	25040.51
507.55	25067.14
507.76	25374.33
507.96	25099.90
508.17	25280.13
508.37	25554.55
508.58	25464.44
508.78	25333.37
508.99	25722.49
509.19	25665.14
509.40	25919.09
509.60	25794.17
509.81	25966.20
510.01	25601.66
510.22	25894.52
510.42	25904.76
510.63	26277.49
510.83	25884.28
511.04	25996.92
511.24	26041.97
511.44	26193.52
511.65	26373.74
511.85	26150.51
512.06	26312.30
512.26	26353.26
512.47	26566.25
512.67	26513.00
512.88	26654.31
513.08	26369.65
513.29	26873.45
513.49	26848.87
513.69	26707.56
513.90	26797.67
514.10	26701.42
514.31	26844.77
514.51	27260.51
514.72	27168.35
514.92	26943.08
515.13	27006.56
515.33	27061.86
515.53	27178.59
515.74	27440.73
515.94	27197.02
516.15	27399.77
516.35	27264.61
516.56	27680.35
516.76	27539.04
516.96	27487.84
517.17	27874.90
517.37	27752.02
517.58	27799.13
517.78	28190.29
517.99	28235.35
518.19	28321.36
518.39	27893.33
518.60	28200.53
518.80	28454.48
519.01	28307.02
519.21	28499.53
519.41	28458.57
519.62	28671.56
519.82	28780.10
520.03	28935.75
520.23	28923.46
520.43	28728.91
520.64	28839.50
520.84	29197.89
521.05	28923.46
521.25	29079.11
521.45	29279.81
521.66	29316.67
521.86	29122.12
522.07	29572.67
522.27	29527.61
522.47	29578.81
522.68	29961.78
522.88	29779.51
523.08	30062.13
523.29	30185.01
523.49	30094.90
523.70	30092.85
523.90	30297.65
524.10	30613.04
524.31	30307.89
524.51	30225.97
524.71	30883.37
524.92	30963.24
525.12	30920.23
525.33	30647.85
525.53	31077.93
525.73	30961.19
525.94	31426.08
526.14	31217.19
526.34	31243.81
526.55	31391.26
526.75	31462.94
526.95	31723.04
527.16	31469.09
527.36	31452.70
527.56	31921.69
527.77	32005.66
527.97	32171.54
528.17	31827.48
528.38	32331.28
528.58	32564.75
528.78	32382.48
528.99	32419.35
529.19	32808.46
529.39	32550.42
529.60	32744.97
529.80	33211.91
530.00	32833.04
530.21	33347.08
530.41	33664.51
530.61	33306.12
530.82	33146.37
531.02	33293.83
531.22	33752.57
531.43	33674.75
531.63	33535.49
531.83	33730.05
532.04	34053.62
532.24	33891.83
532.44	34115.06
532.64	34225.65
532.85	34168.31
533.05	34266.61
533.25	34289.14
533.46	34233.85
533.66	34924.01
533.86	34493.94
534.07	34649.58
534.27	34436.59
534.47	35192.30
534.67	35268.07
534.88	34989.55
535.08	35220.97
535.28	35347.94
535.49	35775.97
535.69	35468.77
535.89	35821.02
536.09	35667.42
536.30	36107.74
536.50	35741.15
536.70	36216.28
536.91	35896.80
537.11	35972.57
537.31	36412.88
537.51	35970.52
537.72	36435.41
537.92	36591.06
538.12	36877.77
538.32	36500.95
538.53	37103.05
538.73	36496.85
538.93	36752.85
539.13	36920.78
539.34	37078.47
539.54	36584.91
539.74	37176.78
539.94	37086.67
540.15	37105.10
540.35	37561.79
540.55	37483.97
540.75	37465.54
540.96	37383.62
541.16	37393.86
541.36	37782.98
541.56	37537.22
541.77	37971.39
541.97	37967.29
542.17	38299.06
542.37	38139.32
542.58	37934.53
542.78	38116.79
542.98	37950.91
543.18	38413.75
543.38	38514.10
543.59	38716.85
543.79	38014.40
543.99	38421.94
544.19	38702.51
544.40	38378.93
544.60	38821.30
544.80	38213.05
545.00	38684.08
545.20	38720.95
545.41	38983.09
545.61	38630.83
545.81	39214.51
546.01	38931.89
546.21	38856.11
546.42	38991.28
546.62	38921.65
546.82	39038.38
547.02	39232.94
547.22	39445.93
547.43	39261.61
547.63	39134.63
547.83	39501.22
548.03	39425.45
548.23	39699.87
548.44	39302.57
548.64	39447.97
548.84	39724.45
549.04	39663.01
549.24	39851.42
549.45	40242.59
549.65	40037.79
549.85	40041.88
550.05	39882.14
550.25	39847.33
550.45	40551.83
550.66	39779.74
550.86	39984.54
551.06	40426.90
551.26	40404.38
551.46	40256.92
551.66	40048.03
551.87	40025.50
552.07	40492.44
552.27	40078.75
552.47	40531.35
552.67	40482.20
552.87	40605.08
553.07	40787.35
553.28	40783.25
553.48	40924.56
553.68	40158.62
553.88	40936.85
554.08	40979.85
554.28	40981.90
554.48	40711.57
554.69	41291.15
554.89	40908.18
555.09	41217.42
555.29	40654.23
555.49	40897.94
555.69	41178.51
555.89	40983.95
556.10	41403.78
556.30	40988.05
556.50	41600.39
556.70	41131.40
556.90	41530.76
557.10	41414.02
557.30	41137.55
557.50	41643.40
557.70	41219.47
557.91	41979.26
558.11	41919.87
558.31	41723.27
558.51	41368.97
558.71	41864.58
558.91	42087.81
559.11	41780.61
559.31	41485.70
559.51	41620.87
559.72	41833.86
559.92	42020.22
560.12	41766.27
560.32	41944.45
560.52	41825.67
560.72	42177.92
560.92	42003.84
561.12	42192.25
561.32	42382.71
561.52	41643.40
561.72	42493.30
561.93	42104.19
562.13	42452.34
562.33	42065.28
562.53	42990.96
562.73	42632.57
562.93	41842.05
563.13	42741.11
563.33	42337.66
563.53	42823.03
563.73	42491.26
563.93	42741.11
564.13	43101.55
564.33	42806.64
564.53	43001.20
564.74	43244.91
564.94	42902.90
565.14	43111.79
565.34	43064.69
565.54	43240.81
565.74	42976.62
565.94	43586.92
566.14	43433.32
566.34	43195.76
566.54	43943.27
566.74	43111.79
566.94	43461.99
567.14	43922.79
567.34	43042.16
567.54	43865.44
567.74	43603.30
567.94	43832.68
568.14	43812.20
568.34	44002.66
568.54	44070.24
568.74	44272.99
568.94	43726.18
569.14	44250.46
569.34	44447.07
569.54	44436.83
569.75	44109.15
569.95	44498.26
570.15	44735.83
570.35	44170.59
570.55	44180.83
570.75	44535.13
570.95	44340.57
571.15	44549.46
571.35	44791.12
571.55	44866.90
571.75	44471.64
571.95	44840.28
572.15	44797.27
572.35	44737.88
572.55	45360.46
572.75	44930.39
572.95	45206.86
573.15	45141.33
573.35	45118.80
573.55	45006.16
573.75	44905.81
573.95	45770.05
574.15	45325.64
574.35	45542.73
574.55	45464.91
574.75	45696.33
574.95	45618.50
575.15	45628.74
575.34	45602.12
575.54	45950.27
575.74	45950.27
575.94	45882.69
576.14	45839.68
576.34	46064.96
576.54	46320.96
576.74	45970.75
576.94	46064.96
577.14	46232.89
577.34	46984.50
577.54	46181.70
577.74	46650.68
577.94	46380.35
578.14	46597.43
578.34	46806.33
578.54	46048.58
578.74	46642.49
578.94	46730.55
579.14	46689.59
579.34	46579.00
579.54	46945.59
579.74	47144.24
579.94	46959.92
580.13	46890.29
580.33	47140.14
580.53	47095.09
580.73	47586.60
580.93	47533.35
581.13	47279.41
581.33	47699.24
581.53	48078.11
581.73	47744.30
581.93	47779.11
582.13	47797.54
582.33	48047.39
582.53	47344.94
582.73	47748.39
582.92	48166.18
583.12	47945.00
583.32	48129.31
583.52	48272.67
583.72	48424.22
583.92	48143.65
584.12	48297.25
584.32	48850.20
584.52	48465.18
584.72	48407.84
584.92	48631.07
585.11	49157.39
585.31	48616.73
585.51	49018.13
585.71	48612.63
585.91	49227.02
586.11	49022.23
586.31	48608.54
586.51	48645.40
586.71	49247.50
586.91	49566.99
587.10	49069.33
587.30	49210.64
587.50	49196.31
587.70	49292.56
587.90	49517.84
588.10	49538.32
588.30	49114.39
588.50	49616.14
588.69	49403.15
588.89	49253.65
589.09	49515.79
589.29	49597.71
589.49	49820.94
589.69	49429.77
589.89	49911.05
590.08	49943.81
590.28	49710.35
590.48	49345.81
590.68	49990.92
590.88	50042.12
591.08	49509.64
591.28	49599.76
591.47	50238.72
591.67	50226.43
591.87	49995.01
592.07	50017.54
592.27	50339.07
592.47	50044.16
592.67	50246.91
592.86	50173.19
593.06	50662.65
593.26	50226.43
593.46	50480.38
593.66	50337.02
593.86	50193.67
594.05	50050.31
594.25	50486.53
594.45	50472.19
594.65	50398.46
594.85	50289.92
595.05	50464.00
595.24	50941.17
595.44	50420.99
595.64	50595.07
595.84	50494.72
596.04	50396.42
596.23	50625.79
596.43	51330.29
596.63	50468.09
596.83	50693.37
597.03	50994.42
597.22	51199.22
597.42	50828.54
597.62	51418.35
597.82	51064.05
598.02	51336.43
598.21	51248.37
598.41	50912.50
598.61	51305.71
598.81	51557.61
599.01	51612.91
599.20	51395.82
599.40	51156.21
599.60	51152.12
599.80	51131.64
600.00	51574.00
600.19	51801.32
600.39	51119.35
600.59	51643.63
600.79	51711.21
600.98	51545.33
601.18	51717.35
601.38	51715.31
601.58	52042.98
601.78	51889.38
601.97	51981.54
602.17	52602.08
602.37	51881.19
602.57	52073.70
602.76	52110.56
602.96	51467.50
603.16	51922.15
603.36	52399.33
603.55	52354.27
603.75	52137.19
603.95	52253.92
604.15	52374.75
604.34	52346.08
604.54	52282.59
604.74	52247.78
604.94	52561.12
605.13	52573.41
605.33	52477.15
605.53	52298.98
605.73	52346.08
605.92	52528.35
606.12	52892.89
606.32	52477.15
606.52	52964.57
606.71	52532.45
606.91	52864.22
607.11	52442.34
607.30	53277.91
607.50	52839.64
607.70	53140.69
607.90	52894.94
608.09	52808.92
608.29	52593.89
608.49	52911.32
608.68	52794.59
608.88	52853.98
609.08	53003.48
609.28	53343.44
609.47	53146.84
609.67	53474.51
609.87	52806.87
610.06	53398.74
610.26	53187.80
610.46	53583.05
610.66	52616.41
610.85	53673.16
611.05	53433.55
611.25	53171.41
611.44	52995.29
611.64	53085.40
611.84	53480.66
612.03	52882.65
612.23	53404.88
612.43	53658.83
612.62	52896.98
612.82	53349.59
613.02	53578.96
613.21	53558.48
613.41	53212.37
613.61	53658.83
613.80	52909.27
614.00	53204.18
614.20	53333.20
614.39	53578.96
614.59	53535.95
614.79	53411.02
614.98	53564.62
615.18	53458.13
615.38	53523.66
615.57	53290.19
615.77	53884.11
615.97	53540.05
616.16	53720.27
616.36	53695.69
616.56	53249.24
616.75	53810.38
616.95	53294.29
617.15	53978.31
617.34	54121.67
617.54	53476.56
617.74	54011.08
617.93	53892.30
618.13	53208.28
618.32	53742.80
618.52	53511.38
618.72	53574.86
618.91	53906.63
619.11	53548.24
619.31	53476.56
619.50	53564.62
619.70	53386.45
619.90	53675.21
620.09	53511.38
620.29	53632.21
620.48	53763.28
620.68	54164.68
620.88	53415.12
621.07	53462.22
621.27	53941.45
621.46	53277.91
621.66	53632.21
621.86	53701.84
622.05	53871.82
622.25	54121.67
622.44	53511.38
622.64	53460.18
622.84	53794.00
623.03	53204.18
623.23	53892.30
623.42	53632.21
623.62	53961.93
623.82	53890.25
624.01	53589.20
624.21	54375.62
624.40	53607.63
624.60	53951.69
624.80	53957.83
624.99	54131.91
625.19	53535.95
625.38	53753.04
625.58	53920.97
625.77	54080.71
625.97	53777.61
626.17	53558.48
626.36	53986.50
626.56	54025.42
626.75	53781.71
626.95	54469.82
627.14	54498.50
627.34	54443.20
627.54	53908.68
627.73	54072.52
627.93	53959.88
628.12	54181.06
628.32	53912.78
628.51	53920.97
628.71	54152.39
628.90	54346.95
629.10	54271.17
629.30	54291.65
629.49	54285.51
629.69	54166.73
629.88	54056.14
630.08	54598.85
630.27	54516.93
630.47	54232.26
630.66	54154.44
630.86	54883.51
631.05	54281.41
631.25	55041.21
631.44	54711.49
631.64	54361.28
631.84	54729.92
632.03	54781.12
632.23	54543.55
632.42	54832.32
632.62	54615.23
632.81	54095.05
633.01	54660.29
633.20	55024.82
633.40	54723.77
633.59	54770.88
633.79	54697.15
633.98	54994.10
634.18	55213.24
634.37	55188.66
634.57	54801.60
634.76	55076.02
634.96	55248.05
635.15	55155.89
635.35	54834.36
635.54	54901.95
635.74	55071.93
635.93	55248.05
636.13	55121.08
636.32	54897.85
636.52	55069.88
636.71	55407.79
636.91	55260.34
637.10	55153.85
637.30	55162.04
637.49	55381.17
637.69	55088.31
637.88	55719.09
638.08	55387.31
638.27	55891.12
638.46	55196.85
638.66	55239.86
638.85	55762.09
639.05	55532.72
639.24	55688.37
639.44	55489.71
639.63	56202.41
639.83	55362.74
640.02	55424.18
640.22	55932.07
640.41	55520.43
640.61	55303.35
640.80	55583.92
640.99	55774.38
641.19	56579.23
641.38	55663.79
641.58	55725.23
641.77	55579.82
641.97	55495.86
642.16	55714.99
642.36	55940.27
642.55	56325.28
642.74	55575.73
642.94	56349.86
643.13	55864.49
643.33	56061.10
643.52	55870.64
643.72	56460.45
643.91	55803.05
644.10	56183.97
644.30	56679.58
644.49	56138.92
644.69	56519.84
644.88	56085.67
645.08	56325.28
645.27	56198.31
645.46	56159.40
645.66	56603.81
645.85	56757.41
646.05	56466.59
646.24	56145.06
646.43	56423.59
646.63	56532.13
646.82	56845.47
647.02	56327.33
647.21	56415.40
647.40	56511.65
647.60	56577.18
647.79	56702.11
647.99	56550.56
648.18	56499.36
648.37	56927.39
648.57	57242.77
648.76	56620.19
648.96	56532.13
649.15	56757.41
649.34	56812.70
649.54	56988.83
649.73	56736.93
649.92	57001.11
650.12	57115.80
650.31	56855.71
650.51	56802.46
650.70	57269.40
650.89	56962.20
651.09	57326.74
651.28	56966.30
651.47	57267.35
651.67	56648.86
651.86	57451.67
652.06	56775.84
652.25	57080.98
652.44	56964.25
652.64	56640.67
652.83	57107.61
653.02	56843.42
653.22	57123.99
653.41	56585.38
653.60	56644.77
653.80	56810.65
653.99	57169.05
654.18	56642.72
654.38	56775.84
654.57	57066.65
654.76	56655.01
654.96	56734.88
655.15	56622.24
655.34	56226.98
655.54	56431.78
655.73	56681.63
655.92	56915.10
656.12	57336.98
656.31	57070.75
656.50	56962.20
656.70	56933.53
656.89	56923.29
657.08	56841.37
657.28	56677.54
657.47	56753.31
657.66	56888.48
657.86	56466.59
658.05	56722.59
658.24	56966.30
658.43	56294.56
658.63	56802.46
658.82	57087.13
659.01	57089.18
659.21	57015.45
659.40	57080.98
659.59	56491.17
659.79	57173.14
659.98	56786.08
660.17	57173.14
660.36	56781.98
660.56	56763.55
660.75	56792.22
660.94	57019.55
661.14	56454.31
661.33	56474.79
661.52	56706.21
661.71	56968.35
661.91	56661.15
662.10	56763.55
662.29	56937.63
662.49	56861.85
662.68	56997.02
662.87	56915.10
663.06	56974.49
663.26	56882.33
663.45	56863.90
663.64	56691.87
663.83	56872.09
664.03	56949.92
664.22	56372.39
664.41	56943.77
664.60	56247.46
664.80	57066.65
664.99	56454.31
665.18	56622.24
665.37	56702.11
665.57	56970.39
665.76	56169.64
665.95	56302.76
666.14	56300.71
666.34	56335.52
666.53	56607.90
666.72	56978.59
666.91	56143.02
667.11	56296.61
667.30	56751.26
667.49	56632.48
667.68	56349.86
667.87	55964.84
668.07	56306.85
668.26	56183.97
668.45	56399.01
668.64	56310.95
668.84	56906.91
669.03	56603.81
669.22	56284.33
669.41	56415.40
669.60	56517.79
669.80	55874.73
669.99	56353.96
670.18	56628.38
670.37	56331.43
670.57	56222.89
670.76	56202.41
670.95	56532.13
671.14	56300.71
671.33	55551.15
671.53	56790.17
671.72	56063.14
671.91	56226.98
672.10	55846.06
672.29	55807.15
672.48	55663.79
672.68	56071.34
672.87	55968.94
673.06	55725.23
673.25	55676.08
673.44	55579.82
673.64	55895.21
673.83	55778.48
674.02	55221.43
674.21	55473.33
674.40	55880.88
674.59	55624.88
674.79	55461.04
674.98	55127.22
675.17	56267.94
675.36	55315.64
675.55	55860.40
675.74	55188.66
675.94	55293.11
676.13	55778.48
676.32	55733.42
676.51	55852.20
676.70	55434.42
676.89	55927.98
677.08	55801.00
677.28	55260.34
677.47	55483.57
677.66	55506.10
677.85	55727.28
678.04	55760.05
678.23	56022.19
678.42	55534.77
678.62	55235.77
678.81	55532.72
679.00	55612.59
679.19	55649.45
679.38	55616.69
679.57	55633.07
679.76	55174.33
679.96	55526.58
680.15	55493.81
680.34	55278.77
680.53	54998.20
680.72	55071.93
680.91	55448.75
681.10	55174.33
681.29	55549.10
681.48	55219.38
681.68	55102.65
681.87	55487.67
682.06	55008.44
682.25	54490.30
682.44	55049.40
682.63	55047.35
682.82	54406.34
683.01	54830.27
683.20	54527.17
683.39	54887.61
683.59	55010.49
683.78	55018.68
683.97	54189.25
684.16	54987.96
684.35	54783.16
684.54	54435.01
684.73	54803.64
684.92	54633.66
685.11	54596.80
685.30	54537.41
685.49	54944.95
685.69	54746.30
685.88	54400.19
686.07	54637.76
686.26	54645.95
686.45	54449.35
686.64	54973.63
686.83	54969.53
687.02	54705.34
687.21	54506.69
687.40	54447.30
687.59	54375.62
687.78	54394.05
687.97	54832.32
688.16	54711.49
688.35	54525.12
688.54	54385.86
688.74	54234.31
688.93	54670.53
689.12	54496.45
689.31	54316.23
689.50	54488.26
689.69	54297.80
689.88	53871.82
690.07	54482.11
690.26	54181.06
690.45	54424.77
690.64	53796.04
690.83	54041.80
691.02	53478.61
691.21	54123.72
691.40	54152.39
691.59	54336.71
691.78	54336.71
691.97	54373.57
692.16	54232.26
692.35	54699.20
692.54	54367.43
692.73	54109.38
692.92	54164.68
693.11	54111.43
693.30	53918.92
693.49	54297.80
693.68	54049.99
693.87	53679.31
694.06	53888.20
694.25	53820.62
694.44	53732.56
694.63	53828.81
694.82	54129.86
695.01	53847.24
695.20	53538.00
695.39	53736.65
695.58	54037.70
695.77	53613.77
695.96	53599.44
696.15	54183.11
696.34	53488.85
696.53	54072.52
696.72	53638.35
696.91	53286.10
697.10	53703.88
697.29	53589.20
697.48	53867.72
697.67	53433.55
697.86	53251.28
698.05	53277.91
698.24	53931.21
698.43	53341.39
698.62	53638.35
698.81	53269.72
699.00	53648.59
699.19	53157.08
699.38	53427.41
699.57	52915.42
699.76	53675.21
699.95	53097.69
700.14	53327.06
700.32	53249.24
700.51	53308.63
700.70	53589.20
700.89	53476.56
701.08	53265.62
701.27	53288.15
701.46	53777.61
701.65	52935.90
701.84	53179.60
702.03	53236.95
702.22	53351.63
702.41	53273.81
702.60	53408.98
702.79	53441.74
702.98	52657.37
703.17	53028.05
703.35	52548.83
703.54	53019.86
703.73	53179.60
703.92	53124.31
704.11	53159.12
704.30	52866.27
704.49	53318.87
704.68	53017.82
704.87	53255.38
705.06	52600.03
705.25	53007.58
705.43	53056.73
705.62	53587.15
705.81	53167.32
706.00	53101.78
706.19	52614.37
706.38	52554.97
706.57	53269.72
706.76	52933.85
706.95	52614.37
707.14	52677.85
707.32	52573.41
707.51	52466.91
707.70	53044.44
707.89	52870.36
708.08	53417.17
708.27	52770.01
708.46	53122.26
708.65	52626.65
708.84	53155.03
709.02	52929.75
709.21	52847.83
709.40	52708.57
709.59	52868.31
709.78	52303.07
709.97	52745.44
710.16	52440.29
710.34	52610.27
710.53	52290.79
710.72	52237.54
710.91	53040.34
711.10	52511.97
711.29	52317.41
711.48	52362.46
711.66	52389.09
711.85	52298.98
712.04	52690.14
712.23	52034.79
712.42	52239.59
712.61	52438.24
712.80	52454.62
712.98	52370.66
713.17	52389.09
713.36	52225.25
713.55	52360.42
713.74	52118.76
713.93	52356.32
714.11	52499.68
714.30	52217.06
714.49	51901.67
714.68	52157.67
714.87	52280.55
715.06	52034.79
715.24	52061.41
715.43	52032.74
715.62	51686.64
715.81	51729.64
716.00	52200.68
716.18	51610.86
716.37	51692.78
716.56	51399.92
716.75	52190.44
716.94	51674.35
717.12	51582.19
717.31	51897.58
717.50	51516.65
717.69	51178.74
717.88	51778.79
718.06	51770.60
718.25	52077.80
718.44	51651.82
718.63	51619.05
718.82	51219.70
719.00	51557.61
719.19	50998.52
719.38	50744.57
719.57	51229.94
719.76	50955.51
719.94	51029.24
720.13	50969.85
720.32	50937.08
720.51	50955.51
720.69	50648.32
720.88	51035.38
721.07	50896.12
721.26	50676.99
721.44	50650.36
721.63	50597.12
721.82	50232.58
722.01	50480.38
722.20	50535.68
722.38	50205.95
722.57	50181.38
722.76	49906.95
722.95	50648.32
723.13	50074.88
723.32	50001.16
723.51	49861.90
723.70	49982.73
723.88	50070.79
724.07	49917.19
724.26	50404.61
724.44	49769.74
724.63	50013.44
724.82	50283.78
725.01	49648.91
725.19	49765.64
725.38	49327.38
725.57	49603.85
725.76	49845.51
725.94	49620.23
726.13	49292.56
726.32	49511.69
726.51	49806.60
726.69	50001.16
726.88	49358.09
727.07	49665.29
727.25	49550.60
727.44	49370.38
727.63	49374.48
727.82	49349.90
728.00	49378.57
728.19	49210.64
728.38	49882.37
728.56	49024.28
728.75	49685.77
728.94	49501.45
729.12	49493.26
729.31	49333.52
729.50	49095.95
729.69	49138.96
729.87	49331.47
730.06	49069.33
730.25	49286.42
730.43	49245.46
730.62	48755.99
730.81	49575.18
730.99	49333.52
731.18	49159.44
731.37	49237.26
731.55	49397.01
731.74	49233.17
731.93	49638.67
732.11	49192.21
732.30	49280.27
732.49	49083.67
732.67	48911.64
732.86	49306.90
733.05	48774.42
733.23	48954.64
733.42	49124.63
733.61	49249.55
733.79	48889.11
733.98	48968.98
734.17	48667.93
734.35	48921.88
734.54	49020.18
734.73	48778.52
734.91	48610.59
735.10	48424.22
735.29	48809.24
735.47	48418.08
735.66	48483.61
735.84	48440.60
736.03	48043.30
736.22	48772.38
736.40	48213.28
736.59	48522.52
736.78	48432.41
736.96	48465.18
737.15	48244.00
737.33	48483.61
737.52	48432.41
737.71	48039.20
737.89	48084.26
738.08	48274.72
738.27	48059.68
738.45	48540.96
738.64	48538.91
738.82	48289.06
739.01	48188.70
739.20	47930.66
739.38	47922.47
739.57	48237.86
739.75	48176.42
739.94	47996.20
740.13	48074.02
740.31	47461.68
740.50	48041.25
740.68	47691.05
740.87	48215.33
741.06	47945.00
741.24	48143.65
741.43	47330.61
741.61	47664.42
741.80	47445.29
741.99	47433.00
742.17	47519.02
742.36	47260.97
742.54	47056.18
742.73	47283.50
742.91	47590.70
743.10	47543.59
743.29	47789.35
743.47	47441.20
743.66	47742.25
743.84	47172.91
744.03	47267.12
744.21	46916.92
744.40	47455.53
744.59	47222.06
744.77	46761.27
744.96	47123.76
745.14	46894.39
745.33	46986.55
745.51	46828.85
745.70	47011.12
745.88	46286.14
746.07	46507.32
746.26	46193.98
746.44	46566.71
746.63	46363.96
746.81	46292.29
747.00	46314.81
747.18	46476.60
747.37	46292.29
747.55	46511.42
747.74	46609.72
747.92	45831.49
748.11	45970.75
748.29	45925.70
748.48	46126.40
748.66	45952.32
748.85	46556.47
749.03	46359.87
749.22	46105.92
749.41	45974.85
749.59	45860.16
749.78	45757.77
749.96	45688.13
750.15	45741.38
750.33	45757.77
750.52	45897.03
750.70	45772.10
750.89	45479.24
751.07	45536.59
751.26	45851.97
751.44	45571.40
751.63	45512.01
751.81	45477.19
752.00	45047.12
752.18	45366.60
752.37	45372.75
752.55	44719.45
752.74	44827.99
752.92	45110.61
753.10	44883.28
753.29	44803.41
753.47	44602.71
753.66	44889.43
753.84	44811.60
754.03	44662.10
754.21	44512.60
754.40	44660.05
754.58	44909.91
754.77	44698.97
754.95	44379.48
755.14	44379.48
755.32	44350.81
755.51	44293.47
755.69	44291.42
755.88	44426.59
756.06	44205.41
756.24	44051.81
756.43	44160.35
756.61	44496.22
756.80	44047.71
756.98	43607.40
757.17	44004.70
757.35	44244.32
757.54	43906.40
757.72	43654.50
757.90	44016.99
758.09	43859.30
758.27	43797.86
758.46	43683.17
758.64	43509.10
758.83	43773.28
759.01	43715.94
759.19	43664.74
759.38	43238.76
759.56	43599.21
759.75	42913.14
759.93	43013.49
760.12	43193.71
760.30	43193.71
760.48	42960.24
760.67	42796.40
760.85	43185.52
761.04	43562.34
761.22	43103.60
761.40	43089.26
761.59	43314.54
761.77	42681.72
761.96	43128.17
762.14	43081.07
762.32	43027.82
762.51	42034.56
762.69	42872.18
762.88	42681.72
763.06	42810.74
763.24	42741.11
763.43	43079.02
763.61	42577.27
763.80	42464.63
763.98	42247.55
764.16	42323.32
764.35	42046.85
764.53	41741.70
764.72	41614.72
764.90	42288.51
765.08	42143.10
765.27	41850.24
765.45	41739.65
765.63	41551.24
765.82	42120.57
766.00	41094.54
766.18	41520.52
766.37	41854.34
766.55	41629.06
766.74	41614.72
766.92	41112.97
767.10	41166.22
767.29	41006.48
767.47	41379.21
767.65	41250.19
767.84	40873.36
768.02	41223.56
768.20	40752.53
768.39	41295.24
768.57	41393.54
768.75	41022.86
768.94	40861.07
769.12	40863.12
769.30	40639.89
769.49	40912.27
769.67	40834.45
769.85	40574.36
770.04	40918.42
770.22	40461.72
770.40	40373.66
770.59	40310.17
770.77	40717.71
770.95	40580.50
771.14	40336.79
771.32	39998.88
771.50	40009.12
771.69	40416.66
771.87	40097.18
772.05	40396.18
772.24	40205.72
772.42	40095.13
772.60	39986.59
772.78	40322.46
772.97	39847.33
773.15	40168.86
773.33	40023.45
773.52	40058.27
773.70	40316.31
773.88	39828.90
774.07	39339.43
774.25	39380.39
774.43	39886.24
774.61	39974.30
774.80	39982.49
774.98	40433.05
775.16	39988.64
775.34	39613.86
775.53	39789.98
775.71	39978.40
775.89	39861.66
776.08	39640.48
776.26	40140.19
776.44	39927.20
776.62	39853.47
776.81	39962.01
776.99	40068.51
777.17	40007.07
777.35	40226.20
777.54	40400.28
777.72	39691.68
777.90	39935.39
778.08	40228.25
778.27	40557.97
778.45	39904.67
778.63	40148.38
778.81	40054.17
779.00	40363.42
779.18	39935.39
779.36	40795.54
779.54	40441.24
779.73	40353.18
779.91	40883.60
780.09	40371.61
780.27	40564.12
780.46	40455.57
780.64	40582.55
780.82	40605.08
781.00	40191.39
781.19	40375.70
781.37	40639.89
781.55	40457.62
781.73	41049.49
781.91	40885.65
782.10	40467.86
782.28	40725.91
782.46	40902.03
782.64	41074.06
782.82	40742.29
783.01	40865.17
783.19	40598.93
783.37	40682.90
783.55	40582.55
783.74	40904.08
783.92	40603.03
784.10	41371.02
784.28	41151.88
784.46	40635.80
784.64	40533.40
784.83	40578.45
785.01	41115.02
785.19	40865.17
785.37	40930.70
785.55	41133.45
785.74	40469.91
785.92	40619.41
786.10	40859.02
786.28	40859.02
786.46	40519.06
786.64	40410.52
786.83	40449.43
787.01	40951.18
787.19	40693.14
787.37	40760.72
787.55	40586.64
787.74	40318.36
787.92	40517.01
788.10	40453.53
788.28	40072.60
788.46	40703.38
788.64	40107.42
788.82	40994.19
789.01	40250.78
789.19	40203.67
789.37	40193.43
789.55	40025.50
789.73	39753.12
789.91	39978.40
790.09	39824.80
790.28	39685.54
790.46	39157.16
790.64	39882.14
790.82	39892.38
791.00	39546.28
791.18	39308.71
791.36	39415.21
791.55	39253.42
791.73	39171.50
791.91	39142.83
792.09	39364.01
792.27	39493.03
792.45	39263.66
792.63	39122.35
792.81	39654.82
793.00	39331.24
793.18	39237.03
793.36	39364.01
793.54	38741.42
793.72	38852.02
793.90	38651.31
794.08	38618.55
794.26	38456.76
794.44	38348.21
794.62	37989.82
794.81	38411.70
794.99	38565.30
795.17	38219.19
795.35	38524.34
795.53	38112.70
795.71	37789.12
795.89	37856.70
796.07	37737.92
796.25	37868.99
796.43	37836.22
796.61	37365.19
796.80	37565.89
796.98	37539.27
797.16	37746.11
797.34	37359.05
797.52	37770.69
797.70	37463.49
797.88	36943.31
798.06	37043.66
798.24	37068.23
798.42	36959.69
798.60	36785.61
798.78	36832.72
798.96	36750.80
799.14	36765.14
799.32	36877.77
799.51	36621.78
799.69	37090.76
799.87	36758.99
800.05	36240.86
800.23	36484.56
800.41	36378.07
800.59	36427.22
800.77	36154.84
800.95	35853.79
801.13	36165.08
801.31	35708.38
801.49	36052.44
801.67	35536.35
801.85	35935.71
802.03	35489.25
802.21	35640.80
802.39	35128.81
802.57	35485.15
802.75	35378.66
802.93	34889.20
803.11	35263.97
803.29	34903.53
803.47	35050.99
803.65	35067.37
803.83	35098.09
804.01	34817.52
804.19	34444.79
804.37	34538.99
804.55	34862.57
804.73	34645.49
804.91	34289.14
805.09	34559.47
805.27	34135.54
805.45	34409.97
805.63	34434.55
805.81	34473.46
805.99	34506.23
806.17	34391.54
806.35	34262.52
806.53	34045.43
806.71	33971.71
806.89	34178.55
807.07	34139.64
807.25	34098.68
807.43	33850.88
807.61	34139.64
807.79	33713.66
807.97	33467.91
808.15	33709.57
808.33	33682.94
808.51	33388.03
808.69	33289.73
808.87	33095.18
809.05	33123.85
809.23	32966.15
809.41	33043.98
809.59	32790.03
809.77	33363.46
809.95	32499.22
810.13	33050.12
810.31	32691.73
810.49	32986.63
810.67	32966.15
810.84	32581.13
811.02	32699.92
811.20	32294.42
811.38	32427.54
811.56	32544.27
811.74	32134.68
811.92	32165.40
812.10	32208.40
812.28	32085.53
812.46	32230.93
812.64	31907.35
812.82	31944.22
813.00	32175.64
813.18	32206.36
813.36	31784.48
813.53	31725.08
813.71	31755.80
813.89	31536.67
814.07	31591.97
814.25	31880.73
814.43	31710.75
814.61	31331.87
814.79	31340.07
814.97	31211.04
815.15	31829.53
815.33	31057.45
815.50	31024.68
815.68	31290.91
815.86	31534.62
816.04	30895.66
816.22	31135.27
816.40	31118.89
816.58	30918.18
816.76	30770.73
816.94	30694.96
817.11	31145.51
817.29	30774.83
817.47	31051.30
817.65	30496.30
817.83	30881.32
818.01	30375.47
818.19	30404.14
818.37	30469.68
818.54	30283.31
818.72	30160.44
818.90	30133.81
819.08	30088.76
819.26	30283.31
819.44	30303.79
819.62	30211.64
819.80	29982.26
819.97	30402.10
820.15	30000.69
820.33	30092.85
820.51	30166.58
820.69	29953.59
820.87	29853.24
821.05	29861.43
821.22	29619.77
821.40	29539.90
821.58	29423.17
821.76	29412.93
821.94	29472.32
822.12	29650.49
822.29	29587.00
822.47	28964.42
822.65	29689.40
822.83	29556.28
823.01	29550.14
823.19	28978.76
823.36	28868.17
823.54	29101.64
823.72	28950.09
823.90	28989.00
824.08	28876.36
824.25	28962.37
824.43	28888.65
824.61	28692.04
824.79	28577.36
824.97	28839.50
825.15	28962.37
825.32	28710.47
825.50	28876.36
825.68	28816.97
825.86	29042.24
826.04	29064.77
826.21	28321.36
826.39	28395.09
826.57	28477.01
826.75	28540.49
826.93	28272.21
827.10	28075.60
827.28	28315.22
827.46	28165.71
827.64	28304.98
827.81	27928.15
827.99	27956.82
828.17	28022.36
828.35	27981.40
828.53	28350.03
828.70	27958.87
828.88	27827.80
829.06	27942.49
829.24	28071.51
829.41	27786.84
829.59	27782.74
829.77	27870.81
829.95	27725.40
830.12	27727.45
830.30	27811.42
830.48	27825.75
830.66	27520.60
830.84	27479.64
831.01	27139.68
831.19	27618.91
831.37	27387.49
831.55	26998.37
831.72	27123.30
831.90	27317.86
832.08	27545.18
832.25	27149.92
832.43	27381.34
832.61	27162.21
832.79	27143.78
832.96	27100.77
833.14	27188.83
833.32	27498.08
833.50	27121.25
833.67	26994.28
833.85	26895.97
834.03	26695.27
834.20	26949.22
834.38	27065.96
834.56	26928.74
834.74	26762.86
834.91	26654.31
835.09	26818.15
835.27	26488.43
835.44	26543.72
835.62	26365.55
835.80	26224.24
835.98	26682.98
836.15	26613.35
836.33	26451.56
836.51	26203.76
836.68	26091.12
836.86	26238.58
837.04	26340.97
837.21	26099.31
837.39	26343.02
837.57	26383.98
837.75	26123.89
837.92	25771.64
838.10	26205.81
838.28	25708.15
838.45	25718.39
838.63	25581.18
838.81	25618.04
838.98	25828.98
839.16	25847.41
839.34	25656.95
839.51	25732.73
839.69	25499.26
839.87	25740.92
840.04	25718.39
840.22	25691.77
840.40	25489.02
840.57	25374.33
840.75	25427.58
840.93	25196.16
841.10	25345.66
841.28	25826.93
841.46	25286.27
841.63	25177.73
841.81	25212.54
841.98	25187.97
842.16	25380.48
842.34	25413.24
842.51	24743.56
842.69	25278.08
842.87	25042.56
843.04	25024.13
843.22	25179.78
843.40	24694.41
843.57	24942.21
843.75	25085.57
843.92	25003.65
844.10	24706.70
844.28	24870.53
844.45	24661.64
844.63	24749.70
844.81	24747.65
844.98	24854.15
845.16	24536.71
845.33	24620.68
845.51	24743.56
845.69	24540.81
845.86	24307.34
846.04	24512.14
846.21	24725.13
846.39	24190.61
846.57	23963.28
846.74	24237.71
846.92	24473.23
847.09	23991.95
847.27	23928.47
847.45	24157.84
847.62	23957.14
847.80	24010.39
847.97	23996.05
848.15	23824.02
848.32	23824.02
848.50	23842.45
848.68	23725.72
848.85	23664.28
849.03	23697.05
849.20	23813.78
849.38	23678.61
849.56	23903.89
849.73	23512.73
849.91	23602.84
850.08	23799.44
850.26	23305.88
850.43	23262.88
850.61	23502.49
850.78	23015.07
850.96	23484.06
851.14	23463.58
851.31	23305.88
851.49	23416.47
851.66	23389.85
851.84	23119.52
852.01	23369.37
852.19	23226.01
852.36	23307.93
852.54	23203.49
852.71	23211.68
852.89	22933.15
853.07	22890.15
853.24	22714.02
853.42	22634.15
853.59	22851.24
853.77	22972.07
853.94	22916.77
854.12	22863.52
854.29	22599.34
854.47	22517.42
854.64	22660.77
854.82	22552.23
854.99	22634.15
855.17	22550.18
855.34	22427.31
855.52	22607.53
855.69	22679.21
855.87	22292.14
856.04	22210.22
856.22	22304.43
856.39	22109.87
856.57	22531.75
856.74	22146.73
856.92	22486.70
857.09	21972.66
857.27	22105.77
857.44	22101.68
857.62	22550.18
857.79	21896.88
857.97	21978.80
858.14	21880.50
858.32	21933.75
858.49	22167.21
858.67	22056.62
858.84	21792.44
859.02	21458.62
859.19	21731.00
859.37	21653.17
859.54	21620.41
859.72	21878.45
859.89	21595.83
860.06	21790.39
860.24	21599.93
860.41	21714.61
860.59	21495.48
860.76	21532.34
860.94	21380.79
861.11	21411.51
861.29	21366.46
861.46	21438.14
861.64	21001.92
861.81	21376.70
861.98	21554.87
862.16	21055.17
862.33	21143.23
862.51	21147.33
862.68	21302.97
862.86	20938.43
863.03	21182.14
863.21	21104.32
863.38	20584.13
863.55	20577.99
863.73	20786.88
863.90	20909.76
864.08	20858.56
864.25	20745.92
864.43	20795.07
864.60	20772.55
864.77	20455.11
864.95	20735.68
865.12	20584.13
865.30	20788.93
865.47	20440.78
865.64	20586.18
865.82	20491.98
865.99	20760.26
866.17	20278.99
866.34	20455.11
866.51	20162.25
866.69	20741.83
866.86	20606.66
867.04	20156.11
867.21	20483.78
867.38	20229.84
867.56	20090.57
867.73	19877.58
867.91	19820.24
868.08	20012.75
868.25	20348.62
868.43	20086.48
868.60	19994.32
868.78	19951.31
868.95	20008.65
869.12	19906.26
869.30	19988.18
869.47	19730.13
869.64	19711.70
869.82	19676.88
869.99	19728.08
870.16	19701.46
870.34	19760.85
870.51	19728.08
870.69	19316.44
870.86	19488.47
871.03	19416.79
871.21	19222.23
871.38	19400.41
871.55	19207.90
871.73	19637.97
871.90	19246.81
872.07	19093.21
872.25	19214.04
872.42	19046.11
872.59	18849.50
872.77	19015.39
872.94	18939.62
873.11	18767.59
873.29	19085.02
873.46	18767.59
873.63	18689.76
873.81	18568.93
873.98	18679.52
874.15	18640.61
874.33	18736.87
874.50	18548.45
874.67	18497.25
874.85	18669.28
875.02	18620.13
875.19	18550.50
875.37	18685.67
875.54	18366.18
875.71	18253.55
875.88	18407.14
876.06	18507.49
876.23	18108.14
876.40	18085.61
876.58	18140.91
876.75	18155.24
876.92	18368.23
877.10	17975.02
877.27	18003.69
877.44	17938.16
877.61	17764.08
877.79	17843.95
877.96	17731.31
878.13	17895.15
878.31	17655.54
878.48	17651.44
878.65	17780.46
878.82	17567.48
879.00	17831.66
879.17	17616.63
879.34	17186.55
879.51	17452.79
879.69	17245.94
879.86	17299.19
880.03	17276.66
880.21	17499.89
880.38	17207.03
880.55	17266.42
880.72	17225.47
880.90	17334.01
881.07	17356.54
881.24	17166.07
881.41	17104.64
881.59	17174.27
881.76	17221.37
881.93	17059.58
882.10	16873.21
882.28	16895.74
882.45	16860.93
882.62	16928.51
882.79	16920.32
882.96	16715.52
883.14	16684.80
883.31	16977.66
883.48	16860.93
883.65	16926.46
883.83	17016.57
884.00	16729.86
884.17	16719.62
884.34	17030.91
884.51	16705.28
884.69	16684.80
884.86	16633.60
885.03	16676.61
885.20	16310.02
885.38	16549.64
885.55	16467.72
885.72	16596.74
885.89	16563.97
886.06	16703.23
886.24	16353.03
886.41	16408.33
886.58	16512.77
886.75	16738.05
886.92	16140.04
887.10	16437.00
887.27	16090.89
887.44	16314.12
887.61	16297.74
887.78	16342.79
887.95	16232.20
888.13	16119.56
888.30	16193.29
888.47	16125.71
888.64	16252.68
888.81	15959.82
888.99	16049.93
889.16	15865.61
889.33	15888.14
889.50	15935.24
889.67	16197.38
889.84	15804.17
890.01	15836.94
890.19	15894.29
890.36	15740.69
890.53	15654.67
890.70	15761.17
890.87	15591.19
891.04	15421.20
891.22	15439.64
891.39	15537.94
891.56	15327.00
891.73	15687.44
891.90	15333.14
892.07	15582.99
892.24	15597.33
892.42	15447.83
892.59	15365.91
892.76	15304.47
892.93	15283.99
893.10	15511.32
893.27	15345.43
893.44	15179.54
893.61	15275.80
893.79	15779.60
893.96	15343.38
894.13	15345.43
894.30	15339.29
894.47	15073.05
894.64	15511.32
894.81	14962.46
894.98	15283.99
895.15	15181.59
895.33	15157.02
895.50	14997.28
895.67	15095.58
895.84	15236.89
896.01	15118.11
896.18	15032.09
896.35	15265.56
896.52	14974.75
896.69	14890.78
896.86	14950.17
897.04	15245.08
897.21	15103.77
897.38	15019.80
897.55	14829.34
897.72	15200.02
897.89	15066.91
898.06	15126.30
898.23	15036.19
898.40	15042.33
898.57	15136.54
898.74	14923.55
898.91	15095.58
899.08	15066.91
899.26	14884.64
899.43	15249.18
899.60	14780.19
899.77	14944.03
899.94	14821.15
900.11	14817.05
900.28	14909.21
900.45	14968.60
900.62	14919.45
900.79	15025.95
900.96	14964.51
901.13	14915.36
901.30	14907.16
901.47	14763.81
901.64	15013.66
901.81	15027.99
901.98	14870.30
902.15	15075.10
902.32	14933.79
902.49	14855.97
902.66	14939.93
902.83	15011.61
903.01	15054.62
903.18	15118.11
903.35	15105.82
903.52	14933.79
903.69	15132.44
903.86	15116.06
904.03	14993.18
904.20	15068.95
904.37	14917.40
904.54	14997.28
904.71	14817.05
904.88	14989.08
905.05	15013.66
905.22	14995.23
905.39	14837.53
905.56	15048.47
905.73	14690.08
905.90	14984.99
906.07	15122.20
906.24	15081.24
906.41	14851.87
906.58	15107.87
906.75	14724.90
906.92	14671.65
907.09	15038.23
907.26	14886.68
907.43	14526.24
907.60	14950.17
907.77	15040.28
907.93	14987.04
908.10	14915.36
908.27	14982.94
908.44	14882.59
908.61	14970.65
908.78	14821.15
908.95	14878.49
909.12	14974.75
909.29	14794.53
909.46	14817.05
909.63	14753.57
909.80	14772.00
909.97	14931.74
910.14	14710.56
910.31	14688.03
910.48	14526.24
910.65	14524.19
910.82	14679.84
910.99	14624.54
911.16	14446.37
911.33	14458.66
911.50	14503.71
911.66	14407.46
911.83	14573.35
912.00	14466.85
912.17	14350.12
912.34	14337.83
912.51	14575.39
912.68	14610.21
912.85	14341.93
913.02	14389.03
913.19	14270.25
913.36	14167.85
913.53	14532.39
913.70	14483.24
913.86	14526.24
914.03	14272.29
914.20	14393.12
914.37	14268.20
914.54	14366.50
914.71	14260.01
914.88	14153.51
915.05	13967.15
915.22	14145.32
915.39	14321.45
915.55	13942.57
915.72	13918.00
915.89	14135.08
916.06	13893.42
916.23	13997.87
916.40	13903.66
916.57	13889.32
916.74	13770.54
916.91	13989.67
917.07	13870.89
917.24	13639.47
917.41	13682.48
917.58	13725.49
917.75	13627.18
917.92	13344.56
918.09	13590.32
918.26	13565.74
918.42	13805.36
918.59	13641.52
918.76	13563.70
918.93	13389.62
919.10	13371.19
919.27	13340.47
919.44	13422.39
919.60	13457.20
919.77	13242.17
919.94	13272.89
920.11	13102.90
920.28	13143.86
920.45	12994.36
920.61	13193.01
920.78	13076.28
920.95	12990.27
921.12	12994.36
921.29	12875.58
921.46	12734.27
921.62	12748.61
921.79	12678.97
921.96	12638.02
922.13	12764.99
922.30	12613.44
922.47	12447.55
922.63	12531.52
922.80	12463.94
922.97	12257.09
923.14	12324.68
923.31	12480.32
923.47	12232.52
923.64	12603.20
923.81	12173.13
923.98	12332.87
924.15	12085.06
924.32	12248.90
924.48	11886.41
924.65	12113.74
924.82	11890.51
924.99	11892.55
925.15	11956.04
925.32	12052.30
925.49	11800.40
925.66	11884.36
925.83	11958.09
925.99	11800.40
926.16	11659.09
926.33	11620.17
926.50	11583.31
926.67	11624.27
926.83	11597.65
927.00	11708.24
927.17	11429.71
927.34	11331.41
927.50	11353.94
927.67	11540.30
927.84	11460.43
928.01	11382.61
928.17	11243.35
928.34	10993.50
928.51	10923.87
928.68	10968.92
928.84	10985.30
929.01	11106.13
929.18	10635.10
929.35	10751.84
929.51	10895.19
929.68	10723.16
929.85	10665.82
930.02	10538.85
930.18	10647.39
930.35	10643.29
930.52	10602.33
930.69	10456.93
930.85	10522.46
931.02	10360.67
931.19	10370.91
931.36	10403.68
931.52	10293.09
931.69	10463.07
931.86	10422.11
932.02	10301.28
932.19	10094.44
932.36	10071.91
932.53	9967.46
932.69	9996.14
932.86	10078.05
933.03	9989.99
933.19	9576.30
933.36	9834.35
933.53	9817.96
933.70	9740.14
933.86	9676.65
934.03	9789.29
934.20	9576.30
934.36	9588.59
934.53	9269.11
934.70	9332.59
934.86	9248.63
935.03	9197.43
935.20	9164.66
935.36	9172.85
935.53	8912.76
935.70	8978.30
935.86	8986.49
936.03	8957.82
936.20	8777.59
936.36	8761.21
936.53	8611.71
936.70	8560.51
936.86	8652.67
937.03	8406.91
937.20	8294.27
937.36	8445.82
937.53	8122.24
937.70	8056.71
937.86	7790.47
938.03	7882.63
938.20	8003.46
938.36	7722.89
938.53	7749.51
938.70	7350.16
938.86	7649.16
939.03	7352.21
939.20	7366.54
939.36	7362.45
939.53	7380.88
939.70	7423.89
939.86	6918.04
940.03	6903.70
940.19	6973.33
940.36	6821.78
940.53	6576.03
940.69	6647.71
940.86	6862.74
941.03	6516.64
941.19	6344.61
941.36	6573.98
941.52	6537.12
941.69	6455.20
941.86	6313.89
942.02	6172.58
942.19	6236.06
942.35	6186.91
942.52	6031.27
942.69	6004.64
942.85	5984.16
943.02	5883.81
943.18	5894.05
943.35	6102.95
943.52	5787.56
943.68	5877.67
943.85	5744.55
944.01	5762.98
944.18	5615.53
944.35	5713.83
944.51	5691.31
944.68	5502.89
944.84	5652.39
945.01	5562.28
945.17	5568.43
945.34	5736.36
945.51	5511.08
945.67	5562.28
945.84	5605.29
946.00	5343.15
946.17	5427.12
946.33	5232.56
946.50	5439.40
946.67	5339.05
946.83	5365.68
947.00	5408.69
947.16	5519.28
947.33	5363.63
947.49	5398.45
947.66	5320.62
947.82	5384.11
947.99	5283.76
948.16	5257.14
948.32	5289.90
948.49	5398.45
948.65	5390.25
948.82	5312.43
948.98	5363.63
949.15	5267.38
949.31	5545.90
949.48	5394.35
949.64	5388.21
949.81	5337.01
949.97	5320.62
950.14	5439.40
950.30	5308.34
950.47	5541.80
950.63	5375.92
950.80	5382.06
950.96	5431.21
951.13	5214.13
951.30	5535.66
951.46	5474.22
951.63	5420.97
951.79	5308.34
951.96	5660.59
952.12	5461.93
952.29	5498.80
952.45	5402.54
952.62	5541.80
952.78	5574.57
952.94	5529.52
953.11	5435.31
953.27	5402.54
953.44	5672.87
953.60	5418.93
953.77	5674.92
953.93	5638.06
954.10	5445.55
954.26	5547.95
954.43	5521.32
954.59	5537.71
954.76	5480.36
954.92	5582.76
955.09	5509.04
955.25	5529.52
955.42	5531.56
955.58	5656.49
955.75	5603.24
955.91	5599.15
956.07	5365.68
956.24	5541.80
956.40	5703.59
956.57	5662.63
956.73	5451.69
956.90	5500.84
957.06	5664.68
957.23	5582.76
957.39	5414.83
957.56	5683.11
957.72	5615.53
957.88	5404.59
958.05	5640.11
958.21	5746.60
958.38	5552.04
958.54	5545.90
958.71	5603.24
958.87	5463.98
959.03	5609.39
959.20	5490.60
959.36	5506.99
959.53	5506.99
959.69	5486.51
959.85	5541.80
960.02	5568.43
960.18	5650.35
960.35	5621.67
960.51	5722.02
960.68	5468.08
960.84	5545.90
961.00	5642.15
961.17	5515.18
961.33	5574.57
961.50	5689.26
961.66	5523.37
961.82	5427.12
961.99	5484.46
962.15	5388.21
962.31	5597.10
962.48	5564.33
962.64	5631.91
962.81	5541.80
962.97	5558.19
963.13	5574.57
963.30	5572.52
963.46	5375.92
963.62	5463.98
963.79	5679.02
963.95	5437.36
964.12	5525.42
964.28	5605.29
964.44	5414.83
964.61	5541.80
964.77	5472.17
964.93	5593.00
965.10	5490.60
965.26	5486.51
965.42	5359.53
965.59	5353.39
965.75	5427.12
965.92	5523.37
966.08	5369.77
966.24	5398.45
966.41	5369.77
966.57	5425.07
966.73	5447.60
966.90	5427.12
967.06	5482.41
967.22	5355.44
967.39	5154.74
967.55	5357.49
967.71	5296.05
967.88	5357.49
968.04	5205.94
968.20	5359.53
968.37	5294.00
968.53	5287.86
968.69	5271.47
968.85	5330.86
969.02	5332.91
969.18	5253.04
969.34	5113.78
969.51	5261.23
969.67	5353.39
969.83	5205.94
970.00	5300.14
970.16	5185.46
970.32	5304.24
970.48	5220.27
970.65	5126.07
970.81	5038.00
970.97	5119.92
971.14	5187.50
971.30	5253.04
971.46	5066.67
971.63	5091.25
971.79	5250.99
971.95	5003.19
972.11	5042.10
972.28	5193.65
972.44	5040.05
972.60	5046.20
972.76	5156.79
972.93	4976.56
973.09	5195.70
973.25	5152.69
973.42	4947.89
973.58	5087.15
973.74	5058.48
973.90	4917.17
974.07	4943.80
974.23	4884.41
974.39	5095.35
974.55	4931.51
974.72	4906.93
974.88	4870.07
975.04	4931.51
975.20	4847.54
975.37	4859.83
975.53	4741.05
975.69	4898.74
975.85	4759.48
976.01	4792.25
976.18	4925.36
976.34	4745.14
976.50	4827.06
976.66	4841.40
976.83	4855.73
976.99	4820.92
977.15	4720.57
977.31	4622.27
977.47	4812.73
977.64	4636.60
977.80	4683.70
977.96	4710.33
978.12	4736.95
978.29	4552.63
978.45	4612.03
978.61	4648.89
978.77	4636.60
978.93	4511.68
979.10	4599.74
979.26	4573.11
979.42	4474.81
979.58	4491.20
979.74	4726.71
979.91	4591.55
980.07	4419.52
980.23	4591.55
980.39	4411.32
980.55	4534.20
980.71	4599.74
980.88	4687.80
981.04	4509.63
981.20	4403.13
981.36	4433.85
981.52	4478.91
981.68	4392.89
981.85	4458.43
982.01	4483.00
982.17	4362.17
982.33	4374.46
982.49	4468.67
982.65	4353.98
982.82	4501.44
982.98	4401.08
983.14	4157.38
983.30	4325.31
983.46	4405.18
983.62	4294.59
983.79	4231.10
983.95	4255.68
984.11	4259.78
984.27	4329.41
984.43	4267.97
984.59	4235.20
984.75	4370.37
984.91	4304.83
985.08	4263.87
985.24	4153.28
985.40	4229.06
985.56	4128.70
985.72	4261.82
985.88	4261.82
986.04	4202.43
986.20	4085.70
986.37	4143.04
986.53	4018.11
986.69	4161.47
986.85	3973.06
987.01	3960.77
987.17	4288.45
987.33	4042.69
987.49	4007.87
987.65	4081.60
987.82	4143.04
987.98	4067.27
988.14	4001.73
988.30	3985.35
988.46	3960.77
988.62	4095.94
988.78	3985.35
988.94	3979.20
989.10	3844.04
989.26	3958.72
989.42	3735.50
989.59	3805.13
989.75	3811.27
989.91	3975.11
990.07	3747.78
990.23	3762.12
990.39	3760.07
990.55	3952.58
990.71	3928.00
990.87	3837.89
991.03	3950.53
991.19	3710.92
991.35	3813.32
991.51	3825.61
991.67	3860.42
991.83	3811.27
992.00	3747.78
992.16	3856.33
992.32	3768.26
992.48	3708.87
992.64	3567.56
992.80	3733.45
992.96	3739.59
993.12	3696.58
993.28	3778.50
993.44	3735.50
993.60	3798.98
993.76	3747.78
993.92	3715.02
994.08	3727.30
994.24	3813.32
994.40	3723.21
994.56	3708.87
994.72	3577.80
994.88	3497.93
995.04	3565.51
995.20	3575.75
995.36	3522.51
995.52	3620.81
995.68	3575.75
995.84	3491.79
996.00	3571.66
996.16	3489.74
996.32	3575.75
996.48	3483.59
996.64	3483.59
996.80	3600.33
996.96	3551.18
997.12	3590.09
997.28	3450.83
997.44	3461.07
997.60	3379.15
997.76	3446.73
997.92	3481.55
998.08	3452.88
998.24	3338.19
998.40	3469.26
998.56	3395.53
998.72	3223.50
998.88	3258.32
999.04	3336.14
999.20	3399.63
999.36	3246.03
999.52	3420.11
999.68	3305.42
999.84	3344.33
1000.00	3416.01
1000.16	3407.82
1000.32	3164.11
1000.48	3446.73
1000.64	3172.30
1000.80	3149.78
1000.95	3217.36
1001.11	3297.23
1001.27	3090.38
1001.43	3272.65
1001.59	3223.50
1001.75	3231.69
1001.91	3248.08
1002.07	3133.39
1002.23	3186.64
1002.39	3239.89
1002.55	3170.26
1002.71	3090.38
1002.87	3160.02
1003.03	3157.97
1003.19	3100.62
1003.34	3196.88
1003.50	3137.49
1003.66	3114.96
1003.82	3043.28
1003.98	3008.47
1004.14	3071.95
1004.30	3018.71
1004.46	3037.14
1004.62	2979.79
1004.78	3000.27
1004.94	3016.66
1005.09	3002.32
1005.25	2959.31
1005.41	2906.07
1005.57	2949.08
1005.73	2955.22
1005.89	2947.03
1006.05	3039.19
1006.21	2987.99
1006.37	2912.21
1006.52	2961.36
1006.68	2938.84
1006.84	3026.90
1007.00	2994.13
1007.16	2953.17
1007.32	2906.07
1007.48	2850.77
1007.64	2820.05
1007.79	2877.40
1007.95	2832.34
1008.11	2944.98
1008.27	2789.33
1008.43	2891.73
1008.59	2809.81
1008.75	2899.92
1008.91	2875.35
1009.06	2762.71
1009.22	2873.30
1009.38	2842.58
1009.54	2928.60
1009.70	2885.59
1009.86	2815.96
1010.01	2807.77
1010.17	2717.65
1010.33	2875.35
1010.49	2793.43
1010.65	2959.31
1010.81	2742.23
1010.96	2705.37
1011.12	2699.22
1011.28	2650.07
1011.44	2682.84
1011.60	2666.46
1011.76	2617.30
1011.91	2754.52
1012.07	2736.09
1012.23	2637.78
1012.39	2631.64
1012.55	2695.13
1012.71	2633.69
1012.86	2641.88
1013.02	2609.11
1013.18	2629.59
1013.34	2553.82
1013.50	2791.38
1013.65	2590.68
1013.81	2533.34
1013.97	2639.83
1014.13	2541.53
1014.29	2514.91
1014.44	2688.98
1014.60	2629.59
1014.76	2609.11
1014.92	2637.78
1015.07	2600.92
1015.23	2615.26
1015.39	2494.43
1015.55	2539.48
1015.71	2625.50
1015.86	2582.49
1016.02	2496.47
1016.18	2469.85
1016.34	2519.00
1016.49	2541.53
1016.65	2650.07
1016.81	2492.38
1016.97	2516.95
1017.12	2525.15
1017.28	2432.99
1017.44	2396.12
1017.60	2332.64
1017.75	2523.10
1017.91	2527.19
1018.07	2457.56
1018.23	2430.94
1018.38	2398.17
1018.54	2412.51
1018.70	2400.22
1018.86	2342.88
1019.01	2426.84
1019.17	2394.08
1019.33	2457.56
1019.49	2449.37
1019.64	2432.99
1019.80	2340.83
1019.96	2432.99
1020.12	2371.55
1020.27	2357.21
1020.43	2367.45
1020.59	2418.65
1020.74	2389.98
1020.90	2377.69
1021.06	2334.68
1021.22	2303.96
1021.37	2301.92
1021.53	2281.44
1021.69	2367.45
1021.84	2279.39
1022.00	2383.84
1022.16	2244.57
1022.31	2299.87
1022.47	2363.36
1022.63	2314.20
1022.79	2158.56
1022.94	2351.07
1023.10	2320.35
1023.26	2324.44
1023.41	2252.77
1023.57	2236.38
1023.73	2220.00
1023.88	2244.57
1024.04	2213.85
1024.20	2252.77
1024.35	2334.68
1024.51	2248.67
1024.67	2181.09
1024.82	2271.20
1024.98	2234.33
1025.14	2250.72
1025.29	2203.61
1025.45	2279.39
1025.61	2107.36
1025.76	2256.86
1025.92	2246.62
1026.08	2146.27
1026.23	2187.23
1026.39	2232.29
1026.55	2183.13
1026.70	2140.13
1026.86	2111.46
1027.02	2170.85
1027.17	2097.12
1027.33	2199.52
1027.48	2142.18
1027.64	2148.32
1027.80	2170.85
1027.95	2189.28
1028.11	2078.69
1028.27	2017.25
1028.42	2125.79
1028.58	2064.35
1028.73	2050.02
1028.89	2084.83
1029.05	2250.72
1029.20	2244.57
>>>>>End Processed Spectral Data<<<<<
