SpectraSuite Data File
++++++++++++++++++++++++++++++++++++
Date: Fri Jun 02 14:47:56 CEST 2017
User: INFO_000
Dark Spectrum Present: No
Reference Spectrum Present: No
Number of Sampled Component Spectra: 1
Spectrometers: USB4H00879
Integration Time (usec): 80000 (USB4H00879)
Spectra Averaged: 1 (USB4H00879)
Boxcar Smoothing: 0 (USB4H00879)
Correct for Electrical Dark: No (USB4H00879)
Strobe/Lamp Enabled: No (USB4H00879)
Correct for Detector Non-linearity: No (USB4H00879)
Correct for Stray Light: No (USB4H00879)
Number of Pixels in Processed Spectrum: 3648
>>>>>Begin Processed Spectral Data<<<<<
345.13	1337.32
345.34	1337.32
345.56	1337.32
345.78	1290.22
345.99	1271.79
346.21	1724.39
346.42	1689.57
346.64	1599.46
346.86	1710.05
347.07	1607.66
347.29	1697.77
347.50	1601.51
347.72	1675.24
347.94	1716.20
348.15	1626.09
348.37	1628.14
348.59	1675.24
348.80	1652.71
349.02	1789.92
349.23	1861.60
349.45	1867.75
349.67	1918.95
349.88	1724.39
350.10	1943.52
350.31	1839.08
350.53	1837.03
350.75	2031.58
350.96	1740.77
351.18	1843.17
351.39	1875.94
351.61	1853.41
351.82	1900.52
352.04	1918.95
352.26	1771.49
352.47	1896.42
352.69	1920.99
352.90	1705.96
353.12	1902.56
353.34	1847.27
353.55	1953.76
353.77	1931.23
353.98	1818.60
354.20	1888.23
354.41	1867.75
354.63	1912.80
354.85	2013.15
355.06	1929.19
355.28	1769.44
355.49	1859.56
355.71	1968.10
355.92	1869.80
356.14	1998.82
356.35	1869.80
356.57	1816.55
356.79	1910.75
357.00	1859.56
357.22	1964.00
357.43	1888.23
357.65	2019.30
357.86	1841.12
358.08	1832.93
358.29	1972.19
358.51	2000.87
358.72	1970.15
358.94	1961.95
359.16	1920.99
359.37	1914.85
359.59	1939.43
359.80	1974.24
360.02	1943.52
360.23	2000.87
360.45	2031.58
360.66	1920.99
360.88	1886.18
361.09	1937.38
361.31	1986.53
361.52	1886.18
361.74	2101.22
361.95	2060.26
362.17	1910.75
362.38	2080.74
362.60	2090.98
362.81	2025.44
363.03	1900.52
363.24	2060.26
363.46	2009.06
363.67	2029.54
363.89	1986.53
364.10	2002.91
364.32	1861.60
364.53	2056.16
364.75	1865.70
364.96	1957.86
365.18	1966.05
365.39	2029.54
365.61	2064.35
365.82	2105.31
366.04	2021.35
366.25	1984.48
366.47	2047.97
366.68	2072.54
366.90	1937.38
367.11	2074.59
367.33	2117.60
367.54	2043.87
367.76	1947.62
367.97	2056.16
368.19	2041.82
368.40	2047.97
368.62	1912.80
368.83	1968.10
369.05	2000.87
369.26	2035.68
369.48	2072.54
369.69	1947.62
369.91	2101.22
370.12	2000.87
370.33	2115.55
370.55	2009.06
370.76	2068.45
370.98	2156.51
371.19	2115.55
371.41	2019.30
371.62	2080.74
371.84	2002.91
372.05	2211.81
372.27	2052.06
372.48	2004.96
372.69	2090.98
372.91	2129.89
373.12	2164.70
373.34	2039.78
373.55	2084.83
373.77	2267.10
373.98	2197.47
374.20	2144.22
374.41	2277.34
374.62	2050.02
374.84	2179.04
375.05	2138.08
375.27	2174.94
375.48	2138.08
375.70	2146.27
375.91	2242.53
376.12	2213.85
376.34	2146.27
376.55	2199.52
376.77	2265.05
376.98	2097.12
377.19	2191.33
377.41	2127.84
377.62	2191.33
377.84	2211.81
378.05	2320.35
378.27	2152.42
378.48	2283.49
378.69	2273.25
378.91	2334.68
379.12	2164.70
379.34	2211.81
379.55	2330.59
379.76	2283.49
379.98	2230.24
380.19	2256.86
380.41	2289.63
380.62	2392.03
380.83	2156.51
381.05	2213.85
381.26	2404.32
381.47	2265.05
381.69	2283.49
381.90	2394.08
382.12	2318.30
382.33	2293.72
382.54	2330.59
382.76	2357.21
382.97	2291.68
383.19	2334.68
383.40	2367.45
383.61	2277.34
383.83	2269.15
384.04	2289.63
384.25	2394.08
384.47	2344.92
384.68	2394.08
384.89	2281.44
385.11	2328.54
385.32	2318.30
385.54	2338.78
385.75	2353.12
385.96	2330.59
386.18	2432.99
386.39	2478.04
386.60	2375.64
386.82	2416.60
387.03	2387.93
387.24	2529.24
387.46	2265.05
387.67	2371.55
387.88	2478.04
388.10	2496.47
388.31	2533.34
388.52	2521.05
388.74	2447.32
388.95	2392.03
389.16	2506.71
389.38	2473.95
389.59	2600.92
389.80	2633.69
390.02	2549.72
390.23	2568.15
390.44	2541.53
390.66	2602.97
390.87	2498.52
391.08	2547.67
391.30	2648.02
391.51	2609.11
391.72	2678.74
391.94	2566.10
392.15	2693.08
392.36	2559.96
392.58	2572.25
392.79	2721.75
393.00	2666.46
393.22	2731.99
393.43	2713.56
393.64	2729.94
393.85	2725.85
394.07	2658.26
394.28	2756.57
394.49	2746.33
394.71	2799.57
394.92	2809.81
395.13	2791.38
395.35	2707.41
395.56	2740.18
395.77	2658.26
395.98	2879.44
396.20	2897.88
396.41	2772.95
396.62	2846.68
396.84	2850.77
397.05	2865.11
397.26	2904.02
397.47	2846.68
397.69	2828.24
397.90	2998.23
398.11	2918.36
398.32	2918.36
398.54	2936.79
398.75	2858.96
398.96	2969.55
399.18	3117.01
399.39	2910.16
399.60	2881.49
399.81	2930.64
400.03	2924.50
400.24	3139.54
400.45	2985.94
400.66	2969.55
400.88	2895.83
401.09	3160.02
401.30	3051.47
401.51	3203.02
401.73	3026.90
401.94	3139.54
402.15	3131.34
402.36	3137.49
402.58	3170.26
402.79	3157.97
403.00	3166.16
403.21	3248.08
403.43	3174.35
403.64	3243.98
403.85	3172.30
404.06	3217.36
404.27	3026.90
404.49	3135.44
404.70	3092.43
404.91	3330.00
405.12	3252.17
405.34	3143.63
405.55	3393.48
405.76	3266.51
405.97	3297.23
406.19	3442.64
406.40	3293.13
406.61	3342.28
406.82	3315.66
407.03	3260.37
407.25	3307.47
407.46	3399.63
407.67	3450.83
407.88	3428.30
408.09	3344.33
408.31	3266.51
408.52	3432.40
408.73	3485.64
408.94	3276.75
409.15	3401.68
409.37	3393.48
409.58	3592.14
409.79	3585.99
410.00	3534.79
410.21	3502.03
410.43	3512.27
410.64	3420.11
410.85	3530.70
411.06	3590.09
411.27	3602.38
411.48	3622.86
411.70	3542.99
411.91	3530.70
412.12	3653.58
412.33	3682.25
412.54	3557.32
412.76	3647.43
412.97	3600.33
413.18	3573.71
413.39	3499.98
413.60	3612.62
413.81	3592.14
414.03	3686.34
414.24	3563.47
414.45	3803.08
414.66	3600.33
414.87	3682.25
415.08	3598.28
415.30	3700.68
415.51	3805.13
415.72	3672.01
415.93	3798.98
416.14	3717.06
416.35	3837.89
416.56	3880.90
416.78	3747.78
416.99	3854.28
417.20	3868.61
417.41	3876.80
417.62	3860.42
417.83	4083.65
418.04	3948.48
418.26	3913.67
418.47	3846.09
418.68	3971.01
418.89	3917.76
419.10	4097.99
419.31	3862.47
419.52	4048.83
419.73	3911.62
419.95	4118.47
420.16	3882.95
420.37	3934.15
420.58	4067.27
420.79	3895.24
421.00	4071.36
421.21	3979.20
421.42	4034.50
421.63	4212.67
421.85	3940.29
422.06	4181.95
422.27	4114.37
422.48	4063.17
422.69	4212.67
422.90	4124.61
423.11	4192.19
423.32	4272.06
423.53	4446.14
423.75	4286.40
423.96	4382.65
424.17	4206.53
424.38	4556.73
424.59	4325.31
424.80	4472.76
425.01	4331.45
425.22	4245.44
425.43	4378.56
425.64	4503.48
425.85	4440.00
426.06	4435.90
426.28	4597.69
426.49	4374.46
426.70	4544.44
426.91	4468.67
427.12	4540.35
427.33	4566.97
427.54	4616.12
427.75	4638.65
427.96	4890.55
428.17	4587.45
428.38	4773.82
428.59	4759.48
428.80	4757.43
429.01	4812.73
429.23	4702.14
429.44	4814.77
429.65	4829.11
429.86	4941.75
430.07	4960.18
430.28	4888.50
430.49	5015.48
430.70	4999.09
430.91	5054.39
431.12	5062.58
431.33	5066.67
431.54	5115.83
431.75	5093.30
431.96	5105.59
432.17	5060.53
432.38	5058.48
432.59	5230.51
432.80	5175.22
433.01	5228.46
433.22	5289.90
433.43	5236.66
433.64	5287.86
433.85	5322.67
434.06	5287.86
434.27	5300.14
434.49	5394.35
434.70	5437.36
434.91	5517.23
435.12	5468.08
435.33	5400.49
435.54	5431.21
435.75	5398.45
435.96	5470.12
436.17	5433.26
436.38	5588.91
436.59	5687.21
436.80	5558.19
437.01	5676.97
437.22	5846.95
437.43	5648.30
437.64	5586.86
437.85	5832.62
438.06	5879.72
438.27	5588.91
438.48	5748.65
438.69	5863.33
438.90	5892.01
439.11	5695.40
439.32	5988.26
439.53	5889.96
439.74	5963.68
439.95	5957.54
440.16	5904.29
440.37	6094.76
440.57	5889.96
440.78	6096.80
440.99	5957.54
441.20	5953.45
441.41	5994.40
441.62	5996.45
441.83	6012.84
442.04	6158.24
442.25	6064.04
442.46	6137.76
442.67	6242.21
442.88	6606.75
443.09	6154.15
443.30	6266.78
443.51	6166.43
443.72	6490.01
443.93	6092.71
444.14	6436.77
444.35	6201.25
444.56	6221.73
444.77	6391.71
444.98	6274.98
445.19	6369.18
445.40	6471.58
445.61	6272.93
445.81	6526.88
446.02	6453.15
446.23	6576.03
446.44	6238.11
446.65	6584.22
446.86	6647.71
447.07	6494.11
447.28	6799.26
447.49	6762.39
447.70	6543.26
447.91	6711.19
448.12	6614.94
448.33	6768.54
448.54	6616.99
448.74	6637.47
448.95	6731.67
449.16	6688.67
449.37	6971.29
449.58	6684.57
449.79	6940.57
450.00	6842.26
450.21	6932.37
450.42	7016.34
450.63	6852.50
450.84	6942.61
451.05	6920.09
451.25	7020.44
451.46	6889.37
451.67	7112.60
451.88	7229.33
452.09	7096.21
452.30	7008.15
452.51	7008.15
452.72	7051.16
452.93	7341.97
453.13	7077.78
453.34	7026.58
453.55	7253.91
453.76	7262.10
453.97	7514.00
454.18	7266.19
454.39	7417.74
454.60	7239.57
454.81	7274.38
455.01	7606.16
455.22	7264.15
455.43	7511.95
455.64	7776.14
455.85	7698.31
456.06	7726.99
456.27	7645.07
456.48	7565.20
456.68	7815.05
456.89	7737.23
457.10	7866.25
457.31	7870.34
457.52	7753.61
457.73	8003.46
457.94	7980.93
458.14	7753.61
458.35	8261.51
458.56	7946.12
458.77	7909.26
458.98	8146.82
459.19	8292.23
459.39	8183.68
459.60	8286.08
459.81	8146.82
460.02	8245.12
460.23	8347.52
460.44	8601.47
460.65	8505.21
460.85	8703.87
461.06	8664.96
461.27	8507.26
461.48	8669.05
461.69	8787.83
461.89	8439.68
462.10	8744.83
462.31	8546.17
462.52	8710.01
462.73	8857.46
462.94	8941.43
463.14	8947.58
463.35	8957.82
463.56	9250.67
463.77	9201.52
463.98	9035.64
464.18	9187.19
464.39	9316.21
464.60	9226.10
464.81	9375.60
465.02	9367.41
465.23	9797.48
465.43	9344.88
465.64	9727.85
465.85	9740.14
466.06	9471.86
466.27	10082.15
466.47	9815.91
466.68	9836.39
466.89	9953.13
467.10	10051.43
467.30	9924.46
467.51	10057.57
467.72	10411.87
467.93	9924.46
468.14	10413.92
468.34	10186.60
468.55	10506.08
468.76	10585.95
468.97	10188.64
469.17	10719.07
469.38	10778.46
469.59	10884.95
469.80	10645.34
470.01	10776.41
470.21	10927.96
470.42	11308.88
470.63	11202.39
470.84	11016.02
471.04	11218.77
471.25	11169.62
471.46	11136.85
471.67	11605.84
471.87	11644.75
472.08	11673.42
472.29	11857.74
472.50	11355.99
472.70	11757.39
472.91	11638.61
473.12	11960.14
473.33	12183.37
473.53	12226.37
473.74	12269.38
473.95	12414.79
474.16	12205.89
474.36	12398.40
474.57	12678.97
474.78	12531.52
474.99	12609.34
475.19	12554.05
475.40	12863.29
475.61	12885.82
475.81	13068.09
476.02	13254.45
476.23	13186.87
476.44	13524.79
476.64	13643.57
476.85	13778.73
477.06	13383.48
477.27	13852.46
477.47	13721.39
477.68	13885.23
477.89	14178.09
478.09	14133.03
478.30	13872.94
478.51	14180.14
478.71	14485.28
478.92	14429.99
479.13	14438.18
479.34	14698.27
479.54	14636.83
479.75	14511.91
479.96	14821.15
480.16	14839.58
480.37	15023.90
480.58	15222.55
480.78	15462.16
480.99	15114.01
481.20	15568.66
481.41	15466.26
481.61	15671.06
481.82	15810.32
482.03	15822.61
482.23	15976.20
482.44	15947.53
482.65	16219.91
482.85	16281.35
483.06	16264.97
483.27	16305.93
483.47	16119.56
483.68	16226.06
483.89	16680.71
484.09	16299.78
484.30	16576.26
484.51	16910.08
484.71	16895.74
484.92	16883.45
485.13	17190.65
485.33	17102.59
485.54	17270.52
485.75	17657.59
485.95	17549.04
486.16	17587.96
486.37	17637.11
486.57	17639.15
486.78	17571.57
486.98	17645.30
487.19	17862.38
487.40	18122.48
487.60	18112.24
487.81	18245.35
488.02	18298.60
488.22	18114.28
488.43	18464.49
488.64	18587.36
488.84	18570.98
489.05	18874.08
489.25	18575.08
489.46	18855.65
489.67	18849.50
489.87	19056.35
490.08	18814.69
490.29	18972.38
490.49	19285.72
490.70	19298.01
490.90	19455.70
491.11	19414.74
491.32	19551.96
491.52	19390.17
491.73	19564.25
491.94	19629.78
492.14	19511.00
492.35	19478.23
492.55	20037.33
492.76	20213.45
492.97	20385.48
493.17	20235.98
493.38	20223.69
493.58	20225.74
493.79	20281.03
494.00	20491.98
494.20	20465.35
494.41	20563.65
494.61	20553.41
494.82	20635.33
495.02	20539.08
495.23	20762.31
495.44	21012.16
495.64	21096.13
495.85	20989.63
496.05	20973.25
496.26	20913.86
496.47	21442.23
496.67	21452.47
496.88	21690.04
497.08	21274.30
497.29	21647.03
497.49	21436.09
497.70	21628.60
497.91	21733.04
498.11	22185.65
498.32	22122.16
498.52	22058.67
498.73	22390.44
498.93	22216.36
499.14	22290.09
499.34	22374.06
499.55	22537.90
499.76	22300.33
499.96	22359.72
500.17	22511.27
500.37	22689.45
500.58	22609.58
500.78	22654.63
500.99	22912.67
501.19	23242.40
501.40	23004.83
501.60	23058.08
501.81	23152.29
502.02	23228.06
502.22	23015.07
502.43	23344.80
502.63	23467.67
502.84	23408.28
503.04	23330.46
503.25	23684.76
503.45	23520.92
503.66	23690.90
503.86	23602.84
504.07	24104.59
504.27	23746.20
504.48	24274.57
504.68	24188.56
504.89	24362.64
505.09	24075.92
505.30	24327.82
505.50	24161.94
505.71	24641.16
505.91	24688.26
506.12	24497.80
506.32	24454.79
506.53	24807.05
506.73	24903.30
506.94	24821.38
507.14	25020.03
507.35	25034.37
507.55	24751.75
507.76	25136.77
507.96	25140.86
508.17	24852.10
508.37	25259.65
508.58	25448.06
508.78	25597.56
508.99	25702.01
509.19	25857.65
509.40	25939.57
509.60	25890.42
509.81	25978.48
510.01	25740.92
510.22	25847.41
510.42	26027.63
510.63	25714.30
510.83	26060.40
511.04	26017.40
511.24	26525.29
511.44	26371.69
511.65	26367.60
511.85	26381.93
512.06	26433.13
512.26	26318.45
512.47	27022.95
512.67	26820.20
512.88	27018.85
513.08	26408.56
513.29	26867.30
513.49	26803.82
513.69	27100.77
513.90	27205.22
514.10	27025.00
514.31	27260.51
514.51	27598.43
514.72	27432.54
514.92	27532.89
515.13	27391.58
515.33	27383.39
515.53	27559.52
515.74	27641.43
515.94	27874.90
516.15	28046.93
516.35	27651.67
516.56	27846.23
516.76	28059.22
516.96	28042.84
517.17	28454.48
517.37	28257.87
517.58	28276.30
517.78	28677.71
517.99	28624.46
518.19	28784.20
518.39	28403.28
518.60	28802.63
518.80	28753.48
519.01	28825.16
519.21	29079.11
519.41	29404.74
519.62	29025.86
519.82	29486.65
520.03	28816.97
520.23	29244.99
520.43	28905.03
520.64	29728.31
520.84	29752.89
521.05	29490.75
521.25	29767.23
521.45	30113.33
521.66	29965.88
521.86	29818.42
522.07	29867.58
522.27	30144.05
522.47	30205.49
522.68	30322.23
522.88	30430.77
523.08	30881.32
523.29	30473.78
523.49	30512.69
523.70	30930.47
523.90	31010.34
524.10	31039.01
524.31	30690.86
524.51	30957.10
524.71	31143.46
524.92	30772.78
525.12	31168.04
525.33	31591.97
525.53	31292.96
525.73	31479.33
525.94	32017.94
526.14	31827.48
526.34	31899.16
526.55	31872.54
526.75	31911.45
526.95	32130.58
527.16	32011.80
527.36	32347.67
527.56	32366.10
527.77	32511.50
527.97	32386.58
528.17	32278.04
528.38	32523.79
528.58	32476.69
528.78	32718.35
528.99	32773.64
529.19	32964.10
529.39	32902.67
529.60	33129.99
529.80	33017.35
530.00	33095.18
530.21	33390.08
530.41	33433.09
530.61	33494.53
530.82	33263.11
531.02	33695.23
531.22	33502.72
531.43	33607.17
531.63	33779.20
531.83	34035.19
532.04	34151.93
532.24	33830.40
532.44	34450.93
532.64	34301.43
532.85	34178.55
533.05	34491.89
533.25	34881.00
533.46	34512.37
533.66	34723.31
533.86	34954.73
534.07	35104.23
534.27	34774.51
534.47	35102.18
534.67	34842.09
534.88	34582.00
535.08	35194.34
535.28	35298.79
535.49	35175.91
535.69	35573.22
535.89	35372.52
536.09	35347.94
536.30	35931.61
536.50	35810.78
536.70	35943.90
536.91	35708.38
537.11	35986.91
537.31	36013.53
537.51	35808.73
537.72	36249.05
537.92	36130.26
538.12	36691.41
538.32	36513.23
538.53	36685.26
538.73	36007.39
538.93	36535.76
539.13	36419.03
539.34	36527.57
539.54	36345.30
539.74	37105.10
539.94	36431.32
540.15	36718.03
540.35	37176.78
540.55	37266.89
540.75	37039.56
540.96	36984.27
541.16	37297.61
541.36	37170.63
541.56	36939.21
541.77	37225.93
541.97	37631.43
542.17	37518.79
542.37	37348.81
542.58	37672.39
542.78	37408.20
542.98	37492.16
543.18	37483.97
543.38	37944.76
543.59	37811.65
543.79	37651.91
543.99	37627.33
544.19	37717.44
544.40	38170.04
544.60	38069.69
544.80	37713.34
545.00	37901.76
545.20	38573.49
545.41	38075.84
545.61	38237.62
545.81	38446.52
546.01	38444.47
546.21	38454.71
546.42	38348.21
546.62	38598.07
546.82	38426.04
547.02	38720.95
547.22	38700.47
547.43	38722.99
547.63	38677.94
547.83	38770.10
548.03	38821.30
548.23	39130.54
548.44	38696.37
548.64	39054.76
548.84	39001.52
549.04	39261.61
549.24	39470.50
549.45	39247.27
549.65	39277.99
549.85	38978.99
550.05	39148.97
550.25	39456.17
550.45	39466.41
550.66	39650.72
550.86	39597.48
551.06	39411.11
551.26	39695.78
551.46	39579.04
551.66	39703.97
551.87	39847.33
552.07	40013.21
552.27	39663.01
552.47	40052.12
552.67	40207.77
552.87	39775.65
553.07	40015.26
553.28	40541.59
553.48	40510.87
553.68	40213.91
553.88	40496.53
554.08	40416.66
554.28	40265.11
554.48	40289.69
554.69	40381.85
554.89	40375.70
555.09	40246.68
555.29	40066.46
555.49	40422.81
555.69	40478.10
555.89	40596.88
556.10	40971.66
556.30	40613.27
556.50	40793.49
556.70	40992.14
556.90	40916.37
557.10	40902.03
557.30	40816.02
557.50	41178.51
557.70	41190.80
557.91	41211.28
558.11	41506.18
558.31	41461.13
558.51	41407.88
558.71	41264.52
558.91	41753.99
559.11	41170.32
559.31	41653.64
559.51	41627.01
559.72	41684.36
559.92	41678.21
560.12	41307.53
560.32	41993.60
560.52	42030.46
560.72	41969.02
560.92	42149.24
561.12	41969.02
561.32	42208.64
561.52	42014.08
561.72	42339.71
561.93	42669.43
562.13	42564.98
562.33	42007.94
562.53	42911.09
562.73	42040.70
562.93	42667.38
563.13	42628.47
563.33	42136.96
563.53	42472.82
563.73	42698.10
563.93	42874.23
564.13	43171.18
564.33	43068.78
564.53	42845.55
564.74	43001.20
564.94	42861.94
565.14	43103.60
565.34	43158.89
565.54	43378.03
565.74	43556.20
565.94	43568.49
566.14	43648.36
566.34	43246.96
566.54	43615.59
566.74	43279.72
566.94	43814.24
567.14	43654.50
567.34	44189.02
567.54	43853.15
567.74	44148.06
567.94	43816.29
568.14	44473.69
568.34	44092.77
568.54	44266.84
568.74	44635.48
568.94	44404.06
569.14	44516.70
569.34	44615.00
569.54	44791.12
569.75	44660.05
569.95	44397.91
570.15	45454.67
570.35	45321.55
570.55	44438.87
570.75	44825.94
570.95	45155.66
571.15	45151.57
571.35	45055.31
571.55	45391.18
571.75	45157.71
571.95	45315.40
572.15	45256.01
572.35	45573.45
572.55	45106.51
572.75	45184.33
572.95	45391.18
573.15	45725.00
573.35	45725.00
573.55	45491.53
573.75	45604.17
573.95	45989.19
574.15	46011.71
574.35	46036.29
574.55	45516.11
574.75	45761.86
574.95	46114.11
575.15	45929.80
575.34	46406.97
575.54	46351.68
575.74	46441.79
575.94	46417.21
576.14	46411.07
576.34	46738.74
576.54	46964.02
576.74	46951.73
576.94	46964.02
577.14	47230.26
577.34	46966.07
577.54	46824.76
577.74	47258.93
577.94	47222.06
578.14	46855.48
578.34	47660.33
578.54	46751.03
578.74	47236.40
578.94	47709.48
579.14	47082.80
579.34	47220.02
579.54	47410.48
579.74	48018.72
579.94	47912.23
580.13	47416.62
580.33	47623.47
580.53	47539.50
580.73	48026.92
580.93	48043.30
581.13	47969.57
581.33	48053.54
581.53	48362.78
581.73	47584.55
581.93	48704.79
582.13	48024.87
582.33	48313.63
582.53	48459.04
582.73	48479.52
582.92	48440.60
583.12	48176.42
583.32	48768.28
583.52	48295.20
583.72	48862.49
583.92	48422.17
584.12	48598.30
584.32	49098.00
584.52	48330.01
584.72	49259.79
584.92	49128.72
585.11	49452.30
585.31	49394.96
585.51	49165.59
585.71	49083.67
585.91	49282.32
586.11	48993.56
586.31	48960.79
586.51	48964.88
586.71	49028.37
586.91	49730.83
587.10	49759.50
587.30	49816.84
587.50	49513.74
587.70	49462.54
587.90	49700.11
588.10	49759.50
588.30	49962.25
588.50	49818.89
588.69	49882.37
588.89	49904.90
589.09	50031.88
589.29	50404.61
589.49	49839.37
589.69	49108.24
589.89	49741.06
590.08	50130.18
590.28	50007.30
590.48	50081.03
590.68	49837.32
590.88	50291.97
591.08	50240.77
591.28	50062.60
591.47	50861.30
591.67	50535.68
591.87	50285.82
592.07	50777.34
592.27	50091.27
592.47	50046.21
592.67	50353.41
592.86	50076.93
593.06	50117.89
593.26	50248.96
593.46	50021.64
593.66	50615.55
593.86	50369.79
594.05	50707.71
594.25	50570.49
594.45	50545.92
594.65	50320.64
594.85	49984.77
595.05	51174.64
595.24	51227.89
595.44	50689.27
595.64	50881.78
595.84	50517.25
596.04	50478.33
596.23	51094.77
596.43	50910.46
596.63	50595.07
596.83	51258.61
597.03	51229.94
597.22	51168.50
597.42	51283.19
597.62	51117.30
597.82	50791.67
598.02	50689.27
598.21	51492.08
598.41	50410.75
598.61	51197.17
598.81	51059.96
599.01	51404.02
599.20	51264.75
599.40	51315.95
599.60	51107.06
599.80	50971.89
600.00	51332.34
600.19	51627.24
600.39	51172.60
600.59	51670.25
600.79	51416.30
600.98	51303.67
601.18	51393.78
601.38	51571.95
601.58	51786.99
601.78	51404.02
601.97	51274.99
602.17	51844.33
602.37	51422.45
602.57	51649.77
602.76	51739.88
602.96	51793.13
603.16	51483.89
603.36	51911.91
603.55	52233.44
603.75	51873.00
603.95	52309.22
604.15	52090.09
604.34	51860.71
604.54	52051.17
604.74	52182.24
604.94	52292.83
605.13	52096.23
605.33	52180.20
605.53	51852.52
605.73	52421.86
605.92	52415.71
606.12	52780.25
606.32	52851.93
606.52	52208.87
606.71	52139.24
606.91	52606.17
607.11	52491.49
607.30	52671.71
607.50	52772.06
607.70	52659.42
607.90	52548.83
608.09	52645.08
608.29	52335.84
608.49	52948.18
608.68	52323.55
608.88	52288.74
609.08	52673.76
609.28	52802.78
609.47	52309.22
609.67	52770.01
609.87	52722.91
610.06	53241.04
610.26	52835.55
610.46	53023.96
610.66	52831.45
610.85	52796.63
611.05	52198.63
611.25	52552.93
611.44	52153.57
611.64	52995.29
611.84	52622.56
612.03	52581.60
612.23	52671.71
612.43	52960.47
612.62	52862.17
612.82	53320.91
613.02	53109.97
613.21	53200.08
613.41	52708.57
613.61	52845.79
613.80	52403.42
614.00	53099.73
614.20	52817.11
614.39	52698.33
614.59	53155.03
614.79	53032.15
614.98	53040.34
615.18	53026.01
615.38	53255.38
615.57	52786.39
615.77	53236.95
615.97	53206.23
616.16	53146.84
616.36	52911.32
616.56	53028.05
616.75	53073.11
616.95	52874.46
617.15	53320.91
617.34	52968.66
617.54	53118.17
617.74	53005.53
617.93	53105.88
618.13	52583.65
618.32	53351.63
618.52	52772.06
618.72	53408.98
618.91	53058.77
619.11	53048.53
619.31	53253.33
619.50	52649.18
619.70	53146.84
619.90	53034.20
620.09	53161.17
620.29	53222.61
620.48	52888.79
620.68	53523.66
620.88	52647.13
621.07	53282.00
621.27	52923.61
621.46	52796.63
621.66	52960.47
621.86	53585.10
622.05	52954.33
622.25	53337.30
622.44	53335.25
622.64	53431.50
622.84	53220.56
623.03	53044.44
623.23	53558.48
623.42	53363.92
623.62	53249.24
623.82	53468.37
624.01	53531.86
624.21	53327.06
624.40	53685.45
624.60	53478.61
624.80	53398.74
624.99	53327.06
625.19	53007.58
625.38	53705.93
625.58	53785.80
625.77	53884.11
625.97	53869.77
626.17	53040.34
626.36	53370.07
626.56	53255.38
626.75	53187.80
626.95	53724.36
627.14	53341.39
627.34	53605.58
627.54	53490.90
627.73	53814.47
627.93	53810.38
628.12	53490.90
628.32	53632.21
628.51	53755.08
628.71	53794.00
628.90	53716.17
629.10	53746.89
629.30	53933.26
629.49	54011.08
629.69	53628.11
629.88	53900.49
630.08	54301.89
630.27	53728.46
630.47	53970.12
630.66	53943.50
630.86	54256.84
631.05	53949.64
631.25	54547.65
631.44	54324.42
631.64	54195.40
631.84	54566.08
632.03	54977.72
632.23	54262.98
632.42	54822.08
632.62	54187.21
632.81	54013.13
633.01	54377.67
633.20	54514.88
633.40	54418.63
633.59	54865.08
633.79	54240.45
633.98	54836.41
634.18	54629.57
634.37	54834.36
634.57	54908.09
634.76	55145.65
634.96	55172.28
635.15	54695.10
635.35	54875.32
635.54	54324.42
635.74	54891.71
635.93	54320.32
636.13	55127.22
636.32	54963.39
636.52	54607.04
636.71	54824.12
636.91	54983.86
637.10	55545.01
637.30	55145.65
637.49	55149.75
637.69	54723.77
637.88	55583.92
638.08	55188.66
638.27	55768.24
638.46	55678.13
638.66	55458.99
638.85	55354.55
639.05	55657.65
639.24	55409.84
639.44	55184.57
639.63	55516.34
639.83	55497.91
640.02	55469.23
640.22	55119.03
640.41	55766.19
640.61	55266.48
640.80	55690.41
640.99	55684.27
641.19	55907.50
641.38	55792.81
641.58	55510.19
641.77	55747.76
641.97	55837.87
642.16	55282.87
642.36	56366.24
642.55	56231.08
642.74	55784.62
642.94	56698.01
643.13	56302.76
643.33	56294.56
643.52	56163.50
643.72	56579.23
643.91	55907.50
644.10	56669.34
644.30	56915.10
644.49	56487.07
644.69	56380.58
644.88	56401.06
645.08	56210.60
645.27	56261.80
645.46	56597.66
645.66	56507.55
645.85	56519.84
646.05	56548.51
646.24	56679.58
646.43	56964.25
646.63	56771.74
646.82	56818.84
647.02	56937.63
647.21	56478.88
647.40	56548.51
647.60	56874.14
647.79	57058.46
647.99	57009.31
648.18	56863.90
648.37	57431.19
648.57	57167.00
648.76	56939.68
648.96	56954.01
649.15	57328.79
649.34	57375.89
649.54	57144.47
649.73	57111.70
649.92	57193.62
650.12	57347.22
650.31	57336.98
650.51	57056.41
650.70	57308.31
650.89	57169.05
651.09	57844.88
651.28	57291.93
651.47	57011.35
651.67	57361.56
651.86	57939.08
652.06	56650.91
652.25	57955.47
652.44	57767.05
652.64	57357.46
652.83	57375.89
653.02	57343.12
653.22	57271.45
653.41	57146.52
653.60	56984.73
653.80	57498.77
653.99	57386.13
654.18	57490.58
654.38	57423.00
654.57	57603.22
654.76	57271.45
654.96	57449.62
655.15	57398.42
655.34	57521.30
655.54	57146.52
655.73	57625.74
655.92	57578.64
656.12	57955.47
656.31	57707.66
656.50	57281.69
656.70	57463.96
656.89	57515.15
657.08	57707.66
657.28	57408.66
657.47	57285.78
657.66	57539.73
657.86	57232.53
658.05	57515.15
658.24	57848.97
658.43	57259.16
658.63	57853.07
658.82	57277.59
659.01	57980.04
659.21	57470.10
659.40	57955.47
659.59	57021.59
659.79	57570.45
659.98	57875.60
660.17	57193.62
660.36	57423.00
660.56	57257.11
660.75	57885.84
660.94	57883.79
661.14	57603.22
661.33	57355.41
661.52	57316.50
661.71	57570.45
661.91	56902.81
662.10	57191.58
662.29	57732.24
662.49	57703.57
662.68	57496.72
662.87	57533.59
663.06	57660.56
663.26	57169.05
663.45	58258.57
663.64	57265.30
663.83	57934.99
664.03	57578.64
664.22	57480.34
664.41	57242.77
664.60	57023.64
664.80	57676.94
664.99	56884.38
665.18	57541.78
665.37	57398.42
665.57	57787.53
665.76	56892.57
665.95	57164.95
666.14	57382.04
666.34	57220.25
666.53	57103.51
666.72	56675.49
666.91	56994.97
667.11	56878.24
667.30	57250.97
667.49	57054.36
667.68	57150.62
667.87	57001.11
668.07	56976.54
668.26	57111.70
668.45	57513.11
668.64	56913.05
668.84	57339.03
669.03	56779.93
669.22	56861.85
669.41	57113.75
669.60	57056.41
669.80	56769.69
669.99	57005.21
670.18	56806.56
670.37	56794.27
670.57	57136.28
670.76	56691.87
670.95	56616.10
671.14	56706.21
671.33	56917.15
671.53	57058.46
671.72	56669.34
671.91	56628.38
672.10	56603.81
672.29	56390.82
672.48	56308.90
672.68	56626.34
672.87	56458.40
673.06	56136.87
673.25	56464.55
673.44	55864.49
673.64	56403.11
673.83	56349.86
674.02	56175.78
674.21	56007.85
674.40	56499.36
674.59	56079.53
674.79	56190.12
674.98	55891.12
675.17	56452.26
675.36	55612.59
675.55	56304.80
675.74	55973.03
675.94	56255.65
676.13	56292.52
676.32	56077.48
676.51	56253.61
676.70	56251.56
676.89	55897.26
677.08	55911.59
677.28	55721.13
677.47	56042.66
677.66	56210.60
677.85	55739.57
678.04	56040.62
678.23	56298.66
678.42	56360.10
678.62	55555.25
678.81	55966.89
679.00	55727.28
679.19	55727.28
679.38	55571.63
679.57	56059.05
679.76	55547.06
679.96	55741.61
680.15	55270.58
680.34	55311.54
680.53	55436.47
680.72	55454.90
680.91	55620.78
681.10	55123.13
681.29	55323.83
681.48	55174.33
681.68	55573.68
681.87	55231.67
682.06	55665.84
682.25	55217.33
682.44	55065.78
682.63	55274.68
682.82	54670.53
683.01	54613.18
683.20	54760.64
683.39	55196.85
683.59	55215.29
683.78	55231.67
683.97	54803.64
684.16	54944.95
684.35	54652.09
684.54	54994.10
684.73	55137.46
684.92	54789.31
685.11	54023.37
685.30	54461.63
685.49	54361.28
685.69	54541.50
685.88	54502.59
686.07	54205.64
686.26	54318.28
686.45	54498.50
686.64	54457.54
686.83	54408.39
687.02	54564.03
687.21	54312.13
687.40	54539.46
687.59	54353.09
687.78	54222.02
687.97	54006.98
688.16	54236.36
688.35	53871.82
688.54	53918.92
688.74	54209.73
688.93	53804.24
689.12	54174.92
689.31	53955.78
689.50	54279.36
689.69	54342.85
689.88	53763.28
690.07	54115.53
690.26	53759.18
690.45	53988.55
690.64	53673.16
690.83	53685.45
691.02	53761.23
691.21	54129.86
691.40	54195.40
691.59	53720.27
691.78	53601.49
691.97	53994.70
692.16	53294.29
692.35	53896.39
692.54	53642.45
692.73	53314.77
692.92	53679.31
693.11	53617.87
693.30	53912.78
693.49	53310.67
693.68	53578.96
693.87	53538.00
694.06	53466.32
694.25	53380.31
694.44	53009.62
694.63	53236.95
694.82	53648.59
695.01	52925.66
695.20	52884.70
695.39	53093.59
695.58	53028.05
695.77	52901.08
695.96	52862.17
696.15	53372.11
696.34	52819.16
696.53	52548.83
696.72	53290.19
696.91	53073.11
697.10	52827.35
697.29	52577.50
697.48	52923.61
697.67	52821.21
697.86	52313.31
698.05	52643.04
698.24	53040.34
698.43	52323.55
698.62	52915.42
698.81	52434.14
699.00	53038.29
699.19	52288.74
699.38	52718.81
699.57	52178.15
699.76	53056.73
699.95	52475.10
700.14	52698.33
700.32	52227.30
700.51	52411.62
700.70	52907.22
700.89	52378.85
701.08	52231.40
701.27	52133.09
701.46	52589.79
701.65	52059.37
701.84	52319.46
702.03	52206.82
702.22	52239.59
702.41	52075.75
702.60	52137.19
702.79	52325.60
702.98	52370.66
703.17	52372.70
703.35	51987.69
703.54	52180.20
703.73	52069.61
703.92	52040.93
704.11	52053.22
704.30	52008.17
704.49	52124.90
704.68	52253.92
704.87	51809.51
705.06	52606.17
705.25	51983.59
705.43	51844.33
705.62	52204.77
705.81	51942.63
706.00	52442.34
706.19	51897.58
706.38	51983.59
706.57	52110.56
706.76	51799.27
706.95	52258.02
707.14	51737.83
707.32	51584.24
707.51	51614.96
707.70	51688.68
707.89	51711.21
708.08	51604.72
708.27	52096.23
708.46	51993.83
708.65	51829.99
708.84	52126.95
709.02	52088.04
709.21	51729.64
709.40	51930.34
709.59	51555.57
709.78	51510.51
709.97	51741.93
710.16	51582.19
710.34	51801.32
710.53	51406.06
710.72	51244.27
710.91	51676.40
711.10	51750.12
711.29	51623.15
711.48	51461.36
711.66	51414.26
711.85	51490.03
712.04	51352.82
712.23	51444.98
712.42	51385.58
712.61	51549.42
712.80	51330.29
712.98	51256.56
713.17	51016.95
713.36	51293.43
713.55	51260.66
713.74	51272.95
713.93	51256.56
714.11	50957.56
714.30	51070.20
714.49	51410.16
714.68	51184.88
714.87	51279.09
715.06	50975.99
715.24	51281.14
715.43	50599.16
715.62	50943.22
715.81	50492.67
716.00	50939.13
716.18	50486.53
716.37	50552.06
716.56	50633.98
716.75	51492.08
716.94	50896.12
717.12	50609.40
717.31	51297.52
717.50	50926.84
717.69	51039.48
717.88	50894.07
718.06	50935.03
718.25	51262.71
718.44	50494.72
718.63	50216.19
718.82	50664.70
719.00	50930.93
719.19	50459.90
719.38	50158.85
719.57	50081.03
719.76	50382.08
719.94	49798.41
720.13	50388.22
720.32	50355.46
720.51	50371.84
720.69	50394.37
720.88	49992.97
721.07	49734.92
721.26	49739.02
721.44	50259.20
721.63	49909.00
721.82	50021.64
722.01	49915.14
722.20	50404.61
722.38	49648.91
722.57	49067.28
722.76	49765.64
722.95	49642.76
723.13	49325.33
723.32	49511.69
723.51	49560.84
723.70	49310.99
723.88	49593.61
724.07	49397.01
724.26	49466.64
724.44	48964.88
724.63	49607.95
724.82	49616.14
725.01	49476.88
725.19	49597.71
725.38	49331.47
725.57	49280.27
725.76	49734.92
725.94	49083.67
726.13	49241.36
726.32	49089.81
726.51	48526.62
726.69	49071.38
726.88	49497.36
727.07	49313.04
727.25	49343.76
727.44	49208.59
727.63	48925.97
727.82	49407.25
728.00	49333.52
728.19	49067.28
728.38	49354.00
728.56	48612.63
728.75	49655.05
728.94	49151.25
729.12	49239.31
729.31	49093.91
729.50	49044.76
729.69	49134.87
729.87	49325.33
730.06	49020.18
730.25	48774.42
730.43	49751.30
730.62	49057.04
730.81	49667.34
730.99	49200.40
731.18	49306.90
731.37	49364.24
731.55	49165.59
731.74	49560.84
731.93	49020.18
732.11	49544.46
732.30	49259.79
732.49	49069.33
732.67	49292.56
732.86	48983.32
733.05	49247.50
733.23	48936.21
733.42	49079.57
733.61	49231.12
733.79	49351.95
733.98	49497.36
734.17	49304.85
734.35	49030.42
734.54	49222.93
734.73	49143.06
734.91	49095.95
735.10	48909.59
735.29	49358.09
735.47	48141.60
735.66	48817.43
735.84	49343.76
736.03	48829.72
736.22	48901.40
736.40	48741.66
736.59	48985.36
736.78	48954.64
736.96	49079.57
737.15	49093.91
737.33	48715.03
737.52	48526.62
737.71	48583.96
737.89	48964.88
738.08	48598.30
738.27	48735.51
738.45	48862.49
738.64	48878.87
738.82	48280.86
739.01	48864.53
739.20	48338.21
739.38	48411.93
739.57	48612.63
739.75	48739.61
739.94	48448.80
740.13	48710.94
740.31	48366.88
740.50	48162.08
740.68	48422.17
740.87	48522.52
741.06	48450.84
741.24	48454.94
741.43	47936.80
741.61	48479.52
741.80	47621.42
741.99	48014.63
742.17	48123.17
742.36	48229.66
742.54	48151.84
742.73	48018.72
742.91	48289.06
743.10	48123.17
743.29	48053.54
743.47	48489.76
743.66	48215.33
743.84	48508.19
744.03	48370.97
744.21	47793.45
744.40	48192.80
744.59	48059.68
744.77	47791.40
744.96	47801.64
745.14	47838.50
745.33	47652.14
745.51	47426.86
745.70	47631.66
745.88	47394.09
746.07	47949.09
746.26	47324.46
746.44	47936.80
746.63	47840.55
746.81	47916.32
747.00	47351.09
747.18	47377.71
747.37	47729.96
747.55	47766.82
747.74	47564.07
747.92	47320.37
748.11	47291.69
748.29	47246.64
748.48	47680.81
748.66	47246.64
748.85	47428.91
749.03	47160.62
749.22	46875.96
749.41	47074.61
749.59	47045.94
749.78	46845.24
749.96	46402.88
750.15	46916.92
750.33	46982.45
750.52	46689.59
750.70	46882.10
750.89	46497.08
751.07	46581.05
751.26	46445.88
751.44	46787.89
751.63	46652.73
751.81	46144.83
752.00	46540.09
752.18	46622.01
752.37	46390.59
752.55	46255.42
752.74	45909.32
752.92	46112.06
753.10	46130.50
753.29	45993.28
753.47	45847.88
753.66	45735.24
753.84	46511.42
754.03	46114.11
754.21	45561.16
754.40	46142.78
754.58	46124.35
754.77	46142.78
754.95	45491.53
755.14	45757.77
755.32	45704.52
755.51	45286.73
755.69	45555.02
755.88	45708.61
756.06	45589.83
756.24	45333.84
756.43	45444.43
756.61	45466.95
756.80	44899.67
756.98	45391.18
757.17	45143.38
757.35	45534.54
757.54	45542.73
757.72	45339.98
757.90	45159.76
758.09	45165.90
758.27	44803.41
758.46	44674.39
758.64	44766.55
758.83	45028.69
759.01	44985.68
759.19	44971.35
759.38	44672.34
759.56	44592.47
759.75	45002.07
759.93	44326.24
760.12	44490.07
760.30	44920.15
760.48	44682.58
760.67	44473.69
760.85	44303.71
761.04	44229.98
761.22	44651.86
761.40	44117.34
761.59	44488.03
761.77	43973.98
761.96	44109.15
762.14	43742.56
762.32	43773.28
762.51	43885.92
762.69	43763.04
762.88	43941.22
763.06	43906.40
763.24	43672.93
763.43	44006.75
763.61	43572.58
763.80	43515.24
763.98	43169.13
764.16	43418.99
764.35	43263.34
764.53	42716.53
764.72	43079.02
764.90	43390.31
765.08	43054.45
765.27	43136.37
765.45	43105.65
765.63	42558.84
765.82	43027.82
766.00	42554.74
766.18	42820.98
766.37	42694.00
766.55	42622.33
766.74	42351.99
766.92	42388.86
767.10	42081.66
767.29	42286.46
767.47	41950.59
767.65	42487.16
767.84	41936.26
768.02	42501.50
768.20	42087.81
768.39	42521.98
768.57	42057.09
768.75	42270.08
768.94	42200.44
769.12	42122.62
769.30	41366.92
769.49	41893.25
769.67	41545.09
769.85	41225.61
770.04	41610.63
770.22	41426.31
770.40	41393.54
770.59	41227.66
770.77	41653.64
770.95	41291.15
771.14	40836.50
771.32	41180.56
771.50	40820.11
771.69	41227.66
771.87	40959.38
772.05	40830.35
772.24	40816.02
772.42	40801.68
772.60	40775.06
772.78	40431.00
772.97	40074.65
773.15	40744.34
773.33	40689.04
773.52	40451.48
773.70	40408.47
773.88	40754.58
774.07	40443.29
774.25	40519.06
774.43	40953.23
774.61	40641.94
774.80	40666.52
774.98	40304.02
775.16	40402.33
775.34	40572.31
775.53	40328.60
775.71	40959.38
775.89	40646.04
776.08	40514.97
776.26	40136.09
776.44	40514.97
776.62	40445.33
776.81	40035.74
776.99	40365.46
777.17	40283.55
777.35	40580.50
777.54	40709.52
777.72	40289.69
777.90	40375.70
778.08	40453.53
778.27	40355.22
778.45	40789.39
778.63	40832.40
778.81	40246.68
779.00	41186.70
779.18	40539.54
779.36	40934.80
779.54	40801.68
779.73	40662.42
779.91	40672.66
780.09	40654.23
780.27	40709.52
780.46	40715.67
780.64	41076.11
780.82	40754.58
781.00	40504.73
781.19	40893.84
781.37	40902.03
781.55	41158.03
781.73	41155.98
781.91	40680.85
782.10	40912.27
782.28	40914.32
782.46	40955.28
782.64	41000.33
782.82	40975.76
783.01	40742.29
783.19	41215.37
783.37	41090.44
783.55	40981.90
783.74	41137.55
783.92	40947.09
784.10	41147.79
784.28	40998.29
784.46	40471.96
784.64	40873.36
784.83	40881.55
785.01	40777.11
785.19	40883.60
785.37	40770.96
785.55	40674.71
785.74	40398.23
785.92	40504.73
786.10	40727.95
786.28	40400.28
786.46	40162.72
786.64	40482.20
786.83	40334.74
787.01	40476.05
787.19	40375.70
787.37	40535.45
787.55	40564.12
787.74	40103.32
787.92	40453.53
788.10	39921.05
788.28	39957.92
788.46	40037.79
788.64	39796.13
788.82	40359.32
789.01	39736.74
789.19	40125.85
789.37	39689.63
789.55	39501.22
789.73	39679.39
789.91	39415.21
790.09	39564.71
790.28	39187.88
790.46	39167.40
790.64	39335.34
790.82	39032.24
791.00	39433.64
791.18	38737.33
791.36	38798.77
791.55	39089.58
791.73	38727.09
791.91	38612.40
792.09	38815.15
792.27	38706.61
792.45	39126.44
792.63	38761.90
792.81	38716.85
793.00	38616.50
793.18	38516.15
793.36	38550.96
793.54	37891.52
793.72	38442.42
793.90	38131.13
794.08	37946.81
794.26	38305.21
794.44	37789.12
794.62	37563.84
794.81	37881.28
794.99	37565.89
795.17	37678.53
795.35	37598.66
795.53	37701.06
795.71	37578.18
795.89	37500.36
796.07	36971.98
796.25	37084.62
796.43	37133.77
796.61	36480.47
796.80	37008.84
796.98	36638.16
797.16	36773.33
797.34	36758.99
797.52	36480.47
797.70	36869.58
797.88	36466.13
798.06	36320.73
798.24	36222.42
798.42	36236.76
798.60	36175.32
798.78	35487.20
798.96	36349.40
799.14	35648.99
799.32	35659.23
799.51	35474.91
799.69	36046.30
799.87	35599.84
800.05	35397.09
800.23	35603.94
800.41	35325.41
800.59	35233.25
800.77	35114.47
800.95	34811.37
801.13	34928.11
801.31	34825.71
801.49	35161.58
801.67	34475.51
801.85	34948.59
802.03	34799.08
802.21	34102.78
802.39	34272.76
802.57	34338.29
802.75	34024.95
802.93	34235.89
803.11	34039.29
803.29	33981.95
803.47	33854.97
803.65	34070.01
803.83	33936.89
804.01	33967.61
804.19	33639.93
804.37	33697.28
804.55	33961.47
804.73	33670.65
804.91	33216.01
805.09	33707.52
805.27	33748.48
805.45	33342.98
805.63	33566.21
805.81	33263.11
805.99	33461.76
806.17	33297.92
806.35	32800.27
806.53	32912.91
806.71	32841.23
806.89	32757.26
807.07	32724.49
807.25	33007.11
807.43	32859.66
807.61	32552.46
807.79	32781.84
807.97	32230.93
808.15	32531.98
808.33	32556.56
808.51	32278.04
808.69	32247.32
808.87	31802.91
809.05	31749.66
809.23	32048.66
809.41	31647.26
809.59	31778.33
809.77	31999.51
809.95	31567.39
810.13	31716.89
810.31	31983.13
810.49	31612.45
810.67	31413.79
810.84	31659.55
811.02	31538.72
811.20	31327.78
811.38	31565.34
811.56	31307.30
811.74	30991.91
811.92	31143.46
812.10	31295.01
812.28	31139.36
812.46	30864.94
812.64	30873.13
812.82	31022.63
813.00	31039.01
813.18	30987.82
813.36	30484.01
813.53	30840.36
813.71	30740.01
813.89	30936.62
814.07	30668.33
814.25	30942.76
814.43	30242.35
814.61	30254.64
814.79	30088.76
814.97	30146.10
815.15	30328.37
815.33	30037.56
815.50	30092.85
815.68	30285.36
815.86	30490.16
816.04	30021.17
816.22	29939.26
816.40	29935.16
816.58	29732.41
816.76	29695.55
816.94	29730.36
817.11	29890.10
817.29	29961.78
817.47	29718.07
817.65	29918.78
817.83	29290.05
818.01	29247.04
818.19	29077.06
818.37	29382.21
818.54	28989.00
818.72	28999.24
818.90	29638.20
819.08	29072.96
819.26	29220.42
819.44	29353.54
819.62	29326.91
819.80	29056.58
819.97	29091.40
820.15	28925.51
820.33	29148.74
820.51	29083.20
820.69	28624.46
820.87	29009.48
821.05	29279.81
821.22	28722.76
821.40	28876.36
821.58	28839.50
821.76	28550.73
821.94	28696.14
822.12	28569.16
822.29	28456.53
822.47	28405.33
822.65	28513.87
822.83	28608.08
823.01	28294.74
823.19	28434.00
823.36	28026.45
823.54	28204.63
823.72	28096.08
823.90	28284.50
824.08	27903.57
824.25	27860.57
824.43	27766.36
824.61	27899.48
824.79	28051.03
824.97	27866.71
825.15	28038.74
825.32	28036.69
825.50	27575.90
825.68	27551.32
825.86	27563.61
826.04	27733.59
826.21	27526.75
826.39	27698.78
826.57	27428.45
826.75	27620.95
826.93	27147.87
827.10	27672.15
827.28	27477.60
827.46	27446.88
827.64	27762.26
827.81	27424.35
827.99	27590.24
828.17	27518.56
828.35	27137.63
828.53	27205.22
828.70	27125.35
828.88	27168.35
829.06	27367.01
829.24	27457.12
829.41	27078.24
829.59	27397.73
829.77	26914.41
829.95	27330.14
830.12	26857.06
830.30	26908.26
830.48	26881.64
830.66	26883.69
830.84	27287.14
831.01	26943.08
831.19	26803.82
831.37	26711.66
831.55	26965.60
831.72	26541.68
831.90	26670.70
832.08	26578.54
832.25	26764.90
832.43	26369.65
832.61	26560.11
832.79	26300.01
832.96	26486.38
833.14	26723.94
833.32	26820.20
833.50	26664.55
833.67	26631.79
833.85	26369.65
834.03	25941.62
834.20	26322.54
834.38	26472.04
834.56	26377.84
834.74	26072.69
834.91	26332.78
835.09	26066.55
835.27	25902.71
835.44	25966.20
835.62	25863.80
835.80	25826.93
835.98	26318.45
836.15	26007.16
836.33	25646.71
836.51	26293.87
836.68	25839.22
836.86	25749.11
837.04	25927.28
837.21	25855.61
837.39	25966.20
837.57	25910.90
837.75	25724.54
837.92	25558.65
838.10	25663.10
838.28	25306.75
838.45	25912.95
838.63	25450.11
838.81	25562.75
838.98	25339.52
839.16	25407.10
839.34	25433.72
839.51	25306.75
839.69	25048.71
839.87	25339.52
840.04	25056.90
840.22	25536.12
840.40	25325.18
840.57	25163.39
840.75	25300.61
840.93	24934.02
841.10	25417.34
841.28	25484.92
841.46	25263.74
841.63	25486.97
841.81	25405.05
841.98	25200.26
842.16	25060.99
842.34	25087.62
842.51	24880.77
842.69	24858.24
842.87	24872.58
843.04	24921.73
843.22	25001.60
843.40	25009.79
843.57	24757.89
843.75	24589.96
843.92	24872.58
844.10	24884.87
844.28	24757.89
844.45	24903.30
844.63	24604.30
844.81	24700.55
844.98	24888.96
845.16	24536.71
845.33	24850.05
845.51	24645.26
845.69	24551.05
845.86	24549.00
846.04	24499.85
846.21	24440.46
846.39	24456.84
846.57	24188.56
846.74	24260.24
846.92	24254.09
847.09	24274.57
847.27	24061.58
847.45	24143.50
847.62	24225.42
847.80	24184.46
847.97	24047.25
848.15	24176.27
848.32	23637.66
848.50	23944.85
848.68	23813.78
848.85	24059.54
849.03	23508.63
849.20	24102.54
849.38	23817.88
849.56	23940.75
849.73	23844.50
849.91	23531.16
850.08	23930.51
850.26	23467.67
850.43	23486.11
850.61	23688.85
850.78	23651.99
850.96	23649.94
851.14	23703.19
851.31	23774.87
851.49	23518.87
851.66	23373.47
851.84	23621.27
852.01	23838.36
852.19	23379.61
852.36	23631.51
852.54	23848.60
852.71	23410.33
852.89	23615.13
853.07	23199.39
853.24	23371.42
853.42	23142.05
853.59	23221.92
853.77	23078.56
853.94	23090.85
854.12	23467.67
854.29	23072.42
854.47	23060.13
854.64	22912.67
854.82	23099.04
854.99	23199.39
855.17	23283.36
855.34	22879.91
855.52	23258.78
855.69	22830.76
855.87	22869.67
856.04	22957.73
856.22	23031.46
856.39	22662.82
856.57	22851.24
856.74	22630.05
856.92	22888.10
857.09	22601.38
857.27	22349.48
857.44	22703.78
857.62	22625.96
857.79	22587.05
857.97	22539.94
858.14	22634.15
858.32	22892.19
858.49	22365.87
858.67	22118.06
858.84	22378.15
859.02	22179.50
859.19	22242.99
859.37	22017.71
859.54	22421.16
859.72	22468.27
859.89	22298.28
860.06	22406.83
860.24	22249.13
860.41	22296.24
860.59	21792.44
860.76	22105.77
860.94	21923.51
861.11	22355.63
861.29	22013.62
861.46	21888.69
861.64	21964.46
861.81	21941.94
861.98	22036.14
862.16	21991.09
862.33	21704.37
862.51	21706.42
862.68	22175.41
862.86	21649.08
863.03	21696.18
863.21	21788.34
863.38	21577.40
863.55	21532.34
863.73	21714.61
863.90	21718.71
864.08	21806.77
864.25	21446.33
864.43	21620.41
864.60	21556.92
864.77	21278.40
864.95	21503.67
865.12	21173.95
865.30	21446.33
865.47	21466.81
865.64	21499.58
865.82	21472.95
865.99	21552.82
866.17	20938.43
866.34	21229.24
866.51	20909.76
866.69	20924.10
866.86	20889.28
867.04	20956.86
867.21	21161.66
867.38	20860.61
867.56	20872.90
867.73	20731.59
867.91	20590.28
868.08	20967.10
868.25	20883.14
868.43	20838.08
868.60	20889.28
868.78	20649.67
868.95	20551.37
869.12	20424.39
869.30	20590.28
869.47	20778.69
869.64	20610.76
869.82	20598.47
869.99	20100.81
870.16	20598.47
870.34	20391.62
870.51	20203.21
870.69	20154.06
870.86	19902.16
871.03	20324.04
871.21	19934.93
871.38	20592.33
871.55	19951.31
871.73	20182.73
871.90	20014.80
872.07	19957.46
872.25	19707.60
872.42	19678.93
872.59	19740.37
872.77	19697.36
872.94	19701.46
873.11	19764.95
873.29	19666.64
873.46	19736.27
873.63	19726.04
873.81	19476.18
873.98	19193.56
874.15	19467.99
874.33	19447.51
874.50	19345.11
874.67	19455.70
874.85	19322.59
875.02	19097.31
875.19	19177.18
875.37	19400.41
875.54	19216.09
875.71	19150.56
875.88	19091.16
876.06	18996.96
876.23	19173.08
876.40	18880.22
876.58	19003.10
876.75	19234.52
876.92	18812.64
877.10	18835.17
877.27	18546.40
877.44	18628.32
877.61	18562.79
877.79	18722.53
877.96	18460.39
878.13	18595.56
878.31	18618.08
878.48	18362.09
878.65	18290.41
878.82	18394.86
879.00	18253.55
879.17	18274.03
879.34	18554.60
879.51	18104.04
879.69	18245.35
879.86	18058.99
880.03	17985.26
880.21	18089.71
880.38	18038.51
880.55	18220.78
880.72	17944.30
880.90	17985.26
881.07	18106.09
881.24	17915.63
881.41	17934.06
881.59	17757.94
881.76	17776.37
881.93	17731.31
882.10	17682.16
882.28	17612.53
882.45	17827.57
882.62	17614.58
882.79	17839.86
882.96	17495.80
883.14	17780.46
883.31	17671.92
883.48	17303.29
883.65	17479.41
883.83	17256.18
884.00	17403.64
884.17	17428.21
884.34	17350.39
884.51	17534.71
884.69	17202.94
884.86	17487.61
885.03	17207.03
885.20	17284.86
885.38	17311.48
885.55	17241.85
885.72	17452.79
885.89	17542.90
886.06	17383.16
886.24	17311.48
886.41	16998.14
886.58	17354.49
886.75	17352.44
886.92	17014.52
887.10	17338.10
887.27	16938.75
887.44	16635.65
887.61	17020.67
887.78	17116.92
887.95	16803.58
888.13	16983.80
888.30	16525.06
888.47	16744.19
888.64	16738.05
888.81	16873.21
888.99	16807.68
889.16	16516.87
889.33	16598.79
889.50	16465.67
889.67	16484.10
889.84	16432.90
890.01	16584.45
890.19	16297.74
890.36	16604.93
890.53	16625.41
890.70	16080.65
890.87	16445.19
891.04	16230.15
891.22	16090.89
891.39	15980.30
891.56	16273.16
891.73	16230.15
891.90	15761.17
892.07	16021.26
892.24	15873.81
892.42	16176.91
892.59	15867.66
892.76	15955.72
892.93	15755.02
893.10	16023.31
893.27	15900.43
893.44	15666.96
893.61	15687.44
893.79	16017.16
893.96	15755.02
894.13	15800.08
894.30	15765.26
894.47	15826.70
894.64	15898.38
894.81	15818.51
894.98	15572.75
895.15	15736.59
895.33	15761.17
895.50	15732.50
895.67	15771.41
895.84	15429.40
896.01	15693.58
896.18	15466.26
896.35	15738.64
896.52	15525.65
896.69	15611.67
896.86	15572.75
897.04	15570.71
897.21	15537.94
897.38	15499.03
897.55	15580.95
897.72	15597.33
897.89	15341.33
898.06	15791.89
898.23	15421.20
898.40	15658.77
898.57	15425.30
898.74	15589.14
898.91	15507.22
899.08	15349.53
899.26	15421.20
899.43	15449.88
899.60	15507.22
899.77	15662.86
899.94	15091.48
900.11	15339.29
900.28	15523.60
900.45	15152.92
900.62	15179.54
900.79	15615.76
900.96	15400.72
901.13	15578.90
901.30	14941.98
901.47	15314.71
901.64	15288.09
901.81	15281.94
901.98	15003.42
902.15	15195.93
902.32	15157.02
902.49	15183.64
902.66	15351.57
902.83	15265.56
903.01	15095.58
903.18	15089.43
903.35	15109.91
903.52	15339.29
903.69	15226.65
903.86	15261.46
904.03	15329.05
904.20	15585.04
904.37	15240.98
904.54	15288.09
904.71	15161.11
904.88	15269.66
905.05	15370.01
905.22	15300.37
905.39	15247.13
905.56	15185.69
905.73	15032.09
905.90	15197.98
906.07	15116.06
906.24	15163.16
906.41	15359.77
906.58	15107.87
906.75	15283.99
906.92	14862.11
907.09	15027.99
907.26	15032.09
907.43	15015.71
907.60	15011.61
907.77	15292.18
907.93	15003.42
908.10	15023.90
908.27	15146.78
908.44	14812.96
908.61	14921.50
908.78	15044.38
908.95	15193.88
909.12	14849.82
909.29	14999.32
909.46	14843.68
909.63	15095.58
909.80	14831.39
909.97	15005.47
910.14	14876.44
910.31	14745.38
910.48	14743.33
910.65	14817.05
910.82	14755.61
910.99	14792.48
911.16	14823.20
911.33	14636.83
911.50	14755.61
911.66	14528.29
911.83	14581.54
912.00	14417.70
912.17	14462.76
912.34	14528.29
912.51	14532.39
912.68	14524.19
912.85	14608.16
913.02	14696.22
913.19	14559.01
913.36	14507.81
913.53	14638.88
913.70	14436.13
913.86	14360.36
914.03	14419.75
914.20	14354.21
914.37	14184.23
914.54	14190.38
914.71	14386.98
914.88	14341.93
915.05	13942.57
915.22	13967.15
915.39	14106.41
915.55	13946.67
915.72	13707.05
915.89	13928.24
916.06	13887.28
916.23	13766.45
916.40	13877.04
916.57	13578.03
916.74	13582.13
916.91	13694.77
917.07	13547.31
917.24	13612.85
917.41	13670.19
917.58	13944.62
917.75	13500.21
917.92	13557.55
918.09	13516.59
918.26	13530.93
918.42	13297.46
918.59	13479.73
918.76	13129.53
918.93	13252.41
919.10	13363.00
919.27	12934.97
919.44	13244.21
919.60	13227.83
919.77	13340.47
919.94	12896.06
920.11	12957.50
920.28	13082.42
920.45	12885.82
920.61	12867.39
920.78	12873.53
920.95	12812.09
921.12	12709.69
921.29	12685.12
921.46	12832.57
921.62	12496.71
921.79	12601.15
921.96	12418.88
922.13	12377.92
922.30	12633.92
922.47	12564.29
922.63	12279.62
922.80	12377.92
922.97	12209.99
923.14	12126.02
923.31	12197.70
923.47	12005.19
923.64	12216.13
923.81	12027.72
923.98	12154.69
924.15	11870.03
924.32	11853.64
924.48	11917.13
924.65	11921.23
924.82	11667.28
924.99	11618.13
925.15	11591.50
925.32	11810.64
925.49	11511.63
925.66	11470.67
925.83	11579.22
925.99	11462.48
926.16	11624.27
926.33	11403.09
926.50	11333.46
926.67	11571.02
926.83	11448.15
927.00	11179.86
927.17	11220.82
927.34	11104.09
927.50	11122.52
927.67	11186.01
927.84	11151.19
928.01	11052.89
928.17	10956.63
928.34	10817.37
928.51	10889.05
928.68	10792.80
928.84	10751.84
929.01	10561.37
929.18	10577.76
929.35	10575.71
929.51	10495.84
929.68	10356.58
929.85	10168.16
930.02	10409.83
930.18	10258.28
930.35	10256.23
930.52	10233.70
930.69	10239.84
930.85	10309.47
931.02	9981.80
931.19	10252.13
931.36	10012.52
931.52	10108.77
931.69	10090.34
931.86	9871.21
932.02	9914.22
932.19	9957.22
932.36	9842.54
932.53	9734.00
932.69	9633.64
932.86	9826.15
933.03	9729.90
933.19	9639.79
933.36	9391.98
933.53	9629.55
933.70	9535.34
933.86	9377.65
934.03	9402.22
934.20	9342.83
934.36	9328.50
934.53	9236.34
934.70	8951.67
934.86	9004.92
935.03	8947.58
935.20	8763.26
935.36	8834.94
935.53	8736.63
935.70	8742.78
935.86	8890.23
936.03	8671.10
936.20	8355.71
936.36	8404.86
936.53	8417.15
936.70	8312.71
936.86	8482.69
937.03	8056.71
937.20	7985.03
937.36	8144.77
937.53	7794.57
937.70	7724.94
937.86	7724.94
938.03	7675.79
938.20	7794.57
938.36	7505.81
938.53	7507.85
938.70	7389.07
938.86	7425.93
939.03	7227.28
939.20	7260.05
939.36	7073.68
939.53	7002.01
939.70	7045.01
939.86	6928.28
940.03	6801.30
940.19	6643.61
940.36	6612.89
940.53	6688.67
940.69	6449.05
940.86	6475.68
941.03	6506.40
941.19	6283.17
941.36	6350.75
941.52	6229.92
941.69	6164.39
941.86	6225.82
942.02	6070.18
942.19	5922.73
942.35	6014.88
942.52	5867.43
942.69	5760.94
942.85	5683.11
943.02	5679.02
943.18	5738.41
943.35	5748.65
943.52	5705.64
943.68	5601.19
943.85	5431.21
944.01	5451.69
944.18	5556.14
944.35	5588.91
944.51	5425.07
944.68	5474.22
944.84	5308.34
945.01	5300.14
945.17	5502.89
945.34	5435.31
945.51	5420.97
945.67	5312.43
945.84	5308.34
946.00	5287.86
946.17	5205.94
946.33	5046.20
946.50	5324.72
946.67	5300.14
946.83	5228.46
947.00	5222.32
947.16	5146.55
947.33	5128.11
947.49	5191.60
947.66	5187.50
947.82	5232.56
947.99	5175.22
948.16	5222.32
948.32	5078.96
948.49	5253.04
948.65	5263.28
948.82	5185.46
948.98	5009.33
949.15	5011.38
949.31	5203.89
949.48	5214.13
949.64	5226.42
949.81	5255.09
949.97	5113.78
950.14	5279.66
950.30	5058.48
950.47	5146.55
950.63	5160.88
950.80	5167.03
950.96	5150.64
951.13	5369.77
951.30	5269.42
951.46	5427.12
951.63	5410.73
951.79	5371.82
951.96	5328.81
952.12	5396.40
952.29	5261.23
952.45	5326.77
952.62	5224.37
952.78	5341.10
952.94	5212.08
953.11	5300.14
953.27	5171.12
953.44	5427.12
953.60	5359.53
953.77	5279.66
953.93	5451.69
954.10	5306.29
954.26	5273.52
954.43	5429.17
954.59	5468.08
954.76	5400.49
954.92	5304.24
955.09	5277.62
955.25	5326.77
955.42	5207.98
955.58	5543.85
955.75	5291.95
955.91	5371.82
956.07	5418.93
956.24	5294.00
956.40	5373.87
956.57	5423.02
956.73	5474.22
956.90	5365.68
957.06	5255.09
957.23	5414.83
957.39	5357.49
957.56	5355.44
957.72	5355.44
957.88	5341.10
958.05	5443.50
958.21	5435.31
958.38	5509.04
958.54	5339.05
958.71	5404.59
958.87	5500.84
959.03	5410.73
959.20	5310.38
959.36	5242.80
959.53	5494.70
959.69	5283.76
959.85	5418.93
960.02	5359.53
960.18	5283.76
960.35	5330.86
960.51	5627.82
960.68	5398.45
960.84	5337.01
961.00	5443.50
961.17	5457.84
961.33	5250.99
961.50	5361.58
961.66	5334.96
961.82	5261.23
961.99	5377.97
962.15	5509.04
962.31	5345.20
962.48	5253.04
962.64	5461.93
962.81	5394.35
962.97	5388.21
963.13	5308.34
963.30	5296.05
963.46	5238.70
963.62	5273.52
963.79	5312.43
963.95	5273.52
964.12	5189.55
964.28	5406.64
964.44	5291.95
964.61	5302.19
964.77	5273.52
964.93	5447.60
965.10	5261.23
965.26	5226.42
965.42	5142.45
965.59	5214.13
965.75	5263.28
965.92	5316.53
966.08	5197.74
966.24	5314.48
966.41	5158.83
966.57	5283.76
966.73	5220.27
966.90	5380.01
967.06	5265.33
967.22	5205.94
967.39	5177.26
967.55	5263.28
967.71	5158.83
967.88	5078.96
968.04	5097.39
968.20	5124.02
968.37	5095.35
968.53	5140.40
968.69	5097.39
968.85	5044.15
969.02	5101.49
969.18	5273.52
969.34	5091.25
969.51	5138.35
969.67	5124.02
969.83	5025.72
970.00	5199.79
970.16	5050.29
970.32	5050.29
970.48	5111.73
970.65	5050.29
970.81	4923.32
970.97	5058.48
971.14	4800.44
971.30	5021.62
971.46	4911.03
971.63	4802.49
971.79	5013.43
971.95	4929.46
972.11	4859.83
972.28	4966.32
972.44	4818.87
972.60	4843.45
972.76	4935.60
972.93	4757.43
973.09	4855.73
973.25	4927.41
973.42	4976.56
973.58	5076.91
973.74	4925.36
973.90	4855.73
974.07	4884.41
974.23	4906.93
974.39	4734.90
974.55	4763.58
974.72	4751.29
974.88	4636.60
975.04	4728.76
975.20	4759.48
975.37	4841.40
975.53	4726.71
975.69	4804.53
975.85	4775.86
976.01	4706.23
976.18	4771.77
976.34	4677.56
976.50	4812.73
976.66	4657.08
976.83	4603.83
976.99	4712.38
977.15	4659.13
977.31	4480.96
977.47	4634.55
977.64	4562.87
977.80	4700.09
977.96	4675.51
978.12	4693.94
978.29	4622.27
978.45	4562.87
978.61	4513.72
978.77	4591.55
978.93	4433.85
979.10	4534.20
979.26	4517.82
979.42	4407.23
979.58	4409.28
979.74	4343.74
979.91	4452.28
980.07	4388.80
980.23	4452.28
980.39	4489.15
980.55	4517.82
980.71	4513.72
980.88	4431.80
981.04	4399.04
981.20	4493.24
981.36	4421.56
981.52	4462.52
981.68	4333.50
981.85	4368.32
982.01	4282.30
982.17	4323.26
982.33	4261.82
982.49	4349.89
982.65	4259.78
982.82	4321.21
982.98	4284.35
983.14	4136.90
983.30	4419.52
983.46	4341.69
983.62	4261.82
983.79	4229.06
983.95	4181.95
984.11	4159.42
984.27	4140.99
984.43	4165.57
984.59	4161.47
984.75	4243.39
984.91	4214.72
985.08	4261.82
985.24	4253.63
985.40	4097.99
985.56	4122.56
985.72	4106.18
985.88	4087.75
986.04	4065.22
986.20	4100.03
986.37	3893.19
986.53	3987.40
986.69	4057.03
986.85	4003.78
987.01	4110.27
987.17	3991.49
987.33	4050.88
987.49	3932.10
987.65	3993.54
987.82	3997.64
987.98	3940.29
988.14	4038.59
988.30	4071.36
988.46	4020.16
988.62	3936.20
988.78	4018.11
988.94	3870.66
989.10	3956.68
989.26	3876.80
989.42	3788.74
989.59	3745.73
989.75	3833.80
989.91	3885.00
990.07	3758.02
990.23	3715.02
990.39	3798.98
990.55	3747.78
990.71	3897.28
990.87	3690.44
991.03	3850.18
991.19	3778.50
991.35	3827.65
991.51	3862.47
991.67	3780.55
991.83	3811.27
992.00	3829.70
992.16	3755.97
992.32	3768.26
992.48	3917.76
992.64	3639.24
992.80	3729.35
992.96	3712.97
993.12	3549.13
993.28	3776.45
993.44	3581.90
993.60	3678.15
993.76	3590.09
993.92	3579.85
994.08	3712.97
994.24	3600.33
994.40	3682.25
994.56	3545.03
994.72	3510.22
994.88	3579.85
995.04	3534.79
995.20	3551.18
995.36	3534.79
995.52	3676.10
995.68	3416.01
995.84	3518.41
996.00	3497.93
996.16	3551.18
996.32	3483.59
996.48	3465.16
996.64	3592.14
996.80	3454.92
996.96	3465.16
997.12	3430.35
997.28	3411.92
997.44	3401.68
997.60	3497.93
997.76	3479.50
997.92	3424.20
998.08	3438.54
998.24	3432.40
998.40	3368.91
998.56	3332.05
998.72	3401.68
998.88	3362.76
999.04	3248.08
999.20	3395.53
999.36	3387.34
999.52	3352.52
999.68	3330.00
999.84	3325.90
1000.00	3321.81
1000.16	3268.56
1000.32	3360.72
1000.48	3354.57
1000.64	3157.97
1000.80	3188.69
1000.95	3217.36
1001.11	3260.37
1001.27	3166.16
1001.43	3237.84
1001.59	3282.89
1001.75	3166.16
1001.91	3196.88
1002.07	3147.73
1002.23	3119.06
1002.39	3108.82
1002.55	3151.82
1002.71	3090.38
1002.87	3147.73
1003.03	3026.90
1003.19	3114.96
1003.34	3229.65
1003.50	3166.16
1003.66	3235.79
1003.82	3100.62
1003.98	3067.86
1004.14	3063.76
1004.30	3082.19
1004.46	3053.52
1004.62	3033.04
1004.78	3114.96
1004.94	3018.71
1005.09	3071.95
1005.25	2973.65
1005.41	2975.70
1005.57	3016.66
1005.73	3043.28
1005.89	2949.08
1006.05	3026.90
1006.21	3002.32
1006.37	3010.51
1006.52	2910.16
1006.68	2838.48
1006.84	3112.91
1007.00	2961.36
1007.16	3018.71
1007.32	2885.59
1007.48	2893.78
1007.64	2899.92
1007.79	2963.41
1007.95	2869.20
1008.11	2936.79
1008.27	2768.85
1008.43	2916.31
1008.59	2885.59
1008.75	2838.48
1008.91	2803.67
1009.06	2854.87
1009.22	2871.25
1009.38	2838.48
1009.54	2863.06
1009.70	2799.57
1009.86	2801.62
1010.01	2924.50
1010.17	2707.41
1010.33	2799.57
1010.49	2752.47
1010.65	2922.45
1010.81	2668.50
1010.96	2762.71
1011.12	2613.21
1011.28	2656.22
1011.44	2723.80
1011.60	2736.09
1011.76	2701.27
1011.91	2809.81
1012.07	2635.74
1012.23	2648.02
1012.39	2711.51
1012.55	2789.33
1012.71	2674.65
1012.86	2654.17
1013.02	2676.70
1013.18	2744.28
1013.34	2568.15
1013.50	2725.85
1013.65	2674.65
1013.81	2643.93
1013.97	2645.98
1014.13	2615.26
1014.29	2637.78
1014.44	2656.22
1014.60	2658.26
1014.76	2695.13
1014.92	2615.26
1015.07	2727.89
1015.23	2623.45
1015.39	2584.54
1015.55	2674.65
1015.71	2496.47
1015.86	2635.74
1016.02	2512.86
1016.18	2570.20
1016.34	2631.64
1016.49	2478.04
1016.65	2621.40
1016.81	2521.05
1016.97	2555.86
1017.12	2510.81
1017.28	2486.23
1017.44	2402.27
1017.60	2486.23
1017.75	2506.71
1017.91	2564.06
1018.07	2475.99
1018.23	2480.09
1018.38	2514.91
1018.54	2420.70
1018.70	2471.90
1018.86	2445.27
1019.01	2447.32
1019.17	2457.56
1019.33	2510.81
1019.49	2502.62
1019.64	2457.56
1019.80	2451.42
1019.96	2461.66
1020.12	2432.99
1020.27	2371.55
1020.43	2385.88
1020.59	2404.32
1020.74	2400.22
1020.90	2412.51
1021.06	2404.32
1021.22	2320.35
1021.37	2324.44
1021.53	2330.59
1021.69	2435.03
1021.84	2316.25
1022.00	2400.22
1022.16	2371.55
1022.31	2222.05
1022.47	2310.11
1022.63	2377.69
1022.79	2189.28
1022.94	2248.67
1023.10	2443.23
1023.26	2359.26
1023.41	2248.67
1023.57	2289.63
1023.73	2277.34
1023.88	2316.25
1024.04	2275.29
1024.20	2289.63
1024.35	2306.01
1024.51	2246.62
1024.67	2297.82
1024.82	2379.74
1024.98	2133.98
1025.14	2211.81
1025.29	2332.64
1025.45	2273.25
1025.61	2203.61
1025.76	2201.57
1025.92	2240.48
1026.08	2199.52
1026.23	2211.81
1026.39	2269.15
1026.55	2199.52
1026.70	2138.08
1026.86	2127.84
1027.02	2187.23
1027.17	2168.80
1027.33	2248.67
1027.48	2117.60
1027.64	2170.85
1027.80	2068.45
1027.95	2220.00
1028.11	2076.64
1028.27	2107.36
1028.42	2136.03
1028.58	2101.22
1028.73	2064.35
1028.89	2064.35
1029.05	2203.61
1029.20	2205.66
>>>>>End Processed Spectral Data<<<<<
