SpectraSuite Data File
++++++++++++++++++++++++++++++++++++
Date: Fri Jun 02 14:47:58 CEST 2017
User: INFO_000
Dark Spectrum Present: No
Reference Spectrum Present: No
Number of Sampled Component Spectra: 1
Spectrometers: USB4H00879
Integration Time (usec): 80000 (USB4H00879)
Spectra Averaged: 1 (USB4H00879)
Boxcar Smoothing: 0 (USB4H00879)
Correct for Electrical Dark: No (USB4H00879)
Strobe/Lamp Enabled: No (USB4H00879)
Correct for Detector Non-linearity: No (USB4H00879)
Correct for Stray Light: No (USB4H00879)
Number of Pixels in Processed Spectrum: 3648
>>>>>Begin Processed Spectral Data<<<<<
345.13	1253.36
345.34	1253.36
345.56	1253.36
345.78	1296.36
345.99	1255.40
346.21	1689.57
346.42	1710.05
346.64	1638.38
346.86	1798.12
347.07	1570.79
347.29	1679.33
347.50	1552.36
347.72	1708.01
347.94	1699.81
348.15	1581.03
348.37	1642.47
348.59	1691.62
348.80	1652.71
349.02	1798.12
349.23	1843.17
349.45	1851.36
349.67	1886.18
349.88	1763.30
350.10	1961.95
350.31	1804.26
350.53	1791.97
350.75	1937.38
350.96	1718.25
351.18	1828.84
351.39	1920.99
351.61	1744.87
351.82	1929.19
352.04	1923.04
352.26	1773.54
352.47	1933.28
352.69	1929.19
352.90	1726.44
353.12	1873.89
353.34	1859.56
353.55	1906.66
353.77	1968.10
353.98	1839.08
354.20	1765.35
354.41	1818.60
354.63	1927.14
354.85	2035.68
355.06	1927.14
355.28	1802.21
355.49	1855.46
355.71	1988.58
355.92	1904.61
356.14	1943.52
356.35	1884.13
356.57	1843.17
356.79	1877.99
357.00	1845.22
357.22	2068.45
357.43	1839.08
357.65	1961.95
357.86	1845.22
358.08	1941.47
358.29	1951.71
358.51	2021.35
358.72	1970.15
358.94	1935.33
359.16	1867.75
359.37	1841.12
359.59	1970.15
359.80	2019.30
360.02	1918.95
360.23	1955.81
360.45	1943.52
360.66	1939.43
360.88	1880.04
361.09	1945.57
361.31	2009.06
361.52	1994.72
361.74	2058.21
361.95	2095.07
362.17	1953.76
362.38	2004.96
362.60	2033.63
362.81	2088.93
363.03	1894.37
363.24	1984.48
363.46	2058.21
363.67	2033.63
363.89	1937.38
364.10	2101.22
364.32	1939.43
364.53	2056.16
364.75	1974.24
364.96	2056.16
365.18	2019.30
365.39	1998.82
365.61	1966.05
365.82	2039.78
366.04	1980.39
366.25	1992.67
366.47	1964.00
366.68	1968.10
366.90	1998.82
367.11	2109.41
367.33	2103.26
367.54	2033.63
367.76	2007.01
367.97	2121.70
368.19	1976.29
368.40	1964.00
368.62	1984.48
368.83	1984.48
369.05	2050.02
369.26	1939.43
369.48	1990.63
369.69	1998.82
369.91	2052.06
370.12	2070.50
370.33	2131.94
370.55	1980.39
370.76	2039.78
370.98	2172.89
371.19	2074.59
371.41	2033.63
371.62	2068.45
371.84	1923.04
372.05	2158.56
372.27	2017.25
372.48	2037.73
372.69	2058.21
372.91	2109.41
373.12	2148.32
373.34	2060.26
373.55	2123.74
373.77	2207.71
373.98	2086.88
374.20	2154.46
374.41	2228.19
374.62	2080.74
374.84	2133.98
375.05	2107.36
375.27	2193.37
375.48	2093.02
375.70	2133.98
375.91	2248.67
376.12	2281.44
376.34	2181.09
376.55	2189.28
376.77	2263.01
376.98	2078.69
377.19	2146.27
377.41	2117.60
377.62	2195.42
377.84	2320.35
378.05	2328.54
378.27	2164.70
378.48	2265.05
378.69	2355.16
378.91	2336.73
379.12	2281.44
379.34	2215.90
379.55	2340.83
379.76	2220.00
379.98	2222.05
380.19	2289.63
380.41	2246.62
380.62	2306.01
380.83	2242.53
381.05	2205.66
381.26	2344.92
381.47	2322.40
381.69	2310.11
381.90	2408.41
382.12	2367.45
382.33	2295.77
382.54	2222.05
382.76	2310.11
382.97	2283.49
383.19	2246.62
383.40	2332.64
383.61	2260.96
383.83	2326.49
384.04	2312.16
384.25	2387.93
384.47	2426.84
384.68	2340.83
384.89	2289.63
385.11	2306.01
385.32	2324.44
385.54	2263.01
385.75	2404.32
385.96	2383.84
386.18	2473.95
386.39	2406.36
386.60	2357.21
386.82	2437.08
387.03	2385.88
387.24	2441.18
387.46	2406.36
387.67	2514.91
387.88	2510.81
388.10	2461.66
388.31	2371.55
388.52	2605.02
388.74	2451.42
388.95	2588.63
389.16	2437.08
389.38	2486.23
389.59	2551.77
389.80	2656.22
390.02	2551.77
390.23	2621.40
390.44	2670.55
390.66	2586.58
390.87	2498.52
391.08	2633.69
391.30	2760.66
391.51	2658.26
391.72	2641.88
391.94	2615.26
392.15	2736.09
392.36	2619.35
392.58	2539.48
392.79	2684.89
393.00	2697.17
393.22	2633.69
393.43	2744.28
393.64	2793.43
393.85	2674.65
394.07	2697.17
394.28	2813.91
394.49	2793.43
394.71	2684.89
394.92	2838.48
395.13	2727.89
395.35	2715.61
395.56	2656.22
395.77	2664.41
395.98	2740.18
396.20	2869.20
396.41	2746.33
396.62	2813.91
396.84	2775.00
397.05	2822.10
397.26	2871.25
397.47	3024.85
397.69	2861.01
397.90	2930.64
398.11	2981.84
398.32	2856.92
398.54	2770.90
398.75	2777.05
398.96	2852.82
399.18	3026.90
399.39	2914.26
399.60	3002.32
399.81	2869.20
400.03	2977.75
400.24	3217.36
400.45	2938.84
400.66	3059.67
400.88	3051.47
401.09	3170.26
401.30	3051.47
401.51	3094.48
401.73	3123.15
401.94	3084.24
402.15	3102.67
402.36	3092.43
402.58	3108.82
402.79	3164.11
403.00	3076.05
403.21	3043.28
403.43	3215.31
403.64	3311.57
403.85	3088.34
404.06	3260.37
404.27	3153.87
404.49	3155.92
404.70	3198.93
404.91	3276.75
405.12	3239.89
405.34	3219.41
405.55	3407.82
405.76	3153.87
405.97	3252.17
406.19	3405.77
406.40	3149.78
406.61	3278.80
406.82	3364.81
407.03	3280.85
407.25	3315.66
407.46	3393.48
407.67	3426.25
407.88	3393.48
408.09	3276.75
408.31	3360.72
408.52	3463.12
408.73	3370.96
408.94	3358.67
409.15	3420.11
409.37	3502.03
409.58	3502.03
409.79	3598.28
410.00	3585.99
410.21	3497.93
410.43	3401.68
410.64	3366.86
410.85	3518.41
411.06	3655.62
411.27	3588.04
411.48	3499.98
411.70	3530.70
411.91	3514.31
412.12	3559.37
412.33	3514.31
412.54	3497.93
412.76	3737.54
412.97	3665.86
413.18	3448.78
413.39	3608.52
413.60	3749.83
413.81	3606.47
414.03	3508.17
414.24	3692.49
414.45	3741.64
414.66	3493.83
414.87	3692.49
415.08	3661.77
415.30	3768.26
415.51	3739.59
415.72	3805.13
415.93	3680.20
416.14	3815.37
416.35	3782.60
416.56	3753.93
416.78	3829.70
416.99	3755.97
417.20	3833.80
417.41	3815.37
417.62	3743.69
417.83	3893.19
418.04	3946.44
418.26	4050.88
418.47	4003.78
418.68	4005.83
418.89	3870.66
419.10	4054.98
419.31	4024.26
419.52	3942.34
419.73	4030.40
419.95	4108.23
420.16	3940.29
420.37	3968.96
420.58	4130.75
420.79	3850.18
421.00	4014.02
421.21	4005.83
421.42	3975.11
421.63	4138.94
421.85	4081.60
422.06	4278.21
422.27	4186.05
422.48	4016.07
422.69	4179.90
422.90	4253.63
423.11	4382.65
423.32	4302.78
423.53	4353.98
423.75	4276.16
423.96	4458.43
424.17	4468.67
424.38	4339.65
424.59	4376.51
424.80	4452.28
425.01	4505.53
425.22	4376.51
425.43	4392.89
425.64	4597.69
425.85	4730.81
426.06	4548.54
426.28	4526.01
426.49	4345.79
426.70	4521.92
426.91	4452.28
427.12	4597.69
427.33	4587.45
427.54	4546.49
427.75	4687.80
427.96	4755.38
428.17	4591.55
428.38	4798.39
428.59	4767.67
428.80	4833.21
429.01	4728.76
429.23	4900.79
429.44	4964.28
429.65	4984.76
429.86	5017.52
430.07	4767.67
430.28	4761.53
430.49	5115.83
430.70	5197.74
430.91	4999.09
431.12	4943.80
431.33	5009.33
431.54	5113.78
431.75	5066.67
431.96	5177.26
432.17	5148.59
432.38	5109.68
432.59	5349.29
432.80	5222.32
433.01	5334.96
433.22	5382.06
433.43	5322.67
433.64	5384.11
433.85	5201.84
434.06	5337.01
434.27	5226.42
434.49	5334.96
434.70	5341.10
434.91	5486.51
435.12	5492.65
435.33	5439.40
435.54	5304.24
435.75	5207.98
435.96	5509.04
436.17	5564.33
436.38	5486.51
436.59	5627.82
436.80	5603.24
437.01	5746.60
437.22	5681.07
437.43	5627.82
437.64	5511.08
437.85	5730.22
438.06	5660.59
438.27	5556.14
438.48	5613.48
438.69	5756.84
438.90	5767.08
439.11	5601.19
439.32	5838.76
439.53	5887.91
439.74	5875.62
439.95	5857.19
440.16	5777.32
440.37	5906.34
440.57	5869.48
440.78	5939.11
440.99	6154.15
441.20	6016.93
441.41	5828.52
441.62	6006.69
441.83	5990.31
442.04	6029.22
442.25	5902.25
442.46	5922.73
442.67	6213.54
442.88	6365.09
443.09	5973.92
443.30	6098.85
443.51	6068.13
443.72	6387.61
443.93	6111.14
444.14	6291.36
444.35	6148.00
444.56	6391.71
444.77	6434.72
444.98	6197.15
445.19	6410.14
445.40	6156.19
445.61	6401.95
445.81	6467.49
446.02	6483.87
446.23	6270.88
446.44	6252.45
446.65	6440.86
446.86	6516.64
447.07	6502.30
447.28	6621.08
447.49	6592.41
447.70	6391.71
447.91	6637.47
448.12	6514.59
448.33	6750.10
448.54	6727.58
448.74	6461.34
448.95	6647.71
449.16	6659.99
449.37	6893.46
449.58	6813.59
449.79	7075.73
450.00	6655.90
450.21	6877.08
450.42	6848.41
450.63	6928.28
450.84	6936.47
451.05	7088.02
451.25	6959.00
451.46	6883.22
451.67	6995.86
451.88	7200.66
452.09	7116.69
452.30	6934.42
452.51	7104.40
452.72	7219.09
452.93	7290.77
453.13	7147.41
453.34	7225.23
453.55	7393.17
453.76	7221.14
453.97	7583.63
454.18	7372.69
454.39	7516.05
454.60	7258.00
454.81	7329.68
455.01	7567.24
455.22	7350.16
455.43	7618.44
455.64	7575.44
455.85	7710.60
456.06	7720.84
456.27	7688.07
456.48	7726.99
456.68	7784.33
456.89	7800.71
457.10	8138.63
457.31	7872.39
457.52	7925.64
457.73	8013.70
457.94	8220.55
458.14	7872.39
458.35	8214.40
458.56	8034.18
458.77	8118.15
458.98	8263.55
459.19	8189.83
459.39	8249.22
459.60	8513.41
459.81	8310.66
460.02	8556.41
460.23	8533.89
460.44	8767.35
460.65	8595.32
460.85	8599.42
461.06	8847.22
461.27	8486.78
461.48	8863.61
461.69	9052.02
461.89	8480.64
462.10	8943.48
462.31	8630.14
462.52	8949.62
462.73	8699.77
462.94	9109.36
463.14	9103.22
463.35	9338.74
463.56	9572.21
463.77	9291.63
463.98	9068.41
464.18	9195.38
464.39	9344.88
464.60	9693.04
464.81	9510.77
465.02	9387.89
465.23	9604.97
465.43	9430.90
465.64	9822.06
465.85	9709.42
466.06	9639.79
466.27	10121.06
466.47	9912.17
466.68	10057.57
466.89	9961.32
467.10	10143.59
467.30	9989.99
467.51	10043.24
467.72	10385.25
467.93	10114.92
468.14	10399.59
468.34	10549.09
468.55	10413.92
468.76	10702.68
468.97	10399.59
469.17	10639.20
469.38	10659.68
469.59	10571.61
469.80	10729.31
470.01	10657.63
470.21	10729.31
470.42	11001.69
470.63	10944.34
470.84	11136.85
471.04	11222.87
471.25	11229.01
471.46	11224.92
471.67	11421.52
471.87	11542.35
472.08	11636.56
472.29	11753.29
472.50	11421.52
472.70	11689.81
472.91	11716.43
473.12	11972.43
473.33	12162.89
473.53	12271.43
473.74	11997.00
473.95	12209.99
474.16	12404.55
474.36	12341.06
474.57	12566.34
474.78	12646.21
474.99	12414.79
475.19	12566.34
475.40	12547.90
475.61	12932.92
475.81	12916.54
476.02	13225.78
476.23	12928.83
476.44	13152.06
476.64	13365.04
476.85	13563.70
477.06	13446.96
477.27	13702.96
477.47	13526.83
477.68	13737.77
477.89	13946.67
478.09	13848.36
478.30	14028.59
478.51	14094.12
478.71	14196.52
478.92	13942.57
479.13	14298.92
479.34	14423.84
479.54	14468.90
479.75	14546.72
479.96	14599.97
480.16	14737.18
480.37	14700.32
480.58	14817.05
480.78	15056.67
480.99	15058.71
481.20	15279.89
481.41	15306.52
481.61	15238.94
481.82	15648.53
482.03	15470.36
482.23	15431.44
482.44	15804.17
482.65	15691.54
482.85	15914.77
483.06	15943.44
483.27	16021.26
483.47	16117.51
483.68	15986.44
483.89	16086.79
484.09	16248.58
484.30	16348.93
484.51	16740.10
484.71	16848.64
484.92	16760.58
485.13	17016.57
485.33	16738.05
485.54	16844.54
485.75	17252.09
485.95	17364.73
486.16	17334.01
486.37	17530.61
486.57	17520.37
486.78	17448.69
486.98	17528.56
487.19	17633.01
487.40	17557.24
487.60	17870.58
487.81	17909.49
488.02	17911.53
488.22	17997.55
488.43	18327.27
488.64	18216.68
488.84	18403.05
489.05	18685.67
489.25	18532.07
489.46	18583.27
489.67	18693.86
489.87	18880.22
490.08	18861.79
490.29	18974.43
490.49	19410.65
490.70	19226.33
490.90	19273.43
491.11	19080.92
491.32	19695.32
491.52	19390.17
491.73	19558.10
491.94	19685.08
492.14	19472.09
492.35	20207.31
492.55	20045.52
492.76	20025.04
492.97	20336.33
493.17	19955.41
493.38	20455.11
493.58	20723.40
493.79	20573.89
494.00	20324.04
494.20	20502.22
494.41	20807.36
494.61	20817.60
494.82	20690.63
495.02	20750.02
495.23	21132.99
495.44	21069.50
495.64	21319.35
495.85	21243.58
496.05	21370.55
496.26	21503.67
496.47	21534.39
496.67	21530.30
496.88	22013.62
497.08	21431.99
497.29	21966.51
497.49	21935.79
497.70	22068.91
497.91	21995.18
498.11	22073.01
498.32	22310.57
498.52	22355.63
498.73	22716.07
498.93	22613.67
499.14	22849.19
499.34	22427.31
499.55	23021.22
499.76	22830.76
499.96	23099.04
500.17	23125.66
500.37	22931.11
500.58	23207.58
500.78	23056.03
500.99	23428.76
501.19	23770.77
501.40	23404.19
501.60	23273.12
501.81	23713.43
502.02	23420.57
502.22	23537.30
502.43	23639.70
502.63	23912.08
502.84	23950.99
503.04	23867.03
503.25	24180.37
503.45	23824.02
503.66	24268.43
503.86	24155.79
504.07	24639.11
504.27	24501.90
504.48	24817.29
504.68	24766.09
504.89	24835.72
505.09	24639.11
505.30	24567.43
505.50	24901.25
505.71	24917.64
505.91	24811.14
506.12	24901.25
506.32	25017.99
506.53	25239.17
506.73	25413.24
506.94	25323.13
507.14	25360.00
507.35	25605.75
507.55	25695.86
507.76	25534.07
507.96	25081.47
508.17	25630.33
508.37	25601.66
508.58	25865.85
508.78	25599.61
508.99	26013.30
509.19	26240.62
509.40	26273.39
509.60	25968.24
509.81	26181.23
510.01	25978.48
510.22	26170.99
510.42	26340.97
510.63	26553.96
510.83	26349.17
511.04	26586.73
511.24	26551.91
511.44	26527.34
511.65	26650.22
511.85	26828.39
512.06	26846.82
512.26	26764.90
512.47	26920.55
512.67	26762.86
512.88	27252.32
513.08	26807.91
513.29	27393.63
513.49	27293.28
513.69	26859.11
513.90	27346.53
514.10	27383.39
514.31	27367.01
514.51	27264.61
514.72	27606.62
514.92	27313.76
515.13	27659.87
515.33	27711.07
515.53	27659.87
515.74	27803.22
515.94	27975.25
516.15	27917.91
516.35	27807.32
516.56	27899.48
516.76	27889.24
516.96	28083.80
517.17	28198.48
517.37	28249.68
517.58	28325.46
517.78	27782.74
517.99	28028.50
518.19	28530.25
518.39	28452.43
518.60	28630.60
518.80	28739.15
519.01	28538.44
519.21	28831.30
519.41	28853.83
519.62	28859.98
519.82	29005.38
520.03	29007.43
520.23	29156.93
520.43	28956.23
520.64	29310.53
520.84	29406.78
521.05	29095.49
521.25	29507.13
521.45	29429.31
521.66	29566.52
521.86	29376.06
522.07	29584.96
522.27	29636.16
522.47	29578.81
522.68	29912.63
522.88	29414.98
523.08	30256.69
523.29	30053.94
523.49	29943.35
523.70	29963.83
523.90	29980.21
524.10	30324.27
524.31	30660.14
524.51	29847.10
524.71	30830.12
524.92	30592.56
525.12	30764.59
525.33	30615.08
525.53	30582.32
525.73	31020.58
525.94	31041.06
526.14	31102.50
526.34	30844.46
526.55	31036.97
526.75	30981.67
526.95	31551.01
527.16	31168.04
527.36	31534.62
527.56	31639.07
527.77	31780.38
527.97	32126.49
528.17	31997.46
528.38	31774.24
528.58	31530.53
528.78	32187.92
528.99	32058.90
529.19	32415.25
529.39	31833.63
529.60	32704.01
529.80	32405.01
530.00	32226.84
530.21	32577.04
530.41	32665.10
530.61	32808.46
530.82	33041.93
531.02	32683.53
531.22	32955.91
531.43	32939.53
531.63	33072.65
531.83	33441.28
532.04	33646.08
532.24	33596.93
532.44	33916.41
532.64	33625.60
532.85	33986.04
533.05	33703.42
533.25	33807.87
533.46	33881.60
533.66	33805.82
533.86	34153.97
534.07	34778.61
534.27	34248.18
534.47	34657.78
534.67	34665.97
534.88	34407.92
535.08	34756.08
535.28	34950.63
535.49	34797.04
535.69	34760.17
535.89	35171.82
536.09	34952.68
536.30	35552.74
536.50	35091.94
536.70	35507.68
536.91	35614.18
537.11	35319.27
537.31	35562.98
537.51	35825.12
537.72	35980.76
537.92	35778.01
538.12	36244.95
538.32	35960.28
538.53	36249.05
538.73	36124.12
538.93	36488.66
539.13	36445.65
539.34	36474.32
539.54	36376.02
539.74	36840.91
539.94	36466.13
540.15	36718.03
540.35	37002.70
540.55	36859.34
540.75	37053.90
540.96	37160.39
541.16	37203.40
541.36	37238.22
541.56	37246.41
541.77	37699.01
541.97	37600.71
542.17	37696.96
542.37	37729.73
542.58	37764.54
542.78	37553.60
542.98	37623.23
543.18	37729.73
543.38	38102.46
543.59	38450.61
543.79	37934.53
543.99	38030.78
544.19	38071.74
544.40	37840.32
544.60	38397.37
544.80	38362.55
545.00	38290.87
545.20	38839.73
545.41	38600.12
545.61	38473.14
545.81	39341.48
546.01	38647.22
546.21	38692.27
546.42	39126.44
546.62	39255.46
546.82	38806.96
547.02	38899.12
547.22	39368.10
547.43	39202.22
547.63	39431.59
547.83	39284.14
548.03	39253.42
548.23	39361.96
548.44	39622.05
548.64	39542.18
548.84	39746.98
549.04	39640.48
549.24	39749.03
549.45	40220.06
549.65	40197.53
549.85	40088.99
550.05	40062.36
550.25	39765.41
550.45	40476.05
550.66	40115.61
550.86	40054.17
551.06	40787.35
551.26	40582.55
551.46	40627.60
551.66	40709.52
551.87	40566.16
552.07	40899.98
552.27	40338.84
552.47	40775.06
552.67	40629.65
552.87	40887.70
553.07	41153.93
553.28	40955.28
553.48	41178.51
553.68	40951.18
553.88	41325.96
554.08	41272.71
554.28	41194.89
554.48	41135.50
554.69	41629.06
554.89	41477.51
555.09	41270.67
555.29	41168.27
555.49	42079.61
555.69	41567.62
555.89	41710.98
556.10	42071.42
556.30	41514.37
556.50	42196.35
556.70	41588.10
556.90	42057.09
557.10	42509.69
557.30	41919.87
557.50	42096.00
557.70	42347.90
557.91	42833.27
558.11	42208.64
558.31	42311.03
558.51	42651.00
558.71	42794.36
558.91	42993.01
559.11	42184.06
559.31	42177.92
559.51	42460.54
559.72	42929.52
559.92	42648.95
560.12	42503.54
560.32	42777.97
560.52	42831.22
560.72	43183.47
560.92	42915.19
561.12	42874.23
561.32	43326.83
561.52	42804.59
561.72	43214.19
561.93	42958.19
562.13	43167.09
562.33	42974.58
562.53	43529.58
562.73	42900.85
562.93	43050.35
563.13	43478.38
563.33	43312.49
563.53	43758.95
563.73	43181.42
563.93	43341.16
564.13	43992.42
564.33	43478.38
564.53	43933.03
564.74	43664.74
564.94	43341.16
565.14	43840.87
565.34	43500.90
565.54	44055.90
565.74	43965.79
565.94	44186.97
566.14	44164.45
566.34	43795.81
566.54	44547.42
566.74	43713.89
566.94	44199.26
567.14	44307.80
567.34	44010.85
567.54	44297.56
567.74	44027.23
567.94	44004.70
568.14	44461.40
568.34	44526.94
568.54	44528.98
568.74	44512.60
568.94	44514.65
569.14	44526.94
569.34	44717.40
569.54	44522.84
569.75	44469.59
569.95	44526.94
570.15	44866.90
570.35	44887.38
570.55	44602.71
570.75	44615.00
570.95	44762.45
571.15	44922.19
571.35	45028.69
571.55	45370.70
571.75	45083.98
571.95	45374.80
572.15	44924.24
572.35	45118.80
572.55	44930.39
572.75	45337.93
572.95	45210.96
573.15	45149.52
573.35	45069.65
573.55	45333.84
573.75	45634.89
573.95	45700.42
574.15	45339.98
574.35	45505.87
574.55	45348.17
574.75	45245.77
574.95	45696.33
575.15	45002.07
575.34	45540.68
575.54	45886.79
575.74	46019.91
575.94	46202.18
576.14	45913.41
576.34	45696.33
576.54	46495.03
576.74	46003.52
576.94	45880.64
577.14	46353.72
577.34	46452.03
577.54	45931.84
577.74	45978.95
577.94	46404.92
578.14	46433.60
578.34	46613.82
578.54	45978.95
578.74	46619.96
578.94	46531.90
579.14	46294.33
579.34	46579.00
579.54	46497.08
579.74	46916.92
579.94	46570.81
580.13	47072.56
580.33	46763.32
580.53	46945.59
580.73	47062.32
580.93	46929.20
581.13	46847.29
581.33	47349.04
581.53	47269.17
581.73	46986.55
581.93	47547.69
582.13	47222.06
582.33	47396.14
582.53	46943.54
582.73	47418.67
582.92	47289.65
583.12	47346.99
583.32	47936.80
583.52	46921.01
583.72	47496.49
583.92	47543.59
584.12	47617.32
584.32	48178.46
584.52	47768.87
584.72	47813.93
584.92	47945.00
585.11	48403.74
585.31	47908.13
585.51	48280.86
585.71	48090.40
585.91	48418.08
586.11	47881.51
586.31	47789.35
586.51	47592.75
586.71	48282.91
586.91	48667.93
587.10	48413.98
587.30	48608.54
587.50	48352.54
587.70	48231.71
587.90	48694.55
588.10	48518.43
588.30	48657.69
588.50	48805.14
588.69	48686.36
588.89	48526.62
589.09	48801.05
589.29	48377.12
589.49	48698.65
589.69	48553.24
589.89	48778.52
590.08	49233.17
590.28	48741.66
590.48	49036.56
590.68	48934.17
590.88	48801.05
591.08	48854.29
591.28	48842.01
591.47	49204.50
591.67	49462.54
591.87	49261.84
592.07	48932.12
592.27	49214.74
592.47	49358.09
592.67	49413.39
592.86	49253.65
593.06	49407.25
593.26	49757.45
593.46	49376.53
593.66	49392.91
593.86	49767.69
594.05	49839.37
594.25	49673.48
594.45	49468.69
594.65	49491.21
594.85	49546.51
595.05	49747.21
595.24	50040.07
595.44	49990.92
595.64	50091.27
595.84	50197.76
596.04	50101.51
596.23	50351.36
596.43	50590.97
596.63	50398.46
596.83	50418.94
597.03	50408.70
597.22	50697.47
597.42	50939.13
597.62	50840.82
597.82	50394.37
598.02	50515.20
598.21	50394.37
598.41	50083.08
598.61	50588.92
598.81	50507.01
599.01	50627.84
599.20	50814.20
599.40	50861.30
599.60	50877.69
599.80	51180.79
600.00	51227.89
600.19	51174.64
600.39	50853.11
600.59	51621.10
600.79	51313.90
600.98	51014.90
601.18	51121.40
601.38	51361.01
601.58	51522.80
601.78	51639.53
601.97	51479.79
602.17	51815.66
602.37	51660.01
602.57	51776.75
602.76	51852.52
602.96	51623.15
603.16	52081.89
603.36	52151.52
603.55	52294.88
603.75	51897.58
603.95	52446.43
604.15	52024.55
604.34	52212.96
604.54	52221.16
604.74	51854.57
604.94	52450.53
605.13	52665.56
605.33	52772.06
605.53	52202.72
605.73	52761.82
605.92	52352.23
606.12	52589.79
606.32	52624.60
606.52	52485.34
606.71	52614.37
606.91	53169.36
607.11	52667.61
607.30	52958.42
607.50	52915.42
607.70	53574.86
607.90	53171.41
608.09	53333.20
608.29	53329.11
608.49	53001.43
608.68	53261.52
608.88	52952.28
609.08	53611.73
609.28	53316.82
609.47	53314.77
609.67	53654.73
609.87	53361.87
610.06	53791.95
610.26	53619.92
610.46	53763.28
610.66	53517.52
610.85	53241.04
611.05	53417.17
611.25	53869.77
611.44	53341.39
611.64	53664.97
611.84	53572.81
612.03	53574.86
612.23	53914.83
612.43	53699.79
612.62	53652.69
612.82	54383.81
613.02	53718.22
613.21	53984.46
613.41	54080.71
613.61	53896.39
613.80	53419.22
614.00	53949.64
614.20	53984.46
614.39	53945.54
614.59	54303.94
614.79	54189.25
614.98	54121.67
615.18	54199.49
615.38	54013.13
615.57	54195.40
615.77	53912.78
615.97	54355.14
616.16	54293.70
616.36	54066.38
616.56	55004.34
616.75	54258.88
616.95	54207.68
617.15	54449.35
617.34	54172.87
617.54	54490.30
617.74	54797.50
617.93	55024.82
618.13	53845.19
618.32	54420.67
618.52	53908.68
618.72	54555.84
618.91	54609.09
619.11	54625.47
619.31	54625.47
619.50	54430.91
619.70	54095.05
619.90	54418.63
620.09	54482.11
620.29	54711.49
620.48	54187.21
620.68	54760.64
620.88	54314.18
621.07	54518.98
621.27	54467.78
621.46	54234.31
621.66	54658.24
621.86	54410.43
622.05	54154.44
622.25	55205.05
622.44	54738.11
622.64	54404.29
622.84	54699.20
623.03	54392.00
623.23	54523.07
623.42	54621.37
623.62	54879.42
623.82	55180.47
624.01	54596.80
624.21	54867.13
624.40	54803.64
624.60	54701.25
624.80	54879.42
624.99	54686.91
625.19	54305.99
625.38	54701.25
625.58	54379.71
625.77	54803.64
625.97	54693.05
626.17	54539.46
626.36	54809.79
626.56	54885.56
626.75	54326.47
626.95	54727.87
627.14	54432.96
627.34	54850.75
627.54	54541.50
627.73	54817.98
627.93	54979.77
628.12	54834.36
628.32	54658.24
628.51	54711.49
628.71	54908.09
628.90	54723.77
629.10	54678.72
629.30	54699.20
629.49	55131.32
629.69	54502.59
629.88	54588.61
630.08	54920.38
630.27	55000.25
630.47	54899.90
630.66	54889.66
630.86	55190.71
631.05	55000.25
631.25	55350.45
631.44	55260.34
631.64	54846.65
631.84	55180.47
632.03	55565.49
632.23	54924.47
632.42	55047.35
632.62	54924.47
632.81	55116.98
633.01	55305.40
633.20	55276.72
633.40	55039.16
633.59	55499.95
633.79	55080.12
633.98	55268.53
634.18	55311.54
634.37	55080.12
634.57	54875.32
634.76	55350.45
634.96	55336.12
635.15	55641.26
635.35	54867.13
635.54	54883.51
635.74	55415.99
635.93	55346.36
636.13	55655.60
636.32	55370.93
636.52	54979.77
636.71	55870.64
636.91	55133.37
637.10	55528.62
637.30	55024.82
637.49	55014.58
637.69	55555.25
637.88	55297.20
638.08	55088.31
638.27	55674.03
638.46	55424.18
638.66	55057.59
638.85	55960.75
639.05	55305.40
639.24	55674.03
639.44	55403.70
639.63	55372.98
639.83	55608.50
640.02	55465.14
640.22	55317.68
640.41	56104.10
640.61	55121.08
640.80	55686.32
640.99	55608.50
641.19	55825.58
641.38	55540.91
641.58	55839.92
641.77	55528.62
641.97	55641.26
642.16	55682.22
642.36	55952.55
642.55	55942.31
642.74	55696.56
642.94	56388.77
643.13	55362.74
643.33	55614.64
643.52	56151.21
643.72	55950.51
643.91	55981.23
644.10	55854.25
644.30	56026.28
644.49	55702.70
644.69	56335.52
644.88	56218.79
645.08	55526.58
645.27	56042.66
645.46	55790.76
645.66	55887.02
645.85	55809.20
646.05	55796.91
646.24	56110.25
646.43	55997.61
646.63	56026.28
646.82	56034.47
647.02	56200.36
647.21	56175.78
647.40	55782.57
647.60	56415.40
647.79	56247.46
647.99	56120.49
648.18	55866.54
648.37	56650.91
648.57	56415.40
648.76	56251.56
648.96	56370.34
649.15	56568.99
649.34	56566.94
649.54	56308.90
649.73	56054.95
649.92	56036.52
650.12	56018.09
650.31	56200.36
650.51	56095.91
650.70	56220.84
650.89	55645.36
651.09	56337.57
651.28	56120.49
651.47	56210.60
651.67	56407.20
651.86	56775.84
652.06	55674.03
652.25	56566.94
652.44	56386.72
652.64	55944.36
652.83	56091.82
653.02	55856.30
653.22	56171.69
653.41	55620.78
653.60	55975.08
653.80	56403.11
653.99	55997.61
654.18	56243.37
654.38	55620.78
654.57	56505.51
654.76	56341.67
654.96	55942.31
655.15	55870.64
655.34	56308.90
655.54	55704.75
655.73	56259.75
655.92	56108.20
656.12	56394.92
656.31	56155.30
656.50	56331.43
656.70	56626.34
656.89	56128.68
657.08	56450.21
657.28	56329.38
657.47	55825.58
657.66	55968.94
657.86	56558.75
658.05	56190.12
658.24	56190.12
658.43	55968.94
658.63	55991.47
658.82	56491.17
659.01	56374.44
659.21	56554.66
659.40	56278.18
659.59	56063.14
659.79	56472.74
659.98	56542.37
660.17	56345.76
660.36	56325.28
660.56	56181.93
660.75	56136.87
660.94	55991.47
661.14	56116.39
661.33	56372.39
661.52	55723.18
661.71	56468.64
661.91	55925.93
662.10	55911.59
662.29	56636.58
662.49	55915.69
662.68	56224.93
662.87	56077.48
663.06	56310.95
663.26	56059.05
663.45	56403.11
663.64	55958.70
663.83	56163.50
664.03	56196.26
664.22	56226.98
664.41	56288.42
664.60	55743.66
664.80	56280.23
664.99	56026.28
665.18	55737.52
665.37	56128.68
665.57	56255.65
665.76	55841.96
665.95	56104.10
666.14	55829.68
666.34	55817.39
666.53	55981.23
666.72	55981.23
666.91	55964.84
667.11	55760.05
667.30	55909.55
667.49	55919.79
667.68	56274.09
667.87	55952.55
668.07	55962.79
668.26	55276.72
668.45	55540.91
668.64	55780.52
668.84	56177.83
669.03	56151.21
669.22	55751.85
669.41	55860.40
669.60	56044.71
669.80	55540.91
669.99	56423.59
670.18	55522.48
670.37	56130.73
670.57	56327.33
670.76	55839.92
670.95	56042.66
671.14	55884.97
671.33	55592.11
671.53	56138.92
671.72	55925.93
671.91	55880.88
672.10	55676.08
672.29	55872.68
672.48	55700.65
672.68	55936.17
672.87	55407.79
673.06	55710.89
673.25	55739.57
673.44	55497.91
673.64	55518.38
673.83	55727.28
674.02	55837.87
674.21	55428.27
674.40	56143.02
674.59	55526.58
674.79	55239.86
674.98	55817.39
675.17	56034.47
675.36	55643.31
675.55	55858.35
675.74	55444.66
675.94	55504.05
676.13	55655.60
676.32	55594.16
676.51	55911.59
676.70	55549.10
676.89	55422.13
677.08	56353.96
677.28	55248.05
677.47	55708.85
677.66	55620.78
677.85	55516.34
678.04	55477.43
678.23	55663.79
678.42	55522.48
678.62	55420.08
678.81	55454.90
679.00	55473.33
679.19	55776.43
679.38	55579.82
679.57	55325.88
679.76	55198.90
679.96	55366.84
680.15	55403.70
680.34	55530.67
680.53	55491.76
680.72	55497.91
680.91	55344.31
681.10	54981.82
681.29	55436.47
681.48	55205.05
681.68	55334.07
681.87	55254.20
682.06	55336.12
682.25	55080.12
682.44	55182.52
682.63	55420.08
682.82	55076.02
683.01	55008.44
683.20	54893.75
683.39	55211.19
683.59	55393.46
683.78	55137.46
683.97	55147.70
684.16	55045.30
684.35	54867.13
684.54	55119.03
684.73	54828.22
684.92	54932.67
685.11	55213.24
685.30	55071.93
685.49	55043.26
685.69	54815.93
685.88	54957.24
686.07	55119.03
686.26	55145.65
686.45	54918.33
686.64	54715.58
686.83	54760.64
687.02	55198.90
687.21	54924.47
687.40	55127.22
687.59	54936.76
687.78	55260.34
687.97	55235.77
688.16	55358.64
688.35	54850.75
688.54	54688.96
688.74	54848.70
688.93	54744.25
689.12	54844.60
689.31	55014.58
689.50	54858.94
689.69	54592.70
689.88	54865.08
690.07	54641.85
690.26	54703.29
690.45	54801.60
690.64	54557.89
690.83	54637.76
691.02	54443.20
691.21	54910.14
691.40	54492.35
691.59	55063.74
691.78	54451.39
691.97	54457.54
692.16	54551.74
692.35	54746.30
692.54	54828.22
692.73	54623.42
692.92	54693.05
693.11	54641.85
693.30	54000.84
693.49	54617.28
693.68	54342.85
693.87	54310.08
694.06	54353.09
694.25	54582.46
694.44	54330.56
694.63	54428.87
694.82	54074.57
695.01	54815.93
695.20	53794.00
695.39	54256.84
695.58	54506.69
695.77	54516.93
695.96	53820.62
696.15	53734.60
696.34	54219.97
696.53	54281.41
696.72	54252.74
696.91	53888.20
697.10	54355.14
697.29	54148.29
697.48	54416.58
697.67	53798.09
697.86	53382.35
698.05	53877.96
698.24	54176.97
698.43	53523.66
698.62	54387.91
698.81	53810.38
699.00	54248.64
699.19	53822.67
699.38	53566.67
699.57	52978.90
699.76	54144.20
699.95	53642.45
700.14	53523.66
700.32	53640.40
700.51	53359.83
700.70	54011.08
700.89	53974.22
701.08	53859.53
701.27	53376.21
701.46	54101.19
701.65	52901.08
701.84	53529.81
702.03	53771.47
702.22	53732.56
702.41	53509.33
702.60	53935.30
702.79	53167.32
702.98	53144.79
703.17	53386.45
703.35	52870.36
703.54	53220.56
703.73	53867.72
703.92	53597.39
704.11	53355.73
704.30	53425.36
704.49	53220.56
704.68	53200.08
704.87	53501.14
705.06	53109.97
705.25	53308.63
705.43	53644.49
705.62	53740.75
705.81	53187.80
706.00	53187.80
706.19	53163.22
706.38	53112.02
706.57	53195.99
706.76	53198.04
706.95	53208.28
707.14	53257.43
707.32	53222.61
707.51	52729.05
707.70	53015.77
707.89	53056.73
708.08	52591.84
708.27	53261.52
708.46	53302.48
708.65	53001.43
708.84	53247.19
709.02	52813.02
709.21	53130.45
709.40	52655.32
709.59	52761.82
709.78	52401.38
709.97	53066.97
710.16	52593.89
710.34	52602.08
710.53	52980.95
710.72	52520.16
710.91	52767.96
711.10	52708.57
711.29	52896.98
711.48	52618.46
711.66	52651.23
711.85	52505.82
712.04	52552.93
712.23	52600.03
712.42	52591.84
712.61	52546.78
712.80	52352.23
712.98	52237.54
713.17	52557.02
713.36	51979.49
713.55	52585.69
713.74	51979.49
713.93	52614.37
714.11	52403.42
714.30	52049.13
714.49	52012.26
714.68	52247.78
714.87	52126.95
715.06	52602.08
715.24	52024.55
715.43	52069.61
715.62	52188.39
715.81	51795.18
716.00	51877.10
716.18	51741.93
716.37	51801.32
716.56	51823.85
716.75	52534.49
716.94	51600.62
717.12	51307.76
717.31	51770.60
717.50	51956.97
717.69	51541.23
717.88	51733.74
718.06	51664.11
718.25	51537.13
718.44	51723.50
718.63	51412.21
718.82	51516.65
719.00	51010.81
719.19	50920.70
719.38	51074.29
719.57	51004.66
719.76	50885.88
719.94	50722.04
720.13	51119.35
720.32	50629.88
720.51	50550.01
720.69	50926.84
720.88	50748.67
721.07	50875.64
721.26	50109.70
721.44	50519.29
721.63	50312.45
721.82	50158.85
722.01	50539.77
722.20	50558.20
722.38	50246.91
722.57	49773.83
722.76	50115.84
722.95	50255.11
723.13	49638.67
723.32	49927.43
723.51	49521.93
723.70	49773.83
723.88	50001.16
724.07	49399.05
724.26	49616.14
724.44	49394.96
724.63	50015.49
724.82	49661.19
725.01	49745.16
725.19	49853.70
725.38	49595.66
725.57	49216.78
725.76	49466.64
725.94	49362.19
726.13	48639.26
726.32	49292.56
726.51	49044.76
726.69	49696.01
726.88	49362.19
727.07	49458.45
727.25	49149.20
727.44	49175.83
727.63	49276.18
727.82	49405.20
728.00	49521.93
728.19	49159.44
728.38	49151.25
728.56	48727.32
728.75	49216.78
728.94	49079.57
729.12	48958.74
729.31	48989.46
729.50	48940.31
729.69	49294.61
729.87	48846.10
730.06	49224.98
730.25	49104.15
730.43	49413.39
730.62	48456.99
730.81	49057.04
730.99	49380.62
731.18	48710.94
731.37	49216.78
731.55	49308.94
731.74	49020.18
731.93	49167.63
732.11	48872.73
732.30	49483.02
732.49	48762.14
732.67	48770.33
732.86	49108.24
733.05	48747.80
733.23	48530.72
733.42	48774.42
733.61	48710.94
733.79	48510.24
733.98	48966.93
734.17	48483.61
734.35	48680.22
734.54	49239.31
734.73	48960.79
734.91	48528.67
735.10	48338.21
735.29	48698.65
735.47	47936.80
735.66	48362.78
735.84	48416.03
736.03	48346.40
736.22	48530.72
736.40	48635.16
736.59	48307.49
736.78	48252.19
736.96	48157.99
737.15	48315.68
737.33	48622.87
737.52	48092.45
737.71	48026.92
737.89	48057.63
738.08	47895.85
738.27	47621.42
738.45	48276.77
738.64	48127.27
738.82	47512.88
739.01	47713.58
739.20	47734.06
739.38	48104.74
739.57	48155.94
739.75	47932.71
739.94	47811.88
740.13	47789.35
740.31	47871.27
740.50	47760.68
740.68	47551.79
740.87	47713.58
741.06	47936.80
741.24	47353.13
741.43	47191.34
741.61	47492.40
741.80	47519.02
741.99	47433.00
742.17	47189.30
742.36	47531.31
742.54	47254.83
742.73	47269.17
742.91	47584.55
743.10	47299.89
743.29	47717.67
743.47	47664.42
743.66	46820.66
743.84	46943.54
744.03	47179.06
744.21	46744.89
744.40	47447.34
744.59	46507.32
744.77	46978.36
744.96	46789.94
745.14	46904.63
745.33	47074.61
745.51	46404.92
745.70	46581.05
745.88	46187.84
746.07	46669.11
746.26	46431.55
746.44	46339.39
746.63	46261.57
746.81	46185.79
747.00	46433.60
747.18	46486.84
747.37	46540.09
747.55	46320.96
747.74	46658.87
747.92	46083.39
748.11	46132.54
748.29	46185.79
748.48	45858.12
748.66	45946.18
748.85	45880.64
749.03	46339.39
749.22	45958.47
749.41	45897.03
749.59	45876.55
749.78	45796.68
749.96	45589.83
750.15	45425.99
750.33	45825.35
750.52	45733.19
750.70	45616.46
750.89	45487.43
751.07	45612.36
751.26	45421.90
751.44	44905.81
751.63	45477.19
751.81	45036.88
752.00	45002.07
752.18	45296.97
752.37	45622.60
752.55	44684.63
752.74	44840.28
752.92	45030.74
753.10	44938.58
753.29	45139.28
753.47	44793.17
753.66	44596.57
753.84	45088.08
754.03	45094.22
754.21	44641.62
754.40	45155.66
754.58	45184.33
754.77	45006.16
754.95	44313.95
755.14	44649.81
755.32	44719.45
755.51	44643.67
755.69	44346.72
755.88	44193.12
756.06	44436.83
756.24	44119.39
756.43	44238.17
756.61	44074.34
756.80	44215.65
756.98	44201.31
757.17	43971.94
757.35	44025.18
757.54	43906.40
757.72	44037.47
757.90	43644.26
758.09	43441.51
758.27	44070.24
758.46	43375.98
758.64	43466.09
758.83	43955.55
759.01	43849.06
759.19	43724.13
759.38	43468.14
759.56	43691.37
759.75	43490.66
759.93	43459.94
760.12	43011.44
760.30	43521.38
760.48	43537.77
760.67	43326.83
760.85	43408.75
761.04	43187.56
761.22	43179.37
761.40	43064.69
761.59	43535.72
761.77	43605.35
761.96	43304.30
762.14	42960.24
762.32	43087.21
762.51	42947.95
762.69	42872.18
762.88	42976.62
763.06	42800.50
763.24	42843.51
763.43	42909.04
763.61	42722.68
763.80	43015.54
763.98	42743.16
764.16	42343.80
764.35	42089.85
764.53	41870.72
764.72	42014.08
764.90	42061.18
765.08	42222.97
765.27	42007.94
765.45	41923.97
765.63	41530.76
765.82	42415.48
766.00	41715.08
766.18	41633.16
766.37	41682.31
766.55	41837.95
766.74	41880.96
766.92	41504.13
767.10	41424.26
767.29	41729.41
767.47	41147.79
767.65	41465.22
767.84	41166.22
768.02	41698.69
768.20	41096.59
768.39	41229.71
768.57	41121.16
768.75	41153.93
768.94	41285.00
769.12	40904.08
769.30	41006.48
769.49	41145.74
769.67	40936.85
769.85	40594.84
770.04	40961.42
770.22	40371.61
770.40	40598.93
770.59	40553.88
770.77	40531.35
770.95	40986.00
771.14	40623.51
771.32	40367.51
771.50	40189.34
771.69	40598.93
771.87	40461.72
772.05	40107.42
772.24	40101.28
772.42	40740.24
772.60	40119.71
772.78	39949.73
772.97	40191.39
773.15	40400.28
773.33	40258.97
773.52	40136.09
773.70	39857.57
773.88	39984.54
774.07	40105.37
774.25	39931.29
774.43	40175.00
774.61	39902.62
774.80	40549.78
774.98	40211.87
775.16	40500.63
775.34	39916.96
775.53	39484.84
775.71	40023.45
775.89	40039.84
776.08	40172.96
776.26	40088.99
776.44	39931.29
776.62	39665.06
776.81	39415.21
776.99	39910.82
777.17	40021.41
777.35	40283.55
777.54	40547.73
777.72	39982.49
777.90	39966.11
778.08	40019.36
778.27	40207.77
778.45	40555.93
778.63	40404.38
778.81	39830.94
779.00	40779.15
779.18	40261.02
779.36	40428.95
779.54	40375.70
779.73	40695.19
779.91	40658.32
780.09	40721.81
780.27	40629.65
780.46	40639.89
780.64	40918.42
780.82	40267.16
781.00	40535.45
781.19	40945.04
781.37	41020.81
781.55	40598.93
781.73	41301.39
781.91	41262.47
782.10	40600.98
782.28	40869.26
782.46	41076.11
782.64	41246.09
782.82	40674.71
783.01	40926.61
783.19	41135.50
783.37	40992.14
783.55	41018.77
783.74	41299.34
783.92	41008.53
784.10	41203.08
784.28	40654.23
784.46	40895.89
784.64	40807.83
784.83	40713.62
785.01	41092.49
785.19	41203.08
785.37	40994.19
785.55	40859.02
785.74	40476.05
785.92	40248.73
786.10	41000.33
786.28	40844.69
786.46	40469.91
786.64	40621.46
786.83	40615.32
787.01	41110.92
787.19	40639.89
787.37	40465.81
787.55	40474.01
787.74	40498.58
787.92	40670.61
788.10	40451.48
788.28	39794.08
788.46	40144.28
788.64	40027.55
788.82	40349.08
789.01	40144.28
789.19	40318.36
789.37	39847.33
789.55	40023.45
789.73	39814.56
789.91	39802.27
790.09	40031.65
790.28	39902.62
790.46	39998.88
790.64	39904.67
790.82	39671.20
791.00	39529.89
791.18	39400.87
791.36	39425.45
791.55	39585.19
791.73	39351.72
791.91	39304.62
792.09	39038.38
792.27	39085.48
792.45	39202.22
792.63	38987.18
792.81	38903.21
793.00	39105.96
793.18	39251.37
793.36	39445.93
793.54	38774.19
793.72	38608.31
793.90	38714.80
794.08	38520.24
794.26	38643.12
794.44	38088.12
794.62	38065.60
794.81	38587.83
794.99	38194.62
795.17	38264.25
795.35	37926.33
795.53	38038.97
795.71	38249.91
795.89	38114.75
796.07	37793.22
796.25	37608.90
796.43	37758.40
796.61	37250.50
796.80	37461.44
796.98	37672.39
797.16	37238.22
797.34	37410.25
797.52	37369.29
797.70	37422.53
797.88	37150.15
798.06	36971.98
798.24	36765.14
798.42	36703.70
798.60	36838.86
798.78	36371.92
798.96	36634.06
799.14	36779.47
799.32	36474.32
799.51	36449.75
799.69	36816.33
799.87	36605.39
800.05	36490.71
800.23	36097.50
800.41	35952.09
800.59	36007.39
800.77	35775.97
800.95	35632.61
801.13	35788.25
801.31	35765.73
801.49	35679.71
801.67	35665.38
801.85	35552.74
802.03	35644.90
802.21	35143.14
802.39	35366.37
802.57	34862.57
802.75	35012.07
802.93	34756.08
803.11	34977.26
803.29	34729.45
803.47	34452.98
803.65	34729.45
803.83	34754.03
804.01	34643.44
804.19	34129.40
804.37	34233.85
804.55	34723.31
804.73	34369.01
804.91	34215.41
805.09	34389.49
805.27	34457.07
805.45	34346.48
805.63	34414.07
805.81	34096.63
805.99	33920.51
806.17	33871.36
806.35	33824.25
806.53	33983.99
806.71	33641.98
806.89	33904.12
807.07	33553.92
807.25	33865.21
807.43	33480.19
807.61	33891.83
807.79	33791.48
807.97	33469.95
808.15	32675.34
808.33	33281.54
808.51	33236.48
808.69	33056.26
808.87	33070.60
809.05	32427.54
809.23	32884.23
809.41	32648.72
809.59	32714.25
809.77	32886.28
809.95	32753.16
810.13	32493.07
810.31	32245.27
810.49	32697.87
810.67	32888.33
810.84	32196.12
811.02	32517.65
811.20	32405.01
811.38	32349.71
811.56	31809.05
811.74	32069.14
811.92	31702.56
812.10	32024.09
812.28	32019.99
812.46	31817.24
812.64	31901.21
812.82	31696.41
813.00	31766.04
813.18	31403.55
813.36	31473.18
813.53	31456.80
813.71	31512.10
813.89	31682.08
814.07	31559.20
814.25	31770.14
814.43	31360.55
814.61	30977.58
814.79	31096.36
814.97	31170.08
815.15	31272.48
815.33	30692.91
815.50	30723.63
815.68	30496.30
815.86	31026.73
816.04	30932.52
816.22	30813.74
816.40	30602.80
816.58	31012.39
816.76	30398.00
816.94	30236.21
817.11	30498.35
817.29	30518.83
817.47	30541.36
817.65	30254.64
817.83	30309.94
818.01	30264.88
818.19	30117.43
818.37	29488.70
818.54	29609.53
818.72	30127.67
818.90	30105.14
819.08	30070.33
819.26	29742.65
819.44	29748.79
819.62	29781.56
819.80	29898.30
819.97	29724.22
820.15	29791.80
820.33	29873.72
820.51	29660.73
820.69	29566.52
820.87	29683.26
821.05	29978.17
821.22	29636.16
821.40	29699.64
821.58	29195.84
821.76	29142.60
821.94	29058.63
822.12	29130.31
822.29	29630.01
822.47	28900.94
822.65	29554.24
822.83	29267.52
823.01	28810.82
823.19	29017.67
823.36	28939.85
823.54	29007.43
823.72	28943.94
823.90	28728.91
824.08	28419.66
824.25	28816.97
824.43	28743.24
824.61	28554.83
824.79	28669.51
824.97	28333.65
825.15	28933.70
825.32	28743.24
825.50	28462.67
825.68	28393.04
825.86	28679.75
826.04	28849.74
826.21	28352.08
826.39	28048.98
826.57	28345.94
826.75	28022.36
826.93	28390.99
827.10	27807.32
827.28	28137.04
827.46	28268.11
827.64	28165.71
827.81	27952.73
827.99	28188.24
828.17	27842.14
828.35	27840.09
828.53	27901.53
828.70	27825.75
828.88	27813.46
829.06	27633.24
829.24	27702.87
829.41	27573.85
829.59	28173.91
829.77	27676.25
829.95	27383.39
830.12	27176.55
830.30	27315.81
830.48	27455.07
830.66	27690.59
830.84	27602.52
831.01	27215.46
831.19	27313.76
831.37	27201.12
831.55	26771.05
831.72	27197.02
831.90	27219.55
832.08	27164.26
832.25	27039.33
832.43	26977.89
832.61	26928.74
832.79	26846.82
832.96	26805.86
833.14	27237.98
833.32	26984.04
833.50	26904.17
833.67	27145.83
833.85	26816.10
834.03	26639.98
834.20	26754.66
834.38	27084.39
834.56	26916.45
834.74	26609.26
834.91	26498.67
835.09	26457.71
835.27	26214.00
835.44	26386.03
835.62	25923.19
835.80	26216.05
835.98	26326.64
836.15	26269.30
836.33	26443.37
836.51	26488.43
836.68	26066.55
836.86	25722.49
837.04	26107.51
837.21	26138.23
837.39	26205.81
837.57	26308.21
837.75	25882.23
837.92	25773.69
838.10	25822.84
838.28	25849.46
838.45	25949.81
838.63	25673.34
838.81	26068.59
838.98	25609.85
839.16	25349.76
839.34	25652.86
839.51	25429.63
839.69	25331.33
839.87	25394.81
840.04	25738.87
840.22	25785.97
840.40	25527.93
840.57	25237.12
840.75	25480.83
840.93	24974.98
841.10	25417.34
841.28	25376.38
841.46	25392.76
841.63	25575.03
841.81	25257.60
841.98	25171.58
842.16	25489.02
842.34	25456.25
842.51	24974.98
842.69	25226.88
842.87	25063.04
843.04	25206.40
843.22	24706.70
843.40	25325.18
843.57	25032.32
843.75	25005.70
843.92	24858.24
844.10	24899.20
844.28	24891.01
844.45	25026.18
844.63	24837.76
844.81	24575.62
844.98	24723.08
845.16	24321.68
845.33	24546.95
845.51	24610.44
845.69	24422.03
845.86	24446.60
846.04	24456.84
846.21	24563.34
846.39	24286.86
846.57	24348.30
846.74	24196.75
846.92	24368.78
847.09	24409.74
847.27	24012.43
847.45	24174.22
847.62	24051.34
847.80	24202.89
847.97	24141.46
848.15	24163.98
848.32	23619.22
848.50	24243.85
848.68	23715.48
848.85	23918.23
849.03	23518.87
849.20	23934.61
849.38	23799.44
849.56	23815.83
849.73	23768.73
849.91	23795.35
850.08	24000.15
850.26	23381.66
850.43	23723.67
850.61	23709.33
850.78	23555.74
850.96	23752.34
851.14	23455.39
851.31	23905.94
851.49	23371.42
851.66	23797.40
851.84	23213.73
852.01	23615.13
852.19	23502.49
852.36	23361.18
852.54	23424.67
852.71	23217.82
852.89	23439.00
853.07	23248.54
853.24	22851.24
853.42	23084.70
853.59	22935.20
853.77	23131.81
853.94	23013.02
854.12	23113.38
854.29	22808.23
854.47	23047.84
854.64	22613.67
854.82	22838.95
854.99	22865.57
855.17	23062.18
855.34	23041.70
855.52	22900.39
855.69	22843.04
855.87	22689.45
856.04	22574.76
856.22	22791.84
856.39	22271.66
856.57	22707.88
856.74	22574.76
856.92	22804.13
857.09	22259.37
857.27	22341.29
857.44	22617.77
857.62	22447.79
857.79	22490.79
857.97	22544.04
858.14	22228.65
858.32	22132.40
858.49	22171.31
858.67	22298.28
858.84	22159.02
859.02	22077.10
859.19	21968.56
859.37	21800.63
859.54	21829.30
859.72	22392.49
859.89	21905.07
860.06	22095.53
860.24	21950.13
860.41	21946.03
860.59	21651.13
860.76	21952.18
860.94	21636.79
861.11	21780.15
861.29	21669.56
861.46	21550.78
861.64	21540.54
861.81	21638.84
861.98	21636.79
862.16	21470.90
862.33	21409.47
862.51	20960.96
862.68	21616.31
862.86	21302.97
863.03	21106.37
863.21	21044.93
863.38	21292.73
863.55	21059.26
863.73	21186.24
863.90	21204.67
864.08	20895.43
864.25	21348.03
864.43	21165.76
864.60	20975.30
864.77	21159.61
864.95	21094.08
865.12	20819.65
865.30	21079.74
865.47	20991.68
865.64	20883.14
865.82	20733.64
865.99	20852.42
866.17	20870.85
866.34	20899.52
866.51	20442.82
866.69	20700.87
866.86	20633.29
867.04	20674.24
867.21	20543.17
867.38	20477.64
867.56	20408.01
867.73	20598.47
867.91	20309.71
868.08	20680.39
868.25	20268.75
868.43	20426.44
868.60	20188.88
868.78	19859.15
868.95	20567.75
869.12	20172.49
869.30	20233.93
869.47	20182.73
869.64	20068.05
869.82	20365.00
869.99	19891.92
870.16	20031.18
870.34	19857.10
870.51	19908.30
870.69	19840.72
870.86	19582.68
871.03	19635.92
871.21	19658.45
871.38	19664.60
871.55	19480.28
871.73	19537.62
871.90	19586.77
872.07	19486.42
872.25	19338.97
872.42	19451.61
872.59	19353.30
872.77	19322.59
872.94	19304.15
873.11	19091.16
873.29	19089.12
873.46	19146.46
873.63	19056.35
873.81	19236.57
873.98	19103.45
874.15	18929.38
874.33	18904.80
874.50	18964.19
874.67	19123.93
874.85	19257.05
875.02	18722.53
875.19	19089.12
875.37	18677.48
875.54	18636.52
875.71	18622.18
875.88	18673.38
876.06	18534.12
876.23	18497.25
876.40	18525.93
876.58	18556.64
876.75	18581.22
876.92	18513.64
877.10	18265.83
877.27	18220.78
877.44	18228.97
877.61	18089.71
877.79	18384.62
877.96	17848.05
878.13	17952.49
878.31	17876.72
878.48	17815.28
878.65	17983.21
878.82	17927.92
879.00	17938.16
879.17	17905.39
879.34	17977.07
879.51	17753.84
879.69	17506.04
879.86	17426.17
880.03	17538.80
880.21	17291.00
880.38	17415.93
880.55	17590.00
880.72	17385.21
880.90	17727.22
881.07	17446.65
881.24	17424.12
881.41	17698.55
881.59	17454.84
881.76	17319.67
881.93	17370.87
882.10	17323.77
882.28	17127.16
882.45	17401.59
882.62	17233.66
882.79	17131.26
882.96	17217.27
883.14	17323.77
883.31	17264.38
883.48	17155.83
883.65	17092.35
883.83	17350.39
884.00	17176.31
884.17	17104.64
884.34	17045.24
884.51	17149.69
884.69	17145.59
884.86	17059.58
885.03	16977.66
885.20	16770.82
885.38	16647.94
885.55	16656.13
885.72	16955.13
885.89	16516.87
886.06	16744.19
886.24	16842.50
886.41	16807.68
886.58	16871.17
886.75	16840.45
886.92	16832.26
887.10	16666.37
887.27	16279.30
887.44	16596.74
887.61	16523.01
887.78	16619.27
887.95	16527.11
888.13	16494.34
888.30	16504.58
888.47	16281.35
888.64	16547.59
888.81	16332.55
888.99	16224.01
889.16	16066.31
889.33	15988.49
889.50	16084.75
889.67	16068.36
889.84	16082.70
890.01	15996.68
890.19	16074.51
890.36	16099.08
890.53	15982.35
890.70	15914.77
890.87	15910.67
891.04	15597.33
891.22	15871.76
891.39	15795.98
891.56	15763.22
891.73	15707.92
891.90	15552.27
892.07	15808.27
892.24	15636.24
892.42	15535.89
892.59	15716.11
892.76	15533.84
892.93	15462.16
893.10	15697.68
893.27	15333.14
893.44	15494.93
893.61	15453.97
893.79	15226.65
893.96	15318.81
894.13	15523.60
894.30	15472.40
894.47	15329.05
894.64	15269.66
894.81	15310.61
894.98	15451.92
895.15	15367.96
895.33	15312.66
895.50	15206.17
895.67	15388.44
895.84	15191.83
896.01	15318.81
896.18	15011.61
896.35	15427.35
896.52	15300.37
896.69	15310.61
896.86	15202.07
897.04	15316.76
897.21	15410.96
897.38	15331.09
897.55	15093.53
897.72	15245.08
897.89	15081.24
898.06	15386.39
898.23	15034.14
898.40	15105.82
898.57	15124.25
898.74	15068.95
898.91	15189.78
899.08	15322.90
899.26	15097.63
899.43	15312.66
899.60	14997.28
899.77	15130.39
899.94	15077.15
900.11	14905.12
900.28	14948.12
900.45	14872.35
900.62	15021.85
900.79	15128.35
900.96	15171.35
901.13	14948.12
901.30	15163.16
901.47	15023.90
901.64	14962.46
901.81	15017.75
901.98	14956.32
902.15	14987.04
902.32	15001.37
902.49	14997.28
902.66	14929.69
902.83	14907.16
903.01	14987.04
903.18	15187.74
903.35	14993.18
903.52	14890.78
903.69	15021.85
903.86	14941.98
904.03	15146.78
904.20	15167.26
904.37	15054.62
904.54	15044.38
904.71	15138.58
904.88	15120.15
905.05	14858.01
905.22	15068.95
905.39	14921.50
905.56	14731.04
905.73	14987.04
905.90	14823.20
906.07	14948.12
906.24	15038.23
906.41	14774.05
906.58	14851.87
906.75	14718.75
906.92	14817.05
907.09	15015.71
907.26	14772.00
907.43	14663.46
907.60	14782.24
907.77	15040.28
907.93	14778.14
908.10	14774.05
908.27	14956.32
908.44	14888.73
908.61	14634.78
908.78	14755.61
908.95	14802.72
909.12	14780.19
909.29	14853.92
909.46	14921.50
909.63	14872.35
909.80	14522.15
909.97	14667.55
910.14	14475.04
910.31	14456.61
910.48	14810.91
910.65	14653.22
910.82	14497.57
910.99	14718.75
911.16	14448.42
911.33	14853.92
911.50	14731.04
911.66	14477.09
911.83	14540.58
912.00	14325.54
912.17	14223.14
912.34	14370.60
912.51	14405.41
912.68	14348.07
912.85	14348.07
913.02	14249.77
913.19	14370.60
913.36	14307.11
913.53	14456.61
913.70	14198.57
913.86	14364.45
914.03	14257.96
914.20	14257.96
914.37	14114.60
914.54	14184.23
914.71	14112.55
914.88	13940.52
915.05	13920.04
915.22	13879.08
915.39	14059.31
915.55	13911.85
915.72	13918.00
915.89	13750.06
916.06	13838.12
916.23	13709.10
916.40	13629.23
916.57	13786.93
916.74	13823.79
916.91	13678.38
917.07	13707.05
917.24	13559.60
917.41	13647.66
917.58	13696.82
917.75	13549.36
917.92	13477.68
918.09	13311.80
918.26	13309.75
918.42	13385.52
918.59	13217.59
918.76	13240.12
918.93	13139.77
919.10	13131.58
919.27	13363.00
919.44	13256.50
919.60	13102.90
919.77	13186.87
919.94	12916.54
920.11	12961.59
920.28	13270.84
920.45	12969.79
920.61	12695.36
920.78	12836.67
920.95	12848.96
921.12	12691.26
921.29	12619.58
921.46	12742.46
921.62	12318.53
921.79	12656.45
921.96	12349.25
922.13	12625.73
922.30	12519.23
922.47	12371.78
922.63	12312.39
922.80	12410.69
922.97	12091.21
923.14	12029.77
923.31	12504.90
923.47	12255.04
923.64	12310.34
923.81	11980.62
923.98	12046.15
924.15	11800.40
924.32	12068.68
924.48	11814.73
924.65	11913.03
924.82	11732.81
924.99	11738.96
925.15	11784.01
925.32	11751.24
925.49	11648.85
925.66	11626.32
925.83	11435.86
925.99	11394.90
926.16	11650.89
926.33	11605.84
926.50	11525.97
926.67	11276.12
926.83	11349.84
927.00	11403.09
927.17	11210.58
927.34	11104.09
927.50	11052.89
927.67	11384.66
927.84	11042.65
928.01	10917.72
928.17	10964.82
928.34	11040.60
928.51	10907.48
928.68	10889.05
928.84	10813.28
929.01	10745.69
929.18	10506.08
929.35	10729.31
929.51	10571.61
929.68	10512.22
929.85	10514.27
930.02	10518.37
930.18	10434.40
930.35	10393.44
930.52	10225.51
930.69	10364.77
930.85	10342.24
931.02	10123.11
931.19	10381.15
931.36	10114.92
931.52	10137.45
931.69	10121.06
931.86	9883.50
932.02	9953.13
932.19	9830.25
932.36	10153.83
932.53	9914.22
932.69	9793.39
932.86	9856.87
933.03	9504.62
933.19	9695.08
933.36	9676.65
933.53	9545.58
933.70	9545.58
933.86	9320.31
934.03	9510.77
934.20	9391.98
934.36	9308.02
934.53	9179.00
934.70	9275.25
934.86	9047.93
935.03	9176.95
935.20	9064.31
935.36	8730.49
935.53	8793.98
935.70	8836.99
935.86	8814.46
936.03	8597.37
936.20	8462.21
936.36	8636.28
936.53	8652.67
936.70	8456.06
936.86	8443.78
937.03	8253.31
937.20	8144.77
937.36	8210.31
937.53	7974.79
937.70	8155.01
937.86	7899.02
938.03	7706.51
938.20	7976.84
938.36	7700.36
938.53	7649.16
938.70	7456.65
938.86	7552.91
939.03	7313.30
939.20	7262.10
939.36	7141.27
939.53	7012.24
939.70	7280.53
939.86	6858.65
940.03	6915.99
940.19	6819.74
940.36	6698.91
940.53	6829.98
940.69	6709.15
940.86	6657.95
941.03	6418.33
941.19	6285.22
941.36	6244.26
941.52	6254.50
941.69	6225.82
941.86	6209.44
942.02	6182.82
942.19	6008.74
942.35	6035.36
942.52	6012.84
942.69	6055.84
942.85	5738.41
943.02	5758.89
943.18	5912.49
943.35	5789.61
943.52	5722.02
943.68	5674.92
943.85	5681.07
944.01	5599.15
944.18	5521.32
944.35	5652.39
944.51	5492.65
944.68	5398.45
944.84	5320.62
945.01	5500.84
945.17	5486.51
945.34	5482.41
945.51	5453.74
945.67	5416.88
945.84	5328.81
946.00	5343.15
946.17	5173.17
946.33	5332.91
946.50	5375.92
946.67	5261.23
946.83	5296.05
947.00	5302.19
947.16	5337.01
947.33	5285.81
947.49	5226.42
947.66	5310.38
947.82	5230.51
947.99	5205.94
948.16	5470.12
948.32	5306.29
948.49	5306.29
948.65	5398.45
948.82	5294.00
948.98	5244.85
949.15	5160.88
949.31	5345.20
949.48	5320.62
949.64	5263.28
949.81	5289.90
949.97	5408.69
950.14	5302.19
950.30	5320.62
950.47	5365.68
950.63	5253.04
950.80	5382.06
950.96	5214.13
951.13	5246.90
951.30	5359.53
951.46	5398.45
951.63	5361.58
951.79	5404.59
951.96	5414.83
952.12	5328.81
952.29	5273.52
952.45	5328.81
952.62	5269.42
952.78	5332.91
952.94	5337.01
953.11	5414.83
953.27	5425.07
953.44	5564.33
953.60	5521.32
953.77	5425.07
953.93	5437.36
954.10	5371.82
954.26	5416.88
954.43	5433.26
954.59	5525.42
954.76	5517.23
954.92	5433.26
955.09	5443.50
955.25	5396.40
955.42	5283.76
955.58	5484.46
955.75	5523.37
955.91	5296.05
956.07	5498.80
956.24	5676.97
956.40	5455.79
956.57	5584.81
956.73	5566.38
956.90	5656.49
957.06	5339.05
957.23	5423.02
957.39	5435.31
957.56	5539.76
957.72	5271.47
957.88	5533.61
958.05	5515.18
958.21	5617.58
958.38	5459.88
958.54	5451.69
958.71	5679.02
958.87	5439.40
959.03	5435.31
959.20	5459.88
959.36	5291.95
959.53	5519.28
959.69	5455.79
959.85	5564.33
960.02	5390.25
960.18	5484.46
960.35	5578.67
960.51	5580.71
960.68	5316.53
960.84	5404.59
961.00	5410.73
961.17	5150.64
961.33	5365.68
961.50	5351.34
961.66	5400.49
961.82	5363.63
961.99	5531.56
962.15	5533.61
962.31	5476.27
962.48	5353.39
962.64	5586.86
962.81	5529.52
962.97	5359.53
963.13	5427.12
963.30	5349.29
963.46	5371.82
963.62	5423.02
963.79	5468.08
963.95	5388.21
964.12	5380.01
964.28	5425.07
964.44	5316.53
964.61	5371.82
964.77	5345.20
964.93	5441.45
965.10	5525.42
965.26	5218.22
965.42	5304.24
965.59	5296.05
965.75	5392.30
965.92	5390.25
966.08	5322.67
966.24	5308.34
966.41	5273.52
966.57	5314.48
966.73	5445.55
966.90	5375.92
967.06	5332.91
967.22	5218.22
967.39	5195.70
967.55	5138.35
967.71	5218.22
967.88	5146.55
968.04	5246.90
968.20	5158.83
968.37	5222.32
968.53	5042.10
968.69	5136.31
968.85	5160.88
969.02	5107.63
969.18	5244.85
969.34	5197.74
969.51	5236.66
969.67	5181.36
969.83	5078.96
970.00	5353.39
970.16	5066.67
970.32	5136.31
970.48	5312.43
970.65	5054.39
970.81	5171.12
970.97	5042.10
971.14	4845.49
971.30	5207.98
971.46	5060.53
971.63	4941.75
971.79	5136.31
971.95	5078.96
972.11	5076.91
972.28	4958.13
972.44	5019.57
972.60	4775.86
972.76	4960.18
972.93	4964.28
973.09	5001.14
973.25	5068.72
973.42	5074.87
973.58	4941.75
973.74	4890.55
973.90	4898.74
974.07	4816.82
974.23	4941.75
974.39	4878.26
974.55	4929.46
974.72	4853.69
974.88	4640.70
975.04	4921.27
975.20	4888.50
975.37	4906.93
975.53	4808.63
975.69	4695.99
975.85	4712.38
976.01	4661.18
976.18	4728.76
976.34	4691.90
976.50	4857.78
976.66	4788.15
976.83	4726.71
976.99	4775.86
977.15	4870.07
977.31	4575.16
977.47	4732.86
977.64	4593.59
977.80	4655.03
977.96	4507.58
978.12	4591.55
978.29	4526.01
978.45	4573.11
978.61	4636.60
978.77	4614.07
978.93	4601.79
979.10	4499.39
979.26	4644.79
979.42	4501.44
979.58	4403.13
979.74	4515.77
979.91	4620.22
980.07	4476.86
980.23	4362.17
980.39	4382.65
980.55	4589.50
980.71	4390.84
980.88	4313.02
981.04	4474.81
981.20	4407.23
981.36	4544.44
981.52	4526.01
981.68	4292.54
981.85	4407.23
982.01	4470.72
982.17	4325.31
982.33	4282.30
982.49	4536.25
982.65	4284.35
982.82	4440.00
982.98	4384.70
983.14	4247.49
983.30	4405.18
983.46	4300.73
983.62	4360.13
983.79	4247.49
983.95	4294.59
984.11	4136.90
984.27	4263.87
984.43	4280.25
984.59	4198.34
984.75	4259.78
984.91	4202.43
985.08	4372.41
985.24	4067.27
985.40	4102.08
985.56	4124.61
985.72	4214.72
985.88	4097.99
986.04	4075.46
986.20	4140.99
986.37	4124.61
986.53	4095.94
986.69	4167.62
986.85	3885.00
987.01	4065.22
987.17	4188.10
987.33	4106.18
987.49	4044.74
987.65	4132.80
987.82	4085.70
987.98	4102.08
988.14	4048.83
988.30	4157.38
988.46	3942.34
988.62	3958.72
988.78	3895.24
988.94	3944.39
989.10	3860.42
989.26	3872.71
989.42	3870.66
989.59	3885.00
989.75	3829.70
989.91	3975.11
990.07	3694.54
990.23	3782.60
990.39	3823.56
990.55	3952.58
990.71	3829.70
990.87	3848.13
991.03	3913.67
991.19	3784.65
991.35	3854.28
991.51	3704.78
991.67	3782.60
991.83	3766.21
992.00	3753.93
992.16	3856.33
992.32	3846.09
992.48	3776.45
992.64	3706.82
992.80	3786.69
992.96	3678.15
993.12	3788.74
993.28	3717.06
993.44	3567.56
993.60	3686.34
993.76	3712.97
993.92	3637.19
994.08	3796.93
994.24	3715.02
994.40	3645.38
994.56	3651.53
994.72	3688.39
994.88	3577.80
995.04	3545.03
995.20	3694.54
995.36	3565.51
995.52	3702.73
995.68	3608.52
995.84	3526.60
996.00	3641.29
996.16	3594.19
996.32	3622.86
996.48	3520.46
996.64	3690.44
996.80	3493.83
996.96	3403.72
997.12	3618.76
997.28	3448.78
997.44	3467.21
997.60	3469.26
997.76	3461.07
997.92	3452.88
998.08	3461.07
998.24	3452.88
998.40	3440.59
998.56	3499.98
998.72	3334.09
998.88	3280.85
999.04	3264.46
999.20	3454.92
999.36	3233.74
999.52	3393.48
999.68	3311.57
999.84	3297.23
1000.00	3274.70
1000.16	3381.20
1000.32	3364.81
1000.48	3461.07
1000.64	3278.80
1000.80	3241.93
1000.95	3262.41
1001.11	3354.57
1001.27	3209.17
1001.43	3338.19
1001.59	3092.43
1001.75	3157.97
1001.91	3145.68
1002.07	3182.54
1002.23	3112.91
1002.39	3182.54
1002.55	3162.06
1002.71	3170.26
1002.87	3145.68
1003.03	3057.62
1003.19	3094.48
1003.34	3149.78
1003.50	3149.78
1003.66	3200.98
1003.82	3194.83
1003.98	3119.06
1004.14	3108.82
1004.30	3074.00
1004.46	3129.30
1004.62	3020.75
1004.78	3086.29
1004.94	3164.11
1005.09	3110.86
1005.25	2985.94
1005.41	3035.09
1005.57	3043.28
1005.73	2998.23
1005.89	3008.47
1006.05	3061.71
1006.21	3059.67
1006.37	2918.36
1006.52	2887.64
1006.68	2959.31
1006.84	3096.53
1007.00	2838.48
1007.16	2947.03
1007.32	2887.64
1007.48	2936.79
1007.64	2998.23
1007.79	2856.92
1007.95	2861.01
1008.11	2920.40
1008.27	2867.16
1008.43	2887.64
1008.59	2930.64
1008.75	2934.74
1008.91	2934.74
1009.06	2807.77
1009.22	2916.31
1009.38	2727.89
1009.54	2910.16
1009.70	2828.24
1009.86	2824.15
1010.01	2863.06
1010.17	2772.95
1010.33	2791.38
1010.49	2758.61
1010.65	2871.25
1010.81	2668.50
1010.96	2828.24
1011.12	2713.56
1011.28	2770.90
1011.44	2756.57
1011.60	2748.37
1011.76	2744.28
1011.91	2731.99
1012.07	2682.84
1012.23	2621.40
1012.39	2656.22
1012.55	2668.50
1012.71	2666.46
1012.86	2613.21
1013.02	2695.13
1013.18	2752.47
1013.34	2701.27
1013.50	2752.47
1013.65	2590.68
1013.81	2605.02
1013.97	2645.98
1014.13	2650.07
1014.29	2613.21
1014.44	2680.79
1014.60	2605.02
1014.76	2662.36
1014.92	2543.58
1015.07	2596.82
1015.23	2656.22
1015.39	2568.15
1015.55	2568.15
1015.71	2486.23
1015.86	2543.58
1016.02	2529.24
1016.18	2508.76
1016.34	2590.68
1016.49	2416.60
1016.65	2576.34
1016.81	2473.95
1016.97	2494.43
1017.12	2576.34
1017.28	2439.13
1017.44	2428.89
1017.60	2465.75
1017.75	2494.43
1017.91	2455.51
1018.07	2449.37
1018.23	2568.15
1018.38	2486.23
1018.54	2428.89
1018.70	2498.52
1018.86	2412.51
1019.01	2480.09
1019.17	2377.69
1019.33	2455.51
1019.49	2344.92
1019.64	2435.03
1019.80	2435.03
1019.96	2490.33
1020.12	2344.92
1020.27	2258.91
1020.43	2377.69
1020.59	2445.27
1020.74	2312.16
1020.90	2451.42
1021.06	2357.21
1021.22	2353.12
1021.37	2344.92
1021.53	2265.05
1021.69	2346.97
1021.84	2252.77
1022.00	2271.20
1022.16	2355.16
1022.31	2334.68
1022.47	2430.94
1022.63	2279.39
1022.79	2250.72
1022.94	2322.40
1023.10	2351.07
1023.26	2295.77
1023.41	2273.25
1023.57	2326.49
1023.73	2369.50
1023.88	2189.28
1024.04	2187.23
1024.20	2232.29
1024.35	2297.82
1024.51	2287.58
1024.67	2244.57
1024.82	2344.92
1024.98	2174.94
1025.14	2170.85
1025.29	2220.00
1025.45	2279.39
1025.61	2187.23
1025.76	2201.57
1025.92	2228.19
1026.08	2220.00
1026.23	2189.28
1026.39	2252.77
1026.55	2240.48
1026.70	2142.18
1026.86	2185.18
1027.02	2310.11
1027.17	2224.09
1027.33	2232.29
1027.48	2144.22
1027.64	2109.41
1027.80	2093.02
1027.95	2203.61
1028.11	2062.30
1028.27	2168.80
1028.42	2099.17
1028.58	2064.35
1028.73	2007.01
1028.89	2035.68
1029.05	2160.61
1029.20	2136.03
>>>>>End Processed Spectral Data<<<<<
