SpectraSuite Data File
++++++++++++++++++++++++++++++++++++
Date: Fri Jun 02 14:47:57 CEST 2017
User: INFO_000
Dark Spectrum Present: No
Reference Spectrum Present: No
Number of Sampled Component Spectra: 1
Spectrometers: USB4H00879
Integration Time (usec): 80000 (USB4H00879)
Spectra Averaged: 1 (USB4H00879)
Boxcar Smoothing: 0 (USB4H00879)
Correct for Electrical Dark: No (USB4H00879)
Strobe/Lamp Enabled: No (USB4H00879)
Correct for Detector Non-linearity: No (USB4H00879)
Correct for Stray Light: No (USB4H00879)
Number of Pixels in Processed Spectrum: 3648
>>>>>Begin Processed Spectral Data<<<<<
345.13	1359.85
345.34	1359.85
345.56	1359.85
345.78	1269.74
345.99	1263.60
346.21	1753.06
346.42	1751.01
346.64	1621.99
346.86	1710.05
347.07	1710.05
347.29	1714.15
347.50	1673.19
347.72	1621.99
347.94	1789.92
348.15	1626.09
348.37	1628.14
348.59	1669.09
348.80	1640.42
349.02	1771.49
349.23	1857.51
349.45	1830.88
349.67	1959.91
349.88	1816.55
350.10	1937.38
350.31	1923.04
350.53	1812.45
350.75	1937.38
350.96	1783.78
351.18	1871.84
351.39	1847.27
351.61	1787.88
351.82	1920.99
352.04	1896.42
352.26	1777.64
352.47	1908.71
352.69	1867.75
352.90	1726.44
353.12	1888.23
353.34	1820.64
353.55	1886.18
353.77	1869.80
353.98	1834.98
354.20	1865.70
354.41	1888.23
354.63	1988.58
354.85	2045.92
355.06	1894.37
355.28	1816.55
355.49	1902.56
355.71	1869.80
355.92	1912.80
356.14	2011.11
356.35	1961.95
356.57	1837.03
356.79	1957.86
357.00	1859.56
357.22	1951.71
357.43	1830.88
357.65	1937.38
357.86	1830.88
358.08	1941.47
358.29	1957.86
358.51	2009.06
358.72	1978.34
358.94	1925.09
359.16	1834.98
359.37	1849.32
359.59	1927.14
359.80	1990.63
360.02	1925.09
360.23	2007.01
360.45	2031.58
360.66	1980.39
360.88	1869.80
361.09	1875.94
361.31	1935.33
361.52	1925.09
361.74	2021.35
361.95	2156.51
362.17	1925.09
362.38	2119.65
362.60	2090.98
362.81	2017.25
363.03	1976.29
363.24	2041.82
363.46	2068.45
363.67	2025.44
363.89	1966.05
364.10	2033.63
364.32	2015.20
364.53	2144.22
364.75	1847.27
364.96	2025.44
365.18	2027.49
365.39	1988.58
365.61	1931.23
365.82	2105.31
366.04	1927.14
366.25	2000.87
366.47	2041.82
366.68	2082.78
366.90	1925.09
367.11	2013.15
367.33	2152.42
367.54	2017.25
367.76	1961.95
367.97	2086.88
368.19	2093.02
368.40	2011.11
368.62	1990.63
368.83	1939.43
369.05	1996.77
369.26	1937.38
369.48	2007.01
369.69	2088.93
369.91	2070.50
370.12	1992.67
370.33	2185.18
370.55	1990.63
370.76	2029.54
370.98	2140.13
371.19	1966.05
371.41	2007.01
371.62	2072.54
371.84	1984.48
372.05	2125.79
372.27	2017.25
372.48	2068.45
372.69	2035.68
372.91	2117.60
373.12	2176.99
373.34	2103.26
373.55	2039.78
373.77	2183.13
373.98	2068.45
374.20	2215.90
374.41	2160.61
374.62	2138.08
374.84	2045.92
375.05	2179.04
375.27	2156.51
375.48	2152.42
375.70	2183.13
375.91	2215.90
376.12	2209.76
376.34	2211.81
376.55	2093.02
376.77	2179.04
376.98	2076.64
377.19	2121.70
377.41	2156.51
377.62	2224.09
377.84	2252.77
378.05	2367.45
378.27	2164.70
378.48	2324.44
378.69	2361.31
378.91	2244.57
379.12	2201.57
379.34	2152.42
379.55	2301.92
379.76	2289.63
379.98	2238.43
380.19	2195.42
380.41	2220.00
380.62	2269.15
380.83	2283.49
381.05	2176.99
381.26	2394.08
381.47	2185.18
381.69	2263.01
381.90	2432.99
382.12	2351.07
382.33	2238.43
382.54	2330.59
382.76	2355.16
382.97	2361.31
383.19	2222.05
383.40	2385.88
383.61	2209.76
383.83	2306.01
384.04	2306.01
384.25	2330.59
384.47	2324.44
384.68	2473.95
384.89	2291.68
385.11	2297.82
385.32	2289.63
385.54	2416.60
385.75	2265.05
385.96	2381.79
386.18	2435.03
386.39	2559.96
386.60	2320.35
386.82	2467.80
387.03	2418.65
387.24	2584.54
387.46	2459.61
387.67	2437.08
387.88	2494.43
388.10	2439.13
388.31	2449.37
388.52	2627.54
388.74	2596.82
388.95	2467.80
389.16	2492.38
389.38	2465.75
389.59	2572.25
389.80	2592.73
390.02	2469.85
390.23	2598.87
390.44	2525.15
390.66	2463.71
390.87	2559.96
391.08	2529.24
391.30	2652.12
391.51	2613.21
391.72	2613.21
391.94	2525.15
392.15	2576.34
392.36	2559.96
392.58	2592.73
392.79	2621.40
393.00	2662.36
393.22	2688.98
393.43	2734.04
393.64	2805.72
393.85	2805.72
394.07	2516.95
394.28	2707.41
394.49	2727.89
394.71	2822.10
394.92	2811.86
395.13	2713.56
395.35	2713.56
395.56	2723.80
395.77	2781.14
395.98	2793.43
396.20	2781.14
396.41	2830.29
396.62	2844.63
396.84	2742.23
397.05	2789.33
397.26	2881.49
397.47	2922.45
397.69	2789.33
397.90	2979.79
398.11	2822.10
398.32	3000.27
398.54	2885.59
398.75	2893.78
398.96	2967.51
399.18	3049.43
399.39	2973.65
399.60	2947.03
399.81	2932.69
400.03	2799.57
400.24	3243.98
400.45	2908.12
400.66	3012.56
400.88	2867.16
401.09	3166.16
401.30	3078.10
401.51	3071.95
401.73	3016.66
401.94	3133.39
402.15	3022.80
402.36	3039.19
402.58	3069.91
402.79	3098.58
403.00	3063.76
403.21	3190.74
403.43	3133.39
403.64	3317.71
403.85	3164.11
404.06	3254.22
404.27	3078.10
404.49	3241.93
404.70	3082.19
404.91	3223.50
405.12	3252.17
405.34	3286.99
405.55	3473.36
405.76	3084.24
405.97	3231.69
406.19	3399.63
406.40	3268.56
406.61	3362.76
406.82	3370.96
407.03	3418.06
407.25	3352.52
407.46	3401.68
407.67	3469.26
407.88	3467.21
408.09	3301.33
408.31	3313.61
408.52	3319.76
408.73	3282.89
408.94	3399.63
409.15	3424.20
409.37	3540.94
409.58	3499.98
409.79	3481.55
410.00	3416.01
410.21	3377.10
410.43	3416.01
410.64	3405.77
410.85	3479.50
411.06	3442.64
411.27	3549.13
411.48	3725.26
411.70	3540.94
411.91	3555.27
412.12	3522.51
412.33	3588.04
412.54	3557.32
412.76	3667.91
412.97	3616.71
413.18	3477.45
413.39	3475.40
413.60	3616.71
413.81	3790.79
414.03	3583.95
414.24	3588.04
414.45	3702.73
414.66	3647.43
414.87	3653.58
415.08	3715.02
415.30	3719.11
415.51	3710.92
415.72	3774.41
415.93	3817.41
416.14	3805.13
416.35	3776.45
416.56	3891.14
416.78	3821.51
416.99	3809.22
417.20	3753.93
417.41	3907.52
417.62	3860.42
417.83	3903.43
418.04	3889.09
418.26	3868.61
418.47	3815.37
418.68	4048.83
418.89	3987.40
419.10	4040.64
419.31	3921.86
419.52	3993.54
419.73	4022.21
419.95	4020.16
420.16	3844.04
420.37	4083.65
420.58	4116.42
420.79	3940.29
421.00	3997.64
421.21	4149.18
421.42	4067.27
421.63	4085.70
421.85	4038.59
422.06	4059.07
422.27	4245.44
422.48	4218.82
422.69	4224.96
422.90	4196.29
423.11	4206.53
423.32	4306.88
423.53	4360.13
423.75	4313.02
423.96	4376.51
424.17	4356.03
424.38	4546.49
424.59	4356.03
424.80	4650.94
425.01	4366.27
425.22	4450.24
425.43	4300.73
425.64	4501.44
425.85	4589.50
426.06	4550.59
426.28	4503.48
426.49	4517.82
426.70	4601.79
426.91	4491.20
427.12	4728.76
427.33	4665.27
427.54	4507.58
427.75	4675.51
427.96	4698.04
428.17	4775.86
428.38	4726.71
428.59	4753.34
428.80	4724.66
429.01	4870.07
429.23	4880.31
429.44	4978.61
429.65	4845.49
429.86	4902.84
430.07	4890.55
430.28	4784.06
430.49	4917.17
430.70	5040.05
430.91	5042.10
431.12	4995.00
431.33	5089.20
431.54	5140.40
431.75	5132.21
431.96	5074.87
432.17	5005.24
432.38	5138.35
432.59	5330.86
432.80	5070.77
433.01	5322.67
433.22	5310.38
433.43	5230.51
433.64	5144.50
433.85	5177.26
434.06	5337.01
434.27	5226.42
434.49	5306.29
434.70	5392.30
434.91	5459.88
435.12	5259.18
435.33	5322.67
435.54	5312.43
435.75	5244.85
435.96	5435.31
436.17	5298.10
436.38	5560.24
436.59	5760.94
436.80	5509.04
437.01	5752.74
437.22	5619.63
437.43	5644.20
437.64	5474.22
437.85	5771.18
438.06	5593.00
438.27	5543.85
438.48	5701.54
438.69	5883.81
438.90	5701.54
439.11	5502.89
439.32	5869.48
439.53	5801.90
439.74	5779.37
439.95	5789.61
440.16	5803.94
440.37	5912.49
440.57	5830.57
440.78	6051.75
440.99	5971.88
441.20	5885.86
441.41	5836.71
441.62	6117.28
441.83	5877.67
442.04	6186.91
442.25	5937.06
442.46	5975.97
442.67	6127.52
442.88	6467.49
443.09	6047.65
443.30	6117.28
443.51	6291.36
443.72	6379.42
443.93	5994.40
444.14	6348.70
444.35	6066.08
444.56	6385.57
444.77	6188.96
444.98	6326.18
445.19	6406.05
445.40	6383.52
445.61	6463.39
445.81	6549.40
446.02	6442.91
446.23	6408.09
446.44	6367.13
446.65	6471.58
446.86	6543.26
447.07	6711.19
447.28	6659.99
447.49	6657.95
447.70	6596.51
447.91	6586.27
448.12	6549.40
448.33	6657.95
448.54	6635.42
448.74	6600.60
448.95	6682.52
449.16	6766.49
449.37	7143.32
449.58	6764.44
449.79	6907.80
450.00	6682.52
450.21	6952.85
450.42	7047.06
450.63	7032.72
450.84	7118.74
451.05	6827.93
451.25	6868.89
451.46	6786.97
451.67	6995.86
451.88	7133.08
452.09	7165.84
452.30	7028.63
452.51	7030.68
452.72	7284.62
452.93	7540.62
453.13	7071.64
453.34	7030.68
453.55	7143.32
453.76	7258.00
453.97	7569.29
454.18	7331.73
454.39	7329.68
454.60	7491.47
454.81	7317.39
455.01	7636.88
455.22	7229.33
455.43	7604.11
455.64	7612.30
455.85	7643.02
456.06	7927.69
456.27	7819.14
456.48	7735.18
456.68	7679.88
456.89	7862.15
457.10	7837.58
457.31	7958.41
457.52	7921.54
457.73	7978.89
457.94	8048.52
458.14	7882.63
458.35	8494.97
458.56	8011.65
458.77	7937.93
458.98	7972.74
459.19	8308.61
459.39	8286.08
459.60	8259.46
459.81	8304.51
460.02	8482.69
460.23	8314.75
460.44	8585.08
460.65	8587.13
460.85	8646.52
461.06	8824.70
461.27	8466.30
461.48	8732.54
461.69	8898.42
461.89	8419.20
462.10	8716.16
462.31	8587.13
462.52	8695.68
462.73	8773.50
462.94	9074.55
463.14	8972.15
463.35	8957.82
463.56	9281.39
463.77	9242.48
463.98	9144.18
464.18	9205.62
464.39	9244.53
464.60	9604.97
464.81	9363.31
465.02	9418.61
465.23	9578.35
465.43	9439.09
465.64	9766.76
465.85	9815.91
466.06	9494.38
466.27	9901.93
466.47	9865.07
466.68	9822.06
466.89	10037.09
467.10	10014.57
467.30	9930.60
467.51	10018.66
467.72	10307.43
467.93	9785.19
468.14	10268.52
468.34	10143.59
468.55	10395.49
468.76	10551.14
468.97	10147.69
469.17	10678.11
469.38	10604.38
469.59	10784.60
469.80	10573.66
470.01	10762.08
470.21	10735.45
470.42	10815.32
470.63	11061.08
470.84	10776.41
471.04	11153.24
471.25	11114.33
471.46	11319.12
471.67	11552.59
471.87	11300.69
472.08	11525.97
472.29	11530.06
472.50	11415.38
472.70	11599.70
472.91	11831.12
473.12	11704.14
473.33	11970.38
473.53	11937.61
473.74	11898.70
473.95	12171.08
474.16	12132.17
474.36	12128.07
474.57	12123.98
474.78	12676.93
474.99	12535.62
475.19	12597.06
475.40	12973.88
475.61	12918.59
475.81	13057.85
476.02	13178.68
476.23	12969.79
476.44	13213.49
476.64	13336.37
476.85	13334.32
477.06	13532.98
477.27	13795.12
477.47	13690.67
477.68	13711.15
477.89	13780.78
478.09	13946.67
478.30	13721.39
478.51	13913.90
478.71	14096.17
478.92	14219.05
479.13	14415.65
479.34	14348.07
479.54	14561.06
479.75	14704.42
479.96	14645.02
480.16	14812.96
480.37	14841.63
480.58	15081.24
480.78	15071.00
480.99	15247.13
481.20	15275.80
481.41	15376.15
481.61	15572.75
481.82	15763.22
482.03	15542.03
482.23	15820.56
482.44	15884.05
482.65	16068.36
482.85	16133.90
483.06	15873.81
483.27	16127.75
483.47	16172.81
483.68	16277.26
483.89	16330.50
484.09	16596.74
484.30	16531.20
484.51	16711.42
484.71	16736.00
484.92	17043.20
485.13	16953.09
485.33	17059.58
485.54	17086.20
485.75	17221.37
485.95	17268.47
486.16	17483.51
486.37	17536.76
486.57	17553.14
486.78	17567.48
486.98	17727.22
487.19	17886.96
487.40	17837.81
487.60	18085.61
487.81	18251.50
488.02	18265.83
488.22	17923.82
488.43	18487.01
488.64	18601.70
488.84	18544.36
489.05	18683.62
489.25	18642.66
489.46	19082.97
489.67	18892.51
489.87	18863.84
490.08	19023.58
490.29	19037.92
490.49	19384.02
490.70	19422.94
490.90	19707.60
491.11	19486.42
491.32	19396.31
491.52	19717.84
491.73	19723.99
491.94	19752.66
492.14	19930.83
492.35	19992.27
492.55	20061.90
492.76	20106.96
492.97	20111.05
493.17	20467.40
493.38	20528.84
493.58	20678.34
493.79	20414.15
494.00	20889.28
494.20	20809.41
494.41	20629.19
494.61	20747.97
494.82	20846.27
495.02	20948.67
495.23	21098.17
495.44	20885.19
495.64	21049.02
495.85	21483.19
496.05	21393.08
496.26	21667.51
496.47	21712.56
496.67	21552.82
496.88	21970.61
497.08	21407.42
497.29	22009.52
497.49	21669.56
497.70	22013.62
497.91	21962.42
498.11	22210.22
498.32	22359.72
498.52	22380.20
498.73	22585.00
498.93	22392.49
499.14	22552.23
499.34	22505.13
499.55	23068.32
499.76	22494.89
499.96	22943.39
500.17	22714.02
500.37	22787.75
500.58	23074.46
500.78	23101.09
500.99	23017.12
501.19	23307.93
501.40	23404.19
501.60	22992.55
501.81	23135.90
502.02	23207.58
502.22	23582.36
502.43	23342.75
502.63	23701.14
502.84	23703.19
503.04	23973.52
503.25	23971.47
503.45	23946.90
503.66	24286.86
503.86	24018.58
504.07	24362.64
504.27	23856.79
504.48	24344.20
504.68	24469.13
504.89	24516.23
505.09	24551.05
505.30	24311.44
505.50	24245.90
505.71	24563.34
505.91	24848.00
506.12	24835.72
506.32	24931.97
506.53	24571.53
506.73	25120.38
506.94	25216.64
507.14	24895.11
507.35	25052.80
507.55	25257.60
507.76	25327.23
507.96	25083.52
508.17	25323.13
508.37	25110.14
508.58	25394.81
508.78	25552.51
508.99	25585.27
509.19	25691.77
509.40	26031.73
509.60	25661.05
509.81	25759.35
510.01	25597.56
510.22	26027.63
510.42	25749.11
510.63	26017.40
510.83	26130.03
511.04	26214.00
511.24	26127.99
511.44	26283.63
511.65	26377.84
511.85	26556.01
512.06	26392.17
512.26	26322.54
512.47	26474.09
512.67	26586.73
512.88	26457.71
513.08	26691.18
513.29	26869.35
513.49	27051.62
513.69	26975.84
513.90	26926.69
514.10	27145.83
514.31	27203.17
514.51	26961.51
514.72	26938.98
514.92	27113.06
515.13	27065.96
515.33	27481.69
515.53	27381.34
515.74	27457.12
515.94	27336.29
516.15	27815.51
516.35	27194.98
516.56	27905.62
516.76	27539.04
516.96	27676.25
517.17	27868.76
517.37	27971.16
517.58	27958.87
517.78	27842.14
517.99	28145.23
518.19	28618.32
518.39	28218.96
518.60	28485.20
518.80	28448.33
519.01	28513.87
519.21	28515.92
519.41	28489.29
519.62	28907.08
519.82	29077.06
520.03	29001.29
520.23	29066.82
520.43	28913.22
520.64	29251.14
520.84	29335.10
521.05	29249.09
521.25	29255.23
521.45	29480.51
521.66	29498.94
521.86	29587.00
522.07	29527.61
522.27	29814.33
522.47	29855.29
522.68	30209.59
522.88	29818.42
523.08	30326.32
523.29	30043.70
523.49	29980.21
523.70	30084.66
523.90	30639.66
524.10	30504.49
524.31	30744.11
524.51	30180.92
524.71	30991.91
524.92	30869.03
525.12	31309.35
525.33	30826.03
525.53	31055.40
525.73	31016.49
525.94	31419.94
526.14	31004.20
526.34	31151.65
526.55	31395.36
526.75	31444.51
526.95	32017.94
527.16	31692.32
527.36	31854.11
527.56	31843.87
527.77	31987.22
527.97	31811.10
528.17	32339.47
528.38	32181.78
528.58	32153.11
528.78	32427.54
528.99	32456.21
529.19	32871.95
529.39	32661.01
529.60	32904.71
529.80	32921.10
530.00	32636.43
530.21	32988.68
530.41	33439.23
530.61	33375.75
530.82	33299.97
531.02	33213.96
531.22	33469.95
531.43	33385.99
531.63	33560.06
531.83	33623.55
532.04	34256.37
532.24	34059.77
532.44	33981.95
532.64	34082.30
532.85	34158.07
533.05	34268.66
533.25	34385.40
533.46	34217.46
533.66	34659.82
533.86	34266.61
534.07	34993.64
534.27	34676.21
534.47	35313.13
534.67	34711.02
534.88	34729.45
535.08	34766.32
535.28	35231.21
535.49	35182.06
535.69	35571.17
535.89	35585.50
536.09	35880.41
536.30	35610.08
536.50	35771.87
536.70	35800.54
536.91	35931.61
537.11	35780.06
537.31	36111.83
537.51	36120.02
537.72	36439.51
537.92	36169.18
538.12	37074.38
538.32	36376.02
538.53	36500.95
538.73	36365.78
538.93	36232.66
539.13	36703.70
539.34	36533.71
539.54	36707.79
539.74	37039.56
539.94	37074.38
540.15	36894.16
540.35	37164.49
540.55	37225.93
540.75	37289.42
540.96	37207.50
541.16	36935.12
541.36	37287.37
541.56	37256.65
541.77	37828.03
541.97	37393.86
542.17	37735.87
542.37	37701.06
542.58	37813.70
542.78	37785.02
542.98	37453.25
543.18	38235.58
543.38	38342.07
543.59	38196.67
543.79	37957.05
543.99	38034.88
544.19	38135.23
544.40	37819.84
544.60	38602.16
544.80	38108.60
545.00	38415.80
545.20	38491.57
545.41	38651.31
545.61	38653.36
545.81	38663.60
546.01	38753.71
546.21	38630.83
546.42	39165.35
546.62	38942.13
546.82	38766.00
547.02	38839.73
547.22	39263.66
547.43	39040.43
547.63	38884.78
547.83	39277.99
548.03	38831.54
548.23	39505.32
548.44	39204.27
548.64	39429.54
548.84	39304.62
549.04	39566.76
549.24	39736.74
549.45	39886.24
549.65	40043.93
549.85	39470.50
550.05	39845.28
550.25	39458.21
550.45	40351.13
550.66	39712.16
550.86	39677.35
551.06	40228.25
551.26	40293.79
551.46	40482.20
551.66	39935.39
551.87	39982.49
552.07	40641.94
552.27	40189.34
552.47	40218.01
552.67	40224.15
552.87	40541.59
553.07	40611.22
553.28	40365.46
553.48	40730.00
553.68	40435.10
553.88	40576.40
554.08	40621.46
554.28	40654.23
554.48	40373.66
554.69	40615.32
554.89	40787.35
555.09	41088.40
555.29	40904.08
555.49	41166.22
555.69	40674.71
555.89	40811.92
556.10	41207.18
556.30	41235.85
556.50	41350.54
556.70	41223.56
556.90	41428.36
557.10	41561.48
557.30	41088.40
557.50	41248.14
557.70	41536.90
557.91	41471.37
558.11	41651.59
558.31	41756.03
558.51	41289.10
558.71	41866.63
558.91	41848.19
559.11	42141.05
559.31	41555.33
559.51	41557.38
559.72	41622.92
559.92	42136.96
560.12	41723.27
560.32	42171.77
560.52	41901.44
560.72	41907.58
560.92	41936.26
561.12	42044.80
561.32	42542.45
561.52	42182.01
561.72	42829.17
561.93	42173.82
562.13	42464.63
562.33	42218.88
562.53	42755.44
562.73	42343.80
562.93	42583.41
563.13	42571.13
563.33	42601.85
563.53	42911.09
563.73	42456.44
563.93	42896.75
564.13	43249.00
564.33	42771.83
564.53	43156.85
564.74	43435.37
564.94	42982.77
565.14	43099.50
565.34	42917.23
565.54	43003.25
565.74	43132.27
565.94	43668.84
566.14	43636.07
566.34	43203.95
566.54	43677.03
566.74	43605.35
566.94	43572.58
567.14	43588.97
567.34	43660.65
567.54	43943.27
567.74	43443.56
567.94	43289.96
568.14	43988.32
568.34	44070.24
568.54	43292.01
568.74	44195.17
568.94	43994.46
569.14	44311.90
569.34	44475.74
569.54	44260.70
569.75	44184.93
569.95	44193.12
570.15	44510.55
570.35	44488.03
570.55	44655.96
570.75	44252.51
570.95	44592.47
571.15	44516.70
571.35	45059.41
571.55	44451.16
571.75	44334.43
571.95	44918.10
572.15	44936.53
572.35	45086.03
572.55	45167.95
572.75	45024.59
572.95	45120.85
573.15	45151.57
573.35	45081.94
573.55	45217.10
573.75	44885.33
573.95	45800.77
574.15	45161.81
574.35	45610.31
574.55	45509.96
574.75	45493.58
574.95	45751.62
575.15	45331.79
575.34	45899.08
575.54	45940.04
575.74	45780.29
575.94	45944.13
576.14	46032.19
576.34	45790.53
576.54	46259.52
576.74	46185.79
576.94	46136.64
577.14	46259.52
577.34	46638.39
577.54	46187.84
577.74	46484.79
577.94	46576.95
578.14	46378.30
578.34	46474.55
578.54	46222.65
578.74	46589.24
578.94	46583.10
579.14	46568.76
579.34	46759.22
579.54	46710.07
579.74	47383.85
579.94	47207.73
580.13	46861.62
580.33	47461.68
580.53	47242.54
580.73	47232.30
580.93	47281.45
581.13	47312.17
581.33	47660.33
581.53	47684.90
581.73	47490.35
581.93	47639.85
582.13	47639.85
582.33	48018.72
582.53	47750.44
582.73	47920.42
582.92	48160.03
583.12	47977.76
583.32	47891.75
583.52	47955.24
583.72	47736.10
583.92	48096.55
584.12	48543.00
584.32	48325.92
584.52	48553.24
584.72	47973.67
584.92	48526.62
585.11	48762.14
585.31	48645.40
585.51	48610.59
585.71	48295.20
585.91	48956.69
586.11	48502.04
586.31	48741.66
586.51	49020.18
586.71	48948.50
586.91	49253.65
587.10	49036.56
587.30	49202.45
587.50	49487.12
587.70	49192.21
587.90	48913.69
588.10	49063.19
588.30	49003.80
588.50	49358.09
588.69	49687.82
588.89	48942.36
589.09	49306.90
589.29	49163.54
589.49	49802.50
589.69	49618.19
589.89	49876.23
590.08	49505.55
590.28	50119.94
590.48	49718.54
590.68	49581.32
590.88	49675.53
591.08	49681.67
591.28	49714.44
591.47	50124.04
591.67	49775.88
591.87	49904.90
592.07	50167.04
592.27	50164.99
592.47	50054.40
592.67	49962.25
592.86	49990.92
593.06	49868.04
593.26	50582.78
593.46	50242.82
593.66	50117.89
593.86	50269.44
594.05	50537.72
594.25	50834.68
594.45	50359.55
594.65	50240.77
594.85	49952.01
595.05	50545.92
595.24	50701.56
595.44	50347.26
595.64	50287.87
595.84	50834.68
596.04	50431.23
596.23	50951.41
596.43	50939.13
596.63	50863.35
596.83	50926.84
597.03	51199.22
597.22	51692.78
597.42	50900.22
597.62	51496.17
597.82	51180.79
598.02	51111.16
598.21	51221.75
598.41	50844.92
598.61	51242.23
598.81	51320.05
599.01	51666.16
599.20	51182.84
599.40	51739.88
599.60	51207.41
599.80	51664.11
600.00	51485.93
600.19	51676.40
600.39	51479.79
600.59	51602.67
600.79	51608.81
600.98	51897.58
601.18	51494.13
601.38	51885.29
601.58	52188.39
601.78	51834.09
601.97	52151.52
602.17	52286.69
602.37	52051.17
602.57	52049.13
602.76	52456.67
602.96	51743.98
603.16	52219.11
603.36	52215.01
603.55	52391.14
603.75	52278.50
603.95	52057.32
604.15	52284.64
604.34	52393.18
604.54	52686.04
604.74	52999.38
604.94	52432.10
605.13	53034.20
605.33	52589.79
605.53	52446.43
605.73	52700.38
605.92	52516.06
606.12	52911.32
606.32	52790.49
606.52	53085.40
606.71	52604.13
606.91	53222.61
607.11	52616.41
607.30	52823.26
607.50	53447.89
607.70	52966.62
607.90	53087.45
608.09	52819.16
608.29	53032.15
608.49	52813.02
608.68	53042.39
608.88	53150.93
609.08	53132.50
609.28	53128.41
609.47	52880.60
609.67	53617.87
609.87	52624.60
610.06	53556.43
610.26	53267.67
610.46	53398.74
610.66	53392.59
610.85	53464.27
611.05	53398.74
611.25	53181.65
611.44	53628.11
611.64	53392.59
611.84	52884.70
612.03	52993.24
612.23	53824.71
612.43	53435.60
612.62	52939.99
612.82	53499.09
613.02	53626.06
613.21	53417.17
613.41	53306.58
613.61	53630.16
613.80	53210.32
614.00	53710.03
614.20	53099.73
614.39	53605.58
614.59	53789.90
614.79	53511.38
614.98	53445.84
615.18	53576.91
615.38	53642.45
615.57	53251.28
615.77	53654.73
615.97	53433.55
616.16	53662.93
616.36	53771.47
616.56	53664.97
616.75	53718.22
616.95	53404.88
617.15	53740.75
617.34	53195.99
617.54	53744.84
617.74	53978.31
617.93	53589.20
618.13	53806.28
618.32	53834.95
618.52	53437.65
618.72	53273.81
618.91	53652.69
619.11	53263.57
619.31	53204.18
619.50	53519.57
619.70	53114.07
619.90	53535.95
620.09	53687.50
620.29	53777.61
620.48	53554.38
620.68	53783.76
620.88	53368.02
621.07	53658.83
621.27	53247.19
621.46	53245.14
621.66	53329.11
621.86	53406.93
622.05	53499.09
622.25	53820.62
622.44	53097.69
622.64	53376.21
622.84	53851.34
623.03	53492.94
623.23	53794.00
623.42	53363.92
623.62	53638.35
623.82	54320.32
624.01	53521.62
624.21	53771.47
624.40	53828.81
624.60	53832.91
624.80	53419.22
624.99	53695.69
625.19	53200.08
625.38	53796.04
625.58	53877.96
625.77	53779.66
625.97	53935.30
626.17	53503.18
626.36	53517.52
626.56	53630.16
626.75	53656.78
626.95	53880.01
627.14	53460.18
627.34	53937.35
627.54	53349.59
627.73	53804.24
627.93	53892.30
628.12	53529.81
628.32	53781.71
628.51	53824.71
628.71	53845.19
628.90	53654.73
629.10	54258.88
629.30	53892.30
629.49	54054.09
629.69	53773.52
629.88	53853.39
630.08	53900.49
630.27	54611.13
630.47	54133.96
630.66	53937.35
630.86	54172.87
631.05	53630.16
631.25	54363.33
631.44	54492.35
631.64	53748.94
631.84	54125.77
632.03	54774.97
632.23	54230.21
632.42	54482.11
632.62	54205.64
632.81	53978.31
633.01	54088.90
633.20	54514.88
633.40	54445.25
633.59	54543.55
633.79	54119.62
633.98	54281.41
634.18	54748.35
634.37	54150.34
634.57	54256.84
634.76	55049.40
634.96	54858.94
635.15	54516.93
635.35	54498.50
635.54	54621.37
635.74	54992.06
635.93	54514.88
636.13	54932.67
636.32	54942.91
636.52	54435.01
636.71	54695.10
636.91	54531.26
637.10	54987.96
637.30	54938.81
637.49	54629.57
637.69	54725.82
637.88	54914.23
638.08	54738.11
638.27	54707.39
638.46	54914.23
638.66	55030.97
638.85	55090.36
639.05	55434.42
639.24	55604.40
639.44	54715.58
639.63	55067.83
639.83	54822.08
640.02	55086.26
640.22	54875.32
640.41	55465.14
640.61	55114.94
640.80	55346.36
640.99	55125.17
641.19	55628.98
641.38	55047.35
641.58	55481.52
641.77	55325.88
641.97	55039.16
642.16	54871.23
642.36	55448.75
642.55	55870.64
642.74	55311.54
642.94	55737.52
643.13	55141.56
643.33	55897.26
643.52	55860.40
643.72	56042.66
643.91	55694.51
644.10	55432.37
644.30	56108.20
644.49	55823.53
644.69	56120.49
644.88	55714.99
645.08	55717.04
645.27	55645.36
645.46	55545.01
645.66	55907.50
645.85	55657.65
646.05	56147.11
646.24	55702.70
646.43	56138.92
646.63	55956.65
646.82	55987.37
647.02	55807.15
647.21	56306.85
647.40	56071.34
647.60	56136.87
647.79	56323.24
647.99	56108.20
648.18	55798.96
648.37	56480.93
648.57	56407.20
648.76	56360.10
648.96	56032.42
649.15	56550.56
649.34	56208.55
649.54	56403.11
649.73	56024.23
649.92	56779.93
650.12	56491.17
650.31	56609.95
650.51	56747.17
650.70	56677.54
650.89	56634.53
651.09	57050.27
651.28	57078.94
651.47	56681.63
651.67	56644.77
651.86	57214.10
652.06	56294.56
652.25	56956.06
652.44	56876.19
652.64	56681.63
652.83	56794.27
653.02	56978.59
653.22	56978.59
653.41	56403.11
653.60	56509.60
653.80	56784.03
653.99	57070.75
654.18	56888.48
654.38	56786.08
654.57	56949.92
654.76	57203.86
654.96	56419.49
655.15	56622.24
655.34	56718.49
655.54	56560.80
655.73	57486.48
655.92	56929.44
656.12	56833.18
656.31	57054.36
656.50	57205.91
656.70	57226.39
656.89	57183.38
657.08	57353.36
657.28	56976.54
657.47	56829.08
657.66	56990.87
657.86	56824.99
658.05	57230.49
658.24	56972.44
658.43	56587.42
658.63	57013.40
658.82	57300.12
659.01	57322.65
659.21	57302.17
659.40	56992.92
659.59	57005.21
659.79	57044.12
659.98	57289.88
660.17	57287.83
660.36	57173.14
660.56	57199.77
660.75	57162.90
660.94	56769.69
661.14	56951.96
661.33	57042.07
661.52	56790.17
661.71	57541.78
661.91	56841.37
662.10	56704.16
662.29	57320.60
662.49	57506.96
662.68	56827.04
662.87	57431.19
663.06	57347.22
663.26	57037.98
663.45	57582.74
663.64	57115.80
663.83	57496.72
664.03	57437.33
664.22	57136.28
664.41	57193.62
664.60	56894.62
664.80	57119.90
664.99	56829.08
665.18	56689.82
665.37	57083.03
665.57	57185.43
665.76	56372.39
665.95	57418.90
666.14	56925.34
666.34	57189.53
666.53	56972.44
666.72	56982.68
666.91	57429.14
667.11	56734.88
667.30	57058.46
667.49	57398.42
667.68	56609.95
667.87	56763.55
668.07	56628.38
668.26	56497.31
668.45	56997.02
668.64	56491.17
668.84	57660.56
669.03	57179.29
669.22	56892.57
669.41	56954.01
669.60	57214.10
669.80	56687.78
669.99	56794.27
670.18	56616.10
670.37	56794.27
670.57	56992.92
670.76	56730.78
670.95	56646.82
671.14	56622.24
671.33	56429.73
671.53	57066.65
671.72	56779.93
671.91	57128.09
672.10	56622.24
672.29	56308.90
672.48	56659.10
672.68	56433.83
672.87	56624.29
673.06	56433.83
673.25	56515.75
673.44	56525.99
673.64	56300.71
673.83	56333.48
674.02	56177.83
674.21	56321.19
674.40	56747.17
674.59	56552.61
674.79	56202.41
674.98	56093.86
675.17	56521.89
675.36	55678.13
675.55	56423.59
675.74	56179.88
675.94	56274.09
676.13	56120.49
676.32	56251.56
676.51	56345.76
676.70	56177.83
676.89	56016.04
677.08	56292.52
677.28	56251.56
677.47	56310.95
677.66	56476.83
677.85	55989.42
678.04	56304.80
678.23	56130.73
678.42	56370.34
678.62	56171.69
678.81	56212.65
679.00	55932.07
679.19	56528.03
679.38	56050.86
679.57	55573.68
679.76	55964.84
679.96	55968.94
680.15	56161.45
680.34	55727.28
680.53	55690.41
680.72	55999.66
680.91	55604.40
681.10	55776.43
681.29	55991.47
681.48	55438.51
681.68	55770.28
681.87	56140.97
682.06	55618.74
682.25	55504.05
682.44	55448.75
682.63	55696.56
682.82	55334.07
683.01	55514.29
683.20	55545.01
683.39	55252.15
683.59	55368.88
683.78	55743.66
683.97	54889.66
684.16	55475.38
684.35	55282.87
684.54	55147.70
684.73	55317.68
684.92	55188.66
685.11	55104.70
685.30	54799.55
685.49	54449.35
685.69	55000.25
685.88	55112.89
686.07	54766.78
686.26	54578.37
686.45	54656.19
686.64	54891.71
686.83	54895.80
687.02	54854.84
687.21	54674.62
687.40	55248.05
687.59	54652.09
687.78	54406.34
687.97	55012.54
688.16	54656.19
688.35	54432.96
688.54	54699.20
688.74	54666.43
688.93	54367.43
689.12	54500.54
689.31	54824.12
689.50	54729.92
689.69	54265.03
689.88	54144.20
690.07	54166.73
690.26	54211.78
690.45	54486.21
690.64	53988.55
690.83	54179.01
691.02	53826.76
691.21	54455.49
691.40	54375.62
691.59	54457.54
691.78	54236.36
691.97	54279.36
692.16	54033.61
692.35	54271.17
692.54	53978.31
692.73	54197.44
692.92	53789.90
693.11	54301.89
693.30	53843.15
693.49	54049.99
693.68	53968.07
693.87	54068.42
694.06	53359.83
694.25	53499.09
694.44	53294.29
694.63	54049.99
694.82	53888.20
695.01	53568.72
695.20	53716.17
695.39	53347.54
695.58	53664.97
695.77	53517.52
695.96	53071.06
696.15	53961.93
696.34	53591.25
696.53	53654.73
696.72	53253.33
696.91	52987.10
697.10	53603.53
697.29	53296.34
697.48	53337.30
697.67	53177.56
697.86	53050.58
698.05	52968.66
698.24	53431.50
698.43	52735.20
698.62	52876.51
698.81	52788.44
699.00	52892.89
699.19	53204.18
699.38	53187.80
699.57	52667.61
699.76	53261.52
699.95	53220.56
700.14	52913.37
700.32	52958.42
700.51	52305.12
700.70	52942.04
700.89	52788.44
701.08	52624.60
701.27	52258.02
701.46	52944.09
701.65	52370.66
701.84	52825.31
702.03	52819.16
702.22	52348.13
702.41	52821.21
702.60	52688.09
702.79	52786.39
702.98	51948.78
703.17	52747.48
703.35	52456.67
703.54	52479.20
703.73	52180.20
703.92	52530.40
704.11	52471.01
704.30	52102.37
704.49	52520.16
704.68	51858.66
704.87	52413.66
705.06	52294.88
705.25	52090.09
705.43	52088.04
705.62	52409.57
705.81	52354.27
706.00	52018.41
706.19	51881.19
706.38	51868.90
706.57	51950.82
706.76	51676.40
706.95	52466.91
707.14	51670.25
707.32	51887.34
707.51	51862.76
707.70	51952.87
707.89	52012.26
708.08	51985.64
708.27	51844.33
708.46	51875.05
708.65	51737.83
708.84	51907.82
709.02	51780.84
709.21	51764.46
709.40	52186.34
709.59	51797.23
709.78	51682.54
709.97	51983.59
710.16	51832.04
710.34	51617.00
710.53	51555.57
710.72	51711.21
710.91	51688.68
711.10	51725.55
711.29	51703.02
711.48	51717.35
711.66	51750.12
711.85	51131.64
712.04	51217.65
712.23	51164.40
712.42	51422.45
712.61	51410.16
712.80	51430.64
712.98	51492.08
713.17	51180.79
713.36	51414.26
713.55	50910.46
713.74	51242.23
713.93	51066.10
714.11	51215.60
714.30	51191.03
714.49	50644.22
714.68	51131.64
714.87	51123.44
715.06	51014.90
715.24	51096.82
715.43	50722.04
715.62	50820.34
715.81	50840.82
716.00	51125.49
716.18	50687.23
716.37	50758.91
716.56	50836.73
716.75	51324.14
716.94	51274.99
717.12	50885.88
717.31	50943.22
717.50	50515.20
717.69	50844.92
717.88	50826.49
718.06	50586.88
718.25	51258.61
718.44	50748.67
718.63	50576.64
718.82	50177.28
719.00	50697.47
719.19	50230.53
719.38	50017.54
719.57	50205.95
719.76	49960.20
719.94	49792.26
720.13	49968.39
720.32	49898.76
720.51	49927.43
720.69	49884.42
720.88	49796.36
721.07	49857.80
721.26	49634.57
721.44	49605.90
721.63	49618.19
721.82	49612.04
722.01	49767.69
722.20	49411.34
722.38	49052.95
722.57	49052.95
722.76	49630.47
722.95	49415.44
723.13	48991.51
723.32	48921.88
723.51	48915.73
723.70	49022.23
723.88	49296.66
724.07	48874.77
724.26	49134.87
724.44	48727.32
724.63	49202.45
724.82	48960.79
725.01	49044.76
725.19	49085.72
725.38	48610.59
725.57	48639.26
725.76	48766.23
725.94	48500.00
726.13	48586.01
726.32	48839.96
726.51	48469.28
726.69	49358.09
726.88	49206.55
727.07	48708.89
727.25	48612.63
727.44	48995.60
727.63	48364.83
727.82	48626.97
728.00	48758.04
728.19	48534.81
728.38	48633.11
728.56	48530.72
728.75	48999.70
728.94	48305.44
729.12	49091.86
729.31	48182.56
729.50	48807.19
729.69	48690.46
729.87	48211.23
730.06	48588.06
730.25	48891.16
730.43	49218.83
730.62	48461.08
730.81	48669.98
730.99	48862.49
731.18	48368.93
731.37	48661.79
731.55	48887.06
731.74	48938.26
731.93	48940.31
732.11	49085.72
732.30	48981.27
732.49	48737.56
732.67	48942.36
732.86	48444.70
733.05	48977.17
733.23	48313.63
733.42	48598.30
733.61	48516.38
733.79	48692.50
733.98	49161.49
734.17	48606.49
734.35	48563.48
734.54	48803.10
734.73	49149.20
734.91	48573.72
735.10	48557.34
735.29	49061.14
735.47	48282.91
735.66	48569.63
735.84	48444.70
736.03	48182.56
736.22	48729.37
736.40	48002.34
736.59	48686.36
736.78	47891.75
736.96	48166.18
737.15	48231.71
737.33	48241.95
737.52	48307.49
737.71	47883.56
737.89	47904.04
738.08	47904.04
738.27	48067.87
738.45	48174.37
738.64	48000.29
738.82	48495.90
739.01	48192.80
739.20	48084.26
739.38	48200.99
739.57	48098.59
739.75	48268.58
739.94	47754.54
740.13	47787.30
740.31	48002.34
740.50	47926.56
740.68	48028.96
740.87	48106.79
741.06	48354.59
741.24	47633.71
741.43	47912.23
741.61	48157.99
741.80	47535.40
741.99	47684.90
742.17	47805.73
742.36	47863.08
742.54	47584.55
742.73	47428.91
742.91	47754.54
743.10	47697.19
743.29	47795.49
743.47	47748.39
743.66	47500.59
743.84	47779.11
744.03	47762.73
744.21	47535.40
744.40	48129.31
744.59	47478.06
744.77	47019.31
744.96	47019.31
745.14	47148.34
745.33	47166.77
745.51	47283.50
745.70	47101.23
745.88	47205.68
746.07	47680.81
746.26	46777.65
746.44	46722.36
746.63	46937.40
746.81	46916.92
747.00	46656.82
747.18	46832.95
747.37	46808.37
747.55	47113.52
747.74	47322.41
747.92	46415.16
748.11	46417.21
748.29	46712.12
748.48	46609.72
748.66	46863.67
748.85	46703.93
749.03	46652.73
749.22	46675.26
749.41	46208.32
749.59	46824.76
749.78	46675.26
749.96	45811.01
750.15	45952.32
750.33	46224.70
750.52	46503.23
750.70	46499.13
750.89	46433.60
751.07	46200.13
751.26	46118.21
751.44	45819.20
751.63	46110.02
751.81	45757.77
752.00	46064.96
752.18	46269.76
752.37	46191.94
752.55	45948.23
752.74	45948.23
752.92	45937.99
753.10	45552.97
753.29	45899.08
753.47	45700.42
753.66	45368.65
753.84	45788.49
754.03	45681.99
754.21	45219.15
754.40	46015.81
754.58	45561.16
754.77	45067.60
754.95	45444.43
755.14	45475.15
755.32	45438.28
755.51	45440.33
755.69	45352.27
755.88	45311.31
756.06	45174.09
756.24	45032.78
756.43	44930.39
756.61	45161.81
756.80	45231.44
756.98	44680.53
757.17	45063.50
757.35	44766.55
757.54	44836.18
757.72	44897.62
757.90	44590.42
758.09	44576.09
758.27	45088.08
758.46	44279.13
758.64	44367.20
758.83	44881.24
759.01	44827.99
759.19	44438.87
759.38	44082.53
759.56	45045.07
759.75	44356.96
759.93	44242.27
760.12	44146.01
760.30	44526.94
760.48	44164.45
760.67	44184.93
760.85	44143.97
761.04	44731.73
761.22	44580.18
761.40	43804.00
761.59	44223.84
761.77	44092.77
761.96	44016.99
762.14	43996.51
762.32	43683.17
762.51	43947.36
762.69	43629.93
762.88	43359.59
763.06	43562.34
763.24	44152.16
763.43	44027.23
763.61	43640.17
763.80	43631.97
763.98	43244.91
764.16	43316.59
764.35	42945.90
764.53	42839.41
764.72	42825.07
764.90	43087.21
765.08	43222.38
765.27	42866.03
765.45	42620.28
765.63	42665.33
765.82	42737.01
766.00	42120.57
766.18	42607.99
766.37	42786.16
766.55	42444.15
766.74	42345.85
766.92	42587.51
767.10	42323.32
767.29	42399.10
767.47	42030.46
767.65	42485.11
767.84	41950.59
768.02	42325.37
768.20	42327.42
768.39	41981.31
768.57	42648.95
768.75	41944.45
768.94	41627.01
769.12	42059.13
769.30	41688.45
769.49	41796.99
769.67	41467.27
769.85	41549.19
770.04	41516.42
770.22	41371.02
770.40	40965.52
770.59	41635.20
770.77	41272.71
770.95	41221.52
771.14	41301.39
771.32	40986.00
771.50	41041.29
771.69	41176.46
771.87	41301.39
772.05	40766.87
772.24	40785.30
772.42	41162.12
772.60	40848.78
772.78	40689.04
772.97	40662.42
773.15	41256.33
773.33	40945.04
773.52	40906.13
773.70	40424.86
773.88	40807.83
774.07	40244.63
774.25	40764.82
774.43	40897.94
774.61	40775.06
774.80	40838.54
774.98	40787.35
775.16	40719.76
775.34	40887.70
775.53	40398.23
775.71	41035.15
775.89	40549.78
776.08	40617.36
776.26	40633.75
776.44	40344.98
776.62	40648.08
776.81	40238.49
776.99	40852.88
777.17	40488.34
777.35	41024.91
777.54	41168.27
777.72	40424.86
777.90	40615.32
778.08	40766.87
778.27	40969.61
778.45	41121.16
778.63	40832.40
778.81	40615.32
779.00	41209.23
779.18	40691.09
779.36	41330.06
779.54	40930.70
779.73	40813.97
779.91	41368.97
780.09	41256.33
780.27	41227.66
780.46	40861.07
780.64	41313.67
780.82	40308.12
781.00	41100.68
781.19	41258.38
781.37	41497.99
781.55	41123.21
781.73	41352.58
781.91	41463.18
782.10	41063.82
782.28	41375.11
782.46	41125.26
782.64	41366.92
782.82	41117.07
783.01	41450.89
783.19	41301.39
783.37	41121.16
783.55	41252.23
783.74	41180.56
783.92	41301.39
784.10	41864.58
784.28	40754.58
784.46	40525.21
784.64	40895.89
784.83	41190.80
785.01	41008.53
785.19	40750.48
785.37	41334.15
785.55	40738.19
785.74	40713.62
785.92	40615.32
786.10	40973.71
786.28	40998.29
786.46	40816.02
786.64	40510.87
786.83	40674.71
787.01	40703.38
787.19	40988.05
787.37	40811.92
787.55	40572.31
787.74	40312.22
787.92	40637.84
788.10	40195.48
788.28	40005.02
788.46	40588.69
788.64	39910.82
788.82	40283.55
789.01	40248.73
789.19	40277.40
789.37	40043.93
789.55	40209.82
789.73	39361.96
789.91	39353.77
790.09	39458.21
790.28	39497.13
790.46	39755.17
790.64	39574.95
790.82	39652.77
791.00	39486.89
791.18	39558.56
791.36	39630.24
791.55	39474.60
791.73	39167.40
791.91	39126.44
792.09	39468.45
792.27	38981.04
792.45	39331.24
792.63	39042.48
792.81	39132.59
793.00	38819.25
793.18	38780.34
793.36	39095.72
793.54	38475.19
793.72	38575.54
793.90	38200.76
794.08	38114.75
794.26	38548.92
794.44	38032.83
794.62	37868.99
794.81	37844.41
794.99	37721.54
795.17	38059.45
795.35	37670.34
795.53	37977.53
795.71	37862.85
795.89	37475.78
796.07	37361.09
796.25	37475.78
796.43	37287.37
796.61	37045.71
796.80	37041.61
796.98	37330.37
797.16	37088.71
797.34	36746.70
797.52	36595.15
797.70	37205.45
797.88	36509.14
798.06	36396.50
798.24	36437.46
798.42	36554.19
798.60	36629.97
798.78	36140.50
798.96	36277.72
799.14	36183.51
799.32	35841.50
799.51	35794.40
799.69	35986.91
799.87	35984.86
800.05	35694.05
800.23	35669.47
800.41	36044.25
800.59	35681.76
800.77	34993.64
800.95	35233.25
801.13	35329.51
801.31	34983.40
801.49	35124.71
801.67	34819.56
801.85	35024.36
802.03	35108.33
802.21	34723.31
802.39	34405.88
802.57	34432.50
802.75	34768.37
802.93	34522.61
803.11	34352.63
803.29	34043.38
803.47	33969.66
803.65	34440.69
803.83	34043.38
804.01	34231.80
804.19	33969.66
804.37	33902.07
804.55	33355.27
804.73	33787.39
804.91	33592.83
805.09	34072.06
805.27	33529.34
805.45	33592.83
805.63	33601.02
805.81	33404.42
805.99	33142.28
806.17	33644.03
806.35	33162.76
806.53	32937.48
806.71	33244.68
806.89	33093.13
807.07	33263.11
807.25	33097.22
807.43	32589.33
807.61	32898.57
807.79	32792.08
807.97	32439.82
808.15	32552.46
808.33	32701.96
808.51	32646.67
808.69	32353.81
808.87	32196.12
809.05	32019.99
809.23	32026.14
809.41	32058.90
809.59	31827.48
809.77	32294.42
809.95	31680.03
810.13	32155.16
810.31	32058.90
810.49	31682.08
810.67	31720.99
810.84	31673.88
811.02	31528.48
811.20	31243.81
811.38	31594.01
811.56	31200.80
811.74	31309.35
811.92	31204.90
812.10	31403.55
812.28	31116.84
812.46	31268.39
812.64	30950.95
812.82	31217.19
813.00	31245.86
813.18	30957.10
813.36	30963.24
813.53	30524.97
813.71	30582.32
813.89	30791.21
814.07	30774.83
814.25	30721.58
814.43	30467.63
814.61	30580.27
814.79	30662.19
814.97	30389.81
815.15	30238.26
815.33	30361.14
815.50	30137.91
815.68	30414.38
815.86	30637.61
816.04	30137.91
816.22	30033.46
816.40	30019.13
816.58	30109.24
816.76	29976.12
816.94	29888.06
817.11	29955.64
817.29	29619.77
817.47	29597.24
817.65	29503.04
817.83	29648.44
818.01	29349.44
818.19	29204.03
818.37	29218.37
818.54	29009.48
818.72	29216.32
818.90	29531.71
819.08	29187.65
819.26	29253.19
819.44	28939.85
819.62	29097.54
819.80	29204.03
819.97	29402.69
820.15	28802.63
820.33	28894.79
820.51	28964.42
820.69	28769.86
820.87	28945.99
821.05	29150.79
821.22	28800.58
821.40	29025.86
821.58	28862.02
821.76	28763.72
821.94	28456.53
822.12	28737.10
822.29	28565.07
822.47	28178.00
822.65	28436.05
822.83	28612.17
823.01	28350.03
823.19	28317.26
823.36	27846.23
823.54	28284.50
823.72	28300.88
823.90	28192.34
824.08	27872.85
824.25	27846.23
824.43	27690.59
824.61	28319.31
824.79	28184.15
824.97	28069.46
825.15	28012.12
825.32	28024.40
825.50	27696.73
825.68	27651.67
825.86	27922.01
826.04	28024.40
826.21	27575.90
826.39	27940.44
826.57	27485.79
826.75	27315.81
826.93	27389.53
827.10	27334.24
827.28	27539.04
827.46	27453.02
827.64	27479.64
827.81	27389.53
827.99	27438.69
828.17	27252.32
828.35	27008.61
828.53	27178.59
828.70	27145.83
828.88	27082.34
829.06	26830.44
829.24	27493.98
829.41	27065.96
829.59	27104.87
829.77	26953.32
829.95	26953.32
830.12	26605.16
830.30	26740.33
830.48	26850.92
830.66	27162.21
830.84	27111.01
831.01	26695.27
831.19	26764.90
831.37	26281.58
831.55	26525.29
831.72	26211.95
831.90	26668.65
832.08	26611.31
832.25	26934.88
832.43	26254.96
832.61	26535.53
832.79	26480.24
832.96	26519.15
833.14	26484.33
833.32	26441.32
833.50	26551.91
833.67	26367.60
833.85	26316.40
834.03	26025.59
834.20	26359.41
834.38	26248.82
834.56	26570.35
834.74	25927.28
834.91	25859.70
835.09	26271.34
835.27	25943.67
835.44	25874.04
835.62	25714.30
835.80	25869.94
835.98	26093.17
836.15	26101.36
836.33	25841.27
836.51	25650.81
836.68	25702.01
836.86	25413.24
837.04	25837.17
837.21	25958.00
837.39	25816.69
837.57	25773.69
837.75	25362.04
837.92	25314.94
838.10	25732.73
838.28	25431.68
838.45	25503.35
838.63	25321.09
838.81	25331.33
838.98	25265.79
839.16	25136.77
839.34	24862.34
839.51	25171.58
839.69	25022.08
839.87	24800.90
840.04	25085.57
840.22	25108.10
840.40	25255.55
840.57	25101.95
840.75	25208.45
840.93	24735.37
841.10	24886.92
841.28	25505.40
841.46	25112.19
841.63	25276.03
841.81	24893.06
841.98	24829.57
842.16	25134.72
842.34	24835.72
842.51	24604.30
842.69	25030.27
842.87	24981.12
843.04	24829.57
843.22	24954.50
843.40	24729.22
843.57	24774.28
843.75	24794.76
843.92	24729.22
844.10	24776.33
844.28	24751.75
844.45	24608.39
844.63	24237.71
844.81	24645.26
844.98	24540.81
845.16	24417.93
845.33	24280.72
845.51	24305.29
845.69	24266.38
845.86	24272.53
846.04	24123.02
846.21	24270.48
846.39	24209.04
846.57	24032.91
846.74	24276.62
846.92	23912.08
847.09	24090.26
847.27	23844.50
847.45	24024.72
847.62	23781.01
847.80	24209.04
847.97	24082.06
848.15	24155.79
848.32	23475.87
848.50	23860.88
848.68	23854.74
848.85	23664.28
849.03	23760.53
849.20	23899.80
849.38	23561.88
849.56	23637.66
849.73	23639.70
849.91	23879.32
850.08	23946.90
850.26	23525.02
850.43	23668.37
850.61	23531.16
850.78	23344.80
850.96	23703.19
851.14	23338.65
851.31	23592.60
851.49	23400.09
851.66	23695.00
851.84	23514.78
852.01	23318.17
852.19	23494.30
852.36	23420.57
852.54	23230.11
852.71	23023.26
852.89	23264.92
853.07	23248.54
853.24	23094.94
853.42	22986.40
853.59	22992.55
853.77	23125.66
853.94	23160.48
854.12	23258.78
854.29	22963.87
854.47	22771.36
854.64	22838.95
854.82	22843.04
854.99	22894.24
855.17	22965.92
855.34	22570.66
855.52	22384.30
855.69	22777.51
855.87	22415.02
856.04	22570.66
856.22	22531.75
856.39	22410.92
856.57	22683.30
856.74	22296.24
856.92	22615.72
857.09	22544.04
857.27	22259.37
857.44	22423.21
857.62	22554.28
857.79	22513.32
857.97	22402.73
858.14	22490.79
858.32	22165.17
858.49	22498.98
858.67	22175.41
858.84	22208.17
859.02	22343.34
859.19	21857.97
859.37	21857.97
859.54	22105.77
859.72	22124.21
859.89	22087.34
860.06	21882.55
860.24	21913.27
860.41	22066.86
860.59	21907.12
860.76	22030.00
860.94	21702.32
861.11	22015.66
861.29	21925.55
861.46	21900.98
861.64	21595.83
861.81	21835.44
861.98	21880.50
862.16	21718.71
862.33	21499.58
862.51	21431.99
862.68	21647.03
862.86	21630.65
863.03	21522.10
863.21	21513.91
863.38	21305.02
863.55	21464.76
863.73	21407.42
863.90	21200.57
864.08	21196.48
864.25	21180.09
864.43	21632.69
864.60	21114.56
864.77	21221.05
864.95	21274.30
865.12	21026.50
865.30	21141.18
865.47	21065.41
865.64	21429.94
865.82	21163.71
865.99	21079.74
866.17	20936.38
866.34	21022.40
866.51	20733.64
866.69	20967.10
866.86	21008.06
867.04	20786.88
867.21	20764.36
867.38	20682.44
867.56	20774.60
867.73	20723.40
867.91	20836.03
868.08	20440.78
868.25	20686.53
868.43	20655.81
868.60	20348.62
868.78	20416.20
868.95	20809.41
869.12	20379.34
869.30	20590.28
869.47	20141.77
869.64	20129.48
869.82	20403.91
869.99	20074.19
870.16	20485.83
870.34	19936.98
870.51	20430.54
870.69	19973.84
870.86	20100.81
871.03	20190.92
871.21	20109.01
871.38	20240.08
871.55	19986.13
871.73	19748.56
871.90	19795.67
872.07	19613.40
872.25	19670.74
872.42	19879.63
872.59	19525.33
872.77	19715.80
872.94	19584.73
873.11	19570.39
873.29	19439.32
873.46	19601.11
873.63	19424.98
873.81	19467.99
873.98	19406.55
874.15	19420.89
874.33	19091.16
874.50	19068.64
874.67	19220.19
874.85	19250.91
875.02	19144.41
875.19	19218.14
875.37	19031.77
875.54	18730.72
875.71	18869.98
875.88	18951.90
876.06	18921.18
876.23	18775.78
876.40	18925.28
876.58	18792.16
876.75	18869.98
876.92	18712.29
877.10	18749.15
877.27	18673.38
877.44	18532.07
877.61	18427.62
877.79	18489.06
877.96	18253.55
878.13	18634.47
878.31	18493.16
878.48	18300.65
878.65	18398.95
878.82	17938.16
879.00	18226.92
879.17	18323.18
879.34	17983.21
879.51	18011.89
879.69	18169.58
879.86	17932.01
880.03	18071.28
880.21	17678.07
880.38	17901.29
880.55	17950.45
880.72	17594.10
880.90	17696.50
881.07	17942.25
881.24	17880.82
881.41	17995.50
881.59	17737.46
881.76	17768.18
881.93	17598.20
882.10	17854.19
882.28	17448.69
882.45	17446.65
882.62	17512.18
882.79	17534.71
882.96	17209.08
883.14	17649.39
883.31	17577.72
883.48	17309.43
883.65	17321.72
883.83	17348.34
884.00	17454.84
884.17	17567.48
884.34	17643.25
884.51	17293.05
884.69	17639.15
884.86	17088.25
885.03	17196.79
885.20	17139.45
885.38	17415.93
885.55	17135.35
885.72	17260.28
885.89	16924.41
886.06	17071.87
886.24	17200.89
886.41	16959.23
886.58	17374.97
886.75	16889.60
886.92	16617.22
887.10	16979.71
887.27	16936.70
887.44	16770.82
887.61	17080.06
887.78	16928.51
887.95	16862.97
888.13	16987.90
888.30	16856.83
888.47	16705.28
888.64	16658.18
888.81	16764.67
888.99	16502.53
889.16	16598.79
889.33	16684.80
889.50	16236.30
889.67	16197.38
889.84	16480.00
890.01	16506.63
890.19	16606.98
890.36	16430.85
890.53	16131.85
890.70	16107.27
890.87	16455.43
891.04	16168.71
891.22	16174.86
891.39	16066.31
891.56	16051.98
891.73	15914.77
891.90	16111.37
892.07	15781.65
892.24	15906.57
892.42	15841.04
892.59	15914.77
892.76	15640.34
892.93	15853.33
893.10	16021.26
893.27	15806.22
893.44	15740.69
893.61	15888.14
893.79	16082.70
893.96	15961.87
894.13	15789.84
894.30	15843.09
894.47	15560.47
894.64	15771.41
894.81	15599.38
894.98	15826.70
895.15	15703.82
895.33	15648.53
895.50	15501.08
895.67	15716.11
895.84	15662.86
896.01	15595.28
896.18	15707.92
896.35	15746.83
896.52	15603.47
896.69	15408.92
896.86	15521.56
897.04	15564.56
897.21	15488.79
897.38	15595.28
897.55	15560.47
897.72	15669.01
897.89	15619.86
898.06	15406.87
898.23	15609.62
898.40	15406.87
898.57	15492.88
898.74	15435.54
898.91	15552.27
899.08	15216.41
899.26	15458.07
899.43	15298.33
899.60	15339.29
899.77	15453.97
899.94	15566.61
900.11	15150.87
900.28	15193.88
900.45	15380.25
900.62	15312.66
900.79	15533.84
900.96	15146.78
901.13	15234.84
901.30	15243.03
901.47	15167.26
901.64	15159.06
901.81	15226.65
901.98	15171.35
902.15	15386.39
902.32	15132.44
902.49	15269.66
902.66	15322.90
902.83	15079.19
903.01	15222.55
903.18	15380.25
903.35	15292.18
903.52	15122.20
903.69	15273.75
903.86	15245.08
904.03	15294.23
904.20	15382.29
904.37	15435.54
904.54	15118.11
904.71	15103.77
904.88	15253.27
905.05	15230.74
905.22	15363.86
905.39	15118.11
905.56	15204.12
905.73	14978.84
905.90	15232.79
906.07	15451.92
906.24	15140.63
906.41	15015.71
906.58	15255.32
906.75	15030.04
906.92	15052.57
907.09	15208.22
907.26	15257.37
907.43	14962.46
907.60	15124.25
907.77	15259.42
907.93	14937.88
908.10	14827.29
908.27	15085.34
908.44	15048.47
908.61	14788.38
908.78	15216.41
908.95	15079.19
909.12	14966.56
909.29	15296.28
909.46	14966.56
909.63	14772.00
909.80	14890.78
909.97	15007.52
910.14	15056.67
910.31	14954.27
910.48	15032.09
910.65	14679.84
910.82	14728.99
910.99	14642.98
911.16	14726.94
911.33	14800.67
911.50	14589.73
911.66	14405.41
911.83	14841.63
912.00	14497.57
912.17	14503.71
912.34	14491.43
912.51	14550.82
912.68	14528.29
912.85	14409.51
913.02	14536.48
913.19	14526.24
913.36	14616.35
913.53	14389.03
913.70	14376.74
913.86	14456.61
914.03	14323.49
914.20	14360.36
914.37	14393.12
914.54	14493.47
914.71	14159.66
914.88	14262.05
915.05	14200.62
915.22	13954.86
915.39	14223.14
915.55	14090.02
915.72	13836.08
915.89	13827.88
916.06	13946.67
916.23	13969.19
916.40	13815.60
916.57	13627.18
916.74	13868.84
916.91	13770.54
917.07	13483.83
917.24	13772.59
917.41	13668.14
917.58	13655.86
917.75	13664.05
917.92	13539.12
918.09	13600.56
918.26	13569.84
918.42	13483.83
918.59	13582.13
918.76	13485.87
918.93	13305.65
919.10	13332.28
919.27	13336.37
919.44	13487.92
919.60	13315.89
919.77	13289.27
919.94	13080.38
920.11	13276.98
920.28	12982.07
920.45	13094.71
920.61	12953.40
920.78	12898.11
920.95	12988.22
921.12	12977.98
921.29	12750.65
921.46	12631.87
921.62	12697.41
921.79	12824.38
921.96	12504.90
922.13	12490.56
922.30	12431.17
922.47	12394.31
922.63	12373.83
922.80	12240.71
922.97	12275.52
923.14	12111.69
923.31	12187.46
923.47	12267.33
923.64	12375.88
923.81	12076.87
923.98	12068.68
924.15	12044.10
924.32	12146.50
924.48	12154.69
924.65	12087.11
924.82	11784.01
924.99	11777.87
925.15	11609.93
925.32	11794.25
925.49	11519.82
925.66	11648.85
925.83	11646.80
925.99	11485.01
926.16	11659.09
926.33	11525.97
926.50	11636.56
926.67	11505.49
926.83	11425.62
927.00	11460.43
927.17	11116.37
927.34	11112.28
927.50	10960.73
927.67	11349.84
927.84	11161.43
928.01	11153.24
928.17	10919.77
928.34	11179.86
928.51	10866.52
928.68	10813.28
928.84	10690.40
929.01	10665.82
929.18	10780.51
929.35	10635.10
929.51	10616.67
929.68	10475.36
929.85	10313.57
930.02	10565.47
930.18	10309.47
930.35	10489.70
930.52	10383.20
930.69	10487.65
930.85	10346.34
931.02	10078.05
931.19	10153.83
931.36	10209.12
931.52	10186.60
931.69	10176.36
931.86	10227.56
932.02	9912.17
932.19	9873.26
932.36	9856.87
932.53	9981.80
932.69	9736.04
932.86	9998.18
933.03	9711.47
933.19	9652.08
933.36	9641.84
933.53	9602.93
933.70	9416.56
933.86	9602.93
934.03	9473.90
934.20	9211.76
934.36	9351.03
934.53	9152.37
934.70	8953.72
934.86	9066.36
935.03	9045.88
935.20	9045.88
935.36	9041.78
935.53	8865.66
935.70	8671.10
935.86	8800.12
936.03	8607.61
936.20	8474.49
936.36	8433.54
936.53	8388.48
936.70	8232.83
936.86	8341.38
937.03	8163.20
937.20	8019.85
937.36	8179.59
937.53	7985.03
937.70	7800.71
937.86	7741.32
938.03	7645.07
938.20	7702.41
938.36	7497.61
938.53	7530.38
938.70	7327.63
938.86	7434.13
939.03	7309.20
939.20	7155.60
939.36	7249.81
939.53	7116.69
939.70	7276.43
939.86	6885.27
940.03	6817.69
940.19	6670.23
940.36	6895.51
940.53	6754.20
940.69	6551.45
940.86	6537.12
941.03	6299.55
941.19	6254.50
941.36	6285.22
941.52	6225.82
941.69	6281.12
941.86	6279.07
942.02	6031.27
942.19	6090.66
942.35	6029.22
942.52	6008.74
942.69	5832.62
942.85	5769.13
943.02	5672.87
943.18	5869.48
943.35	5660.59
943.52	5527.47
943.68	5687.21
943.85	5726.12
944.01	5504.94
944.18	5474.22
944.35	5629.87
944.51	5566.38
944.68	5375.92
944.84	5394.35
945.01	5334.96
945.17	5466.03
945.34	5396.40
945.51	5367.73
945.67	5404.59
945.84	5334.96
946.00	5171.12
946.17	5388.21
946.33	5171.12
946.50	5263.28
946.67	5343.15
946.83	5156.79
947.00	5240.75
947.16	5283.76
947.33	5255.09
947.49	5148.59
947.66	5162.93
947.82	5246.90
947.99	5173.17
948.16	5250.99
948.32	5097.39
948.49	5095.35
948.65	5142.45
948.82	5263.28
948.98	5207.98
949.15	5171.12
949.31	5294.00
949.48	5306.29
949.64	5140.40
949.81	5074.87
949.97	5054.39
950.14	5291.95
950.30	5183.41
950.47	5187.50
950.63	5263.28
950.80	5240.75
950.96	5318.57
951.13	5308.34
951.30	5287.86
951.46	5349.29
951.63	5480.36
951.79	5185.46
951.96	5267.38
952.12	5218.22
952.29	5238.70
952.45	5212.08
952.62	5283.76
952.78	5171.12
952.94	5267.38
953.11	5275.57
953.27	5334.96
953.44	5357.49
953.60	5322.67
953.77	5482.41
953.93	5205.94
954.10	5164.98
954.26	5373.87
954.43	5316.53
954.59	5425.07
954.76	5480.36
954.92	5289.90
955.09	5263.28
955.25	5291.95
955.42	5259.18
955.58	5375.92
955.75	5259.18
955.91	5228.46
956.07	5318.57
956.24	5404.59
956.40	5468.08
956.57	5423.02
956.73	5367.73
956.90	5382.06
957.06	5414.83
957.23	5300.14
957.39	5492.65
957.56	5337.01
957.72	5310.38
957.88	5279.66
958.05	5472.17
958.21	5453.74
958.38	5451.69
958.54	5392.30
958.71	5492.65
958.87	5345.20
959.03	5459.88
959.20	5425.07
959.36	5431.21
959.53	5355.44
959.69	5375.92
959.85	5373.87
960.02	5337.01
960.18	5281.71
960.35	5355.44
960.51	5486.51
960.68	5238.70
960.84	5445.55
961.00	5193.65
961.17	5420.97
961.33	5343.15
961.50	5394.35
961.66	5449.64
961.82	5285.81
961.99	5408.69
962.15	5402.54
962.31	5171.12
962.48	5275.57
962.64	5466.03
962.81	5261.23
962.97	5347.25
963.13	5406.64
963.30	5246.90
963.46	5332.91
963.62	5306.29
963.79	5404.59
963.95	5255.09
964.12	5259.18
964.28	5408.69
964.44	5296.05
964.61	5394.35
964.77	5226.42
964.93	5304.24
965.10	5314.48
965.26	5070.77
965.42	5242.80
965.59	5195.70
965.75	5236.66
965.92	5181.36
966.08	5222.32
966.24	5214.13
966.41	5115.83
966.57	5199.79
966.73	5347.25
966.90	5318.57
967.06	5091.25
967.22	5216.18
967.39	5146.55
967.55	5203.89
967.71	5214.13
967.88	5074.87
968.04	5134.26
968.20	5224.37
968.37	5177.26
968.53	5115.83
968.69	5107.63
968.85	5033.91
969.02	5195.70
969.18	5128.11
969.34	4982.71
969.51	5025.72
969.67	5164.98
969.83	4968.37
970.00	5162.93
970.16	5017.52
970.32	5031.86
970.48	5201.84
970.65	5038.00
970.81	4921.27
970.97	5085.11
971.14	4921.27
971.30	5117.87
971.46	4917.17
971.63	4917.17
971.79	5017.52
971.95	4868.02
972.11	4769.72
972.28	4945.84
972.44	5033.91
972.60	4872.12
972.76	4954.04
972.93	4884.41
973.09	4900.79
973.25	4880.31
973.42	4763.58
973.58	4847.54
973.74	4898.74
973.90	4825.01
974.07	4956.08
974.23	4724.66
974.39	4822.97
974.55	4841.40
974.72	4798.39
974.88	4652.98
975.04	4822.97
975.20	4816.82
975.37	4816.82
975.53	4820.92
975.69	4749.24
975.85	4698.04
976.01	4734.90
976.18	4683.70
976.34	4671.42
976.50	4763.58
976.66	4818.87
976.83	4638.65
976.99	4669.37
977.15	4757.43
977.31	4571.07
977.47	4773.82
977.64	4560.83
977.80	4642.75
977.96	4599.74
978.12	4628.41
978.29	4587.45
978.45	4493.24
978.61	4591.55
978.77	4579.26
978.93	4491.20
979.10	4575.16
979.26	4435.90
979.42	4442.04
979.58	4360.13
979.74	4396.99
979.91	4368.32
980.07	4394.94
980.23	4380.61
980.39	4476.86
980.55	4403.13
980.71	4431.80
980.88	4446.14
981.04	4360.13
981.20	4437.95
981.36	4345.79
981.52	4296.64
981.68	4310.97
981.85	4396.99
982.01	4353.98
982.17	4235.20
982.33	4343.74
982.49	4360.13
982.65	4286.40
982.82	4276.16
982.98	4239.30
983.14	4198.34
983.30	4374.46
983.46	4331.45
983.62	4243.39
983.79	4132.80
983.95	4136.90
984.11	4044.74
984.27	4218.82
984.43	4206.53
984.59	4136.90
984.75	4308.93
984.91	4173.76
985.08	4272.06
985.24	4005.83
985.40	3944.39
985.56	4196.29
985.72	4095.94
985.88	4100.03
986.04	4054.98
986.20	4052.93
986.37	4153.28
986.53	3907.52
986.69	4145.09
986.85	4100.03
987.01	4128.70
987.17	4001.73
987.33	3979.20
987.49	3991.49
987.65	3925.96
987.82	4073.41
987.98	3909.57
988.14	3968.96
988.30	4104.13
988.46	3971.01
988.62	4040.64
988.78	3944.39
988.94	3942.34
989.10	3786.69
989.26	3846.09
989.42	3837.89
989.59	3833.80
989.75	3846.09
989.91	3876.80
990.07	3657.67
990.23	3907.52
990.39	3792.84
990.55	3737.54
990.71	3790.79
990.87	3850.18
991.03	3805.13
991.19	3796.93
991.35	3766.21
991.51	3807.17
991.67	3717.06
991.83	3854.28
992.00	3708.87
992.16	3825.61
992.32	3864.52
992.48	3751.88
992.64	3633.10
992.80	3672.01
992.96	3696.58
993.12	3721.16
993.28	3667.91
993.44	3674.06
993.60	3637.19
993.76	3667.91
993.92	3690.44
994.08	3592.14
994.24	3772.36
994.40	3553.23
994.56	3645.38
994.72	3565.51
994.88	3483.59
995.04	3616.71
995.20	3475.40
995.36	3526.60
995.52	3647.43
995.68	3461.07
995.84	3416.01
996.00	3641.29
996.16	3375.05
996.32	3493.83
996.48	3442.64
996.64	3600.33
996.80	3401.68
996.96	3473.36
997.12	3452.88
997.28	3502.03
997.44	3250.13
997.60	3368.91
997.76	3330.00
997.92	3397.58
998.08	3428.30
998.24	3338.19
998.40	3428.30
998.56	3303.37
998.72	3377.10
998.88	3309.52
999.04	3321.81
999.20	3352.52
999.36	3301.33
999.52	3370.96
999.68	3334.09
999.84	3383.24
1000.00	3311.57
1000.16	3346.38
1000.32	3211.22
1000.48	3399.63
1000.64	3215.31
1000.80	3164.11
1000.95	3284.94
1001.11	3276.75
1001.27	3252.17
1001.43	3155.92
1001.59	3155.92
1001.75	3203.02
1001.91	3164.11
1002.07	3205.07
1002.23	3147.73
1002.39	3074.00
1002.55	3301.33
1002.71	3172.30
1002.87	3004.37
1003.03	3198.93
1003.19	3117.01
1003.34	3188.69
1003.50	3127.25
1003.66	3149.78
1003.82	3053.52
1003.98	3043.28
1004.14	3002.32
1004.30	3076.05
1004.46	2973.65
1004.62	3106.77
1004.78	2951.12
1004.94	3084.24
1005.09	3088.34
1005.25	3125.20
1005.41	2953.17
1005.57	3071.95
1005.73	2973.65
1005.89	3014.61
1006.05	2955.22
1006.21	3018.71
1006.37	2924.50
1006.52	2914.26
1006.68	2934.74
1006.84	3051.47
1007.00	2932.69
1007.16	3041.23
1007.32	2756.57
1007.48	2959.31
1007.64	2936.79
1007.79	2904.02
1007.95	2832.34
1008.11	2975.70
1008.27	2822.10
1008.43	2906.07
1008.59	2875.35
1008.75	2928.60
1008.91	2951.12
1009.06	2811.86
1009.22	2750.42
1009.38	2805.72
1009.54	2834.39
1009.70	2756.57
1009.86	2828.24
1010.01	2875.35
1010.17	2740.18
1010.33	2723.80
1010.49	2731.99
1010.65	2779.09
1010.81	2693.08
1010.96	2715.61
1011.12	2719.70
1011.28	2762.71
1011.44	2770.90
1011.60	2639.83
1011.76	2678.74
1011.91	2779.09
1012.07	2713.56
1012.23	2615.26
1012.39	2691.03
1012.55	2695.13
1012.71	2658.26
1012.86	2746.33
1013.02	2713.56
1013.18	2609.11
1013.34	2711.51
1013.50	2705.37
1013.65	2723.80
1013.81	2623.45
1013.97	2584.54
1014.13	2637.78
1014.29	2590.68
1014.44	2652.12
1014.60	2572.25
1014.76	2648.02
1014.92	2650.07
1015.07	2541.53
1015.23	2557.91
1015.39	2510.81
1015.55	2602.97
1015.71	2537.43
1015.86	2559.96
1016.02	2510.81
1016.18	2422.75
1016.34	2578.39
1016.49	2580.44
1016.65	2525.15
1016.81	2418.65
1016.97	2420.70
1017.12	2541.53
1017.28	2504.67
1017.44	2449.37
1017.60	2494.43
1017.75	2443.23
1017.91	2473.95
1018.07	2557.91
1018.23	2486.23
1018.38	2432.99
1018.54	2428.89
1018.70	2437.08
1018.86	2381.79
1019.01	2394.08
1019.17	2435.03
1019.33	2506.71
1019.49	2447.32
1019.64	2408.41
1019.80	2375.64
1019.96	2342.88
1020.12	2428.89
1020.27	2363.36
1020.43	2396.12
1020.59	2396.12
1020.74	2484.19
1020.90	2439.13
1021.06	2220.00
1021.22	2367.45
1021.37	2387.93
1021.53	2314.20
1021.69	2404.32
1021.84	2320.35
1022.00	2242.53
1022.16	2277.34
1022.31	2250.72
1022.47	2297.82
1022.63	2359.26
1022.79	2240.48
1022.94	2326.49
1023.10	2361.31
1023.26	2342.88
1023.41	2246.62
1023.57	2314.20
1023.73	2314.20
1023.88	2344.92
1024.04	2203.61
1024.20	2189.28
1024.35	2224.09
1024.51	2281.44
1024.67	2195.42
1024.82	2254.81
1024.98	2133.98
1025.14	2273.25
1025.29	2209.76
1025.45	2275.29
1025.61	2236.38
1025.76	2115.55
1025.92	2228.19
1026.08	2285.53
1026.23	2236.38
1026.39	2267.10
1026.55	2133.98
1026.70	2125.79
1026.86	2170.85
1027.02	2119.65
1027.17	2170.85
1027.33	2176.99
1027.48	2199.52
1027.64	2099.17
1027.80	2115.55
1027.95	2127.84
1028.11	2107.36
1028.27	2111.46
1028.42	2189.28
1028.58	2074.59
1028.73	2023.39
1028.89	2078.69
1029.05	2238.43
1029.20	2133.98
>>>>>End Processed Spectral Data<<<<<
