SpectraSuite Data File
++++++++++++++++++++++++++++++++++++
Date: Fri Jun 02 14:47:55 CEST 2017
User: INFO_000
Dark Spectrum Present: No
Reference Spectrum Present: No
Number of Sampled Component Spectra: 1
Spectrometers: USB4H00879
Integration Time (usec): 80000 (USB4H00879)
Spectra Averaged: 1 (USB4H00879)
Boxcar Smoothing: 0 (USB4H00879)
Correct for Electrical Dark: No (USB4H00879)
Strobe/Lamp Enabled: No (USB4H00879)
Correct for Detector Non-linearity: No (USB4H00879)
Correct for Stray Light: No (USB4H00879)
Number of Pixels in Processed Spectrum: 3648
>>>>>Begin Processed Spectral Data<<<<<
345.13	1306.60
345.34	1306.60
345.56	1306.60
345.78	1273.84
345.99	1310.70
346.21	1751.01
346.42	1681.38
346.64	1599.46
346.86	1787.88
347.07	1732.58
347.29	1736.68
347.50	1621.99
347.72	1650.66
347.94	1781.73
348.15	1550.31
348.37	1601.51
348.59	1703.91
348.80	1597.42
349.02	1777.64
349.23	1875.94
349.45	1802.21
349.67	1853.41
349.88	1871.84
350.10	1964.00
350.31	1834.98
350.53	1771.49
350.75	1923.04
350.96	1808.36
351.18	1855.46
351.39	1927.14
351.61	1794.02
351.82	1945.57
352.04	1900.52
352.26	1812.45
352.47	1914.85
352.69	1908.71
352.90	1773.54
353.12	1894.37
353.34	1853.41
353.55	1904.61
353.77	1906.66
353.98	1914.85
354.20	1810.40
354.41	1964.00
354.63	1953.76
354.85	2070.50
355.06	1951.71
355.28	1789.92
355.49	1871.84
355.71	1822.69
355.92	1894.37
356.14	2023.39
356.35	1894.37
356.57	1867.75
356.79	1923.04
357.00	1880.04
357.22	1984.48
357.43	1904.61
357.65	1966.05
357.86	1916.90
358.08	1986.53
358.29	1953.76
358.51	1947.62
358.72	1941.47
358.94	1859.56
359.16	1972.19
359.37	1937.38
359.59	2009.06
359.80	1933.28
360.02	1955.81
360.23	1904.61
360.45	1966.05
360.66	1966.05
360.88	1937.38
361.09	1900.52
361.31	1994.72
361.52	1935.33
361.74	2009.06
361.95	2058.21
362.17	1986.53
362.38	2101.22
362.60	1968.10
362.81	1996.77
363.03	1964.00
363.24	1953.76
363.46	2060.26
363.67	2011.11
363.89	2015.20
364.10	2017.25
364.32	1982.43
364.53	2086.88
364.75	1912.80
364.96	1986.53
365.18	1961.95
365.39	1941.47
365.61	2013.15
365.82	2131.94
366.04	2027.49
366.25	2043.87
366.47	1951.71
366.68	2047.97
366.90	2011.11
367.11	2037.73
367.33	2170.85
367.54	2101.22
367.76	1984.48
367.97	2064.35
368.19	2093.02
368.40	2136.03
368.62	2019.30
368.83	1888.23
369.05	2060.26
369.26	2015.20
369.48	2041.82
369.69	1968.10
369.91	2093.02
370.12	2021.35
370.33	2187.23
370.55	2009.06
370.76	2080.74
370.98	2123.74
371.19	2052.06
371.41	2052.06
371.62	2043.87
371.84	1945.57
372.05	2191.33
372.27	2031.58
372.48	1998.82
372.69	2076.64
372.91	2117.60
373.12	2105.31
373.34	2054.11
373.55	2133.98
373.77	2138.08
373.98	2039.78
374.20	2172.89
374.41	2191.33
374.62	2082.78
374.84	2183.13
375.05	2148.32
375.27	2127.84
375.48	2113.50
375.70	2166.75
375.91	2181.09
376.12	2406.36
376.34	2129.89
376.55	2117.60
376.77	2254.81
376.98	2125.79
377.19	2103.26
377.41	2244.57
377.62	2217.95
377.84	2308.06
378.05	2271.20
378.27	2189.28
378.48	2324.44
378.69	2373.60
378.91	2252.77
379.12	2263.01
379.34	2289.63
379.55	2359.26
379.76	2242.53
379.98	2205.66
380.19	2213.85
380.41	2258.91
380.62	2297.82
380.83	2295.77
381.05	2148.32
381.26	2330.59
381.47	2199.52
381.69	2355.16
381.90	2359.26
382.12	2269.15
382.33	2281.44
382.54	2275.29
382.76	2334.68
382.97	2310.11
383.19	2242.53
383.40	2387.93
383.61	2375.64
383.83	2275.29
384.04	2326.49
384.25	2344.92
384.47	2396.12
384.68	2314.20
384.89	2377.69
385.11	2312.16
385.32	2394.08
385.54	2320.35
385.75	2301.92
385.96	2430.94
386.18	2420.70
386.39	2373.60
386.60	2420.70
386.82	2381.79
387.03	2453.47
387.24	2457.56
387.46	2508.76
387.67	2541.53
387.88	2484.19
388.10	2498.52
388.31	2541.53
388.52	2529.24
388.74	2506.71
388.95	2465.75
389.16	2498.52
389.38	2465.75
389.59	2537.43
389.80	2617.30
390.02	2430.94
390.23	2623.45
390.44	2504.67
390.66	2553.82
390.87	2527.19
391.08	2502.62
391.30	2574.30
391.51	2600.92
391.72	2658.26
391.94	2641.88
392.15	2617.30
392.36	2537.43
392.58	2594.78
392.79	2709.46
393.00	2672.60
393.22	2691.03
393.43	2699.22
393.64	2756.57
393.85	2574.30
394.07	2740.18
394.28	2727.89
394.49	2676.70
394.71	2662.36
394.92	2834.39
395.13	2625.50
395.35	2682.84
395.56	2768.85
395.77	2799.57
395.98	2803.67
396.20	2875.35
396.41	2783.19
396.62	2883.54
396.84	2803.67
397.05	2764.76
397.26	2826.20
397.47	2838.48
397.69	2758.61
397.90	2940.88
398.11	2912.21
398.32	2824.15
398.54	2875.35
398.75	2797.53
398.96	2920.40
399.18	3008.47
399.39	2985.94
399.60	2918.36
399.81	2947.03
400.03	2791.38
400.24	3186.64
400.45	2942.93
400.66	2996.18
400.88	3004.37
401.09	3061.71
401.30	3110.86
401.51	3135.44
401.73	3088.34
401.94	3039.19
402.15	3131.34
402.36	3139.54
402.58	3041.23
402.79	3127.25
403.00	3065.81
403.21	3127.25
403.43	3196.88
403.64	3225.55
403.85	3055.57
404.06	3149.78
404.27	3045.33
404.49	3141.58
404.70	3112.91
404.91	3305.42
405.12	3248.08
405.34	3223.50
405.55	3309.52
405.76	3178.45
405.97	3291.09
406.19	3373.00
406.40	3227.60
406.61	3405.77
406.82	3291.09
407.03	3246.03
407.25	3293.13
407.46	3352.52
407.67	3389.39
407.88	3405.77
408.09	3358.67
408.31	3213.26
408.52	3350.48
408.73	3395.53
408.94	3327.95
409.15	3442.64
409.37	3514.31
409.58	3420.11
409.79	3411.92
410.00	3518.41
410.21	3491.79
410.43	3485.64
410.64	3475.40
410.85	3583.95
411.06	3522.51
411.27	3461.07
411.48	3682.25
411.70	3567.56
411.91	3633.10
412.12	3661.77
412.33	3704.78
412.54	3594.19
412.76	3729.35
412.97	3688.39
413.18	3583.95
413.39	3624.90
413.60	3606.47
413.81	3696.58
414.03	3676.10
414.24	3608.52
414.45	3721.16
414.66	3682.25
414.87	3811.27
415.08	3817.41
415.30	3758.02
415.51	3821.51
415.72	3690.44
415.93	3731.40
416.14	3698.63
416.35	3796.93
416.56	3768.26
416.78	3739.59
416.99	3895.24
417.20	3919.81
417.41	3971.01
417.62	3997.64
417.83	3860.42
418.04	3878.85
418.26	3811.27
418.47	3948.48
418.68	3893.19
418.89	3942.34
419.10	4091.84
419.31	4054.98
419.52	4050.88
419.73	3928.00
419.95	4059.07
420.16	4087.75
420.37	3999.68
420.58	4093.89
420.79	3891.14
421.00	4024.26
421.21	4032.45
421.42	4003.78
421.63	4063.17
421.85	4061.12
422.06	4165.57
422.27	4151.23
422.48	4175.81
422.69	4147.14
422.90	4206.53
423.11	4130.75
423.32	4368.32
423.53	4388.80
423.75	4204.48
423.96	4509.63
424.17	4319.17
424.38	4427.71
424.59	4411.32
424.80	4587.45
425.01	4403.13
425.22	4384.70
425.43	4372.41
425.64	4577.21
425.85	4673.46
426.06	4480.96
426.28	4456.38
426.49	4493.24
426.70	4534.20
426.91	4603.83
427.12	4562.87
427.33	4534.20
427.54	4616.12
427.75	4573.11
427.96	4829.11
428.17	4695.99
428.38	4720.57
428.59	4990.90
428.80	4702.14
429.01	4788.15
429.23	4747.19
429.44	4847.54
429.65	4753.34
429.86	4904.89
430.07	4775.86
430.28	4812.73
430.49	4779.96
430.70	5140.40
430.91	5060.53
431.12	4923.32
431.33	5056.43
431.54	4986.80
431.75	5101.49
431.96	5154.74
432.17	4876.21
432.38	5097.39
432.59	5384.11
432.80	5255.09
433.01	5146.55
433.22	5169.07
433.43	5212.08
433.64	5140.40
433.85	5191.60
434.06	5189.55
434.27	5253.04
434.49	5367.73
434.70	5326.77
434.91	5279.66
435.12	5547.95
435.33	5425.07
435.54	5367.73
435.75	5242.80
435.96	5564.33
436.17	5316.53
436.38	5627.82
436.59	5550.00
436.80	5525.42
437.01	5701.54
437.22	5633.96
437.43	5777.32
437.64	5439.40
437.85	5719.98
438.06	5865.38
438.27	5674.92
438.48	5683.11
438.69	5779.37
438.90	5783.46
439.11	5765.03
439.32	5885.86
439.53	5779.37
439.74	5857.19
439.95	5947.30
440.16	5853.09
440.37	5844.90
440.57	5916.58
440.78	6018.98
440.99	5935.01
441.20	5945.25
441.41	5939.11
441.62	5834.66
441.83	5892.01
442.04	6039.46
442.25	6104.99
442.46	6059.94
442.67	6193.06
442.88	6414.24
443.09	6016.93
443.30	6168.48
443.51	6195.11
443.72	6383.52
443.93	6156.19
444.14	6485.92
444.35	6248.35
444.56	6326.18
444.77	6311.84
444.98	6320.03
445.19	6297.50
445.40	6457.25
445.61	6401.95
445.81	6578.08
446.02	6424.48
446.23	6371.23
446.44	6246.30
446.65	6487.96
446.86	6522.78
447.07	6711.19
447.28	6733.72
447.49	6674.33
447.70	6682.52
447.91	6662.04
448.12	6682.52
448.33	6811.54
448.54	6854.55
448.74	6674.33
448.95	6811.54
449.16	6858.65
449.37	6942.61
449.58	6803.35
449.79	7028.63
450.00	6801.30
450.21	6899.61
450.42	7051.16
450.63	6934.42
450.84	7051.16
451.05	7159.70
451.25	6946.71
451.46	6983.57
451.67	7235.47
451.88	7225.23
452.09	7200.66
452.30	7161.75
452.51	7100.31
452.72	7374.74
452.93	7518.09
453.13	7098.26
453.34	7298.96
453.55	7432.08
453.76	7325.58
453.97	7661.45
454.18	7382.93
454.39	7538.57
454.60	7440.27
454.81	7495.57
455.01	7589.77
455.22	7346.06
455.43	7622.54
455.64	7813.00
455.85	7888.78
456.06	7901.06
456.27	7733.13
456.48	7663.50
456.68	7876.49
456.89	7841.67
457.10	8062.85
457.31	7950.21
457.52	7806.86
457.73	8112.00
457.94	8058.76
458.14	7995.27
458.35	8281.99
458.56	8118.15
458.77	8034.18
458.98	8144.77
459.19	8308.61
459.39	8357.76
459.60	8349.57
459.81	8193.92
460.02	8449.92
460.23	8525.69
460.44	8585.08
460.65	8578.94
460.85	8851.32
461.06	8576.89
461.27	8492.93
461.48	8963.96
461.69	8836.99
461.89	8621.95
462.10	8703.87
462.31	8488.83
462.52	8902.52
462.73	8814.46
462.94	9078.65
463.14	8830.84
463.35	9070.45
463.56	9367.41
463.77	9244.53
463.98	9068.41
464.18	9150.32
464.39	9322.35
464.60	9678.70
464.81	9525.10
465.02	9512.81
465.23	9594.73
465.43	9404.27
465.64	9469.81
465.85	9609.07
466.06	9551.73
466.27	9951.08
466.47	9748.33
466.68	9895.78
466.89	9975.66
467.10	9957.22
467.30	9873.26
467.51	10162.02
467.72	10397.54
467.93	9965.42
468.14	10073.96
468.34	10336.10
468.55	10243.94
468.76	10370.91
468.97	10588.00
469.17	10676.06
469.38	10620.77
469.59	10768.22
469.80	10504.03
470.01	10674.01
470.21	10868.57
470.42	11106.13
470.63	11046.74
470.84	11052.89
471.04	11222.87
471.25	10999.64
471.46	10942.30
471.67	11192.15
471.87	11480.91
472.08	11421.52
472.29	11554.64
472.50	11339.60
472.70	11581.26
472.91	11665.23
473.12	11726.67
473.33	11880.27
473.53	12019.53
473.74	11837.26
473.95	12154.69
474.16	12097.35
474.36	12209.99
474.57	12224.33
474.78	12445.51
474.99	12371.78
475.19	12504.90
475.40	12906.30
475.61	12789.56
475.81	12953.40
476.02	13168.44
476.23	12894.01
476.44	13037.37
476.64	13444.91
476.85	13254.45
477.06	13412.15
477.27	13731.63
477.47	13819.69
477.68	13631.28
477.89	14022.44
478.09	13768.49
478.30	13907.76
478.51	13948.72
478.71	14173.99
478.92	14429.99
479.13	14393.12
479.34	14593.83
479.54	14495.52
479.75	14454.56
479.96	14542.63
480.16	14661.41
480.37	14835.49
480.58	14978.84
480.78	15091.48
480.99	15052.57
481.20	15308.57
481.41	15464.21
481.61	15505.17
481.82	15726.35
482.03	15673.10
482.23	15761.17
482.44	15992.59
482.65	16236.30
482.85	16060.17
483.06	16264.97
483.27	16049.93
483.47	16267.02
483.68	16230.15
483.89	16561.92
484.09	16512.77
484.30	16754.43
484.51	16836.35
484.71	17243.90
484.92	16783.10
485.13	17053.44
485.33	17303.29
485.54	17041.15
485.75	17266.42
485.95	17669.87
486.16	17587.96
486.37	17671.92
486.57	17594.10
486.78	17815.28
486.98	17766.13
487.19	18013.93
487.40	18089.71
487.60	18001.65
487.81	18294.50
488.02	18251.50
488.22	18224.87
488.43	18292.46
488.64	18450.15
488.84	18728.67
489.05	18894.56
489.25	18732.77
489.46	18759.39
489.67	18644.71
489.87	19441.37
490.08	19209.95
490.29	19422.94
490.49	19478.23
490.70	19533.53
490.90	19758.80
491.11	19404.50
491.32	19668.69
491.52	19650.26
491.73	19922.64
491.94	19723.99
492.14	19857.10
492.35	20313.80
492.55	20170.44
492.76	20330.19
492.97	20514.50
493.17	20330.19
493.38	20661.96
493.58	20610.76
493.79	20674.24
494.00	20547.27
494.20	20803.27
494.41	20707.01
494.61	20995.78
494.82	20999.87
495.02	21010.11
495.23	21089.98
495.44	21403.32
495.64	21518.01
495.85	21614.26
496.05	21642.93
496.26	21550.78
496.47	21743.28
496.67	21780.15
496.88	22017.71
497.08	21821.11
497.29	22329.00
497.49	21999.28
497.70	22249.13
497.91	22337.20
498.11	22302.38
498.32	22658.73
498.52	22509.22
498.73	22605.48
498.93	22423.21
499.14	22605.48
499.34	22685.35
499.55	22924.96
499.76	22570.66
499.96	22881.95
500.17	22945.44
500.37	23137.95
500.58	22945.44
500.78	22972.07
500.99	23131.81
501.19	23412.38
501.40	23064.22
501.60	23090.85
501.81	23479.96
502.02	23461.53
502.22	23301.79
502.43	23543.45
502.63	23930.51
502.84	23398.04
503.04	23682.71
503.25	23670.42
503.45	23955.09
503.66	24151.70
503.86	23957.14
504.07	24274.57
504.27	23877.27
504.48	24374.92
504.68	24303.25
504.89	24514.19
505.09	24329.87
505.30	24630.92
505.50	24618.63
505.71	24317.58
505.91	24671.88
506.12	24751.75
506.32	24397.45
506.53	24848.00
506.73	24686.22
506.94	24864.39
507.14	24964.74
507.35	25144.96
507.55	24999.55
507.76	25304.70
507.96	25005.70
508.17	25110.14
508.37	25087.62
508.58	25323.13
508.78	25452.16
508.99	25609.85
509.19	25548.41
509.40	25484.92
509.60	25319.04
509.81	25779.83
510.01	25511.55
510.22	25882.23
510.42	26074.74
510.63	25890.42
510.83	25831.03
511.04	25978.48
511.24	25906.80
511.44	26343.02
511.65	26162.80
511.85	26039.92
512.06	26236.53
512.26	26637.93
512.47	26785.38
512.67	26418.80
512.88	26551.91
513.08	26601.07
513.29	26603.11
513.49	26605.16
513.69	26859.11
513.90	26951.27
514.10	26846.82
514.31	26926.69
514.51	26943.08
514.72	27293.28
514.92	26990.18
515.13	27084.39
515.33	27340.38
515.53	27430.49
515.74	27584.09
515.94	27651.67
516.15	27620.95
516.35	27362.91
516.56	27700.83
516.76	27600.47
516.96	27758.17
517.17	27770.46
517.37	27952.73
517.58	27827.80
517.78	27887.19
517.99	28208.72
518.19	28231.25
518.39	28366.42
518.60	28175.95
518.80	28403.28
519.01	28307.02
519.21	28683.85
519.41	28558.92
519.62	28487.25
519.82	28819.02
520.03	28870.22
520.23	28814.92
520.43	28579.40
520.64	29126.21
520.84	29388.35
521.05	29175.36
521.25	29445.69
521.45	29318.72
521.66	29421.12
521.86	29722.17
522.07	29646.40
522.27	29519.42
522.47	29900.34
522.68	30176.82
522.88	29886.01
523.08	30127.67
523.29	30103.09
523.49	30142.00
523.70	30324.27
523.90	30275.12
524.10	30418.48
524.31	30506.54
524.51	30156.34
524.71	30838.31
524.92	31125.03
525.12	31137.32
525.33	30842.41
525.53	30819.88
525.73	31690.27
525.94	31235.62
526.14	31284.77
526.34	31221.28
526.55	31751.71
526.75	31403.55
526.95	31612.45
527.16	31804.95
527.36	31847.96
527.56	31659.55
527.77	32179.73
527.97	32073.24
528.17	32249.36
528.38	32396.82
528.58	32452.11
528.78	32781.84
528.99	32507.41
529.19	32724.49
529.39	32747.02
529.60	32708.11
529.80	32546.32
530.00	32796.17
530.21	33066.50
530.41	33572.35
530.61	33144.33
530.82	33318.40
531.02	33232.39
531.22	33658.37
531.43	33648.13
531.63	34010.62
531.83	34070.01
532.04	34211.32
532.24	33740.29
532.44	33852.92
532.64	34178.55
532.85	34651.63
533.05	34321.91
533.25	34371.06
533.46	34538.99
533.66	34881.00
533.86	34790.89
534.07	35167.72
534.27	34735.60
534.47	35157.48
534.67	35464.67
534.88	35010.03
535.08	35399.14
535.28	35347.94
535.49	35556.83
535.69	35915.23
535.89	35927.52
536.09	35753.44
536.30	36074.97
536.50	36097.50
536.70	36255.19
536.91	35808.73
537.11	36249.05
537.31	36351.45
537.51	36265.43
537.72	36490.71
537.92	36605.39
538.12	36996.56
538.32	36672.98
538.53	36935.12
538.73	36896.20
538.93	36883.92
539.13	36816.33
539.34	36718.03
539.54	37238.22
539.74	37176.78
539.94	36969.93
540.15	37260.74
540.35	37715.39
540.55	37287.37
540.75	37389.77
540.96	37580.23
541.16	37541.32
541.36	37672.39
541.56	37561.79
541.77	37694.91
541.97	37733.82
542.17	37979.58
542.37	37922.24
542.58	38235.58
542.78	38118.84
542.98	38036.92
543.18	37991.87
543.38	38389.17
543.59	38544.82
543.79	38086.07
543.99	38460.85
544.19	38737.33
544.40	38399.41
544.60	38483.38
544.80	38483.38
545.00	38794.67
545.20	38563.25
545.41	38766.00
545.61	38788.53
545.81	38981.04
546.01	38946.22
546.21	39032.24
546.42	38792.62
546.62	39372.20
546.82	39093.68
547.02	39376.30
547.22	39626.15
547.43	39151.02
547.63	39335.34
547.83	39210.41
548.03	38933.93
548.23	39402.92
548.44	39517.60
548.64	39490.98
548.84	39687.59
549.04	39636.39
549.24	39876.00
549.45	39888.29
549.65	39628.20
549.85	39605.67
550.05	40138.14
550.25	39888.29
550.45	40474.01
550.66	39826.85
550.86	39781.79
551.06	40271.26
551.26	40334.74
551.46	39986.59
551.66	40142.24
551.87	40269.21
552.07	40250.78
552.27	40297.88
552.47	40324.50
552.67	40560.02
552.87	40852.88
553.07	40422.81
553.28	40549.78
553.48	40916.37
553.68	40539.54
553.88	41047.44
554.08	40643.99
554.28	40785.30
554.48	40820.11
554.69	40951.18
554.89	40830.35
555.09	40701.33
555.29	40797.59
555.49	41051.53
555.69	40523.16
555.89	40682.90
556.10	41317.77
556.30	40826.26
556.50	40916.37
556.70	40744.34
556.90	41272.71
557.10	41663.88
557.30	41053.58
557.50	41686.40
557.70	41483.66
557.91	41727.36
558.11	41704.84
558.31	41825.67
558.51	41614.72
558.71	42046.85
558.91	41819.52
559.11	41452.94
559.31	41647.49
559.51	41528.71
559.72	41782.66
559.92	41842.05
560.12	42005.89
560.32	42024.32
560.52	41551.24
560.72	42227.07
560.92	42323.32
561.12	42030.46
561.32	42280.31
561.52	42347.90
561.72	42540.41
561.93	42186.11
562.13	42343.80
562.33	42323.32
562.53	42888.56
562.73	42163.58
562.93	42532.22
563.13	42685.81
563.33	42446.20
563.53	42886.51
563.73	42489.21
563.93	42671.48
564.13	42847.60
564.33	42997.10
564.53	42954.10
564.74	42601.85
564.94	43046.26
565.14	43181.42
565.34	42919.28
565.54	42970.48
565.74	42876.27
565.94	43240.81
566.14	43097.45
566.34	43083.12
566.54	43705.70
566.74	42978.67
566.94	43586.92
567.14	43242.86
567.34	43386.22
567.54	43672.93
567.74	43545.96
567.94	43470.18
568.14	43662.69
568.34	44074.34
568.54	43685.22
568.74	43812.20
568.94	43748.71
569.14	44393.82
569.34	44162.40
569.54	44139.87
569.75	43746.66
569.95	44184.93
570.15	44553.56
570.35	44303.71
570.55	44111.20
570.75	44064.10
570.95	44438.87
571.15	44539.22
571.35	44533.08
571.55	44582.23
571.75	44557.66
571.95	44940.63
572.15	44555.61
572.35	45202.77
572.55	44721.49
572.75	44848.47
572.95	44760.40
573.15	45296.97
573.35	45409.61
573.55	44911.95
573.75	45073.74
573.95	45401.42
574.15	45194.57
574.35	45194.57
574.55	45878.60
574.75	45243.73
574.95	45405.52
575.15	45346.12
575.34	45528.39
575.54	45634.89
575.74	45739.33
575.94	45624.65
576.14	45587.78
576.34	46026.05
576.54	46007.62
576.74	46353.72
576.94	46236.99
577.14	46347.58
577.34	46478.65
577.54	45983.04
577.74	46357.82
577.94	46411.07
578.14	46445.88
578.34	46798.13
578.54	46175.55
578.74	46400.83
578.94	46703.93
579.14	46529.85
579.34	46959.92
579.54	46921.01
579.74	47193.39
579.94	47041.84
580.13	47568.17
580.33	47213.87
580.53	47117.62
580.73	47269.17
580.93	47363.37
581.13	47383.85
581.33	47701.29
581.53	47645.99
581.73	47824.17
581.93	48186.66
582.13	47766.82
582.33	47985.96
582.53	47930.66
582.73	47969.57
582.92	48078.11
583.12	48389.41
583.32	48139.55
583.52	48223.52
583.72	48272.67
583.92	48395.55
584.12	48164.13
584.32	48684.31
584.52	48659.74
584.72	48858.39
584.92	48583.96
585.11	48977.17
585.31	48667.93
585.51	48971.03
585.71	48366.88
585.91	48921.88
586.11	48960.79
586.31	48940.31
586.51	49224.98
586.71	49016.08
586.91	49911.05
587.10	49548.56
587.30	48895.25
587.50	49411.34
587.70	49302.80
587.90	49456.40
588.10	49331.47
588.30	49462.54
588.50	49583.37
588.69	49583.37
588.89	49820.94
589.09	49714.44
589.29	49573.13
589.49	49837.32
589.69	49601.80
589.89	50005.25
590.08	49954.05
590.28	49976.58
590.48	50124.04
590.68	49743.11
590.88	50328.83
591.08	50355.46
591.28	49888.52
591.47	50355.46
591.67	50283.78
591.87	50674.94
592.07	50255.11
592.27	50345.22
592.47	50251.01
592.67	50461.95
592.86	50523.39
593.06	50267.39
593.26	50795.77
593.46	50672.89
593.66	50980.09
593.86	50697.47
594.05	50533.63
594.25	50715.90
594.45	50369.79
594.65	50711.80
594.85	50277.63
595.05	51057.91
595.24	51057.91
595.44	51059.96
595.64	51064.05
595.84	50846.97
596.04	51021.05
596.23	51109.11
596.43	51246.32
596.63	50928.89
596.83	51127.54
597.03	51391.73
597.22	51590.38
597.42	51137.78
597.62	51598.57
597.82	51352.82
598.02	50949.37
598.21	51776.75
598.41	51322.10
598.61	51637.48
598.81	51606.76
599.01	51920.10
599.20	51522.80
599.40	51561.71
599.60	52024.55
599.80	51223.79
600.00	52172.00
600.19	52339.94
600.39	51555.57
600.59	52514.01
600.79	51760.36
600.98	51762.41
601.18	51924.20
601.38	52325.60
601.58	52278.50
601.78	52393.18
601.97	51879.14
602.17	52765.91
602.37	52393.18
602.57	52696.28
602.76	52808.92
602.96	51930.34
603.16	52450.53
603.36	52509.92
603.55	52722.91
603.75	52540.64
603.95	52360.42
604.15	52960.47
604.34	52581.60
604.54	53294.29
604.74	52827.35
604.94	52452.58
605.13	52925.66
605.33	53261.52
605.53	52614.37
605.73	53044.44
605.92	52958.42
606.12	52790.49
606.32	52991.19
606.52	52923.61
606.71	52925.66
606.91	53112.02
607.11	53398.74
607.30	53118.17
607.50	53572.81
607.70	53310.67
607.90	53396.69
608.09	53130.45
608.29	53335.25
608.49	53361.87
608.68	53472.46
608.88	53380.31
609.08	53329.11
609.28	53165.27
609.47	53105.88
609.67	53441.74
609.87	53249.24
610.06	53558.48
610.26	53296.34
610.46	53732.56
610.66	53550.29
610.85	53490.90
611.05	53263.57
611.25	53195.99
611.44	53335.25
611.64	53662.93
611.84	53298.39
612.03	53654.73
612.23	53390.55
612.43	53599.44
612.62	53222.61
612.82	53660.88
613.02	53808.33
613.21	53779.66
613.41	53105.88
613.61	53703.88
613.80	53322.96
614.00	53454.03
614.20	53712.08
614.39	53669.07
614.59	53974.22
614.79	53433.55
614.98	53787.85
615.18	53558.48
615.38	53474.51
615.57	53195.99
615.77	53794.00
615.97	53449.94
616.16	53664.97
616.36	53357.78
616.56	53892.30
616.75	53429.46
616.95	53443.79
617.15	53476.56
617.34	53394.64
617.54	53290.19
617.74	54142.15
617.93	53832.91
618.13	53101.78
618.32	53849.29
618.52	53454.03
618.72	53167.32
618.91	53781.71
619.11	53198.04
619.31	53834.95
619.50	53306.58
619.70	53294.29
619.90	53761.23
620.09	53419.22
620.29	53222.61
620.48	53077.21
620.68	54006.98
620.88	53040.34
621.07	53916.87
621.27	53497.04
621.46	52913.37
621.66	53355.73
621.86	53576.91
622.05	53316.82
622.25	53769.42
622.44	53529.81
622.64	53294.29
622.84	53478.61
623.03	53310.67
623.23	53787.85
623.42	53658.83
623.62	53976.26
623.82	53601.49
624.01	53331.15
624.21	53556.43
624.40	53658.83
624.60	53232.85
624.80	53337.30
624.99	53505.23
625.19	53376.21
625.38	53572.81
625.58	53581.01
625.77	53171.41
625.97	53804.24
626.17	53071.06
626.36	53499.09
626.56	53535.95
626.75	53343.44
626.95	53705.93
627.14	53474.51
627.34	53632.21
627.54	53247.19
627.73	53669.07
627.93	53585.10
628.12	53554.38
628.32	53890.25
628.51	53943.50
628.71	53550.29
628.90	53947.59
629.10	53454.03
629.30	53406.93
629.49	53994.70
629.69	53798.09
629.88	53554.38
630.08	53828.81
630.27	53875.91
630.47	54027.46
630.66	53820.62
630.86	53992.65
631.05	53544.14
631.25	54006.98
631.44	53748.94
631.64	54047.94
631.84	54158.53
632.03	54031.56
632.23	53847.24
632.42	54699.20
632.62	54138.05
632.81	54158.53
633.01	53941.45
633.20	54457.54
633.40	54363.33
633.59	54287.56
633.79	53966.02
633.98	54457.54
634.18	54189.25
634.37	54168.77
634.57	54125.77
634.76	54224.07
634.96	54475.97
635.15	54719.68
635.35	54260.93
635.54	54093.00
635.74	54316.23
635.93	54156.49
636.13	54721.72
636.32	54523.07
636.52	54471.87
636.71	54678.72
636.91	54715.58
637.10	54656.19
637.30	54324.42
637.49	54414.53
637.69	54639.81
637.88	55291.06
638.08	54205.64
638.27	55090.36
638.46	54453.44
638.66	54637.76
638.85	54912.19
639.05	55020.73
639.24	54838.46
639.44	54967.48
639.63	54723.77
639.83	55014.58
640.02	55094.46
640.22	54738.11
640.41	55444.66
640.61	54856.89
640.80	55110.84
640.99	55301.30
641.19	55358.64
641.38	54885.56
641.58	55014.58
641.77	55325.88
641.97	54787.26
642.16	55286.96
642.36	55532.72
642.55	55649.45
642.74	55211.19
642.94	56181.93
643.13	55243.96
643.33	55825.58
643.52	55970.99
643.72	55297.20
643.91	55610.54
644.10	55647.41
644.30	55846.06
644.49	55532.72
644.69	55891.12
644.88	55899.31
645.08	55633.07
645.27	55637.17
645.46	55727.28
645.66	56341.67
645.85	55852.20
646.05	55540.91
646.24	56282.28
646.43	55821.48
646.63	56415.40
646.82	56202.41
647.02	56149.16
647.21	56413.35
647.40	56028.33
647.60	56263.85
647.79	56292.52
647.99	56431.78
648.18	55704.75
648.37	56732.83
648.57	56534.18
648.76	56558.75
648.96	55786.67
649.15	56073.38
649.34	56904.86
649.54	56554.66
649.73	56218.79
649.92	56824.99
650.12	56573.09
650.31	56599.71
650.51	56677.54
650.70	56972.44
650.89	56448.16
651.09	57388.18
651.28	56890.52
651.47	56857.76
651.67	56951.96
651.86	56824.99
652.06	56407.20
652.25	57132.18
652.44	57123.99
652.64	56898.72
652.83	57074.84
653.02	56784.03
653.22	56954.01
653.41	56788.13
653.60	56775.84
653.80	56853.66
653.99	57367.70
654.18	56595.62
654.38	56831.13
654.57	56966.30
654.76	57138.33
654.96	56800.41
655.15	57136.28
655.34	57453.72
655.54	56890.52
655.73	56964.25
655.92	57023.64
656.12	57253.01
656.31	57308.31
656.50	57003.16
656.70	57253.01
656.89	56661.15
657.08	57226.39
657.28	57138.33
657.47	56904.86
657.66	57132.18
657.86	56845.47
658.05	57148.57
658.24	57175.19
658.43	56900.76
658.63	57207.96
658.82	57187.48
659.01	57472.15
659.21	57273.49
659.40	57386.13
659.59	57363.60
659.79	57506.96
659.98	57461.91
660.17	57558.16
660.36	57447.57
660.56	57263.25
660.75	57635.98
660.94	57414.80
661.14	57367.70
661.33	57537.68
661.52	57021.59
661.71	57808.01
661.91	57103.51
662.10	56616.10
662.29	57738.38
662.49	57664.66
662.68	57359.51
662.87	57824.40
663.06	57595.03
663.26	57558.16
663.45	57488.53
663.64	57427.09
663.83	57984.14
664.03	57883.79
664.22	57228.44
664.41	57457.81
664.60	57304.21
664.80	57631.89
664.99	57091.22
665.18	57441.43
665.37	57277.59
665.57	57375.89
665.76	57390.23
665.95	57539.73
666.14	57175.19
666.34	57345.17
666.53	57418.90
666.72	57447.57
666.91	57441.43
667.11	57070.75
667.30	57556.11
667.49	57529.49
667.68	57085.08
667.87	57300.12
668.07	57037.98
668.26	57037.98
668.45	57441.43
668.64	56792.22
668.84	57195.67
669.03	57195.67
669.22	57091.22
669.41	57054.36
669.60	57177.24
669.80	56984.73
669.99	57341.08
670.18	56972.44
670.37	57613.46
670.57	57789.58
670.76	57105.56
670.95	57177.24
671.14	56984.73
671.33	56716.45
671.53	57652.37
671.72	57175.19
671.91	57107.61
672.10	56726.69
672.29	57025.69
672.48	56554.66
672.68	56990.87
672.87	57185.43
673.06	56925.34
673.25	56704.16
673.44	56403.11
673.64	57015.45
673.83	56390.82
674.02	56591.52
674.21	56810.65
674.40	56693.92
674.59	56644.77
674.79	56509.60
674.98	56376.48
675.17	56671.39
675.36	56718.49
675.55	56673.44
675.74	56536.23
675.94	56935.58
676.13	56667.30
676.32	56474.79
676.51	56743.07
676.70	56349.86
676.89	56372.39
677.08	56329.38
677.28	56282.28
677.47	56337.57
677.66	56767.65
677.85	56753.31
678.04	56554.66
678.23	56409.25
678.42	56579.23
678.62	56190.12
678.81	56632.48
679.00	56480.93
679.19	57109.66
679.38	56163.50
679.57	56405.16
679.76	55872.68
679.96	56616.10
680.15	56085.67
680.34	55997.61
680.53	56171.69
680.72	55987.37
680.91	56294.56
681.10	56210.60
681.29	56130.73
681.48	55809.20
681.68	56153.26
681.87	55817.39
682.06	56335.52
682.25	55317.68
682.44	55491.76
682.63	55735.47
682.82	55624.88
683.01	56177.83
683.20	55370.93
683.39	55827.63
683.59	55610.54
683.78	55389.36
683.97	55428.27
684.16	55714.99
684.35	55258.29
684.54	55528.62
684.73	55252.15
684.92	55540.91
685.11	55211.19
685.30	54938.81
685.49	55774.38
685.69	55065.78
685.88	55190.71
686.07	54965.43
686.26	54967.48
686.45	55297.20
686.64	55407.79
686.83	55116.98
687.02	55194.81
687.21	54920.38
687.40	54846.65
687.59	54572.22
687.78	55092.41
687.97	54908.09
688.16	55203.00
688.35	54725.82
688.54	54645.95
688.74	54463.68
688.93	54938.81
689.12	54785.21
689.31	54660.29
689.50	55030.97
689.69	54566.08
689.88	54195.40
690.07	54766.78
690.26	54844.60
690.45	54693.05
690.64	54469.82
690.83	54242.50
691.02	54289.60
691.21	54174.92
691.40	54285.51
691.59	54518.98
691.78	54348.99
691.97	54039.75
692.16	54267.08
692.35	54662.33
692.54	54330.56
692.73	54277.32
692.92	54086.85
693.11	54068.42
693.30	54353.09
693.49	54041.80
693.68	54123.72
693.87	54072.52
694.06	53738.70
694.25	54029.51
694.44	53507.28
694.63	53683.40
694.82	53703.88
695.01	53939.40
695.20	53374.16
695.39	53626.06
695.58	53599.44
695.77	52937.94
695.96	53126.36
696.15	53787.85
696.34	53499.09
696.53	53613.77
696.72	53509.33
696.91	53415.12
697.10	53329.11
697.29	53015.77
697.48	53372.11
697.67	53060.82
697.86	53171.41
698.05	52880.60
698.24	53374.16
698.43	52845.79
698.62	53079.25
698.81	52493.54
699.00	53531.86
699.19	52614.37
699.38	52872.41
699.57	52624.60
699.76	53441.74
699.95	52462.82
700.14	52753.63
700.32	52749.53
700.51	52604.13
700.70	53023.96
700.89	52737.24
701.08	53163.22
701.27	52372.70
701.46	52688.09
701.65	52237.54
701.84	52690.14
702.03	52430.05
702.22	52335.84
702.41	52477.15
702.60	52495.58
702.79	52360.42
702.98	52036.84
703.17	52636.89
703.35	52243.68
703.54	51977.45
703.73	52731.10
703.92	52133.09
704.11	52384.99
704.30	51764.46
704.49	52053.22
704.68	52288.74
704.87	52270.31
705.06	52298.98
705.25	52184.29
705.43	52194.53
705.62	52384.99
705.81	52245.73
706.00	51977.45
706.19	51942.63
706.38	51686.64
706.57	52225.25
706.76	51717.35
706.95	52212.96
707.14	51703.02
707.32	51713.26
707.51	51436.78
707.70	51387.63
707.89	52090.09
708.08	51727.59
708.27	51721.45
708.46	52014.31
708.65	51551.47
708.84	51602.67
709.02	51709.16
709.21	51379.44
709.40	51387.63
709.59	51854.57
709.78	51338.48
709.97	51455.21
710.16	51287.28
710.34	51639.53
710.53	51260.66
710.72	51473.65
710.91	51342.58
711.10	51598.57
711.29	51483.89
711.48	51530.99
711.66	51207.41
711.85	51229.94
712.04	51231.99
712.23	51254.51
712.42	51213.55
712.61	50803.96
712.80	51375.34
712.98	51428.59
713.17	51156.21
713.36	50935.03
713.55	51191.03
713.74	51057.91
713.93	51193.07
714.11	51094.77
714.30	51021.05
714.49	50779.39
714.68	51117.30
714.87	50601.21
715.06	51467.50
715.24	50660.60
715.43	50738.43
715.62	50709.75
715.81	50500.86
716.00	50943.22
716.18	50423.04
716.37	50142.47
716.56	50205.95
716.75	51016.95
716.94	50812.15
717.12	50377.98
717.31	50611.45
717.50	50476.29
717.69	50369.79
717.88	50613.50
718.06	50447.61
718.25	50715.90
718.44	50597.12
718.63	50040.07
718.82	50679.03
719.00	50255.11
719.19	50205.95
719.38	50103.56
719.57	50128.13
719.76	49798.41
719.94	49714.44
720.13	49845.51
720.32	50044.16
720.51	50035.97
720.69	49714.44
720.88	49503.50
721.07	49485.07
721.26	49722.63
721.44	49763.59
721.63	49413.39
721.82	49464.59
722.01	49440.01
722.20	49642.76
722.38	49523.98
722.57	48862.49
722.76	49304.85
722.95	49210.64
723.13	49315.09
723.32	48938.26
723.51	49083.67
723.70	48643.35
723.88	49009.94
724.07	49036.56
724.26	48604.44
724.44	48493.85
724.63	49126.67
724.82	49036.56
725.01	48964.88
725.19	48788.76
725.38	48864.53
725.57	48715.03
725.76	48751.90
725.94	48409.89
726.13	48418.08
726.32	48710.94
726.51	48377.12
726.69	48620.83
726.88	48948.50
727.07	49130.77
727.25	48682.27
727.44	48684.31
727.63	48344.35
727.82	48645.40
728.00	48702.74
728.19	48772.38
728.38	49184.02
728.56	48112.93
728.75	49108.24
728.94	48520.48
729.12	48440.60
729.31	48860.44
729.50	48526.62
729.69	48917.78
729.87	48405.79
730.06	48545.05
730.25	48440.60
730.43	48448.80
730.62	48244.00
730.81	48911.64
730.99	48624.92
731.18	48280.86
731.37	48620.83
731.55	48989.46
731.74	49192.21
731.93	49018.13
732.11	48887.06
732.30	48889.11
732.49	48336.16
732.67	48567.58
732.86	48409.89
733.05	48837.91
733.23	48448.80
733.42	48821.53
733.61	48813.34
733.79	48606.49
733.98	48893.21
734.17	48500.00
734.35	48575.77
734.54	48502.04
734.73	48694.55
734.91	49083.67
735.10	48237.86
735.29	48563.48
735.47	48184.61
735.66	48379.17
735.84	48362.78
736.03	48346.40
736.22	48665.88
736.40	48219.42
736.59	48573.72
736.78	48121.12
736.96	48137.51
737.15	48121.12
737.33	48192.80
737.52	48100.64
737.71	48268.58
737.89	48289.06
738.08	48061.73
738.27	48223.52
738.45	48469.28
738.64	48278.82
738.82	48223.52
739.01	48254.24
739.20	47801.64
739.38	47936.80
739.57	48188.70
739.75	48119.07
739.94	48020.77
740.13	48194.85
740.31	48067.87
740.50	48348.45
740.68	48213.28
740.87	48700.70
741.06	48157.99
741.24	47611.18
741.43	48055.59
741.61	48434.46
741.80	48033.06
741.99	47895.85
742.17	47482.16
742.36	47680.81
742.54	47693.10
742.73	48309.53
742.91	47832.36
743.10	47732.01
743.29	48106.79
743.47	47740.20
743.66	47920.42
743.84	47858.98
744.03	47807.78
744.21	47400.24
744.40	47918.37
744.59	47512.88
744.77	47351.09
744.96	47379.76
745.14	47426.86
745.33	47314.22
745.51	47398.19
745.70	47242.54
745.88	47007.03
746.07	47365.42
746.26	47052.08
746.44	47007.03
746.63	47095.09
746.81	47441.20
747.00	46443.84
747.18	47306.03
747.37	47449.39
747.55	47107.38
747.74	47465.77
747.92	46761.27
748.11	46882.10
748.29	47101.23
748.48	46935.35
748.66	46789.94
748.85	47004.98
749.03	47029.55
749.22	47148.34
749.41	46947.64
749.59	46748.98
749.78	46495.03
749.96	46329.15
750.15	46583.10
750.33	46689.59
750.52	46413.12
750.70	46845.24
750.89	46529.85
751.07	46206.27
751.26	46628.15
751.44	46558.52
751.63	46175.55
751.81	46226.75
752.00	46118.21
752.18	46179.65
752.37	46280.00
752.55	45563.21
752.74	46187.84
752.92	46150.98
753.10	46112.06
753.29	46280.00
753.47	46073.15
753.66	45901.12
753.84	46568.76
754.03	45958.47
754.21	46216.51
754.40	45663.56
754.58	46259.52
754.77	45868.36
754.95	45086.03
755.14	45409.61
755.32	45462.86
755.51	45401.42
755.69	45407.56
755.88	45393.23
756.06	45184.33
756.24	45835.59
756.43	45561.16
756.61	45573.45
756.80	45172.05
756.98	45071.70
757.17	44993.87
757.35	45425.99
757.54	45348.17
757.72	44852.56
757.90	45294.92
758.09	45188.43
758.27	44954.96
758.46	44782.93
758.64	45006.16
758.83	44940.63
759.01	45210.96
759.19	44881.24
759.38	44576.09
759.56	44963.15
759.75	44899.67
759.93	44711.25
760.12	44250.46
760.30	44834.13
760.48	44811.60
760.67	44393.82
760.85	44227.93
761.04	44696.92
761.22	44336.48
761.40	44381.53
761.59	44361.05
761.77	43849.06
761.96	44330.33
762.14	44117.34
762.32	43879.78
762.51	43912.55
762.69	43785.57
762.88	44180.83
763.06	44119.39
763.24	44041.57
763.43	44002.66
763.61	43648.36
763.80	43672.93
763.98	43709.80
764.16	43785.57
764.35	43124.08
764.53	43142.51
764.72	43711.84
764.90	43674.98
765.08	43500.90
765.27	43103.60
765.45	43179.37
765.63	42626.42
765.82	43328.87
766.00	42843.51
766.18	42708.34
766.37	43222.38
766.55	42820.98
766.74	42767.73
766.92	42319.23
767.10	42489.21
767.29	42718.58
767.47	42538.36
767.65	42761.59
767.84	42341.75
768.02	42087.81
768.20	42302.84
768.39	42196.35
768.57	42153.34
768.75	42374.52
768.94	42243.45
769.12	42231.16
769.30	42009.98
769.49	42306.94
769.67	41899.39
769.85	41657.73
770.04	41921.92
770.22	41905.54
770.40	41645.44
770.59	41606.53
770.77	41737.60
770.95	41921.92
771.14	41715.08
771.32	41354.63
771.50	41141.64
771.69	41239.95
771.87	41721.22
772.05	41170.32
772.24	41205.13
772.42	41016.72
772.60	41487.75
772.78	40828.30
772.97	41239.95
773.15	41344.39
773.33	40953.23
773.52	40879.50
773.70	41053.58
773.88	40953.23
774.07	40746.39
774.25	40883.60
774.43	40922.51
774.61	40770.96
774.80	41051.53
774.98	41053.58
775.16	41026.96
775.34	40992.14
775.53	40697.24
775.71	41121.16
775.89	41112.97
776.08	40566.16
776.26	41217.42
776.44	40836.50
776.62	40834.45
776.81	40596.88
776.99	41135.50
777.17	40631.70
777.35	40670.61
777.54	40957.33
777.72	40725.91
777.90	40478.10
778.08	41147.79
778.27	40936.85
778.45	41301.39
778.63	40949.14
778.81	40736.15
779.00	41354.63
779.18	41196.94
779.36	41442.70
779.54	41192.84
779.73	41035.15
779.91	41457.03
780.09	41612.68
780.27	41149.84
780.46	41147.79
780.64	41424.26
780.82	40953.23
781.00	41287.05
781.19	41538.95
781.37	41117.07
781.55	41203.08
781.73	41885.06
781.91	41598.34
782.10	41336.20
782.28	41106.83
782.46	41520.52
782.64	40998.29
782.82	41198.99
783.01	41457.03
783.19	41457.03
783.37	41192.84
783.55	41469.32
783.74	41721.22
783.92	41350.54
784.10	41573.77
784.28	41207.18
784.46	41106.83
784.64	41250.19
784.83	41307.53
785.01	41151.88
785.19	41231.75
785.37	41426.31
785.55	41262.47
785.74	41072.01
785.92	40861.07
786.10	41043.34
786.28	40701.33
786.46	41141.64
786.64	40498.58
786.83	40961.42
787.01	40656.28
787.19	40902.03
787.37	40682.90
787.55	40678.80
787.74	40961.42
787.92	40609.17
788.10	40617.36
788.28	40295.83
788.46	40476.05
788.64	39863.71
788.82	40379.80
789.01	40320.41
789.19	40424.86
789.37	39925.15
789.55	40033.69
789.73	39800.22
789.91	39769.51
790.09	39792.03
790.28	39990.69
790.46	39699.87
790.64	40195.48
790.82	39925.15
791.00	39689.63
791.18	39454.12
791.36	39404.97
791.55	39577.00
791.73	39546.28
791.91	39208.36
792.09	39296.42
792.27	39097.77
792.45	39378.34
792.63	39163.31
792.81	38950.32
793.00	39327.14
793.18	38761.90
793.36	38528.44
793.54	38925.74
793.72	38542.77
793.90	38634.93
794.08	38217.14
794.26	38546.87
794.44	37762.50
794.62	38036.92
794.81	38008.25
794.99	37920.19
795.17	37920.19
795.35	37799.36
795.53	37778.88
795.71	37854.65
795.89	37440.96
796.07	37473.73
796.25	37295.56
796.43	37467.59
796.61	36924.88
796.80	37158.34
796.98	37168.58
797.16	36971.98
797.34	37107.15
797.52	36500.95
797.70	37012.94
797.88	36511.19
798.06	36257.24
798.24	36214.23
798.42	36302.29
798.60	36404.69
798.78	36507.09
798.96	36302.29
799.14	36341.21
799.32	36416.98
799.51	35829.21
799.69	35665.38
799.87	35915.23
800.05	35679.71
800.23	35999.19
800.41	35810.78
800.59	35562.98
800.77	35096.04
800.95	35020.27
801.13	35573.22
801.31	34870.76
801.49	35415.52
801.67	34809.32
801.85	34715.12
802.03	34678.25
802.21	34700.78
802.39	34412.02
802.57	34907.63
802.75	34854.38
802.93	34182.65
803.11	34397.68
803.29	34323.96
803.47	34371.06
803.65	34786.80
803.83	34188.79
804.01	34248.18
804.19	33570.30
804.37	33816.06
804.55	33967.61
804.73	33785.34
804.91	33748.48
805.09	33629.69
805.27	33541.63
805.45	33408.51
805.63	33404.42
805.81	33406.47
805.99	33338.88
806.17	33527.30
806.35	33351.17
806.53	32704.01
806.71	32914.95
806.89	33064.46
807.07	33191.43
807.25	33117.70
807.43	32884.23
807.61	33019.40
807.79	32550.42
807.97	32585.23
808.15	32730.64
808.33	32632.33
808.51	32232.98
808.69	32503.31
808.87	32034.33
809.05	32067.09
809.23	32015.90
809.41	31940.12
809.59	32046.62
809.77	32022.04
809.95	31764.00
810.13	31931.93
810.31	31569.44
810.49	31974.94
810.67	31702.56
810.84	31677.98
811.02	31200.80
811.20	31288.87
811.38	31618.59
811.56	31149.60
811.74	31299.11
811.92	31260.20
812.10	31495.71
812.28	31032.87
812.46	31227.43
812.64	31192.61
812.82	30764.59
813.00	30815.79
813.18	30981.67
813.36	30721.58
813.53	30946.86
813.71	30860.84
813.89	30793.26
814.07	30504.49
814.25	30561.84
814.43	30492.21
814.61	30326.32
814.79	30524.97
814.97	30209.59
815.15	30217.78
815.33	30326.32
815.50	30045.75
815.68	29943.35
815.86	30076.47
816.04	30015.03
816.22	30031.41
816.40	29759.03
816.58	29998.65
816.76	29793.85
816.94	29720.12
817.11	29668.92
817.29	30049.85
817.47	29855.29
817.65	29675.07
817.83	29343.30
818.01	29302.34
818.19	29488.70
818.37	29359.68
818.54	29263.43
818.72	29060.68
818.90	28995.14
819.08	28837.45
819.26	29238.85
819.44	28915.27
819.62	28796.49
819.80	28943.94
819.97	29201.99
820.15	29187.65
820.33	28892.74
820.51	29222.47
820.69	28577.36
820.87	28853.83
821.05	29341.25
821.22	28640.84
821.40	28845.64
821.58	28911.17
821.76	28575.31
821.94	28546.64
822.12	28403.28
822.29	28624.46
822.47	28350.03
822.65	28667.47
822.83	28241.49
823.01	28409.42
823.19	28354.13
823.36	28120.66
823.54	28030.55
823.72	28210.77
823.90	27997.78
824.08	27739.74
824.25	27960.92
824.43	27760.22
824.61	27981.40
824.79	27919.96
824.97	27682.39
825.15	27924.05
825.32	27549.28
825.50	27645.53
825.68	27614.81
825.86	27713.11
826.04	27909.72
826.21	27530.84
826.39	27506.27
826.57	27244.13
826.75	27383.39
826.93	27567.71
827.10	27477.60
827.28	27373.15
827.46	27616.86
827.64	27215.46
827.81	27237.98
827.99	27174.50
828.17	27063.91
828.35	26820.20
828.53	27301.47
828.70	27053.67
828.88	27192.93
829.06	27303.52
829.24	26818.15
829.41	27166.31
829.59	27164.26
829.77	26967.65
829.95	26914.41
830.12	26627.69
830.30	26932.84
830.48	26609.26
830.66	26805.86
830.84	26547.82
831.01	26756.71
831.19	26844.77
831.37	26705.51
831.55	26560.11
831.72	26699.37
831.90	26584.68
832.08	26582.63
832.25	26357.36
832.43	26558.06
832.61	26467.95
832.79	26240.62
832.96	26392.17
833.14	26400.37
833.32	26592.87
833.50	26435.18
833.67	26412.65
833.85	26510.96
834.03	26132.08
834.20	26031.73
834.38	25917.04
834.56	26105.46
834.74	25976.44
834.91	26013.30
835.09	26121.84
835.27	25663.10
835.44	26001.01
835.62	25650.81
835.80	25777.78
835.98	25845.37
836.15	25927.28
836.33	25683.58
836.51	25755.26
836.68	25648.76
836.86	25499.26
837.04	25843.32
837.21	25923.19
837.39	25714.30
837.57	25820.79
837.75	25513.59
837.92	25253.50
838.10	25042.56
838.28	25245.31
838.45	25302.65
838.63	25175.68
838.81	25407.10
838.98	25493.12
839.16	25347.71
839.34	25190.02
839.51	25106.05
839.69	24899.20
839.87	25165.44
840.04	24917.64
840.22	25175.68
840.40	24983.17
840.57	24712.84
840.75	24979.07
840.93	24569.48
841.10	24968.84
841.28	24989.31
841.46	24694.41
841.63	25013.89
841.81	24682.12
841.98	24995.46
842.16	25046.66
842.34	24850.05
842.51	24549.00
842.69	25007.75
842.87	24872.58
843.04	25089.67
843.22	24729.22
843.40	24444.56
843.57	24446.60
843.75	24555.15
843.92	24657.54
844.10	24669.83
844.28	24579.72
844.45	24569.48
844.63	24645.26
844.81	24075.92
844.98	24735.37
845.16	24272.53
845.33	24546.95
845.51	24186.51
845.69	24237.71
845.86	24350.35
846.04	24184.46
846.21	24266.38
846.39	23989.91
846.57	23957.14
846.74	24137.36
846.92	24245.90
847.09	24061.58
847.27	23860.88
847.45	23967.38
847.62	23944.85
847.80	24100.50
847.97	24149.65
848.15	23826.07
848.32	23746.20
848.50	23705.24
848.68	23621.27
848.85	23719.57
849.03	23791.25
849.20	23756.44
849.38	23496.35
849.56	23754.39
849.73	23484.06
849.91	24102.54
850.08	23529.11
850.26	23510.68
850.43	23430.81
850.61	23496.35
850.78	23363.23
850.96	23514.78
851.14	23430.81
851.31	23467.67
851.49	23099.04
851.66	23096.99
851.84	23506.59
852.01	23473.82
852.19	23244.45
852.36	23103.14
852.54	23363.23
852.71	22998.69
852.89	22904.48
853.07	23019.17
853.24	23144.09
853.42	22843.04
853.59	22933.15
853.77	23105.18
853.94	23115.42
854.12	23107.23
854.29	22822.56
854.47	22996.64
854.64	22695.59
854.82	22834.85
854.99	22998.69
855.17	22800.04
855.34	22857.38
855.52	23033.50
855.69	22939.30
855.87	22646.44
856.04	22550.18
856.22	22679.21
856.39	22556.33
856.57	22750.88
856.74	22415.02
856.92	22533.80
857.09	22484.65
857.27	22640.29
857.44	22722.21
857.62	22283.95
857.79	22517.42
857.97	22417.07
858.14	22529.70
858.32	22208.17
858.49	22122.16
858.67	22353.58
858.84	22247.08
859.02	22148.78
859.19	22214.32
859.37	22091.44
859.54	22208.17
859.72	22226.60
859.89	22066.86
860.06	22298.28
860.24	21968.56
860.41	22013.62
860.59	21872.31
860.76	21982.90
860.94	21540.54
861.11	21993.14
861.29	22046.38
861.46	22009.52
861.64	21378.75
861.81	21618.36
861.98	21884.59
862.16	21634.74
862.33	21642.93
862.51	21794.48
862.68	21771.96
862.86	21501.62
863.03	21771.96
863.21	21808.82
863.38	21513.91
863.55	21515.96
863.73	21495.48
863.90	21237.44
864.08	21491.38
864.25	21339.83
864.43	21384.89
864.60	21184.19
864.77	21081.79
864.95	21442.23
865.12	21249.72
865.30	21157.57
865.47	21161.66
865.64	21122.75
865.82	21122.75
865.99	21423.80
866.17	21128.89
866.34	21069.50
866.51	20954.82
866.69	21155.52
866.86	21069.50
867.04	20809.41
867.21	20862.66
867.38	20760.26
867.56	20604.61
867.73	20817.60
867.91	20707.01
868.08	20655.81
868.25	20522.69
868.43	20676.29
868.60	20477.64
868.78	20586.18
868.95	20526.79
869.12	20471.50
869.30	20559.56
869.47	20459.21
869.64	20328.14
869.82	20356.81
869.99	20352.71
870.16	20483.78
870.34	20336.33
870.51	20154.06
870.69	20086.48
870.86	20072.14
871.03	20188.88
871.21	19936.98
871.38	20154.06
871.55	19932.88
871.73	19943.12
871.90	19799.76
872.07	19752.66
872.25	19629.78
872.42	19584.73
872.59	19787.47
872.77	19627.73
872.94	19918.54
873.11	19558.10
873.29	19377.88
873.46	19455.70
873.63	19488.47
873.81	19255.00
873.98	19216.09
874.15	19379.93
874.33	19175.13
874.50	19236.57
874.67	19488.47
874.85	19347.16
875.02	19250.91
875.19	19050.21
875.37	19136.22
875.54	19099.36
875.71	19095.26
875.88	18972.38
876.06	19119.84
876.23	18900.70
876.40	18802.40
876.58	19101.40
876.75	18794.21
876.92	18857.70
877.10	18949.85
877.27	18743.01
877.44	18675.43
877.61	18534.12
877.79	18532.07
877.96	18712.29
878.13	18237.16
878.31	18622.18
878.48	18259.69
878.65	18376.42
878.82	18210.54
879.00	18362.09
879.17	18128.62
879.34	18239.21
879.51	18136.81
879.69	17999.60
879.86	17964.78
880.03	17878.77
880.21	17757.94
880.38	18132.72
880.55	17891.06
880.72	17772.27
880.90	17960.69
881.07	17983.21
881.24	17669.87
881.41	17817.33
881.59	17682.16
881.76	17792.75
881.93	17723.12
882.10	17581.81
882.28	17559.28
882.45	17866.48
882.62	17469.17
882.79	17790.70
882.96	17301.24
883.14	17688.31
883.31	17655.54
883.48	17649.39
883.65	17659.63
883.83	17673.97
884.00	17311.48
884.17	17465.08
884.34	17440.50
884.51	17264.38
884.69	17606.39
884.86	17407.73
885.03	17166.07
885.20	17342.20
885.38	17522.42
885.55	17280.76
885.72	17293.05
885.89	17073.92
886.06	17270.52
886.24	17098.49
886.41	16783.10
886.58	17297.14
886.75	17288.95
886.92	16901.89
887.10	17024.76
887.27	16776.96
887.44	17067.77
887.61	17106.68
887.78	17151.74
887.95	16934.65
888.13	16789.25
888.30	16733.95
888.47	16563.97
888.64	16672.51
888.81	16611.07
888.99	16555.78
889.16	16594.69
889.33	16428.81
889.50	16502.53
889.67	16502.53
889.84	16310.02
890.01	16590.59
890.19	16424.71
890.36	16598.79
890.53	16502.53
890.70	16348.93
890.87	16154.38
891.04	16031.50
891.22	16271.11
891.39	16193.29
891.56	16015.12
891.73	16301.83
891.90	16111.37
892.07	15630.10
892.24	16135.95
892.42	16068.36
892.59	15949.58
892.76	15810.32
892.93	15802.13
893.10	16219.91
893.27	15974.16
893.44	15972.11
893.61	15900.43
893.79	16185.10
893.96	15775.50
894.13	16068.36
894.30	15755.02
894.47	16045.84
894.64	16084.75
894.81	15867.66
894.98	15963.92
895.15	15970.06
895.33	15619.86
895.50	15795.98
895.67	15755.02
895.84	15638.29
896.01	15642.39
896.18	15589.14
896.35	15976.20
896.52	15640.34
896.69	15503.12
896.86	15871.76
897.04	15685.39
897.21	15582.99
897.38	15341.33
897.55	15464.21
897.72	15632.15
897.89	15677.20
898.06	15548.18
898.23	15464.21
898.40	15595.28
898.57	15529.75
898.74	15535.89
898.91	15515.41
899.08	15820.56
899.26	15421.20
899.43	15728.40
899.60	15439.64
899.77	15519.51
899.94	15314.71
900.11	15314.71
900.28	15503.12
900.45	15216.41
900.62	15159.06
900.79	15537.94
900.96	15492.88
901.13	15331.09
901.30	15298.33
901.47	15302.42
901.64	15294.23
901.81	15347.48
901.98	15191.83
902.15	15445.78
902.32	15204.12
902.49	15306.52
902.66	15310.61
902.83	15425.30
903.01	15359.77
903.18	15288.09
903.35	15421.20
903.52	15245.08
903.69	15361.81
903.86	15476.50
904.03	15261.46
904.20	15265.56
904.37	15691.54
904.54	15464.21
904.71	15337.24
904.88	15435.54
905.05	15212.31
905.22	15400.72
905.39	15275.80
905.56	15251.22
905.73	15073.05
905.90	15150.87
906.07	15150.87
906.24	15122.20
906.41	15404.82
906.58	15286.04
906.75	15251.22
906.92	15007.52
907.09	15087.39
907.26	15152.92
907.43	15005.47
907.60	15013.66
907.77	15114.01
907.93	15189.78
908.10	15191.83
908.27	15245.08
908.44	15048.47
908.61	14896.92
908.78	15042.33
908.95	15146.78
909.12	15066.91
909.29	14997.28
909.46	14841.63
909.63	15212.31
909.80	15177.50
909.97	14958.36
910.14	14970.65
910.31	14905.12
910.48	14749.47
910.65	14987.04
910.82	14984.99
910.99	14894.88
911.16	14821.15
911.33	14948.12
911.50	14669.60
911.66	14815.01
911.83	14749.47
912.00	14567.20
912.17	14556.96
912.34	14917.40
912.51	14655.26
912.68	14714.66
912.85	14475.04
913.02	14561.06
913.19	14522.15
913.36	14702.37
913.53	14669.60
913.70	14419.75
913.86	14655.26
914.03	14497.57
914.20	14354.21
914.37	14616.35
914.54	14434.08
914.71	14372.64
914.88	14264.10
915.05	14380.84
915.22	14026.54
915.39	14260.01
915.55	14022.44
915.72	14020.39
915.89	14155.56
916.06	14065.45
916.23	13997.87
916.40	13958.96
916.57	13735.73
916.74	13811.50
916.91	13825.84
917.07	13682.48
917.24	13786.93
917.41	13958.96
917.58	13731.63
917.75	13754.16
917.92	13578.03
918.09	13692.72
918.26	13465.39
918.42	13487.92
918.59	13692.72
918.76	13428.53
918.93	13295.41
919.10	13217.59
919.27	13412.15
919.44	13524.79
919.60	13330.23
919.77	13436.72
919.94	13076.28
920.11	13201.21
920.28	13180.73
920.45	12996.41
920.61	12885.82
920.78	12986.17
920.95	13225.78
921.12	12906.30
921.29	12734.27
921.46	12896.06
921.62	12617.54
921.79	12777.28
921.96	12535.62
922.13	12420.93
922.30	12433.22
922.47	12390.21
922.63	12334.92
922.80	12404.55
922.97	12216.13
923.14	12115.78
923.31	12236.61
923.47	12177.22
923.64	12347.20
923.81	12068.68
923.98	12220.23
924.15	12058.44
924.32	12015.43
924.48	12021.58
924.65	11980.62
924.82	11896.65
924.99	11878.22
925.15	11876.17
925.32	11751.24
925.49	11620.17
925.66	11659.09
925.83	11503.44
925.99	11575.12
926.16	11698.00
926.33	11523.92
926.50	11505.49
926.67	11579.22
926.83	11398.99
927.00	11351.89
927.17	11292.50
927.34	11102.04
927.50	11300.69
927.67	11532.11
927.84	11071.32
928.01	10917.72
928.17	11226.96
928.34	11001.69
928.51	10938.20
928.68	10809.18
928.84	10874.71
929.01	10700.64
929.18	10600.29
929.35	10717.02
929.51	10583.90
929.68	10397.54
929.85	10420.06
930.02	10565.47
930.18	10456.93
930.35	10323.81
930.52	10237.80
930.69	10360.67
930.85	10286.95
931.02	10071.91
931.19	10194.79
931.36	10114.92
931.52	10178.40
931.69	10243.94
931.86	10020.71
932.02	9795.43
932.19	9850.73
932.36	9885.55
932.53	9889.64
932.69	9686.89
932.86	9908.07
933.03	9746.28
933.19	9539.44
933.36	9781.10
933.53	9652.08
933.70	9650.03
933.86	9518.96
934.03	9467.76
934.20	9394.03
934.36	9500.53
934.53	9109.36
934.70	9205.62
934.86	9142.13
935.03	8984.44
935.20	8912.76
935.36	8888.18
935.53	8828.79
935.70	8873.85
935.86	8861.56
936.03	8793.98
936.20	8464.25
936.36	8333.18
936.53	8437.63
936.70	8566.65
936.86	8513.41
937.03	8232.83
937.20	8185.73
937.36	8202.11
937.53	7745.42
937.70	7686.03
937.86	7739.27
938.03	7675.79
938.20	7782.28
938.36	7643.02
938.53	7702.41
938.70	7266.19
938.86	7550.86
939.03	7341.97
939.20	7167.89
939.36	7262.10
939.53	7069.59
939.70	7155.60
939.86	6733.72
940.03	6952.85
940.19	6748.06
940.36	6557.60
940.53	6674.33
940.69	6573.98
940.86	6414.24
941.03	6377.37
941.19	6205.35
941.36	6272.93
941.52	6246.30
941.69	6360.99
941.86	6094.76
942.02	5998.50
942.19	6170.53
942.35	6008.74
942.52	5920.68
942.69	5953.45
942.85	5896.10
943.02	5750.70
943.18	5722.02
943.35	5722.02
943.52	5564.33
943.68	5564.33
943.85	5584.81
944.01	5582.76
944.18	5574.57
944.35	5662.63
944.51	5435.31
944.68	5345.20
944.84	5459.88
945.01	5300.14
945.17	5345.20
945.34	5369.77
945.51	5300.14
945.67	5431.21
945.84	5328.81
946.00	5289.90
946.17	5312.43
946.33	5246.90
946.50	5191.60
946.67	5167.03
946.83	5197.74
947.00	5238.70
947.16	5312.43
947.33	5164.98
947.49	5222.32
947.66	5314.48
947.82	5230.51
947.99	5023.67
948.16	5150.64
948.32	5136.31
948.49	5173.17
948.65	5218.22
948.82	5146.55
948.98	5351.34
949.15	5230.51
949.31	5181.36
949.48	5294.00
949.64	5052.34
949.81	5250.99
949.97	5113.78
950.14	5277.62
950.30	5246.90
950.47	5261.23
950.63	5226.42
950.80	5287.86
950.96	5279.66
951.13	5107.63
951.30	5205.94
951.46	5427.12
951.63	5312.43
951.79	5328.81
951.96	5242.80
952.12	5308.34
952.29	5087.15
952.45	5134.26
952.62	5308.34
952.78	5351.34
952.94	5203.89
953.11	5220.27
953.27	5228.46
953.44	5390.25
953.60	5250.99
953.77	5353.39
953.93	5353.39
954.10	5240.75
954.26	5242.80
954.43	5257.14
954.59	5515.18
954.76	5519.28
954.92	5136.31
955.09	5320.62
955.25	5253.04
955.42	5337.01
955.58	5535.66
955.75	5394.35
955.91	5416.88
956.07	5439.40
956.24	5506.99
956.40	5402.54
956.57	5353.39
956.73	5412.78
956.90	5392.30
957.06	5451.69
957.23	5310.38
957.39	5425.07
957.56	5357.49
957.72	5341.10
957.88	5324.72
958.05	5357.49
958.21	5394.35
958.38	5367.73
958.54	5332.91
958.71	5480.36
958.87	5279.66
959.03	5545.90
959.20	5396.40
959.36	5357.49
959.53	5423.02
959.69	5345.20
959.85	5345.20
960.02	5238.70
960.18	5373.87
960.35	5351.34
960.51	5429.17
960.68	5353.39
960.84	5322.67
961.00	5373.87
961.17	5191.60
961.33	5420.97
961.50	5261.23
961.66	5349.29
961.82	5388.21
961.99	5380.01
962.15	5314.48
962.31	5289.90
962.48	5312.43
962.64	5480.36
962.81	5433.26
962.97	5320.62
963.13	5232.56
963.30	5353.39
963.46	5298.10
963.62	5363.63
963.79	5326.77
963.95	5205.94
964.12	5216.18
964.28	5300.14
964.44	5179.31
964.61	5408.69
964.77	5275.57
964.93	5382.06
965.10	5255.09
965.26	5160.88
965.42	5214.13
965.59	5246.90
965.75	5216.18
965.92	5271.47
966.08	5228.46
966.24	5199.79
966.41	5144.50
966.57	5361.58
966.73	5173.17
966.90	5318.57
967.06	5111.73
967.22	5130.16
967.39	5203.89
967.55	5214.13
967.71	5070.77
967.88	5072.82
968.04	5128.11
968.20	5138.35
968.37	5130.16
968.53	5040.05
968.69	5179.31
968.85	5128.11
969.02	5005.24
969.18	4980.66
969.34	4992.95
969.51	5191.60
969.67	5130.16
969.83	5001.14
970.00	5140.40
970.16	4988.85
970.32	5097.39
970.48	5095.35
970.65	5025.72
970.81	5009.33
970.97	4927.41
971.14	5033.91
971.30	5070.77
971.46	4859.83
971.63	4976.56
971.79	4890.55
971.95	4833.21
972.11	4904.89
972.28	4995.00
972.44	4931.51
972.60	4853.69
972.76	4982.71
972.93	4898.74
973.09	4966.32
973.25	4849.59
973.42	4755.38
973.58	5050.29
973.74	4714.42
973.90	4872.12
974.07	4898.74
974.23	4769.72
974.39	4794.29
974.55	4810.68
974.72	4734.90
974.88	4689.85
975.04	4788.15
975.20	4786.10
975.37	4800.44
975.53	4753.34
975.69	4695.99
975.85	4730.81
976.01	4761.53
976.18	4648.89
976.34	4720.57
976.50	4706.23
976.66	4706.23
976.83	4624.31
976.99	4683.70
977.15	4632.51
977.31	4493.24
977.47	4661.18
977.64	4628.41
977.80	4698.04
977.96	4630.46
978.12	4601.79
978.29	4497.34
978.45	4458.43
978.61	4507.58
978.77	4632.51
978.93	4569.02
979.10	4433.85
979.26	4540.35
979.42	4626.36
979.58	4419.52
979.74	4409.28
979.91	4601.79
980.07	4308.93
980.23	4534.20
980.39	4239.30
980.55	4478.91
980.71	4509.63
980.88	4368.32
981.04	4325.31
981.20	4360.13
981.36	4370.37
981.52	4390.84
981.68	4255.68
981.85	4442.04
982.01	4403.13
982.17	4229.06
982.33	4270.01
982.49	4392.89
982.65	4169.66
982.82	4235.20
982.98	4224.96
983.14	4169.66
983.30	4356.03
983.46	4249.54
983.62	4212.67
983.79	4159.42
983.95	4208.58
984.11	4048.83
984.27	4124.61
984.43	4235.20
984.59	4200.38
984.75	4169.66
984.91	4190.14
985.08	4241.34
985.24	3975.11
985.40	4114.37
985.56	4044.74
985.72	4161.47
985.88	4122.56
986.04	4134.85
986.20	4079.55
986.37	4054.98
986.53	3979.20
986.69	4124.61
986.85	4050.88
987.01	3864.52
987.17	4106.18
987.33	3938.24
987.49	4097.99
987.65	4067.27
987.82	4030.40
987.98	3831.75
988.14	3964.87
988.30	4011.97
988.46	3876.80
988.62	3964.87
988.78	3936.20
988.94	3952.58
989.10	3870.66
989.26	3801.03
989.42	3801.03
989.59	3706.82
989.75	3788.74
989.91	3764.17
990.07	3755.97
990.23	3723.21
990.39	3776.45
990.55	3782.60
990.71	3735.50
990.87	3782.60
991.03	3788.74
991.19	3704.78
991.35	3684.30
991.51	3833.80
991.67	3764.17
991.83	3788.74
992.00	3715.02
992.16	3776.45
992.32	3762.12
992.48	3712.97
992.64	3682.25
992.80	3715.02
992.96	3653.58
993.12	3590.09
993.28	3651.53
993.44	3629.00
993.60	3698.63
993.76	3629.00
993.92	3665.86
994.08	3708.87
994.24	3633.10
994.40	3663.82
994.56	3649.48
994.72	3514.31
994.88	3598.28
995.04	3540.94
995.20	3575.75
995.36	3540.94
995.52	3518.41
995.68	3499.98
995.84	3403.72
996.00	3692.49
996.16	3438.54
996.32	3444.68
996.48	3387.34
996.64	3461.07
996.80	3426.25
996.96	3446.73
997.12	3459.02
997.28	3375.05
997.44	3330.00
997.60	3401.68
997.76	3428.30
997.92	3510.22
998.08	3471.31
998.24	3260.37
998.40	3385.29
998.56	3510.22
998.72	3270.61
998.88	3184.59
999.04	3252.17
999.20	3379.15
999.36	3350.48
999.52	3444.68
999.68	3301.33
999.84	3280.85
1000.00	3354.57
1000.16	3313.61
1000.32	3198.93
1000.48	3299.28
1000.64	3092.43
1000.80	3198.93
1000.95	3041.23
1001.11	3305.42
1001.27	3166.16
1001.43	3276.75
1001.59	3225.55
1001.75	3182.54
1001.91	3155.92
1002.07	3114.96
1002.23	3248.08
1002.39	3160.02
1002.55	3272.65
1002.71	3088.34
1002.87	3084.24
1003.03	3086.29
1003.19	3149.78
1003.34	3039.19
1003.50	3164.11
1003.66	3092.43
1003.82	3248.08
1003.98	3043.28
1004.14	3170.26
1004.30	3096.53
1004.46	2998.23
1004.62	3065.81
1004.78	2981.84
1004.94	3051.47
1005.09	3076.05
1005.25	3069.91
1005.41	2922.45
1005.57	2992.08
1005.73	2992.08
1005.89	2897.88
1006.05	3006.42
1006.21	2965.46
1006.37	2944.98
1006.52	2901.97
1006.68	2826.20
1006.84	3090.38
1007.00	2826.20
1007.16	2959.31
1007.32	2836.44
1007.48	2856.92
1007.64	2949.08
1007.79	2807.77
1007.95	2834.39
1008.11	2891.73
1008.27	2885.59
1008.43	2897.88
1008.59	2787.29
1008.75	2940.88
1008.91	2881.49
1009.06	2785.24
1009.22	2875.35
1009.38	2928.60
1009.54	2944.98
1009.70	2729.94
1009.86	2852.82
1010.01	2822.10
1010.17	2754.52
1010.33	2783.19
1010.49	2729.94
1010.65	2877.40
1010.81	2742.23
1010.96	2762.71
1011.12	2643.93
1011.28	2695.13
1011.44	2797.53
1011.60	2721.75
1011.76	2645.98
1011.91	2822.10
1012.07	2682.84
1012.23	2680.79
1012.39	2725.85
1012.55	2658.26
1012.71	2650.07
1012.86	2670.55
1013.02	2668.50
1013.18	2590.68
1013.34	2711.51
1013.50	2670.55
1013.65	2719.70
1013.81	2482.14
1013.97	2715.61
1014.13	2596.82
1014.29	2590.68
1014.44	2674.65
1014.60	2564.06
1014.76	2588.63
1014.92	2570.20
1015.07	2637.78
1015.23	2566.10
1015.39	2490.33
1015.55	2467.80
1015.71	2535.39
1015.86	2531.29
1016.02	2473.95
1016.18	2420.70
1016.34	2432.99
1016.49	2539.48
1016.65	2545.63
1016.81	2545.63
1016.97	2521.05
1017.12	2574.30
1017.28	2404.32
1017.44	2365.40
1017.60	2529.24
1017.75	2531.29
1017.91	2494.43
1018.07	2516.95
1018.23	2508.76
1018.38	2353.12
1018.54	2389.98
1018.70	2510.81
1018.86	2418.65
1019.01	2484.19
1019.17	2473.95
1019.33	2400.22
1019.49	2465.75
1019.64	2492.38
1019.80	2510.81
1019.96	2496.47
1020.12	2500.57
1020.27	2424.80
1020.43	2326.49
1020.59	2373.60
1020.74	2385.88
1020.90	2463.71
1021.06	2326.49
1021.22	2418.65
1021.37	2377.69
1021.53	2318.30
1021.69	2355.16
1021.84	2320.35
1022.00	2289.63
1022.16	2232.29
1022.31	2328.54
1022.47	2308.06
1022.63	2367.45
1022.79	2232.29
1022.94	2283.49
1023.10	2357.21
1023.26	2217.95
1023.41	2281.44
1023.57	2277.34
1023.73	2248.67
1023.88	2367.45
1024.04	2260.96
1024.20	2222.05
1024.35	2369.50
1024.51	2308.06
1024.67	2174.94
1024.82	2342.88
1024.98	2197.47
1025.14	2267.10
1025.29	2236.38
1025.45	2267.10
1025.61	2197.47
1025.76	2230.24
1025.92	2236.38
1026.08	2246.62
1026.23	2265.05
1026.39	2232.29
1026.55	2129.89
1026.70	2123.74
1026.86	2181.09
1027.02	2213.85
1027.17	2211.81
1027.33	2158.56
1027.48	2201.57
1027.64	2133.98
1027.80	2166.75
1027.95	2189.28
1028.11	2004.96
1028.27	2203.61
1028.42	2166.75
1028.58	2123.74
1028.73	2078.69
1028.89	2009.06
1029.05	2164.70
1029.20	2170.85
>>>>>End Processed Spectral Data<<<<<
