SpectraSuite Data File
++++++++++++++++++++++++++++++++++++
Date: Fri Jun 02 14:47:55 CEST 2017
User: INFO_000
Dark Spectrum Present: No
Reference Spectrum Present: No
Number of Sampled Component Spectra: 1
Spectrometers: USB4H00879
Integration Time (usec): 80000 (USB4H00879)
Spectra Averaged: 1 (USB4H00879)
Boxcar Smoothing: 0 (USB4H00879)
Correct for Electrical Dark: No (USB4H00879)
Strobe/Lamp Enabled: No (USB4H00879)
Correct for Detector Non-linearity: No (USB4H00879)
Correct for Stray Light: No (USB4H00879)
Number of Pixels in Processed Spectrum: 3648
>>>>>Begin Processed Spectral Data<<<<<
345.13	1318.89
345.34	1318.89
345.56	1318.89
345.78	1169.39
345.99	1327.08
346.21	1638.38
346.42	1703.91
346.64	1673.19
346.86	1785.83
347.07	1644.52
347.29	1697.77
347.50	1667.05
347.72	1699.81
347.94	1830.88
348.15	1533.93
348.37	1523.69
348.59	1738.73
348.80	1640.42
349.02	1814.50
349.23	1863.65
349.45	1806.31
349.67	1898.47
349.88	1824.74
350.10	1959.91
350.31	1828.84
350.53	1802.21
350.75	1984.48
350.96	1769.44
351.18	1855.46
351.39	1859.56
351.61	1804.26
351.82	1902.56
352.04	1875.94
352.26	1826.79
352.47	1859.56
352.69	1966.05
352.90	1798.12
353.12	1892.32
353.34	1796.07
353.55	1943.52
353.77	1935.33
353.98	1832.93
354.20	1798.12
354.41	1912.80
354.63	1947.62
354.85	2017.25
355.06	1949.67
355.28	1791.97
355.49	1970.15
355.71	1877.99
355.92	1918.95
356.14	1933.28
356.35	1910.75
356.57	1834.98
356.79	1957.86
357.00	1896.42
357.22	2103.26
357.43	1861.60
357.65	2004.96
357.86	1834.98
358.08	1951.71
358.29	2007.01
358.51	2015.20
358.72	1978.34
358.94	1968.10
359.16	1929.19
359.37	1900.52
359.59	1941.47
359.80	2000.87
360.02	1970.15
360.23	2074.59
360.45	2031.58
360.66	2031.58
360.88	1871.84
361.09	1978.34
361.31	1908.71
361.52	1980.39
361.74	2009.06
361.95	2101.22
362.17	2019.30
362.38	2084.83
362.60	2140.13
362.81	1992.67
363.03	1986.53
363.24	1896.42
363.46	2000.87
363.67	2004.96
363.89	2023.39
364.10	1945.57
364.32	1978.34
364.53	1992.67
364.75	1976.29
364.96	2000.87
365.18	2021.35
365.39	1970.15
365.61	1957.86
365.82	2123.74
366.04	2101.22
366.25	1966.05
366.47	2113.50
366.68	2064.35
366.90	1964.00
367.11	2129.89
367.33	2080.74
367.54	2050.02
367.76	1970.15
367.97	2037.73
368.19	2039.78
368.40	2121.70
368.62	1961.95
368.83	1961.95
369.05	2105.31
369.26	1982.43
369.48	1931.23
369.69	2033.63
369.91	2097.12
370.12	2062.30
370.33	2088.93
370.55	1976.29
370.76	2007.01
370.98	2127.84
371.19	2099.17
371.41	1931.23
371.62	1990.63
371.84	2017.25
372.05	2168.80
372.27	2058.21
372.48	2080.74
372.69	2060.26
372.91	2197.47
373.12	2115.55
373.34	2078.69
373.55	2154.46
373.77	2144.22
373.98	2082.78
374.20	2101.22
374.41	2168.80
374.62	2144.22
374.84	2217.95
375.05	2199.52
375.27	2109.41
375.48	2121.70
375.70	2162.66
375.91	2256.86
376.12	2283.49
376.34	2121.70
376.55	2256.86
376.77	2230.24
376.98	2076.64
377.19	2080.74
377.41	2140.13
377.62	2205.66
377.84	2127.84
378.05	2275.29
378.27	2162.66
378.48	2342.88
378.69	2340.83
378.91	2260.96
379.12	2203.61
379.34	2187.23
379.55	2349.02
379.76	2324.44
379.98	2211.81
380.19	2174.94
380.41	2306.01
380.62	2269.15
380.83	2332.64
381.05	2189.28
381.26	2396.12
381.47	2129.89
381.69	2328.54
381.90	2383.84
382.12	2271.20
382.33	2293.72
382.54	2293.72
382.76	2303.96
382.97	2283.49
383.19	2197.47
383.40	2363.36
383.61	2254.81
383.83	2158.56
384.04	2355.16
384.25	2322.40
384.47	2363.36
384.68	2432.99
384.89	2375.64
385.11	2328.54
385.32	2381.79
385.54	2332.64
385.75	2330.59
385.96	2424.80
386.18	2365.40
386.39	2437.08
386.60	2412.51
386.82	2486.23
387.03	2467.80
387.24	2459.61
387.46	2461.66
387.67	2467.80
387.88	2469.85
388.10	2443.23
388.31	2469.85
388.52	2600.92
388.74	2486.23
388.95	2531.29
389.16	2480.09
389.38	2443.23
389.59	2535.39
389.80	2668.50
390.02	2568.15
390.23	2592.73
390.44	2617.30
390.66	2613.21
390.87	2547.67
391.08	2615.26
391.30	2693.08
391.51	2641.88
391.72	2717.65
391.94	2623.45
392.15	2590.68
392.36	2568.15
392.58	2576.34
392.79	2688.98
393.00	2701.27
393.22	2762.71
393.43	2775.00
393.64	2861.01
393.85	2844.63
394.07	2625.50
394.28	2709.46
394.49	2842.58
394.71	2787.29
394.92	2850.77
395.13	2713.56
395.35	2666.46
395.56	2637.78
395.77	2828.24
395.98	2633.69
396.20	2924.50
396.41	2791.38
396.62	2940.88
396.84	2813.91
397.05	2727.89
397.26	2820.05
397.47	2863.06
397.69	2910.16
397.90	2959.31
398.11	2772.95
398.32	2887.64
398.54	2854.87
398.75	2918.36
398.96	2865.11
399.18	3039.19
399.39	2938.84
399.60	2932.69
399.81	2887.64
400.03	2926.55
400.24	3157.97
400.45	3020.75
400.66	2987.99
400.88	2906.07
401.09	3145.68
401.30	3061.71
401.51	3100.62
401.73	3153.87
401.94	3121.10
402.15	3035.09
402.36	3172.30
402.58	3016.66
402.79	3108.82
403.00	3133.39
403.21	3209.17
403.43	3258.32
403.64	3164.11
403.85	3043.28
404.06	3213.26
404.27	3065.81
404.49	3196.88
404.70	3119.06
404.91	3291.09
405.12	3252.17
405.34	3319.76
405.55	3241.93
405.76	3166.16
405.97	3065.81
406.19	3313.61
406.40	3217.36
406.61	3311.57
406.82	3323.85
407.03	3203.02
407.25	3321.81
407.46	3424.20
407.67	3315.66
407.88	3536.84
408.09	3354.57
408.31	3393.48
408.52	3358.67
408.73	3270.61
408.94	3413.96
409.15	3442.64
409.37	3485.64
409.58	3534.79
409.79	3518.41
410.00	3577.80
410.21	3442.64
410.43	3481.55
410.64	3338.19
410.85	3459.02
411.06	3594.19
411.27	3631.05
411.48	3518.41
411.70	3579.85
411.91	3645.38
412.12	3674.06
412.33	3667.91
412.54	3545.03
412.76	3667.91
412.97	3723.21
413.18	3516.36
413.39	3600.33
413.60	3776.45
413.81	3676.10
414.03	3745.73
414.24	3631.05
414.45	3846.09
414.66	3524.55
414.87	3676.10
415.08	3684.30
415.30	3772.36
415.51	3823.56
415.72	3680.20
415.93	3737.54
416.14	3917.76
416.35	3733.45
416.56	3817.41
416.78	3772.36
416.99	3952.58
417.20	3872.71
417.41	3956.68
417.62	3893.19
417.83	3993.54
418.04	3901.38
418.26	3921.86
418.47	3848.13
418.68	4108.23
418.89	3903.43
419.10	4136.90
419.31	3930.05
419.52	4155.33
419.73	4075.46
419.95	4136.90
420.16	3925.96
420.37	3981.25
420.58	4138.94
420.79	3919.81
421.00	4083.65
421.21	4163.52
421.42	4014.02
421.63	4048.83
421.85	4173.76
422.06	4272.06
422.27	4077.51
422.48	3981.25
422.69	4216.77
422.90	4186.05
423.11	4267.97
423.32	4278.21
423.53	4411.32
423.75	4255.68
423.96	4442.04
424.17	4366.27
424.38	4601.79
424.59	4184.00
424.80	4419.52
425.01	4376.51
425.22	4304.83
425.43	4413.37
425.64	4665.27
425.85	4609.98
426.06	4497.34
426.28	4462.52
426.49	4405.18
426.70	4640.70
426.91	4569.02
427.12	4394.94
427.33	4681.66
427.54	4548.54
427.75	4716.47
427.96	4677.56
428.17	4642.75
428.38	4626.36
428.59	4779.96
428.80	4728.76
429.01	4743.10
429.23	4825.01
429.44	4894.65
429.65	5025.72
429.86	4851.64
430.07	4761.53
430.28	4747.19
430.49	4829.11
430.70	5040.05
430.91	5070.77
431.12	4927.41
431.33	5046.20
431.54	4937.65
431.75	4919.22
431.96	4990.90
432.17	5044.15
432.38	5025.72
432.59	5107.63
432.80	5193.65
433.01	5173.17
433.22	5253.04
433.43	5257.14
433.64	5263.28
433.85	5156.79
434.06	5332.91
434.27	5203.89
434.49	5212.08
434.70	5398.45
434.91	5517.23
435.12	5310.38
435.33	5384.11
435.54	5412.78
435.75	5255.09
435.96	5236.66
436.17	5353.39
436.38	5558.19
436.59	5517.23
436.80	5453.74
437.01	5713.83
437.22	5734.31
437.43	5683.11
437.64	5523.37
437.85	5783.46
438.06	5748.65
438.27	5717.93
438.48	5621.67
438.69	5951.40
438.90	5719.98
439.11	5541.80
439.32	5740.46
439.53	5771.18
439.74	5797.80
439.95	5939.11
440.16	5914.53
440.37	5740.46
440.57	5736.36
440.78	5869.48
440.99	6148.00
441.20	6088.61
441.41	5957.54
441.62	5955.49
441.83	5873.57
442.04	6123.43
442.25	5971.88
442.46	6096.80
442.67	6277.02
442.88	6526.88
443.09	5945.25
443.30	6225.82
443.51	6313.89
443.72	6404.00
443.93	6225.82
444.14	6598.56
444.35	6143.91
444.56	6440.86
444.77	6391.71
444.98	6578.08
445.19	6475.68
445.40	6385.57
445.61	6408.09
445.81	6678.43
446.02	6666.14
446.23	6502.30
446.44	6584.22
446.65	6594.46
446.86	6549.40
447.07	6614.94
447.28	6860.70
447.49	6739.87
447.70	6686.62
447.91	6719.39
448.12	6797.21
448.33	6893.46
448.54	6786.97
448.74	6662.04
448.95	6918.04
449.16	6786.97
449.37	6979.48
449.58	6895.51
449.79	6897.56
450.00	6807.45
450.21	6971.29
450.42	7018.39
450.63	7219.09
450.84	7012.24
451.05	7126.93
451.25	7135.12
451.46	6848.41
451.67	7260.05
451.88	7329.68
452.09	7208.85
452.30	7178.13
452.51	7268.24
452.72	7290.77
452.93	7554.96
453.13	7225.23
453.34	7120.79
453.55	7331.73
453.76	7327.63
453.97	7616.40
454.18	7423.89
454.39	7487.37
454.60	7585.68
454.81	7573.39
455.01	7536.52
455.22	7442.32
455.43	7673.74
455.64	7802.76
455.85	7739.27
456.06	7903.11
456.27	7663.50
456.48	7802.76
456.68	7923.59
456.89	7741.32
457.10	7890.82
457.31	7942.02
457.52	7757.71
457.73	8046.47
457.94	8173.44
458.14	8030.09
458.35	8142.72
458.56	8109.96
458.77	8075.14
458.98	8241.03
459.19	8052.61
459.39	8263.55
459.60	8402.82
459.81	8296.32
460.02	8449.92
460.23	8265.60
460.44	8464.25
460.65	8380.29
460.85	8417.15
461.06	8777.59
461.27	8329.09
461.48	8765.31
461.69	8632.19
461.89	8492.93
462.10	8767.35
462.31	8513.41
462.52	8777.59
462.73	8578.94
462.94	8843.13
463.14	8923.00
463.35	8818.55
463.56	9222.00
463.77	9183.09
463.98	8879.99
464.18	8746.87
464.39	9285.49
464.60	9443.18
464.81	9168.76
465.02	9355.12
465.23	9529.20
465.43	9359.22
465.64	9496.43
465.85	9553.77
466.06	9541.49
466.27	9652.08
466.47	9641.84
466.68	9736.04
466.89	9903.98
467.10	9938.79
467.30	9789.29
467.51	9914.22
467.72	10159.97
467.93	9633.64
468.14	10067.81
468.34	10248.04
468.55	10235.75
468.76	10196.84
468.97	10100.58
469.17	10487.65
469.38	10526.56
469.59	10657.63
469.80	10534.75
470.01	10518.37
470.21	10559.33
470.42	10790.75
470.63	10819.42
470.84	10749.79
471.04	11218.77
471.25	11143.00
471.46	11020.12
471.67	11442.00
471.87	11267.92
472.08	11429.71
472.29	11616.08
472.50	11239.25
472.70	11452.24
472.91	11493.20
473.12	11775.82
473.33	11890.51
473.53	12138.31
473.74	11894.60
473.95	12199.75
474.16	11966.28
474.36	12232.52
474.57	12392.26
474.78	12552.00
474.99	12443.46
475.19	12232.52
475.40	12566.34
475.61	12808.00
475.81	12971.83
476.02	13057.85
476.23	12916.54
476.44	13119.29
476.64	13461.30
476.85	13584.18
477.06	13365.04
477.27	13682.48
477.47	13778.73
477.68	13655.86
477.89	13807.41
478.09	13776.69
478.30	14053.16
478.51	14036.78
478.71	14331.69
478.92	14335.78
479.13	14540.58
479.34	14567.20
479.54	14468.90
479.75	14577.44
479.96	14733.09
480.16	15030.04
480.37	15079.19
480.58	15195.93
480.78	15494.93
480.99	15408.92
481.20	15591.19
481.41	15582.99
481.61	15576.85
481.82	15814.41
482.03	15720.21
482.23	15740.69
482.44	16146.19
482.65	16404.23
482.85	16340.74
483.06	16328.45
483.27	16185.10
483.47	16285.45
483.68	16443.14
483.89	16326.41
484.09	16629.51
484.30	16703.23
484.51	17143.55
484.71	16930.56
484.92	16973.56
485.13	17204.99
485.33	17366.78
485.54	17436.41
485.75	17712.88
485.95	17915.63
486.16	17784.56
486.37	17952.49
486.57	17794.80
486.78	17964.78
486.98	17915.63
487.19	18052.84
487.40	18126.57
487.60	18458.34
487.81	18642.66
488.02	18466.53
488.22	18626.28
488.43	18585.32
488.64	18519.78
488.84	18740.96
489.05	18810.59
489.25	18597.60
489.46	19144.41
489.67	19128.03
489.87	19381.98
490.08	19492.57
490.29	19435.22
490.49	19711.70
490.70	19467.99
490.90	19963.60
491.11	19492.57
491.32	19957.46
491.52	19840.72
491.73	19781.33
491.94	19941.07
492.14	20379.34
492.35	20049.61
492.55	20510.41
492.76	20229.84
492.97	20641.48
493.17	20616.90
493.38	20915.90
493.58	20883.14
493.79	20895.43
494.00	20690.63
494.20	21020.35
494.41	20971.20
494.61	21290.68
494.82	21225.15
495.02	21212.86
495.23	21196.48
495.44	21325.50
495.64	21472.95
495.85	21698.23
496.05	21741.24
496.26	21554.87
496.47	22023.86
496.67	21423.80
496.88	22044.34
497.08	21655.22
497.29	21898.93
497.49	22093.49
497.70	22144.69
497.91	22177.45
498.11	22056.62
498.32	22136.49
498.52	22324.91
498.73	22769.32
498.93	22539.94
499.14	22832.80
499.34	22701.73
499.55	22818.47
499.76	22513.32
499.96	22724.26
500.17	22611.62
500.37	22863.52
500.58	23088.80
500.78	22828.71
500.99	22935.20
501.19	23445.15
501.40	23125.66
501.60	23305.88
501.81	23256.73
502.02	23326.36
502.22	23166.62
502.43	23144.09
502.63	23666.33
502.84	23522.97
503.04	23520.92
503.25	23705.24
503.45	23924.37
503.66	23692.95
503.86	23899.80
504.07	24086.16
504.27	23770.77
504.48	24184.46
504.68	24049.30
504.89	24198.80
505.09	23881.36
505.30	24022.67
505.50	24467.08
505.71	24340.11
505.91	24573.58
506.12	24553.10
506.32	24286.86
506.53	24714.89
506.73	24645.26
506.94	24651.40
507.14	24675.98
507.35	24999.55
507.55	25245.31
507.76	24796.81
507.96	24800.90
508.17	25046.66
508.37	25083.52
508.58	25292.41
508.78	25140.86
508.99	25603.71
509.19	25271.93
509.40	25370.24
509.60	25577.08
509.81	25464.44
510.01	25161.34
510.22	25435.77
510.42	25603.71
510.63	25837.17
510.83	25470.59
511.04	25679.48
511.24	26097.27
511.44	26015.35
511.65	26080.88
511.85	26058.35
512.06	25925.24
512.26	25986.68
512.47	26357.36
512.67	26508.91
512.88	26173.04
513.08	25972.34
513.29	26738.28
513.49	26197.62
513.69	26652.27
513.90	26500.72
514.10	26527.34
514.31	26775.14
514.51	26932.84
514.72	27135.59
514.92	26785.38
515.13	27059.81
515.33	26861.16
515.53	27031.14
515.74	27235.94
515.94	27506.27
516.15	27606.62
516.35	27508.32
516.56	27414.11
516.76	27743.83
516.96	27436.64
517.17	27758.17
517.37	27893.33
517.58	27954.77
517.78	27905.62
517.99	27606.62
518.19	28059.22
518.39	28333.65
518.60	28474.96
518.80	28137.04
519.01	28204.63
519.21	28638.80
519.41	28798.54
519.62	28511.82
519.82	28671.56
520.03	28706.38
520.23	28894.79
520.43	28857.93
520.64	29259.33
520.84	29191.75
521.05	29169.22
521.25	29263.43
521.45	29474.37
521.66	29466.17
521.86	29533.76
522.07	29533.76
522.27	29888.06
522.47	29808.19
522.68	29890.10
522.88	29781.56
523.08	30244.40
523.29	29998.65
523.49	30531.12
523.70	30049.85
523.90	30518.83
524.10	30619.18
524.31	30869.03
524.51	30449.20
524.71	30858.79
524.92	31057.45
525.12	31184.42
525.33	31036.97
525.53	31594.01
525.73	31684.12
525.94	31772.19
526.14	31565.34
526.34	31870.49
526.55	31546.91
526.75	31804.95
526.95	32048.66
527.16	31692.32
527.36	32390.67
527.56	32366.10
527.77	32335.38
527.97	32245.27
528.17	32421.39
528.38	32564.75
528.58	32710.16
528.78	32761.36
528.99	32388.63
529.19	32767.50
529.39	32685.58
529.60	33308.16
529.80	33302.02
530.00	33105.41
530.21	33545.73
530.41	33875.45
530.61	33596.93
530.82	33893.88
531.02	33748.48
531.22	33949.18
531.43	33707.52
531.63	34127.35
531.83	34616.82
532.04	34264.57
532.24	34311.67
532.44	34711.02
532.64	34717.17
532.85	34969.07
533.05	34588.14
533.25	34643.44
533.46	34899.44
533.66	35304.93
533.86	34770.41
534.07	35524.07
534.27	35218.92
534.47	35311.08
534.67	35610.08
534.88	35182.06
535.08	35720.67
535.28	35687.90
535.49	35997.15
535.69	36117.98
535.89	36068.83
536.09	36031.96
536.30	36177.37
536.50	36017.63
536.70	36369.88
536.91	36040.15
537.11	36478.42
537.31	36634.06
537.51	36773.33
537.72	37260.74
537.92	36652.50
538.12	37270.98
538.32	36994.51
538.53	37141.96
538.73	37041.61
538.93	37156.30
539.13	37324.23
539.34	37338.57
539.54	37191.11
539.74	37647.81
539.94	37506.50
540.15	37522.88
540.35	37705.15
540.55	37404.10
540.75	37651.91
540.96	37713.34
541.16	37563.84
541.36	37809.60
541.56	38110.65
541.77	38237.62
541.97	38038.97
542.17	38221.24
542.37	38018.49
542.58	38358.45
542.78	37957.05
542.98	38122.94
543.18	38344.12
543.38	38917.55
543.59	38843.82
543.79	38559.16
543.99	38268.34
544.19	38548.92
544.40	38497.72
544.60	38630.83
544.80	38460.85
545.00	38778.29
545.20	39099.82
545.41	38684.08
545.61	38706.61
545.81	39368.10
546.01	39101.87
546.21	39046.57
546.42	39200.17
546.62	39165.35
546.82	39237.03
547.02	39327.14
547.22	39146.92
547.43	39310.76
547.63	39157.16
547.83	39597.48
548.03	39108.01
548.23	39695.78
548.44	39179.69
548.64	39185.83
548.84	39468.45
549.04	39587.24
549.24	39896.48
549.45	39570.85
549.65	39484.84
549.85	39617.96
550.05	39777.70
550.25	39783.84
550.45	40301.98
550.66	39482.79
550.86	39464.36
551.06	39962.01
551.26	39830.94
551.46	40287.64
551.66	40191.39
551.87	39826.85
552.07	40127.90
552.27	40285.59
552.47	40351.13
552.67	40486.29
552.87	40136.09
553.07	40306.07
553.28	40416.66
553.48	40779.15
553.68	40115.61
553.88	40725.91
554.08	40492.44
554.28	40441.24
554.48	40193.43
554.69	40650.13
554.89	40293.79
555.09	40560.02
555.29	40793.49
555.49	40359.32
555.69	40494.49
555.89	40547.73
556.10	41026.96
556.30	40193.43
556.50	40938.90
556.70	40687.00
556.90	41004.43
557.10	41145.74
557.30	40793.49
557.50	41311.63
557.70	41203.08
557.91	41002.38
558.11	41198.99
558.31	41151.88
558.51	40920.46
558.71	41110.92
558.91	41190.80
559.11	41502.09
559.31	41330.06
559.51	40670.61
559.72	41459.08
559.92	41538.95
560.12	41194.89
560.32	41391.50
560.52	41225.61
560.72	41633.16
560.92	41833.86
561.12	41844.10
561.32	41794.95
561.52	41362.82
561.72	42321.27
561.93	41385.35
562.13	41354.63
562.33	41696.64
562.53	42304.89
562.73	41995.65
562.93	42063.23
563.13	42124.67
563.33	42059.13
563.53	42511.74
563.73	41928.06
563.93	42392.95
564.13	42950.00
564.33	42149.24
564.53	42499.45
564.74	42614.13
564.94	42229.12
565.14	42427.77
565.34	42032.51
565.54	42532.22
565.74	42630.52
565.94	43173.23
566.14	43033.97
566.34	42923.38
566.54	43193.71
566.74	42296.70
566.94	42753.40
567.14	43400.55
567.34	42810.74
567.54	43052.40
567.74	43005.30
567.94	43150.70
568.14	43674.98
568.34	43519.34
568.54	43556.20
568.74	43640.17
568.94	43351.40
569.14	43902.31
569.34	44039.52
569.54	44117.34
569.75	43672.93
569.95	43609.45
570.15	44340.57
570.35	44207.45
570.55	44268.89
570.75	43906.40
570.95	44152.16
571.15	44373.34
571.35	44543.32
571.55	44551.51
571.75	44303.71
571.95	44631.38
572.15	44322.14
572.35	44995.92
572.55	44547.42
572.75	44422.49
572.95	44483.93
573.15	44981.59
573.35	44823.89
573.55	44836.18
573.75	45086.03
573.95	45116.75
574.15	44789.08
574.35	45104.46
574.55	45178.19
574.75	45321.55
574.95	45776.20
575.15	45135.18
575.34	45661.51
575.54	45708.61
575.74	45704.52
575.94	45751.62
576.14	45659.46
576.34	46087.49
576.54	46159.17
576.74	46179.65
576.94	45946.18
577.14	46224.70
577.34	46456.12
577.54	46011.71
577.74	46425.40
577.94	46671.16
578.14	46789.94
578.34	46691.64
578.54	46177.60
578.74	46304.57
578.94	46964.02
579.14	46787.89
579.34	46802.23
579.54	46857.52
579.74	47168.82
579.94	47279.41
580.13	47428.91
580.33	47387.95
580.53	47392.04
580.73	47779.11
580.93	47787.30
581.13	47715.62
581.33	47820.07
581.53	48203.04
581.73	47815.97
581.93	48160.03
582.13	47551.79
582.33	47865.13
582.53	48010.53
582.73	48219.42
582.92	48215.33
583.12	48794.90
583.32	48266.53
583.52	48223.52
583.72	48583.96
583.92	48346.40
584.12	48665.88
584.32	48821.53
584.52	48665.88
584.72	48846.10
584.92	49181.97
585.11	49339.66
585.31	49145.11
585.51	49544.46
585.71	48956.69
585.91	49491.21
586.11	49235.22
586.31	49505.55
586.51	49263.89
586.71	49397.01
586.91	49636.62
587.10	50042.12
587.30	50189.57
587.50	49857.80
587.70	50193.67
587.90	49902.85
588.10	50298.11
588.30	49661.19
588.50	50214.15
588.69	49982.73
588.89	50267.39
589.09	50189.57
589.29	50222.34
589.49	50418.94
589.69	50095.36
589.89	50406.65
590.08	50486.53
590.28	50078.98
590.48	50517.25
590.68	50363.65
590.88	50857.21
591.08	50380.03
591.28	50414.85
591.47	50969.85
591.67	50969.85
591.87	50900.22
592.07	51160.31
592.27	50922.74
592.47	50726.14
592.67	50730.23
592.86	50842.87
593.06	51244.27
593.26	51285.23
593.46	51342.58
593.66	50951.41
593.86	51023.09
594.05	51320.05
594.25	51287.28
594.45	50795.77
594.65	51037.43
594.85	51117.30
595.05	51254.51
595.24	51408.11
595.44	51213.55
595.64	51254.51
595.84	51885.29
596.04	51524.85
596.23	51653.87
596.43	52040.93
596.63	51434.74
596.83	51842.28
597.03	51811.56
597.22	51934.44
597.42	51715.31
597.62	52270.31
597.82	51377.39
598.02	51922.15
598.21	51873.00
598.41	51533.04
598.61	52079.85
598.81	52229.35
599.01	52180.20
599.20	52096.23
599.40	52057.32
599.60	52081.89
599.80	52274.40
600.00	52276.45
600.19	52520.16
600.39	51836.14
600.59	52485.34
600.79	52501.73
600.98	52671.71
601.18	52499.68
601.38	52458.72
601.58	52690.14
601.78	52585.69
601.97	52421.86
602.17	52569.31
602.37	52272.35
602.57	52376.80
602.76	52790.49
602.96	52583.65
603.16	52788.44
603.36	52868.31
603.55	53126.36
603.75	52493.54
603.95	53218.52
604.15	52939.99
604.34	52909.27
604.54	52892.89
604.74	52530.40
604.94	52901.08
605.13	53028.05
605.33	53064.92
605.53	52958.42
605.73	53159.12
605.92	53114.07
606.12	53198.04
606.32	53413.07
606.52	52774.11
606.71	53267.67
606.91	53138.65
607.11	53175.51
607.30	53556.43
607.50	53081.30
607.70	53384.40
607.90	53077.21
608.09	53069.01
608.29	53155.03
608.49	53720.27
608.68	52978.90
608.88	53441.74
609.08	52831.45
609.28	53097.69
609.47	53355.73
609.67	53636.30
609.87	53216.47
610.06	53742.80
610.26	53689.55
610.46	53441.74
610.66	53548.24
610.85	53742.80
611.05	53050.58
611.25	53255.38
611.44	52974.81
611.64	53325.01
611.84	52837.59
612.03	53624.01
612.23	53400.79
612.43	53617.87
612.62	52849.88
612.82	54107.33
613.02	53497.04
613.21	53619.92
613.41	52997.34
613.61	53202.13
613.80	53308.63
614.00	53464.27
614.20	53183.70
614.39	53458.13
614.59	53701.84
614.79	53312.72
614.98	53193.94
615.18	53265.62
615.38	53163.22
615.57	53026.01
615.77	53253.33
615.97	53433.55
616.16	53417.17
616.36	53408.98
616.56	53169.36
616.75	53441.74
616.95	53077.21
617.15	52942.04
617.34	53503.18
617.54	52886.74
617.74	53529.81
617.93	53531.86
618.13	52358.37
618.32	53693.64
618.52	53054.68
618.72	53486.80
618.91	52972.76
619.11	53007.58
619.31	53304.53
619.50	53232.85
619.70	53073.11
619.90	53218.52
620.09	53423.31
620.29	52870.36
620.48	52798.68
620.68	53427.41
620.88	52712.67
621.07	52960.47
621.27	53275.86
621.46	53380.31
621.66	52942.04
621.86	53060.82
622.05	52991.19
622.25	53212.37
622.44	52616.41
622.64	52835.55
622.84	52974.81
623.03	52681.95
623.23	52753.63
623.42	53001.43
623.62	53107.93
623.82	53286.10
624.01	53038.29
624.21	53325.01
624.40	53394.64
624.60	53030.10
624.80	52991.19
624.99	52770.01
625.19	52522.21
625.38	52944.09
625.58	53056.73
625.77	53302.48
625.97	53148.88
626.17	52765.91
626.36	53114.07
626.56	53253.33
626.75	52700.38
626.95	53191.89
627.14	53171.41
627.34	53540.05
627.54	52937.94
627.73	52960.47
627.93	53703.88
628.12	52841.69
628.32	53269.72
628.51	53157.08
628.71	53007.58
628.90	53066.97
629.10	52974.81
629.30	53064.92
629.49	52856.03
629.69	52896.98
629.88	53259.48
630.08	53335.25
630.27	53667.02
630.47	52985.05
630.66	53284.05
630.86	53656.78
631.05	53152.98
631.25	53499.09
631.44	53451.98
631.64	53720.27
631.84	53464.27
632.03	53773.52
632.23	53449.94
632.42	53572.81
632.62	53822.67
632.81	53329.11
633.01	53533.90
633.20	53765.32
633.40	53501.14
633.59	53642.45
633.79	53632.21
633.98	54260.93
634.18	54045.90
634.37	53740.75
634.57	53988.55
634.76	53978.31
634.96	54416.58
635.15	54002.89
635.35	53560.53
635.54	53906.63
635.74	53865.67
635.93	53826.76
636.13	54461.63
636.32	54512.83
636.52	53812.43
636.71	54398.15
636.91	54011.08
637.10	54625.47
637.30	53744.84
637.49	53966.02
637.69	54052.04
637.88	54537.41
638.08	54211.78
638.27	54607.04
638.46	54435.01
638.66	54269.12
638.85	54826.17
639.05	54414.53
639.24	54351.04
639.44	54588.61
639.63	54553.79
639.83	54631.61
640.02	54539.46
640.22	54578.37
640.41	55116.98
640.61	54410.43
640.80	55000.25
640.99	54340.80
641.19	55026.87
641.38	54815.93
641.58	54623.42
641.77	55000.25
641.97	54662.33
642.16	54944.95
642.36	55080.12
642.55	55350.45
642.74	55100.60
642.94	55518.38
643.13	55293.11
643.33	55399.60
643.52	55278.77
643.72	55579.82
643.91	55254.20
644.10	55653.55
644.30	55641.26
644.49	55753.90
644.69	55948.46
644.88	55506.10
645.08	55575.73
645.27	55610.54
645.46	55522.48
645.66	56198.31
645.85	55676.08
646.05	56057.00
646.24	55764.14
646.43	56317.09
646.63	56384.68
646.82	56480.93
647.02	56208.55
647.21	56046.76
647.40	56114.34
647.60	56313.00
647.79	55973.03
647.99	56308.90
648.18	56057.00
648.37	56925.34
648.57	56734.88
648.76	56669.34
648.96	56491.17
649.15	56548.51
649.34	56841.37
649.54	57033.88
649.73	56931.48
649.92	56781.98
650.12	56960.15
650.31	57029.79
650.51	56933.53
650.70	57046.17
650.89	56685.73
651.09	57758.86
651.28	56863.90
651.47	57087.13
651.67	57308.31
651.86	57083.03
652.06	56763.55
652.25	57074.84
652.44	57064.60
652.64	57021.59
652.83	57195.67
653.02	56868.00
653.22	57271.45
653.41	56960.15
653.60	57132.18
653.80	57201.82
653.99	57091.22
654.18	57119.90
654.38	57449.62
654.57	57199.77
654.76	57095.32
654.96	56757.41
655.15	57394.32
655.34	57199.77
655.54	57003.16
655.73	57248.92
655.92	57506.96
656.12	57525.39
656.31	57365.65
656.50	57349.27
656.70	57361.56
656.89	57588.88
657.08	57877.64
657.28	57662.61
657.47	57672.85
657.66	57580.69
657.86	57703.57
658.05	57595.03
658.24	57752.72
658.43	57611.41
658.63	58307.72
658.82	58016.91
659.01	58147.98
659.21	58111.11
659.40	57971.85
659.59	57334.93
659.79	57953.42
659.98	57889.93
660.17	57887.88
660.36	57922.70
660.56	57816.21
660.75	57824.40
660.94	57965.71
661.14	57496.72
661.33	57746.57
661.52	57320.60
661.71	57865.36
661.91	57859.21
662.10	57672.85
662.29	58129.54
662.49	57828.49
662.68	57552.02
662.87	58090.63
663.06	58053.77
663.26	57963.66
663.45	58430.60
663.64	58016.91
663.83	58725.50
664.03	58039.43
664.22	58051.72
664.41	58434.69
664.60	58010.76
664.80	57742.48
664.99	57564.31
665.18	57728.14
665.37	58029.19
665.57	58326.15
665.76	57324.69
665.95	57975.95
666.14	57791.63
666.34	57908.36
666.53	57779.34
666.72	57980.04
666.91	57631.89
667.11	57941.13
667.30	57832.59
667.49	57853.07
667.68	58231.94
667.87	57529.49
668.07	57758.86
668.26	57638.03
668.45	57975.95
668.64	57785.49
668.84	57982.09
669.03	57760.91
669.22	57603.22
669.41	57595.03
669.60	57920.65
669.80	57582.74
669.99	57574.55
670.18	57449.62
670.37	57750.67
670.57	57668.75
670.76	57648.27
670.95	57552.02
671.14	57320.60
671.33	57392.28
671.53	57678.99
671.72	57574.55
671.91	57377.94
672.10	57105.56
672.29	57427.09
672.48	57558.16
672.68	57547.92
672.87	57281.69
673.06	57224.34
673.25	57269.40
673.44	57066.65
673.64	57332.89
673.83	57474.20
674.02	57238.68
674.21	56974.49
674.40	57269.40
674.59	56980.63
674.79	56841.37
674.98	56812.70
675.17	56951.96
675.36	56798.37
675.55	57173.14
675.74	56857.76
675.94	56927.39
676.13	56915.10
676.32	57027.74
676.51	57242.77
676.70	56698.01
676.89	56962.20
677.08	56874.14
677.28	56693.92
677.47	57179.29
677.66	57263.25
677.85	56671.39
678.04	56751.26
678.23	56990.87
678.42	56994.97
678.62	56591.52
678.81	56741.02
679.00	56022.19
679.19	57023.64
679.38	56523.94
679.57	56554.66
679.76	56235.17
679.96	56519.84
680.15	56077.48
680.34	56134.82
680.53	56218.79
680.72	56507.55
680.91	56439.97
681.10	55997.61
681.29	56642.72
681.48	56208.55
681.68	56298.66
681.87	56226.98
682.06	55905.45
682.25	55528.62
682.44	55942.31
682.63	56044.71
682.82	55770.28
683.01	55964.84
683.20	55534.77
683.39	55942.31
683.59	55694.51
683.78	55610.54
683.97	55278.77
684.16	55837.87
684.35	55483.57
684.54	55461.04
684.73	55542.96
684.92	55606.45
685.11	55170.23
685.30	55008.44
685.49	55669.93
685.69	54998.20
685.88	55411.89
686.07	55149.75
686.26	55428.27
686.45	55139.51
686.64	55370.93
686.83	54674.62
687.02	55076.02
687.21	55411.89
687.40	54787.26
687.59	55174.33
687.78	54897.85
687.97	55057.59
688.16	54549.70
688.35	55172.28
688.54	54967.48
688.74	54637.76
688.93	54588.61
689.12	54320.32
689.31	54625.47
689.50	54760.64
689.69	54617.28
689.88	54248.64
690.07	54770.88
690.26	54555.84
690.45	54643.90
690.64	54121.67
690.83	54183.11
691.02	53918.92
691.21	54478.02
691.40	54129.86
691.59	54095.05
691.78	54049.99
691.97	54172.87
692.16	53847.24
692.35	53963.98
692.54	54279.36
692.73	54484.16
692.92	53951.69
693.11	53877.96
693.30	53875.91
693.49	54009.03
693.68	53794.00
693.87	53753.04
694.06	53468.37
694.25	53101.78
694.44	53173.46
694.63	53736.65
694.82	53796.04
695.01	53404.88
695.20	53605.58
695.39	53046.49
695.58	53429.46
695.77	53284.05
695.96	53163.22
696.15	53193.94
696.34	52858.07
696.53	53597.39
696.72	53214.42
696.91	53085.40
697.10	52675.80
697.29	52638.94
697.48	53255.38
697.67	52591.84
697.86	52374.75
698.05	52634.84
698.24	52847.83
698.43	52774.11
698.62	53189.84
698.81	52770.01
699.00	52849.88
699.19	52514.01
699.38	52757.72
699.57	52231.40
699.76	53109.97
699.95	52466.91
700.14	52323.55
700.32	52597.98
700.51	51889.38
700.70	52380.90
700.89	52358.37
701.08	52792.54
701.27	52004.07
701.46	52526.30
701.65	52055.27
701.84	52169.96
702.03	52260.07
702.22	51844.33
702.41	52157.67
702.60	52036.84
702.79	52016.36
702.98	51883.24
703.17	51811.56
703.35	51502.32
703.54	51514.61
703.73	52002.02
703.92	51975.40
704.11	51995.88
704.30	51651.82
704.49	51975.40
704.68	51676.40
704.87	51469.55
705.06	51340.53
705.25	51754.22
705.43	51623.15
705.62	51993.83
705.81	52067.56
706.00	51696.88
706.19	51203.31
706.38	51397.87
706.57	51240.18
706.76	51428.59
706.95	51457.26
707.14	51465.45
707.32	50849.02
707.51	50990.33
707.70	51524.85
707.89	50986.23
708.08	50908.41
708.27	51361.01
708.46	51404.02
708.65	51246.32
708.84	51459.31
709.02	51199.22
709.21	51440.88
709.40	51227.89
709.59	51037.43
709.78	51229.94
709.97	51690.73
710.16	50679.03
710.34	50605.31
710.53	50875.64
710.72	50435.33
710.91	51260.66
711.10	50975.99
711.29	50992.37
711.48	50595.07
711.66	51324.14
711.85	50789.62
712.04	50732.28
712.23	50830.58
712.42	50676.99
712.61	50935.03
712.80	50851.06
712.98	50459.90
713.17	50550.01
713.36	51074.29
713.55	50760.95
713.74	50648.32
713.93	50455.81
714.11	50275.58
714.30	50232.58
714.49	50060.55
714.68	50744.57
714.87	50971.89
715.06	50365.70
715.24	50156.80
715.43	50543.87
715.62	50164.99
715.81	50408.70
716.00	50492.67
716.18	49612.04
716.37	49585.42
716.56	49874.18
716.75	50230.53
716.94	50291.97
717.12	50140.42
717.31	50349.31
717.50	49962.25
717.69	50076.93
717.88	50279.68
718.06	49992.97
718.25	50552.06
718.44	49792.26
718.63	49769.74
718.82	49808.65
719.00	49716.49
719.19	49726.73
719.38	49788.17
719.57	49011.99
719.76	49829.13
719.94	49208.59
720.13	49868.04
720.32	49610.00
720.51	49702.15
720.69	49628.43
720.88	49640.71
721.07	49880.33
721.26	48809.24
721.44	48987.41
721.63	49120.53
721.82	48872.73
722.01	49151.25
722.20	49243.41
722.38	49149.20
722.57	48428.32
722.76	49345.81
722.95	49026.32
723.13	48561.44
723.32	48575.77
723.51	48803.10
723.70	48524.57
723.88	48997.65
724.07	48889.11
724.26	48680.22
724.44	48233.76
724.63	48938.26
724.82	48635.16
725.01	48510.24
725.19	48475.42
725.38	48465.18
725.57	48508.19
725.76	48801.05
725.94	48117.03
726.13	48239.90
726.32	48307.49
726.51	48358.69
726.69	48788.76
726.88	48776.47
727.07	48555.29
727.25	48493.85
727.44	48426.27
727.63	48325.92
727.82	48508.19
728.00	48399.65
728.19	48428.32
728.38	48682.27
728.56	48053.54
728.75	48575.77
728.94	48143.65
729.12	48559.39
729.31	48416.03
729.50	48311.58
729.69	48856.34
729.87	48416.03
730.06	48059.68
730.25	48491.80
730.43	48764.18
730.62	48674.07
730.81	48411.93
730.99	48436.51
731.18	48174.37
731.37	48821.53
731.55	48975.12
731.74	48780.57
731.93	48821.53
732.11	48614.68
732.30	48540.96
732.49	48270.62
732.67	48567.58
732.86	48629.02
733.05	48258.34
733.23	48373.02
733.42	48313.63
733.61	48456.99
733.79	48332.06
733.98	48815.38
734.17	48370.97
734.35	48583.96
734.54	48569.63
734.73	48856.34
734.91	48692.50
735.10	48338.21
735.29	48801.05
735.47	48188.70
735.66	48592.15
735.84	48291.10
736.03	48125.22
736.22	48968.98
736.40	48403.74
736.59	48235.81
736.78	48340.25
736.96	48287.01
737.15	48256.29
737.33	48463.13
737.52	48565.53
737.71	48108.83
737.89	48121.12
738.08	48047.39
738.27	47957.28
738.45	48532.76
738.64	48471.32
738.82	48358.69
739.01	47858.98
739.20	48268.58
739.38	48420.13
739.57	48665.88
739.75	48569.63
739.94	48092.45
740.13	47949.09
740.31	48395.55
740.50	47848.74
740.68	48469.28
740.87	48231.71
741.06	48569.63
741.24	48209.18
741.43	48143.65
741.61	48258.34
741.80	47899.94
741.99	47779.11
742.17	47938.85
742.36	48008.48
742.54	48166.18
742.73	48071.97
742.91	47953.19
743.10	47889.70
743.29	48256.29
743.47	47830.31
743.66	47852.84
743.84	48129.31
744.03	48481.56
744.21	47617.32
744.40	48086.31
744.59	47486.25
744.77	47580.46
744.96	47027.51
745.14	47732.01
745.33	47676.71
745.51	47908.13
745.70	47611.18
745.88	47473.96
746.07	47648.04
746.26	47234.35
746.44	47848.74
746.63	47371.57
746.81	47361.33
747.00	47088.95
747.18	47248.69
747.37	47484.20
747.55	47433.00
747.74	47723.82
747.92	47134.00
748.11	47244.59
748.29	47052.08
748.48	47011.12
748.66	47256.88
748.85	47250.74
749.03	47117.62
749.22	47260.97
749.41	47299.89
749.59	47236.40
749.78	47019.31
749.96	46579.00
750.15	47129.90
750.33	47154.48
750.52	47134.00
750.70	46904.63
750.89	46740.79
751.07	46675.26
751.26	46830.90
751.44	46748.98
751.63	46843.19
751.81	46705.98
752.00	46527.80
752.18	46630.20
752.37	46509.37
752.55	45964.61
752.74	46601.53
752.92	46351.68
753.10	46333.24
753.29	46533.95
753.47	46249.28
753.66	46191.94
753.84	46705.98
754.03	46433.60
754.21	45964.61
754.40	46351.68
754.58	46212.41
754.77	46443.84
754.95	46165.31
755.14	46239.04
755.32	46441.79
755.51	45765.96
755.69	45688.13
755.88	45499.72
756.06	45991.23
756.24	45897.03
756.43	45778.25
756.61	45663.56
756.80	45643.08
756.98	45436.23
757.17	45819.20
757.35	45835.59
757.54	45249.87
757.72	45753.67
757.90	45540.68
758.09	45237.58
758.27	45249.87
758.46	45114.70
758.64	45352.27
758.83	45520.20
759.01	45358.41
759.19	45180.24
759.38	45065.55
759.56	45299.02
759.75	45301.07
759.93	44879.19
760.12	44830.04
760.30	44584.28
760.48	44635.48
760.67	44776.79
760.85	44698.97
761.04	45120.85
761.22	45077.84
761.40	44473.69
761.59	44803.41
761.77	44227.93
761.96	44889.43
762.14	44252.51
762.32	44221.79
762.51	44514.65
762.69	44526.94
762.88	44438.87
763.06	44561.75
763.24	44285.28
763.43	44692.82
763.61	44371.29
763.80	43898.21
763.98	43902.31
764.16	44105.06
764.35	43619.69
764.53	42974.58
764.72	43570.54
764.90	43640.17
765.08	43554.15
765.27	43695.46
765.45	43662.69
765.63	43046.26
765.82	43498.86
766.00	43488.62
766.18	43294.06
766.37	43201.90
766.55	42954.10
766.74	42847.60
766.92	43259.24
767.10	43001.20
767.29	43062.64
767.47	42618.23
767.65	43375.98
767.84	42691.96
768.02	42753.40
768.20	42564.98
768.39	42689.91
768.57	42438.01
768.75	42556.79
768.94	42507.64
769.12	42395.00
769.30	42186.11
769.49	42229.12
769.67	42108.29
769.85	42218.88
770.04	42292.60
770.22	42136.96
770.40	41846.15
770.59	41710.98
770.77	42165.63
770.95	42210.68
771.14	41661.83
771.32	41409.93
771.50	41569.67
771.69	41323.91
771.87	41407.88
772.05	41727.36
772.24	41530.76
772.42	41522.57
772.60	41360.78
772.78	41588.10
772.97	40998.29
773.15	41729.41
773.33	41047.44
773.52	40981.90
773.70	41436.55
773.88	41416.07
774.07	40730.00
774.25	41084.30
774.43	41219.47
774.61	41194.89
774.80	41328.01
774.98	41293.19
775.16	41012.62
775.34	41432.46
775.53	40768.91
775.71	41565.57
775.89	41016.72
776.08	40938.90
776.26	41551.24
776.44	41207.18
776.62	40539.54
776.81	41108.88
776.99	41049.49
777.17	40979.85
777.35	41049.49
777.54	41518.47
777.72	41078.16
777.90	41407.88
778.08	41395.59
778.27	40961.42
778.45	41497.99
778.63	41541.00
778.81	40852.88
779.00	41506.18
779.18	41436.55
779.36	41608.58
779.54	40973.71
779.73	41321.87
779.91	41776.51
780.09	41442.70
780.27	41500.04
780.46	41403.78
780.64	41778.56
780.82	41375.11
781.00	41344.39
781.19	41551.24
781.37	41416.07
781.55	41266.57
781.73	41332.11
781.91	41309.58
782.10	41397.64
782.28	41831.81
782.46	41041.29
782.64	41928.06
782.82	41180.56
783.01	41651.59
783.19	41809.28
783.37	41622.92
783.55	41186.70
783.74	41078.16
783.92	41268.62
784.10	41676.16
784.28	41211.28
784.46	41049.49
784.64	41188.75
784.83	41401.74
785.01	41489.80
785.19	41659.78
785.37	41563.53
785.55	41235.85
785.74	40932.75
785.92	41059.73
786.10	41129.36
786.28	41170.32
786.46	40877.46
786.64	40629.65
786.83	40758.67
787.01	40981.90
787.19	40777.11
787.37	41024.91
787.55	41235.85
787.74	40338.84
787.92	40594.84
788.10	40441.24
788.28	40277.40
788.46	40422.81
788.64	40201.63
788.82	40670.61
789.01	40455.57
789.19	40297.88
789.37	40064.41
789.55	39708.07
789.73	39953.82
789.91	39701.92
790.09	39722.40
790.28	39785.89
790.46	39792.03
790.64	39716.26
790.82	39921.05
791.00	39249.32
791.18	39273.90
791.36	39329.19
791.55	39712.16
791.73	39429.54
791.91	39036.33
792.09	38995.37
792.27	39042.48
792.45	38774.19
792.63	39085.48
792.81	38688.18
793.00	39079.34
793.18	38737.33
793.36	38706.61
793.54	38657.46
793.72	38577.59
793.90	38376.89
794.08	38573.49
794.26	38262.20
794.44	38208.95
794.62	37948.86
794.81	38299.06
794.99	37498.31
795.17	37914.05
795.35	37883.33
795.53	38043.07
795.71	37696.96
795.89	37217.74
796.07	37133.77
796.25	37277.13
796.43	37320.13
796.61	36853.20
796.80	37082.57
796.98	37111.24
797.16	36799.95
797.34	37084.62
797.52	36672.98
797.70	36896.20
797.88	36416.98
798.06	36193.75
798.24	36189.66
798.42	36183.51
798.60	35952.09
798.78	36263.38
798.96	36300.25
799.14	35839.45
799.32	35968.48
799.51	35603.94
799.69	35960.28
799.87	36494.80
800.05	35526.11
800.23	35476.96
800.41	35536.35
800.59	35165.67
800.77	35208.68
800.95	34659.82
801.13	35489.25
801.31	34794.99
801.49	34928.11
801.67	34399.73
801.85	34768.37
802.03	34641.39
802.21	34420.21
802.39	34264.57
802.57	34506.23
802.75	34622.96
802.93	34184.69
803.11	33943.03
803.29	33836.54
803.47	34020.86
803.65	34369.01
803.83	34227.70
804.01	33713.66
804.19	33715.71
804.37	33781.24
804.55	33752.57
804.73	33535.49
804.91	33179.14
805.09	33175.05
805.27	33570.30
805.45	33320.45
805.63	33349.12
805.81	33385.99
805.99	32974.34
806.17	33322.50
806.35	33052.17
806.53	32894.47
806.71	32800.27
806.89	32749.07
807.07	32615.95
807.25	32818.70
807.43	32382.48
807.61	32675.34
807.79	32548.37
807.97	32075.29
808.15	31884.83
808.33	32275.99
808.51	32275.99
808.69	32308.76
808.87	32284.18
809.05	32239.12
809.23	32093.72
809.41	31643.17
809.59	31897.11
809.77	32028.18
809.95	31520.29
810.13	31964.70
810.31	31473.18
810.49	31051.30
810.67	31391.26
810.84	31491.62
811.02	31540.77
811.20	31010.34
811.38	31305.25
811.56	31077.93
811.74	31129.12
811.92	30979.62
812.10	30883.37
812.28	31139.36
812.46	30963.24
812.64	30658.09
812.82	30715.44
813.00	30498.35
813.18	30500.40
813.36	30455.34
813.53	30283.31
813.71	30086.71
813.89	30639.66
814.07	30260.79
814.25	30357.04
814.43	30119.48
814.61	30166.58
814.79	30144.05
814.97	29855.29
815.15	30125.62
815.33	29918.78
815.50	29972.02
815.68	29816.38
815.86	30099.00
816.04	29789.75
816.22	29740.60
816.40	29546.05
816.58	29777.47
816.76	29406.78
816.94	29566.52
817.11	29814.33
817.29	29421.12
817.47	29244.99
817.65	29032.00
817.83	29113.92
818.01	29181.51
818.19	28972.61
818.37	29279.81
818.54	28894.79
818.72	28673.61
818.90	29154.88
819.08	28622.41
819.26	28966.47
819.44	28843.59
819.62	28792.39
819.80	29132.36
819.97	28989.00
820.15	29070.92
820.33	28401.23
820.51	28778.06
820.69	28638.80
820.87	28737.10
821.05	28659.27
821.22	28530.25
821.40	28657.23
821.58	28235.35
821.76	28182.10
821.94	28290.64
822.12	28175.95
822.29	28395.09
822.47	27797.08
822.65	28489.29
822.83	28280.40
823.01	27801.18
823.19	27850.33
823.36	27602.52
823.54	27907.67
823.72	27655.77
823.90	28034.64
824.08	27457.12
824.25	27205.22
824.43	27526.75
824.61	27459.16
824.79	27291.23
824.97	27338.33
825.15	27397.73
825.32	27575.90
825.50	27709.02
825.68	27086.43
825.86	27440.73
826.04	27770.46
826.21	27371.10
826.39	27391.58
826.57	27119.20
826.75	27299.42
826.93	26840.68
827.10	27182.69
827.28	27280.99
827.46	27197.02
827.64	27268.70
827.81	26877.54
827.99	27250.27
828.17	26893.93
828.35	26875.49
828.53	26949.22
828.70	26926.69
828.88	26551.91
829.06	27154.02
829.24	27209.31
829.41	26637.93
829.59	26922.60
829.77	26723.94
829.95	26617.45
830.12	26375.79
830.30	26775.14
830.48	26879.59
830.66	26668.65
830.84	26627.69
831.01	26635.88
831.19	26562.15
831.37	26420.84
831.55	26109.55
831.72	26254.96
831.90	26418.80
832.08	26338.93
832.25	26367.60
832.43	26197.62
832.61	26334.83
832.79	26177.14
832.96	25912.95
833.14	26340.97
833.32	26379.89
833.50	26429.04
833.67	26191.47
833.85	25878.13
834.03	25755.26
834.20	26228.34
834.38	25945.72
834.56	26041.97
834.74	25650.81
834.91	26031.73
835.09	26082.93
835.27	25863.80
835.44	25994.87
835.62	25704.06
835.80	25781.88
835.98	25861.75
836.15	25749.11
836.33	25314.94
836.51	25734.78
836.68	25390.72
836.86	25302.65
837.04	25470.59
837.21	25544.31
837.39	25396.86
837.57	25640.57
837.75	25523.83
837.92	25300.61
838.10	25181.82
838.28	24948.36
838.45	25304.70
838.63	24997.51
838.81	24981.12
838.98	25327.23
839.16	25024.13
839.34	25159.30
839.51	25138.82
839.69	24800.90
839.87	24553.10
840.04	24942.21
840.22	25005.70
840.40	25054.85
840.57	24583.82
840.75	24825.48
840.93	24528.52
841.10	24673.93
841.28	24884.87
841.46	24759.94
841.63	24852.10
841.81	24882.82
841.98	24870.53
842.16	24907.40
842.34	24598.15
842.51	24499.85
842.69	24968.84
842.87	24540.81
843.04	24675.98
843.22	24790.66
843.40	24538.76
843.57	24553.10
843.75	24573.58
843.92	24600.20
844.10	24278.67
844.28	24573.58
844.45	24323.72
844.63	24684.17
844.81	24512.14
844.98	24434.32
845.16	23955.09
845.33	24323.72
845.51	24217.23
845.69	24258.19
845.86	24086.16
846.04	23961.23
846.21	24118.93
846.39	24159.89
846.57	23889.56
846.74	24213.13
846.92	24020.63
847.09	23879.32
847.27	23717.53
847.45	23803.54
847.62	23838.36
847.80	24022.67
847.97	23783.06
848.15	23748.25
848.32	23637.66
848.50	23629.46
848.68	23428.76
848.85	23604.89
849.03	23275.16
849.20	23889.56
849.38	23637.66
849.56	23633.56
849.73	23346.84
849.91	23414.43
850.08	23883.41
850.26	23332.51
850.43	23678.61
850.61	23434.91
850.78	23045.79
850.96	23674.52
851.14	23344.80
851.31	23658.14
851.49	23277.21
851.66	23449.24
851.84	23205.53
852.01	23230.11
852.19	23418.52
852.36	23365.28
852.54	23252.64
852.71	23111.33
852.89	23035.55
853.07	23062.18
853.24	23199.39
853.42	22963.87
853.59	22738.60
853.77	22918.82
853.94	23105.18
854.12	23174.81
854.29	22709.93
854.47	22951.59
854.64	22961.83
854.82	22867.62
854.99	23076.51
855.17	22699.69
855.34	22503.08
855.52	23023.26
855.69	22980.26
855.87	22709.93
856.04	22216.36
856.22	22730.41
856.39	22507.18
856.57	22687.40
856.74	22388.39
856.92	22640.29
857.09	22333.10
857.27	22541.99
857.44	22541.99
857.62	22421.16
857.79	22539.94
857.97	22597.29
858.14	22286.00
858.32	22589.10
858.49	22296.24
858.67	22161.07
858.84	22034.10
859.02	22431.40
859.19	22042.29
859.37	21991.09
859.54	22163.12
859.72	22222.51
859.89	22353.58
860.06	22062.77
860.24	21909.17
860.41	22320.81
860.59	21886.64
860.76	22187.69
860.94	21810.87
861.11	22095.53
861.29	21827.25
861.46	21782.20
861.64	21855.92
861.81	21565.11
861.98	21794.48
862.16	21595.83
862.33	21315.26
862.51	21597.88
862.68	21665.46
862.86	21513.91
863.03	21509.82
863.21	21352.12
863.38	21567.16
863.55	21421.75
863.73	21468.86
863.90	21362.36
864.08	21399.23
864.25	21413.56
864.43	21216.96
864.60	21180.09
864.77	21307.07
864.95	21307.07
865.12	21526.20
865.30	21376.70
865.47	21329.59
865.64	21221.05
865.82	21436.09
865.99	21206.72
866.17	20952.77
866.34	20979.39
866.51	20825.79
866.69	21317.31
866.86	21259.96
867.04	20881.09
867.21	21135.04
867.38	20840.13
867.56	20899.52
867.73	20571.85
867.91	20715.20
868.08	20895.43
868.25	20698.82
868.43	20870.85
868.60	20733.64
868.78	20647.62
868.95	20924.10
869.12	20612.81
869.30	20526.79
869.47	20737.73
869.64	20506.31
869.82	20412.10
869.99	20348.62
870.16	20616.90
870.34	20393.67
870.51	20414.15
870.69	20256.46
870.86	20145.87
871.03	20174.54
871.21	20090.57
871.38	20311.75
871.55	20047.57
871.73	20117.20
871.90	19947.22
872.07	19850.96
872.25	19707.60
872.42	19496.66
872.59	19869.39
872.77	19805.91
872.94	19760.85
873.11	19588.82
873.29	19869.39
873.46	19642.07
873.63	19558.10
873.81	19355.35
873.98	19629.78
874.15	19408.60
874.33	19506.90
874.50	19410.65
874.67	19547.86
874.85	19394.26
875.02	19406.55
875.19	19177.18
875.37	19273.43
875.54	18994.91
875.71	19101.40
875.88	18949.85
876.06	19334.87
876.23	19140.32
876.40	19021.53
876.58	19009.25
876.75	19021.53
876.92	18865.89
877.10	18847.46
877.27	18757.35
877.44	18753.25
877.61	18575.08
877.79	18962.14
877.96	18712.29
878.13	18575.08
878.31	18310.89
878.48	18652.90
878.65	18587.36
878.82	18366.18
879.00	18335.46
879.17	18392.81
879.34	18155.24
879.51	18317.03
879.69	18065.13
879.86	18271.98
880.03	18005.74
880.21	18042.60
880.38	17940.21
880.55	18360.04
880.72	17911.53
880.90	18159.34
881.07	18136.81
881.24	18155.24
881.41	18145.00
881.59	17997.55
881.76	18136.81
881.93	17876.72
882.10	17665.78
882.28	17725.17
882.45	17850.10
882.62	17891.06
882.79	17778.42
882.96	17583.86
883.14	17743.60
883.31	17821.42
883.48	17798.90
883.65	17565.43
883.83	17657.59
884.00	18001.65
884.17	17626.87
884.34	17602.29
884.51	17594.10
884.69	17518.32
884.86	17579.76
885.03	17571.57
885.20	17352.44
885.38	17479.41
885.55	17241.85
885.72	17329.91
885.89	17229.56
886.06	17252.09
886.24	17266.42
886.41	17151.74
886.58	17422.07
886.75	17422.07
886.92	16940.80
887.10	17280.76
887.27	16926.46
887.44	17125.11
887.61	17383.16
887.78	17200.89
887.95	17114.87
888.13	16957.18
888.30	17010.43
888.47	16854.78
888.64	16889.60
888.81	16942.85
888.99	17075.96
889.16	16813.82
889.33	16776.96
889.50	16561.92
889.67	16549.64
889.84	16723.71
890.01	16404.23
890.19	16545.54
890.36	16883.45
890.53	16547.59
890.70	16635.65
890.87	16299.78
891.04	16359.17
891.22	16613.12
891.39	16547.59
891.56	16060.17
891.73	16137.99
891.90	16525.06
892.07	16187.14
892.24	16258.82
892.42	16174.86
892.59	16115.47
892.76	16150.28
892.93	15867.66
893.10	16213.77
893.27	15965.96
893.44	16011.02
893.61	16027.40
893.79	16109.32
893.96	16088.84
894.13	16107.27
894.30	15963.92
894.47	15974.16
894.64	16156.43
894.81	15925.00
894.98	16002.83
895.15	15900.43
895.33	16092.94
895.50	15617.81
895.67	15824.65
895.84	15644.43
896.01	15822.61
896.18	15595.28
896.35	15853.33
896.52	15935.24
896.69	15728.40
896.86	15763.22
897.04	15687.44
897.21	15877.90
897.38	15744.78
897.55	15916.81
897.72	16101.13
897.89	15537.94
898.06	15795.98
898.23	15523.60
898.40	15574.80
898.57	15763.22
898.74	15810.32
898.91	15544.08
899.08	15738.64
899.26	15650.58
899.43	15621.91
899.60	15421.20
899.77	15576.85
899.94	15576.85
900.11	15314.71
900.28	15453.97
900.45	15511.32
900.62	15492.88
900.79	15599.38
900.96	15261.46
901.13	15574.80
901.30	15425.30
901.47	15466.26
901.64	15339.29
901.81	15349.53
901.98	15388.44
902.15	15537.94
902.32	15355.67
902.49	15429.40
902.66	15298.33
902.83	15392.53
903.01	15310.61
903.18	15263.51
903.35	15216.41
903.52	15406.87
903.69	15347.48
903.86	15705.87
904.03	15499.03
904.20	15582.99
904.37	15472.40
904.54	15527.70
904.71	15273.75
904.88	15308.57
905.05	15265.56
905.22	15396.63
905.39	15218.46
905.56	15318.81
905.73	15333.14
905.90	15478.55
906.07	15294.23
906.24	15281.94
906.41	15253.27
906.58	15382.29
906.75	15355.67
906.92	15091.48
907.09	15306.52
907.26	15388.44
907.43	15105.82
907.60	15220.50
907.77	15189.78
907.93	15333.14
908.10	15347.48
908.27	15335.19
908.44	14913.31
908.61	15189.78
908.78	15062.81
908.95	15271.70
909.12	15140.63
909.29	15064.86
909.46	15230.74
909.63	15224.60
909.80	15101.72
909.97	15283.99
910.14	14989.08
910.31	14997.28
910.48	15013.66
910.65	14847.77
910.82	14948.12
910.99	14827.29
911.16	14907.16
911.33	14749.47
911.50	14735.14
911.66	14657.31
911.83	14804.77
912.00	14716.70
912.17	14708.51
912.34	14882.59
912.51	14782.24
912.68	14548.77
912.85	14847.77
913.02	14798.62
913.19	14645.02
913.36	14739.23
913.53	14829.34
913.70	14358.31
913.86	14546.72
914.03	14454.56
914.20	14624.54
914.37	14425.89
914.54	14235.43
914.71	14241.57
914.88	14372.64
915.05	14327.59
915.22	13993.77
915.39	14311.21
915.55	14133.03
915.72	14077.74
915.89	14128.94
916.06	13985.58
916.23	13848.36
916.40	13862.70
916.57	13868.84
916.74	13862.70
916.91	13897.52
917.07	13793.07
917.24	13854.51
917.41	13913.90
917.58	13989.67
917.75	13891.37
917.92	13707.05
918.09	13696.82
918.26	13590.32
918.42	13698.86
918.59	13688.62
918.76	13481.78
918.93	13436.72
919.10	13471.54
919.27	13309.75
919.44	13662.00
919.60	13324.08
919.77	13479.73
919.94	13227.83
920.11	13248.31
920.28	13297.46
920.45	13276.98
920.61	12889.92
920.78	13107.00
920.95	12988.22
921.12	13049.66
921.29	12803.90
921.46	12717.89
921.62	12812.09
921.79	12629.82
921.96	12570.43
922.13	12678.97
922.30	12760.89
922.47	12617.54
922.63	12461.89
922.80	12412.74
922.97	12271.43
923.14	12132.17
923.31	12543.81
923.47	11962.19
923.64	12377.92
923.81	12218.18
923.98	12207.94
924.15	11931.47
924.32	12166.98
924.48	12056.39
924.65	11923.27
924.82	11943.75
924.99	11714.38
925.15	11683.66
925.32	11886.41
925.49	11718.48
925.66	11474.77
925.83	11564.88
925.99	11583.31
926.16	11620.17
926.33	11634.51
926.50	11265.88
926.67	11427.67
926.83	11482.96
927.00	11571.02
927.17	11237.20
927.34	11272.02
927.50	11179.86
927.67	11622.22
927.84	11181.91
928.01	11036.50
928.17	11208.53
928.34	11036.50
928.51	10962.78
928.68	10909.53
928.84	10686.30
929.01	10749.79
929.18	10680.16
929.35	10725.21
929.51	10577.76
929.68	10426.21
929.85	10596.19
930.02	10456.93
930.18	10350.43
930.35	10413.92
930.52	10456.93
930.69	10454.88
930.85	10286.95
931.02	10213.22
931.19	10276.71
931.36	10182.50
931.52	10112.87
931.69	10303.33
931.86	9918.31
932.02	10147.69
932.19	9910.12
932.36	9879.40
932.53	10010.47
932.69	9738.09
932.86	9918.31
933.03	9783.15
933.19	9461.62
933.36	9746.28
933.53	9535.34
933.70	9574.25
933.86	9574.25
934.03	9367.41
934.20	9318.26
934.36	9420.66
934.53	9226.10
934.70	9254.77
934.86	9006.97
935.03	8963.96
935.20	8890.23
935.36	8925.05
935.53	8775.55
935.70	8734.59
935.86	8728.44
936.03	8580.99
936.20	8482.69
936.36	8392.58
936.53	8378.24
936.70	8230.79
936.86	8458.11
937.03	8269.70
937.20	7989.13
937.36	8005.51
937.53	7808.90
937.70	7882.63
937.86	7698.31
938.03	7665.55
938.20	7878.54
938.36	7487.37
938.53	7548.81
938.70	7339.92
938.86	7333.78
939.03	7292.82
939.20	7100.31
939.36	7102.36
939.53	7092.12
939.70	7309.20
939.86	6977.43
940.03	6758.30
940.19	6754.20
940.36	6721.43
940.53	6639.51
940.69	6483.87
940.86	6528.92
941.03	6440.86
941.19	6303.65
941.36	6203.30
941.52	6281.12
941.69	6121.38
941.86	6193.06
942.02	6090.66
942.19	6115.23
942.35	5887.91
942.52	5873.57
942.69	5814.18
942.85	5762.98
943.02	5771.18
943.18	5738.41
943.35	5699.50
943.52	5732.26
943.68	5623.72
943.85	5590.95
944.01	5392.30
944.18	5451.69
944.35	5474.22
944.51	5433.26
944.68	5238.70
944.84	5431.21
945.01	5171.12
945.17	5351.34
945.34	5420.97
945.51	5431.21
945.67	5281.71
945.84	5312.43
946.00	5097.39
946.17	5214.13
946.33	5171.12
946.50	5283.76
946.67	5144.50
946.83	5201.84
947.00	5410.73
947.16	5285.81
947.33	5267.38
947.49	5087.15
947.66	5107.63
947.82	5152.69
947.99	5212.08
948.16	5214.13
948.32	5210.03
948.49	5205.94
948.65	5283.76
948.82	5148.59
948.98	5001.14
949.15	5179.31
949.31	5224.37
949.48	5287.86
949.64	5197.74
949.81	5156.79
949.97	5148.59
950.14	5142.45
950.30	5101.49
950.47	5386.16
950.63	5226.42
950.80	5164.98
950.96	5193.65
951.13	5244.85
951.30	5162.93
951.46	5207.98
951.63	5306.29
951.79	5320.62
951.96	5339.05
952.12	5144.50
952.29	5408.69
952.45	5232.56
952.62	5218.22
952.78	5271.47
952.94	5298.10
953.11	5222.32
953.27	5171.12
953.44	5298.10
953.60	5277.62
953.77	5277.62
953.93	5369.77
954.10	5310.38
954.26	5298.10
954.43	5306.29
954.59	5367.73
954.76	5545.90
954.92	5285.81
955.09	5447.60
955.25	5207.98
955.42	5250.99
955.58	5511.08
955.75	5269.42
955.91	5377.97
956.07	5310.38
956.24	5294.00
956.40	5365.68
956.57	5431.21
956.73	5351.34
956.90	5410.73
957.06	5318.57
957.23	5320.62
957.39	5334.96
957.56	5398.45
957.72	5363.63
957.88	5257.14
958.05	5517.23
958.21	5545.90
958.38	5363.63
958.54	5308.34
958.71	5384.11
958.87	5310.38
959.03	5287.86
959.20	5287.86
959.36	5255.09
959.53	5201.84
959.69	5500.84
959.85	5373.87
960.02	5302.19
960.18	5351.34
960.35	5271.47
960.51	5513.13
960.68	5189.55
960.84	5392.30
961.00	5357.49
961.17	5345.20
961.33	5287.86
961.50	5343.15
961.66	5349.29
961.82	5279.66
961.99	5296.05
962.15	5341.10
962.31	5230.51
962.48	5294.00
962.64	5324.72
962.81	5253.04
962.97	5240.75
963.13	5363.63
963.30	5287.86
963.46	5212.08
963.62	5230.51
963.79	5167.03
963.95	5281.71
964.12	5334.96
964.28	5302.19
964.44	5205.94
964.61	5132.21
964.77	5326.77
964.93	5377.97
965.10	5296.05
965.26	5324.72
965.42	5132.21
965.59	5216.18
965.75	5210.03
965.92	5197.74
966.08	5296.05
966.24	5154.74
966.41	5140.40
966.57	5244.85
966.73	5269.42
966.90	5267.38
967.06	5205.94
967.22	5179.31
967.39	5167.03
967.55	5074.87
967.71	5234.61
967.88	5232.56
968.04	5162.93
968.20	5089.20
968.37	5107.63
968.53	5009.33
968.69	5066.67
968.85	5136.31
969.02	5044.15
969.18	5105.59
969.34	5009.33
969.51	5134.26
969.67	5029.81
969.83	4992.95
970.00	5111.73
970.16	5064.63
970.32	4999.09
970.48	5130.16
970.65	5003.19
970.81	4878.26
970.97	4941.75
971.14	4825.01
971.30	5070.77
971.46	4999.09
971.63	4960.18
971.79	4951.99
971.95	4900.79
972.11	4845.49
972.28	5056.43
972.44	4956.08
972.60	4726.71
972.76	4913.08
972.93	4716.47
973.09	4917.17
973.25	4915.12
973.42	4868.02
973.58	4794.29
973.74	4988.85
973.90	4810.68
974.07	4739.00
974.23	4761.53
974.39	4720.57
974.55	4687.80
974.72	4800.44
974.88	4593.59
975.04	4792.25
975.20	4687.80
975.37	4861.88
975.53	4714.42
975.69	4833.21
975.85	4583.35
976.01	4638.65
976.18	4743.10
976.34	4607.93
976.50	4736.95
976.66	4837.30
976.83	4644.79
976.99	4593.59
977.15	4679.61
977.31	4546.49
977.47	4573.11
977.64	4558.78
977.80	4460.48
977.96	4673.46
978.12	4548.54
978.29	4468.67
978.45	4317.12
978.61	4509.63
978.77	4480.96
978.93	4444.09
979.10	4452.28
979.26	4550.59
979.42	4448.19
979.58	4374.46
979.74	4353.98
979.91	4444.09
980.07	4376.51
980.23	4491.20
980.39	4325.31
980.55	4407.23
980.71	4417.47
980.88	4370.37
981.04	4335.55
981.20	4413.37
981.36	4415.42
981.52	4237.25
981.68	4345.79
981.85	4415.42
982.01	4294.59
982.17	4272.06
982.33	4198.34
982.49	4329.41
982.65	4184.00
982.82	4270.01
982.98	4177.86
983.14	4216.77
983.30	4366.27
983.46	4282.30
983.62	4212.67
983.79	4181.95
983.95	4243.39
984.11	4134.85
984.27	4243.39
984.43	4267.97
984.59	4067.27
984.75	4186.05
984.91	4192.19
985.08	4114.37
985.24	4016.07
985.40	3962.82
985.56	4128.70
985.72	4116.42
985.88	4159.42
986.04	4067.27
986.20	3968.96
986.37	4050.88
986.53	4018.11
986.69	4016.07
986.85	3925.96
987.01	4083.65
987.17	4081.60
987.33	3973.06
987.49	3899.33
987.65	3991.49
987.82	3893.19
987.98	3817.41
988.14	3905.48
988.30	3971.01
988.46	3823.56
988.62	3887.04
988.78	3841.99
988.94	3948.48
989.10	3882.95
989.26	3796.93
989.42	3733.45
989.59	3831.75
989.75	3829.70
989.91	3928.00
990.07	3741.64
990.23	3692.49
990.39	3837.89
990.55	3796.93
990.71	3753.93
990.87	3776.45
991.03	3831.75
991.19	3778.50
991.35	3749.83
991.51	3852.23
991.67	3721.16
991.83	3796.93
992.00	3717.06
992.16	3751.88
992.32	3590.09
992.48	3770.31
992.64	3596.23
992.80	3700.68
992.96	3598.28
993.12	3643.34
993.28	3698.63
993.44	3561.42
993.60	3698.63
993.76	3608.52
993.92	3674.06
994.08	3626.95
994.24	3557.32
994.40	3508.17
994.56	3530.70
994.72	3555.27
994.88	3555.27
995.04	3514.31
995.20	3514.31
995.36	3465.16
995.52	3487.69
995.68	3497.93
995.84	3493.83
996.00	3588.04
996.16	3514.31
996.32	3483.59
996.48	3377.10
996.64	3491.79
996.80	3430.35
996.96	3366.86
997.12	3323.85
997.28	3403.72
997.44	3385.29
997.60	3336.14
997.76	3336.14
997.92	3397.58
998.08	3405.77
998.24	3268.56
998.40	3420.11
998.56	3309.52
998.72	3282.89
998.88	3360.72
999.04	3211.22
999.20	3366.86
999.36	3174.35
999.52	3332.05
999.68	3297.23
999.84	3305.42
1000.00	3254.22
1000.16	3272.65
1000.32	3155.92
1000.48	3286.99
1000.64	3141.58
1000.80	3213.26
1000.95	3190.74
1001.11	3153.87
1001.27	3176.40
1001.43	3246.03
1001.59	3168.21
1001.75	3160.02
1001.91	3215.31
1002.07	3123.15
1002.23	3096.53
1002.39	3123.15
1002.55	3114.96
1002.71	3059.67
1002.87	3071.95
1003.03	3061.71
1003.19	3035.09
1003.34	3219.41
1003.50	2920.40
1003.66	3157.97
1003.82	3092.43
1003.98	3129.30
1004.14	2998.23
1004.30	3117.01
1004.46	3053.52
1004.62	2949.08
1004.78	2992.08
1004.94	3096.53
1005.09	3127.25
1005.25	3108.82
1005.41	2942.93
1005.57	2953.17
1005.73	3016.66
1005.89	2961.36
1006.05	2992.08
1006.21	2977.75
1006.37	2811.86
1006.52	2975.70
1006.68	2885.59
1006.84	2969.55
1007.00	2901.97
1007.16	2930.64
1007.32	2924.50
1007.48	2934.74
1007.64	2926.55
1007.79	2924.50
1007.95	2834.39
1008.11	2977.75
1008.27	2854.87
1008.43	2861.01
1008.59	2879.44
1008.75	2877.40
1008.91	2869.20
1009.06	2807.77
1009.22	2871.25
1009.38	2813.91
1009.54	2867.16
1009.70	2861.01
1009.86	2785.24
1010.01	2783.19
1010.17	2742.23
1010.33	2906.07
1010.49	2801.62
1010.65	2854.87
1010.81	2828.24
1010.96	2699.22
1011.12	2711.51
1011.28	2746.33
1011.44	2781.14
1011.60	2676.70
1011.76	2719.70
1011.91	2756.57
1012.07	2750.42
1012.23	2658.26
1012.39	2566.10
1012.55	2662.36
1012.71	2693.08
1012.86	2797.53
1013.02	2641.88
1013.18	2664.41
1013.34	2623.45
1013.50	2639.83
1013.65	2727.89
1013.81	2588.63
1013.97	2682.84
1014.13	2623.45
1014.29	2629.59
1014.44	2695.13
1014.60	2613.21
1014.76	2607.06
1014.92	2539.48
1015.07	2551.77
1015.23	2633.69
1015.39	2539.48
1015.55	2465.75
1015.71	2527.19
1015.86	2582.49
1016.02	2506.71
1016.18	2379.74
1016.34	2469.85
1016.49	2502.62
1016.65	2629.59
1016.81	2435.03
1016.97	2535.39
1017.12	2576.34
1017.28	2445.27
1017.44	2353.12
1017.60	2469.85
1017.75	2494.43
1017.91	2521.05
1018.07	2492.38
1018.23	2478.04
1018.38	2451.42
1018.54	2504.67
1018.70	2439.13
1018.86	2363.36
1019.01	2359.26
1019.17	2465.75
1019.33	2555.86
1019.49	2424.80
1019.64	2482.14
1019.80	2432.99
1019.96	2428.89
1020.12	2461.66
1020.27	2336.73
1020.43	2297.82
1020.59	2349.02
1020.74	2439.13
1020.90	2475.99
1021.06	2322.40
1021.22	2308.06
1021.37	2289.63
1021.53	2244.57
1021.69	2367.45
1021.84	2285.53
1022.00	2332.64
1022.16	2256.86
1022.31	2400.22
1022.47	2410.46
1022.63	2342.88
1022.79	2191.33
1022.94	2242.53
1023.10	2449.37
1023.26	2289.63
1023.41	2349.02
1023.57	2252.77
1023.73	2271.20
1023.88	2240.48
1024.04	2199.52
1024.20	2277.34
1024.35	2244.57
1024.51	2256.86
1024.67	2215.90
1024.82	2379.74
1024.98	2199.52
1025.14	2246.62
1025.29	2299.87
1025.45	2238.43
1025.61	2220.00
1025.76	2217.95
1025.92	2215.90
1026.08	2248.67
1026.23	2277.34
1026.39	2220.00
1026.55	2191.33
1026.70	2150.37
1026.86	2154.46
1027.02	2205.66
1027.17	2213.85
1027.33	2232.29
1027.48	2265.05
1027.64	2174.94
1027.80	2109.41
1027.95	2238.43
1028.11	2052.06
1028.27	2129.89
1028.42	2174.94
1028.58	2176.99
1028.73	2117.60
1028.89	2052.06
1029.05	2248.67
1029.20	2197.47
>>>>>End Processed Spectral Data<<<<<
