SpectraSuite Data File
++++++++++++++++++++++++++++++++++++
Date: Fri Jun 02 14:47:53 CEST 2017
User: INFO_000
Dark Spectrum Present: No
Reference Spectrum Present: No
Number of Sampled Component Spectra: 1
Spectrometers: USB4H00879
Integration Time (usec): 80000 (USB4H00879)
Spectra Averaged: 1 (USB4H00879)
Boxcar Smoothing: 0 (USB4H00879)
Correct for Electrical Dark: No (USB4H00879)
Strobe/Lamp Enabled: No (USB4H00879)
Correct for Detector Non-linearity: No (USB4H00879)
Correct for Stray Light: No (USB4H00879)
Number of Pixels in Processed Spectrum: 3648
>>>>>Begin Processed Spectral Data<<<<<
345.13	1239.02
345.34	1239.02
345.56	1239.02
345.78	1271.79
345.99	1308.65
346.21	1648.61
346.42	1699.81
346.64	1630.18
346.86	1732.58
347.07	1699.81
347.29	1691.62
347.50	1611.75
347.72	1677.29
347.94	1789.92
348.15	1527.78
348.37	1566.70
348.59	1689.57
348.80	1636.33
349.02	1701.86
349.23	1777.64
349.45	1769.44
349.67	1787.88
349.88	1675.24
350.10	1884.13
350.31	1734.63
350.53	1689.57
350.75	1863.65
350.96	1740.77
351.18	1705.96
351.39	1765.35
351.61	1708.01
351.82	1822.69
352.04	1751.01
352.26	1646.57
352.47	1781.73
352.69	1806.31
352.90	1595.37
353.12	1699.81
353.34	1671.14
353.55	1755.11
353.77	1804.26
353.98	1681.38
354.20	1693.67
354.41	1787.88
354.63	1779.68
354.85	1935.33
355.06	1685.48
355.28	1605.61
355.49	1761.25
355.71	1718.25
355.92	1662.95
356.14	1699.81
356.35	1650.66
356.57	1630.18
356.79	1751.01
357.00	1773.54
357.22	1863.65
357.43	1644.52
357.65	1699.81
357.86	1683.43
358.08	1724.39
358.29	1781.73
358.51	1818.60
358.72	1759.21
358.94	1769.44
359.16	1773.54
359.37	1695.72
359.59	1734.63
359.80	1810.40
360.02	1675.24
360.23	1732.58
360.45	1781.73
360.66	1677.29
360.88	1699.81
361.09	1744.87
361.31	1853.41
361.52	1685.48
361.74	1873.89
361.95	1771.49
362.17	1624.04
362.38	1822.69
362.60	1828.84
362.81	1691.62
363.03	1673.19
363.24	1693.67
363.46	1826.79
363.67	1755.11
363.89	1609.70
364.10	1759.21
364.32	1722.34
364.53	1804.26
364.75	1640.42
364.96	1744.87
365.18	1794.02
365.39	1726.44
365.61	1738.73
365.82	1812.45
366.04	1730.53
366.25	1695.72
366.47	1779.68
366.68	1769.44
366.90	1681.38
367.11	1703.91
367.33	1789.92
367.54	1712.10
367.76	1755.11
367.97	1785.83
368.19	1751.01
368.40	1767.40
368.62	1648.61
368.83	1626.09
369.05	1693.67
369.26	1701.86
369.48	1751.01
369.69	1683.43
369.91	1732.58
370.12	1658.85
370.33	1791.97
370.55	1646.57
370.76	1689.57
370.98	1757.16
371.19	1746.92
371.41	1712.10
371.62	1759.21
371.84	1728.49
372.05	1781.73
372.27	1712.10
372.48	1753.06
372.69	1710.05
372.91	1763.30
373.12	1710.05
373.34	1740.77
373.55	1677.29
373.77	1761.25
373.98	1732.58
374.20	1843.17
374.41	1912.80
374.62	1732.58
374.84	1703.91
375.05	1832.93
375.27	1769.44
375.48	1720.29
375.70	1734.63
375.91	1761.25
376.12	1847.27
376.34	1726.44
376.55	1814.50
376.77	1820.64
376.98	1732.58
377.19	1679.33
377.41	1699.81
377.62	1816.55
377.84	1845.22
378.05	1880.04
378.27	1732.58
378.48	1871.84
378.69	1900.52
378.91	1830.88
379.12	1748.97
379.34	1800.16
379.55	1814.50
379.76	1714.15
379.98	1693.67
380.19	1830.88
380.41	1744.87
380.62	1824.74
380.83	1789.92
381.05	1763.30
381.26	1923.04
381.47	1728.49
381.69	1798.12
381.90	1847.27
382.12	1767.40
382.33	1693.67
382.54	1738.73
382.76	1798.12
382.97	1720.29
383.19	1675.24
383.40	1904.61
383.61	1765.35
383.83	1699.81
384.04	1759.21
384.25	1738.73
384.47	1837.03
384.68	1716.20
384.89	1736.68
385.11	1701.86
385.32	1751.01
385.54	1726.44
385.75	1740.77
385.96	1816.55
386.18	1779.68
386.39	1724.39
386.60	1738.73
386.82	1720.29
387.03	1830.88
387.24	1783.78
387.46	1738.73
387.67	1859.56
387.88	1871.84
388.10	1773.54
388.31	1738.73
388.52	1859.56
388.74	1855.46
388.95	1867.75
389.16	1763.30
389.38	1742.82
389.59	1812.45
389.80	1853.41
390.02	1920.99
390.23	1863.65
390.44	1808.36
390.66	1720.29
390.87	1708.01
391.08	1892.32
391.30	1920.99
391.51	1867.75
391.72	1830.88
391.94	1849.32
392.15	1914.85
392.36	1732.58
392.58	1773.54
392.79	1808.36
393.00	1865.70
393.22	1875.94
393.43	1959.91
393.64	1912.80
393.85	1918.95
394.07	1800.16
394.28	1882.08
394.49	1888.23
394.71	1923.04
394.92	1933.28
395.13	1771.49
395.35	1818.60
395.56	1705.96
395.77	1896.42
395.98	1832.93
396.20	1902.56
396.41	1982.43
396.62	1994.72
396.84	1884.13
397.05	1867.75
397.26	1841.12
397.47	2004.96
397.69	1841.12
397.90	2023.39
398.11	1935.33
398.32	1832.93
398.54	1877.99
398.75	1861.60
398.96	1978.34
399.18	1982.43
399.39	1925.09
399.60	1918.95
399.81	1898.47
400.03	1861.60
400.24	2068.45
400.45	1906.66
400.66	1990.63
400.88	1816.55
401.09	2011.11
401.30	1804.26
401.51	2060.26
401.73	1920.99
401.94	1955.81
402.15	1957.86
402.36	2238.43
402.58	1970.15
402.79	2107.36
403.00	2031.58
403.21	2035.68
403.43	1992.67
403.64	2138.08
403.85	2021.35
404.06	2211.81
404.27	2082.78
404.49	2033.63
404.70	2007.01
404.91	2064.35
405.12	1980.39
405.34	2002.91
405.55	2154.46
405.76	1931.23
405.97	2047.97
406.19	2344.92
406.40	2011.11
406.61	2115.55
406.82	1964.00
407.03	1992.67
407.25	1966.05
407.46	2260.96
407.67	2047.97
407.88	2344.92
408.09	2027.49
408.31	2125.79
408.52	2160.61
408.73	2088.93
408.94	2099.17
409.15	2133.98
409.37	2185.18
409.58	2199.52
409.79	2127.84
410.00	2240.48
410.21	2033.63
410.43	2246.62
410.64	1916.90
410.85	2144.22
411.06	2205.66
411.27	2287.58
411.48	2150.37
411.70	2267.10
411.91	2287.58
412.12	2355.16
412.33	2445.27
412.54	2156.51
412.76	2318.30
412.97	2310.11
413.18	2174.94
413.39	2123.74
413.60	2365.40
413.81	2351.07
414.03	2246.62
414.24	2201.57
414.45	2621.40
414.66	2252.77
414.87	2447.32
415.08	2062.30
415.30	2297.82
415.51	2332.64
415.72	2142.18
415.93	2535.39
416.14	2267.10
416.35	2242.53
416.56	2420.70
416.78	2316.25
416.99	2353.12
417.20	2289.63
417.41	2502.62
417.62	2365.40
417.83	2355.16
418.04	2428.89
418.26	2664.41
418.47	2439.13
418.68	2564.06
418.89	2490.33
419.10	2863.06
419.31	2506.71
419.52	2533.34
419.73	2353.12
419.95	2904.02
420.16	2486.23
420.37	2484.19
420.58	2289.63
420.79	2394.08
421.00	2385.88
421.21	2269.15
421.42	2555.86
421.63	2592.73
421.85	2643.93
422.06	2502.62
422.27	2715.61
422.48	2557.91
422.69	2648.02
422.90	2801.62
423.11	2631.64
423.32	2736.09
423.53	2764.76
423.75	2568.15
423.96	2832.34
424.17	2830.29
424.38	2996.18
424.59	2764.76
424.80	2674.65
425.01	2908.12
425.22	2762.71
425.43	2854.87
425.64	2971.60
425.85	3237.84
426.06	3059.67
426.28	2926.55
426.49	2506.71
426.70	2858.96
426.91	2953.17
427.12	3074.00
427.33	3196.88
427.54	3100.62
427.75	3282.89
427.96	3211.22
428.17	3276.75
428.38	3047.38
428.59	3176.40
428.80	3117.01
429.01	3260.37
429.23	3131.34
429.44	3172.30
429.65	3272.65
429.86	3231.69
430.07	3522.51
430.28	3383.24
430.49	3356.62
430.70	3104.72
430.91	3520.46
431.12	3579.85
431.33	3370.96
431.54	3688.39
431.75	3463.12
431.96	3368.91
432.17	3575.75
432.38	3647.43
432.59	3583.95
432.80	3669.96
433.01	3680.20
433.22	3659.72
433.43	3633.10
433.64	3852.23
433.85	3626.95
434.06	3766.21
434.27	3610.57
434.49	3690.44
434.70	4003.78
434.91	3805.13
435.12	3827.65
435.33	3821.51
435.54	3839.94
435.75	3567.56
435.96	3692.49
436.17	3721.16
436.38	3958.72
436.59	3934.15
436.80	3807.17
437.01	3981.25
437.22	4145.09
437.43	4063.17
437.64	3864.52
437.85	4034.50
438.06	4249.54
438.27	3715.02
438.48	4100.03
438.69	3960.77
438.90	4272.06
439.11	4083.65
439.32	4433.85
439.53	4177.86
439.74	4274.11
439.95	4339.65
440.16	3983.30
440.37	4155.33
440.57	4145.09
440.78	4462.52
440.99	4603.83
441.20	4267.97
441.41	4284.35
441.62	4243.39
441.83	4204.48
442.04	4339.65
442.25	4491.20
442.46	4409.28
442.67	4519.87
442.88	4745.14
443.09	4321.21
443.30	4216.77
443.51	4409.28
443.72	4818.87
443.93	4468.67
444.14	4798.39
444.35	4261.82
444.56	4353.98
444.77	4440.00
444.98	4855.73
445.19	4874.17
445.40	4534.20
445.61	4695.99
445.81	4712.38
446.02	4999.09
446.23	4814.77
446.44	4659.13
446.65	4990.90
446.86	5099.44
447.07	5255.09
447.28	4900.79
447.49	4847.54
447.70	4898.74
447.91	5205.94
448.12	4951.99
448.33	5255.09
448.54	5040.05
448.74	4851.64
448.95	5203.89
449.16	4892.60
449.37	5402.54
449.58	5314.48
449.79	5298.10
450.00	5070.77
450.21	5230.51
450.42	5427.12
450.63	5373.87
450.84	5167.03
451.05	5291.95
451.25	5294.00
451.46	5220.27
451.67	5427.12
451.88	5644.20
452.09	5308.34
452.30	5164.98
452.51	5533.61
452.72	5205.94
452.93	5887.91
453.13	5242.80
453.34	5560.24
453.55	5775.27
453.76	5697.45
453.97	5994.40
454.18	5351.34
454.39	5808.04
454.60	5750.70
454.81	5822.38
455.01	5803.94
455.22	5578.67
455.43	5765.03
455.64	6184.87
455.85	6072.23
456.06	6070.18
456.27	6014.88
456.48	6002.60
456.68	5988.26
456.89	5996.45
457.10	6281.12
457.31	5871.53
457.52	5963.68
457.73	6207.39
457.94	6383.52
458.14	6090.66
458.35	6455.20
458.56	6270.88
458.77	6416.29
458.98	6524.83
459.19	6483.87
459.39	6557.60
459.60	6727.58
459.81	6494.11
460.02	6891.41
460.23	6807.45
460.44	6778.78
460.65	6793.11
460.85	6762.39
461.06	6662.04
461.27	6629.27
461.48	6987.67
461.69	7106.45
461.89	6662.04
462.10	6942.61
462.31	6688.67
462.52	6965.14
462.73	7110.55
462.94	7229.33
463.14	7315.34
463.35	7104.40
463.56	7432.08
463.77	7374.74
463.98	7161.75
464.18	7120.79
464.39	7436.17
464.60	7532.43
464.81	7530.38
465.02	7587.72
465.23	7778.19
465.43	7526.29
465.64	7810.95
465.85	7714.70
466.06	7649.16
466.27	7970.69
466.47	7915.40
466.68	7925.64
466.89	7878.54
467.10	8046.47
467.30	7735.18
467.51	8175.49
467.72	8175.49
467.93	8142.72
468.14	8146.82
468.34	8363.90
468.55	8302.47
468.76	8542.08
468.97	8202.11
469.17	8454.02
469.38	8433.54
469.59	8603.52
469.80	8494.97
470.01	8564.61
470.21	8687.48
470.42	8812.41
470.63	9000.82
470.84	8978.30
471.04	8914.81
471.25	9049.97
471.46	8849.27
471.67	9375.60
471.87	9095.03
472.08	9187.19
472.29	9299.83
472.50	9131.89
472.70	9199.48
472.91	9287.54
473.12	9391.98
473.33	9535.34
473.53	9727.85
473.74	9469.81
473.95	9760.62
474.16	9703.28
474.36	9779.05
474.57	9914.22
474.78	9951.08
474.99	9854.83
475.19	10035.05
475.40	10258.28
475.61	10102.63
475.81	10272.61
476.02	10506.08
476.23	10461.02
476.44	10405.73
476.64	10405.73
476.85	10774.36
477.06	10696.54
477.27	10686.30
477.47	10860.38
477.68	10778.46
477.89	11061.08
478.09	10991.45
478.30	10987.35
478.51	10882.91
478.71	11102.04
478.92	11388.75
479.13	11292.50
479.34	11542.35
479.54	11552.59
479.75	11480.91
479.96	11542.35
480.16	11542.35
480.37	11925.32
480.58	11777.87
480.78	12097.35
480.99	12001.10
481.20	12166.98
481.41	12304.20
481.61	12339.01
481.82	12273.48
482.03	12074.82
482.23	12197.70
482.44	12502.85
482.65	12625.73
482.85	12697.41
483.06	12742.46
483.27	12914.49
483.47	12924.73
483.68	12613.44
483.89	12836.67
484.09	12904.25
484.30	13078.33
484.51	13125.43
484.71	13279.03
484.92	13393.72
485.13	13250.36
485.33	13408.05
485.54	13344.56
485.75	13696.82
485.95	13743.92
486.16	13621.04
486.37	13897.52
486.57	13436.72
486.78	13795.12
486.98	13934.38
487.19	14016.30
487.40	14382.88
487.60	14194.47
487.81	14184.23
488.02	14260.01
488.22	14268.20
488.43	14679.84
488.64	14591.78
488.84	14456.61
489.05	14941.98
489.25	14440.23
489.46	14946.08
489.67	15019.80
489.87	15159.06
490.08	14917.40
490.29	15341.33
490.49	15230.74
490.70	15009.56
490.90	15312.66
491.11	15494.93
491.32	15458.07
491.52	15474.45
491.73	15593.23
491.94	15439.64
492.14	15509.27
492.35	15703.82
492.55	15955.72
492.76	16076.55
492.97	16072.46
493.17	15925.00
493.38	15998.73
493.58	16181.00
493.79	16150.28
494.00	16049.93
494.20	16166.67
494.41	16353.03
494.61	16430.85
494.82	16736.00
495.02	16541.44
495.23	16871.17
495.44	16705.28
495.64	16742.14
495.85	16873.21
496.05	16725.76
496.26	16848.64
496.47	17073.92
496.67	16977.66
496.88	17321.72
497.08	17217.27
497.29	17374.97
497.49	17061.63
497.70	17344.25
497.91	17288.95
498.11	17616.63
498.32	17884.91
498.52	17641.20
498.73	17899.25
498.93	17968.88
499.14	18018.03
499.34	17954.54
499.55	17901.29
499.76	17866.48
499.96	17929.97
500.17	18018.03
500.37	18087.66
500.58	18302.70
500.78	18251.50
500.99	18429.67
501.19	18284.26
501.40	18472.68
501.60	17860.34
501.81	18396.90
502.02	18609.89
502.22	18429.67
502.43	18790.11
502.63	19134.17
502.84	18986.72
503.04	18630.37
503.25	18779.87
503.45	19003.10
503.66	19060.45
503.86	19031.77
504.07	19166.94
504.27	18917.09
504.48	19554.01
504.68	19091.16
504.89	19449.56
505.09	19320.54
505.30	19474.13
505.50	19541.72
505.71	19453.66
505.91	19885.78
506.12	19633.88
506.32	19750.61
506.53	19605.20
506.73	19539.67
506.94	19762.90
507.14	19873.49
507.35	19740.37
507.55	19875.54
507.76	20090.57
507.96	19830.48
508.17	20080.33
508.37	20168.40
508.58	20174.54
508.78	20354.76
508.99	20377.29
509.19	20618.95
509.40	20358.86
509.60	20260.55
509.81	20475.59
510.01	20412.10
510.22	20461.26
510.42	20432.58
510.63	20666.05
510.83	20690.63
511.04	20600.52
511.24	20858.56
511.44	20803.27
511.65	20883.14
511.85	20754.12
512.06	20860.61
512.26	21094.08
512.47	21049.02
512.67	20758.21
512.88	21044.93
513.08	21022.40
513.29	21190.33
513.49	21092.03
513.69	21149.37
513.90	21434.04
514.10	21302.97
514.31	21630.65
514.51	21307.07
514.72	21305.02
514.92	21354.17
515.13	21331.64
515.33	21530.30
515.53	21677.75
515.74	21663.41
515.94	21573.30
516.15	21841.59
516.35	21601.97
516.56	21685.94
516.76	21624.50
516.96	21696.18
517.17	21933.75
517.37	21962.42
517.58	21761.72
517.78	22208.17
517.99	21911.22
518.19	22298.28
518.39	22263.47
518.60	22263.47
518.80	21948.08
519.01	22427.31
519.21	22372.01
519.41	22396.59
519.62	22349.48
519.82	22531.75
520.03	22550.18
520.23	22689.45
520.43	22406.83
520.64	22795.94
520.84	22793.89
521.05	22689.45
521.25	23062.18
521.45	22886.05
521.66	23195.29
521.86	23060.13
522.07	23264.92
522.27	23146.14
522.47	23193.25
522.68	23359.13
522.88	23219.87
523.08	23406.23
523.29	23572.12
523.49	23553.69
523.70	23443.10
523.90	23672.47
524.10	23733.91
524.31	23672.47
524.51	23756.44
524.71	24194.70
524.92	23848.60
525.12	24190.61
525.33	24299.15
525.53	23830.16
525.73	24284.81
525.94	24270.48
526.14	24260.24
526.34	24229.52
526.55	24311.44
526.75	24422.03
526.95	24686.22
527.16	24503.95
527.36	24503.95
527.56	24626.82
527.77	24671.88
527.97	24741.51
528.17	24661.64
528.38	25017.99
528.58	25300.61
528.78	25179.78
528.99	25163.39
529.19	25529.98
529.39	25235.07
529.60	25202.30
529.80	25327.23
530.00	25341.57
530.21	25796.21
530.41	26082.93
530.61	25575.03
530.82	25761.40
531.02	25927.28
531.22	25777.78
531.43	25841.27
531.63	25955.96
531.83	26285.68
532.04	26318.45
532.24	26177.14
532.44	26377.84
532.64	26605.16
532.85	26451.56
533.05	26533.48
533.25	26672.74
533.46	26472.04
533.66	27172.45
533.86	26760.81
534.07	27033.19
534.27	27043.43
534.47	27371.10
534.67	26857.06
534.88	27096.67
535.08	26885.73
535.28	27385.44
535.49	26904.17
535.69	27536.99
535.89	27717.21
536.09	27471.45
536.30	27754.07
536.50	27795.03
536.70	27928.15
536.91	28087.89
537.11	28120.66
537.31	27862.61
537.51	27938.39
537.72	28300.88
537.92	28444.24
538.12	28487.25
538.32	28434.00
538.53	28487.25
538.73	28372.56
538.93	28636.75
539.13	28610.12
539.34	28614.22
539.54	28313.17
539.74	28677.71
539.94	28628.56
540.15	28837.45
540.35	28737.10
540.55	29185.60
540.75	29236.80
540.96	28765.77
541.16	29156.93
541.36	29050.44
541.56	29156.93
541.77	29568.57
541.97	29441.60
542.17	29578.81
542.37	29273.67
542.58	29730.36
542.78	29646.40
542.98	29591.10
543.18	29691.45
543.38	30029.37
543.59	30076.47
543.79	29953.59
543.99	29933.11
544.19	29906.49
544.40	29808.19
544.60	30783.02
544.80	30350.90
545.00	30135.86
545.20	30365.23
545.41	30178.87
545.61	30086.71
545.81	30610.99
546.01	30604.84
546.21	30527.02
546.42	30264.88
546.62	30891.56
546.82	30164.53
547.02	30715.44
547.22	30594.61
547.43	30766.63
547.63	31020.58
547.83	30864.94
548.03	30676.52
548.23	30912.04
548.44	31118.89
548.64	30916.14
548.84	31241.76
549.04	31071.78
549.24	31434.27
549.45	31305.25
549.65	30996.01
549.85	31262.24
550.05	31460.90
550.25	31301.15
550.45	32060.95
550.66	31372.83
550.86	31614.49
551.06	31540.77
551.26	31659.55
551.46	31555.10
551.66	31544.86
551.87	31553.05
552.07	31594.01
552.27	31854.11
552.47	31870.49
552.67	32077.33
552.87	31770.14
553.07	32048.66
553.28	31907.35
553.48	32437.78
553.68	31956.50
553.88	32347.67
554.08	32130.58
554.28	32226.84
554.48	32187.92
554.69	32525.84
554.89	32435.73
555.09	32470.54
555.29	32165.40
555.49	32306.71
555.69	32304.66
555.89	32427.54
556.10	32462.35
556.30	32374.29
556.50	32691.73
556.70	32828.94
556.90	32630.29
557.10	32591.37
557.30	32529.94
557.50	32919.05
557.70	32814.60
557.91	33111.56
558.11	33136.13
558.31	33062.41
558.51	32808.46
558.71	32984.58
558.91	33246.72
559.11	32984.58
559.31	32679.44
559.51	33093.13
559.72	33236.48
559.92	33142.28
560.12	32726.54
560.32	33156.61
560.52	32986.63
560.72	33443.33
560.92	33521.15
561.12	33312.26
561.32	33560.06
561.52	33469.95
561.72	33822.20
561.93	33588.74
562.13	33693.18
562.33	33674.75
562.53	33613.31
562.73	33588.74
562.93	33459.71
563.13	33781.24
563.33	33400.32
563.53	33775.10
563.73	33715.71
563.93	33666.56
564.13	33869.31
564.33	33732.09
564.53	33904.12
564.74	34088.44
564.94	33668.61
565.14	34002.43
565.34	33895.93
565.54	33961.47
565.74	33826.30
565.94	34336.24
566.14	34184.69
566.34	34010.62
566.54	34328.05
566.74	33697.28
566.94	33959.42
567.14	34346.48
567.34	34182.65
567.54	34219.51
567.74	34190.84
567.94	34207.22
568.14	34262.52
568.34	34543.09
568.54	34293.24
568.74	34313.72
568.94	34199.03
569.14	34915.82
569.34	34475.51
569.54	35259.88
569.75	34235.89
569.95	34887.15
570.15	34885.10
570.35	34844.14
570.55	34516.47
570.75	34719.21
570.95	34829.80
571.15	34891.24
571.35	34672.11
571.55	35321.32
571.75	35003.88
571.95	34938.35
572.15	34618.86
572.35	34811.37
572.55	34985.45
572.75	34989.55
572.95	34979.31
573.15	35231.21
573.35	35304.93
573.55	35315.17
573.75	34942.44
573.95	35501.54
574.15	34977.26
574.35	35501.54
574.55	35141.10
574.75	35227.11
574.95	35098.09
575.15	35130.86
575.34	35583.46
575.54	35053.03
575.74	35618.27
575.94	35954.14
576.14	35765.73
576.34	36046.30
576.54	35689.95
576.74	35640.80
576.94	35714.53
577.14	35810.78
577.34	36109.78
577.54	35900.89
577.74	36031.96
577.94	36283.86
578.14	35970.52
578.34	36150.74
578.54	35526.11
578.74	35706.34
578.94	36220.38
579.14	35997.15
579.34	36595.15
579.54	36230.62
579.74	36787.66
579.94	36183.51
580.13	36529.62
580.33	36498.90
580.53	36595.15
580.73	36279.77
580.93	36333.01
581.13	36560.34
581.33	36695.50
581.53	36459.99
581.73	36623.83
581.93	36738.51
582.13	37156.30
582.33	37217.74
582.53	36808.14
582.73	37250.50
582.92	36804.05
583.12	36945.36
583.32	37139.91
583.52	36935.12
583.72	37391.81
583.92	37488.07
584.12	37232.07
584.32	37285.32
584.52	37723.58
584.72	37447.11
584.92	37567.94
585.11	37629.38
585.31	37162.44
585.51	37582.27
585.71	37543.36
585.91	37977.53
586.11	37322.18
586.31	37303.75
586.51	37240.26
586.71	37868.99
586.91	37856.70
587.10	37897.66
587.30	37868.99
587.50	38069.69
587.70	38163.90
587.90	38163.90
588.10	37887.42
588.30	37737.92
588.50	38288.82
588.69	37969.34
588.89	38524.34
589.09	38356.41
589.29	38163.90
589.49	38432.18
589.69	38380.98
589.89	38374.84
590.08	38467.00
590.28	38368.69
590.48	38294.97
590.68	38206.90
590.88	38589.88
591.08	38569.40
591.28	38266.30
591.47	38843.82
591.67	38677.94
591.87	39134.63
592.07	38976.94
592.27	38364.60
592.47	38593.97
592.67	38829.49
592.86	38880.69
593.06	38960.56
593.26	39216.55
593.46	38868.40
593.66	38907.31
593.86	39134.63
594.05	39081.39
594.25	39470.50
594.45	39132.59
594.65	39216.55
594.85	38608.31
595.05	39308.71
595.24	39155.11
595.44	39177.64
595.64	39308.71
595.84	39062.96
596.04	39226.79
596.23	39179.69
596.43	39577.00
596.63	39218.60
596.83	39564.71
597.03	39732.64
597.22	40086.94
597.42	39515.56
597.62	40058.27
597.82	39945.63
598.02	39429.54
598.21	40017.31
598.41	39728.55
598.61	40125.85
598.81	39951.77
599.01	40301.98
599.20	40398.23
599.40	40052.12
599.60	40232.35
599.80	40211.87
600.00	40304.02
600.19	40175.00
600.39	39916.96
600.59	40277.40
600.79	40514.97
600.98	40578.45
601.18	40627.60
601.38	40228.25
601.58	40744.34
601.78	40834.45
601.97	40435.10
602.17	41328.01
602.37	40494.49
602.57	40342.94
602.76	41006.48
602.96	40697.24
603.16	40942.99
603.36	40797.59
603.55	41039.25
603.75	40990.09
603.95	41446.79
604.15	41129.36
604.34	41029.01
604.54	41506.18
604.74	41309.58
604.94	41297.29
605.13	41567.62
605.33	41563.53
605.53	41029.01
605.73	41201.04
605.92	41430.41
606.12	41551.24
606.32	41072.01
606.52	41362.82
606.71	41696.64
606.91	41647.49
607.11	41575.81
607.30	41778.56
607.50	41852.29
607.70	41713.03
607.90	41440.65
608.09	41596.29
608.29	41975.17
608.49	42048.89
608.68	41594.25
608.88	41368.97
609.08	41829.76
609.28	41860.48
609.47	41966.98
609.67	42278.27
609.87	42179.96
610.06	42259.84
610.26	41862.53
610.46	42632.57
610.66	41983.36
610.85	42360.19
611.05	42165.63
611.25	42339.71
611.44	41751.94
611.64	42265.98
611.84	42030.46
612.03	42081.66
612.23	42368.38
612.43	42464.63
612.62	42136.96
612.82	42530.17
613.02	42106.24
613.21	42286.46
613.41	42384.76
613.61	42481.02
613.80	41940.35
614.00	42376.57
614.20	42700.15
614.39	42245.50
614.59	42540.41
614.79	42165.63
614.98	42038.65
615.18	42268.03
615.38	42466.68
615.57	42302.84
615.77	42493.30
615.97	42646.90
616.16	42319.23
616.36	42575.22
616.56	42288.51
616.75	42640.76
616.95	42337.66
617.15	42519.93
617.34	42790.26
617.54	42194.30
617.74	42702.20
617.93	42960.24
618.13	42169.72
618.32	42610.04
618.52	42388.86
618.72	42499.45
618.91	42470.78
619.11	42452.34
619.31	42182.01
619.50	42401.14
619.70	42327.42
619.90	42542.45
620.09	42571.13
620.29	42614.13
620.48	42593.65
620.68	42857.84
620.88	42147.20
621.07	42431.86
621.27	42360.19
621.46	42149.24
621.66	42163.58
621.86	42354.04
622.05	42466.68
622.25	42474.87
622.44	42536.31
622.64	42331.51
622.84	42704.24
623.03	42311.03
623.23	42376.57
623.42	42331.51
623.62	42571.13
623.82	42970.48
624.01	42349.95
624.21	42724.72
624.40	42505.59
624.60	42591.61
624.80	42292.60
624.99	42616.18
625.19	42177.92
625.38	42769.78
625.58	42794.36
625.77	42857.84
625.97	42634.61
626.17	42777.97
626.36	42612.09
626.56	42751.35
626.75	42268.03
626.95	42798.45
627.14	42442.10
627.34	42331.51
627.54	42300.79
627.73	42634.61
627.93	42497.40
628.12	42057.09
628.32	42444.15
628.51	42769.78
628.71	42466.68
628.90	42382.71
629.10	42345.85
629.30	43101.55
629.49	42839.41
629.69	42077.57
629.88	42206.59
630.08	42700.15
630.27	42737.01
630.47	42024.32
630.66	42519.93
630.86	43085.17
631.05	42597.75
631.25	43056.50
631.44	42655.09
631.64	42481.02
631.84	42610.04
632.03	42874.23
632.23	42675.57
632.42	43099.50
632.62	42671.48
632.81	42505.59
633.01	42454.39
633.20	42573.17
633.40	43056.50
633.59	42571.13
633.79	42202.49
633.98	42728.82
634.18	42483.06
634.37	42716.53
634.57	42755.44
634.76	42571.13
634.96	42704.24
635.15	43408.75
635.35	42507.64
635.54	42857.84
635.74	42993.01
635.93	42683.76
636.13	43400.55
636.32	42964.34
636.52	42753.40
636.71	42425.72
636.91	42655.09
637.10	42888.56
637.30	42974.58
637.49	42882.42
637.69	42870.13
637.88	43009.39
638.08	42777.97
638.27	42964.34
638.46	42958.19
638.66	42786.16
638.85	42718.58
639.05	43019.63
639.24	42681.72
639.44	42745.20
639.63	43388.27
639.83	43423.08
640.02	43001.20
640.22	42857.84
640.41	43578.73
640.61	42894.71
640.80	43218.28
640.99	42833.27
641.19	43478.38
641.38	42681.72
641.58	42974.58
641.77	42798.45
641.97	42515.83
642.16	43167.09
642.36	43169.13
642.55	43634.02
642.74	42497.40
642.94	43543.91
643.13	42937.71
643.33	43302.25
643.52	43384.17
643.72	42968.43
643.91	43089.26
644.10	43214.19
644.30	43386.22
644.49	43384.17
644.69	43339.11
644.88	43242.86
645.08	43279.72
645.27	43294.06
645.46	43009.39
645.66	43498.86
645.85	43148.65
646.05	43603.30
646.24	43476.33
646.43	43203.95
646.63	43767.14
646.82	43603.30
647.02	43418.99
647.21	43588.97
647.40	43177.33
647.60	43457.90
647.79	43804.00
647.99	43427.18
648.18	43517.29
648.37	43830.63
648.57	43842.92
648.76	43851.11
648.96	43474.28
649.15	43699.56
649.34	43799.91
649.54	43591.01
649.73	43834.72
649.92	44025.18
650.12	43486.57
650.31	43824.48
650.51	43615.59
650.70	43988.32
650.89	43697.51
651.09	44146.01
651.28	43494.76
651.47	44031.33
651.67	43914.59
651.86	44027.23
652.06	43918.69
652.25	44041.57
652.44	43705.70
652.64	43578.73
652.83	43672.93
653.02	43455.85
653.22	43691.37
653.41	43781.48
653.60	43928.93
653.80	43631.97
653.99	44227.93
654.18	43734.37
654.38	43797.86
654.57	43773.28
654.76	43961.70
654.96	43963.75
655.15	43814.24
655.34	43570.54
655.54	43765.09
655.73	43781.48
655.92	44008.80
656.12	44162.40
656.31	43933.03
656.50	44004.70
656.70	43855.20
656.89	43836.77
657.08	44162.40
657.28	43980.13
657.47	43859.30
657.66	44008.80
657.86	43783.52
658.05	44322.14
658.24	44062.05
658.43	43603.30
658.63	44197.21
658.82	43875.68
659.01	44045.66
659.21	44694.87
659.40	43982.18
659.59	44139.87
659.79	44082.53
659.98	43996.51
660.17	44201.31
660.36	44457.31
660.56	44082.53
660.75	44250.46
660.94	44166.49
661.14	44158.30
661.33	44174.69
661.52	43568.49
661.71	44189.02
661.91	44385.63
662.10	43722.08
662.29	44182.88
662.49	44117.34
662.68	43791.72
662.87	44066.14
663.06	44330.33
663.26	44064.10
663.45	44741.97
663.64	44002.66
663.83	44516.70
664.03	44365.15
664.22	44377.43
664.41	44297.56
664.60	43912.55
664.80	44375.39
664.99	44123.49
665.18	44244.32
665.37	44219.74
665.57	43980.13
665.76	44103.01
665.95	44234.08
666.14	44252.51
666.34	44170.59
666.53	44078.43
666.72	44203.36
666.91	44488.03
667.11	43779.43
667.30	43963.75
667.49	43713.89
667.68	44088.67
667.87	44117.34
668.07	44166.49
668.26	44041.57
668.45	44590.42
668.64	43838.82
668.84	44756.31
669.03	44225.89
669.22	44168.54
669.41	44313.95
669.60	44207.45
669.80	43756.90
669.99	44469.59
670.18	44109.15
670.37	44168.54
670.57	44307.80
670.76	44193.12
670.95	44289.37
671.14	44207.45
671.33	43976.03
671.53	44627.29
671.72	43951.46
671.91	43890.02
672.10	43607.40
672.29	43842.92
672.48	44045.66
672.68	44264.80
672.87	44330.33
673.06	43928.93
673.25	44115.29
673.44	43980.13
673.64	43820.39
673.83	44045.66
674.02	43980.13
674.21	43566.44
674.40	44076.38
674.59	43691.37
674.79	44410.20
674.98	43580.78
675.17	44389.72
675.36	43670.89
675.55	44111.20
675.74	43824.48
675.94	44377.43
676.13	43906.40
676.32	44014.94
676.51	44150.11
676.70	43879.78
676.89	43707.75
677.08	44119.39
677.28	43896.16
677.47	44111.20
677.66	43939.17
677.85	43861.35
678.04	44045.66
678.23	44121.44
678.42	44131.68
678.62	44434.78
678.81	44117.34
679.00	43371.88
679.19	44375.39
679.38	43683.17
679.57	43918.69
679.76	43750.76
679.96	44064.10
680.15	43771.24
680.34	43976.03
680.53	43902.31
680.72	43842.92
680.91	43779.43
681.10	43781.48
681.29	44090.72
681.48	43189.61
681.68	43677.03
681.87	44051.81
682.06	43689.32
682.25	43668.84
682.44	43476.33
682.63	43433.32
682.82	43717.99
683.01	43773.28
683.20	43414.89
683.39	43582.82
683.59	43423.08
683.78	43791.72
683.97	43312.49
684.16	43933.03
684.35	43574.63
684.54	43451.75
684.73	43226.48
684.92	43238.76
685.11	43064.69
685.30	43142.51
685.49	43373.93
685.69	43404.65
685.88	43478.38
686.07	43767.14
686.26	43251.05
686.45	43210.09
686.64	43453.80
686.83	42937.71
687.02	43683.17
687.21	43619.69
687.40	43513.19
687.59	43425.13
687.78	43210.09
687.97	43199.85
688.16	43302.25
688.35	43109.74
688.54	42972.53
688.74	43251.05
688.93	42837.36
689.12	43591.01
689.31	43300.20
689.50	43324.78
689.69	42814.83
689.88	42632.57
690.07	42984.82
690.26	42755.44
690.45	42937.71
690.64	43019.63
690.83	42661.24
691.02	42825.07
691.21	43289.96
691.40	43081.07
691.59	43095.41
691.78	43152.75
691.97	43068.78
692.16	42861.94
692.35	43081.07
692.54	43107.69
692.73	42845.55
692.92	42753.40
693.11	43337.07
693.30	42663.28
693.49	43062.64
693.68	42886.51
693.87	42933.62
694.06	42489.21
694.25	42388.86
694.44	42579.32
694.63	42665.33
694.82	43087.21
695.01	42538.36
695.20	42616.18
695.39	42509.69
695.58	42700.15
695.77	42515.83
695.96	42231.16
696.15	42458.49
696.34	42337.66
696.53	42349.95
696.72	42513.78
696.91	42372.47
697.10	42341.75
697.29	42165.63
697.48	42380.67
697.67	42726.77
697.86	42450.30
698.05	42229.12
698.24	42497.40
698.43	41833.86
698.62	42323.32
698.81	42366.33
699.00	42323.32
699.19	41928.06
699.38	42149.24
699.57	41778.56
699.76	42268.03
699.95	41465.22
700.14	41594.25
700.32	41938.30
700.51	42177.92
700.70	42141.05
700.89	41919.87
701.08	41921.92
701.27	41579.91
701.46	42050.94
701.65	41350.54
701.84	41977.22
702.03	41948.54
702.22	41801.09
702.41	41868.67
702.60	41708.93
702.79	41434.50
702.98	41463.18
703.17	41080.21
703.35	41592.20
703.54	41217.42
703.73	41786.75
703.92	41311.63
704.11	41612.68
704.30	41700.74
704.49	41278.86
704.68	41534.85
704.87	41502.09
705.06	41059.73
705.25	41248.14
705.43	41457.03
705.62	41604.49
705.81	41301.39
706.00	41270.67
706.19	41063.82
706.38	40783.25
706.57	41153.93
706.76	41291.15
706.95	41502.09
707.14	41420.17
707.32	41225.61
707.51	40789.39
707.70	40961.42
707.89	41317.77
708.08	40752.53
708.27	41334.15
708.46	41604.49
708.65	40908.18
708.84	41239.95
709.02	40920.46
709.21	40988.05
709.40	40580.50
709.59	40977.81
709.78	40469.91
709.97	40730.00
710.16	40846.74
710.34	40744.34
710.53	40574.36
710.72	40691.09
710.91	40533.40
711.10	40613.27
711.29	40656.28
711.48	40533.40
711.66	40596.88
711.85	40668.56
712.04	41004.43
712.23	40674.71
712.42	40490.39
712.61	40416.66
712.80	40861.07
712.98	40709.52
713.17	40506.77
713.36	40136.09
713.55	40125.85
713.74	40363.42
713.93	40545.69
714.11	40109.47
714.30	39910.82
714.49	39904.67
714.68	40111.52
714.87	40121.76
715.06	40332.70
715.24	39822.75
715.43	40125.85
715.62	39888.29
715.81	39796.13
716.00	40062.36
716.18	39636.39
716.37	39628.20
716.56	39439.78
716.75	40381.85
716.94	39749.03
717.12	39560.61
717.31	40111.52
717.50	39757.22
717.69	39570.85
717.88	39437.73
718.06	39792.03
718.25	39994.78
718.44	39372.20
718.63	39552.42
718.82	39022.00
719.00	39554.47
719.19	39058.86
719.38	39581.09
719.57	39355.82
719.76	39247.27
719.94	39253.42
720.13	39032.24
720.32	39433.64
720.51	38987.18
720.69	39081.39
720.88	39056.81
721.07	38991.28
721.26	38778.29
721.44	38606.26
721.63	38536.63
721.82	38487.48
722.01	38837.68
722.20	38759.86
722.38	38448.57
722.57	38475.19
722.76	38276.54
722.95	38766.00
723.13	38112.70
723.32	38512.05
723.51	38135.23
723.70	37893.57
723.88	38100.41
724.07	38294.97
724.26	38063.55
724.44	37825.98
724.63	38446.52
724.82	38102.46
725.01	37866.94
725.19	37635.52
725.38	37780.93
725.57	38006.20
725.76	38221.24
725.94	37447.11
726.13	37625.28
726.32	37959.10
726.51	37506.50
726.69	38288.82
726.88	37727.68
727.07	37907.90
727.25	37451.20
727.44	38256.06
727.63	37674.43
727.82	37649.86
728.00	37588.42
728.19	37858.75
728.38	38000.06
728.56	37096.91
728.75	37998.01
728.94	37643.71
729.12	37225.93
729.31	37787.07
729.50	37606.85
729.69	37592.51
729.87	37307.85
730.06	37377.48
730.25	37537.22
730.43	37868.99
730.62	37492.16
730.81	37903.81
730.99	37582.27
731.18	37471.68
731.37	37492.16
731.55	37432.77
731.74	37807.55
731.93	37631.43
732.11	37565.89
732.30	37819.84
732.49	37283.27
732.67	37606.85
732.86	37506.50
733.05	37416.39
733.23	37414.34
733.42	37133.77
733.61	37361.09
733.79	37625.28
733.98	37725.63
734.17	37455.30
734.35	37164.49
734.54	37420.48
734.73	37541.32
734.91	37510.60
735.10	37262.79
735.29	37488.07
735.47	36912.59
735.66	37453.25
735.84	37082.57
736.03	36883.92
736.22	37520.84
736.40	36904.40
736.59	37326.28
736.78	37299.65
736.96	37014.99
737.15	36703.70
737.33	37279.18
737.52	37338.57
737.71	37070.28
737.89	37139.91
738.08	37049.80
738.27	36818.38
738.45	36996.56
738.64	37115.34
738.82	36824.53
739.01	36877.77
739.20	36967.88
739.38	36955.60
739.57	36959.69
739.75	36902.35
739.94	37068.23
740.13	37023.18
740.31	36937.16
740.50	36531.67
740.68	36799.95
740.87	36685.26
741.06	36734.42
741.24	36621.78
741.43	36484.56
741.61	36826.57
741.80	36275.67
741.99	36476.37
742.17	36359.64
742.36	36343.25
742.54	36480.47
742.73	36685.26
742.91	36427.22
743.10	36781.52
743.29	36304.34
743.47	36517.33
743.66	36584.91
743.84	36629.97
744.03	36496.85
744.21	36527.57
744.40	36304.34
744.59	36451.80
744.77	36517.33
744.96	36410.84
745.14	36312.53
745.33	36247.00
745.51	35741.15
745.70	36111.83
745.88	35763.68
746.07	36287.96
746.26	36101.59
746.44	35872.22
746.63	35661.28
746.81	35900.89
747.00	35775.97
747.18	35741.15
747.37	36171.22
747.55	36044.25
747.74	36236.76
747.92	35798.49
748.11	35941.85
748.29	35546.59
748.48	35640.80
748.66	36126.17
748.85	35759.58
749.03	35778.01
749.22	35780.06
749.41	35591.65
749.59	35747.29
749.78	35440.10
749.96	35436.00
750.15	35479.01
750.33	35589.60
750.52	35534.31
750.70	35712.48
750.89	34987.50
751.07	35515.87
751.26	35028.46
751.44	35204.58
751.63	35229.16
751.81	34997.74
752.00	35177.96
752.18	35137.00
752.37	35436.00
752.55	35050.99
752.74	35157.48
752.92	35014.12
753.10	34651.63
753.29	34950.63
753.47	34975.21
753.66	34797.04
753.84	35116.52
754.03	34944.49
754.21	34719.21
754.40	34610.67
754.58	35073.51
754.77	34942.44
754.95	34702.83
755.14	35007.98
755.32	34534.90
755.51	34721.26
755.69	34551.28
755.88	34502.13
756.06	34797.04
756.24	34481.65
756.43	34831.85
756.61	34893.29
756.80	34205.17
756.98	34244.09
757.17	34588.14
757.35	34475.51
757.54	34446.83
757.72	34495.99
757.90	34393.59
758.09	34082.30
758.27	34231.80
758.46	33943.03
758.64	34059.77
758.83	34489.84
759.01	34657.78
759.19	34039.29
759.38	34264.57
759.56	34121.21
759.75	33846.78
759.93	34100.73
760.12	33926.65
760.30	33811.96
760.48	34061.82
760.67	33725.95
760.85	34096.63
761.04	34094.58
761.22	33879.55
761.40	33746.43
761.59	34029.05
761.77	33805.82
761.96	33953.27
762.14	33764.86
762.32	33529.34
762.51	33295.88
762.69	34108.92
762.88	33707.52
763.06	33832.44
763.24	33443.33
763.43	33443.33
763.61	33562.11
763.80	33416.71
763.98	33422.85
764.16	33295.88
764.35	33359.36
764.53	32892.43
764.72	32912.91
764.90	33330.69
765.08	33437.19
765.27	32931.34
765.45	33107.46
765.63	32839.18
765.82	33019.40
766.00	32683.53
766.18	32955.91
766.37	32990.73
766.55	32718.35
766.74	32867.85
766.92	32732.68
767.10	32773.64
767.29	32626.19
767.47	32708.11
767.65	32804.36
767.84	32499.22
768.02	32943.63
768.20	31962.65
768.39	32861.71
768.57	32757.26
768.75	32087.57
768.94	32493.07
769.12	31962.65
769.30	32232.98
769.49	32415.25
769.67	32503.31
769.85	32290.32
770.04	32169.49
770.22	31905.31
770.40	32206.36
770.59	31983.13
770.77	31991.32
770.95	32181.78
771.14	32101.91
771.32	31983.13
771.50	31837.72
771.69	31708.70
771.87	31819.29
772.05	31811.10
772.24	31739.42
772.42	31616.54
772.60	31890.97
772.78	31565.34
772.97	31624.73
773.15	31757.85
773.33	31921.69
773.52	31688.22
773.70	31659.55
773.88	31778.33
774.07	31446.56
774.25	31321.63
774.43	31946.26
774.61	31587.87
774.80	31604.25
774.98	31647.26
775.16	31583.77
775.34	31712.80
775.53	31651.36
775.71	31346.21
775.89	31475.23
776.08	31528.48
776.26	31690.27
776.44	31503.90
776.62	31145.51
776.81	31657.50
776.99	31770.14
777.17	31426.08
777.35	31938.07
777.54	31747.61
777.72	31485.47
777.90	31604.25
778.08	31626.78
778.27	31604.25
778.45	31497.76
778.63	32108.05
778.81	31360.55
779.00	32513.55
779.18	31626.78
779.36	31923.74
779.54	31903.26
779.73	31813.15
779.91	32167.45
780.09	32204.31
780.27	32036.38
780.46	31950.36
780.64	32175.64
780.82	31890.97
781.00	31809.05
781.19	32161.30
781.37	32259.60
781.55	32198.16
781.73	32054.81
781.91	32024.09
782.10	32290.32
782.28	32491.02
782.46	32630.29
782.64	32439.82
782.82	32269.84
783.01	32679.44
783.19	32212.50
783.37	32357.91
783.55	32194.07
783.74	32902.67
783.92	31856.15
784.10	32409.11
784.28	31968.79
784.46	32433.68
784.64	32437.78
784.83	32071.19
785.01	32443.92
785.19	32185.88
785.37	32251.41
785.55	32327.19
785.74	32017.94
785.92	31686.17
786.10	32439.82
786.28	32343.57
786.46	32327.19
786.64	31860.25
786.83	31874.59
787.01	32177.68
787.19	32110.10
787.37	32050.71
787.55	31753.76
787.74	31890.97
787.92	32011.80
788.10	31862.30
788.28	31972.89
788.46	31858.20
788.64	31421.98
788.82	32067.09
789.01	31454.75
789.19	31868.44
789.37	31536.67
789.55	31358.50
789.73	30895.66
789.91	31196.71
790.09	31456.80
790.28	31163.94
790.46	30883.37
790.64	31274.53
790.82	31602.21
791.00	31264.29
791.18	30723.63
791.36	30918.18
791.55	30989.86
791.73	31065.64
791.91	30760.49
792.09	30950.95
792.27	30821.93
792.45	30924.33
792.63	30920.23
792.81	30967.34
793.00	30682.67
793.18	30443.06
793.36	30770.73
793.54	30375.47
793.72	30545.45
793.90	30228.02
794.08	30238.26
794.26	30283.31
794.44	29959.73
794.62	30021.17
794.81	30242.35
794.99	30037.56
795.17	29959.73
795.35	29931.06
795.53	29896.25
795.71	30037.56
795.89	29894.20
796.07	29879.86
796.25	29521.47
796.43	29711.93
796.61	29240.90
796.80	29224.51
796.98	29531.71
797.16	29437.50
797.34	29234.75
797.52	29197.89
797.70	29154.88
797.88	29042.24
798.06	29060.68
798.24	29081.16
798.42	29042.24
798.60	28548.68
798.78	28866.12
798.96	28495.44
799.14	28513.87
799.32	28599.88
799.51	28399.18
799.69	28610.12
799.87	28730.95
800.05	28409.42
800.23	28444.24
800.41	28169.81
800.59	28122.71
800.77	27850.33
800.95	27762.26
801.13	27907.67
801.31	27821.66
801.49	28091.99
801.67	27663.96
801.85	27762.26
802.03	27840.09
802.21	27571.80
802.39	27407.97
802.57	27358.81
802.75	27434.59
802.93	27469.40
803.11	27235.94
803.29	27481.69
803.47	27121.25
803.65	27221.60
803.83	27037.28
804.01	27108.96
804.19	26820.20
804.37	26674.79
804.55	26580.59
804.73	26529.39
804.91	26785.38
805.09	26783.34
805.27	27098.72
805.45	26992.23
805.63	26680.94
805.81	26488.43
805.99	26680.94
806.17	26291.82
806.35	26332.78
806.53	26173.04
806.71	26117.75
806.89	26478.19
807.07	26048.11
807.25	26541.68
807.43	26007.16
807.61	26220.14
807.79	26277.49
807.97	25624.18
808.15	26308.21
808.33	25931.38
808.51	25675.38
808.69	25992.82
808.87	25910.90
809.05	25644.66
809.23	25177.73
809.41	25456.25
809.59	25398.91
809.77	25493.12
809.95	25554.55
810.13	25400.96
810.31	25192.06
810.49	25224.83
810.67	25259.65
810.84	25147.01
811.02	25083.52
811.20	24882.82
811.38	25204.35
811.56	24749.70
811.74	24782.47
811.92	24786.57
812.10	24784.52
812.28	24901.25
812.46	24456.84
812.64	24727.17
812.82	24721.03
813.00	24778.37
813.18	24764.04
813.36	24258.19
813.53	24366.73
813.71	24479.37
813.89	24376.97
814.07	24290.96
814.25	24186.51
814.43	24139.41
814.61	24030.87
814.79	24250.00
814.97	23834.26
815.15	24071.82
815.33	23918.23
815.50	23801.49
815.68	24163.98
815.86	23983.76
816.04	23703.19
816.22	23668.37
816.40	23742.10
816.58	23881.36
816.76	23598.74
816.94	23514.78
817.11	23774.87
817.29	23582.36
817.47	23457.43
817.65	23357.08
817.83	23574.17
818.01	23195.29
818.19	23068.32
818.37	23295.64
818.54	23303.84
818.72	22990.50
818.90	23238.30
819.08	23146.14
819.26	22943.39
819.44	22910.63
819.62	22955.68
819.80	23002.78
819.97	23041.70
820.15	23129.76
820.33	22967.97
820.51	22873.76
820.69	22808.23
820.87	22970.02
821.05	22818.47
821.22	22863.52
821.40	22701.73
821.58	22539.94
821.76	22523.56
821.94	22353.58
822.12	22750.88
822.29	22644.39
822.47	22318.76
822.65	22337.20
822.83	22503.08
823.01	22335.15
823.19	22128.30
823.36	21970.61
823.54	22242.99
823.72	22064.82
823.90	22308.52
824.08	21739.19
824.25	21931.70
824.43	22124.21
824.61	22005.42
824.79	22052.53
824.97	21720.76
825.15	22044.34
825.32	21982.90
825.50	21524.15
825.68	21694.13
825.86	21649.08
826.04	21868.21
826.21	21817.01
826.39	21728.95
826.57	21546.68
826.75	21612.21
826.93	21499.58
827.10	21497.53
827.28	21640.89
827.46	21667.51
827.64	21462.71
827.81	21335.74
827.99	21651.13
828.17	21401.27
828.35	21132.99
828.53	21200.57
828.70	21028.54
828.88	21251.77
829.06	21425.85
829.24	21573.30
829.41	21153.47
829.59	21247.68
829.77	21149.37
829.95	21049.02
830.12	20932.29
830.30	21161.66
830.48	21262.01
830.66	21012.16
830.84	21186.24
831.01	20860.61
831.19	20788.93
831.37	20833.99
831.55	20934.34
831.72	20901.57
831.90	20545.22
832.08	21049.02
832.25	20780.74
832.43	20698.82
832.61	20739.78
832.79	20651.72
832.96	20608.71
833.14	20635.33
833.32	20743.88
833.50	20690.63
833.67	20696.77
833.85	20434.63
834.03	20369.10
834.20	20737.73
834.38	20719.30
834.56	20498.12
834.74	20408.01
834.91	20227.79
835.09	20235.98
835.27	20215.50
835.44	20227.79
835.62	19857.10
835.80	20379.34
835.98	20016.85
836.15	20018.89
836.33	19984.08
836.51	20221.64
836.68	20266.70
836.86	19969.74
837.04	20195.02
837.21	20113.10
837.39	20147.92
837.57	20063.95
837.75	20047.57
837.92	19617.49
838.10	19816.15
838.28	19377.88
838.45	19592.92
838.63	19592.92
838.81	19912.40
838.98	19705.56
839.16	19603.16
839.34	19545.81
839.51	19588.82
839.69	19640.02
839.87	19467.99
840.04	19386.07
840.22	19746.51
840.40	19459.80
840.57	19295.96
840.75	19302.11
840.93	19250.91
841.10	19365.59
841.28	19416.79
841.46	19056.35
841.63	19377.88
841.81	19310.30
841.98	19134.17
842.16	19627.73
842.34	19203.80
842.51	18929.38
842.69	19353.30
842.87	19404.50
843.04	19326.68
843.22	18953.95
843.40	19080.92
843.57	19390.17
843.75	19050.21
843.92	19031.77
844.10	19105.50
844.28	19244.76
844.45	19187.42
844.63	18984.67
844.81	18716.39
844.98	19093.21
845.16	18609.89
845.33	18902.75
845.51	18607.84
845.69	18730.72
845.86	18761.44
846.04	18798.31
846.21	18693.86
846.39	18687.71
846.57	18552.55
846.74	18601.70
846.92	18456.29
847.09	18540.26
847.27	18472.68
847.45	18378.47
847.62	18560.74
847.80	18613.99
847.97	18620.13
848.15	18517.73
848.32	18122.48
848.50	18683.62
848.68	18042.60
848.85	18335.46
849.03	18075.37
849.20	18360.04
849.38	18228.97
849.56	18589.41
849.73	18120.43
849.91	18056.94
850.08	18177.77
850.26	18089.71
850.43	17921.77
850.61	17979.12
850.78	18061.04
850.96	18145.00
851.14	17948.40
851.31	18261.74
851.49	17958.64
851.66	17755.89
851.84	17958.64
852.01	18032.36
852.19	18337.51
852.36	17673.97
852.54	18061.04
852.71	18011.89
852.89	17823.47
853.07	17938.16
853.24	17618.68
853.42	17665.78
853.59	17626.87
853.77	17559.28
853.94	18003.69
854.12	17657.59
854.29	17508.08
854.47	17485.56
854.64	17491.70
854.82	17608.44
854.99	17747.70
855.17	17506.04
855.34	17479.41
855.52	17573.62
855.69	17669.87
855.87	17495.80
856.04	17571.57
856.22	17645.30
856.39	17389.30
856.57	17297.14
856.74	17512.18
856.92	17084.16
857.09	17075.96
857.27	17157.88
857.44	17434.36
857.62	17399.54
857.79	17383.16
857.97	17112.83
858.14	17065.72
858.32	17342.20
858.49	17075.96
858.67	17182.46
858.84	17090.30
859.02	16754.43
859.19	16977.66
859.37	16772.86
859.54	17063.68
859.72	17055.48
859.89	16748.29
860.06	17233.66
860.24	16850.69
860.41	16801.54
860.59	16854.78
860.76	16881.41
860.94	16506.63
861.11	16912.13
861.29	16680.71
861.46	16566.02
861.64	16457.48
861.81	16887.55
861.98	16609.03
862.16	16672.51
862.33	16408.33
862.51	16473.86
862.68	16664.32
862.86	16359.17
863.03	16285.45
863.21	16590.59
863.38	16410.37
863.55	16449.28
863.73	16551.68
863.90	16391.94
864.08	16346.89
864.25	16250.63
864.43	16320.26
864.60	16148.23
864.77	16410.37
864.95	16494.34
865.12	16201.48
865.30	16353.03
865.47	16240.39
865.64	16267.02
865.82	16287.50
865.99	16217.86
866.17	16074.51
866.34	16328.45
866.51	15902.48
866.69	16396.04
866.86	15990.54
867.04	16043.79
867.21	15838.99
867.38	16121.61
867.56	15912.72
867.73	15984.40
867.91	15691.54
868.08	15920.91
868.25	15726.35
868.43	15789.84
868.60	15658.77
868.78	15523.60
868.95	15982.35
869.12	15554.32
869.30	15515.41
869.47	15664.91
869.64	15329.05
869.82	15673.10
869.99	15451.92
870.16	15738.64
870.34	15476.50
870.51	15585.04
870.69	15404.82
870.86	15464.21
871.03	15523.60
871.21	15515.41
871.38	15449.88
871.55	15259.42
871.73	15181.59
871.90	15183.64
872.07	15007.52
872.25	15066.91
872.42	15175.45
872.59	15193.88
872.77	15109.91
872.94	14894.88
873.11	14901.02
873.29	14960.41
873.46	14708.51
873.63	14798.62
873.81	14892.83
873.98	14835.49
874.15	14827.29
874.33	14675.74
874.50	14663.46
874.67	14927.64
874.85	14681.89
875.02	14683.94
875.19	14749.47
875.37	14716.70
875.54	14618.40
875.71	14522.15
875.88	14698.27
876.06	14548.77
876.23	14470.95
876.40	14589.73
876.58	14495.52
876.75	14513.95
876.92	14362.40
877.10	14421.80
877.27	14399.27
877.44	14047.02
877.61	14178.09
877.79	14135.08
877.96	14186.28
878.13	14458.66
878.31	14186.28
878.48	14266.15
878.65	14069.55
878.82	14094.12
879.00	14200.62
879.17	14044.97
879.34	13985.58
879.51	13932.33
879.69	14065.45
879.86	13887.28
880.03	13891.37
880.21	13944.62
880.38	13934.38
880.55	13895.47
880.72	13801.26
880.90	13831.98
881.07	13879.08
881.24	13676.34
881.41	13778.73
881.59	13629.23
881.76	13758.25
881.93	13698.86
882.10	13686.58
882.28	13598.51
882.45	13406.00
882.62	13721.39
882.79	13743.92
882.96	13272.89
883.14	13688.62
883.31	13573.94
883.48	13375.28
883.65	13389.62
883.83	13707.05
884.00	13438.77
884.17	13201.21
884.34	13426.48
884.51	13332.28
884.69	13514.55
884.86	13268.79
885.03	13618.99
885.20	13154.10
885.38	13268.79
885.55	13363.00
885.72	13182.77
885.89	13260.60
886.06	13231.93
886.24	13264.69
886.41	13098.81
886.58	13401.91
886.75	13123.38
886.92	13373.24
887.10	13266.74
887.27	12894.01
887.44	13102.90
887.61	13199.16
887.78	13059.90
887.95	13098.81
888.13	12754.75
888.30	12703.55
888.47	12836.67
888.64	13010.75
888.81	12949.31
888.99	12764.99
889.16	12734.27
889.33	12715.84
889.50	12560.19
889.67	12721.98
889.84	12916.54
890.01	12605.25
890.19	12830.52
890.36	12777.28
890.53	12834.62
890.70	12635.97
890.87	12885.82
891.04	12683.07
891.22	12396.35
891.39	12656.45
891.56	12547.90
891.73	12568.38
891.90	12494.66
892.07	12461.89
892.24	12474.18
892.42	12185.41
892.59	12560.19
892.76	12304.20
892.93	12181.32
893.10	12306.24
893.27	12298.05
893.44	12369.73
893.61	12310.34
893.79	12394.31
893.96	12144.45
894.13	12353.35
894.30	12279.62
894.47	12033.86
894.64	12369.73
894.81	12013.38
894.98	12339.01
895.15	12126.02
895.33	12181.32
895.50	12115.78
895.67	12306.24
895.84	12277.57
896.01	12318.53
896.18	12009.29
896.35	12470.08
896.52	12212.04
896.69	12119.88
896.86	12244.81
897.04	12240.71
897.21	12144.45
897.38	12330.82
897.55	12357.44
897.72	12255.04
897.89	12140.36
898.06	12140.36
898.23	12334.92
898.40	12175.17
898.57	12314.44
898.74	12093.26
898.91	12222.28
899.08	12134.21
899.26	12201.80
899.43	12285.76
899.60	12017.48
899.77	12037.96
899.94	12134.21
900.11	11857.74
900.28	12173.13
900.45	11972.43
900.62	12226.37
900.79	12076.87
900.96	11970.38
901.13	11958.09
901.30	11962.19
901.47	11741.00
901.64	12115.78
901.81	12191.56
901.98	11999.05
902.15	12070.73
902.32	12052.30
902.49	12080.97
902.66	12064.58
902.83	11994.95
903.01	12021.58
903.18	12070.73
903.35	12123.98
903.52	12216.13
903.69	11947.85
903.86	12126.02
904.03	12142.41
904.20	12105.54
904.37	12076.87
904.54	12283.72
904.71	12037.96
904.88	12097.35
905.05	11976.52
905.22	12136.26
905.39	11945.80
905.56	11992.90
905.73	12046.15
905.90	12040.01
906.07	12054.34
906.24	12115.78
906.41	12058.44
906.58	11859.79
906.75	11927.37
906.92	11833.16
907.09	11867.98
907.26	11962.19
907.43	11781.96
907.60	12019.53
907.77	12105.54
907.93	11988.81
908.10	11741.00
908.27	12064.58
908.44	11786.06
908.61	11835.21
908.78	11859.79
908.95	12056.39
909.12	11855.69
909.29	11657.04
909.46	11784.01
909.63	11958.09
909.80	11802.44
909.97	11898.70
910.14	11784.01
910.31	11706.19
910.48	11827.02
910.65	11882.31
910.82	11941.71
910.99	11769.68
911.16	11702.09
911.33	11714.38
911.50	11607.89
911.66	11587.41
911.83	11654.99
912.00	11571.02
912.17	11427.67
912.34	11542.35
912.51	11611.98
912.68	11474.77
912.85	11669.33
913.02	11710.29
913.19	11534.16
913.36	11474.77
913.53	11362.13
913.70	11462.48
913.86	11482.96
914.03	11351.89
914.20	11353.94
914.37	11542.35
914.54	11267.92
914.71	11243.35
914.88	11317.08
915.05	11310.93
915.22	11204.44
915.39	11360.08
915.55	11405.14
915.72	11186.01
915.89	11306.84
916.06	11153.24
916.23	11059.03
916.40	11179.86
916.57	11079.51
916.74	10966.87
916.91	11091.80
917.07	10973.02
917.24	10942.30
917.41	11013.98
917.58	11030.36
917.75	10884.95
917.92	10616.67
918.09	10979.16
918.26	11034.46
918.42	10774.36
918.59	10674.01
918.76	10651.49
918.93	10649.44
919.10	10540.90
919.27	10694.49
919.44	10714.97
919.60	10696.54
919.77	10573.66
919.94	10434.40
920.11	10508.13
920.28	10540.90
920.45	10534.75
920.61	10463.07
920.78	10389.35
920.95	10418.02
921.12	10284.90
921.29	10110.82
921.46	10278.76
921.62	10055.53
921.79	10157.92
921.96	10274.66
922.13	10063.72
922.30	9989.99
922.47	9889.64
922.63	9781.10
922.80	9918.31
922.97	9795.43
923.14	9848.68
923.31	9865.07
923.47	9705.32
923.64	10168.16
923.81	9641.84
923.98	9742.19
924.15	9705.32
924.32	9647.98
924.48	9586.54
924.65	9527.15
924.82	9410.42
924.99	9529.20
925.15	9449.33
925.32	9521.01
925.49	9191.28
925.66	9373.55
925.83	9301.87
925.99	9316.21
926.16	9451.38
926.33	9320.31
926.50	9121.65
926.67	9359.22
926.83	9144.18
927.00	8927.10
927.17	9060.21
927.34	8789.88
927.50	9070.45
927.67	9013.11
927.84	8945.53
928.01	8855.42
928.17	8929.14
928.34	8763.26
928.51	8818.55
928.68	8910.71
928.84	8656.76
929.01	8863.61
929.18	8626.04
929.35	8640.38
929.51	8734.59
929.68	8413.06
929.85	8437.63
930.02	8593.28
930.18	8494.97
930.35	8327.04
930.52	8310.66
930.69	8290.18
930.85	8341.38
931.02	8308.61
931.19	8105.86
931.36	8132.48
931.52	8122.24
931.69	8144.77
931.86	8112.00
932.02	8032.13
932.19	7948.17
932.36	8118.15
932.53	7849.86
932.69	8095.62
932.86	7946.12
933.03	7835.53
933.19	7757.71
933.36	7825.29
933.53	7776.14
933.70	7663.50
933.86	7546.76
934.03	7561.10
934.20	7434.13
934.36	7544.72
934.53	7278.48
934.70	7321.49
934.86	7413.65
935.03	7112.60
935.20	7268.24
935.36	7114.64
935.53	7063.44
935.70	6934.42
935.86	7167.89
936.03	6918.04
936.20	6612.89
936.36	6623.13
936.53	6784.92
936.70	6668.19
936.86	6858.65
937.03	6729.63
937.20	6455.20
937.36	6643.61
937.53	6107.04
937.70	6193.06
937.86	6158.24
938.03	6162.34
938.20	6229.92
938.36	5994.40
938.53	5957.54
938.70	5617.58
938.86	5754.79
939.03	5674.92
939.20	5644.20
939.36	5482.41
939.53	5375.92
939.70	5650.35
939.86	5392.30
940.03	5248.94
940.19	5191.60
940.36	5156.79
940.53	5081.01
940.69	4673.46
940.86	4947.89
941.03	4868.02
941.19	4698.04
941.36	4822.97
941.52	4657.08
941.69	4667.32
941.86	4818.87
942.02	4831.16
942.19	4460.48
942.35	4390.84
942.52	4419.52
942.69	4353.98
942.85	4032.45
943.02	4288.45
943.18	4001.73
943.35	4347.84
943.52	4050.88
943.68	4063.17
943.85	3932.10
944.01	4030.40
944.18	3710.92
944.35	4003.78
944.51	3786.69
944.68	3958.72
944.84	3512.27
945.01	3850.18
945.17	4009.92
945.34	4016.07
945.51	3866.56
945.67	3864.52
945.84	3598.28
946.00	3463.12
946.17	3817.41
946.33	3520.46
946.50	3817.41
946.67	3612.62
946.83	3624.90
947.00	3868.61
947.16	3680.20
947.33	3456.97
947.49	3835.85
947.66	3442.64
947.82	3624.90
947.99	3475.40
948.16	3887.04
948.32	3581.90
948.49	3665.86
948.65	3985.35
948.82	3499.98
948.98	3438.54
949.15	3176.40
949.31	3547.08
949.48	3360.72
949.64	3508.17
949.81	3590.09
949.97	3637.19
950.14	3487.69
950.30	3461.07
950.47	4048.83
950.63	3467.21
950.80	3459.02
950.96	3557.32
951.13	3702.73
951.30	3899.33
951.46	3456.97
951.63	3825.61
951.79	3753.93
951.96	4100.03
952.12	3715.02
952.29	3876.80
952.45	3366.86
952.62	3792.84
952.78	3686.34
952.94	3743.69
953.11	3893.19
953.27	3526.60
953.44	3774.41
953.60	3911.62
953.77	3657.67
953.93	3829.70
954.10	3727.30
954.26	3688.39
954.43	3725.26
954.59	4140.99
954.76	3956.68
954.92	3782.60
955.09	3770.31
955.25	3667.91
955.42	3815.37
955.58	4204.48
955.75	3852.23
955.91	3698.63
956.07	3672.01
956.24	3901.38
956.40	3794.89
956.57	3780.55
956.73	3780.55
956.90	3909.57
957.06	3803.08
957.23	3526.60
957.39	3575.75
957.56	4014.02
957.72	3872.71
957.88	3596.23
958.05	3870.66
958.21	4007.87
958.38	3878.85
958.54	3885.00
958.71	3921.86
958.87	3817.41
959.03	3669.96
959.20	3755.97
959.36	3581.90
959.53	3901.38
959.69	3708.87
959.85	4132.80
960.02	3733.45
960.18	3917.76
960.35	3936.20
960.51	4014.02
960.68	3782.60
960.84	3860.42
961.00	3565.51
961.17	3792.84
961.33	3616.71
961.50	3874.76
961.66	3860.42
961.82	3659.72
961.99	3710.92
962.15	3667.91
962.31	3692.49
962.48	3710.92
962.64	3614.66
962.81	3776.45
962.97	3516.36
963.13	4118.47
963.30	3780.55
963.46	3565.51
963.62	3459.02
963.79	3661.77
963.95	3723.21
964.12	3735.50
964.28	3762.12
964.44	3633.10
964.61	3647.43
964.77	3686.34
964.93	3899.33
965.10	3475.40
965.26	3751.88
965.42	3424.20
965.59	3553.23
965.75	3672.01
965.92	3592.14
966.08	3530.70
966.24	3633.10
966.41	3696.58
966.57	3753.93
966.73	3629.00
966.90	3624.90
967.06	3708.87
967.22	3303.37
967.39	3559.37
967.55	3690.44
967.71	3477.45
967.88	3334.09
968.04	3645.38
968.20	3563.47
968.37	3729.35
968.53	3403.72
968.69	3297.23
968.85	3811.27
969.02	3438.54
969.18	3549.13
969.34	3446.73
969.51	3639.24
969.67	3524.55
969.83	3170.26
970.00	3772.36
970.16	3567.56
970.32	3665.86
970.48	3833.80
970.65	3430.35
970.81	3524.55
970.97	3698.63
971.14	3071.95
971.30	3592.14
971.46	3198.93
971.63	3645.38
971.79	3440.59
971.95	3706.82
972.11	3336.14
972.28	3366.86
972.44	3346.38
972.60	3141.58
972.76	3221.45
972.93	3078.10
973.09	3334.09
973.25	3254.22
973.42	3258.32
973.58	3563.47
973.74	3303.37
973.90	3375.05
974.07	3035.09
974.23	3246.03
974.39	3239.89
974.55	3325.90
974.72	3246.03
974.88	3194.83
975.04	3289.04
975.20	3334.09
975.37	3022.80
975.53	3262.41
975.69	3254.22
975.85	3129.30
976.01	3047.38
976.18	3076.05
976.34	3067.86
976.50	3192.78
976.66	3282.89
976.83	3200.98
976.99	3006.42
977.15	3149.78
977.31	2688.98
977.47	3149.78
977.64	3100.62
977.80	3096.53
977.96	2963.41
978.12	2969.55
978.29	2805.72
978.45	2963.41
978.61	2944.98
978.77	2797.53
978.93	2918.36
979.10	2867.16
979.26	2916.31
979.42	3174.35
979.58	2715.61
979.74	2979.79
979.91	2754.52
980.07	2801.62
980.23	2658.26
980.39	2912.21
980.55	2736.09
980.71	2891.73
980.88	2871.25
981.04	2795.48
981.20	2652.12
981.36	2547.67
981.52	2731.99
981.68	2531.29
981.85	3102.67
982.01	2600.92
982.17	2574.30
982.33	2680.79
982.49	2906.07
982.65	2762.71
982.82	2596.82
982.98	2621.40
983.14	2607.06
983.30	2674.65
983.46	2582.49
983.62	2820.05
983.79	2664.41
983.95	2525.15
984.11	2490.33
984.27	2783.19
984.43	2609.11
984.59	2772.95
984.75	2744.28
984.91	2502.62
985.08	2678.74
985.24	2482.14
985.40	2357.21
985.56	2512.86
985.72	2697.17
985.88	2643.93
986.04	2576.34
986.20	2461.66
986.37	2617.30
986.53	2461.66
986.69	2605.02
986.85	2584.54
987.01	2299.87
987.17	2637.78
987.33	2392.03
987.49	2285.53
987.65	2432.99
987.82	2488.28
987.98	2232.29
988.14	2459.61
988.30	2406.36
988.46	2392.03
988.62	2373.60
988.78	2375.64
988.94	2222.05
989.10	2312.16
989.26	2383.84
989.42	2342.88
989.59	2336.73
989.75	2371.55
989.91	2361.31
990.07	2269.15
990.23	2265.05
990.39	2291.68
990.55	2316.25
990.71	2234.33
990.87	2459.61
991.03	2402.27
991.19	2109.41
991.35	2228.19
991.51	2326.49
991.67	2478.04
991.83	2107.36
992.00	2224.09
992.16	2133.98
992.32	2191.33
992.48	2222.05
992.64	2228.19
992.80	2213.85
992.96	2158.56
993.12	2316.25
993.28	2312.16
993.44	2107.36
993.60	2185.18
993.76	2215.90
993.92	2273.25
994.08	2189.28
994.24	2060.26
994.40	2330.59
994.56	2160.61
994.72	2035.68
994.88	2015.20
995.04	2209.76
995.20	2232.29
995.36	2117.60
995.52	2273.25
995.68	2152.42
995.84	2011.11
996.00	2308.06
996.16	1955.81
996.32	2068.45
996.48	2121.70
996.64	2297.82
996.80	2060.26
996.96	2099.17
997.12	2148.32
997.28	1982.43
997.44	1939.43
997.60	2043.87
997.76	2004.96
997.92	1949.67
998.08	2160.61
998.24	1978.34
998.40	2009.06
998.56	2043.87
998.72	2043.87
998.88	1994.72
999.04	1978.34
999.20	2140.13
999.36	1994.72
999.52	2174.94
999.68	2088.93
999.84	1970.15
1000.00	2072.54
1000.16	2093.02
1000.32	1888.23
1000.48	2037.73
1000.64	1898.47
1000.80	1816.55
1000.95	1830.88
1001.11	2142.18
1001.27	1937.38
1001.43	1935.33
1001.59	1880.04
1001.75	1824.74
1001.91	2041.82
1002.07	1972.19
1002.23	1814.50
1002.39	1884.13
1002.55	1808.36
1002.71	1900.52
1002.87	1949.67
1003.03	1916.90
1003.19	1798.12
1003.34	2115.55
1003.50	1804.26
1003.66	1976.29
1003.82	1892.32
1003.98	1832.93
1004.14	2068.45
1004.30	1845.22
1004.46	1845.22
1004.62	1904.61
1004.78	1828.84
1004.94	1798.12
1005.09	1877.99
1005.25	1867.75
1005.41	1964.00
1005.57	1804.26
1005.73	1839.08
1005.89	1765.35
1006.05	1906.66
1006.21	1798.12
1006.37	1804.26
1006.52	1767.40
1006.68	1691.62
1006.84	1847.27
1007.00	1798.12
1007.16	1822.69
1007.32	1726.44
1007.48	1830.88
1007.64	1785.83
1007.79	1800.16
1007.95	1789.92
1008.11	1853.41
1008.27	1804.26
1008.43	1738.73
1008.59	1824.74
1008.75	1812.45
1008.91	1755.11
1009.06	1783.78
1009.22	1755.11
1009.38	1781.73
1009.54	1769.44
1009.70	1773.54
1009.86	1837.03
1010.01	1857.51
1010.17	1783.78
1010.33	1822.69
1010.49	1759.21
1010.65	1953.76
1010.81	1773.54
1010.96	1806.31
1011.12	1658.85
1011.28	1726.44
1011.44	1908.71
1011.60	1720.29
1011.76	1744.87
1011.91	1808.36
1012.07	1693.67
1012.23	1683.43
1012.39	1769.44
1012.55	1820.64
1012.71	1867.75
1012.86	1775.59
1013.02	1763.30
1013.18	1665.00
1013.34	1791.97
1013.50	1781.73
1013.65	1777.64
1013.81	1746.92
1013.97	1798.12
1014.13	1765.35
1014.29	1703.91
1014.44	1812.45
1014.60	1720.29
1014.76	1705.96
1014.92	1701.86
1015.07	1648.61
1015.23	1777.64
1015.39	1660.90
1015.55	1753.06
1015.71	1730.53
1015.86	1660.90
1016.02	1697.77
1016.18	1671.14
1016.34	1658.85
1016.49	1662.95
1016.65	1740.77
1016.81	1695.72
1016.97	1728.49
1017.12	1720.29
1017.28	1710.05
1017.44	1640.42
1017.60	1699.81
1017.75	1722.34
1017.91	1699.81
1018.07	1722.34
1018.23	1746.92
1018.38	1617.90
1018.54	1675.24
1018.70	1789.92
1018.86	1662.95
1019.01	1710.05
1019.17	1757.16
1019.33	1791.97
1019.49	1642.47
1019.64	1751.01
1019.80	1726.44
1019.96	1701.86
1020.12	1755.11
1020.27	1603.56
1020.43	1675.24
1020.59	1669.09
1020.74	1728.49
1020.90	1685.48
1021.06	1593.32
1021.22	1732.58
1021.37	1691.62
1021.53	1615.85
1021.69	1757.16
1021.84	1523.69
1022.00	1753.06
1022.16	1708.01
1022.31	1656.81
1022.47	1767.40
1022.63	1755.11
1022.79	1564.65
1022.94	1646.57
1023.10	1781.73
1023.26	1642.47
1023.41	1650.66
1023.57	1724.39
1023.73	1701.86
1023.88	1701.86
1024.04	1568.74
1024.20	1650.66
1024.35	1701.86
1024.51	1656.81
1024.67	1722.34
1024.82	1681.38
1024.98	1568.74
1025.14	1667.05
1025.29	1673.19
1025.45	1724.39
1025.61	1576.94
1025.76	1697.77
1025.92	1703.91
1026.08	1648.61
1026.23	1691.62
1026.39	1755.11
1026.55	1751.01
1026.70	1597.42
1026.86	1703.91
1027.02	1705.96
1027.17	1699.81
1027.33	1714.15
1027.48	1628.14
1027.64	1644.52
1027.80	1708.01
1027.95	1630.18
1028.11	1562.60
1028.27	1560.55
1028.42	1714.15
1028.58	1607.66
1028.73	1533.93
1028.89	1544.17
1029.05	1751.01
1029.20	1660.90
>>>>>End Processed Spectral Data<<<<<
