SpectraSuite Data File
++++++++++++++++++++++++++++++++++++
Date: Fri Jun 02 14:47:55 CEST 2017
User: INFO_000
Dark Spectrum Present: No
Reference Spectrum Present: No
Number of Sampled Component Spectra: 1
Spectrometers: USB4H00879
Integration Time (usec): 80000 (USB4H00879)
Spectra Averaged: 1 (USB4H00879)
Boxcar Smoothing: 0 (USB4H00879)
Correct for Electrical Dark: No (USB4H00879)
Strobe/Lamp Enabled: No (USB4H00879)
Correct for Detector Non-linearity: No (USB4H00879)
Correct for Stray Light: No (USB4H00879)
Number of Pixels in Processed Spectrum: 3648
>>>>>Begin Processed Spectral Data<<<<<
345.13	1282.03
345.34	1282.03
345.56	1282.03
345.78	1245.16
345.99	1279.98
346.21	1769.44
346.42	1714.15
346.64	1646.57
346.86	1789.92
347.07	1605.61
347.29	1658.85
347.50	1601.51
347.72	1691.62
347.94	1718.25
348.15	1552.36
348.37	1576.94
348.59	1730.53
348.80	1679.33
349.02	1890.28
349.23	1814.50
349.45	1816.55
349.67	1869.80
349.88	1798.12
350.10	1986.53
350.31	1951.71
350.53	1818.60
350.75	1964.00
350.96	1736.68
351.18	1849.32
351.39	1880.04
351.61	1834.98
351.82	1914.85
352.04	1912.80
352.26	1855.46
352.47	1927.14
352.69	1923.04
352.90	1777.64
353.12	1773.54
353.34	1843.17
353.55	1912.80
353.77	1812.45
353.98	1871.84
354.20	1818.60
354.41	1902.56
354.63	1929.19
354.85	2058.21
355.06	1902.56
355.28	1779.68
355.49	1884.13
355.71	1837.03
355.92	1920.99
356.14	1925.09
356.35	1884.13
356.57	1896.42
356.79	1880.04
357.00	1832.93
357.22	2015.20
357.43	1798.12
357.65	1890.28
357.86	1892.32
358.08	1867.75
358.29	1906.66
358.51	1953.76
358.72	2023.39
358.94	1957.86
359.16	1961.95
359.37	1916.90
359.59	1992.67
359.80	1974.24
360.02	1914.85
360.23	1978.34
360.45	1996.77
360.66	1933.28
360.88	1839.08
361.09	1939.43
361.31	2041.82
361.52	1937.38
361.74	1990.63
361.95	2050.02
362.17	1980.39
362.38	2072.54
362.60	2080.74
362.81	1945.57
363.03	1949.67
363.24	1918.95
363.46	2105.31
363.67	1970.15
363.89	1992.67
364.10	1990.63
364.32	1970.15
364.53	2115.55
364.75	1802.21
364.96	1994.72
365.18	1996.77
365.39	1970.15
365.61	1998.82
365.82	2093.02
366.04	1982.43
366.25	1941.47
366.47	2004.96
366.68	2027.49
366.90	1920.99
367.11	2109.41
367.33	2052.06
367.54	2021.35
367.76	2002.91
367.97	2101.22
368.19	2074.59
368.40	2068.45
368.62	1992.67
368.83	1951.71
369.05	2060.26
369.26	1904.61
369.48	1994.72
369.69	2013.15
369.91	2181.09
370.12	2095.07
370.33	2076.64
370.55	1966.05
370.76	2015.20
370.98	2093.02
371.19	2052.06
371.41	2070.50
371.62	2054.11
371.84	2031.58
372.05	2164.70
372.27	2066.40
372.48	2029.54
372.69	2015.20
372.91	2174.94
373.12	2174.94
373.34	2070.50
373.55	2150.37
373.77	2162.66
373.98	2019.30
374.20	2256.86
374.41	2176.99
374.62	2107.36
374.84	2187.23
375.05	2179.04
375.27	2213.85
375.48	2158.56
375.70	2131.94
375.91	2215.90
376.12	2273.25
376.34	2148.32
376.55	2236.38
376.77	2189.28
376.98	2152.42
377.19	2056.16
377.41	2115.55
377.62	2248.67
377.84	2244.57
378.05	2375.64
378.27	2164.70
378.48	2205.66
378.69	2402.27
378.91	2291.68
379.12	2179.04
379.34	2359.26
379.55	2279.39
379.76	2314.20
379.98	2273.25
380.19	2211.81
380.41	2324.44
380.62	2312.16
380.83	2148.32
381.05	2234.33
381.26	2410.46
381.47	2191.33
381.69	2183.13
381.90	2394.08
382.12	2381.79
382.33	2269.15
382.54	2213.85
382.76	2273.25
382.97	2316.25
383.19	2232.29
383.40	2381.79
383.61	2328.54
383.83	2215.90
384.04	2344.92
384.25	2371.55
384.47	2385.88
384.68	2361.31
384.89	2295.77
385.11	2346.97
385.32	2383.84
385.54	2310.11
385.75	2367.45
385.96	2385.88
386.18	2408.41
386.39	2432.99
386.60	2336.73
386.82	2383.84
387.03	2404.32
387.24	2445.27
387.46	2418.65
387.67	2422.75
387.88	2592.73
388.10	2342.88
388.31	2461.66
388.52	2605.02
388.74	2555.86
388.95	2475.99
389.16	2564.06
389.38	2559.96
389.59	2562.01
389.80	2701.27
390.02	2478.04
390.23	2639.83
390.44	2519.00
390.66	2547.67
390.87	2492.38
391.08	2592.73
391.30	2656.22
391.51	2641.88
391.72	2641.88
391.94	2623.45
392.15	2615.26
392.36	2549.72
392.58	2568.15
392.79	2615.26
393.00	2619.35
393.22	2740.18
393.43	2723.80
393.64	2772.95
393.85	2705.37
394.07	2713.56
394.28	2715.61
394.49	2740.18
394.71	2740.18
394.92	2799.57
395.13	2711.51
395.35	2787.29
395.56	2832.34
395.77	2848.72
395.98	2799.57
396.20	2879.44
396.41	2822.10
396.62	2922.45
396.84	2795.48
397.05	2873.30
397.26	2852.82
397.47	2916.31
397.69	2822.10
397.90	3000.27
398.11	2969.55
398.32	2887.64
398.54	2895.83
398.75	2908.12
398.96	2983.89
399.18	3055.57
399.39	2994.13
399.60	3045.33
399.81	2977.75
400.03	2885.59
400.24	3219.41
400.45	2987.99
400.66	3082.19
400.88	2969.55
401.09	3203.02
401.30	2975.70
401.51	3205.07
401.73	3059.67
401.94	3110.86
402.15	3121.10
402.36	3071.95
402.58	3114.96
402.79	3164.11
403.00	3215.31
403.21	3164.11
403.43	3104.72
403.64	3239.89
403.85	3043.28
404.06	3250.13
404.27	3104.72
404.49	3180.50
404.70	3178.45
404.91	3321.81
405.12	3194.83
405.34	3319.76
405.55	3387.34
405.76	3117.01
405.97	3160.02
406.19	3434.44
406.40	3250.13
406.61	3221.45
406.82	3325.90
407.03	3311.57
407.25	3301.33
407.46	3336.14
407.67	3405.77
407.88	3315.66
408.09	3381.20
408.31	3239.89
408.52	3409.87
408.73	3250.13
408.94	3301.33
409.15	3403.72
409.37	3547.08
409.58	3426.25
409.79	3395.53
410.00	3489.74
410.21	3416.01
410.43	3491.79
410.64	3506.12
410.85	3475.40
411.06	3561.42
411.27	3448.78
411.48	3594.19
411.70	3540.94
411.91	3493.83
412.12	3542.99
412.33	3497.93
412.54	3387.34
412.76	3606.47
412.97	3657.67
413.18	3518.41
413.39	3573.71
413.60	3629.00
413.81	3645.38
414.03	3635.14
414.24	3655.62
414.45	3792.84
414.66	3571.66
414.87	3639.24
415.08	3575.75
415.30	3803.08
415.51	3827.65
415.72	3731.40
415.93	3706.82
416.14	3860.42
416.35	3727.30
416.56	3923.91
416.78	3811.27
416.99	3786.69
417.20	3667.91
417.41	3956.68
417.62	3893.19
417.83	3983.30
418.04	3948.48
418.26	3878.85
418.47	3960.77
418.68	3942.34
418.89	3874.76
419.10	4075.46
419.31	3911.62
419.52	3989.44
419.73	4108.23
419.95	4011.97
420.16	4003.78
420.37	3973.06
420.58	4218.82
420.79	3891.14
421.00	4059.07
421.21	4177.86
421.42	4079.55
421.63	4069.31
421.85	4100.03
422.06	4206.53
422.27	4214.72
422.48	4243.39
422.69	4286.40
422.90	4173.76
423.11	4310.97
423.32	4374.46
423.53	4476.86
423.75	4310.97
423.96	4472.76
424.17	4413.37
424.38	4595.64
424.59	4474.81
424.80	4601.79
425.01	4274.11
425.22	4335.55
425.43	4407.23
425.64	4669.37
425.85	4818.87
426.06	4538.30
426.28	4538.30
426.49	4595.64
426.70	4448.19
426.91	4511.68
427.12	4612.03
427.33	4630.46
427.54	4566.97
427.75	4691.90
427.96	4775.86
428.17	4554.68
428.38	4782.01
428.59	4825.01
428.80	4822.97
429.01	4943.80
429.23	4827.06
429.44	5007.28
429.65	4966.32
429.86	4794.29
430.07	4888.50
430.28	4894.65
430.49	5001.14
430.70	4990.90
430.91	5011.38
431.12	5001.14
431.33	5203.89
431.54	5263.28
431.75	5052.34
431.96	5070.77
432.17	5013.43
432.38	5150.64
432.59	5412.78
432.80	5218.22
433.01	5150.64
433.22	5388.21
433.43	5156.79
433.64	5281.71
433.85	5066.67
434.06	5386.16
434.27	5255.09
434.49	5435.31
434.70	5412.78
434.91	5496.75
435.12	5353.39
435.33	5334.96
435.54	5404.59
435.75	5300.14
435.96	5365.68
436.17	5447.60
436.38	5482.41
436.59	5580.71
436.80	5384.11
437.01	5859.24
437.22	5740.46
437.43	5670.83
437.64	5511.08
437.85	5795.75
438.06	5640.11
438.27	5578.67
438.48	5601.19
438.69	5801.90
438.90	5650.35
439.11	5648.30
439.32	5793.70
439.53	5900.20
439.74	5826.47
439.95	5771.18
440.16	5808.04
440.37	5836.71
440.57	5748.65
440.78	6055.84
440.99	5935.01
441.20	5885.86
441.41	5846.95
441.62	6064.04
441.83	5812.14
442.04	6078.37
442.25	6023.08
442.46	6082.47
442.67	6180.77
442.88	6541.21
443.09	5980.07
443.30	5961.64
443.51	6170.53
443.72	6377.37
443.93	6125.47
444.14	6426.53
444.35	6158.24
444.56	6148.00
444.77	6363.04
444.98	6401.95
445.19	6442.91
445.40	6244.26
445.61	6262.69
445.81	6524.83
446.02	6365.09
446.23	6373.28
446.44	6313.89
446.65	6463.39
446.86	6481.82
447.07	6451.10
447.28	6721.43
447.49	6635.42
447.70	6524.83
447.91	6584.22
448.12	6698.91
448.33	6838.17
448.54	6750.10
448.74	6631.32
448.95	6844.31
449.16	6827.93
449.37	6936.47
449.58	6684.57
449.79	7104.40
450.00	6813.59
450.21	7010.20
450.42	6975.38
450.63	7090.07
450.84	7022.48
451.05	7032.72
451.25	7126.93
451.46	6864.79
451.67	7169.94
451.88	7333.78
452.09	7176.08
452.30	7100.31
452.51	7096.21
452.72	7323.54
452.93	7382.93
453.13	7155.60
453.34	7145.36
453.55	7387.02
453.76	7362.45
453.97	7790.47
454.18	7417.74
454.39	7532.43
454.60	7366.54
454.81	7366.54
455.01	7702.41
455.22	7286.67
455.43	7659.40
455.64	7741.32
455.85	8019.85
456.06	7956.36
456.27	7888.78
456.48	7692.17
456.68	7950.21
456.89	7880.58
457.10	8060.80
457.31	8025.99
457.52	7896.97
457.73	7905.16
457.94	8365.95
458.14	7921.54
458.35	8404.86
458.56	8042.37
458.77	8292.23
458.98	8386.43
459.19	8216.45
459.39	8535.93
459.60	8507.26
459.81	8417.15
460.02	8669.05
460.23	8359.81
460.44	8619.90
460.65	8636.28
460.85	8605.56
461.06	8740.73
461.27	8513.41
461.48	9006.97
461.69	9074.55
461.89	8677.24
462.10	8951.67
462.31	8699.77
462.52	8861.56
462.73	9133.94
462.94	9080.69
463.14	9037.69
463.35	9002.87
463.56	9508.72
463.77	9379.70
463.98	9187.19
464.18	9209.72
464.39	9338.74
464.60	9652.08
464.81	9389.94
465.02	9627.50
465.23	9580.40
465.43	9424.75
465.64	9748.33
465.85	9797.48
466.06	9684.84
466.27	10221.41
466.47	9912.17
466.68	9928.55
466.89	9793.39
467.10	9998.18
467.30	9846.63
467.51	10243.94
467.72	10301.28
467.93	9940.84
468.14	10309.47
468.34	10461.02
468.55	10411.87
468.76	10258.28
468.97	10321.76
469.17	10512.22
469.38	10661.73
469.59	10723.16
469.80	10592.09
470.01	10637.15
470.21	10876.76
470.42	10841.95
470.63	11126.61
470.84	11038.55
471.04	11202.39
471.25	11310.93
471.46	11165.53
471.67	11358.03
471.87	11159.38
472.08	11181.91
472.29	11499.34
472.50	11165.53
472.70	11468.62
472.91	11788.11
473.12	11591.50
473.33	11827.02
473.53	11804.49
473.74	11761.48
473.95	12009.29
474.16	12138.31
474.36	12015.43
474.57	12486.47
474.78	12382.02
474.99	12347.20
475.19	12511.04
475.40	12502.85
475.61	12732.22
475.81	12705.60
476.02	12967.74
476.23	12748.61
476.44	12863.29
476.64	13532.98
476.85	13231.93
477.06	13168.44
477.27	13762.35
477.47	13524.79
477.68	13487.92
477.89	13760.30
478.09	13682.48
478.30	13784.88
478.51	14006.06
478.71	13997.87
478.92	14104.36
479.13	14327.59
479.34	14221.10
479.54	14534.43
479.75	14432.04
479.96	14602.02
480.16	14552.87
480.37	14491.43
480.58	14569.25
480.78	15099.67
480.99	14939.93
481.20	15146.78
481.41	15181.59
481.61	15327.00
481.82	15544.08
482.03	15447.83
482.23	15423.25
482.44	15832.85
482.65	16000.78
482.85	16178.95
483.06	15886.09
483.27	15951.63
483.47	16307.98
483.68	16154.38
483.89	16273.16
484.09	16328.45
484.30	16414.47
484.51	16604.93
484.71	16772.86
484.92	16897.79
485.13	17035.00
485.33	16854.78
485.54	16987.90
485.75	17309.43
485.95	17381.11
486.16	17446.65
486.37	17561.33
486.57	17432.31
486.78	17772.27
486.98	17542.90
487.19	17716.98
487.40	18177.77
487.60	17966.83
487.81	18456.29
488.02	18216.68
488.22	18253.55
488.43	18372.33
488.64	18607.84
488.84	18738.91
489.05	18681.57
489.25	18931.42
489.46	18992.86
489.67	19025.63
489.87	19166.94
490.08	19058.40
490.29	19216.09
490.49	19584.73
490.70	19703.51
490.90	19488.47
491.11	19656.40
491.32	19955.41
491.52	19564.25
491.73	19922.64
491.94	19912.40
492.14	19936.98
492.35	20133.58
492.55	20270.79
492.76	20233.93
492.97	20604.61
493.17	20235.98
493.38	20848.32
493.58	21022.40
493.79	20678.34
494.00	20844.23
494.20	20901.57
494.41	21157.57
494.61	21208.76
494.82	21409.47
495.02	21288.64
495.23	21178.04
495.44	21487.29
495.64	21532.34
495.85	21735.09
496.05	21739.19
496.26	21802.68
496.47	22310.57
496.67	22068.91
496.88	22062.77
497.08	21999.28
497.29	22015.66
497.49	21829.30
497.70	22529.70
497.91	22314.67
498.11	22322.86
498.32	22519.46
498.52	22548.14
498.73	22865.57
498.93	22963.87
499.14	23000.74
499.34	22877.86
499.55	22984.35
499.76	22793.89
499.96	23361.18
500.17	23150.24
500.37	23160.48
500.58	23158.43
500.78	23348.89
500.99	23508.63
501.19	23690.90
501.40	23791.25
501.60	23355.04
501.81	23582.36
502.02	23631.51
502.22	23717.53
502.43	23996.05
502.63	24157.84
502.84	24419.98
503.04	24082.06
503.25	24041.11
503.45	24288.91
503.66	24206.99
503.86	24422.03
504.07	24774.28
504.27	24276.62
504.48	24807.05
504.68	24612.49
504.89	24819.33
505.09	24966.79
505.30	24721.03
505.50	25017.99
505.71	25433.72
505.91	25015.94
506.12	24977.03
506.32	24989.31
506.53	25177.73
506.73	25265.79
506.94	25327.23
507.14	25327.23
507.35	25335.42
507.55	25411.20
507.76	25446.01
507.96	25249.41
508.17	25454.20
508.37	25388.67
508.58	25673.34
508.78	25747.06
508.99	26074.74
509.19	25761.40
509.40	25792.12
509.60	25951.86
509.81	25777.78
510.01	25923.19
510.22	25843.32
510.42	25718.39
510.63	25904.76
510.83	26021.49
511.04	26297.97
511.24	26328.69
511.44	26338.93
511.65	26216.05
511.85	26324.59
512.06	26435.18
512.26	26701.42
512.47	26707.56
512.67	26580.59
512.88	26750.57
513.08	26443.37
513.29	26771.05
513.49	26865.25
513.69	26820.20
513.90	26938.98
514.10	27020.90
514.31	26885.73
514.51	26891.88
514.72	26807.91
514.92	26883.69
515.13	26697.32
515.33	27127.39
515.53	27117.15
515.74	27496.03
515.94	27426.40
516.15	27592.28
516.35	27240.03
516.56	27792.98
516.76	27135.59
516.96	27625.05
517.17	27741.78
517.37	27618.91
517.58	27670.11
517.78	27684.44
517.99	27745.88
518.19	28067.41
518.39	28085.84
518.60	28091.99
518.80	28108.37
519.01	28237.39
519.21	27997.78
519.41	28411.47
519.62	28493.39
519.82	28491.34
520.03	28585.55
520.23	28902.98
520.43	28597.84
520.64	28673.61
520.84	29165.12
521.05	28825.16
521.25	29130.31
521.45	28970.57
521.66	28878.41
521.86	29339.20
522.07	29115.97
522.27	29386.30
522.47	29042.24
522.68	29466.17
522.88	29365.82
523.08	29683.26
523.29	29494.85
523.49	29957.69
523.70	29853.24
523.90	30047.80
524.10	30021.17
524.31	30090.80
524.51	29791.80
524.71	30352.94
524.92	30115.38
525.12	30567.98
525.33	30522.93
525.53	30875.18
525.73	31057.45
525.94	30647.85
526.14	30709.29
526.34	31174.18
526.55	31213.09
526.75	31024.68
526.95	31624.73
527.16	31471.14
527.36	31503.90
527.56	31622.69
527.77	31630.88
527.97	31630.88
528.17	31942.17
528.38	32067.09
528.58	31929.88
528.78	32173.59
528.99	31792.67
529.19	32398.87
529.39	32198.16
529.60	32413.20
529.80	32466.45
530.00	32265.75
530.21	32710.16
530.41	32986.63
530.61	32935.43
530.82	32615.95
531.02	32964.10
531.22	33353.22
531.43	33361.41
531.63	33347.08
531.83	33764.86
532.04	33664.51
532.24	33555.97
532.44	34065.91
532.64	33947.13
532.85	34346.48
533.05	34328.05
533.25	34166.26
533.46	34307.57
533.66	34772.46
533.86	34242.04
534.07	35030.51
534.27	34645.49
534.47	34883.05
534.67	34948.59
534.88	34878.96
535.08	35020.27
535.28	35163.62
535.49	35395.04
535.69	35497.44
535.89	35661.28
536.09	36017.63
536.30	35892.70
536.50	36048.35
536.70	36191.70
536.91	36388.31
537.11	36068.83
537.31	35997.15
537.51	36468.18
537.72	36709.84
537.92	36675.02
538.12	36849.10
538.32	36582.87
538.53	36945.36
538.73	36828.62
538.93	36750.80
539.13	36724.18
539.34	37141.96
539.54	36892.11
539.74	37443.01
539.94	37080.52
540.15	37565.89
540.35	37944.76
540.55	37649.86
540.75	37410.25
540.96	37615.04
541.16	37651.91
541.36	37944.76
541.56	37670.34
541.77	38348.21
541.97	37920.19
542.17	38290.87
542.37	38241.72
542.58	38301.11
542.78	37983.68
542.98	38378.93
543.18	38757.81
543.38	38856.11
543.59	38827.44
543.79	38651.31
543.99	38686.13
544.19	39144.87
544.40	38856.11
544.60	39376.30
544.80	39130.54
545.00	39476.65
545.20	39116.20
545.41	39142.83
545.61	39261.61
545.81	39429.54
546.01	39478.69
546.21	39228.84
546.42	39341.48
546.62	39673.25
546.82	39165.35
547.02	39734.69
547.22	39859.62
547.43	39220.65
547.63	40175.00
547.83	39986.59
548.03	39853.47
548.23	40324.50
548.44	39916.96
548.64	40117.66
548.84	40572.31
549.04	40373.66
549.24	40392.09
549.45	40314.26
549.65	40310.17
549.85	40517.01
550.05	40768.91
550.25	40777.11
550.45	41188.75
550.66	40844.69
550.86	40482.20
551.06	40871.31
551.26	40854.93
551.46	41047.44
551.66	40949.14
551.87	40480.15
552.07	40854.93
552.27	40779.15
552.47	41180.56
552.67	41078.16
552.87	40932.75
553.07	41358.73
553.28	41452.94
553.48	41305.48
553.68	40945.04
553.88	41756.03
554.08	41467.27
554.28	41330.06
554.48	41158.03
554.69	41436.55
554.89	41418.12
555.09	41526.66
555.29	41538.95
555.49	41837.95
555.69	41538.95
555.89	41342.35
556.10	41903.49
556.30	41489.80
556.50	41874.82
556.70	41332.11
556.90	42038.65
557.10	41897.34
557.30	41987.46
557.50	41704.84
557.70	41917.82
557.91	42102.14
558.11	41817.47
558.31	42089.85
558.51	42116.48
558.71	41616.77
558.91	42091.90
559.11	41989.50
559.31	42280.31
559.51	42059.13
559.72	42132.86
559.92	41993.60
560.12	42247.55
560.32	42251.64
560.52	42259.84
560.72	42370.43
560.92	42696.05
561.12	42296.70
561.32	42882.42
561.52	42335.61
561.72	42478.97
561.93	42460.54
562.13	42605.94
562.33	42345.85
562.53	43206.00
562.73	42483.06
562.93	42509.69
563.13	42573.17
563.33	42648.95
563.53	42790.26
563.73	42388.86
563.93	42843.51
564.13	42890.61
564.33	42648.95
564.53	43021.68
564.74	42931.57
564.94	42720.63
565.14	43466.09
565.34	42780.02
565.54	43017.58
565.74	42941.81
565.94	43328.87
566.14	42714.48
566.34	42923.38
566.54	43636.07
566.74	42906.99
566.94	43328.87
567.14	43326.83
567.34	43122.03
567.54	43660.65
567.74	43124.08
567.94	43167.09
568.14	43582.82
568.34	43824.48
568.54	43400.55
568.74	43978.08
568.94	43713.89
569.14	43533.67
569.34	43591.01
569.54	43709.80
569.75	43681.13
569.95	43505.00
570.15	44209.50
570.35	43990.37
570.55	43662.69
570.75	43609.45
570.95	43978.08
571.15	44242.27
571.35	43967.84
571.55	44580.18
571.75	44260.70
571.95	44170.59
572.15	44193.12
572.35	44299.61
572.55	44178.78
572.75	44604.76
572.95	43861.35
573.15	44461.40
573.35	44805.46
573.55	43961.70
573.75	44545.37
573.95	44758.36
574.15	44535.13
574.35	44680.53
574.55	44672.34
574.75	44942.67
574.95	45274.45
575.15	44574.04
575.34	45057.36
575.54	45118.80
575.74	44873.04
575.94	45352.27
576.14	45262.16
576.34	45546.82
576.54	45737.29
576.74	45366.60
576.94	45374.80
577.14	45745.48
577.34	45899.08
577.54	45573.45
577.74	45561.16
577.94	45526.35
578.14	45931.84
578.34	46075.20
578.54	45608.26
578.74	45872.45
578.94	46224.70
579.14	46040.39
579.34	46230.85
579.54	45849.92
579.74	46214.46
579.94	46462.27
580.13	46677.30
580.33	46374.20
580.53	46708.02
580.73	46705.98
580.93	46519.61
581.13	46642.49
581.33	46787.89
581.53	47103.28
581.73	46953.78
581.93	46863.67
582.13	47045.94
582.33	47369.52
582.53	47183.15
582.73	47267.12
582.92	47301.93
583.12	47410.48
583.32	46767.41
583.52	47553.83
583.72	47758.63
583.92	47748.39
584.12	47498.54
584.32	47949.09
584.52	47885.61
584.72	47793.45
584.92	47967.52
585.11	48223.52
585.31	48477.47
585.51	48186.66
585.71	48170.27
585.91	48295.20
586.11	47932.71
586.31	48434.46
586.51	48313.63
586.71	48432.41
586.91	48710.94
587.10	48526.62
587.30	48882.97
587.50	48948.50
587.70	48950.55
587.90	49044.76
588.10	48532.76
588.30	49157.39
588.50	49354.00
588.69	49288.46
588.89	49055.00
589.09	49468.69
589.29	49280.27
589.49	49841.42
589.69	49077.52
589.89	49814.79
590.08	49548.56
590.28	49265.94
590.48	49587.47
590.68	49501.45
590.88	49986.82
591.08	50078.98
591.28	49308.94
591.47	50062.60
591.67	49911.05
591.87	50124.04
592.07	49947.91
592.27	50083.08
592.47	49931.53
592.67	50115.84
592.86	49843.46
593.06	50296.06
593.26	50492.67
593.46	50423.04
593.66	50363.65
593.86	50593.02
594.05	50650.36
594.25	50529.53
594.45	50529.53
594.65	50779.39
594.85	50255.11
595.05	51016.95
595.24	50791.67
595.44	50474.24
595.64	50836.73
595.84	50992.37
596.04	50889.98
596.23	51350.77
596.43	51162.36
596.63	51090.68
596.83	51385.58
597.03	51281.14
597.22	51926.25
597.42	51266.80
597.62	52151.52
597.82	51649.77
598.02	51473.65
598.21	52016.36
598.41	51326.19
598.61	52272.35
598.81	51717.35
599.01	51889.38
599.20	51715.31
599.40	51887.34
599.60	51930.34
599.80	52022.50
600.00	51975.40
600.19	52700.38
600.39	52032.74
600.59	52591.84
600.79	52516.06
600.98	52192.48
601.18	52741.34
601.38	52511.97
601.58	53152.98
601.78	52749.53
601.97	52305.12
602.17	53069.01
602.37	53417.17
602.57	52896.98
602.76	53560.53
602.96	52794.59
603.16	53269.72
603.36	52901.08
603.55	53626.06
603.75	53546.19
603.95	53607.63
604.15	53345.49
604.34	53069.01
604.54	53568.72
604.74	53343.44
604.94	53671.12
605.13	53882.06
605.33	53523.66
605.53	53505.23
605.73	53923.02
605.92	53562.57
606.12	53826.76
606.32	54076.61
606.52	53896.39
606.71	53968.07
606.91	54328.52
607.11	53761.23
607.30	54056.14
607.50	53933.26
607.70	54064.33
607.90	54062.28
608.09	53859.53
608.29	54346.95
608.49	54383.81
608.68	54025.42
608.88	54097.09
609.08	54449.35
609.28	54082.76
609.47	53867.72
609.67	54568.13
609.87	54441.15
610.06	54766.78
610.26	54604.99
610.46	54680.77
610.66	54275.27
610.85	54523.07
611.05	54183.11
611.25	54553.79
611.44	54154.44
611.64	54430.91
611.84	54408.39
612.03	54101.19
612.23	54451.39
612.43	54555.84
612.62	54572.22
612.82	54412.48
613.02	54570.18
613.21	54607.04
613.41	53943.50
613.61	54482.11
613.80	54049.99
614.00	54611.13
614.20	54310.08
614.39	54617.28
614.59	54793.40
614.79	54615.23
614.98	54387.91
615.18	54353.09
615.38	54867.13
615.57	54248.64
615.77	54996.15
615.97	54586.56
616.16	54275.27
616.36	54121.67
616.56	54379.71
616.75	54676.67
616.95	54498.50
617.15	54363.33
617.34	54785.21
617.54	54283.46
617.74	54772.92
617.93	54609.09
618.13	54043.85
618.32	54394.05
618.52	53943.50
618.72	54136.01
618.91	54301.89
619.11	54256.84
619.31	54265.03
619.50	54293.70
619.70	53767.37
619.90	54262.98
620.09	54121.67
620.29	54029.51
620.48	54152.39
620.68	54791.36
620.88	53871.82
621.07	53888.20
621.27	54232.26
621.46	53689.55
621.66	54056.14
621.86	54101.19
622.05	53697.74
622.25	54478.02
622.44	53564.62
622.64	53904.59
622.84	54164.68
623.03	53601.49
623.23	54013.13
623.42	53689.55
623.62	54117.57
623.82	54379.71
624.01	53748.94
624.21	53859.53
624.40	54222.02
624.60	53744.84
624.80	53742.80
624.99	54047.94
625.19	53388.50
625.38	54041.80
625.58	53886.15
625.77	53611.73
625.97	53841.10
626.17	53531.86
626.36	53535.95
626.56	53560.53
626.75	53177.56
626.95	53597.39
627.14	53239.00
627.34	53802.19
627.54	53433.55
627.73	53724.36
627.93	53609.68
628.12	53533.90
628.32	54047.94
628.51	53611.73
628.71	53826.76
628.90	53753.04
629.10	53425.36
629.30	53908.68
629.49	53736.65
629.69	53818.57
629.88	53603.53
630.08	53828.81
630.27	54113.48
630.47	53630.16
630.66	53499.09
630.86	53652.69
631.05	53284.05
631.25	53914.83
631.44	53867.72
631.64	53578.96
631.84	54015.18
632.03	54418.63
632.23	54029.51
632.42	54166.73
632.62	54224.07
632.81	53673.16
633.01	53703.88
633.20	53914.83
633.40	53884.11
633.59	53634.25
633.79	53351.63
633.98	53877.96
634.18	53675.21
634.37	54322.37
634.57	53771.47
634.76	54052.04
634.96	53896.39
635.15	53982.41
635.35	53783.76
635.54	53470.42
635.74	54215.88
635.93	53998.79
636.13	53892.30
636.32	54246.60
636.52	53765.32
636.71	53785.80
636.91	54021.32
637.10	54140.10
637.30	53945.54
637.49	53603.53
637.69	53509.33
637.88	54467.78
638.08	53884.11
638.27	54420.67
638.46	53734.60
638.66	53681.36
638.85	54066.38
639.05	54525.12
639.24	54576.32
639.44	54066.38
639.63	54326.47
639.83	53966.02
640.02	53951.69
640.22	54326.47
640.41	54609.09
640.61	53900.49
640.80	54334.66
640.99	53630.16
641.19	54969.53
641.38	54029.51
641.58	54408.39
641.77	54291.65
641.97	54273.22
642.16	54336.71
642.36	54756.54
642.55	54781.12
642.74	54136.01
642.94	55041.21
643.13	53951.69
643.33	54412.48
643.52	54731.96
643.72	54680.77
643.91	54592.70
644.10	54777.02
644.30	55047.35
644.49	54664.38
644.69	55108.79
644.88	54797.50
645.08	54545.60
645.27	54432.96
645.46	54840.51
645.66	55203.00
645.85	55057.59
646.05	55444.66
646.24	54967.48
646.43	55196.85
646.63	55440.56
646.82	55194.81
647.02	55364.79
647.21	55157.94
647.40	55139.51
647.60	55362.74
647.79	55065.78
647.99	55129.27
648.18	54926.52
648.37	55628.98
648.57	55422.13
648.76	55143.61
648.96	55461.04
649.15	55375.03
649.34	55671.98
649.54	55360.69
649.73	55383.22
649.92	55743.66
650.12	55450.80
650.31	56013.99
650.51	55825.58
650.70	55911.59
650.89	55483.57
651.09	56302.76
651.28	55825.58
651.47	56114.34
651.67	55930.03
651.86	55833.77
652.06	55934.12
652.25	56384.68
652.44	56013.99
652.64	55944.36
652.83	56116.39
653.02	55319.73
653.22	56341.67
653.41	55997.61
653.60	56224.93
653.80	55948.46
653.99	56202.41
654.18	55989.42
654.38	56386.72
654.57	56448.16
654.76	56100.01
654.96	55792.81
655.15	56626.34
655.34	56294.56
655.54	55860.40
655.73	56747.17
655.92	56898.72
656.12	56386.72
656.31	56513.70
656.50	56249.51
656.70	56431.78
656.89	56351.91
657.08	56521.89
657.28	56640.67
657.47	56603.81
657.66	56937.63
657.86	56581.28
658.05	56489.12
658.24	56945.82
658.43	56444.07
658.63	56767.65
658.82	57099.42
659.01	56745.12
659.21	57154.71
659.40	56878.24
659.59	56480.93
659.79	57031.83
659.98	56997.02
660.17	57056.41
660.36	57242.77
660.56	56870.04
660.75	56833.18
660.94	56659.10
661.14	56747.17
661.33	57013.40
661.52	56689.82
661.71	57463.96
661.91	57267.35
662.10	56698.01
662.29	57259.16
662.49	57293.97
662.68	57107.61
662.87	57259.16
663.06	57609.36
663.26	56980.63
663.45	57773.20
663.64	57259.16
663.83	57287.83
664.03	57832.59
664.22	57259.16
664.41	57998.48
664.60	57232.53
664.80	57461.91
664.99	57394.32
665.18	57341.08
665.37	57255.06
665.57	57388.18
665.76	57177.24
665.95	57576.59
666.14	57564.31
666.34	57472.15
666.53	57205.91
666.72	58102.92
666.91	57345.17
667.11	56990.87
667.30	57201.82
667.49	56960.15
667.68	57232.53
667.87	57042.07
668.07	57586.83
668.26	57283.73
668.45	57644.18
668.64	57121.94
668.84	58004.62
669.03	57687.18
669.22	57711.76
669.41	57392.28
669.60	57588.88
669.80	57277.59
669.99	57549.97
670.18	57644.18
670.37	57414.80
670.57	57519.25
670.76	57597.07
670.95	57654.42
671.14	57179.29
671.33	57240.73
671.53	57988.24
671.72	57762.96
671.91	57425.04
672.10	57121.94
672.29	57461.91
672.48	57298.07
672.68	57517.20
672.87	57220.25
673.06	56923.29
673.25	57232.53
673.44	56833.18
673.64	57392.28
673.83	57443.48
674.02	57377.94
674.21	56677.54
674.40	57662.61
674.59	56796.32
674.79	57121.94
674.98	57615.50
675.17	57283.73
675.36	57226.39
675.55	57525.39
675.74	57365.65
675.94	57367.70
676.13	57099.42
676.32	57062.55
676.51	57502.87
676.70	57226.39
676.89	57312.41
677.08	57160.86
677.28	56917.15
677.47	57492.63
677.66	57566.35
677.85	57394.32
678.04	57578.64
678.23	57228.44
678.42	57269.40
678.62	56990.87
678.81	57447.57
679.00	56792.22
679.19	57693.33
679.38	57187.48
679.57	56726.69
679.76	56857.76
679.96	57533.59
680.15	57611.41
680.34	56947.87
680.53	56868.00
680.72	57136.28
680.91	57095.32
681.10	56917.15
681.29	56980.63
681.48	56849.56
681.68	56900.76
681.87	56689.82
682.06	56849.56
682.25	56628.38
682.44	56693.92
682.63	56796.32
682.82	56237.22
683.01	56317.09
683.20	56605.86
683.39	57171.10
683.59	56575.14
683.78	56437.92
683.97	56353.96
684.16	56714.40
684.35	56415.40
684.54	56360.10
684.73	56300.71
684.92	56366.24
685.11	56112.30
685.30	56269.99
685.49	56538.27
685.69	56337.57
685.88	55991.47
686.07	56345.76
686.26	56009.90
686.45	56399.01
686.64	56591.52
686.83	55784.62
687.02	56145.06
687.21	56286.37
687.40	56243.37
687.59	56194.21
687.78	56091.82
687.97	56097.96
688.16	55880.88
688.35	55878.83
688.54	55766.19
688.74	55960.75
688.93	55614.64
689.12	55616.69
689.31	55508.14
689.50	55620.78
689.69	55579.82
689.88	55143.61
690.07	55618.74
690.26	55059.64
690.45	56038.57
690.64	55669.93
690.83	55442.61
691.02	55342.26
691.21	55084.22
691.40	55514.29
691.59	55592.11
691.78	54975.67
691.97	55350.45
692.16	54965.43
692.35	55190.71
692.54	55194.81
692.73	55164.09
692.92	54903.99
693.11	55205.05
693.30	55006.39
693.49	54629.57
693.68	54744.25
693.87	54932.67
694.06	54496.45
694.25	54613.18
694.44	54559.94
694.63	54699.20
694.82	54529.22
695.01	54750.40
695.20	54121.67
695.39	54514.88
695.58	54082.76
695.77	54465.73
695.96	54146.25
696.15	54465.73
696.34	54088.90
696.53	54129.86
696.72	54181.06
696.91	54222.02
697.10	54383.81
697.29	53654.73
697.48	54176.97
697.67	53564.62
697.86	53732.56
698.05	53935.30
698.24	54432.96
698.43	53581.01
698.62	53859.53
698.81	53777.61
699.00	54011.08
699.19	53126.36
699.38	53923.02
699.57	52968.66
699.76	54072.52
699.95	53189.84
700.14	53535.95
700.32	53011.67
700.51	53261.52
700.70	53634.25
700.89	53404.88
701.08	53695.69
701.27	52907.22
701.46	53189.84
701.65	52935.90
701.84	52993.24
702.03	53150.93
702.22	52978.90
702.41	53034.20
702.60	53062.87
702.79	52786.39
702.98	52368.61
703.17	52917.46
703.35	52354.27
703.54	52565.21
703.73	52471.01
703.92	53066.97
704.11	52874.46
704.30	52780.25
704.49	52573.41
704.68	52143.33
704.87	52548.83
705.06	52290.79
705.25	52360.42
705.43	52296.93
705.62	52712.67
705.81	52511.97
706.00	52053.22
706.19	51731.69
706.38	52006.12
706.57	52143.33
706.76	51999.97
706.95	52337.89
707.14	52126.95
707.32	51868.90
707.51	51934.44
707.70	51934.44
707.89	51977.45
708.08	51694.83
708.27	52022.50
708.46	52487.39
708.65	51786.99
708.84	51762.41
709.02	51877.10
709.21	52012.26
709.40	51461.36
709.59	51813.61
709.78	51283.19
709.97	51797.23
710.16	51440.88
710.34	51242.23
710.53	51436.78
710.72	51234.03
710.91	51680.49
711.10	51334.38
711.29	51436.78
711.48	51209.46
711.66	51234.03
711.85	51168.50
712.04	50910.46
712.23	50941.17
712.42	50965.75
712.61	50902.26
712.80	51252.47
712.98	51240.18
713.17	50550.01
713.36	50722.04
713.55	50627.84
713.74	50959.61
713.93	50875.64
714.11	50375.94
714.30	50492.67
714.49	50593.02
714.68	50347.26
714.87	50627.84
715.06	50572.54
715.24	50228.48
715.43	50500.86
715.62	49845.51
715.81	50853.11
716.00	50570.49
716.18	49837.32
716.37	49900.81
716.56	49874.18
716.75	50148.61
716.94	50388.22
717.12	50068.74
717.31	50101.51
717.50	50091.27
717.69	50128.13
717.88	49976.58
718.06	50062.60
718.25	50369.79
718.44	49851.66
718.63	49730.83
718.82	49630.47
719.00	49665.29
719.19	49435.92
719.38	49708.30
719.57	49190.16
719.76	49116.43
719.94	49401.10
720.13	49523.98
720.32	49399.05
720.51	49345.81
720.69	49169.68
720.88	49528.08
721.07	48915.73
721.26	48555.29
721.44	49370.38
721.63	48502.04
721.82	49167.63
722.01	48663.83
722.20	49128.72
722.38	48506.14
722.57	48139.55
722.76	48596.25
722.95	48811.29
723.13	48727.32
723.32	48524.57
723.51	48022.82
723.70	48506.14
723.88	48239.90
724.07	48104.74
724.26	48473.37
724.44	47789.35
724.63	48200.99
724.82	48383.26
725.01	48354.59
725.19	48082.21
725.38	48045.35
725.57	47684.90
725.76	47961.38
725.94	47643.94
726.13	47756.58
726.32	48127.27
726.51	47375.66
726.69	47949.09
726.88	47981.86
727.07	47883.56
727.25	47813.93
727.44	48110.88
727.63	47615.27
727.82	47682.86
728.00	47904.04
728.19	47559.98
728.38	48133.41
728.56	47607.08
728.75	48082.21
728.94	47447.34
729.12	47912.23
729.31	47928.61
729.50	47949.09
729.69	47437.10
729.87	47349.04
730.06	47758.63
730.25	47652.14
730.43	48248.10
730.62	47535.40
730.81	47906.08
730.99	47842.60
731.18	47398.19
731.37	47889.70
731.55	47869.22
731.74	48168.22
731.93	47850.79
732.11	47516.97
732.30	47799.59
732.49	47387.95
732.67	47992.10
732.86	47756.58
733.05	47666.47
733.23	47390.00
733.42	47815.97
733.61	47758.63
733.79	47379.76
733.98	47740.20
734.17	47617.32
734.35	47695.14
734.54	47691.05
734.73	47715.62
734.91	48074.02
735.10	47951.14
735.29	47736.10
735.47	47551.79
735.66	47430.96
735.84	47523.11
736.03	47017.27
736.22	47447.34
736.40	47488.30
736.59	47480.11
736.78	47379.76
736.96	47410.48
737.15	47564.07
737.33	47654.18
737.52	47523.11
737.71	47473.96
737.89	47420.72
738.08	47600.94
738.27	47328.56
738.45	47727.91
738.64	47459.63
738.82	47580.46
739.01	47011.12
739.20	47252.78
739.38	47439.15
739.57	47592.75
739.75	47691.05
739.94	47562.03
740.13	47519.02
740.31	46699.83
740.50	47486.25
740.68	47377.71
740.87	47467.82
741.06	47506.73
741.24	47318.32
741.43	46777.65
741.61	47342.89
741.80	46884.15
741.99	46986.55
742.17	46908.72
742.36	47465.77
742.54	46687.54
742.73	46970.16
742.91	47465.77
743.10	46814.52
743.29	47451.44
743.47	47045.94
743.66	47179.06
743.84	46798.13
744.03	47154.48
744.21	46781.75
744.40	47351.09
744.59	46951.73
744.77	46755.13
744.96	46302.53
745.14	46929.20
745.33	46830.90
745.51	46568.76
745.70	46968.12
745.88	46626.10
746.07	46691.64
746.26	46052.67
746.44	46462.27
746.63	46738.74
746.81	46529.85
747.00	46460.22
747.18	46333.24
747.37	46490.94
747.55	46413.12
747.74	46654.78
747.92	46007.62
748.11	46329.15
748.29	46267.71
748.48	46458.17
748.66	46335.29
748.85	46560.57
749.03	46873.91
749.22	46679.35
749.41	46462.27
749.59	46486.84
749.78	45948.23
749.96	46064.96
750.15	46093.63
750.33	46075.20
750.52	46216.51
750.70	46529.85
750.89	46007.62
751.07	45679.94
751.26	46077.25
751.44	45968.71
751.63	46003.52
751.81	46202.18
752.00	45737.29
752.18	46132.54
752.37	45684.04
752.55	45727.05
752.74	45903.17
752.92	45481.29
753.10	45692.23
753.29	45524.30
753.47	45618.50
753.66	45661.51
753.84	46177.60
754.03	45401.42
754.21	45366.60
754.40	45790.53
754.58	45698.37
754.77	45747.53
754.95	45286.73
755.14	45434.19
755.32	45704.52
755.51	44993.87
755.69	45360.46
755.88	45079.89
756.06	45368.65
756.24	45385.04
756.43	44938.58
756.61	45282.64
756.80	45331.79
756.98	44920.15
757.17	45487.43
757.35	45147.47
757.54	45241.68
757.72	44954.96
757.90	45061.46
758.09	44932.43
758.27	44897.62
758.46	44737.88
758.64	44889.43
758.83	44995.92
759.01	44768.60
759.19	44926.29
759.38	44709.21
759.56	45049.17
759.75	44637.53
759.93	44899.67
760.12	44213.60
760.30	44926.29
760.48	44766.55
760.67	44207.45
760.85	44776.79
761.04	44676.44
761.22	44662.10
761.40	44490.07
761.59	44334.43
761.77	44422.49
761.96	44635.48
762.14	44473.69
762.32	44289.37
762.51	44037.47
762.69	44094.82
762.88	44174.69
763.06	44076.38
763.24	44209.50
763.43	44641.62
763.61	44213.60
763.80	43619.69
763.98	44051.81
764.16	43736.42
764.35	43496.81
764.53	43464.04
764.72	43511.14
764.90	43836.77
765.08	43537.77
765.27	43720.04
765.45	43177.33
765.63	42657.14
765.82	42988.91
766.00	43052.40
766.18	43230.57
766.37	42915.19
766.55	43298.16
766.74	42993.01
766.92	42943.86
767.10	43038.06
767.29	43156.85
767.47	42663.28
767.65	42886.51
767.84	42853.75
768.02	43298.16
768.20	42687.86
768.39	42644.85
768.57	42782.07
768.75	42694.00
768.94	42370.43
769.12	42734.96
769.30	42556.79
769.49	42450.30
769.67	42728.82
769.85	42149.24
770.04	42218.88
770.22	42198.40
770.40	42343.80
770.59	42024.32
770.77	42444.15
770.95	42096.00
771.14	41700.74
771.32	42360.19
771.50	41491.85
771.69	41962.88
771.87	41780.61
772.05	41538.95
772.24	41514.37
772.42	41575.81
772.60	41831.81
772.78	41420.17
772.97	41776.51
773.15	41952.64
773.33	41854.34
773.52	41506.18
773.70	41303.43
773.88	41788.80
774.07	41213.32
774.25	41188.75
774.43	41819.52
774.61	41643.40
774.80	41827.71
774.98	41557.38
775.16	41420.17
775.34	41889.15
775.53	41403.78
775.71	41581.96
775.89	41731.46
776.08	41923.97
776.26	41670.02
776.44	41112.97
776.62	41155.98
776.81	41395.59
776.99	41516.42
777.17	41553.29
777.35	41653.64
777.54	41850.24
777.72	41477.51
777.90	41616.77
778.08	41846.15
778.27	41807.23
778.45	41672.07
778.63	41796.99
778.81	41524.61
779.00	42323.32
779.18	41876.86
779.36	42116.48
779.54	42005.89
779.73	41653.64
779.91	42159.48
780.09	42210.68
780.27	42194.30
780.46	41776.51
780.64	42192.25
780.82	42151.29
781.00	41958.78
781.19	41915.78
781.37	42433.91
781.55	42018.17
781.73	42452.34
781.91	42145.15
782.10	42073.47
782.28	42143.10
782.46	41821.57
782.64	42243.45
782.82	42446.20
783.01	42407.29
783.19	42274.17
783.37	42249.60
783.55	42075.52
783.74	42196.35
783.92	42030.46
784.10	42534.26
784.28	42134.91
784.46	41895.30
784.64	41698.69
784.83	42132.86
785.01	42114.43
785.19	42089.85
785.37	42327.42
785.55	41979.26
785.74	41829.76
785.92	41604.49
786.10	41923.97
786.28	42104.19
786.46	41561.48
786.64	41727.36
786.83	42061.18
787.01	41663.88
787.19	41844.10
787.37	41657.73
787.55	41289.10
787.74	41459.08
787.92	41182.60
788.10	41481.61
788.28	41188.75
788.46	41272.71
788.64	41039.25
788.82	41485.70
789.01	41336.20
789.19	41229.71
789.37	40820.11
789.55	41088.40
789.73	40750.48
789.91	40861.07
790.09	40797.59
790.28	41104.78
790.46	40285.59
790.64	40547.73
790.82	40297.88
791.00	40191.39
791.18	39900.58
791.36	40328.60
791.55	40164.76
791.73	40129.95
791.91	39695.78
792.09	40203.67
792.27	39798.18
792.45	40277.40
792.63	39548.32
792.81	39464.36
793.00	39478.69
793.18	39761.31
793.36	39527.84
793.54	39286.18
793.72	39376.30
793.90	39210.41
794.08	38806.96
794.26	38933.93
794.44	38741.42
794.62	38639.03
794.81	38686.13
794.99	38772.14
795.17	38571.44
795.35	38649.27
795.53	38632.88
795.71	38761.90
795.89	38268.34
796.07	38368.69
796.25	37799.36
796.43	37907.90
796.61	37660.10
796.80	37686.72
796.98	37776.83
797.16	37445.06
797.34	37787.07
797.52	37105.10
797.70	37799.36
797.88	37072.33
798.06	37238.22
798.24	37279.18
798.42	37125.58
798.60	37123.53
798.78	37019.08
798.96	36736.46
799.14	36718.03
799.32	36480.47
799.51	36478.42
799.69	37162.44
799.87	36457.94
800.05	36681.17
800.23	36333.01
800.41	36189.66
800.59	36283.86
800.77	35732.96
800.95	35616.22
801.13	35782.11
801.31	35235.30
801.49	35890.65
801.67	35339.75
801.85	35718.62
802.03	35589.60
802.21	35116.52
802.39	35202.53
802.57	34946.54
802.75	34956.78
802.93	34938.35
803.11	34807.28
803.29	34512.37
803.47	34463.22
803.65	34676.21
803.83	34700.78
804.01	34725.36
804.19	34289.14
804.37	34039.29
804.55	34170.36
804.73	34332.15
804.91	34203.13
805.09	34168.31
805.27	33758.72
805.45	34074.10
805.63	34016.76
805.81	34008.57
805.99	33414.66
806.17	33560.06
806.35	33609.22
806.53	33224.20
806.71	33734.14
806.89	33545.73
807.07	33201.67
807.25	33459.71
807.43	33347.08
807.61	33324.55
807.79	32902.67
807.97	32650.77
808.15	32863.75
808.33	32841.23
808.51	32431.63
808.69	32392.72
808.87	32595.47
809.05	32245.27
809.23	32247.32
809.41	32134.68
809.59	32194.07
809.77	32011.80
809.95	31899.16
810.13	32349.71
810.31	32161.30
810.49	31927.83
810.67	31743.52
810.84	31850.01
811.02	31733.28
811.20	31440.42
811.38	31704.60
811.56	31479.33
811.74	31387.17
811.92	31338.02
812.10	31671.84
812.28	31503.90
812.46	31030.82
812.64	31151.65
812.82	30830.12
813.00	31151.65
813.18	30918.18
813.36	31039.01
813.53	30852.65
813.71	30766.63
813.89	30678.57
814.07	30527.02
814.25	30678.57
814.43	30365.23
814.61	30357.04
814.79	30574.13
814.97	30379.57
815.15	30301.75
815.33	30221.87
815.50	30109.24
815.68	30223.92
815.86	30379.57
816.04	30086.71
816.22	29812.28
816.40	30293.55
816.58	29867.58
816.76	29609.53
816.94	29804.09
817.11	29771.32
817.29	29898.30
817.47	29562.43
817.65	29560.38
817.83	29394.50
818.01	29011.53
818.19	28933.70
818.37	29302.34
818.54	29122.12
818.72	29072.96
818.90	28993.09
819.08	28991.05
819.26	29122.12
819.44	29046.34
819.62	29318.72
819.80	28872.26
819.97	29183.55
820.15	28825.16
820.33	28925.51
820.51	28714.57
820.69	28245.58
820.87	28968.52
821.05	29042.24
821.22	28716.62
821.40	28434.00
821.58	28599.88
821.76	28495.44
821.94	28378.70
822.12	28077.65
822.29	28573.26
822.47	28048.98
822.65	28147.28
822.83	28157.52
823.01	28259.92
823.19	27969.11
823.36	28333.65
823.54	27627.10
823.72	27967.06
823.90	27967.06
824.08	27594.33
824.25	27698.78
824.43	27563.61
824.61	27260.51
824.79	27526.75
824.97	27313.76
825.15	27711.07
825.32	27475.55
825.50	27379.29
825.68	27522.65
825.86	27575.90
826.04	27479.64
826.21	27524.70
826.39	27362.91
826.57	27500.12
826.75	26934.88
826.93	27129.44
827.10	27063.91
827.28	26887.78
827.46	27154.02
827.64	27090.53
827.81	26857.06
827.99	26885.73
828.17	26744.42
828.35	26803.82
828.53	26898.02
828.70	26582.63
828.88	26678.89
829.06	26791.53
829.24	26609.26
829.41	26492.52
829.59	26775.14
829.77	26685.03
829.95	26685.03
830.12	26398.32
830.30	26596.97
830.48	26527.34
830.66	26343.02
830.84	26582.63
831.01	26185.33
831.19	26228.34
831.37	26267.25
831.55	26148.46
831.72	26228.34
831.90	26504.81
832.08	26324.59
832.25	26310.25
832.43	26076.79
832.61	26093.17
832.79	25769.59
832.96	25851.51
833.14	25943.67
833.32	25933.43
833.50	25871.99
833.67	25900.66
833.85	25822.84
834.03	25579.13
834.20	26007.16
834.38	26021.49
834.56	25734.78
834.74	25495.16
834.91	25540.22
835.09	25642.62
835.27	25460.35
835.44	25587.32
835.62	25607.80
835.80	25544.31
835.98	25439.87
836.15	25276.03
836.33	25314.94
836.51	25296.51
836.68	25243.26
836.86	25038.47
837.04	25110.14
837.21	25175.68
837.39	24987.27
837.57	25388.67
837.75	25110.14
837.92	24995.46
838.10	24952.45
838.28	24626.82
838.45	24725.13
838.63	24876.68
838.81	24888.96
838.98	24589.96
839.16	24690.31
839.34	24454.79
839.51	24493.71
839.69	24626.82
839.87	24641.16
840.04	24612.49
840.22	24784.52
840.40	24309.39
840.57	24422.03
840.75	24440.46
840.93	24315.53
841.10	24594.06
841.28	24780.42
841.46	24673.93
841.63	24643.21
841.81	24293.01
841.98	24360.59
842.16	24823.43
842.34	24532.62
842.51	24309.39
842.69	24321.68
842.87	24303.25
843.04	24319.63
843.22	24274.57
843.40	24155.79
843.57	24387.21
843.75	24266.38
843.92	24163.98
844.10	24018.58
844.28	24217.23
844.45	23930.51
844.63	23957.14
844.81	23875.22
844.98	24008.34
845.16	23877.27
845.33	23940.75
845.51	23893.65
845.69	23926.42
845.86	23815.83
846.04	23576.22
846.21	23887.51
846.39	23752.34
846.57	23496.35
846.74	23598.74
846.92	23604.89
847.09	23400.09
847.27	23391.90
847.45	23426.71
847.62	23750.29
847.80	23588.50
847.97	23262.88
848.15	23590.55
848.32	23146.14
848.50	23348.89
848.68	23232.16
848.85	23266.97
849.03	23113.38
849.20	23453.34
849.38	23017.12
849.56	23338.65
849.73	23074.46
849.91	22972.07
850.08	23271.07
850.26	22890.15
850.43	22904.48
850.61	22922.91
850.78	22736.55
850.96	23035.55
851.14	22875.81
851.31	23279.26
851.49	23074.46
851.66	23103.14
851.84	23115.42
852.01	23142.05
852.19	22927.01
852.36	22886.05
852.54	22826.66
852.71	22544.04
852.89	22705.83
853.07	22685.35
853.24	22578.86
853.42	22382.25
853.59	22533.80
853.77	22976.16
853.94	22619.81
854.12	22703.78
854.29	22320.81
854.47	22398.63
854.64	22550.18
854.82	22261.42
854.99	22345.39
855.17	22439.59
855.34	22462.12
855.52	22392.49
855.69	22533.80
855.87	22089.39
856.04	22238.89
856.22	22159.02
856.39	22077.10
856.57	22159.02
856.74	22240.94
856.92	22236.84
857.09	22044.34
857.27	22001.33
857.44	22357.67
857.62	21898.93
857.79	22058.67
857.97	21917.36
858.14	22095.53
858.32	21855.92
858.49	22070.96
858.67	21900.98
858.84	21767.86
859.02	21628.60
859.19	21718.71
859.37	22007.47
859.54	21845.68
859.72	21778.10
859.89	21687.99
860.06	21860.02
860.24	21417.66
860.41	21782.20
860.59	21548.73
860.76	21710.52
860.94	21470.90
861.11	21868.21
861.29	21522.10
861.46	21532.34
861.64	21300.92
861.81	21485.24
861.98	21485.24
862.16	21239.48
862.33	21290.68
862.51	21071.55
862.68	21196.48
862.86	21229.24
863.03	21135.04
863.21	21182.14
863.38	21057.21
863.55	21044.93
863.73	21141.18
863.90	21348.03
864.08	21135.04
864.25	20965.06
864.43	20983.49
864.60	21022.40
864.77	21020.35
864.95	20944.58
865.12	20852.42
865.30	21073.60
865.47	20940.48
865.64	20973.25
865.82	20729.54
865.99	21026.50
866.17	20897.47
866.34	20874.95
866.51	20645.57
866.69	20745.92
866.86	20823.75
867.04	20702.92
867.21	20647.62
867.38	20565.70
867.56	20350.67
867.73	20459.21
867.91	20608.71
868.08	20641.48
868.25	20266.70
868.43	20594.37
868.60	20104.91
868.78	20168.40
868.95	20399.82
869.12	20250.32
869.30	20192.97
869.47	20086.48
869.64	20199.12
869.82	19930.83
869.99	20127.44
870.16	20088.53
870.34	20160.20
870.51	20088.53
870.69	19887.82
870.86	20070.09
871.03	19900.11
871.21	20006.61
871.38	19926.74
871.55	19893.97
871.73	19838.67
871.90	19562.20
872.07	19703.51
872.25	19701.46
872.42	19539.67
872.59	19662.55
872.77	19478.23
872.94	19437.27
873.11	19396.31
873.29	19633.88
873.46	19467.99
873.63	19324.63
873.81	19668.69
873.98	19320.54
874.15	19498.71
874.33	19062.49
874.50	18857.70
874.67	19072.73
874.85	19283.67
875.02	19234.52
875.19	19025.63
875.37	18958.05
875.54	18847.46
875.71	19308.25
875.88	18872.03
876.06	19142.36
876.23	18665.19
876.40	18933.47
876.58	18982.62
876.75	18788.07
876.92	18798.31
877.10	18501.35
877.27	18732.77
877.44	18538.21
877.61	18380.52
877.79	18480.87
877.96	18341.61
878.13	18419.43
878.31	18374.38
878.48	18415.34
878.65	18489.06
878.82	18116.33
879.00	18235.11
879.17	18372.33
879.34	18112.24
879.51	18034.41
879.69	18165.48
879.86	18032.36
880.03	18018.03
880.21	18077.42
880.38	17985.26
880.55	17946.35
880.72	17825.52
880.90	17907.44
881.07	17698.55
881.24	18130.67
881.41	17788.66
881.59	17784.56
881.76	17776.37
881.93	17805.04
882.10	17555.19
882.28	17633.01
882.45	17684.21
882.62	17616.63
882.79	17757.94
882.96	17278.71
883.14	17757.94
883.31	17778.42
883.48	17495.80
883.65	17622.77
883.83	17565.43
884.00	17442.55
884.17	17710.83
884.34	17571.57
884.51	17590.00
884.69	17274.62
884.86	17479.41
885.03	17350.39
885.20	17202.94
885.38	17360.63
885.55	17186.55
885.72	17344.25
885.89	17086.20
886.06	17325.82
886.24	17374.97
886.41	17172.22
886.58	17254.14
886.75	17082.11
886.92	16869.12
887.10	17393.40
887.27	17100.54
887.44	17157.88
887.61	17321.72
887.78	17143.55
887.95	17008.38
888.13	16953.09
888.30	16844.54
888.47	16819.97
888.64	16914.17
888.81	16822.02
888.99	16789.25
889.16	16570.12
889.33	16502.53
889.50	16586.50
889.67	16666.37
889.84	16445.19
890.01	16498.44
890.19	16492.29
890.36	16432.90
890.53	16692.99
890.70	16234.25
890.87	16350.98
891.04	16373.51
891.22	16359.17
891.39	16279.30
891.56	16078.60
891.73	16414.47
891.90	16260.87
892.07	15988.49
892.24	16252.68
892.42	15984.40
892.59	16174.86
892.76	16107.27
892.93	16152.33
893.10	16113.42
893.27	16174.86
893.44	16099.08
893.61	15836.94
893.79	16121.61
893.96	15976.20
894.13	16070.41
894.30	16023.31
894.47	16033.55
894.64	15734.54
894.81	16049.93
894.98	16019.21
895.15	15830.80
895.33	15990.54
895.50	15765.26
895.67	15980.30
895.84	16094.99
896.01	15634.19
896.18	15957.77
896.35	16279.30
896.52	15736.59
896.69	15871.76
896.86	16056.08
897.04	15912.72
897.21	15709.97
897.38	15886.09
897.55	15857.42
897.72	15812.37
897.89	15841.04
898.06	15943.44
898.23	15718.16
898.40	15722.26
898.57	15535.89
898.74	15757.07
898.91	15509.27
899.08	15761.17
899.26	15714.06
899.43	15607.57
899.60	15642.39
899.77	15576.85
899.94	15693.58
900.11	15511.32
900.28	15599.38
900.45	15617.81
900.62	15390.49
900.79	15626.00
900.96	15589.14
901.13	15494.93
901.30	15449.88
901.47	15318.81
901.64	15570.71
901.81	15480.60
901.98	15417.11
902.15	15738.64
902.32	15558.42
902.49	15709.97
902.66	15632.15
902.83	15836.94
903.01	15560.47
903.18	15832.85
903.35	15623.95
903.52	15617.81
903.69	15542.03
903.86	15781.65
904.03	15752.98
904.20	15648.53
904.37	15752.98
904.54	15830.80
904.71	15476.50
904.88	15539.99
905.05	15503.12
905.22	15566.61
905.39	15476.50
905.56	15527.70
905.73	15499.03
905.90	15367.96
906.07	15605.52
906.24	15548.18
906.41	15306.52
906.58	15380.25
906.75	15372.05
906.92	15523.60
907.09	15351.57
907.26	15361.81
907.43	15275.80
907.60	15486.74
907.77	15490.84
907.93	15417.11
908.10	15695.63
908.27	15585.04
908.44	15361.81
908.61	15279.89
908.78	15363.86
908.95	15478.55
909.12	15488.79
909.29	15353.62
909.46	15265.56
909.63	15351.57
909.80	15349.53
909.97	15435.54
910.14	15316.76
910.31	15331.09
910.48	15329.05
910.65	15232.79
910.82	15220.50
910.99	15126.30
911.16	14999.32
911.33	15046.43
911.50	15189.78
911.66	14888.73
911.83	15132.44
912.00	14896.92
912.17	14640.93
912.34	15150.87
912.51	15032.09
912.68	14751.52
912.85	14772.00
913.02	14931.74
913.19	14683.94
913.36	14866.21
913.53	14843.68
913.70	14675.74
913.86	14970.65
914.03	14825.25
914.20	14851.87
914.37	14460.71
914.54	14458.66
914.71	14550.82
914.88	14556.96
915.05	14718.75
915.22	14186.28
915.39	14516.00
915.55	14554.91
915.72	14198.57
915.89	14153.51
916.06	14196.52
916.23	14481.19
916.40	14200.62
916.57	14026.54
916.74	14147.37
916.91	14186.28
917.07	14090.02
917.24	13936.43
917.41	14083.88
917.58	13958.96
917.75	13817.65
917.92	13741.87
918.09	13739.82
918.26	13805.36
918.42	13739.82
918.59	13788.97
918.76	13700.91
918.93	13555.51
919.10	13725.49
919.27	13745.97
919.44	13764.40
919.60	13659.95
919.77	13535.03
919.94	13408.05
920.11	13399.86
920.28	13504.31
920.45	13444.91
920.61	13238.07
920.78	13307.70
920.95	13135.67
921.12	13049.66
921.29	13029.18
921.46	13092.66
921.62	12840.76
921.79	13010.75
921.96	12859.20
922.13	12668.73
922.30	12898.11
922.47	12896.06
922.63	12488.51
922.80	12560.19
922.97	12642.11
923.14	12435.27
923.31	12631.87
923.47	12484.42
923.64	12666.69
923.81	12369.73
923.98	12300.10
924.15	12160.84
924.32	12248.90
924.48	12287.81
924.65	12240.71
924.82	12119.88
924.99	12005.19
925.15	11896.65
925.32	12046.15
925.49	11894.60
925.66	11913.03
925.83	12013.38
925.99	11585.36
926.16	11829.07
926.33	11855.69
926.50	11446.10
926.67	11814.73
926.83	11415.38
927.00	11679.57
927.17	11523.92
927.34	11392.85
927.50	11497.30
927.67	11296.60
927.84	11394.90
928.01	11401.04
928.17	11128.66
928.34	11233.11
928.51	11169.62
928.68	11122.52
928.84	11011.93
929.01	10979.16
929.18	10893.15
929.35	10911.58
929.51	10876.76
929.68	10729.31
929.85	10868.57
930.02	10813.28
930.18	10534.75
930.35	10493.79
930.52	10588.00
930.69	10450.78
930.85	10415.97
931.02	10379.11
931.19	10518.37
931.36	10430.30
931.52	10403.68
931.69	10245.99
931.86	10067.81
932.02	10157.92
932.19	10112.87
932.36	10020.71
932.53	10020.71
932.69	9791.34
932.86	9768.81
933.03	9914.22
933.19	9738.09
933.36	9613.17
933.53	9918.31
933.70	9494.38
933.86	9576.30
934.03	9654.12
934.20	9463.66
934.36	9525.10
934.53	9371.50
934.70	9314.16
934.86	9506.67
935.03	9213.81
935.20	9052.02
935.36	8986.49
935.53	8855.42
935.70	8961.91
935.86	8957.82
936.03	8839.03
936.20	8492.93
936.36	8531.84
936.53	8572.80
936.70	8503.17
936.86	8748.92
937.03	8251.27
937.20	8292.23
937.36	8370.05
937.53	8060.80
937.70	8093.57
937.86	7925.64
938.03	7837.58
938.20	7827.34
938.36	7710.60
938.53	7827.34
938.70	7491.47
938.86	7450.51
939.03	7286.67
939.20	7196.56
939.36	7131.03
939.53	7212.95
939.70	7430.03
939.86	7073.68
940.03	6948.76
940.19	6752.15
940.36	6854.55
940.53	6813.59
940.69	6586.27
940.86	6580.12
941.03	6668.19
941.19	6414.24
941.36	6401.95
941.52	6352.80
941.69	6365.09
941.86	6242.21
942.02	6164.39
942.19	6074.28
942.35	5990.31
942.52	5996.45
942.69	6074.28
942.85	5924.77
943.02	5963.68
943.18	5902.25
943.35	5771.18
943.52	5638.06
943.68	5717.93
943.85	5703.59
944.01	5717.93
944.18	5511.08
944.35	5705.64
944.51	5578.67
944.68	5365.68
944.84	5359.53
945.01	5365.68
945.17	5269.42
945.34	5361.58
945.51	5572.52
945.67	5320.62
945.84	5371.82
946.00	5298.10
946.17	5441.45
946.33	5175.22
946.50	5312.43
946.67	5246.90
946.83	5210.03
947.00	5357.49
947.16	5316.53
947.33	5191.60
947.49	5185.46
947.66	5201.84
947.82	5304.24
947.99	5136.31
948.16	5216.18
948.32	5130.16
948.49	5148.59
948.65	5304.24
948.82	5371.82
948.98	5197.74
949.15	5134.26
949.31	5173.17
949.48	5328.81
949.64	5189.55
949.81	5162.93
949.97	5203.89
950.14	5347.25
950.30	5085.11
950.47	5380.01
950.63	5255.09
950.80	5179.31
950.96	5201.84
951.13	5382.06
951.30	5402.54
951.46	5300.14
951.63	5470.12
951.79	5298.10
951.96	5275.57
952.12	5298.10
952.29	5326.77
952.45	5275.57
952.62	5255.09
952.78	5382.06
952.94	5326.77
953.11	5349.29
953.27	5334.96
953.44	5380.01
953.60	5255.09
953.77	5300.14
953.93	5279.66
954.10	5427.12
954.26	5363.63
954.43	5429.17
954.59	5488.56
954.76	5369.77
954.92	5404.59
955.09	5255.09
955.25	5318.57
955.42	5296.05
955.58	5498.80
955.75	5386.16
955.91	5259.18
956.07	5410.73
956.24	5490.60
956.40	5455.79
956.57	5400.49
956.73	5373.87
956.90	5570.48
957.06	5332.91
957.23	5343.15
957.39	5408.69
957.56	5357.49
957.72	5369.77
957.88	5418.93
958.05	5511.08
958.21	5496.75
958.38	5552.04
958.54	5369.77
958.71	5511.08
958.87	5236.66
959.03	5369.77
959.20	5541.80
959.36	5279.66
959.53	5310.38
959.69	5324.72
959.85	5613.48
960.02	5248.94
960.18	5437.36
960.35	5498.80
960.51	5414.83
960.68	5316.53
960.84	5404.59
961.00	5332.91
961.17	5322.67
961.33	5423.02
961.50	5334.96
961.66	5287.86
961.82	5294.00
961.99	5371.82
962.15	5367.73
962.31	5224.37
962.48	5310.38
962.64	5353.39
962.81	5277.62
962.97	5244.85
963.13	5423.02
963.30	5386.16
963.46	5267.38
963.62	5087.15
963.79	5318.57
963.95	5304.24
964.12	5337.01
964.28	5304.24
964.44	5306.29
964.61	5410.73
964.77	5257.14
964.93	5369.77
965.10	5343.15
965.26	5130.16
965.42	5232.56
965.59	5269.42
965.75	5136.31
965.92	5314.48
966.08	5283.76
966.24	5244.85
966.41	5042.10
966.57	5228.46
966.73	5244.85
966.90	5242.80
967.06	5175.22
967.22	5187.50
967.39	5050.29
967.55	4995.00
967.71	5224.37
967.88	5103.54
968.04	5128.11
968.20	5058.48
968.37	5230.51
968.53	5138.35
968.69	4992.95
968.85	5070.77
969.02	5156.79
969.18	5244.85
969.34	5009.33
969.51	5058.48
969.67	5111.73
969.83	4845.49
970.00	5017.52
970.16	5095.35
970.32	4982.71
970.48	5134.26
970.65	5042.10
970.81	4951.99
970.97	4980.66
971.14	4911.03
971.30	4962.23
971.46	4919.22
971.63	4829.11
971.79	4878.26
971.95	5035.96
972.11	4829.11
972.28	4841.40
972.44	4927.41
972.60	4786.10
972.76	4931.51
972.93	4771.77
973.09	4962.23
973.25	4822.97
973.42	4814.77
973.58	4911.03
973.74	4861.88
973.90	4849.59
974.07	4710.33
974.23	4700.09
974.39	4775.86
974.55	4745.14
974.72	4698.04
974.88	4587.45
975.04	4732.86
975.20	4734.90
975.37	4861.88
975.53	4556.73
975.69	4650.94
975.85	4702.14
976.01	4779.96
976.18	4624.31
976.34	4612.03
976.50	4681.66
976.66	4829.11
976.83	4626.36
976.99	4634.55
977.15	4599.74
977.31	4454.33
977.47	4632.51
977.64	4480.96
977.80	4503.48
977.96	4534.20
978.12	4444.09
978.29	4480.96
978.45	4585.40
978.61	4425.66
978.77	4566.97
978.93	4384.70
979.10	4464.57
979.26	4431.80
979.42	4509.63
979.58	4366.27
979.74	4437.95
979.91	4511.68
980.07	4345.79
980.23	4325.31
980.39	4345.79
980.55	4304.83
980.71	4317.12
980.88	4323.26
981.04	4380.61
981.20	4310.97
981.36	4319.17
981.52	4339.65
981.68	4235.20
981.85	4306.88
982.01	4267.97
982.17	4251.58
982.33	4327.36
982.49	4304.83
982.65	4267.97
982.82	4329.41
982.98	4339.65
983.14	4159.42
983.30	4261.82
983.46	4233.15
983.62	4161.47
983.79	4206.53
983.95	4081.60
984.11	4136.90
984.27	4163.52
984.43	4263.87
984.59	4149.18
984.75	4161.47
984.91	4032.45
985.08	4177.86
985.24	4132.80
985.40	4067.27
985.56	4128.70
985.72	4048.83
985.88	4218.82
986.04	4050.88
986.20	4136.90
986.37	4059.07
986.53	3905.48
986.69	4118.47
986.85	3971.01
987.01	3944.39
987.17	3987.40
987.33	3913.67
987.49	4005.83
987.65	3958.72
987.82	3923.91
987.98	3780.55
988.14	3985.35
988.30	3960.77
988.46	3811.27
988.62	3868.61
988.78	3827.65
988.94	3977.16
989.10	3866.56
989.26	3837.89
989.42	3790.79
989.59	3833.80
989.75	3837.89
989.91	3852.23
990.07	3733.45
990.23	3801.03
990.39	3680.20
990.55	3878.85
990.71	3723.21
990.87	3661.77
991.03	3788.74
991.19	3647.43
991.35	3702.73
991.51	3688.39
991.67	3833.80
991.83	3751.88
992.00	3735.50
992.16	3676.10
992.32	3672.01
992.48	3823.56
992.64	3547.08
992.80	3659.72
992.96	3688.39
993.12	3616.71
993.28	3647.43
993.44	3557.32
993.60	3629.00
993.76	3616.71
993.92	3542.99
994.08	3592.14
994.24	3585.99
994.40	3526.60
994.56	3669.96
994.72	3524.55
994.88	3581.90
995.04	3454.92
995.20	3536.84
995.36	3524.55
995.52	3602.38
995.68	3565.51
995.84	3432.40
996.00	3553.23
996.16	3563.47
996.32	3420.11
996.48	3461.07
996.64	3518.41
996.80	3434.44
996.96	3594.19
997.12	3344.33
997.28	3379.15
997.44	3416.01
997.60	3293.13
997.76	3348.43
997.92	3358.67
998.08	3325.90
998.24	3225.55
998.40	3399.63
998.56	3448.78
998.72	3340.24
998.88	3289.04
999.04	3305.42
999.20	3352.52
999.36	3280.85
999.52	3303.37
999.68	3291.09
999.84	3330.00
1000.00	3248.08
1000.16	3270.61
1000.32	3141.58
1000.48	3352.52
1000.64	3186.64
1000.80	3071.95
1000.95	3133.39
1001.11	3241.93
1001.27	3155.92
1001.43	3252.17
1001.59	3063.76
1001.75	3049.43
1001.91	3166.16
1002.07	3035.09
1002.23	3104.72
1002.39	3184.59
1002.55	3141.58
1002.71	3119.06
1002.87	3110.86
1003.03	3059.67
1003.19	3033.04
1003.34	3049.43
1003.50	3045.33
1003.66	3137.49
1003.82	3174.35
1003.98	3014.61
1004.14	3092.43
1004.30	2842.58
1004.46	3004.37
1004.62	3043.28
1004.78	2924.50
1004.94	3051.47
1005.09	3006.42
1005.25	2994.13
1005.41	2858.96
1005.57	2947.03
1005.73	2936.79
1005.89	2942.93
1006.05	2957.27
1006.21	3004.37
1006.37	2930.64
1006.52	2830.29
1006.68	2818.00
1006.84	2947.03
1007.00	2861.01
1007.16	2887.64
1007.32	2838.48
1007.48	2912.21
1007.64	2936.79
1007.79	2904.02
1007.95	2828.24
1008.11	2947.03
1008.27	2836.44
1008.43	2953.17
1008.59	2848.72
1008.75	2936.79
1008.91	2848.72
1009.06	2775.00
1009.22	2863.06
1009.38	2783.19
1009.54	2852.82
1009.70	2664.41
1009.86	2783.19
1010.01	2799.57
1010.17	2672.60
1010.33	2752.47
1010.49	2854.87
1010.65	2787.29
1010.81	2688.98
1010.96	2822.10
1011.12	2772.95
1011.28	2613.21
1011.44	2731.99
1011.60	2699.22
1011.76	2695.13
1011.91	2748.37
1012.07	2658.26
1012.23	2543.58
1012.39	2613.21
1012.55	2654.17
1012.71	2600.92
1012.86	2607.06
1013.02	2734.04
1013.18	2615.26
1013.34	2627.54
1013.50	2682.84
1013.65	2596.82
1013.81	2605.02
1013.97	2582.49
1014.13	2617.30
1014.29	2623.45
1014.44	2658.26
1014.60	2506.71
1014.76	2619.35
1014.92	2613.21
1015.07	2607.06
1015.23	2674.65
1015.39	2492.38
1015.55	2521.05
1015.71	2594.78
1015.86	2543.58
1016.02	2408.41
1016.18	2557.91
1016.34	2506.71
1016.49	2504.67
1016.65	2559.96
1016.81	2418.65
1016.97	2449.37
1017.12	2535.39
1017.28	2482.14
1017.44	2420.70
1017.60	2498.52
1017.75	2471.90
1017.91	2455.51
1018.07	2416.60
1018.23	2412.51
1018.38	2488.28
1018.54	2469.85
1018.70	2420.70
1018.86	2367.45
1019.01	2467.80
1019.17	2398.17
1019.33	2445.27
1019.49	2396.12
1019.64	2400.22
1019.80	2437.08
1019.96	2416.60
1020.12	2441.18
1020.27	2344.92
1020.43	2359.26
1020.59	2471.90
1020.74	2346.97
1020.90	2461.66
1021.06	2322.40
1021.22	2435.03
1021.37	2334.68
1021.53	2322.40
1021.69	2314.20
1021.84	2189.28
1022.00	2283.49
1022.16	2310.11
1022.31	2277.34
1022.47	2258.91
1022.63	2371.55
1022.79	2273.25
1022.94	2351.07
1023.10	2357.21
1023.26	2349.02
1023.41	2334.68
1023.57	2189.28
1023.73	2273.25
1023.88	2265.05
1024.04	2207.71
1024.20	2283.49
1024.35	2205.66
1024.51	2310.11
1024.67	2156.51
1024.82	2322.40
1024.98	2113.50
1025.14	2269.15
1025.29	2166.75
1025.45	2260.96
1025.61	2181.09
1025.76	2183.13
1025.92	2148.32
1026.08	2236.38
1026.23	2265.05
1026.39	2285.53
1026.55	2211.81
1026.70	2115.55
1026.86	2074.59
1027.02	2303.96
1027.17	2256.86
1027.33	2129.89
1027.48	2152.42
1027.64	2150.37
1027.80	2107.36
1027.95	2183.13
1028.11	1968.10
1028.27	2127.84
1028.42	2154.46
1028.58	2076.64
1028.73	2097.12
1028.89	2080.74
1029.05	2150.37
1029.20	2068.45
>>>>>End Processed Spectral Data<<<<<
