SpectraSuite Data File
++++++++++++++++++++++++++++++++++++
Date: Fri Jun 02 14:47:55 CEST 2017
User: INFO_000
Dark Spectrum Present: No
Reference Spectrum Present: No
Number of Sampled Component Spectra: 1
Spectrometers: USB4H00879
Integration Time (usec): 80000 (USB4H00879)
Spectra Averaged: 1 (USB4H00879)
Boxcar Smoothing: 0 (USB4H00879)
Correct for Electrical Dark: No (USB4H00879)
Strobe/Lamp Enabled: No (USB4H00879)
Correct for Detector Non-linearity: No (USB4H00879)
Correct for Stray Light: No (USB4H00879)
Number of Pixels in Processed Spectrum: 3648
>>>>>Begin Processed Spectral Data<<<<<
345.13	1294.32
345.34	1294.32
345.56	1294.32
345.78	1277.93
345.99	1310.70
346.21	1683.43
346.42	1712.10
346.64	1644.52
346.86	1746.92
347.07	1626.09
347.29	1751.01
347.50	1619.94
347.72	1621.99
347.94	1763.30
348.15	1562.60
348.37	1593.32
348.59	1681.38
348.80	1595.37
349.02	1791.97
349.23	1837.03
349.45	1859.56
349.67	1877.99
349.88	1767.40
350.10	2004.96
350.31	1923.04
350.53	1832.93
350.75	1972.19
350.96	1806.31
351.18	1849.32
351.39	1814.50
351.61	1818.60
351.82	1908.71
352.04	1920.99
352.26	1890.28
352.47	1892.32
352.69	1939.43
352.90	1789.92
353.12	1832.93
353.34	1925.09
353.55	1939.43
353.77	1839.08
353.98	1869.80
354.20	1855.46
354.41	1925.09
354.63	1982.43
354.85	2037.73
355.06	1904.61
355.28	1820.64
355.49	1908.71
355.71	1863.65
355.92	1843.17
356.14	1941.47
356.35	1927.14
356.57	1869.80
356.79	1935.33
357.00	1812.45
357.22	1937.38
357.43	1851.36
357.65	1957.86
357.86	1839.08
358.08	1972.19
358.29	1896.42
358.51	1972.19
358.72	2015.20
358.94	1898.47
359.16	1988.58
359.37	1970.15
359.59	1966.05
359.80	1968.10
360.02	1990.63
360.23	1951.71
360.45	1978.34
360.66	1886.18
360.88	1816.55
361.09	1949.67
361.31	2074.59
361.52	1959.91
361.74	2084.83
361.95	2019.30
362.17	1927.14
362.38	2152.42
362.60	2013.15
362.81	2043.87
363.03	2007.01
363.24	1986.53
363.46	2050.02
363.67	2062.30
363.89	2023.39
364.10	1941.47
364.32	1974.24
364.53	2004.96
364.75	1935.33
364.96	2068.45
365.18	2045.92
365.39	2095.07
365.61	1974.24
365.82	2107.36
366.04	2041.82
366.25	1931.23
366.47	2070.50
366.68	2093.02
366.90	1951.71
367.11	2025.44
367.33	2105.31
367.54	2105.31
367.76	2041.82
367.97	2115.55
368.19	1947.62
368.40	2082.78
368.62	2027.49
368.83	1966.05
369.05	2074.59
369.26	2023.39
369.48	2009.06
369.69	1957.86
369.91	1998.82
370.12	2076.64
370.33	2107.36
370.55	1998.82
370.76	2105.31
370.98	2093.02
371.19	2086.88
371.41	2027.49
371.62	2103.26
371.84	2000.87
372.05	2119.65
372.27	2025.44
372.48	2033.63
372.69	2056.16
372.91	2160.61
373.12	2150.37
373.34	2142.18
373.55	2050.02
373.77	2095.07
373.98	2097.12
374.20	2189.28
374.41	2215.90
374.62	2168.80
374.84	2160.61
375.05	2205.66
375.27	2209.76
375.48	2195.42
375.70	2195.42
375.91	2154.46
376.12	2297.82
376.34	2131.94
376.55	2113.50
376.77	2254.81
376.98	2142.18
377.19	2144.22
377.41	2154.46
377.62	2185.18
377.84	2146.27
378.05	2283.49
378.27	2191.33
378.48	2328.54
378.69	2412.51
378.91	2344.92
379.12	2226.14
379.34	2154.46
379.55	2263.01
379.76	2267.10
379.98	2183.13
380.19	2232.29
380.41	2203.61
380.62	2308.06
380.83	2236.38
381.05	2189.28
381.26	2238.43
381.47	2271.20
381.69	2275.29
381.90	2396.12
382.12	2346.97
382.33	2332.64
382.54	2279.39
382.76	2351.07
382.97	2301.92
383.19	2205.66
383.40	2287.58
383.61	2322.40
383.83	2248.67
384.04	2258.91
384.25	2349.02
384.47	2394.08
384.68	2416.60
384.89	2281.44
385.11	2355.16
385.32	2396.12
385.54	2367.45
385.75	2248.67
385.96	2478.04
386.18	2449.37
386.39	2373.60
386.60	2277.34
386.82	2418.65
387.03	2447.32
387.24	2469.85
387.46	2412.51
387.67	2525.15
387.88	2611.16
388.10	2441.18
388.31	2557.91
388.52	2621.40
388.74	2484.19
388.95	2541.53
389.16	2428.89
389.38	2461.66
389.59	2590.68
389.80	2639.83
390.02	2537.43
390.23	2617.30
390.44	2572.25
390.66	2519.00
390.87	2459.61
391.08	2660.31
391.30	2680.79
391.51	2664.41
391.72	2674.65
391.94	2576.34
392.15	2605.02
392.36	2590.68
392.58	2551.77
392.79	2723.80
393.00	2727.89
393.22	2740.18
393.43	2736.09
393.64	2832.34
393.85	2707.41
394.07	2648.02
394.28	2664.41
394.49	2656.22
394.71	2797.53
394.92	2803.67
395.13	2705.37
395.35	2674.65
395.56	2707.41
395.77	2770.90
395.98	2799.57
396.20	2936.79
396.41	2811.86
396.62	2887.64
396.84	2820.05
397.05	2768.85
397.26	2744.28
397.47	2996.18
397.69	2863.06
397.90	3088.34
398.11	2879.44
398.32	2930.64
398.54	2877.40
398.75	2879.44
398.96	2885.59
399.18	3030.99
399.39	2969.55
399.60	3047.38
399.81	2906.07
400.03	2895.83
400.24	3237.84
400.45	2977.75
400.66	2959.31
400.88	2973.65
401.09	3215.31
401.30	3016.66
401.51	3076.05
401.73	3074.00
401.94	3108.82
402.15	2987.99
402.36	3076.05
402.58	3100.62
402.79	3184.59
403.00	3117.01
403.21	3217.36
403.43	3114.96
403.64	3149.78
403.85	3086.29
404.06	3170.26
404.27	3008.47
404.49	3172.30
404.70	3084.24
404.91	3237.84
405.12	3182.54
405.34	3188.69
405.55	3387.34
405.76	3164.11
405.97	3209.17
406.19	3274.70
406.40	3194.83
406.61	3344.33
406.82	3334.09
407.03	3284.94
407.25	3293.13
407.46	3342.28
407.67	3270.61
407.88	3438.54
408.09	3321.81
408.31	3254.22
408.52	3346.38
408.73	3303.37
408.94	3299.28
409.15	3403.72
409.37	3440.59
409.58	3581.90
409.79	3344.33
410.00	3452.88
410.21	3514.31
410.43	3336.14
410.64	3493.83
410.85	3473.36
411.06	3448.78
411.27	3602.38
411.48	3565.51
411.70	3583.95
411.91	3581.90
412.12	3661.77
412.33	3661.77
412.54	3600.33
412.76	3647.43
412.97	3669.96
413.18	3555.27
413.39	3614.66
413.60	3631.05
413.81	3557.32
414.03	3596.23
414.24	3610.57
414.45	3780.55
414.66	3542.99
414.87	3729.35
415.08	3708.87
415.30	3866.56
415.51	3862.47
415.72	3762.12
415.93	3712.97
416.14	3737.54
416.35	3821.51
416.56	3854.28
416.78	3717.06
416.99	3860.42
417.20	3936.20
417.41	3921.86
417.62	3911.62
417.83	3938.24
418.04	3893.19
418.26	4018.11
418.47	3813.32
418.68	3977.16
418.89	3940.29
419.10	4073.41
419.31	3880.90
419.52	4014.02
419.73	4110.27
419.95	4179.90
420.16	4073.41
420.37	4057.03
420.58	4122.56
420.79	3973.06
421.00	4020.16
421.21	4235.20
421.42	4038.59
421.63	4163.52
421.85	4075.46
422.06	4143.04
422.27	4079.55
422.48	4198.34
422.69	4153.28
422.90	4261.82
423.11	4224.96
423.32	4249.54
423.53	4327.36
423.75	4310.97
423.96	4392.89
424.17	4356.03
424.38	4370.37
424.59	4349.89
424.80	4489.15
425.01	4376.51
425.22	4411.32
425.43	4308.93
425.64	4587.45
425.85	4560.83
426.06	4548.54
426.28	4440.00
426.49	4376.51
426.70	4497.34
426.91	4589.50
427.12	4562.87
427.33	4673.46
427.54	4505.53
427.75	4714.42
427.96	4720.57
428.17	4743.10
428.38	4788.15
428.59	4763.58
428.80	4818.87
429.01	4616.12
429.23	4802.49
429.44	4960.18
429.65	4988.85
429.86	4769.72
430.07	4769.72
430.28	4786.10
430.49	4964.28
430.70	4970.42
430.91	5031.86
431.12	4935.60
431.33	5121.97
431.54	5042.10
431.75	4992.95
431.96	5046.20
432.17	5011.38
432.38	4933.56
432.59	5289.90
432.80	5140.40
433.01	5173.17
433.22	5250.99
433.43	5236.66
433.64	5164.98
433.85	5162.93
434.06	5349.29
434.27	5203.89
434.49	5339.05
434.70	5377.97
434.91	5355.44
435.12	5439.40
435.33	5525.42
435.54	5500.84
435.75	5205.94
435.96	5453.74
436.17	5210.03
436.38	5496.75
436.59	5513.13
436.80	5404.59
437.01	5674.92
437.22	5771.18
437.43	5656.49
437.64	5228.46
437.85	5580.71
438.06	5703.59
438.27	5560.24
438.48	5666.73
438.69	5808.04
438.90	5699.50
439.11	5590.95
439.32	5869.48
439.53	5877.67
439.74	5732.26
439.95	5787.56
440.16	5828.52
440.37	5961.64
440.57	5722.02
440.78	5916.58
440.99	5844.90
441.20	5947.30
441.41	5752.74
441.62	5773.22
441.83	5760.94
442.04	6193.06
442.25	6082.47
442.46	5996.45
442.67	6139.81
442.88	6414.24
443.09	6064.04
443.30	6111.14
443.51	6162.34
443.72	6303.65
443.93	6074.28
444.14	6424.48
444.35	6131.62
444.56	6459.29
444.77	6371.23
444.98	6424.48
445.19	6430.62
445.40	6238.11
445.61	6412.19
445.81	6348.70
446.02	6412.19
446.23	6410.14
446.44	6205.35
446.65	6666.14
446.86	6537.12
447.07	6662.04
447.28	6629.27
447.49	6721.43
447.70	6549.40
447.91	6682.52
448.12	6717.34
448.33	6913.94
448.54	6797.21
448.74	6727.58
448.95	6768.54
449.16	6637.47
449.37	7262.10
449.58	6840.22
449.79	7094.16
450.00	6823.83
450.21	6977.43
450.42	7065.49
450.63	7163.79
450.84	7020.44
451.05	6948.76
451.25	6967.19
451.46	6936.47
451.67	7200.66
451.88	7315.34
452.09	7106.45
452.30	6991.77
452.51	7122.84
452.72	7145.36
452.93	7436.17
453.13	7157.65
453.34	7214.99
453.55	7415.69
453.76	7245.71
453.97	7567.24
454.18	7411.60
454.39	7616.40
454.60	7430.03
454.81	7514.00
455.01	7847.82
455.22	7368.59
455.43	7630.73
455.64	7839.62
455.85	7821.19
456.06	7851.91
456.27	7909.26
456.48	7800.71
456.68	7968.65
456.89	7878.54
457.10	7831.43
457.31	8015.75
457.52	7911.30
457.73	8075.14
457.94	8056.71
458.14	8042.37
458.35	8189.83
458.56	8099.72
458.77	7956.36
458.98	8333.18
459.19	8259.46
459.39	8357.76
459.60	8408.96
459.81	8368.00
460.02	8529.79
460.23	8552.32
460.44	8683.39
460.65	8683.39
460.85	8720.25
461.06	8613.76
461.27	8535.93
461.48	8775.55
461.69	8877.94
461.89	8599.42
462.10	8806.27
462.31	8634.24
462.52	8703.87
462.73	8818.55
462.94	8937.34
463.14	8863.61
463.35	8753.02
463.56	9357.17
463.77	9217.91
463.98	9129.84
464.18	9166.71
464.39	9385.84
464.60	9484.14
464.81	9428.85
465.02	9504.62
465.23	9709.42
465.43	9518.96
465.64	9717.61
465.85	9512.81
466.06	9527.15
466.27	9940.84
466.47	9887.59
466.68	9727.85
466.89	9602.93
467.10	10127.21
467.30	9826.15
467.51	9975.66
467.72	10301.28
467.93	10063.72
468.14	10084.20
468.34	10266.47
468.55	10164.07
468.76	10356.58
468.97	10141.54
469.17	10639.20
469.38	10637.15
469.59	10536.80
469.80	10524.51
470.01	10717.02
470.21	10921.82
470.42	11013.98
470.63	11122.52
470.84	10979.16
471.04	10991.45
471.25	11087.70
471.46	11216.72
471.67	11415.38
471.87	11196.25
472.08	11329.36
472.29	11480.91
472.50	11290.45
472.70	11276.12
472.91	11343.70
473.12	11781.96
473.33	11681.61
473.53	11908.94
473.74	11970.38
473.95	11939.66
474.16	12177.22
474.36	12150.60
474.57	12459.84
474.78	12609.34
474.99	12263.24
475.19	12500.80
475.40	12715.84
475.61	12748.61
475.81	12726.08
476.02	12998.46
476.23	12971.83
476.44	13260.60
476.64	13145.91
476.85	13391.67
477.06	13180.73
477.27	13504.31
477.47	13743.92
477.68	13516.59
477.89	13913.90
478.09	13750.06
478.30	13920.04
478.51	14247.72
478.71	14206.76
478.92	14120.74
479.13	14274.34
479.34	14507.81
479.54	14585.63
479.75	14550.82
479.96	14636.83
480.16	14825.25
480.37	14978.84
480.58	14933.79
480.78	15306.52
480.99	14964.51
481.20	15462.16
481.41	15071.00
481.61	15535.89
481.82	15617.81
482.03	15630.10
482.23	15695.63
482.44	15832.85
482.65	16183.05
482.85	16404.23
483.06	16336.65
483.27	16111.37
483.47	16367.37
483.68	16477.96
483.89	16523.01
484.09	16387.85
484.30	16541.44
484.51	16959.23
484.71	16815.87
484.92	16776.96
485.13	17118.97
485.33	17032.96
485.54	17227.51
485.75	17286.90
485.95	17258.23
486.16	17522.42
486.37	17843.95
486.57	17602.29
486.78	17684.21
486.98	17958.64
487.19	17698.55
487.40	18155.24
487.60	18274.03
487.81	18198.25
488.02	18245.35
488.22	18284.26
488.43	18628.32
488.64	18585.32
488.84	18546.40
489.05	18816.74
489.25	18753.25
489.46	19058.40
489.67	19021.53
489.87	19060.45
490.08	19281.63
490.29	19482.33
490.49	19549.91
490.70	19504.85
490.90	19773.14
491.11	19840.72
491.32	19814.10
491.52	19971.79
491.73	19842.77
491.94	20027.09
492.14	19904.21
492.35	20190.92
492.55	20346.57
492.76	20541.13
492.97	20618.95
493.17	20469.45
493.38	20543.17
493.58	20764.36
493.79	20772.55
494.00	20723.40
494.20	20932.29
494.41	21061.31
494.61	21022.40
494.82	21063.36
495.02	21219.00
495.23	21628.60
495.44	21411.51
495.64	21511.86
495.85	21651.13
496.05	21450.42
496.26	21493.43
496.47	21999.28
496.67	21878.45
496.88	22177.45
497.08	21872.31
497.29	22519.46
497.49	21970.61
497.70	22333.10
497.91	22279.85
498.11	22537.90
498.32	22533.80
498.52	22556.33
498.73	22791.84
498.93	22822.56
499.14	22648.49
499.34	23029.41
499.55	23080.61
499.76	22525.61
499.96	22832.80
500.17	22769.32
500.37	23340.70
500.58	22826.66
500.78	23203.49
500.99	23092.90
501.19	23658.14
501.40	23230.11
501.60	23174.81
501.81	23662.23
502.02	23676.57
502.22	23443.10
502.43	23654.04
502.63	24041.11
502.84	23918.23
503.04	23889.56
503.25	23836.31
503.45	23973.52
503.66	24393.36
503.86	23828.12
504.07	24055.44
504.27	23955.09
504.48	24577.67
504.68	24563.34
504.89	24684.17
505.09	24626.82
505.30	24604.30
505.50	24659.59
505.71	24721.03
505.91	24696.46
506.12	24667.78
506.32	24587.91
506.53	24921.73
506.73	24630.92
506.94	24911.49
507.14	24784.52
507.35	25097.86
507.55	24929.92
507.76	25202.30
507.96	24929.92
508.17	25251.45
508.37	25144.96
508.58	25335.42
508.78	25587.32
508.99	25773.69
509.19	25917.04
509.40	25585.27
509.60	25777.78
509.81	25626.23
510.01	25546.36
510.22	25683.58
510.42	25749.11
510.63	25761.40
510.83	25587.32
511.04	25763.45
511.24	26207.86
511.44	25921.14
511.65	26220.14
511.85	26123.89
512.06	26216.05
512.26	26568.30
512.47	26359.41
512.67	26498.67
512.88	26424.94
513.08	26355.31
513.29	26437.23
513.49	26551.91
513.69	26650.22
513.90	26713.70
514.10	26945.12
514.31	26783.34
514.51	27072.10
514.72	26906.21
514.92	26900.07
515.13	27135.59
515.33	26924.65
515.53	27184.74
515.74	27065.96
515.94	27235.94
516.15	27137.63
516.35	27174.50
516.56	27666.01
516.76	27461.21
516.96	27403.87
517.17	27749.98
517.37	27522.65
517.58	27866.71
517.78	27760.22
517.99	28003.92
518.19	28020.31
518.39	28106.32
518.60	28225.11
518.80	27999.83
519.01	28454.48
519.21	28087.89
519.41	28503.63
519.62	28366.42
519.82	28667.47
520.03	28855.88
520.23	28694.09
520.43	28638.80
520.64	29234.75
520.84	29169.22
521.05	29140.55
521.25	29175.36
521.45	29492.80
521.66	29226.56
521.86	29599.29
522.07	29638.20
522.27	29529.66
522.47	29369.92
522.68	29838.90
522.88	29673.02
523.08	29929.02
523.29	30113.33
523.49	30043.70
523.70	30428.72
523.90	30430.77
524.10	30328.37
524.31	30373.42
524.51	30207.54
524.71	30799.40
524.92	30889.51
525.12	31096.36
525.33	30762.54
525.53	30866.98
525.73	31159.84
525.94	31168.04
526.14	31622.69
526.34	31227.43
526.55	31700.51
526.75	31559.20
526.95	31778.33
527.16	31561.25
527.36	31991.32
527.56	31989.27
527.77	32339.47
527.97	32056.85
528.17	32396.82
528.38	32615.95
528.58	32364.05
528.78	32624.14
528.99	32431.63
529.19	32773.64
529.39	32056.85
529.60	32736.78
529.80	32822.80
530.00	32830.99
530.21	32976.39
530.41	33467.91
530.61	33250.82
530.82	33342.98
531.02	33023.50
531.22	33756.67
531.43	33609.22
531.63	33588.74
531.83	34086.39
532.04	33934.84
532.24	33938.94
532.44	34219.51
532.64	34457.07
532.85	34291.19
533.05	34076.15
533.25	34715.12
533.46	34481.65
533.66	35134.95
533.86	34704.88
534.07	34950.63
534.27	35268.07
534.47	35212.77
534.67	35245.54
534.88	35323.36
535.08	35407.33
535.28	35395.04
535.49	35827.17
535.69	36077.02
535.89	35593.70
536.09	36029.91
536.30	36128.22
536.50	36322.77
536.70	36175.32
536.91	36062.68
537.11	36466.13
537.31	36339.16
537.51	36697.55
537.72	36767.18
537.92	36713.94
538.12	36687.31
538.32	36457.94
538.53	37191.11
538.73	37117.39
538.93	36857.29
539.13	37221.83
539.34	37066.19
539.54	37156.30
539.74	37334.47
539.94	37344.71
540.15	37473.73
540.35	37475.78
540.55	37424.58
540.75	37637.57
540.96	37621.19
541.16	38071.74
541.36	37821.89
541.56	37719.49
541.77	38327.74
541.97	37969.34
542.17	38227.38
542.37	37977.53
542.58	38122.94
542.78	38188.47
542.98	38397.37
543.18	37967.29
543.38	38956.46
543.59	38852.02
543.79	38598.07
543.99	38243.77
544.19	39083.44
544.40	38639.03
544.60	38868.40
544.80	38858.16
545.00	39013.80
545.20	39493.03
545.41	38913.45
545.61	38907.31
545.81	39087.53
546.01	39247.27
546.21	38905.26
546.42	39091.63
546.62	39673.25
546.82	39003.56
547.02	39716.26
547.22	39429.54
547.43	39216.55
547.63	39523.75
547.83	39888.29
548.03	39427.49
548.23	39933.34
548.44	39425.45
548.64	39665.06
548.84	39638.44
549.04	39941.53
549.24	40156.57
549.45	40191.39
549.65	39812.51
549.85	40101.28
550.05	40582.55
550.25	39996.83
550.45	40433.05
550.66	40220.06
550.86	40009.12
551.06	40332.70
551.26	40084.89
551.46	40531.35
551.66	40183.19
551.87	40402.33
552.07	40521.11
552.27	40334.74
552.47	40666.52
552.67	40605.08
552.87	40818.07
553.07	40719.76
553.28	40805.78
553.48	40672.66
553.68	40727.95
553.88	40949.14
554.08	40779.15
554.28	40797.59
554.48	40678.80
554.69	41143.69
554.89	41053.58
555.09	41063.82
555.29	40846.74
555.49	41110.92
555.69	41008.53
555.89	40902.03
556.10	41205.13
556.30	41170.32
556.50	41332.11
556.70	41041.29
556.90	41506.18
557.10	41575.81
557.30	41371.02
557.50	41500.04
557.70	41602.44
557.91	41788.80
558.11	41532.81
558.31	41684.36
558.51	41631.11
558.71	41461.13
558.91	41649.54
559.11	41807.23
559.31	41586.05
559.51	41801.09
559.72	42071.42
559.92	41817.47
560.12	41416.07
560.32	42237.31
560.52	41805.19
560.72	42016.13
560.92	42141.05
561.12	42233.21
561.32	42206.59
561.52	41942.40
561.72	42571.13
561.93	42169.72
562.13	42270.08
562.33	42106.24
562.53	42513.78
562.73	42132.86
562.93	42290.55
563.13	42370.43
563.33	42106.24
563.53	42558.84
563.73	42061.18
563.93	42722.68
564.13	42853.75
564.33	42642.81
564.53	42270.08
564.74	42841.46
564.94	42761.59
565.14	42855.79
565.34	42507.64
565.54	43195.76
565.74	42868.08
565.94	43177.33
566.14	42794.36
566.34	42976.62
566.54	43064.69
566.74	42718.58
566.94	42915.19
567.14	42937.71
567.34	42966.38
567.54	43027.82
567.74	43005.30
567.94	43349.35
568.14	43324.78
568.34	43408.75
568.54	43492.71
568.74	43558.25
568.94	43343.21
569.14	44078.43
569.34	43986.27
569.54	43892.07
569.75	43257.20
569.95	43685.22
570.15	44334.43
570.35	43953.51
570.55	43726.18
570.75	43859.30
570.95	44268.89
571.15	44293.47
571.35	44168.54
571.55	44254.56
571.75	44090.72
571.95	44207.45
572.15	44295.52
572.35	44510.55
572.55	44414.30
572.75	44703.06
572.95	44709.21
573.15	44660.05
573.35	44604.76
573.55	44629.34
573.75	44746.07
573.95	44856.66
574.15	44490.07
574.35	45258.06
574.55	44658.01
574.75	44901.71
574.95	44952.91
575.15	44895.57
575.34	44823.89
575.54	45370.70
575.74	45518.15
575.94	45673.80
576.14	45321.55
576.34	45968.71
576.54	45598.02
576.74	45890.88
576.94	45538.63
577.14	46208.32
577.34	46019.91
577.54	46103.87
577.74	45985.09
577.94	46472.51
578.14	46603.58
578.34	46622.01
578.54	45690.18
578.74	46081.34
578.94	46540.09
579.14	46046.53
579.34	46492.99
579.54	46523.71
579.74	46761.27
579.94	47146.29
580.13	46966.07
580.33	47152.43
580.53	47408.43
580.73	47125.81
580.93	47084.85
581.13	47144.24
581.33	47570.22
581.53	47316.27
581.73	47406.38
581.93	47543.59
582.13	47596.84
582.33	47693.10
582.53	47631.66
582.73	48129.31
582.92	48049.44
583.12	47912.23
583.32	47652.14
583.52	48063.78
583.72	48407.84
583.92	47678.76
584.12	48018.72
584.32	48649.50
584.52	48256.29
584.72	48645.40
584.92	48225.57
585.11	48784.66
585.31	48508.19
585.51	48719.13
585.71	48473.37
585.91	48958.74
586.11	48608.54
586.31	48913.69
586.51	48923.93
586.71	49198.35
586.91	49601.80
587.10	49009.94
587.30	49124.63
587.50	49448.21
587.70	49239.31
587.90	49632.52
588.10	50011.40
588.30	49476.88
588.50	50040.07
588.69	49620.23
588.89	49542.41
589.09	50076.93
589.29	49683.72
589.49	49880.33
589.69	49696.01
589.89	50203.91
590.08	50038.02
590.28	49886.47
590.48	50103.56
590.68	49849.61
590.88	50148.61
591.08	49990.92
591.28	50181.38
591.47	50674.94
591.67	50476.29
591.87	50267.39
592.07	50601.21
592.27	50459.90
592.47	50713.85
592.67	50820.34
592.86	50636.03
593.06	50722.04
593.26	51109.11
593.46	50791.67
593.66	50734.33
593.86	51045.62
594.05	50975.99
594.25	51064.05
594.45	51041.53
594.65	51303.67
594.85	50820.34
595.05	51217.65
595.24	51289.33
595.44	51172.60
595.64	51205.36
595.84	51143.92
596.04	51328.24
596.23	51819.75
596.43	51754.22
596.63	51703.02
596.83	51725.55
597.03	51664.11
597.22	52042.98
597.42	51875.05
597.62	51815.66
597.82	51770.60
598.02	51731.69
598.21	52184.29
598.41	51952.87
598.61	51901.67
598.81	51997.93
599.01	52309.22
599.20	51827.95
599.40	52016.36
599.60	51854.57
599.80	51924.20
600.00	52327.65
600.19	52561.12
600.39	52061.41
600.59	52436.19
600.79	52350.18
600.98	52442.34
601.18	53032.15
601.38	52790.49
601.58	52778.20
601.78	52413.66
601.97	52290.79
602.17	53314.77
602.37	52837.59
602.57	52819.16
602.76	52720.86
602.96	52495.58
603.16	53181.65
603.36	53136.60
603.55	53122.26
603.75	52972.76
603.95	53255.38
604.15	53607.63
604.34	52946.14
604.54	52892.89
604.74	53081.30
604.94	53542.10
605.13	53671.12
605.33	53255.38
605.53	52864.22
605.73	53589.20
605.92	53435.60
606.12	53210.32
606.32	53705.93
606.52	53402.83
606.71	53572.81
606.91	53564.62
607.11	53408.98
607.30	53613.77
607.50	53490.90
607.70	53765.32
607.90	53951.69
608.09	53980.36
608.29	53257.43
608.49	53839.05
608.68	53468.37
608.88	53798.09
609.08	53486.80
609.28	53359.83
609.47	53292.24
609.67	54277.32
609.87	54101.19
610.06	53818.57
610.26	54060.23
610.46	53728.46
610.66	53673.16
610.85	54076.61
611.05	53796.04
611.25	54031.56
611.44	53535.95
611.64	53648.59
611.84	53681.36
612.03	53634.25
612.23	53605.58
612.43	53810.38
612.62	53611.73
612.82	53697.74
613.02	53947.59
613.21	53970.12
613.41	53501.14
613.61	54228.16
613.80	53171.41
614.00	53605.58
614.20	53877.96
614.39	53916.87
614.59	53961.93
614.79	53636.30
614.98	53810.38
615.18	54140.10
615.38	54082.76
615.57	53683.40
615.77	54222.02
615.97	53898.44
616.16	53839.05
616.36	53978.31
616.56	53927.11
616.75	53562.57
616.95	53976.26
617.15	54211.78
617.34	54006.98
617.54	53687.50
617.74	54187.21
617.93	54133.96
618.13	53353.68
618.32	54105.29
618.52	53736.65
618.72	53644.49
618.91	53847.24
619.11	53523.66
619.31	53585.10
619.50	53181.65
619.70	53589.20
619.90	53259.48
620.09	53351.63
620.29	53241.04
620.48	53538.00
620.68	53794.00
620.88	53101.78
621.07	53454.03
621.27	53337.30
621.46	53001.43
621.66	53433.55
621.86	53228.76
622.05	52933.85
622.25	53484.75
622.44	53417.17
622.64	53081.30
622.84	53957.83
623.03	53204.18
623.23	53081.30
623.42	52896.98
623.62	53437.65
623.82	53435.60
624.01	53671.12
624.21	53415.12
624.40	53353.68
624.60	53581.01
624.80	53466.32
624.99	53540.05
625.19	52841.69
625.38	53777.61
625.58	53533.90
625.77	53271.76
625.97	53626.06
626.17	52925.66
626.36	53505.23
626.56	53656.78
626.75	52890.84
626.95	53376.21
627.14	52806.87
627.34	53376.21
627.54	53507.28
627.73	53554.38
627.93	53572.81
628.12	53122.26
628.32	53208.28
628.51	53449.94
628.71	53066.97
628.90	53355.73
629.10	53615.82
629.30	53198.04
629.49	53591.25
629.69	53103.83
629.88	53269.72
630.08	53898.44
630.27	53701.84
630.47	53220.56
630.66	53101.78
630.86	53855.43
631.05	53271.76
631.25	53900.49
631.44	53845.19
631.64	53564.62
631.84	53685.45
632.03	53982.41
632.23	53443.79
632.42	54097.09
632.62	53654.73
632.81	52946.14
633.01	53728.46
633.20	53816.52
633.40	54088.90
633.59	53900.49
633.79	53458.13
633.98	54023.37
634.18	53839.05
634.37	53626.06
634.57	53755.08
634.76	54314.18
634.96	53941.45
635.15	53630.16
635.35	53679.31
635.54	53609.68
635.74	54279.36
635.93	53615.82
636.13	53877.96
636.32	54117.57
636.52	53501.14
636.71	53490.90
636.91	54588.61
637.10	54269.12
637.30	53847.24
637.49	53914.83
637.69	54047.94
637.88	54086.85
638.08	54125.77
638.27	54719.68
638.46	54492.35
638.66	53908.68
638.85	53869.77
639.05	54727.87
639.24	54355.14
639.44	54244.55
639.63	54609.09
639.83	54736.06
640.02	54369.47
640.22	54582.46
640.41	54375.62
640.61	54256.84
640.80	54777.02
640.99	54695.10
641.19	54752.44
641.38	54600.89
641.58	54437.06
641.77	54392.00
641.97	54551.74
642.16	54760.64
642.36	54971.58
642.55	55096.50
642.74	54547.65
642.94	55522.48
643.13	54598.85
643.33	55237.81
643.52	55071.93
643.72	55573.68
643.91	55069.88
644.10	55153.85
644.30	55280.82
644.49	55243.96
644.69	55342.26
644.88	55463.09
645.08	55174.33
645.27	55002.30
645.46	54801.60
645.66	55805.10
645.85	55141.56
646.05	55590.06
646.24	55518.38
646.43	55684.27
646.63	55917.74
646.82	55884.97
647.02	55620.78
647.21	56003.75
647.40	55329.97
647.60	56149.16
647.79	55942.31
647.99	56034.47
648.18	55704.75
648.37	55923.88
648.57	56194.21
648.76	55921.83
648.96	56075.43
649.15	56626.34
649.34	56333.48
649.54	55973.03
649.73	56153.26
649.92	56255.65
650.12	56317.09
650.31	56261.80
650.51	56534.18
650.70	56796.32
650.89	56317.09
651.09	57177.24
651.28	56614.05
651.47	56284.33
651.67	56724.64
651.86	57037.98
652.06	55944.36
652.25	56779.93
652.44	56325.28
652.64	56431.78
652.83	56599.71
653.02	56583.33
653.22	56771.74
653.41	56652.96
653.60	56286.37
653.80	56657.06
653.99	56890.52
654.18	56583.33
654.38	57015.45
654.57	57021.59
654.76	56859.80
654.96	56820.89
655.15	57113.75
655.34	57060.51
655.54	56304.80
655.73	57230.49
655.92	57214.10
656.12	57076.89
656.31	56816.80
656.50	57259.16
656.70	56999.07
656.89	57310.36
657.08	57259.16
657.28	56685.73
657.47	56896.67
657.66	56900.76
657.86	57042.07
658.05	57089.18
658.24	57758.86
658.43	56751.26
658.63	57269.40
658.82	57425.04
659.01	57310.36
659.21	57691.28
659.40	57742.48
659.59	56962.20
659.79	57619.60
659.98	57660.56
660.17	57431.19
660.36	57478.29
660.56	57498.77
660.75	57586.83
660.94	57330.84
661.14	57119.90
661.33	57171.10
661.52	56974.49
661.71	57531.54
661.91	57228.44
662.10	57210.01
662.29	57496.72
662.49	57449.62
662.68	57582.74
662.87	57660.56
663.06	57746.57
663.26	57472.15
663.45	58121.35
663.64	57379.99
663.83	57504.91
664.03	57920.65
664.22	57697.42
664.41	57713.81
664.60	57488.53
664.80	57373.84
664.99	57603.22
665.18	57650.32
665.37	57509.01
665.57	57570.45
665.76	57068.70
665.95	57828.49
666.14	57521.30
666.34	57592.98
666.53	57844.88
666.72	57279.64
666.91	57240.73
667.11	57244.82
667.30	57611.41
667.49	57638.03
667.68	57293.97
667.87	57451.67
668.07	57568.40
668.26	57758.86
668.45	57466.00
668.64	57629.84
668.84	58414.21
669.03	57668.75
669.22	57369.75
669.41	57783.44
669.60	57570.45
669.80	57134.23
669.99	57603.22
670.18	57556.11
670.37	57443.48
670.57	57898.12
670.76	57109.66
670.95	57984.14
671.14	57566.35
671.33	57291.93
671.53	58037.39
671.72	57322.65
671.91	57316.50
672.10	57193.62
672.29	57277.59
672.48	57173.14
672.68	57664.66
672.87	57453.72
673.06	57271.45
673.25	56786.08
673.44	57263.25
673.64	57414.80
673.83	57291.93
674.02	57418.90
674.21	57296.02
674.40	57724.05
674.59	56988.83
674.79	57130.14
674.98	56947.87
675.17	57255.06
675.36	57107.61
675.55	57212.06
675.74	56919.20
675.94	56851.61
676.13	57062.55
676.32	57183.38
676.51	57343.12
676.70	56896.67
676.89	57066.65
677.08	57416.85
677.28	56747.17
677.47	57101.46
677.66	57179.29
677.85	56859.80
678.04	57123.99
678.23	57345.17
678.42	57328.79
678.62	56888.48
678.81	57345.17
679.00	56859.80
679.19	57388.18
679.38	56788.13
679.57	56943.77
679.76	56849.56
679.96	56820.89
680.15	56657.06
680.34	56534.18
680.53	56655.01
680.72	56759.45
680.91	56931.48
681.10	56591.52
681.29	56380.58
681.48	56235.17
681.68	56577.18
681.87	56446.11
682.06	56337.57
682.25	56036.52
682.44	56057.00
682.63	56685.73
682.82	56116.39
683.01	56128.68
683.20	55839.92
683.39	56372.39
683.59	55991.47
683.78	55817.39
683.97	56364.20
684.16	55704.75
684.35	55854.25
684.54	56358.05
684.73	55714.99
684.92	55866.54
685.11	55753.90
685.30	55450.80
685.49	56530.08
685.69	55930.03
685.88	55465.14
686.07	55545.01
686.26	55911.59
686.45	55714.99
686.64	55534.77
686.83	55467.19
687.02	55657.65
687.21	55700.65
687.40	55381.17
687.59	55129.27
687.78	55477.43
687.97	55520.43
688.16	55635.12
688.35	55383.22
688.54	55184.57
688.74	55325.88
688.93	55055.54
689.12	55018.68
689.31	55358.64
689.50	55477.43
689.69	55141.56
689.88	54756.54
690.07	55536.82
690.26	55051.45
690.45	55270.58
690.64	54473.92
690.83	54396.10
691.02	54258.88
691.21	54334.66
691.40	54422.72
691.59	54379.71
691.78	54498.50
691.97	54547.65
692.16	54418.63
692.35	54330.56
692.54	54572.22
692.73	54633.66
692.92	54330.56
693.11	54453.44
693.30	54230.21
693.49	54375.62
693.68	53970.12
693.87	54680.77
694.06	54105.29
694.25	54342.85
694.44	53832.91
694.63	54158.53
694.82	54228.16
695.01	54023.37
695.20	53568.72
695.39	53935.30
695.58	53687.50
695.77	53707.98
695.96	54064.33
696.15	53966.02
696.34	53742.80
696.53	53632.21
696.72	54013.13
696.91	53189.84
697.10	53337.30
697.29	52991.19
697.48	53531.86
697.67	53026.01
697.86	52935.90
698.05	52905.18
698.24	52915.42
698.43	53212.37
698.62	53546.19
698.81	53093.59
699.00	53191.89
699.19	52901.08
699.38	53581.01
699.57	52423.90
699.76	53161.17
699.95	53200.08
700.14	52352.23
700.32	52665.56
700.51	52405.47
700.70	52731.10
700.89	52860.12
701.08	52679.90
701.27	52430.05
701.46	52770.01
701.65	52606.17
701.84	52434.14
702.03	52665.56
702.22	52262.11
702.41	51873.00
702.60	52159.72
702.79	52374.75
702.98	51985.64
703.17	52157.67
703.35	51682.54
703.54	51791.08
703.73	52210.92
703.92	52141.28
704.11	52423.90
704.30	51997.93
704.49	51666.16
704.68	52069.61
704.87	52079.85
705.06	52141.28
705.25	52337.89
705.43	51991.78
705.62	51838.18
705.81	51954.92
706.00	51889.38
706.19	51401.97
706.38	51449.07
706.57	51277.04
706.76	51559.66
706.95	51842.28
707.14	51508.46
707.32	51064.05
707.51	51643.63
707.70	51510.51
707.89	51231.99
708.08	51035.38
708.27	51436.78
708.46	51963.11
708.65	51150.07
708.84	51574.00
709.02	51660.01
709.21	51526.89
709.40	51070.20
709.59	51553.52
709.78	51303.67
709.97	51231.99
710.16	50908.41
710.34	50939.13
710.53	51363.06
710.72	50760.95
710.91	50965.75
711.10	51238.13
711.29	51098.87
711.48	50924.79
711.66	50902.26
711.85	50842.87
712.04	50654.46
712.23	51019.00
712.42	50685.18
712.61	51182.84
712.80	50466.05
712.98	50951.41
713.17	50480.38
713.36	50427.13
713.55	50795.77
713.74	50773.24
713.93	50418.94
714.11	50763.00
714.30	50550.01
714.49	50310.40
714.68	50496.77
714.87	50308.35
715.06	50568.44
715.24	50672.89
715.43	50326.78
715.62	50156.80
715.81	50500.86
716.00	50427.13
716.18	49902.85
716.37	49722.63
716.56	49814.79
716.75	50273.54
716.94	49804.55
717.12	49986.82
717.31	50156.80
717.50	50175.23
717.69	50169.09
717.88	50187.52
718.06	50019.59
718.25	50205.95
718.44	49607.95
718.63	50001.16
718.82	49536.27
719.00	49917.19
719.19	49773.83
719.38	49650.95
719.57	49784.07
719.76	49112.34
719.94	49055.00
720.13	49493.26
720.32	49831.18
720.51	49360.14
720.69	49349.90
720.88	49358.09
721.07	49143.06
721.26	48911.64
721.44	49085.72
721.63	49079.57
721.82	48665.88
722.01	49036.56
722.20	49055.00
722.38	48698.65
722.57	48540.96
722.76	48829.72
722.95	48825.62
723.13	48358.69
723.32	48903.45
723.51	48045.35
723.70	48188.70
723.88	48631.07
724.07	48370.97
724.26	48651.55
724.44	47865.13
724.63	48792.86
724.82	48495.90
725.01	48295.20
725.19	48256.29
725.38	48223.52
725.57	48117.03
725.76	48172.32
725.94	48416.03
726.13	48014.63
726.32	48174.37
726.51	48035.11
726.69	48555.29
726.88	48319.77
727.07	48026.92
727.25	48135.46
727.44	48258.34
727.63	47844.65
727.82	48244.00
728.00	48448.80
728.19	48311.58
728.38	48149.79
728.56	47713.58
728.75	48712.98
728.94	48006.44
729.12	48330.01
729.31	47633.71
729.50	47977.76
729.69	47897.89
729.87	48180.51
730.06	48078.11
730.25	48287.01
730.43	48543.00
730.62	47949.09
730.81	48608.54
730.99	48538.91
731.18	47940.90
731.37	48000.29
731.55	48583.96
731.74	48604.44
731.93	48270.62
732.11	47979.81
732.30	48235.81
732.49	48610.59
732.67	48268.58
732.86	48184.61
733.05	48289.06
733.23	47715.62
733.42	48170.27
733.61	48250.14
733.79	48258.34
733.98	48444.70
734.17	48239.90
734.35	48215.33
734.54	48389.41
734.73	48796.95
734.91	48190.75
735.10	47596.84
735.29	48276.77
735.47	47375.66
735.66	48215.33
735.84	47854.89
736.03	48071.97
736.22	48327.97
736.40	47809.83
736.59	48395.55
736.78	47789.35
736.96	47975.72
737.15	47842.60
737.33	47506.73
737.52	48076.07
737.71	47988.00
737.89	48155.94
738.08	47668.52
738.27	47895.85
738.45	47904.04
738.64	48119.07
738.82	48010.53
739.01	48055.59
739.20	47596.84
739.38	47879.46
739.57	47703.34
739.75	48295.20
739.94	47799.59
740.13	47727.91
740.31	47447.34
740.50	47539.50
740.68	47635.75
740.87	48092.45
741.06	48254.24
741.24	47719.72
741.43	47267.12
741.61	47332.65
741.80	47639.85
741.99	47197.49
742.17	47686.95
742.36	47449.39
742.54	47457.58
742.73	47451.44
742.91	47392.04
743.10	47703.34
743.29	47785.25
743.47	47754.54
743.66	47207.73
743.84	47822.12
744.03	47154.48
744.21	47500.59
744.40	47631.66
744.59	47324.46
744.77	47648.04
744.96	47174.96
745.14	47508.78
745.33	47404.33
745.51	47154.48
745.70	47424.81
745.88	47295.79
746.07	47088.95
746.26	46644.54
746.44	46767.41
746.63	47189.30
746.81	47240.50
747.00	46607.67
747.18	47070.51
747.37	46697.78
747.55	46662.97
747.74	47383.85
747.92	46943.54
748.11	46761.27
748.29	46650.68
748.48	46880.05
748.66	46921.01
748.85	47043.89
749.03	46865.72
749.22	46675.26
749.41	46433.60
749.59	47134.00
749.78	46054.72
749.96	46544.19
750.15	46511.42
750.33	47203.63
750.52	46761.27
750.70	46486.84
750.89	46390.59
751.07	46503.23
751.26	46863.67
751.44	46454.08
751.63	46538.04
751.81	46118.21
752.00	46228.80
752.18	46376.25
752.37	46507.32
752.55	46433.60
752.74	46052.67
752.92	46222.65
753.10	45880.64
753.29	46525.75
753.47	46294.33
753.66	45989.19
753.84	45856.07
754.03	45591.88
754.21	45899.08
754.40	45874.50
754.58	46196.03
754.77	46163.26
754.95	45628.74
755.14	45772.10
755.32	45755.72
755.51	45565.26
755.69	45593.93
755.88	45651.27
756.06	45743.43
756.24	45751.62
756.43	45606.22
756.61	45542.73
756.80	45692.23
756.98	45303.12
757.17	45516.11
757.35	45524.30
757.54	45393.23
757.72	45296.97
757.90	45049.17
758.09	45419.85
758.27	45231.44
758.46	44789.08
758.64	44911.95
758.83	45595.98
759.01	44942.67
759.19	45102.42
759.38	44686.68
759.56	45305.16
759.75	45086.03
759.93	44629.34
760.12	44680.53
760.30	44406.11
760.48	44832.08
760.67	44553.56
760.85	44539.22
761.04	45411.66
761.22	44606.81
761.40	44721.49
761.59	44827.99
761.77	44348.76
761.96	44549.46
762.14	44516.70
762.32	43992.42
762.51	44176.73
762.69	44223.84
762.88	44189.02
763.06	44660.05
763.24	44359.00
763.43	44291.42
763.61	44186.97
763.80	44422.49
763.98	43912.55
764.16	44047.71
764.35	43926.88
764.53	43431.27
764.72	43865.44
764.90	44240.22
765.08	43625.83
765.27	43603.30
765.45	43122.03
765.63	43103.60
765.82	43879.78
766.00	43072.88
766.18	43650.41
766.37	43349.35
766.55	43160.94
766.74	43259.24
766.92	42853.75
767.10	43203.95
767.29	42898.80
767.47	42460.54
767.65	43126.13
767.84	42628.47
768.02	43126.13
768.20	42749.30
768.39	42892.66
768.57	42724.72
768.75	42761.59
768.94	42562.93
769.12	42782.07
769.30	42225.02
769.49	42227.07
769.67	42126.72
769.85	41993.60
770.04	42325.37
770.22	41985.41
770.40	42089.85
770.59	42044.80
770.77	42505.59
770.95	42147.20
771.14	41659.78
771.32	41850.24
771.50	41780.61
771.69	41850.24
771.87	41856.39
772.05	41528.71
772.24	41440.65
772.42	41514.37
772.60	41768.32
772.78	41192.84
772.97	41426.31
773.15	42030.46
773.33	41207.18
773.52	41629.06
773.70	41297.29
773.88	41510.28
774.07	41303.43
774.25	41477.51
774.43	41227.66
774.61	41401.74
774.80	41573.77
774.98	41440.65
775.16	41674.12
775.34	41407.88
775.53	40998.29
775.71	41368.97
775.89	41153.93
776.08	40994.19
776.26	41287.05
776.44	41313.67
776.62	41108.88
776.81	40990.09
776.99	41450.89
777.17	40834.45
777.35	41579.91
777.54	41241.99
777.72	41387.40
777.90	41031.05
778.08	41604.49
778.27	41268.62
778.45	41457.03
778.63	41543.05
778.81	41190.80
779.00	41829.76
779.18	41831.81
779.36	41792.90
779.54	41674.12
779.73	41444.74
779.91	41649.54
780.09	41717.12
780.27	41581.96
780.46	41350.54
780.64	41997.70
780.82	41555.33
781.00	41547.14
781.19	41567.62
781.37	41739.65
781.55	41764.23
781.73	42139.00
781.91	41469.32
782.10	41307.53
782.28	41901.44
782.46	41645.44
782.64	41719.17
782.82	41776.51
783.01	41850.24
783.19	41653.64
783.37	41670.02
783.55	41553.29
783.74	42136.96
783.92	41756.03
784.10	42192.25
784.28	41835.91
784.46	41336.20
784.64	41416.07
784.83	41717.12
785.01	41854.34
785.19	41860.48
785.37	41926.02
785.55	41321.87
785.74	41215.37
785.92	41342.35
786.10	41743.75
786.28	41819.52
786.46	41209.23
786.64	40770.96
786.83	41162.12
787.01	41395.59
787.19	41569.67
787.37	41481.61
787.55	41418.12
787.74	41080.21
787.92	41229.71
788.10	40859.02
788.28	40670.61
788.46	40521.11
788.64	40205.72
788.82	41143.69
789.01	40822.16
789.19	41074.06
789.37	40314.26
789.55	40265.11
789.73	40244.63
789.91	40295.83
790.09	40179.10
790.28	39959.97
790.46	40152.48
790.64	40015.26
790.82	39849.38
791.00	39820.70
791.18	39269.80
791.36	39476.65
791.55	39646.63
791.73	39540.13
791.91	39409.06
792.09	39789.98
792.27	39433.64
792.45	39384.49
792.63	39558.56
792.81	39343.53
793.00	39189.93
793.18	39300.52
793.36	38974.89
793.54	38694.32
793.72	38852.02
793.90	38718.90
794.08	38309.30
794.26	38428.09
794.44	38301.11
794.62	38176.19
794.81	38655.41
794.99	38139.32
795.17	38395.32
795.35	37787.07
795.53	38006.20
795.71	38661.55
795.89	37432.77
796.07	37735.87
796.25	37402.05
796.43	37565.89
796.61	37744.06
796.80	37234.12
796.98	37672.39
797.16	37053.90
797.34	37260.74
797.52	36875.73
797.70	37225.93
797.88	36863.44
798.06	36357.59
798.24	36666.83
798.42	36552.15
798.60	36666.83
798.78	36296.15
798.96	36572.63
799.14	36302.29
799.32	36533.71
799.51	36539.86
799.69	36074.97
799.87	36203.99
800.05	35818.97
800.23	36009.43
800.41	35821.02
800.59	35450.34
800.77	35620.32
800.95	35073.51
801.13	35345.89
801.31	35038.70
801.49	35102.18
801.67	34991.59
801.85	35010.03
802.03	34932.20
802.21	34829.80
802.39	34457.07
802.57	34676.21
802.75	34661.87
802.93	34534.90
803.11	34495.99
803.29	34543.09
803.47	34274.80
803.65	34207.22
803.83	34272.76
804.01	34184.69
804.19	33416.71
804.37	33750.52
804.55	33717.76
804.73	33330.69
804.91	33695.23
805.09	33766.91
805.27	33269.25
805.45	33472.00
805.63	33568.26
805.81	33609.22
805.99	33261.06
806.17	33328.64
806.35	33381.89
806.53	32841.23
806.71	32925.19
806.89	33175.05
807.07	32876.04
807.25	32917.00
807.43	32540.18
807.61	33011.21
807.79	32402.96
807.97	32509.46
808.15	32574.99
808.33	32411.15
808.51	32511.50
808.69	32394.77
808.87	32001.56
809.05	31938.07
809.23	31807.00
809.41	31612.45
809.59	32206.36
809.77	32192.02
809.95	32024.09
810.13	31864.35
810.31	31686.17
810.49	31639.07
810.67	31757.85
810.84	31755.80
811.02	31424.03
811.20	31270.43
811.38	31677.98
811.56	30856.75
811.74	31243.81
811.92	30723.63
812.10	31018.53
812.28	31141.41
812.46	31008.29
812.64	30932.52
812.82	30930.47
813.00	30955.05
813.18	31092.26
813.36	30668.33
813.53	30537.26
813.71	30381.62
813.89	30592.56
814.07	30400.05
814.25	30737.96
814.43	30529.07
814.61	30139.96
814.79	30320.18
814.97	30043.70
815.15	30195.25
815.33	29863.48
815.50	29863.48
815.68	30205.49
815.86	29859.38
816.04	29683.26
816.22	29701.69
816.40	29957.69
816.58	29509.18
816.76	29621.82
816.94	29595.20
817.11	29795.90
817.29	29449.79
817.47	29654.59
817.65	29404.74
817.83	29451.84
818.01	29212.23
818.19	28927.56
818.37	28868.17
818.54	28857.93
818.72	28835.40
818.90	29384.26
819.08	29460.03
819.26	29130.31
819.44	28804.68
819.62	28935.75
819.80	28819.02
819.97	28950.09
820.15	28782.15
820.33	28603.98
820.51	28741.19
820.69	28393.04
820.87	28370.51
821.05	28638.80
821.22	28411.47
821.40	28608.08
821.58	28573.26
821.76	28214.87
821.94	28237.39
822.12	27960.92
822.29	28638.80
822.47	27952.73
822.65	28208.72
822.83	27788.89
823.01	27936.34
823.19	28003.92
823.36	27987.54
823.54	27702.87
823.72	28022.36
823.90	27758.17
824.08	27244.13
824.25	27731.54
824.43	27436.64
824.61	27426.40
824.79	27659.87
824.97	27477.60
825.15	27706.97
825.32	27563.61
825.50	27379.29
825.68	27391.58
825.86	27367.01
826.04	27457.12
826.21	27303.52
826.39	27364.96
826.57	27217.50
826.75	27291.23
826.93	27043.43
827.10	26807.91
827.28	27328.10
827.46	26932.84
827.64	27473.50
827.81	26963.56
827.99	26828.39
828.17	26781.29
828.35	26609.26
828.53	27123.30
828.70	26621.55
828.88	26916.45
829.06	27002.47
829.24	26928.74
829.41	26799.72
829.59	26564.20
829.77	26461.80
829.95	26515.05
830.12	26693.22
830.30	26402.41
830.48	26703.46
830.66	26267.25
830.84	26347.12
831.01	26367.60
831.19	26406.51
831.37	26345.07
831.55	26353.26
831.72	26353.26
831.90	26003.06
832.08	26433.13
832.25	26199.66
832.43	26179.18
832.61	26381.93
832.79	26105.46
832.96	25927.28
833.14	26179.18
833.32	26107.51
833.50	26453.61
833.67	26123.89
833.85	25988.72
834.03	25802.36
834.20	26201.71
834.38	25693.82
834.56	25667.19
834.74	25652.86
834.91	25558.65
835.09	25865.85
835.27	25652.86
835.44	25505.40
835.62	25212.54
835.80	25624.18
835.98	25708.15
836.15	25486.97
836.33	25253.50
836.51	25790.07
836.68	25206.40
836.86	25253.50
837.04	25357.95
837.21	25792.12
837.39	25552.51
837.57	25486.97
837.75	25644.66
837.92	24907.40
838.10	25065.09
838.28	24751.75
838.45	25110.14
838.63	24807.05
838.81	24905.35
838.98	25077.38
839.16	24903.30
839.34	24931.97
839.51	24919.68
839.69	24557.19
839.87	24786.57
840.04	24737.41
840.22	24868.48
840.40	24678.02
840.57	24594.06
840.75	24686.22
840.93	24921.73
841.10	24618.63
841.28	24960.64
841.46	24565.39
841.63	24870.53
841.81	24751.75
841.98	24653.45
842.16	24526.47
842.34	24618.63
842.51	24176.27
842.69	24667.78
842.87	24315.53
843.04	24331.92
843.22	24460.94
843.40	24446.60
843.57	24323.72
843.75	24510.09
843.92	24557.19
844.10	24524.43
844.28	24305.29
844.45	24145.55
844.63	24389.26
844.81	24069.78
844.98	24434.32
845.16	24098.45
845.33	24114.83
845.51	24049.30
845.69	23850.64
845.86	24084.11
846.04	23608.98
846.21	23879.32
846.39	24127.12
846.57	23922.32
846.74	23864.98
846.92	23944.85
847.09	23715.48
847.27	23647.90
847.45	23768.73
847.62	23709.33
847.80	23582.36
847.97	23604.89
848.15	23729.81
848.32	23363.23
848.50	23713.43
848.68	23486.11
848.85	23723.67
849.03	23152.29
849.20	23504.54
849.38	23082.66
849.56	23432.86
849.73	23604.89
849.91	23455.39
850.08	23398.04
850.26	23213.73
850.43	23625.37
850.61	23496.35
850.78	23406.23
850.96	23299.74
851.14	23072.42
851.31	23176.86
851.49	23365.28
851.66	23119.52
851.84	23062.18
852.01	23221.92
852.19	23348.89
852.36	22914.72
852.54	22697.64
852.71	23064.22
852.89	22724.26
853.07	22865.57
853.24	23084.70
853.42	22916.77
853.59	22445.74
853.77	22654.63
853.94	22705.83
854.12	23015.07
854.29	22711.97
854.47	22879.91
854.64	22642.34
854.82	22607.53
854.99	22988.45
855.17	22752.93
855.34	22777.51
855.52	22841.00
855.69	22654.63
855.87	22449.83
856.04	22384.30
856.22	22427.31
856.39	22372.01
856.57	22404.78
856.74	22537.90
856.92	22294.19
857.09	22150.83
857.27	22351.53
857.44	22376.11
857.62	22046.38
857.79	22578.86
857.97	22091.44
858.14	22150.83
858.32	22128.30
858.49	22101.68
858.67	22058.67
858.84	21894.83
859.02	22134.45
859.19	21974.70
859.37	21810.87
859.54	21909.17
859.72	21919.41
859.89	22038.19
860.06	21997.23
860.24	21851.83
860.41	21831.35
860.59	21911.22
860.76	21798.58
860.94	21696.18
861.11	21843.63
861.29	21888.69
861.46	21542.58
861.64	21485.24
861.81	21612.21
861.98	21591.73
862.16	21380.79
862.33	21415.61
862.51	21397.18
862.68	21606.07
862.86	21372.60
863.03	21302.97
863.21	21505.72
863.38	21391.03
863.55	21382.84
863.73	21464.76
863.90	21237.44
864.08	21495.48
864.25	21425.85
864.43	21573.30
864.60	21083.84
864.77	21245.63
864.95	21186.24
865.12	21008.06
865.30	21102.27
865.47	20817.60
865.64	21151.42
865.82	21173.95
865.99	21137.09
866.17	21079.74
866.34	21102.27
866.51	20678.34
866.69	20985.54
866.86	20901.57
867.04	20713.16
867.21	20754.12
867.38	20467.40
867.56	20846.27
867.73	20668.10
867.91	20571.85
868.08	20625.09
868.25	20455.11
868.43	20598.47
868.60	20444.87
868.78	20311.75
868.95	20709.06
869.12	20405.96
869.30	20473.54
869.47	20586.18
869.64	20381.38
869.82	20326.09
869.99	20358.86
870.16	20207.31
870.34	19973.84
870.51	20295.37
870.69	20328.14
870.86	20260.55
871.03	20377.29
871.21	20219.60
871.38	20123.34
871.55	20113.10
871.73	19791.57
871.90	19848.91
872.07	19766.99
872.25	19631.83
872.42	19853.01
872.59	19648.21
872.77	19865.30
872.94	19437.27
873.11	19685.08
873.29	19635.92
873.46	19594.96
873.63	19422.94
873.81	19527.38
873.98	19482.33
874.15	19640.02
874.33	19371.74
874.50	19318.49
874.67	19336.92
874.85	19404.50
875.02	19412.70
875.19	19064.54
875.37	19146.46
875.54	19162.84
875.71	19154.65
875.88	19023.58
876.06	18730.72
876.23	18919.14
876.40	18816.74
876.58	19089.12
876.75	18783.97
876.92	18839.26
877.10	18808.54
877.27	18671.33
877.44	18738.91
877.61	18648.80
877.79	18589.41
877.96	18499.30
878.13	18667.24
878.31	18423.53
878.48	18513.64
878.65	18302.70
878.82	18530.02
879.00	18517.73
879.17	18564.84
879.34	18116.33
879.51	18368.23
879.69	18224.87
879.86	18102.00
880.03	17944.30
880.21	18046.70
880.38	17860.34
880.55	18108.14
880.72	17805.04
880.90	18214.63
881.07	17960.69
881.24	17751.79
881.41	17944.30
881.59	17858.29
881.76	17833.71
881.93	17649.39
882.10	17848.05
882.28	17755.89
882.45	17884.91
882.62	17776.37
882.79	17901.29
882.96	17540.85
883.14	17684.21
883.31	17542.90
883.48	17520.37
883.65	17680.11
883.83	17719.03
884.00	17473.27
884.17	17522.42
884.34	17948.40
884.51	17407.73
884.69	17483.51
884.86	17413.88
885.03	17522.42
885.20	17512.18
885.38	17460.98
885.55	17008.38
885.72	17331.96
885.89	17211.13
886.06	17411.83
886.24	17202.94
886.41	16926.46
886.58	17405.69
886.75	17751.79
886.92	17151.74
887.10	17276.66
887.27	16994.04
887.44	17098.49
887.61	17194.75
887.78	17112.83
887.95	17198.84
888.13	16938.75
888.30	16617.22
888.47	16932.61
888.64	17047.29
888.81	17014.52
888.99	16971.52
889.16	16434.95
889.33	16699.14
889.50	16588.55
889.67	16582.40
889.84	16523.01
890.01	16676.61
890.19	16752.38
890.36	16619.27
890.53	16639.75
890.70	16316.17
890.87	16320.26
891.04	16580.36
891.22	16287.50
891.39	16244.49
891.56	16445.19
891.73	16326.41
891.90	16328.45
892.07	16049.93
892.24	16314.12
892.42	16244.49
892.59	15814.41
892.76	16242.44
892.93	16277.26
893.10	16228.10
893.27	16142.09
893.44	15863.57
893.61	16203.53
893.79	16115.47
893.96	15972.11
894.13	15812.37
894.30	15875.85
894.47	15851.28
894.64	16092.94
894.81	15963.92
894.98	15871.76
895.15	16273.16
895.33	15838.99
895.50	15802.13
895.67	15972.11
895.84	15838.99
896.01	16045.84
896.18	15859.47
896.35	15871.76
896.52	15714.06
896.69	15922.96
896.86	15884.05
897.04	15777.55
897.21	15869.71
897.38	15847.18
897.55	16187.14
897.72	15759.12
897.89	15834.89
898.06	15712.02
898.23	15525.65
898.40	15611.67
898.57	15767.31
898.74	15851.28
898.91	15589.14
899.08	15591.19
899.26	15908.62
899.43	15679.25
899.60	15607.57
899.77	15689.49
899.94	15566.61
900.11	15482.64
900.28	15408.92
900.45	15521.56
900.62	15605.52
900.79	15714.06
900.96	15628.05
901.13	15408.92
901.30	15650.58
901.47	15464.21
901.64	15408.92
901.81	15582.99
901.98	15619.86
902.15	15601.43
902.32	15353.62
902.49	15740.69
902.66	15585.04
902.83	15296.28
903.01	15843.09
903.18	15327.00
903.35	15666.96
903.52	15396.63
903.69	15533.84
903.86	15574.80
904.03	15419.16
904.20	15648.53
904.37	15714.06
904.54	15337.24
904.71	15386.39
904.88	15654.67
905.05	15492.88
905.22	15789.84
905.39	15488.79
905.56	15292.18
905.73	15359.77
905.90	15355.67
906.07	15353.62
906.24	15384.34
906.41	15177.50
906.58	15456.02
906.75	15331.09
906.92	15378.20
907.09	15144.73
907.26	15185.69
907.43	15247.13
907.60	15054.62
907.77	15474.45
907.93	15331.09
908.10	15316.76
908.27	15173.40
908.44	15232.79
908.61	15099.67
908.78	15064.86
908.95	15453.97
909.12	15335.19
909.29	14847.77
909.46	15226.65
909.63	15316.76
909.80	15034.14
909.97	15292.18
910.14	15187.74
910.31	15126.30
910.48	15079.19
910.65	15292.18
910.82	15130.39
910.99	14989.08
911.16	14995.23
911.33	14833.44
911.50	14896.92
911.66	14700.32
911.83	14862.11
912.00	14974.75
912.17	14991.13
912.34	14726.94
912.51	14905.12
912.68	14886.68
912.85	14835.49
913.02	14759.71
913.19	14554.91
913.36	14917.40
913.53	14755.61
913.70	14429.99
913.86	14774.05
914.03	14685.98
914.20	14571.30
914.37	14554.91
914.54	14559.01
914.71	14587.68
914.88	14192.42
915.05	14421.80
915.22	14343.97
915.39	14321.45
915.55	14087.98
915.72	14090.02
915.89	14137.13
916.06	14001.96
916.23	14057.26
916.40	13924.14
916.57	14026.54
916.74	14122.79
916.91	14241.57
917.07	13924.14
917.24	14051.11
917.41	13889.32
917.58	14081.83
917.75	13786.93
917.92	13338.42
918.09	13686.58
918.26	13805.36
918.42	13592.37
918.59	13659.95
918.76	13539.12
918.93	13510.45
919.10	13616.94
919.27	13453.11
919.44	13670.19
919.60	13549.36
919.77	13428.53
919.94	13498.16
920.11	13272.89
920.28	13543.22
920.45	13223.73
920.61	12969.79
920.78	13342.52
920.95	13123.38
921.12	12928.83
921.29	12900.16
921.46	13020.99
921.62	12627.78
921.79	12818.24
921.96	12732.22
922.13	12848.96
922.30	12619.58
922.47	12748.61
922.63	12451.65
922.80	12689.21
922.97	12377.92
923.14	12224.33
923.31	12609.34
923.47	12472.13
923.64	12552.00
923.81	12148.55
923.98	12361.54
924.15	12070.73
924.32	12171.08
924.48	12203.85
924.65	12265.28
924.82	12072.78
924.99	11929.42
925.15	12046.15
925.32	11870.03
925.49	11708.24
925.66	11618.13
925.83	11634.51
925.99	11726.67
926.16	11632.46
926.33	11620.17
926.50	11513.68
926.67	11497.30
926.83	11630.41
927.00	11523.92
927.17	11435.86
927.34	11415.38
927.50	11321.17
927.67	11695.95
927.84	11267.92
928.01	11245.40
928.17	11116.37
928.34	10878.81
928.51	11013.98
928.68	11011.93
928.84	10839.90
929.01	10604.38
929.18	10749.79
929.35	10778.46
929.51	10745.69
929.68	10501.98
929.85	10610.53
930.02	10463.07
930.18	10520.42
930.35	10461.02
930.52	10674.01
930.69	10444.64
930.85	10448.74
931.02	10268.52
931.19	10307.43
931.36	10381.15
931.52	10245.99
931.69	10127.21
931.86	10082.15
932.02	10057.57
932.19	9955.18
932.36	9926.50
932.53	9860.97
932.69	9883.50
932.86	9930.60
933.03	9918.31
933.19	9688.94
933.36	9777.00
933.53	9750.38
933.70	9588.59
933.86	9635.69
934.03	9613.17
934.20	9418.61
934.36	9475.95
934.53	9330.55
934.70	9187.19
934.86	9181.04
935.03	9013.11
935.20	8951.67
935.36	8961.91
935.53	8798.07
935.70	8863.61
935.86	8757.11
936.03	8750.97
936.20	8716.16
936.36	8402.82
936.53	8425.34
936.70	8365.95
936.86	8587.13
937.03	8451.97
937.20	8138.63
937.36	8097.67
937.53	7790.47
937.70	7706.51
937.86	7731.08
938.03	7815.05
938.20	7790.47
938.36	7540.62
938.53	7473.04
938.70	7376.78
938.86	7399.31
939.03	7303.06
939.20	7106.45
939.36	7260.05
939.53	7077.78
939.70	7137.17
939.86	6766.49
940.03	6782.87
940.19	6803.35
940.36	6614.94
940.53	6776.73
940.69	6680.47
940.86	6481.82
941.03	6434.72
941.19	6309.79
941.36	6401.95
941.52	6254.50
941.69	6166.43
941.86	6258.59
942.02	6031.27
942.19	6154.15
942.35	6061.99
942.52	5955.49
942.69	5918.63
942.85	5885.86
943.02	5851.05
943.18	5840.81
943.35	5824.42
943.52	5744.55
943.68	5552.04
943.85	5625.77
944.01	5531.56
944.18	5359.53
944.35	5554.09
944.51	5380.01
944.68	5410.73
944.84	5463.98
945.01	5218.22
945.17	5328.81
945.34	5447.60
945.51	5513.13
945.67	5232.56
945.84	5205.94
946.00	5140.40
946.17	5246.90
946.33	5210.03
946.50	5361.58
946.67	5146.55
946.83	5162.93
947.00	5328.81
947.16	5238.70
947.33	5107.63
947.49	5214.13
947.66	5009.33
947.82	5179.31
947.99	5152.69
948.16	5255.09
948.32	5140.40
948.49	5181.36
948.65	5316.53
948.82	5253.04
948.98	5269.42
949.15	5187.50
949.31	5201.84
949.48	5138.35
949.64	5330.86
949.81	5312.43
949.97	5148.59
950.14	5232.56
950.30	5359.53
950.47	5230.51
950.63	5234.61
950.80	5097.39
950.96	5185.46
951.13	5179.31
951.30	5203.89
951.46	5250.99
951.63	5457.84
951.79	5171.12
951.96	5300.14
952.12	5267.38
952.29	5289.90
952.45	5181.36
952.62	5326.77
952.78	5310.38
952.94	5357.49
953.11	5250.99
953.27	5093.30
953.44	5441.45
953.60	5498.80
953.77	5339.05
953.93	5275.57
954.10	5341.10
954.26	5283.76
954.43	5328.81
954.59	5459.88
954.76	5332.91
954.92	5310.38
955.09	5447.60
955.25	5232.56
955.42	5347.25
955.58	5423.02
955.75	5425.07
955.91	5291.95
956.07	5351.34
956.24	5226.42
956.40	5439.40
956.57	5386.16
956.73	5384.11
956.90	5337.01
957.06	5351.34
957.23	5402.54
957.39	5373.87
957.56	5343.15
957.72	5341.10
957.88	5242.80
958.05	5476.27
958.21	5431.21
958.38	5365.68
958.54	5337.01
958.71	5502.89
958.87	5334.96
959.03	5369.77
959.20	5455.79
959.36	5337.01
959.53	5343.15
959.69	5425.07
959.85	5324.72
960.02	5326.77
960.18	5451.69
960.35	5287.86
960.51	5392.30
960.68	5410.73
960.84	5355.44
961.00	5289.90
961.17	5226.42
961.33	5334.96
961.50	5435.31
961.66	5398.45
961.82	5392.30
961.99	5365.68
962.15	5240.75
962.31	5339.05
962.48	5427.12
962.64	5283.76
962.81	5316.53
962.97	5312.43
963.13	5310.38
963.30	5390.25
963.46	5267.38
963.62	5279.66
963.79	5169.07
963.95	5380.01
964.12	5205.94
964.28	5353.39
964.44	5162.93
964.61	5300.14
964.77	5279.66
964.93	5353.39
965.10	5351.34
965.26	5302.19
965.42	5050.29
965.59	5271.47
965.75	5236.66
965.92	5201.84
966.08	5281.71
966.24	5179.31
966.41	5058.48
966.57	5236.66
966.73	5267.38
966.90	5134.26
967.06	5218.22
967.22	5185.46
967.39	5021.62
967.55	5091.25
967.71	5042.10
967.88	4997.04
968.04	5048.24
968.20	5167.03
968.37	5052.34
968.53	5119.92
968.69	5111.73
968.85	5115.83
969.02	5103.54
969.18	4990.90
969.34	4997.04
969.51	4966.32
969.67	5103.54
969.83	4902.84
970.00	5003.19
970.16	5007.28
970.32	4964.28
970.48	5148.59
970.65	4949.94
970.81	4982.71
970.97	4964.28
971.14	4947.89
971.30	5050.29
971.46	4904.89
971.63	4958.13
971.79	5027.76
971.95	4951.99
972.11	4886.45
972.28	4919.22
972.44	4902.84
972.60	4804.53
972.76	4923.32
972.93	4712.38
973.09	4886.45
973.25	4874.17
973.42	4833.21
973.58	4755.38
973.74	4839.35
973.90	4734.90
974.07	4808.63
974.23	4657.08
974.39	4771.77
974.55	4726.71
974.72	4757.43
974.88	4650.94
975.04	4782.01
975.20	4802.49
975.37	4861.88
975.53	4630.46
975.69	4714.42
975.85	4544.44
976.01	4640.70
976.18	4698.04
976.34	4724.66
976.50	4753.34
976.66	4687.80
976.83	4747.19
976.99	4644.79
977.15	4669.37
977.31	4571.07
977.47	4614.07
977.64	4614.07
977.80	4456.38
977.96	4558.78
978.12	4659.13
978.29	4515.77
978.45	4376.51
978.61	4466.62
978.77	4593.59
978.93	4460.48
979.10	4386.75
979.26	4509.63
979.42	4462.52
979.58	4417.47
979.74	4440.00
979.91	4448.19
980.07	4341.69
980.23	4499.39
980.39	4431.80
980.55	4396.99
980.71	4261.82
980.88	4218.82
981.04	4335.55
981.20	4433.85
981.36	4329.41
981.52	4392.89
981.68	4239.30
981.85	4472.76
982.01	4325.31
982.17	4315.07
982.33	4255.68
982.49	4341.69
982.65	4218.82
982.82	4247.49
982.98	4214.72
983.14	4042.69
983.30	4190.14
983.46	4300.73
983.62	4222.91
983.79	4147.14
983.95	4202.43
984.11	4265.92
984.27	4163.52
984.43	4171.71
984.59	4184.00
984.75	4136.90
984.91	4136.90
985.08	4165.57
985.24	4122.56
985.40	4085.70
985.56	4126.66
985.72	4042.69
985.88	4057.03
986.04	3952.58
986.20	4003.78
986.37	4038.59
986.53	4046.79
986.69	3958.72
986.85	4022.21
987.01	3934.15
987.17	4097.99
987.33	3997.64
987.49	3952.58
987.65	3915.72
987.82	3944.39
987.98	3854.28
988.14	3940.29
988.30	3997.64
988.46	3989.44
988.62	3909.57
988.78	3841.99
988.94	3936.20
989.10	3844.04
989.26	3655.62
989.42	3827.65
989.59	3801.03
989.75	3751.88
989.91	3809.22
990.07	3649.48
990.23	3721.16
990.39	3762.12
990.55	3751.88
990.71	3770.31
990.87	3758.02
991.03	3850.18
991.19	3731.40
991.35	3733.45
991.51	3704.78
991.67	3803.08
991.83	3745.73
992.00	3723.21
992.16	3782.60
992.32	3688.39
992.48	3702.73
992.64	3563.47
992.80	3659.72
992.96	3547.08
993.12	3641.29
993.28	3737.54
993.44	3590.09
993.60	3624.90
993.76	3551.18
993.92	3657.67
994.08	3680.20
994.24	3643.34
994.40	3575.75
994.56	3682.25
994.72	3559.37
994.88	3452.88
995.04	3534.79
995.20	3426.25
995.36	3411.92
995.52	3555.27
995.68	3520.46
995.84	3450.83
996.00	3524.55
996.16	3551.18
996.32	3516.36
996.48	3381.20
996.64	3641.29
996.80	3477.45
996.96	3512.27
997.12	3459.02
997.28	3340.24
997.44	3311.57
997.60	3377.10
997.76	3350.48
997.92	3422.16
998.08	3364.81
998.24	3301.33
998.40	3385.29
998.56	3489.74
998.72	3309.52
998.88	3190.74
999.04	3250.13
999.20	3340.24
999.36	3297.23
999.52	3401.68
999.68	3356.62
999.84	3321.81
1000.00	3346.38
1000.16	3334.09
1000.32	3241.93
1000.48	3305.42
1000.64	3200.98
1000.80	3239.89
1000.95	3067.86
1001.11	3194.83
1001.27	3098.58
1001.43	3164.11
1001.59	3131.34
1001.75	3182.54
1001.91	3127.25
1002.07	3100.62
1002.23	3170.26
1002.39	3076.05
1002.55	3141.58
1002.71	3065.81
1002.87	3100.62
1003.03	3076.05
1003.19	3084.24
1003.34	3117.01
1003.50	3065.81
1003.66	3141.58
1003.82	3117.01
1003.98	3004.37
1004.14	3016.66
1004.30	3096.53
1004.46	3053.52
1004.62	3049.43
1004.78	3035.09
1004.94	3000.27
1005.09	3000.27
1005.25	3061.71
1005.41	2908.12
1005.57	3006.42
1005.73	2944.98
1005.89	2926.55
1006.05	3030.99
1006.21	2992.08
1006.37	3024.85
1006.52	2924.50
1006.68	2793.43
1006.84	2873.30
1007.00	3035.09
1007.16	2916.31
1007.32	2873.30
1007.48	2869.20
1007.64	2942.93
1007.79	2852.82
1007.95	2877.40
1008.11	2953.17
1008.27	2807.77
1008.43	2949.08
1008.59	2877.40
1008.75	2867.16
1008.91	2854.87
1009.06	2846.68
1009.22	2848.72
1009.38	2840.53
1009.54	2805.72
1009.70	2846.68
1009.86	2813.91
1010.01	2922.45
1010.17	2781.14
1010.33	2795.48
1010.49	2824.15
1010.65	2779.09
1010.81	2682.84
1010.96	2809.81
1011.12	2746.33
1011.28	2666.46
1011.44	2723.80
1011.60	2652.12
1011.76	2715.61
1011.91	2715.61
1012.07	2682.84
1012.23	2613.21
1012.39	2629.59
1012.55	2697.17
1012.71	2623.45
1012.86	2629.59
1013.02	2613.21
1013.18	2625.50
1013.34	2645.98
1013.50	2738.13
1013.65	2529.24
1013.81	2539.48
1013.97	2629.59
1014.13	2582.49
1014.29	2621.40
1014.44	2715.61
1014.60	2580.44
1014.76	2568.15
1014.92	2582.49
1015.07	2543.58
1015.23	2625.50
1015.39	2516.95
1015.55	2547.67
1015.71	2602.97
1015.86	2467.80
1016.02	2486.23
1016.18	2459.61
1016.34	2500.57
1016.49	2502.62
1016.65	2512.86
1016.81	2510.81
1016.97	2449.37
1017.12	2619.35
1017.28	2457.56
1017.44	2373.60
1017.60	2418.65
1017.75	2406.36
1017.91	2441.18
1018.07	2516.95
1018.23	2541.53
1018.38	2326.49
1018.54	2443.23
1018.70	2426.84
1018.86	2400.22
1019.01	2381.79
1019.17	2367.45
1019.33	2430.94
1019.49	2445.27
1019.64	2414.56
1019.80	2467.80
1019.96	2373.60
1020.12	2275.29
1020.27	2420.70
1020.43	2387.93
1020.59	2432.99
1020.74	2328.54
1020.90	2400.22
1021.06	2297.82
1021.22	2416.60
1021.37	2295.77
1021.53	2387.93
1021.69	2363.36
1021.84	2260.96
1022.00	2213.85
1022.16	2355.16
1022.31	2377.69
1022.47	2336.73
1022.63	2363.36
1022.79	2199.52
1022.94	2248.67
1023.10	2316.25
1023.26	2240.48
1023.41	2254.81
1023.57	2258.91
1023.73	2220.00
1023.88	2242.53
1024.04	2224.09
1024.20	2211.81
1024.35	2281.44
1024.51	2310.11
1024.67	2240.48
1024.82	2379.74
1024.98	2179.04
1025.14	2289.63
1025.29	2220.00
1025.45	2308.06
1025.61	2088.93
1025.76	2117.60
1025.92	2189.28
1026.08	2263.01
1026.23	2248.67
1026.39	2226.14
1026.55	2224.09
1026.70	2162.66
1026.86	2095.07
1027.02	2164.70
1027.17	2166.75
1027.33	2189.28
1027.48	2146.27
1027.64	2179.04
1027.80	2080.74
1027.95	2117.60
1028.11	2140.13
1028.27	2152.42
1028.42	2133.98
1028.58	2125.79
1028.73	2103.26
1028.89	2078.69
1029.05	2232.29
1029.20	2168.80
>>>>>End Processed Spectral Data<<<<<
