SpectraSuite Data File
++++++++++++++++++++++++++++++++++++
Date: Fri Jun 02 14:47:57 CEST 2017
User: INFO_000
Dark Spectrum Present: No
Reference Spectrum Present: No
Number of Sampled Component Spectra: 1
Spectrometers: USB4H00879
Integration Time (usec): 80000 (USB4H00879)
Spectra Averaged: 1 (USB4H00879)
Boxcar Smoothing: 0 (USB4H00879)
Correct for Electrical Dark: No (USB4H00879)
Strobe/Lamp Enabled: No (USB4H00879)
Correct for Detector Non-linearity: No (USB4H00879)
Correct for Stray Light: No (USB4H00879)
Number of Pixels in Processed Spectrum: 3648
>>>>>Begin Processed Spectral Data<<<<<
345.13	1208.30
345.34	1208.30
345.56	1208.30
345.78	1279.98
345.99	1306.60
346.21	1714.15
346.42	1742.82
346.64	1722.34
346.86	1761.25
347.07	1613.80
347.29	1718.25
347.50	1574.89
347.72	1613.80
347.94	1662.95
348.15	1585.13
348.37	1634.28
348.59	1744.87
348.80	1650.66
349.02	1705.96
349.23	1837.03
349.45	1783.78
349.67	1955.81
349.88	1812.45
350.10	1937.38
350.31	1802.21
350.53	1849.32
350.75	1925.09
350.96	1810.40
351.18	1845.22
351.39	1820.64
351.61	1744.87
351.82	1951.71
352.04	1884.13
352.26	1908.71
352.47	1906.66
352.69	1888.23
352.90	1775.59
353.12	1877.99
353.34	1939.43
353.55	1834.98
353.77	1861.60
353.98	1890.28
354.20	1877.99
354.41	1847.27
354.63	2021.35
354.85	2039.78
355.06	1992.67
355.28	1787.88
355.49	1912.80
355.71	1857.51
355.92	1914.85
356.14	1877.99
356.35	1857.51
356.57	1949.67
356.79	1918.95
357.00	1781.73
357.22	2013.15
357.43	1837.03
357.65	1978.34
357.86	1834.98
358.08	1841.12
358.29	1945.57
358.51	1961.95
358.72	2007.01
358.94	1892.32
359.16	1990.63
359.37	1970.15
359.59	1990.63
359.80	2004.96
360.02	1925.09
360.23	2015.20
360.45	2023.39
360.66	1935.33
360.88	1877.99
361.09	1900.52
361.31	2033.63
361.52	1992.67
361.74	2056.16
361.95	2033.63
362.17	2007.01
362.38	2074.59
362.60	1959.91
362.81	1929.19
363.03	1937.38
363.24	1994.72
363.46	2052.06
363.67	2033.63
363.89	1996.77
364.10	2025.44
364.32	1951.71
364.53	2060.26
364.75	1871.84
364.96	2111.46
365.18	1970.15
365.39	1953.76
365.61	1935.33
365.82	2117.60
366.04	2002.91
366.25	1996.77
366.47	2101.22
366.68	2064.35
366.90	2027.49
367.11	2045.92
367.33	2154.46
367.54	2074.59
367.76	1957.86
367.97	2099.17
368.19	2007.01
368.40	2127.84
368.62	1931.23
368.83	1925.09
369.05	2045.92
369.26	1968.10
369.48	2027.49
369.69	1925.09
369.91	2117.60
370.12	2093.02
370.33	2043.87
370.55	2002.91
370.76	2086.88
370.98	2043.87
371.19	2015.20
371.41	1992.67
371.62	2039.78
371.84	2015.20
372.05	2224.09
372.27	2088.93
372.48	2050.02
372.69	2033.63
372.91	2158.56
373.12	2148.32
373.34	2103.26
373.55	2191.33
373.77	2183.13
373.98	2127.84
374.20	2197.47
374.41	2197.47
374.62	2215.90
374.84	2142.18
375.05	2260.96
375.27	2158.56
375.48	2158.56
375.70	2138.08
375.91	2201.57
376.12	2303.96
376.34	2207.71
376.55	2150.37
376.77	2232.29
376.98	2064.35
377.19	2172.89
377.41	2123.74
377.62	2148.32
377.84	2164.70
378.05	2363.36
378.27	2176.99
378.48	2357.21
378.69	2416.60
378.91	2242.53
379.12	2248.67
379.34	2215.90
379.55	2312.16
379.76	2179.04
379.98	2166.75
380.19	2258.91
380.41	2240.48
380.62	2279.39
380.83	2263.01
381.05	2117.60
381.26	2353.12
381.47	2217.95
381.69	2170.85
381.90	2392.03
382.12	2209.76
382.33	2303.96
382.54	2260.96
382.76	2342.88
382.97	2396.12
383.19	2228.19
383.40	2330.59
383.61	2230.24
383.83	2260.96
384.04	2289.63
384.25	2377.69
384.47	2357.21
384.68	2371.55
384.89	2303.96
385.11	2359.26
385.32	2312.16
385.54	2275.29
385.75	2344.92
385.96	2439.13
386.18	2342.88
386.39	2389.98
386.60	2291.68
386.82	2412.51
387.03	2428.89
387.24	2439.13
387.46	2473.95
387.67	2389.98
387.88	2506.71
388.10	2510.81
388.31	2455.51
388.52	2537.43
388.74	2461.66
388.95	2439.13
389.16	2584.54
389.38	2463.71
389.59	2582.49
389.80	2572.25
390.02	2580.44
390.23	2592.73
390.44	2555.86
390.66	2447.32
390.87	2484.19
391.08	2576.34
391.30	2729.94
391.51	2629.59
391.72	2584.54
391.94	2705.37
392.15	2605.02
392.36	2658.26
392.58	2508.76
392.79	2613.21
393.00	2648.02
393.22	2738.13
393.43	2768.85
393.64	2764.76
393.85	2815.96
394.07	2658.26
394.28	2670.55
394.49	2748.37
394.71	2811.86
394.92	2869.20
395.13	2664.41
395.35	2688.98
395.56	2713.56
395.77	2830.29
395.98	2811.86
396.20	2754.52
396.41	2893.78
396.62	2797.53
396.84	2754.52
397.05	2748.37
397.26	2887.64
397.47	2910.16
397.69	2846.68
397.90	3002.32
398.11	2871.25
398.32	2791.38
398.54	2858.96
398.75	2865.11
398.96	2983.89
399.18	3157.97
399.39	3018.71
399.60	3063.76
399.81	2951.12
400.03	2920.40
400.24	3276.75
400.45	3014.61
400.66	3057.62
400.88	2916.31
401.09	3160.02
401.30	3092.43
401.51	3258.32
401.73	3117.01
401.94	3074.00
402.15	3082.19
402.36	3096.53
402.58	3088.34
402.79	3110.86
403.00	3186.64
403.21	3127.25
403.43	3217.36
403.64	3237.84
403.85	3121.10
404.06	3311.57
404.27	3059.67
404.49	3237.84
404.70	3106.77
404.91	3301.33
405.12	3213.26
405.34	3233.74
405.55	3364.81
405.76	3102.67
405.97	3276.75
406.19	3397.58
406.40	3198.93
406.61	3315.66
406.82	3280.85
407.03	3311.57
407.25	3268.56
407.46	3325.90
407.67	3362.76
407.88	3403.72
408.09	3311.57
408.31	3405.77
408.52	3352.52
408.73	3336.14
408.94	3266.51
409.15	3430.35
409.37	3362.76
409.58	3516.36
409.79	3510.22
410.00	3551.18
410.21	3399.63
410.43	3510.22
410.64	3502.03
410.85	3510.22
411.06	3549.13
411.27	3469.26
411.48	3514.31
411.70	3475.40
411.91	3432.40
412.12	3676.10
412.33	3616.71
412.54	3467.21
412.76	3772.36
412.97	3557.32
413.18	3567.56
413.39	3592.14
413.60	3639.24
413.81	3530.70
414.03	3565.51
414.24	3608.52
414.45	3839.94
414.66	3645.38
414.87	3760.07
415.08	3614.66
415.30	3620.81
415.51	3665.86
415.72	3858.37
415.93	3678.15
416.14	3659.72
416.35	3790.79
416.56	3735.50
416.78	3782.60
416.99	3872.71
417.20	3825.61
417.41	3764.17
417.62	3813.32
417.83	3891.14
418.04	3903.43
418.26	3897.28
418.47	3948.48
418.68	3962.82
418.89	3960.77
419.10	3999.68
419.31	3921.86
419.52	4052.93
419.73	4100.03
419.95	4069.31
420.16	3948.48
420.37	4030.40
420.58	4018.11
420.79	3835.85
421.00	4028.35
421.21	4124.61
421.42	3977.16
421.63	4106.18
421.85	4136.90
422.06	4171.71
422.27	4069.31
422.48	4097.99
422.69	4233.15
422.90	4028.35
423.11	4171.71
423.32	4259.78
423.53	4419.52
423.75	4427.71
423.96	4313.02
424.17	4427.71
424.38	4474.81
424.59	4382.65
424.80	4591.55
425.01	4523.96
425.22	4306.88
425.43	4360.13
425.64	4564.92
425.85	4538.30
426.06	4591.55
426.28	4433.85
426.49	4513.72
426.70	4523.96
426.91	4630.46
427.12	4648.89
427.33	4616.12
427.54	4628.41
427.75	4689.85
427.96	4833.21
428.17	4734.90
428.38	4845.49
428.59	4808.63
428.80	4763.58
429.01	4884.41
429.23	4769.72
429.44	4935.60
429.65	4915.12
429.86	4917.17
430.07	4798.39
430.28	4759.48
430.49	4904.89
430.70	5171.12
430.91	5101.49
431.12	4820.92
431.33	5078.96
431.54	5111.73
431.75	5105.59
431.96	5023.67
432.17	5156.79
432.38	5183.41
432.59	5253.04
432.80	5310.38
433.01	5142.45
433.22	5341.10
433.43	5134.26
433.64	5126.07
433.85	5300.14
434.06	5277.62
434.27	5289.90
434.49	5365.68
434.70	5412.78
434.91	5498.80
435.12	5377.97
435.33	5478.32
435.54	5468.08
435.75	5173.17
435.96	5550.00
436.17	5384.11
436.38	5582.76
436.59	5631.91
436.80	5593.00
437.01	5736.36
437.22	5773.22
437.43	5613.48
437.64	5502.89
437.85	5767.08
438.06	5578.67
438.27	5580.71
438.48	5640.11
438.69	5779.37
438.90	5744.55
439.11	5752.74
439.32	5894.05
439.53	5814.18
439.74	5703.59
439.95	5910.44
440.16	5816.23
440.37	5832.62
440.57	5787.56
440.78	5783.46
440.99	6135.71
441.20	5908.39
441.41	5900.20
441.62	5949.35
441.83	5894.05
442.04	5955.49
442.25	5926.82
442.46	5949.35
442.67	6059.94
442.88	6492.06
443.09	5832.62
443.30	5978.02
443.51	6174.63
443.72	6352.80
443.93	6188.96
444.14	6459.29
444.35	6195.11
444.56	6281.12
444.77	6307.74
444.98	6313.89
445.19	6182.82
445.40	6209.44
445.61	6227.87
445.81	6498.20
446.02	6459.29
446.23	6373.28
446.44	6283.17
446.65	6623.13
446.86	6463.39
447.07	6561.69
447.28	6694.81
447.49	6573.98
447.70	6414.24
447.91	6528.92
448.12	6823.83
448.33	6811.54
448.54	6559.64
448.74	6680.47
448.95	6688.67
449.16	6727.58
449.37	6875.03
449.58	6653.85
449.79	6805.40
450.00	6639.51
450.21	6975.38
450.42	6875.03
450.63	6983.57
450.84	6784.92
451.05	6922.13
451.25	6819.74
451.46	6778.78
451.67	7055.25
451.88	7206.80
452.09	7020.44
452.30	6983.57
452.51	7042.96
452.72	7151.51
452.93	7462.80
453.13	6944.66
453.34	7051.16
453.55	7298.96
453.76	7274.38
453.97	7628.68
454.18	7202.71
454.39	7481.23
454.60	7389.07
454.81	7360.40
455.01	7571.34
455.22	7231.38
455.43	7630.73
455.64	7817.10
455.85	7722.89
456.06	7870.34
456.27	7745.42
456.48	7769.99
456.68	7896.97
456.89	7987.08
457.10	7878.54
457.31	7890.82
457.52	7837.58
457.73	8046.47
457.94	8054.66
458.14	7954.31
458.35	8300.42
458.56	7995.27
458.77	8103.81
458.98	8177.54
459.19	8322.94
459.39	8261.51
459.60	8451.97
459.81	8341.38
460.02	8390.53
460.23	8451.97
460.44	8597.37
460.65	8509.31
460.85	8630.14
461.06	8806.27
461.27	8482.69
461.48	8826.75
461.69	8716.16
461.89	8394.62
462.10	8748.92
462.31	8736.63
462.52	8798.07
462.73	8836.99
462.94	9101.17
463.14	9113.46
463.35	9064.31
463.56	9459.57
463.77	9240.44
463.98	9097.08
464.18	9035.64
464.39	9422.70
464.60	9621.36
464.81	9434.99
465.02	9369.46
465.23	9777.00
465.43	9424.75
465.64	9801.58
465.85	9742.19
466.06	9637.74
466.27	9987.94
466.47	9832.30
466.68	10080.10
466.89	10035.05
467.10	10033.00
467.30	10053.48
467.51	10028.90
467.72	10385.25
467.93	10137.45
468.14	10110.82
468.34	10405.73
468.55	10391.39
468.76	10407.78
468.97	10463.07
469.17	10571.61
469.38	10628.96
469.59	10846.04
469.80	10735.45
470.01	10766.17
470.21	10862.43
470.42	11112.28
470.63	10987.35
470.84	10966.87
471.04	11349.84
471.25	11183.96
471.46	11296.60
471.67	11640.65
471.87	11435.86
472.08	11679.57
472.29	11824.97
472.50	11626.32
472.70	11708.24
472.91	11839.31
473.12	11800.40
473.33	11908.94
473.53	12097.35
473.74	11988.81
473.95	12191.56
474.16	12158.79
474.36	12396.35
474.57	12543.81
474.78	12685.12
474.99	12320.58
475.19	12513.09
475.40	12650.30
475.61	12990.27
475.81	13010.75
476.02	13049.66
476.23	12930.87
476.44	13387.57
476.64	13371.19
476.85	13377.33
477.06	13221.69
477.27	13709.10
477.47	13737.77
477.68	13586.22
477.89	13743.92
478.09	13797.17
478.30	13934.38
478.51	13803.31
478.71	14020.39
478.92	14106.41
479.13	14317.35
479.34	14518.05
479.54	14614.30
479.75	14548.77
479.96	14737.18
480.16	14677.79
480.37	14704.42
480.58	14849.82
480.78	15023.90
480.99	14968.60
481.20	15204.12
481.41	15075.10
481.61	15380.25
481.82	15525.65
482.03	15398.68
482.23	15478.55
482.44	15662.86
482.65	15882.00
482.85	15900.43
483.06	15906.57
483.27	16066.31
483.47	16064.27
483.68	16166.67
483.89	16541.44
484.09	16256.78
484.30	16568.07
484.51	16711.42
484.71	16490.24
484.92	16545.54
485.13	16768.77
485.33	17075.96
485.54	16826.11
485.75	17264.38
485.95	17395.45
486.16	17260.28
486.37	17448.69
486.57	17469.17
486.78	17444.60
486.98	17663.73
487.19	17841.90
487.40	17809.14
487.60	17788.66
487.81	17915.63
488.02	17725.17
488.22	17866.48
488.43	18208.49
488.64	17997.55
488.84	18554.60
489.05	18646.76
489.25	18484.97
489.46	18730.72
489.67	18687.71
489.87	18882.27
490.08	18697.95
490.29	18687.71
490.49	19283.67
490.70	19277.53
490.90	19216.09
491.11	19220.19
491.32	19314.39
491.52	19410.65
491.73	19427.03
491.94	19732.18
492.14	19320.54
492.35	19881.68
492.55	19963.60
492.76	19936.98
492.97	20231.88
493.17	20000.46
493.38	20217.55
493.58	20627.14
493.79	20405.96
494.00	20186.83
494.20	20606.66
494.41	20698.82
494.61	20715.20
494.82	20774.60
495.02	20551.37
495.23	20983.49
495.44	21067.45
495.64	21137.09
495.85	21288.64
496.05	21376.70
496.26	21300.92
496.47	21595.83
496.67	21108.41
496.88	21860.02
497.08	21343.93
497.29	21622.45
497.49	21702.32
497.70	21808.82
497.91	22066.86
498.11	22150.83
498.32	22392.49
498.52	22062.77
498.73	22273.71
498.93	22537.90
499.14	22673.06
499.34	22460.07
499.55	22646.44
499.76	22611.62
499.96	22881.95
500.17	22681.25
500.37	23189.15
500.58	23015.07
500.78	22841.00
500.99	22937.25
501.19	23420.57
501.40	23264.92
501.60	23232.16
501.81	23461.53
502.02	23408.28
502.22	23361.18
502.43	23598.74
502.63	24053.39
502.84	23832.21
503.04	23895.70
503.25	23787.16
503.45	24186.51
503.66	24327.82
503.86	24133.26
504.07	24419.98
504.27	24018.58
504.48	24643.21
504.68	24518.28
504.89	24913.54
505.09	24379.02
505.30	24655.50
505.50	24974.98
505.71	25003.65
505.91	25179.78
506.12	24745.61
506.32	25073.28
506.53	25190.02
506.73	24938.12
506.94	25079.43
507.14	25337.47
507.35	25386.62
507.55	25667.19
507.76	25273.98
507.96	25480.83
508.17	25718.39
508.37	25568.89
508.58	25738.87
508.78	25603.71
508.99	25745.02
509.19	25867.89
509.40	26048.11
509.60	25812.60
509.81	26056.31
510.01	26048.11
510.22	26312.30
510.42	26316.40
510.63	26416.75
510.83	26304.11
511.04	26361.45
511.24	26660.46
511.44	26470.00
511.65	26797.67
511.85	26529.39
512.06	26789.48
512.26	26689.13
512.47	27139.68
512.67	26826.34
512.88	26629.74
513.08	26795.62
513.29	27084.39
513.49	27410.01
513.69	27029.09
513.90	27399.77
514.10	27491.93
514.31	27592.28
514.51	27416.16
514.72	27520.60
514.92	27330.14
515.13	27383.39
515.33	27842.14
515.53	27807.32
515.74	27577.95
515.94	27690.59
516.15	27919.96
516.35	27745.88
516.56	28132.95
516.76	27879.00
516.96	27676.25
517.17	28376.66
517.37	28186.19
517.58	27956.82
517.78	28130.90
517.99	28245.58
518.19	28698.19
518.39	28634.70
518.60	28440.14
518.80	28499.53
519.01	28423.76
519.21	28872.26
519.41	28814.92
519.62	28788.30
519.82	28831.30
520.03	29050.44
520.23	29097.54
520.43	28997.19
520.64	29212.23
520.84	29826.62
521.05	29132.36
521.25	29406.78
521.45	29156.93
521.66	29744.70
521.86	29666.88
522.07	29693.50
522.27	29873.72
522.47	29787.71
522.68	30092.85
522.88	29806.14
523.08	30277.17
523.29	30131.76
523.49	30090.80
523.70	30305.84
523.90	30613.04
524.10	30506.54
524.31	30594.61
524.51	30340.66
524.71	30996.01
524.92	30819.88
525.12	30959.14
525.33	30785.07
525.53	31186.47
525.73	31264.29
525.94	31026.73
526.14	31303.20
526.34	30864.94
526.55	31385.12
526.75	31288.87
526.95	31661.60
527.16	31538.72
527.36	31743.52
527.56	31684.12
527.77	31796.76
527.97	31968.79
528.17	31936.02
528.38	31960.60
528.58	31972.89
528.78	32292.37
528.99	32290.32
529.19	32273.94
529.39	32261.65
529.60	32695.82
529.80	32169.49
530.00	32214.55
530.21	32884.23
530.41	33242.63
530.61	32706.06
530.82	33048.07
531.02	32888.33
531.22	33072.65
531.43	32960.01
531.63	33476.10
531.83	33619.46
532.04	33629.69
532.24	33338.88
532.44	34037.24
532.64	33705.47
532.85	33857.02
533.05	33621.50
533.25	34162.17
533.46	33879.55
533.66	34196.98
533.86	34151.93
534.07	34616.82
534.27	34199.03
534.47	34584.05
534.67	34471.41
534.88	34293.24
535.08	34579.95
535.28	34967.02
535.49	34969.07
535.69	35089.90
535.89	34858.48
536.09	35304.93
536.30	35372.52
536.50	35347.94
536.70	35339.75
536.91	35431.91
537.11	35321.32
537.31	35378.66
537.51	35565.03
537.72	35864.03
537.92	35927.52
538.12	36511.19
538.32	36152.79
538.53	36359.64
538.73	35802.59
538.93	35737.05
539.13	36068.83
539.34	36443.60
539.54	36003.29
539.74	36681.17
539.94	36333.01
540.15	36459.99
540.35	36842.96
540.55	36734.42
540.75	36681.17
540.96	36668.88
541.16	37117.39
541.36	36851.15
541.56	37318.09
541.77	37522.88
541.97	37277.13
542.17	37234.12
542.37	37357.00
542.58	37658.05
542.78	37107.15
542.98	37602.75
543.18	37895.61
543.38	38110.65
543.59	37729.73
543.79	37422.53
543.99	37709.25
544.19	37684.67
544.40	38010.30
544.60	38223.29
544.80	38075.84
545.00	38340.02
545.20	38450.61
545.41	38135.23
545.61	38258.10
545.81	38344.12
546.01	37969.34
546.21	38407.61
546.42	38591.92
546.62	38800.82
546.82	38550.96
547.02	38790.58
547.22	39167.40
547.43	38929.84
547.63	39626.15
547.83	38950.32
548.03	38802.86
548.23	39628.20
548.44	39292.33
548.64	39407.01
548.84	39544.23
549.04	39411.11
549.24	39421.35
549.45	39462.31
549.65	39318.95
549.85	39998.88
550.05	39810.46
550.25	39839.14
550.45	39906.72
550.66	39830.94
550.86	39912.86
551.06	40170.91
551.26	40168.86
551.46	40002.97
551.66	40338.84
551.87	40551.83
552.07	40441.24
552.27	40383.90
552.47	40277.40
552.67	40826.26
552.87	40635.80
553.07	40547.73
553.28	41141.64
553.48	40576.40
553.68	40715.67
553.88	41092.49
554.08	40955.28
554.28	41160.08
554.48	40699.28
554.69	41196.94
554.89	41178.51
555.09	41041.29
555.29	40994.19
555.49	41078.16
555.69	41321.87
555.89	41377.16
556.10	41573.77
556.30	41424.26
556.50	41604.49
556.70	41211.28
556.90	41852.29
557.10	41901.44
557.30	41575.81
557.50	42071.42
557.70	41891.20
557.91	41817.47
558.11	41848.19
558.31	41760.13
558.51	41796.99
558.71	41887.10
558.91	42145.15
559.11	42081.66
559.31	42050.94
559.51	42044.80
559.72	42499.45
559.92	42605.94
560.12	42286.46
560.32	42681.72
560.52	42485.11
560.72	42743.16
560.92	42669.43
561.12	42599.80
561.32	43296.11
561.52	42843.51
561.72	43109.74
561.93	42728.82
562.13	42993.01
562.33	43027.82
562.53	43619.69
562.73	43091.31
562.93	42952.05
563.13	43226.48
563.33	43228.52
563.53	43349.35
563.73	43244.91
563.93	43550.06
564.13	43799.91
564.33	42980.72
564.53	43316.59
564.74	43560.30
564.94	43316.59
565.14	43758.95
565.34	43887.97
565.54	44002.66
565.74	43752.80
565.94	44399.96
566.14	43902.31
566.34	43597.16
566.54	44432.73
566.74	43742.56
566.94	44416.35
567.14	44094.82
567.34	43591.01
567.54	44289.37
567.74	44043.62
567.94	44174.69
568.14	44225.89
568.34	44397.91
568.54	44631.38
568.74	44778.84
568.94	44739.93
569.14	45135.18
569.34	45014.35
569.54	45004.11
569.75	44328.28
569.95	44430.68
570.15	44889.43
570.35	44696.92
570.55	44852.56
570.75	44852.56
570.95	44797.27
571.15	45307.21
571.35	44918.10
571.55	45679.94
571.75	45262.16
571.95	45145.42
572.15	45135.18
572.35	45620.55
572.55	45038.93
572.75	45428.04
572.95	45823.30
573.15	45456.71
573.35	45464.91
573.55	45350.22
573.75	45389.13
573.95	45714.76
574.15	45364.56
574.35	45659.46
574.55	45735.24
574.75	45733.19
574.95	45573.45
575.15	45557.06
575.34	46032.19
575.54	46103.87
575.74	46304.57
575.94	46150.98
576.14	45784.39
576.34	46216.51
576.54	46447.93
576.74	46544.19
576.94	45718.85
577.14	46736.69
577.34	46488.89
577.54	46185.79
577.74	46546.23
577.94	46789.94
578.14	46890.29
578.34	46615.86
578.54	46204.22
578.74	46298.43
578.94	47103.28
579.14	46871.86
579.34	46855.48
579.54	46730.55
579.74	47336.75
579.94	47162.67
580.13	47011.12
580.33	47191.34
580.53	47308.08
580.73	47441.20
580.93	47064.37
581.13	47516.97
581.33	47318.32
581.53	47447.34
581.73	47285.55
581.93	47570.22
582.13	47424.81
582.33	47770.92
582.53	47686.95
582.73	47619.37
582.92	47629.61
583.12	48397.60
583.32	47768.87
583.52	47410.48
583.72	47908.13
583.92	48045.35
584.12	48121.12
584.32	48577.82
584.52	48350.49
584.72	48244.00
584.92	48629.02
585.11	48188.70
585.31	48172.32
585.51	48012.58
585.71	48123.17
585.91	48751.90
586.11	48244.00
586.31	48434.46
586.51	48606.49
586.71	48510.24
586.91	48919.83
587.10	48792.86
587.30	48497.95
587.50	48463.13
587.70	48540.96
587.90	49014.04
588.10	49087.76
588.30	48616.73
588.50	48882.97
588.69	48897.30
588.89	48825.62
589.09	49048.85
589.29	49278.22
589.49	49751.30
589.69	48672.03
589.89	49308.94
590.08	49038.61
590.28	49247.50
590.48	48897.30
590.68	49296.66
590.88	49667.34
591.08	49601.80
591.28	49294.61
591.47	49558.80
591.67	49296.66
591.87	49564.94
592.07	49231.12
592.27	49032.47
592.47	49415.44
592.67	49487.12
592.86	49356.05
593.06	49792.26
593.26	50058.50
593.46	49763.59
593.66	49794.31
593.86	50029.83
594.05	49501.45
594.25	50085.12
594.45	49673.48
594.65	49724.68
594.85	49077.52
595.05	50029.83
595.24	50222.34
595.44	49802.50
595.64	50044.16
595.84	49796.36
596.04	49771.78
596.23	50251.01
596.43	50588.92
596.63	50240.77
596.83	50187.52
597.03	50980.09
597.22	50468.09
597.42	50414.85
597.62	50754.81
597.82	50713.85
598.02	50566.40
598.21	50554.11
598.41	50320.64
598.61	50681.08
598.81	50443.52
599.01	51148.02
599.20	50558.20
599.40	50361.60
599.60	50959.61
599.80	50832.63
600.00	50955.51
600.19	51252.47
600.39	50914.55
600.59	51213.55
600.79	51418.35
600.98	50877.69
601.18	51352.82
601.38	51274.99
601.58	51225.84
601.78	51238.13
601.97	51184.88
602.17	51238.13
602.37	51430.64
602.57	51401.97
602.76	51842.28
602.96	51223.79
603.16	51870.95
603.36	51713.26
603.55	52141.28
603.75	51492.08
603.95	51672.30
604.15	52266.21
604.34	51846.38
604.54	51539.18
604.74	51754.22
604.94	51977.45
605.13	52169.96
605.33	52239.59
605.53	51901.67
605.73	52436.19
605.92	52487.39
606.12	52110.56
606.32	52614.37
606.52	52198.63
606.71	52538.59
606.91	52526.30
607.11	52319.46
607.30	52481.25
607.50	52612.32
607.70	52888.79
607.90	52485.34
608.09	52688.09
608.29	52684.00
608.49	52802.78
608.68	52909.27
608.88	53038.29
609.08	52374.75
609.28	53247.19
609.47	52878.55
609.67	53261.52
609.87	52946.14
610.06	53130.45
610.26	52829.40
610.46	53400.79
610.66	53343.44
610.85	53636.30
611.05	53361.87
611.25	53181.65
611.44	52776.15
611.64	53277.91
611.84	53169.36
612.03	52974.81
612.23	53314.77
612.43	53382.35
612.62	52939.99
612.82	53556.43
613.02	53517.52
613.21	53435.60
613.41	53220.56
613.61	53900.49
613.80	53327.06
614.00	53398.74
614.20	53466.32
614.39	53052.63
614.59	53931.21
614.79	53624.01
614.98	53388.50
615.18	53597.39
615.38	53392.59
615.57	53236.95
615.77	53822.67
615.97	53798.09
616.16	53837.00
616.36	53941.45
616.56	54025.42
616.75	53533.90
616.95	53728.46
617.15	53550.29
617.34	53818.57
617.54	53710.03
617.74	54107.33
617.93	54023.37
618.13	53464.27
618.32	53998.79
618.52	53472.46
618.72	54305.99
618.91	54385.86
619.11	53558.48
619.31	53531.86
619.50	53822.67
619.70	53494.99
619.90	53998.79
620.09	53845.19
620.29	54219.97
620.48	53880.01
620.68	54187.21
620.88	53775.56
621.07	54142.15
621.27	54275.27
621.46	53447.89
621.66	53755.08
621.86	54269.12
622.05	53845.19
622.25	54437.06
622.44	53703.88
622.64	53589.20
622.84	54033.61
623.03	53963.98
623.23	54176.97
623.42	54424.77
623.62	53943.50
623.82	54576.32
624.01	54250.69
624.21	54375.62
624.40	54377.67
624.60	54222.02
624.80	54498.50
624.99	53923.02
625.19	53927.11
625.38	54305.99
625.58	54121.67
625.77	54367.43
625.97	54441.15
626.17	53814.47
626.36	54191.30
626.56	54451.39
626.75	53828.81
626.95	54322.37
627.14	53697.74
627.34	54723.77
627.54	54473.92
627.73	54590.66
627.93	54240.45
628.12	54332.61
628.32	54379.71
628.51	54357.19
628.71	54404.29
628.90	54703.29
629.10	54324.42
629.30	54764.73
629.49	54408.39
629.69	54619.33
629.88	54496.45
630.08	54942.91
630.27	54703.29
630.47	54715.58
630.66	54535.36
630.86	55162.04
631.05	54537.41
631.25	55133.37
631.44	54924.47
631.64	54842.56
631.84	54512.83
632.03	55504.05
632.23	54656.19
632.42	55385.27
632.62	54746.30
632.81	54703.29
633.01	54817.98
633.20	55295.16
633.40	55596.21
633.59	54848.70
633.79	55022.78
633.98	54772.92
634.18	54994.10
634.37	55458.99
634.57	55350.45
634.76	55194.81
634.96	55231.67
635.15	55403.70
635.35	55168.18
635.54	54791.36
635.74	55461.04
635.93	55055.54
636.13	55372.98
636.32	55540.91
636.52	54676.67
636.71	55516.34
636.91	55432.37
637.10	55706.80
637.30	55278.77
637.49	55522.48
637.69	55233.72
637.88	55600.30
638.08	55041.21
638.27	55784.62
638.46	55231.67
638.66	55727.28
638.85	55428.27
639.05	55809.20
639.24	55878.83
639.44	55325.88
639.63	55829.68
639.83	55704.75
640.02	55583.92
640.22	55499.95
640.41	55987.37
640.61	55387.31
640.80	55975.08
640.99	55286.96
641.19	56028.33
641.38	55964.84
641.58	55815.34
641.77	55766.19
641.97	55932.07
642.16	55612.59
642.36	55876.78
642.55	56165.54
642.74	55510.19
642.94	56173.73
643.13	55428.27
643.33	56155.30
643.52	56374.44
643.72	56427.68
643.91	56016.04
644.10	56759.45
644.30	56439.97
644.49	55743.66
644.69	56257.70
644.88	56048.81
645.08	55841.96
645.27	55770.28
645.46	55940.27
645.66	56112.30
645.85	56306.85
646.05	56454.31
646.24	56382.63
646.43	56259.75
646.63	56784.03
646.82	56194.21
647.02	56308.90
647.21	56513.70
647.40	56505.51
647.60	56566.94
647.79	56671.39
647.99	56276.13
648.18	55891.12
648.37	56743.07
648.57	56695.97
648.76	56575.14
648.96	56269.99
649.15	56868.00
649.34	56530.08
649.54	56255.65
649.73	56288.42
649.92	56679.58
650.12	56530.08
650.31	56612.00
650.51	56628.38
650.70	56712.35
650.89	56636.58
651.09	57279.64
651.28	56941.72
651.47	56448.16
651.67	56497.31
651.86	57216.15
652.06	56104.10
652.25	56978.59
652.44	56695.97
652.64	56366.24
652.83	56712.35
653.02	56155.30
653.22	56296.61
653.41	56622.24
653.60	56157.35
653.80	56648.86
653.99	56599.71
654.18	56646.82
654.38	56394.92
654.57	56677.54
654.76	56788.13
654.96	57107.61
655.15	56693.92
655.34	56497.31
655.54	56333.48
655.73	56728.73
655.92	57054.36
656.12	56837.28
656.31	56472.74
656.50	57046.17
656.70	56306.85
656.89	56544.42
657.08	56892.57
657.28	56614.05
657.47	56685.73
657.66	57029.79
657.86	56374.44
658.05	56679.58
658.24	56835.23
658.43	56624.29
658.63	56808.61
658.82	56841.37
659.01	56949.92
659.21	56476.83
659.40	56917.15
659.59	56480.93
659.79	56568.99
659.98	56407.20
660.17	56632.48
660.36	56851.61
660.56	56427.68
660.75	56636.58
660.94	56732.83
661.14	56517.79
661.33	56978.59
661.52	56087.72
661.71	56968.35
661.91	56677.54
662.10	56263.85
662.29	56886.43
662.49	56847.52
662.68	56726.69
662.87	56861.85
663.06	56433.83
663.26	56399.01
663.45	56855.71
663.64	56671.39
663.83	56495.27
664.03	56724.64
664.22	56575.14
664.41	56530.08
664.60	56229.03
664.80	56100.01
664.99	56089.77
665.18	56513.70
665.37	56229.03
665.57	56634.53
665.76	56177.83
665.95	56485.03
666.14	56255.65
666.34	56108.20
666.53	56419.49
666.72	56057.00
666.91	56136.87
667.11	56046.76
667.30	56335.52
667.49	56501.41
667.68	56433.83
667.87	55704.75
668.07	56145.06
668.26	56216.74
668.45	56315.04
668.64	56224.93
668.84	56900.76
669.03	56693.92
669.22	56612.00
669.41	56054.95
669.60	56308.90
669.80	55837.87
669.99	56497.31
670.18	56130.73
670.37	56294.56
670.57	56179.88
670.76	55878.83
670.95	56691.87
671.14	55852.20
671.33	56052.90
671.53	56562.85
671.72	56345.76
671.91	55755.95
672.10	55942.31
672.29	55579.82
672.48	55608.50
672.68	56286.37
672.87	55977.13
673.06	55649.45
673.25	55895.21
673.44	55559.34
673.64	55807.15
673.83	55817.39
674.02	56007.85
674.21	55999.66
674.40	55770.28
674.59	55286.96
674.79	55731.37
674.98	55616.69
675.17	55686.32
675.36	55186.61
675.55	55471.28
675.74	55344.31
675.94	55278.77
676.13	55620.78
676.32	55387.31
676.51	55753.90
676.70	55534.77
676.89	55454.90
677.08	55526.58
677.28	55026.87
677.47	56224.93
677.66	55690.41
677.85	55817.39
678.04	55848.11
678.23	55616.69
678.42	55925.93
678.62	55217.33
678.81	55502.00
679.00	55366.84
679.19	55805.10
679.38	55080.12
679.57	55432.37
679.76	55608.50
679.96	55659.69
680.15	55415.99
680.34	55628.98
680.53	55203.00
680.72	55164.09
680.91	55516.34
681.10	55186.61
681.29	55164.09
681.48	55063.74
681.68	55006.39
681.87	54985.91
682.06	55227.57
682.25	54633.66
682.44	55071.93
682.63	55205.05
682.82	54400.19
683.01	54932.67
683.20	54385.86
683.39	54742.20
683.59	55123.13
683.78	55174.33
683.97	54629.57
684.16	54645.95
684.35	54396.10
684.54	54682.81
684.73	54410.43
684.92	54639.81
685.11	54588.61
685.30	54580.42
685.49	54901.95
685.69	54729.92
685.88	54936.76
686.07	54531.26
686.26	54185.16
686.45	54637.76
686.64	54635.71
686.83	54334.66
687.02	54799.55
687.21	54744.25
687.40	54596.80
687.59	54375.62
687.78	54389.95
687.97	54508.74
688.16	54570.18
688.35	54437.06
688.54	54359.23
688.74	54516.93
688.93	54205.64
689.12	54248.64
689.31	54437.06
689.50	54764.73
689.69	54207.68
689.88	53824.71
690.07	54518.98
690.26	54019.27
690.45	54674.62
690.64	54006.98
690.83	53816.52
691.02	54019.27
691.21	54291.65
691.40	53963.98
691.59	54170.82
691.78	53791.95
691.97	54518.98
692.16	53988.55
692.35	54082.76
692.54	54064.33
692.73	53683.40
692.92	54123.72
693.11	54097.09
693.30	53597.39
693.49	53867.72
693.68	54031.56
693.87	53996.74
694.06	53796.04
694.25	53908.68
694.44	53544.14
694.63	53941.45
694.82	53474.51
695.01	54095.05
695.20	53413.07
695.39	53554.38
695.58	53587.15
695.77	53490.90
695.96	53026.01
696.15	53406.93
696.34	53605.58
696.53	53728.46
696.72	53687.50
696.91	53478.61
697.10	53650.64
697.29	53650.64
697.48	53816.52
697.67	53247.19
697.86	53036.25
698.05	53236.95
698.24	53687.50
698.43	53157.08
698.62	53443.79
698.81	52993.24
699.00	53675.21
699.19	52874.46
699.38	53245.14
699.57	52724.96
699.76	53818.57
699.95	53181.65
700.14	53017.82
700.32	53132.50
700.51	53234.90
700.70	53365.97
700.89	53314.77
701.08	53271.76
701.27	52759.77
701.46	53478.61
701.65	52511.97
701.84	53181.65
702.03	53095.64
702.22	52604.13
702.41	53083.35
702.60	53015.77
702.79	53028.05
702.98	52466.91
703.17	52667.61
703.35	52608.22
703.54	52518.11
703.73	53230.80
703.92	52528.35
704.11	52882.65
704.30	52804.83
704.49	52380.90
704.68	52706.52
704.87	52864.22
705.06	52690.14
705.25	52782.30
705.43	52851.93
705.62	52909.27
705.81	52679.90
706.00	52253.92
706.19	52231.40
706.38	52483.30
706.57	52733.15
706.76	52495.58
706.95	52223.20
707.14	52587.74
707.32	52544.73
707.51	52329.70
707.70	52305.12
707.89	52552.93
708.08	52227.30
708.27	52409.57
708.46	52780.25
708.65	52102.37
708.84	52253.92
709.02	52346.08
709.21	52511.97
709.40	52391.14
709.59	52571.36
709.78	52192.48
709.97	52339.94
710.16	52268.26
710.34	51907.82
710.53	51746.03
710.72	52016.36
710.91	52444.38
711.10	52067.56
711.29	52294.88
711.48	51903.72
711.66	52135.14
711.85	51967.21
712.04	52010.21
712.23	51576.04
712.42	52045.03
712.61	51686.64
712.80	51766.51
712.98	52178.15
713.17	51907.82
713.36	51465.45
713.55	51754.22
713.74	51928.30
713.93	52020.45
714.11	51614.96
714.30	51852.52
714.49	51983.59
714.68	51762.41
714.87	51963.11
715.06	52155.62
715.24	51844.33
715.43	51438.83
715.62	51385.58
715.81	51123.44
716.00	51442.93
716.18	51449.07
716.37	51451.12
716.56	51506.41
716.75	51774.70
716.94	51203.31
717.12	51231.99
717.31	51365.10
717.50	51193.07
717.69	51158.26
717.88	51127.54
718.06	51725.55
718.25	51731.69
718.44	51000.57
718.63	51404.02
718.82	51019.00
719.00	50871.54
719.19	50719.99
719.38	50844.92
719.57	50363.65
719.76	50380.03
719.94	50621.69
720.13	50742.52
720.32	51070.20
720.51	50455.81
720.69	50609.40
720.88	50410.75
721.07	50572.54
721.26	50218.24
721.44	49902.85
721.63	49939.72
721.82	49972.49
722.01	50441.47
722.20	50074.88
722.38	49724.68
722.57	49956.10
722.76	50449.66
722.95	50027.78
723.13	49526.03
723.32	49708.30
723.51	49485.07
723.70	49585.42
723.88	49734.92
724.07	49775.88
724.26	49509.64
724.44	49407.25
724.63	49589.52
724.82	49327.38
725.01	49415.44
725.19	49515.79
725.38	49583.37
725.57	49079.57
725.76	49278.22
725.94	49259.79
726.13	49675.53
726.32	49276.18
726.51	49118.48
726.69	49632.52
726.88	49583.37
727.07	49526.03
727.25	49425.68
727.44	49026.32
727.63	49368.33
727.82	49397.01
728.00	49372.43
728.19	49050.90
728.38	49485.07
728.56	48991.51
728.75	49648.91
728.94	49143.06
729.12	49184.02
729.31	49202.45
729.50	49403.15
729.69	49306.90
729.87	48760.09
730.06	49081.62
730.25	48897.30
730.43	49536.27
730.62	49296.66
730.81	49345.81
730.99	49093.91
731.18	48809.24
731.37	49149.20
731.55	49468.69
731.74	49634.57
731.93	49390.86
732.11	49155.35
732.30	48887.06
732.49	48983.32
732.67	48932.12
732.86	48866.58
733.05	48876.82
733.23	48504.09
733.42	48956.69
733.61	48842.01
733.79	48936.21
733.98	49179.92
734.17	48905.49
734.35	48710.94
734.54	48721.18
734.73	48870.68
734.91	48858.39
735.10	48641.31
735.29	48526.62
735.47	47904.04
735.66	48342.30
735.84	48293.15
736.03	48270.62
736.22	48981.27
736.40	48370.97
736.59	48837.91
736.78	48504.09
736.96	48743.70
737.15	48723.22
737.33	48471.32
737.52	48366.88
737.71	48311.58
737.89	48246.05
738.08	48456.99
738.27	48223.52
738.45	48672.03
738.64	48254.24
738.82	48504.09
739.01	48540.96
739.20	48012.58
739.38	47830.31
739.57	48422.17
739.75	48198.94
739.94	48035.11
740.13	48377.12
740.31	47912.23
740.50	48411.93
740.68	48014.63
740.87	48100.64
741.06	48168.22
741.24	48129.31
741.43	47889.70
741.61	47865.13
741.80	47840.55
741.99	47549.74
742.17	48071.97
742.36	47971.62
742.54	47813.93
742.73	47613.23
742.91	48284.96
743.10	47797.54
743.29	47885.61
743.47	47912.23
743.66	47572.27
743.84	47629.61
744.03	47547.69
744.21	47424.81
744.40	47703.34
744.59	47162.67
744.77	47195.44
744.96	47316.27
745.14	47238.45
745.33	47400.24
745.51	47220.02
745.70	47121.71
745.88	46759.22
746.07	47117.62
746.26	46830.90
746.44	46738.74
746.63	46763.32
746.81	46824.76
747.00	46617.91
747.18	47066.42
747.37	47129.90
747.55	47070.51
747.74	47015.22
747.92	46462.27
748.11	46609.72
748.29	46851.38
748.48	46208.32
748.66	46667.06
748.85	46206.27
749.03	46622.01
749.22	46597.43
749.41	46089.54
749.59	46595.38
749.78	46099.78
749.96	45966.66
750.15	46251.33
750.33	46112.06
750.52	46175.55
750.70	45630.79
750.89	46089.54
751.07	46075.20
751.26	46210.37
751.44	45516.11
751.63	45755.72
751.81	45622.60
752.00	45727.05
752.18	45933.89
752.37	45665.61
752.55	45081.94
752.74	45647.18
752.92	45825.35
753.10	45364.56
753.29	46114.11
753.47	45348.17
753.66	44922.19
753.84	45552.97
754.03	45270.35
754.21	44989.78
754.40	45364.56
754.58	45004.11
754.77	45186.38
754.95	44821.84
755.14	45118.80
755.32	44821.84
755.51	44512.60
755.69	44983.63
755.88	44629.34
756.06	45296.97
756.24	44498.26
756.43	44692.82
756.61	44463.45
756.80	44823.89
756.98	44406.11
757.17	44602.71
757.35	44676.44
757.54	44334.43
757.72	44232.03
757.90	44406.11
758.09	44248.41
758.27	44377.43
758.46	43894.11
758.64	44123.49
758.83	44342.62
759.01	44551.51
759.19	44186.97
759.38	44084.58
759.56	44135.77
759.75	43814.24
759.93	44023.14
760.12	43836.77
760.30	44033.38
760.48	43765.09
760.67	43703.65
760.85	43801.96
761.04	43939.17
761.22	44019.04
761.40	43840.87
761.59	43586.92
761.77	43289.96
761.96	43537.77
762.14	43656.55
762.32	43459.94
762.51	43216.24
762.69	43277.68
762.88	43341.16
763.06	43169.13
763.24	43109.74
763.43	43275.63
763.61	42861.94
763.80	43341.16
763.98	42923.38
764.16	42562.93
764.35	42749.30
764.53	42268.03
764.72	42743.16
764.90	42536.31
765.08	42939.76
765.27	42057.09
765.45	42327.42
765.63	41915.78
765.82	42495.35
766.00	41977.22
766.18	42106.24
766.37	42526.07
766.55	41713.03
766.74	42126.72
766.92	42231.16
767.10	41782.66
767.29	41964.93
767.47	41538.95
767.65	42184.06
767.84	41629.06
768.02	41641.35
768.20	41387.40
768.39	41465.22
768.57	41440.65
768.75	41559.43
768.94	41334.15
769.12	41227.66
769.30	41317.77
769.49	41352.58
769.67	41198.99
769.85	41024.91
770.04	41264.52
770.22	40986.00
770.40	41268.62
770.59	41047.44
770.77	41178.51
770.95	40850.83
771.14	40979.85
771.32	40357.27
771.50	40803.73
771.69	40908.18
771.87	40783.25
772.05	40588.69
772.24	40105.37
772.42	40195.48
772.60	40306.07
772.78	40330.65
772.97	40099.23
773.15	40656.28
773.33	40269.21
773.52	39984.54
773.70	40314.26
773.88	40342.94
774.07	40109.47
774.25	40078.75
774.43	40406.42
774.61	40291.74
774.80	40252.83
774.98	39957.92
775.16	40252.83
775.34	40336.79
775.53	39906.72
775.71	40170.91
775.89	40209.82
776.08	40551.83
776.26	40306.07
776.44	40220.06
776.62	39849.38
776.81	40027.55
776.99	40465.81
777.17	40027.55
777.35	40091.04
777.54	40582.55
777.72	40052.12
777.90	40209.82
778.08	40285.59
778.27	40179.10
778.45	40269.21
778.63	40684.95
778.81	39851.42
779.00	40826.26
779.18	40197.53
779.36	40613.27
779.54	40576.40
779.73	40474.01
779.91	40627.60
780.09	40508.82
780.27	40738.19
780.46	40732.05
780.64	40883.60
780.82	40215.96
781.00	40547.73
781.19	40830.35
781.37	40713.62
781.55	40764.82
781.73	40711.57
781.91	40730.00
782.10	40799.63
782.28	40723.86
782.46	40492.44
782.64	40867.22
782.82	40254.87
783.01	40850.83
783.19	41065.87
783.37	40668.56
783.55	40353.18
783.74	41074.06
783.92	40625.56
784.10	41229.71
784.28	40703.38
784.46	40596.88
784.64	40654.23
784.83	40684.95
785.01	41244.04
785.19	41174.41
785.37	41016.72
785.55	40531.35
785.74	40293.79
785.92	40545.69
786.10	40768.91
786.28	41006.48
786.46	40752.53
786.64	40154.52
786.83	40256.92
787.01	40596.88
787.19	40930.70
787.37	40598.93
787.55	40205.72
787.74	40252.83
787.92	40330.65
788.10	40132.00
788.28	39671.20
788.46	40091.04
788.64	39923.10
788.82	39982.49
789.01	39822.75
789.19	40379.80
789.37	39767.46
789.55	39826.85
789.73	39376.30
789.91	39462.31
790.09	39624.10
790.28	39527.84
790.46	39447.97
790.64	39826.85
790.82	39648.68
791.00	39458.21
791.18	39355.82
791.36	39005.61
791.55	38923.69
791.73	39091.63
791.91	38620.59
792.09	39308.71
792.27	38821.30
792.45	39101.87
792.63	39048.62
792.81	38436.28
793.00	38868.40
793.18	38606.26
793.36	38692.27
793.54	38469.04
793.72	38430.13
793.90	37885.37
794.08	38118.84
794.26	38041.02
794.44	38043.07
794.62	37705.15
794.81	37762.50
794.99	37565.89
795.17	37909.95
795.35	37856.70
795.53	37596.61
795.71	37508.55
795.89	37430.72
796.07	37152.20
796.25	37152.20
796.43	37266.89
796.61	36910.54
796.80	37221.83
796.98	37168.58
797.16	36838.86
797.34	36965.84
797.52	36851.15
797.70	37092.81
797.88	36697.55
798.06	36494.80
798.24	36316.63
798.42	36457.94
798.60	36257.24
798.78	36541.91
798.96	36208.09
799.14	36396.50
799.32	36160.98
799.51	35878.36
799.69	36189.66
799.87	36173.27
800.05	35831.26
800.23	36005.34
800.41	35689.95
800.59	35599.84
800.77	35626.46
800.95	35229.16
801.13	35349.99
801.31	35145.19
801.49	34960.87
801.67	35081.70
801.85	35120.62
802.03	35130.86
802.21	35091.94
802.39	34838.00
802.57	34584.05
802.75	34352.63
802.93	34692.59
803.11	34194.93
803.29	34252.28
803.47	34469.36
803.65	34293.24
803.83	34117.11
804.01	34364.92
804.19	33895.93
804.37	33910.27
804.55	34139.64
804.73	33623.55
804.91	33641.98
805.09	33822.20
805.27	33742.33
805.45	34006.52
805.63	33656.32
805.81	33525.25
805.99	33791.48
806.17	33771.00
806.35	33349.12
806.53	33052.17
806.71	33291.78
806.89	33623.55
807.07	32837.13
807.25	33621.50
807.43	32943.63
807.61	33052.17
807.79	33277.44
807.97	32720.40
808.15	32683.53
808.33	32808.46
808.51	32603.66
808.69	32642.57
808.87	32253.46
809.05	32626.19
809.23	32349.71
809.41	32087.57
809.59	32265.75
809.77	32437.78
809.95	32298.52
810.13	32142.87
810.31	31784.48
810.49	32063.00
810.67	31874.59
810.84	31923.74
811.02	31706.65
811.20	31508.00
811.38	31847.96
811.56	31665.69
811.74	31028.77
811.92	31546.91
812.10	31508.00
812.28	31413.79
812.46	31553.05
812.64	31598.11
812.82	30928.42
813.00	31544.86
813.18	31278.63
813.36	30819.88
813.53	30703.15
813.71	31188.52
813.89	30709.29
814.07	30895.66
814.25	30715.44
814.43	30676.52
814.61	30819.88
814.79	30494.25
814.97	30559.79
815.15	30826.03
815.33	30316.08
815.50	30199.35
815.68	30850.60
815.86	30715.44
816.04	30246.45
816.22	30465.58
816.40	30350.90
816.58	30336.56
816.76	30133.81
816.94	30109.24
817.11	30342.70
817.29	30324.27
817.47	30037.56
817.65	29933.11
817.83	29949.50
818.01	29746.75
818.19	29619.77
818.37	29881.91
818.54	29630.01
818.72	29367.87
818.90	29527.61
819.08	29900.34
819.26	29769.27
819.44	29615.68
819.62	29328.96
819.80	29474.37
819.97	29462.08
820.15	29613.63
820.33	29275.71
820.51	29589.05
820.69	29091.40
820.87	29298.24
821.05	29537.85
821.22	29476.41
821.40	29140.55
821.58	28726.86
821.76	28956.23
821.94	28878.41
822.12	28753.48
822.29	28743.24
822.47	28706.38
822.65	28915.27
822.83	28712.52
823.01	28919.37
823.19	28550.73
823.36	28366.42
823.54	28671.56
823.72	28581.45
823.90	28376.66
824.08	28165.71
824.25	28442.19
824.43	28155.47
824.61	28106.32
824.79	28345.94
824.97	28159.57
825.15	28345.94
825.32	28094.04
825.50	28132.95
825.68	28087.89
825.86	28337.74
826.04	28112.47
826.21	27881.05
826.39	28178.00
826.57	27881.05
826.75	27672.15
826.93	27704.92
827.10	27971.16
827.28	27827.80
827.46	27874.90
827.64	27780.70
827.81	27938.39
827.99	27833.94
828.17	27645.53
828.35	27354.72
828.53	27590.24
828.70	27661.91
828.88	27321.95
829.06	27631.19
829.24	27614.81
829.41	27221.60
829.59	27729.50
829.77	27233.89
829.95	27356.77
830.12	27127.39
830.30	27512.41
830.48	27235.94
830.66	27203.17
830.84	27278.94
831.01	27248.22
831.19	27014.76
831.37	27303.52
831.55	26912.36
831.72	26965.60
831.90	27033.19
832.08	26934.88
832.25	27016.80
832.43	27022.95
832.61	26859.11
832.79	26922.60
832.96	26588.78
833.14	26820.20
833.32	26822.25
833.50	26902.12
833.67	26814.05
833.85	26396.27
834.03	26513.00
834.20	26529.39
834.38	26474.09
834.56	26625.64
834.74	26349.17
834.91	26580.59
835.09	26388.08
835.27	26001.01
835.44	26500.72
835.62	26068.59
835.80	25839.22
835.98	26203.76
836.15	26326.64
836.33	26082.93
836.51	26418.80
836.68	25896.56
836.86	25818.74
837.04	25966.20
837.21	25878.13
837.39	26048.11
837.57	25890.42
837.75	26066.55
837.92	25693.82
838.10	25495.16
838.28	25482.88
838.45	25491.07
838.63	25429.63
838.81	25630.33
838.98	25572.99
839.16	25204.35
839.34	25464.44
839.51	25417.34
839.69	25288.32
839.87	25292.41
840.04	25659.00
840.22	25400.96
840.40	25339.52
840.57	25058.95
840.75	25032.32
840.93	24921.73
841.10	25331.33
841.28	25536.12
841.46	25130.62
841.63	25134.72
841.81	25228.93
841.98	25163.39
842.16	25069.19
842.34	25185.92
842.51	25063.04
842.69	25376.38
842.87	25011.84
843.04	25087.62
843.22	24778.37
843.40	24858.24
843.57	25030.27
843.75	25198.21
843.92	24718.98
844.10	24704.65
844.28	24794.76
844.45	24788.61
844.63	24579.72
844.81	24581.77
844.98	25308.80
845.16	24770.18
845.33	24755.85
845.51	24411.79
845.69	24581.77
845.86	24575.62
846.04	24348.30
846.21	24448.65
846.39	24649.35
846.57	24239.76
846.74	24835.72
846.92	24315.53
847.09	24284.81
847.27	24311.44
847.45	24149.65
847.62	24286.86
847.80	24229.52
847.97	24155.79
848.15	24243.85
848.32	23996.05
848.50	24174.22
848.68	23541.40
848.85	24110.74
849.03	23721.62
849.20	24000.15
849.38	24018.58
849.56	23867.03
849.73	23703.19
849.91	23842.45
850.08	24057.49
850.26	23563.93
850.43	23692.95
850.61	23649.94
850.78	23473.82
850.96	23627.42
851.14	23299.74
851.31	23674.52
851.49	23660.18
851.66	23586.46
851.84	23611.03
852.01	23707.29
852.19	23699.09
852.36	23502.49
852.54	23375.52
852.71	23021.22
852.89	23244.45
853.07	23131.81
853.24	23082.66
853.42	23164.57
853.59	23056.03
853.77	23479.96
853.94	23185.05
854.12	23258.78
854.29	22949.54
854.47	23162.53
854.64	22918.82
854.82	22847.14
854.99	23137.95
855.17	22841.00
855.34	22736.55
855.52	22873.76
855.69	22707.88
855.87	22830.76
856.04	22711.97
856.22	22855.33
856.39	22329.00
856.57	22724.26
856.74	22435.50
856.92	22699.69
857.09	22539.94
857.27	22458.03
857.44	22693.54
857.62	22677.16
857.79	22683.30
857.97	22324.91
858.14	22621.86
858.32	22148.78
858.49	22245.04
858.67	22240.94
858.84	22187.69
859.02	22218.41
859.19	22134.45
859.37	21888.69
859.54	22165.17
859.72	22490.79
859.89	22103.73
860.06	22441.64
860.24	22091.44
860.41	22302.38
860.59	21849.78
860.76	21954.22
860.94	21778.10
861.11	22210.22
861.29	21993.14
861.46	21692.08
861.64	21601.97
861.81	21593.78
861.98	22005.42
862.16	21573.30
862.33	21534.39
862.51	21337.79
862.68	21677.75
862.86	21739.19
863.03	21262.01
863.21	21415.61
863.38	21704.37
863.55	21429.94
863.73	21530.30
863.90	21614.26
864.08	21325.50
864.25	21294.78
864.43	21511.86
864.60	21280.44
864.77	21245.63
864.95	21210.81
865.12	21171.90
865.30	21243.58
865.47	20997.82
865.64	21239.48
865.82	21315.26
865.99	21030.59
866.17	21171.90
866.34	21094.08
866.51	20639.43
866.69	20723.40
866.86	20915.90
867.04	20983.49
867.21	20903.62
867.38	21116.61
867.56	20729.54
867.73	20854.47
867.91	20647.62
868.08	20618.95
868.25	20483.78
868.43	20395.72
868.60	20432.58
868.78	20496.07
868.95	20762.31
869.12	20639.43
869.30	20463.30
869.47	20592.33
869.64	20149.96
869.82	20066.00
869.99	20123.34
870.16	20684.48
870.34	20219.60
870.51	20166.35
870.69	20010.70
870.86	19902.16
871.03	19793.62
871.21	19857.10
871.38	20115.15
871.55	19654.36
871.73	19599.06
871.90	19463.90
872.07	19961.55
872.25	19625.68
872.42	19467.99
872.59	19711.70
872.77	19566.29
872.94	19592.92
873.11	19216.09
873.29	19521.24
873.46	19390.17
873.63	19506.90
873.81	19414.74
873.98	19289.82
874.15	19162.84
874.33	19216.09
874.50	19267.29
874.67	19177.18
874.85	19072.73
875.02	19146.46
875.19	18661.09
875.37	18826.98
875.54	19085.02
875.71	18826.98
875.88	18790.11
876.06	18806.50
876.23	18706.15
876.40	18790.11
876.58	18683.62
876.75	18657.00
876.92	18556.64
877.10	18401.00
877.27	18446.05
877.44	18329.32
877.61	18169.58
877.79	18374.38
877.96	18231.02
878.13	18530.02
878.31	18231.02
878.48	18372.33
878.65	18460.39
878.82	18005.74
879.00	18233.07
879.17	18208.49
879.34	18360.04
879.51	17843.95
879.69	17962.73
879.86	17813.23
880.03	17514.23
880.21	17733.36
880.38	17700.59
880.55	17635.06
880.72	17815.28
880.90	17919.73
881.07	17850.10
881.24	17788.66
881.41	17661.68
881.59	17688.31
881.76	17809.14
881.93	17323.77
882.10	17381.11
882.28	17299.19
882.45	17522.42
882.62	17295.10
882.79	17489.65
882.96	17270.52
883.14	17583.86
883.31	17364.73
883.48	17170.17
883.65	17182.46
883.83	17389.30
884.00	17530.61
884.17	17217.27
884.34	17303.29
884.51	17284.86
884.69	17098.49
884.86	16977.66
885.03	17182.46
885.20	16701.19
885.38	17334.01
885.55	17196.79
885.72	17002.24
885.89	16754.43
886.06	17141.50
886.24	16910.08
886.41	16842.50
886.58	17065.72
886.75	17026.81
886.92	16602.88
887.10	16805.63
887.27	16840.45
887.44	16697.09
887.61	16895.74
887.78	16760.58
887.95	16770.82
888.13	16492.29
888.30	16639.75
888.47	16520.96
888.64	16500.48
888.81	16434.95
888.99	16412.42
889.16	16260.87
889.33	16205.58
889.50	16123.66
889.67	16314.12
889.84	16097.03
890.01	16133.90
890.19	16260.87
890.36	16353.03
890.53	16238.34
890.70	16019.21
890.87	16037.64
891.04	15918.86
891.22	15855.37
891.39	15994.64
891.56	15863.57
891.73	15898.38
891.90	15853.33
892.07	16064.27
892.24	15847.18
892.42	15597.33
892.59	15718.16
892.76	15552.27
892.93	15435.54
893.10	15736.59
893.27	15765.26
893.44	15712.02
893.61	15531.80
893.79	15671.06
893.96	15576.85
894.13	15494.93
894.30	15552.27
894.47	15574.80
894.64	15648.53
894.81	15443.73
894.98	15537.94
895.15	15482.64
895.33	15357.72
895.50	15302.42
895.67	15648.53
895.84	15693.58
896.01	15585.04
896.18	15343.38
896.35	15587.09
896.52	15476.50
896.69	15406.87
896.86	15646.48
897.04	15394.58
897.21	15460.12
897.38	15480.60
897.55	15523.60
897.72	15544.08
897.89	15292.18
898.06	15302.42
898.23	15234.84
898.40	15333.14
898.57	15537.94
898.74	15402.77
898.91	15298.33
899.08	15249.18
899.26	15296.28
899.43	15283.99
899.60	15169.30
899.77	15128.35
899.94	14903.07
900.11	14855.97
900.28	15107.87
900.45	15204.12
900.62	14995.23
900.79	15251.22
900.96	15136.54
901.13	15302.42
901.30	15331.09
901.47	15124.25
901.64	15267.61
901.81	15191.83
901.98	14935.84
902.15	15269.66
902.32	14993.18
902.49	15050.52
902.66	14905.12
902.83	15210.26
903.01	15095.58
903.18	15306.52
903.35	15243.03
903.52	15058.71
903.69	15234.84
903.86	15148.82
904.03	15052.57
904.20	15083.29
904.37	15152.92
904.54	15046.43
904.71	15183.64
904.88	15136.54
905.05	14999.32
905.22	15195.93
905.39	14819.10
905.56	14858.01
905.73	14868.25
905.90	14993.18
906.07	15068.95
906.24	14896.92
906.41	14978.84
906.58	15183.64
906.75	14835.49
906.92	14677.79
907.09	14860.06
907.26	14911.26
907.43	14776.09
907.60	14876.44
907.77	14939.93
907.93	15165.21
908.10	15130.39
908.27	14876.44
908.44	14894.88
908.61	14735.14
908.78	14905.12
908.95	14864.16
909.12	14819.10
909.29	14939.93
909.46	14952.22
909.63	14864.16
909.80	14620.45
909.97	15064.86
910.14	14700.32
910.31	14602.02
910.48	14753.57
910.65	14683.94
910.82	14667.55
910.99	14624.54
911.16	14606.11
911.33	14765.85
911.50	14630.69
911.66	14630.69
911.83	14849.82
912.00	14460.71
912.17	14307.11
912.34	14333.73
912.51	14577.44
912.68	14255.91
912.85	14487.33
913.02	14446.37
913.19	14358.31
913.36	14329.64
913.53	14296.87
913.70	14317.35
913.86	14284.58
914.03	14409.51
914.20	14272.29
914.37	14298.92
914.54	14251.81
914.71	14243.62
914.88	14079.79
915.05	13991.72
915.22	13905.71
915.39	14034.73
915.55	14061.35
915.72	13752.11
915.89	13942.57
916.06	13725.49
916.23	13723.44
916.40	14044.97
916.57	13672.24
916.74	13827.88
916.91	13711.15
917.07	13567.79
917.24	13428.53
917.41	13588.27
917.58	13778.73
917.75	13530.93
917.92	13324.08
918.09	13504.31
918.26	13561.65
918.42	13422.39
918.59	13516.59
918.76	13246.26
918.93	13209.40
919.10	13096.76
919.27	13205.30
919.44	12941.11
919.60	13356.85
919.77	13111.10
919.94	12994.36
920.11	12881.72
920.28	13104.95
920.45	12986.17
920.61	12840.76
920.78	12982.07
920.95	12580.67
921.12	13051.70
921.29	12793.66
921.46	12803.90
921.62	12533.57
921.79	12613.44
921.96	12572.48
922.13	12478.27
922.30	12402.50
922.47	12341.06
922.63	12332.87
922.80	12416.83
922.97	12005.19
923.14	12019.53
923.31	12353.35
923.47	11982.67
923.64	12328.77
923.81	12136.26
923.98	12060.49
924.15	11970.38
924.32	12023.62
924.48	12019.53
924.65	11794.25
924.82	11812.68
924.99	11650.89
925.15	11564.88
925.32	11777.87
925.49	11437.91
925.66	11523.92
925.83	11394.90
925.99	11546.45
926.16	11505.49
926.33	11540.30
926.50	11280.21
926.67	11339.60
926.83	11247.44
927.00	10975.06
927.17	11132.76
927.34	11065.18
927.50	11181.91
927.67	11183.96
927.84	11200.34
928.01	11110.23
928.17	10880.86
928.34	10848.09
928.51	10858.33
928.68	10819.42
928.84	10817.37
929.01	10657.63
929.18	10575.71
929.35	10434.40
929.51	10633.05
929.68	10542.94
929.85	10555.23
930.02	10393.44
930.18	10481.50
930.35	10284.90
930.52	10372.96
930.69	10280.80
930.85	10291.04
931.02	10198.88
931.19	10039.14
931.36	10030.95
931.52	9873.26
931.69	10315.62
931.86	10008.42
932.02	9983.85
932.19	9811.82
932.36	9809.77
932.53	9813.87
932.69	9639.79
932.86	9973.61
933.03	9727.85
933.19	9463.66
933.36	9684.84
933.53	9647.98
933.70	9537.39
933.86	9611.12
934.03	9473.90
934.20	9211.76
934.36	9387.89
934.53	8982.39
934.70	8961.91
934.86	9011.06
935.03	8957.82
935.20	9029.49
935.36	8824.70
935.53	8757.11
935.70	8836.99
935.86	8939.38
936.03	8548.22
936.20	8515.45
936.36	8456.06
936.53	8470.40
936.70	8355.71
936.86	8423.30
937.03	8085.38
937.20	7944.07
937.36	8091.52
937.53	7880.58
937.70	7913.35
937.86	7731.08
938.03	7774.09
938.20	7798.66
938.36	7470.99
938.53	7638.92
938.70	7251.86
938.86	7403.41
939.03	7272.34
939.20	7161.75
939.36	7165.84
939.53	7057.30
939.70	7176.08
939.86	6803.35
940.03	6700.95
940.19	6639.51
940.36	6678.43
940.53	6608.80
940.69	6625.18
940.86	6766.49
941.03	6502.30
941.19	6342.56
941.36	6154.15
941.52	6125.47
941.69	6176.67
941.86	6111.14
942.02	6047.65
942.19	6035.36
942.35	6172.58
942.52	5982.12
942.69	5719.98
942.85	5885.86
943.02	5771.18
943.18	5771.18
943.35	5676.97
943.52	5578.67
943.68	5666.73
943.85	5572.52
944.01	5523.37
944.18	5423.02
944.35	5558.19
944.51	5513.13
944.68	5359.53
944.84	5380.01
945.01	5347.25
945.17	5359.53
945.34	5306.29
945.51	5525.42
945.67	5308.34
945.84	5308.34
946.00	5156.79
946.17	5273.52
946.33	5185.46
946.50	5132.21
946.67	5167.03
946.83	5193.65
947.00	5396.40
947.16	5261.23
947.33	5283.76
947.49	5242.80
947.66	5226.42
947.82	5322.67
947.99	5060.53
948.16	5365.68
948.32	5162.93
948.49	5334.96
948.65	5164.98
948.82	5238.70
948.98	5146.55
949.15	5062.58
949.31	5214.13
949.48	5207.98
949.64	5250.99
949.81	5246.90
949.97	5167.03
950.14	5386.16
950.30	5124.02
950.47	5142.45
950.63	5167.03
950.80	5234.61
950.96	5203.89
951.13	5257.14
951.30	5353.39
951.46	5285.81
951.63	5375.92
951.79	5443.50
951.96	5275.57
952.12	5156.79
952.29	5394.35
952.45	5173.17
952.62	5103.54
952.78	5232.56
952.94	5279.66
953.11	5341.10
953.27	5306.29
953.44	5486.51
953.60	5347.25
953.77	5441.45
953.93	5392.30
954.10	5377.97
954.26	5509.04
954.43	5410.73
954.59	5373.87
954.76	5545.90
954.92	5494.70
955.09	5302.19
955.25	5294.00
955.42	5351.34
955.58	5593.00
955.75	5400.49
955.91	5353.39
956.07	5425.07
956.24	5285.81
956.40	5420.97
956.57	5590.95
956.73	5476.27
956.90	5406.64
957.06	5361.58
957.23	5613.48
957.39	5461.93
957.56	5570.48
957.72	5269.42
957.88	5392.30
958.05	5603.24
958.21	5552.04
958.38	5388.21
958.54	5296.05
958.71	5556.14
958.87	5466.03
959.03	5289.90
959.20	5492.65
959.36	5314.48
959.53	5466.03
959.69	5408.69
959.85	5537.71
960.02	5312.43
960.18	5521.32
960.35	5334.96
960.51	5466.03
960.68	5326.77
960.84	5283.76
961.00	5316.53
961.17	5312.43
961.33	5312.43
961.50	5445.55
961.66	5375.92
961.82	5390.25
961.99	5455.79
962.15	5386.16
962.31	5425.07
962.48	5279.66
962.64	5474.22
962.81	5287.86
962.97	5308.34
963.13	5365.68
963.30	5441.45
963.46	5357.49
963.62	5449.64
963.79	5328.81
963.95	5265.33
964.12	5412.78
964.28	5316.53
964.44	5306.29
964.61	5394.35
964.77	5357.49
964.93	5357.49
965.10	5285.81
965.26	5257.14
965.42	5095.35
965.59	5255.09
965.75	5232.56
965.92	5273.52
966.08	5201.84
966.24	5322.67
966.41	5220.27
966.57	5152.69
966.73	5283.76
966.90	5345.20
967.06	5138.35
967.22	5216.18
967.39	5205.94
967.55	5181.36
967.71	5144.50
967.88	5255.09
968.04	5087.15
968.20	5197.74
968.37	5162.93
968.53	5148.59
968.69	5132.21
968.85	5162.93
969.02	5193.65
969.18	5126.07
969.34	5228.46
969.51	5207.98
969.67	5128.11
969.83	5138.35
970.00	5183.41
970.16	5074.87
970.32	5103.54
970.48	5089.20
970.65	5009.33
970.81	5072.82
970.97	5058.48
971.14	4886.45
971.30	5128.11
971.46	5052.34
971.63	5074.87
971.79	4982.71
971.95	5099.44
972.11	4933.56
972.28	4992.95
972.44	5005.24
972.60	4802.49
972.76	4921.27
972.93	4786.10
973.09	4997.04
973.25	4962.23
973.42	4931.51
973.58	5025.72
973.74	4954.04
973.90	4841.40
974.07	4763.58
974.23	4863.93
974.39	4908.98
974.55	4876.21
974.72	4796.34
974.88	4710.33
975.04	4790.20
975.20	4739.00
975.37	4919.22
975.53	4851.64
975.69	4710.33
975.85	4732.86
976.01	4808.63
976.18	4698.04
976.34	4751.29
976.50	4802.49
976.66	4859.83
976.83	4816.82
976.99	4523.96
977.15	4616.12
977.31	4722.62
977.47	4724.66
977.64	4687.80
977.80	4663.22
977.96	4636.60
978.12	4593.59
978.29	4550.59
978.45	4483.00
978.61	4507.58
978.77	4638.65
978.93	4550.59
979.10	4679.61
979.26	4507.58
979.42	4554.68
979.58	4423.61
979.74	4356.03
979.91	4411.32
980.07	4550.59
980.23	4605.88
980.39	4419.52
980.55	4450.24
980.71	4454.33
980.88	4306.88
981.04	4421.56
981.20	4417.47
981.36	4444.09
981.52	4501.44
981.68	4306.88
981.85	4507.58
982.01	4177.86
982.17	4270.01
982.33	4331.45
982.49	4401.08
982.65	4302.78
982.82	4229.06
982.98	4317.12
983.14	4255.68
983.30	4356.03
983.46	4448.19
983.62	4351.93
983.79	4276.16
983.95	4292.54
984.11	4059.07
984.27	4255.68
984.43	4296.64
984.59	4331.45
984.75	4216.77
984.91	4165.57
985.08	4241.34
985.24	4169.66
985.40	4007.87
985.56	4079.55
985.72	4147.14
985.88	4229.06
986.04	4081.60
986.20	4022.21
986.37	4214.72
986.53	3962.82
986.69	4114.37
986.85	4005.83
987.01	4057.03
987.17	4100.03
987.33	4091.84
987.49	4001.73
987.65	4097.99
987.82	4091.84
987.98	3913.67
988.14	4022.21
988.30	3952.58
988.46	3948.48
988.62	3936.20
988.78	3911.62
988.94	4110.27
989.10	3895.24
989.26	3803.08
989.42	3815.37
989.59	3825.61
989.75	3860.42
989.91	3844.04
990.07	3848.13
990.23	3784.65
990.39	3729.35
990.55	3915.72
990.71	3708.87
990.87	3852.23
991.03	3938.24
991.19	3733.45
991.35	3776.45
991.51	3764.17
991.67	3794.89
991.83	3817.41
992.00	3702.73
992.16	3778.50
992.32	3706.82
992.48	3839.94
992.64	3719.11
992.80	3665.86
992.96	3694.54
993.12	3772.36
993.28	3725.26
993.44	3682.25
993.60	3639.24
993.76	3635.14
993.92	3649.48
994.08	3631.05
994.24	3680.20
994.40	3672.01
994.56	3649.48
994.72	3590.09
994.88	3506.12
995.04	3577.80
995.20	3524.55
995.36	3510.22
995.52	3692.49
995.68	3528.65
995.84	3499.98
996.00	3710.92
996.16	3512.27
996.32	3444.68
996.48	3477.45
996.64	3612.62
996.80	3360.72
996.96	3502.03
997.12	3465.16
997.28	3475.40
997.44	3477.45
997.60	3422.16
997.76	3483.59
997.92	3479.50
998.08	3440.59
998.24	3303.37
998.40	3473.36
998.56	3428.30
998.72	3268.56
998.88	3213.26
999.04	3338.19
999.20	3428.30
999.36	3297.23
999.52	3471.31
999.68	3368.91
999.84	3436.49
1000.00	3295.18
1000.16	3243.98
1000.32	3276.75
1000.48	3317.71
1000.64	3096.53
1000.80	3311.57
1000.95	3129.30
1001.11	3334.09
1001.27	3180.50
1001.43	3342.28
1001.59	3225.55
1001.75	3182.54
1001.91	3213.26
1002.07	3225.55
1002.23	3211.22
1002.39	3125.20
1002.55	3270.61
1002.71	3039.19
1002.87	3188.69
1003.03	3037.14
1003.19	3166.16
1003.34	3256.27
1003.50	3174.35
1003.66	3205.07
1003.82	3123.15
1003.98	3053.52
1004.14	3125.20
1004.30	3018.71
1004.46	3117.01
1004.62	2934.74
1004.78	3043.28
1004.94	3057.62
1005.09	3108.82
1005.25	3098.58
1005.41	3014.61
1005.57	2973.65
1005.73	3041.23
1005.89	3016.66
1006.05	3020.75
1006.21	3051.47
1006.37	2975.70
1006.52	2869.20
1006.68	2953.17
1006.84	3022.80
1007.00	2914.26
1007.16	2932.69
1007.32	2975.70
1007.48	3006.42
1007.64	2918.36
1007.79	2863.06
1007.95	2811.86
1008.11	2938.84
1008.27	2840.53
1008.43	2908.12
1008.59	2850.77
1008.75	2934.74
1008.91	2916.31
1009.06	2854.87
1009.22	2869.20
1009.38	2762.71
1009.54	2906.07
1009.70	2713.56
1009.86	2920.40
1010.01	2951.12
1010.17	2719.70
1010.33	2680.79
1010.49	2752.47
1010.65	2840.53
1010.81	2664.41
1010.96	2731.99
1011.12	2758.61
1011.28	2686.94
1011.44	2779.09
1011.60	2762.71
1011.76	2699.22
1011.91	2756.57
1012.07	2725.85
1012.23	2676.70
1012.39	2686.94
1012.55	2709.46
1012.71	2676.70
1012.86	2613.21
1013.02	2633.69
1013.18	2652.12
1013.34	2727.89
1013.50	2750.42
1013.65	2617.30
1013.81	2613.21
1013.97	2516.95
1014.13	2547.67
1014.29	2666.46
1014.44	2650.07
1014.60	2551.77
1014.76	2625.50
1014.92	2510.81
1015.07	2740.18
1015.23	2600.92
1015.39	2457.56
1015.55	2627.54
1015.71	2594.78
1015.86	2510.81
1016.02	2457.56
1016.18	2447.32
1016.34	2615.26
1016.49	2588.63
1016.65	2574.30
1016.81	2426.84
1016.97	2549.72
1017.12	2516.95
1017.28	2457.56
1017.44	2396.12
1017.60	2519.00
1017.75	2482.14
1017.91	2383.84
1018.07	2514.91
1018.23	2473.95
1018.38	2437.08
1018.54	2424.80
1018.70	2500.57
1018.86	2496.47
1019.01	2455.51
1019.17	2441.18
1019.33	2435.03
1019.49	2418.65
1019.64	2459.61
1019.80	2320.35
1019.96	2437.08
1020.12	2486.23
1020.27	2396.12
1020.43	2283.49
1020.59	2439.13
1020.74	2320.35
1020.90	2467.80
1021.06	2273.25
1021.22	2402.27
1021.37	2490.33
1021.53	2322.40
1021.69	2435.03
1021.84	2228.19
1022.00	2353.12
1022.16	2248.67
1022.31	2310.11
1022.47	2365.40
1022.63	2377.69
1022.79	2256.86
1022.94	2338.78
1023.10	2353.12
1023.26	2267.10
1023.41	2326.49
1023.57	2228.19
1023.73	2318.30
1023.88	2334.68
1024.04	2267.10
1024.20	2285.53
1024.35	2342.88
1024.51	2250.72
1024.67	2258.91
1024.82	2361.31
1024.98	2207.71
1025.14	2373.60
1025.29	2244.57
1025.45	2246.62
1025.61	2179.04
1025.76	2152.42
1025.92	2312.16
1026.08	2244.57
1026.23	2205.66
1026.39	2187.23
1026.55	2123.74
1026.70	2230.24
1026.86	2224.09
1027.02	2234.33
1027.17	2125.79
1027.33	2265.05
1027.48	2125.79
1027.64	2129.89
1027.80	2150.37
1027.95	2203.61
1028.11	2052.06
1028.27	2172.89
1028.42	2164.70
1028.58	2103.26
1028.73	2131.94
1028.89	2088.93
1029.05	2187.23
1029.20	2129.89
>>>>>End Processed Spectral Data<<<<<
