SpectraSuite Data File
++++++++++++++++++++++++++++++++++++
Date: Fri Jun 02 14:47:55 CEST 2017
User: INFO_000
Dark Spectrum Present: No
Reference Spectrum Present: No
Number of Sampled Component Spectra: 1
Spectrometers: USB4H00879
Integration Time (usec): 80000 (USB4H00879)
Spectra Averaged: 1 (USB4H00879)
Boxcar Smoothing: 0 (USB4H00879)
Correct for Electrical Dark: No (USB4H00879)
Strobe/Lamp Enabled: No (USB4H00879)
Correct for Detector Non-linearity: No (USB4H00879)
Correct for Stray Light: No (USB4H00879)
Number of Pixels in Processed Spectrum: 3648
>>>>>Begin Processed Spectral Data<<<<<
345.13	1236.97
345.34	1236.97
345.56	1236.97
345.78	1267.69
345.99	1282.03
346.21	1742.82
346.42	1714.15
346.64	1613.80
346.86	1761.25
347.07	1687.53
347.29	1671.14
347.50	1609.70
347.72	1621.99
347.94	1732.58
348.15	1593.32
348.37	1679.33
348.59	1705.96
348.80	1662.95
349.02	1777.64
349.23	1888.23
349.45	1791.97
349.67	1839.08
349.88	1734.63
350.10	1873.89
350.31	1742.82
350.53	1875.94
350.75	1966.05
350.96	1804.26
351.18	1812.45
351.39	1861.60
351.61	1806.31
351.82	1941.47
352.04	1957.86
352.26	1820.64
352.47	1892.32
352.69	1908.71
352.90	1753.06
353.12	1812.45
353.34	1843.17
353.55	1949.67
353.77	1826.79
353.98	1822.69
354.20	1810.40
354.41	1970.15
354.63	1959.91
354.85	2000.87
355.06	1853.41
355.28	1810.40
355.49	1892.32
355.71	1925.09
355.92	1920.99
356.14	1875.94
356.35	1816.55
356.57	1886.18
356.79	1904.61
357.00	1896.42
357.22	1925.09
357.43	1906.66
357.65	1966.05
357.86	1834.98
358.08	1937.38
358.29	1929.19
358.51	1927.14
358.72	1986.53
358.94	1898.47
359.16	1992.67
359.37	1898.47
359.59	1937.38
359.80	2009.06
360.02	1920.99
360.23	1937.38
360.45	2023.39
360.66	1966.05
360.88	1908.71
361.09	1912.80
361.31	2027.49
361.52	1986.53
361.74	2050.02
361.95	2125.79
362.17	1961.95
362.38	2004.96
362.60	2080.74
362.81	1951.71
363.03	1863.65
363.24	1978.34
363.46	2088.93
363.67	1966.05
363.89	2023.39
364.10	2052.06
364.32	1904.61
364.53	2148.32
364.75	2002.91
364.96	1988.58
365.18	1980.39
365.39	1970.15
365.61	1968.10
365.82	2152.42
366.04	2041.82
366.25	1961.95
366.47	2002.91
366.68	2056.16
366.90	1992.67
367.11	2093.02
367.33	2146.27
367.54	2144.22
367.76	1988.58
367.97	2029.54
368.19	2015.20
368.40	2062.30
368.62	1972.19
368.83	1937.38
369.05	2033.63
369.26	2002.91
369.48	1900.52
369.69	1957.86
369.91	2043.87
370.12	2054.11
370.33	2056.16
370.55	1957.86
370.76	2058.21
370.98	2146.27
371.19	2068.45
371.41	2043.87
371.62	2033.63
371.84	2000.87
372.05	2160.61
372.27	1982.43
372.48	2031.58
372.69	2035.68
372.91	2117.60
373.12	2093.02
373.34	2109.41
373.55	2105.31
373.77	2105.31
373.98	2107.36
374.20	2154.46
374.41	2226.14
374.62	2107.36
374.84	2136.03
375.05	2205.66
375.27	2140.13
375.48	2236.38
375.70	2160.61
375.91	2176.99
376.12	2318.30
376.34	2232.29
376.55	2152.42
376.77	2248.67
376.98	2144.22
377.19	2123.74
377.41	2101.22
377.62	2176.99
377.84	2242.53
378.05	2252.77
378.27	2189.28
378.48	2230.24
378.69	2418.65
378.91	2377.69
379.12	2162.66
379.34	2224.09
379.55	2246.62
379.76	2275.29
379.98	2170.85
380.19	2248.67
380.41	2240.48
380.62	2318.30
380.83	2338.78
381.05	2172.89
381.26	2412.51
381.47	2181.09
381.69	2144.22
381.90	2336.73
382.12	2271.20
382.33	2203.61
382.54	2359.26
382.76	2297.82
382.97	2371.55
383.19	2150.37
383.40	2402.27
383.61	2334.68
383.83	2254.81
384.04	2201.57
384.25	2328.54
384.47	2381.79
384.68	2346.97
384.89	2244.57
385.11	2338.78
385.32	2353.12
385.54	2365.40
385.75	2328.54
385.96	2310.11
386.18	2408.41
386.39	2326.49
386.60	2314.20
386.82	2420.70
387.03	2330.59
387.24	2453.47
387.46	2428.89
387.67	2459.61
387.88	2480.09
388.10	2428.89
388.31	2510.81
388.52	2480.09
388.74	2494.43
388.95	2486.23
389.16	2519.00
389.38	2445.27
389.59	2594.78
389.80	2580.44
390.02	2592.73
390.23	2557.91
390.44	2519.00
390.66	2584.54
390.87	2463.71
391.08	2678.74
391.30	2607.06
391.51	2586.58
391.72	2637.78
391.94	2566.10
392.15	2547.67
392.36	2656.22
392.58	2525.15
392.79	2682.84
393.00	2693.08
393.22	2676.70
393.43	2703.32
393.64	2842.58
393.85	2791.38
394.07	2617.30
394.28	2760.66
394.49	2699.22
394.71	2879.44
394.92	2895.83
395.13	2672.60
395.35	2754.52
395.56	2703.32
395.77	2795.48
395.98	2762.71
396.20	2865.11
396.41	2928.60
396.62	2893.78
396.84	2781.14
397.05	2832.34
397.26	2793.43
397.47	2932.69
397.69	2838.48
397.90	3002.32
398.11	2850.77
398.32	2758.61
398.54	2815.96
398.75	2944.98
398.96	2881.49
399.18	3059.67
399.39	2893.78
399.60	2850.77
399.81	2932.69
400.03	2887.64
400.24	3250.13
400.45	2977.75
400.66	3047.38
400.88	2992.08
401.09	3237.84
401.30	3026.90
401.51	3084.24
401.73	3049.43
401.94	3160.02
402.15	3076.05
402.36	3180.50
402.58	3119.06
402.79	3110.86
403.00	3137.49
403.21	3221.45
403.43	3217.36
403.64	3260.37
403.85	3157.97
404.06	3223.50
404.27	3082.19
404.49	3178.45
404.70	3141.58
404.91	3239.89
405.12	3266.51
405.34	3246.03
405.55	3301.33
405.76	3166.16
405.97	3246.03
406.19	3256.27
406.40	3231.69
406.61	3243.98
406.82	3346.38
407.03	3327.95
407.25	3243.98
407.46	3401.68
407.67	3377.10
407.88	3524.55
408.09	3266.51
408.31	3323.85
408.52	3487.69
408.73	3313.61
408.94	3346.38
409.15	3530.70
409.37	3432.40
409.58	3536.84
409.79	3542.99
410.00	3403.72
410.21	3370.96
410.43	3479.50
410.64	3383.24
410.85	3598.28
411.06	3440.59
411.27	3610.57
411.48	3639.24
411.70	3581.90
411.91	3522.51
412.12	3606.47
412.33	3618.76
412.54	3616.71
412.76	3633.10
412.97	3645.38
413.18	3508.17
413.39	3715.02
413.60	3643.34
413.81	3606.47
414.03	3629.00
414.24	3663.82
414.45	3858.37
414.66	3596.23
414.87	3876.80
415.08	3655.62
415.30	3725.26
415.51	3661.77
415.72	3762.12
415.93	3749.83
416.14	3792.84
416.35	3895.24
416.56	3807.17
416.78	3790.79
416.99	3938.24
417.20	3790.79
417.41	3923.91
417.62	3854.28
417.83	3925.96
418.04	3893.19
418.26	3921.86
418.47	3885.00
418.68	3991.49
418.89	3958.72
419.10	4173.76
419.31	3983.30
419.52	4054.98
419.73	4009.92
419.95	4073.41
420.16	4005.83
420.37	4022.21
420.58	4067.27
420.79	3944.39
421.00	4009.92
421.21	4083.65
421.42	4040.64
421.63	4132.80
421.85	4067.27
422.06	4206.53
422.27	4229.06
422.48	4161.47
422.69	4247.49
422.90	4296.64
423.11	4243.39
423.32	4253.63
423.53	4270.01
423.75	4276.16
423.96	4452.28
424.17	4251.58
424.38	4601.79
424.59	4280.25
424.80	4599.74
425.01	4444.09
425.22	4396.99
425.43	4454.33
425.64	4661.18
425.85	4566.97
426.06	4554.68
426.28	4446.14
426.49	4476.86
426.70	4599.74
426.91	4460.48
427.12	4599.74
427.33	4620.22
427.54	4571.07
427.75	4689.85
427.96	4765.62
428.17	4708.28
428.38	4825.01
428.59	4736.95
428.80	4571.07
429.01	4755.38
429.23	4693.94
429.44	4976.56
429.65	5001.14
429.86	4894.65
430.07	4827.06
430.28	4853.69
430.49	4845.49
430.70	5031.86
430.91	5154.74
431.12	4982.71
431.33	5009.33
431.54	5167.03
431.75	5140.40
431.96	4980.66
432.17	5005.24
432.38	4898.74
432.59	5304.24
432.80	5212.08
433.01	5308.34
433.22	5124.02
433.43	5353.39
433.64	5253.04
433.85	5191.60
434.06	5289.90
434.27	5173.17
434.49	5212.08
434.70	5345.20
434.91	5341.10
435.12	5472.17
435.33	5447.60
435.54	5439.40
435.75	5455.79
435.96	5406.64
436.17	5398.45
436.38	5664.68
436.59	5484.46
436.80	5410.73
437.01	5773.22
437.22	5672.87
437.43	5607.34
437.64	5461.93
437.85	5709.74
438.06	5582.76
438.27	5607.34
438.48	5705.64
438.69	5599.15
438.90	5814.18
439.11	5795.75
439.32	6000.55
439.53	5699.50
439.74	5676.97
439.95	5889.96
440.16	5812.14
440.37	5963.68
440.57	5828.52
440.78	5980.07
440.99	6008.74
441.20	5961.64
441.41	5887.91
441.62	6072.23
441.83	5943.21
442.04	6121.38
442.25	6213.54
442.46	6066.08
442.67	6145.95
442.88	6379.42
443.09	6027.17
443.30	6227.87
443.51	6215.59
443.72	6412.19
443.93	6178.72
444.14	6582.17
444.35	6191.01
444.56	6348.70
444.77	6420.38
444.98	6469.53
445.19	6524.83
445.40	6393.76
445.61	6334.37
445.81	6715.29
446.02	6496.16
446.23	6508.44
446.44	6332.32
446.65	6576.03
446.86	6651.80
447.07	6711.19
447.28	6803.35
447.49	6596.51
447.70	6502.30
447.91	6825.88
448.12	6698.91
448.33	6727.58
448.54	6705.05
448.74	6727.58
448.95	6899.61
449.16	6721.43
449.37	7040.92
449.58	6662.04
449.79	6946.71
450.00	6854.55
450.21	7024.53
450.42	7227.28
450.63	7079.83
450.84	6971.29
451.05	7055.25
451.25	6989.72
451.46	6881.18
451.67	7264.15
451.88	7303.06
452.09	7180.18
452.30	7045.01
452.51	7221.14
452.72	7442.32
452.93	7526.29
453.13	7214.99
453.34	7401.36
453.55	7409.55
453.76	7317.39
453.97	7671.69
454.18	7481.23
454.39	7499.66
454.60	7303.06
454.81	7792.52
455.01	7542.67
455.22	7483.28
455.43	7729.03
455.64	7694.22
455.85	7798.66
456.06	7921.54
456.27	7638.92
456.48	7628.68
456.68	7843.72
456.89	7858.06
457.10	7985.03
457.31	8030.09
457.52	7839.62
457.73	7837.58
457.94	8202.11
458.14	7995.27
458.35	8320.90
458.56	8109.96
458.77	7913.35
458.98	8191.88
459.19	8222.59
459.39	8355.71
459.60	8306.56
459.81	8433.54
460.02	8341.38
460.23	8267.65
460.44	8638.33
460.65	8519.55
460.85	8652.67
461.06	8624.00
461.27	8408.96
461.48	8781.69
461.69	9015.16
461.89	8628.09
462.10	8710.01
462.31	8503.17
462.52	8564.61
462.73	8808.31
462.94	8941.43
463.14	8959.86
463.35	8843.13
463.56	9334.64
463.77	9185.14
463.98	9129.84
464.18	9293.68
464.39	9213.81
464.60	9377.65
464.81	9365.36
465.02	9377.65
465.23	9688.94
465.43	9447.28
465.64	9783.15
465.85	9551.73
466.06	9570.16
466.27	9949.03
466.47	9824.11
466.68	9879.40
466.89	9752.43
467.10	9852.78
467.30	9783.15
467.51	10063.72
467.72	10391.39
467.93	10047.33
468.14	10080.10
468.34	10293.09
468.55	10291.04
468.76	10372.96
468.97	10243.94
469.17	10602.33
469.38	10516.32
469.59	10764.12
469.80	10579.81
470.01	10858.33
470.21	10544.99
470.42	10960.73
470.63	11093.85
470.84	11016.02
471.04	11099.99
471.25	11104.09
471.46	11011.93
471.67	11177.81
471.87	11370.32
472.08	11323.22
472.29	11718.48
472.50	11112.28
472.70	11560.78
472.91	11499.34
473.12	11910.99
473.33	11763.53
473.53	11933.51
473.74	11831.12
473.95	12369.73
474.16	11890.51
474.36	12177.22
474.57	12279.62
474.78	12425.03
474.99	12287.81
475.19	12586.82
475.40	12685.12
475.61	12863.29
475.81	12844.86
476.02	13356.85
476.23	12998.46
476.44	13051.70
476.64	13342.52
476.85	13463.35
477.06	13291.32
477.27	13637.42
477.47	13760.30
477.68	13807.41
477.89	13911.85
478.09	13705.01
478.30	14010.15
478.51	14090.02
478.71	14085.93
478.92	14372.64
479.13	14579.49
479.34	14561.06
479.54	14634.78
479.75	14657.31
479.96	14808.86
480.16	14782.24
480.37	14745.38
480.58	15017.75
480.78	15036.19
480.99	15251.22
481.20	15097.63
481.41	15376.15
481.61	15617.81
481.82	15654.67
482.03	15564.56
482.23	15822.61
482.44	16015.12
482.65	16346.89
482.85	16140.04
483.06	16064.27
483.27	16426.76
483.47	16305.93
483.68	16305.93
483.89	16637.70
484.09	16531.20
484.30	16846.59
484.51	17108.73
484.71	17139.45
484.92	16987.90
485.13	17323.77
485.33	17524.47
485.54	17192.70
485.75	17555.19
485.95	17481.46
486.16	17514.23
486.37	17647.35
486.57	17786.61
486.78	17682.16
486.98	17923.82
487.19	18106.09
487.40	18044.65
487.60	18253.55
487.81	18351.85
488.02	18177.77
488.22	18368.23
488.43	18429.67
488.64	18671.33
488.84	18751.20
489.05	18917.09
489.25	19021.53
489.46	19211.99
489.67	19191.52
489.87	19384.02
490.08	19125.98
490.29	19224.28
490.49	19320.54
490.70	19623.64
490.90	19746.51
491.11	19775.19
491.32	19818.19
491.52	19947.22
491.73	19924.69
491.94	20092.62
492.14	19971.79
492.35	20295.37
492.55	20180.68
492.76	20534.98
492.97	20244.17
493.17	20635.33
493.38	20862.66
493.58	20860.61
493.79	20879.04
494.00	20995.78
494.20	20965.06
494.41	20950.72
494.61	21274.30
494.82	21094.08
495.02	21290.68
495.23	21360.31
495.44	21292.73
495.64	21548.73
495.85	21382.84
496.05	21638.84
496.26	21309.11
496.47	21690.04
496.67	21784.24
496.88	22062.77
497.08	21644.98
497.29	22116.01
497.49	22058.67
497.70	22128.30
497.91	22335.15
498.11	22191.79
498.32	22496.94
498.52	22693.54
498.73	22580.90
498.93	22298.28
499.14	22646.44
499.34	22720.17
499.55	22630.05
499.76	22531.75
499.96	22838.95
500.17	22779.56
500.37	22814.37
500.58	23109.28
500.78	22953.63
500.99	22982.31
501.19	23385.76
501.40	23316.12
501.60	23135.90
501.81	23195.29
502.02	23183.01
502.22	23092.90
502.43	23436.95
502.63	23574.17
502.84	23803.54
503.04	23893.65
503.25	23506.59
503.45	23805.59
503.66	24026.77
503.86	23840.40
504.07	24225.42
504.27	23721.62
504.48	24057.49
504.68	24401.55
504.89	24448.65
505.09	24491.66
505.30	24129.17
505.50	24524.43
505.71	24411.79
505.91	24405.64
506.12	24706.70
506.32	24579.72
506.53	24848.00
506.73	24626.82
506.94	24905.35
507.14	24821.38
507.35	24925.83
507.55	25042.56
507.76	24979.07
507.96	25007.75
508.17	25165.44
508.37	25056.90
508.58	25118.34
508.78	25253.50
508.99	25749.11
509.19	25372.28
509.40	25644.66
509.60	25310.85
509.81	25593.47
510.01	25257.60
510.22	25808.50
510.42	25661.05
510.63	25960.05
510.83	25738.87
511.04	25849.46
511.24	26056.31
511.44	25939.57
511.65	25781.88
511.85	26244.72
512.06	26232.43
512.26	26515.05
512.47	26351.21
512.67	26488.43
512.88	26660.46
513.08	26199.66
513.29	26639.98
513.49	26779.24
513.69	26766.95
513.90	26930.79
514.10	26746.47
514.31	26885.73
514.51	26844.77
514.72	27063.91
514.92	26721.90
515.13	27311.71
515.33	26996.32
515.53	27297.38
515.74	26924.65
515.94	27268.70
516.15	27430.49
516.35	27127.39
516.56	27575.90
516.76	27330.14
516.96	27741.78
517.17	27801.18
517.37	27790.94
517.58	27835.99
517.78	27876.95
517.99	27694.68
518.19	27952.73
518.39	28407.37
518.60	28294.74
518.80	28026.45
519.01	28491.34
519.21	28749.39
519.41	28522.06
519.62	28393.04
519.82	28466.77
520.03	28989.00
520.23	29077.06
520.43	28839.50
520.64	28765.77
520.84	29029.96
521.05	29210.18
521.25	29271.62
521.45	29367.87
521.66	29603.39
521.86	29326.91
522.07	29326.91
522.27	29425.22
522.47	29906.49
522.68	29914.68
522.88	29613.63
523.08	30121.52
523.29	30244.40
523.49	30279.22
523.70	30027.32
523.90	30756.39
524.10	30438.96
524.31	30518.83
524.51	30426.67
524.71	31090.21
524.92	30801.45
525.12	31245.86
525.33	31243.81
525.53	31229.48
525.73	31444.51
525.94	31381.03
526.14	31200.80
526.34	31553.05
526.55	31616.54
526.75	31522.34
526.95	32269.84
527.16	31923.74
527.36	31936.02
527.56	32441.87
527.77	32280.08
527.97	32187.92
528.17	32642.57
528.38	32630.29
528.58	32818.70
528.78	32517.65
528.99	32728.59
529.19	33076.74
529.39	32671.25
529.60	32873.99
529.80	33146.37
530.00	32960.01
530.21	33398.27
530.41	33562.11
530.61	33183.24
530.82	33590.78
531.02	33443.33
531.22	33771.00
531.43	33992.19
531.63	34196.98
531.83	34321.91
532.04	34182.65
532.24	34076.15
532.44	34727.41
532.64	34588.14
532.85	34768.37
533.05	34330.10
533.25	34438.64
533.46	34891.24
533.66	34942.44
533.86	34954.73
534.07	35364.32
534.27	34991.59
534.47	35145.19
534.67	35595.74
534.88	35038.70
535.08	35628.51
535.28	35978.72
535.49	35562.98
535.69	35728.86
535.89	36169.18
536.09	36312.53
536.30	36529.62
536.50	36120.02
536.70	36496.85
536.91	36300.25
537.11	36386.26
537.31	36371.92
537.51	36754.90
537.72	36824.53
537.92	36869.58
538.12	36853.20
538.32	36896.20
538.53	37025.23
538.73	36943.31
538.93	36951.50
539.13	37291.46
539.34	37135.82
539.54	37176.78
539.74	37529.03
539.94	37258.70
540.15	37592.51
540.35	37606.85
540.55	37561.79
540.75	37316.04
540.96	37750.21
541.16	37713.34
541.36	37752.26
541.56	37803.46
541.77	38276.54
541.97	38018.49
542.17	38368.69
542.37	37993.92
542.58	38018.49
542.78	38294.97
542.98	38030.78
543.18	38450.61
543.38	38712.75
543.59	38569.40
543.79	38337.98
543.99	38114.75
544.19	38794.67
544.40	38571.44
544.60	38780.34
544.80	38792.62
545.00	38802.86
545.20	38761.90
545.41	38950.32
545.61	38948.27
545.81	38976.94
546.01	39255.46
546.21	38843.82
546.42	39165.35
546.62	39378.34
546.82	39224.75
547.02	39294.38
547.22	39757.22
547.43	39239.08
547.63	39325.10
547.83	39611.81
548.03	38931.89
548.23	39562.66
548.44	39280.04
548.64	39656.87
548.84	39441.83
549.04	39624.10
549.24	39966.11
549.45	39964.06
549.65	39826.85
549.85	39908.77
550.05	39675.30
550.25	40021.41
550.45	40553.88
550.66	39857.57
550.86	40000.93
551.06	40203.67
551.26	40066.46
551.46	40015.26
551.66	40256.92
551.87	40064.41
552.07	40158.62
552.27	40568.21
552.47	40344.98
552.67	40555.93
552.87	40625.56
553.07	40877.46
553.28	40271.26
553.48	40351.13
553.68	40404.38
553.88	41043.34
554.08	40742.29
554.28	40609.17
554.48	40764.82
554.69	40828.30
554.89	40885.65
555.09	40535.45
555.29	40734.10
555.49	41149.84
555.69	40996.24
555.89	41115.02
556.10	41166.22
556.30	41094.54
556.50	41266.57
556.70	41055.63
556.90	40863.12
557.10	41354.63
557.30	40945.04
557.50	41450.89
557.70	41428.36
557.91	41231.75
558.11	41123.21
558.31	41809.28
558.51	41350.54
558.71	41708.93
558.91	41311.63
559.11	41395.59
559.31	41497.99
559.51	41366.92
559.72	41588.10
559.92	41833.86
560.12	41696.64
560.32	41989.50
560.52	41680.26
560.72	41614.72
560.92	41999.74
561.12	41958.78
561.32	42171.77
561.52	41903.49
561.72	42300.79
561.93	41971.07
562.13	42136.96
562.33	41940.35
562.53	42323.32
562.73	42388.86
562.93	41854.34
563.13	42157.44
563.33	42513.78
563.53	42726.77
563.73	42073.47
563.93	42493.30
564.13	42704.24
564.33	42737.01
564.53	42345.85
564.74	43136.37
564.94	42397.05
565.14	42909.04
565.34	42607.99
565.54	42923.38
565.74	42845.55
565.94	43097.45
566.14	42651.00
566.34	42607.99
566.54	43449.70
566.74	42841.46
566.94	43668.84
567.14	43169.13
567.34	42974.58
567.54	43128.17
567.74	43353.45
567.94	43451.75
568.14	43464.04
568.34	43717.99
568.54	43275.63
568.74	43832.68
568.94	43570.54
569.14	43918.69
569.34	43777.38
569.54	43734.37
569.75	43853.15
569.95	43988.32
570.15	44561.75
570.35	44025.18
570.55	44166.49
570.75	44029.28
570.95	44201.31
571.15	44035.42
571.35	44189.02
571.55	44258.65
571.75	44590.42
571.95	44576.09
572.15	44520.79
572.35	45028.69
572.55	44877.14
572.75	44436.83
572.95	44649.81
573.15	45460.81
573.35	44768.60
573.55	44764.50
573.75	45083.98
573.95	45020.50
574.15	45776.20
574.35	45417.80
574.55	45421.90
574.75	45485.39
574.95	45581.64
575.15	45471.05
575.34	45923.65
575.54	45520.20
575.74	45708.61
575.94	45884.74
576.14	45634.89
576.34	46257.47
576.54	46101.82
576.74	45995.33
576.94	45802.82
577.14	46216.51
577.34	46466.36
577.54	46062.91
577.74	46327.10
577.94	46697.78
578.14	46525.75
578.34	46722.36
578.54	46445.88
578.74	46634.30
578.94	46947.64
579.14	46341.44
579.34	47082.80
579.54	46722.36
579.74	47496.49
579.94	46943.54
580.13	47043.89
580.33	46751.03
580.53	47293.74
580.73	47164.72
580.93	47748.39
581.13	47260.97
581.33	48002.34
581.53	47803.69
581.73	47842.60
581.93	47873.32
582.13	47897.89
582.33	48244.00
582.53	47994.15
582.73	47889.70
582.92	48381.21
583.12	48166.18
583.32	48469.28
583.52	48166.18
583.72	48356.64
583.92	48504.09
584.12	48160.03
584.32	49036.56
584.52	48723.22
584.72	48149.79
584.92	49112.34
585.11	49202.45
585.31	48549.15
585.51	49011.99
585.71	49231.12
585.91	49415.44
586.11	49276.18
586.31	48999.70
586.51	49339.66
586.71	49786.12
586.91	49419.53
587.10	49265.94
587.30	49313.04
587.50	49419.53
587.70	49468.69
587.90	49603.85
588.10	49683.72
588.30	49648.91
588.50	49562.89
588.69	49739.02
588.89	49814.79
589.09	49958.15
589.29	50005.25
589.49	50433.28
589.69	49517.84
589.89	50269.44
590.08	50038.02
590.28	50042.12
590.48	50285.82
590.68	50339.07
590.88	50339.07
591.08	50605.31
591.28	50414.85
591.47	51029.24
591.67	50189.57
591.87	50801.91
592.07	50685.18
592.27	50685.18
592.47	50459.90
592.67	50957.56
592.86	49978.63
593.06	50603.26
593.26	50918.65
593.46	50803.96
593.66	51008.76
593.86	50670.84
594.05	51256.56
594.25	51213.55
594.45	51053.81
594.65	50586.88
594.85	50269.44
595.05	50980.09
595.24	51582.19
595.44	50916.60
595.64	51481.84
595.84	51393.78
596.04	51641.58
596.23	51164.40
596.43	51578.09
596.63	51148.02
596.83	51692.78
597.03	51928.30
597.22	51803.37
597.42	51688.68
597.62	52249.83
597.82	52231.40
598.02	51815.66
598.21	52131.04
598.41	51485.93
598.61	51727.59
598.81	52176.10
599.01	51928.30
599.20	51805.42
599.40	51981.54
599.60	52368.61
599.80	51942.63
600.00	52040.93
600.19	52362.46
600.39	52149.48
600.59	52280.55
600.79	52806.87
600.98	51997.93
601.18	52102.37
601.38	52655.32
601.58	52741.34
601.78	52667.61
601.97	52741.34
602.17	53114.07
602.37	52456.67
602.57	52737.24
602.76	52710.62
602.96	52184.29
603.16	52522.21
603.36	52397.28
603.55	53136.60
603.75	52477.15
603.95	52862.17
604.15	53339.35
604.34	52950.23
604.54	52835.55
604.74	52991.19
604.94	53277.91
605.13	53261.52
605.33	53257.43
605.53	52894.94
605.73	52929.75
605.92	52907.22
606.12	53404.88
606.32	53175.51
606.52	52810.97
606.71	53236.95
606.91	53585.10
607.11	52966.62
607.30	53384.40
607.50	53368.02
607.70	53681.36
607.90	53183.70
608.09	53181.65
608.29	53026.01
608.49	53601.49
608.68	53640.40
608.88	53892.30
609.08	53185.75
609.28	53693.64
609.47	53040.34
609.67	53431.50
609.87	53462.22
610.06	53630.16
610.26	53497.04
610.46	53787.85
610.66	53646.54
610.85	53402.83
611.05	53566.67
611.25	53632.21
611.44	53689.55
611.64	53314.77
611.84	53466.32
612.03	53294.29
612.23	53908.68
612.43	53589.20
612.62	53605.58
612.82	53834.95
613.02	53447.89
613.21	53490.90
613.41	53171.41
613.61	53494.99
613.80	52983.00
614.00	53257.43
614.20	53591.25
614.39	53677.26
614.59	53667.02
614.79	53644.49
614.98	53173.46
615.18	53642.45
615.38	53566.67
615.57	53392.59
615.77	53241.04
615.97	53992.65
616.16	53548.24
616.36	53652.69
616.56	53806.28
616.75	53533.90
616.95	53318.87
617.15	53540.05
617.34	53677.26
617.54	52849.88
617.74	53568.72
617.93	53310.67
618.13	53060.82
618.32	53177.56
618.52	53183.70
618.72	53632.21
618.91	53222.61
619.11	53339.35
619.31	53558.48
619.50	53249.24
619.70	52866.27
619.90	53195.99
620.09	53148.88
620.29	53445.84
620.48	53329.11
620.68	53863.63
620.88	52843.74
621.07	53445.84
621.27	53357.78
621.46	53099.73
621.66	53208.28
621.86	52989.14
622.05	52896.98
622.25	53875.91
622.44	53155.03
622.64	52798.68
622.84	53124.31
623.03	53458.13
623.23	53046.49
623.42	52813.02
623.62	53318.87
623.82	53339.35
624.01	53245.14
624.21	53064.92
624.40	53499.09
624.60	53114.07
624.80	53275.86
624.99	53372.11
625.19	52526.30
625.38	53392.59
625.58	53372.11
625.77	53247.19
625.97	53310.67
626.17	52729.05
626.36	52868.31
626.56	53341.39
626.75	52903.13
626.95	53388.50
627.14	52747.48
627.34	53603.53
627.54	52843.74
627.73	53470.42
627.93	53445.84
628.12	52835.55
628.32	53302.48
628.51	53077.21
628.71	53435.60
628.90	52985.05
629.10	53105.88
629.30	53241.04
629.49	53499.09
629.69	53353.68
629.88	52991.19
630.08	53386.45
630.27	53527.76
630.47	53587.15
630.66	53447.89
630.86	53603.53
631.05	53292.24
631.25	54002.89
631.44	53642.45
631.64	53576.91
631.84	53699.79
632.03	54283.46
632.23	53634.25
632.42	53968.07
632.62	53820.62
632.81	53433.55
633.01	53603.53
633.20	53654.73
633.40	53984.46
633.59	53873.87
633.79	53691.60
633.98	54332.61
634.18	53882.06
634.37	54394.05
634.57	54097.09
634.76	54459.58
634.96	53765.32
635.15	54187.21
635.35	53871.82
635.54	53628.11
635.74	54662.33
635.93	53630.16
636.13	54293.70
636.32	54389.95
636.52	54105.29
636.71	54166.73
636.91	54246.60
637.10	54518.98
637.30	53982.41
637.49	54238.40
637.69	54473.92
637.88	54668.48
638.08	54138.05
638.27	54457.54
638.46	54545.60
638.66	54049.99
638.85	54318.28
639.05	54742.20
639.24	55116.98
639.44	54797.50
639.63	54990.01
639.83	54686.91
640.02	54944.95
640.22	54432.96
640.41	55139.51
640.61	54797.50
640.80	54727.87
640.99	54826.17
641.19	55080.12
641.38	54836.41
641.58	54666.43
641.77	54918.33
641.97	54920.38
642.16	55055.54
642.36	55110.84
642.55	55442.61
642.74	55018.68
642.94	55927.98
643.13	55155.89
643.33	55264.44
643.52	55784.62
643.72	55579.82
643.91	55504.05
644.10	55893.16
644.30	55819.44
644.49	55256.24
644.69	55844.01
644.88	55506.10
645.08	55712.94
645.27	55145.65
645.46	55719.09
645.66	55729.33
645.85	55485.62
646.05	55852.20
646.24	55858.35
646.43	55964.84
646.63	56339.62
646.82	56147.11
647.02	55899.31
647.21	55762.09
647.40	56087.72
647.60	56272.04
647.79	56620.19
647.99	56546.47
648.18	55766.19
648.37	56358.05
648.57	56560.80
648.76	56550.56
648.96	56327.33
649.15	56097.96
649.34	56417.44
649.54	56554.66
649.73	56591.52
649.92	56923.29
650.12	56806.56
650.31	56829.08
650.51	56992.92
650.70	56751.26
650.89	56968.35
651.09	57144.47
651.28	56890.52
651.47	57136.28
651.67	57339.03
651.86	56781.98
652.06	56536.23
652.25	57437.33
652.44	56843.42
652.64	56884.38
652.83	56677.54
653.02	56837.28
653.22	56988.83
653.41	57044.12
653.60	57052.31
653.80	56915.10
653.99	57050.27
654.18	56956.06
654.38	57183.38
654.57	57210.01
654.76	57236.63
654.96	57011.35
655.15	57154.71
655.34	56988.83
655.54	56872.09
655.73	57048.22
655.92	57498.77
656.12	57455.76
656.31	56865.95
656.50	57179.29
656.70	57472.15
656.89	57234.58
657.08	57611.41
657.28	57328.79
657.47	57597.07
657.66	57767.05
657.86	57193.62
658.05	57351.32
658.24	57554.07
658.43	57595.03
658.63	57562.26
658.82	57613.46
659.01	57851.02
659.21	57891.98
659.40	57265.30
659.59	57431.19
659.79	57932.94
659.98	57801.87
660.17	57676.94
660.36	57908.36
660.56	57681.04
660.75	57730.19
660.94	57592.98
661.14	57740.43
661.33	58133.64
661.52	57461.91
661.71	58238.09
661.91	58154.12
662.10	57496.72
662.29	58328.20
662.49	57881.74
662.68	57971.85
662.87	58320.01
663.06	57998.48
663.26	57699.47
663.45	57996.43
663.64	57742.48
663.83	58322.05
664.03	57758.86
664.22	57642.13
664.41	57736.34
664.60	57146.52
664.80	57404.56
664.99	57791.63
665.18	57486.48
665.37	58033.29
665.57	58061.96
665.76	56974.49
665.95	57709.71
666.14	57365.65
666.34	57472.15
666.53	58115.21
666.72	57750.67
666.91	57554.07
667.11	57447.57
667.30	58082.44
667.49	57830.54
667.68	57451.67
667.87	57564.31
668.07	57924.75
668.26	57683.09
668.45	57484.43
668.64	57656.46
668.84	57883.79
669.03	57463.96
669.22	57580.69
669.41	57377.94
669.60	57814.16
669.80	57570.45
669.99	57724.05
670.18	57564.31
670.37	57705.62
670.57	58066.06
670.76	57570.45
670.95	57461.91
671.14	57228.44
671.33	56982.68
671.53	57961.61
671.72	57293.97
671.91	57212.06
672.10	57058.46
672.29	57353.36
672.48	57521.30
672.68	57656.46
672.87	57175.19
673.06	57689.23
673.25	57293.97
673.44	57078.94
673.64	57484.43
673.83	57017.50
674.02	57287.83
674.21	57152.66
674.40	57525.39
674.59	57136.28
674.79	57156.76
674.98	56657.06
675.17	57037.98
675.36	57177.24
675.55	57212.06
675.74	56722.59
675.94	56644.77
676.13	56892.57
676.32	57015.45
676.51	57420.95
676.70	56591.52
676.89	56757.41
677.08	56788.13
677.28	56671.39
677.47	56976.54
677.66	57103.51
677.85	57175.19
678.04	56941.72
678.23	56992.92
678.42	57035.93
678.62	56579.23
678.81	57244.82
679.00	56194.21
679.19	57037.98
679.38	56650.91
679.57	56788.13
679.76	56757.41
679.96	56812.70
680.15	56482.98
680.34	56534.18
680.53	56259.75
680.72	56282.28
680.91	56454.31
681.10	56335.52
681.29	56458.40
681.48	56226.98
681.68	55813.29
681.87	56482.98
682.06	55829.68
682.25	55913.64
682.44	56046.76
682.63	56126.63
682.82	55921.83
683.01	56124.58
683.20	55573.68
683.39	55796.91
683.59	55835.82
683.78	55551.15
683.97	55510.19
684.16	55649.45
684.35	55723.18
684.54	55667.89
684.73	55196.85
684.92	55671.98
685.11	55717.04
685.30	55377.08
685.49	55833.77
685.69	55422.13
685.88	55768.24
686.07	54901.95
686.26	55194.81
686.45	55155.89
686.64	55358.64
686.83	55286.96
687.02	55784.62
687.21	55293.11
687.40	55116.98
687.59	54955.19
687.78	55104.70
687.97	55624.88
688.16	55461.04
688.35	54844.60
688.54	54871.23
688.74	55059.64
688.93	54832.32
689.12	54770.88
689.31	54766.78
689.50	55024.82
689.69	54312.13
689.88	54054.09
690.07	54836.41
690.26	54457.54
690.45	54822.08
690.64	54574.27
690.83	54260.93
691.02	54342.85
691.21	54293.70
691.40	53912.78
691.59	54592.70
691.78	54228.16
691.97	54258.88
692.16	54017.22
692.35	54883.51
692.54	54262.98
692.73	54435.01
692.92	53990.60
693.11	54262.98
693.30	53691.60
693.49	54117.57
693.68	53970.12
693.87	54093.00
694.06	54174.92
694.25	53773.52
694.44	53701.84
694.63	53789.90
694.82	53816.52
695.01	53310.67
695.20	53613.77
695.39	53583.05
695.58	53624.01
695.77	53556.43
695.96	53378.26
696.15	53040.34
696.34	53200.08
696.53	53171.41
696.72	53892.30
696.91	53175.51
697.10	53048.53
697.29	53112.02
697.48	53449.94
697.67	53433.55
697.86	52444.38
698.05	53101.78
698.24	53195.99
698.43	52290.79
698.62	52903.13
698.81	52640.99
699.00	52913.37
699.19	52784.35
699.38	52528.35
699.57	52278.50
699.76	53282.00
699.95	52505.82
700.14	52511.97
700.32	52274.40
700.51	52620.51
700.70	52778.20
700.89	52823.26
701.08	52348.13
701.27	52262.11
701.46	52802.78
701.65	52075.75
701.84	51887.34
702.03	52608.22
702.22	52143.33
702.41	52231.40
702.60	52360.42
702.79	52352.23
702.98	51938.54
703.17	52176.10
703.35	51608.81
703.54	52198.63
703.73	52415.71
703.92	52479.20
704.11	52335.84
704.30	51713.26
704.49	51948.78
704.68	51903.72
704.87	52147.43
705.06	51705.07
705.25	51934.44
705.43	52219.11
705.62	51709.16
705.81	51645.68
706.00	51963.11
706.19	51481.84
706.38	51592.43
706.57	51735.79
706.76	52038.89
706.95	51746.03
707.14	51637.48
707.32	51102.96
707.51	51508.46
707.70	51358.96
707.89	51074.29
708.08	51199.22
708.27	51848.42
708.46	51283.19
708.65	50873.59
708.84	51440.88
709.02	51717.35
709.21	51385.58
709.40	51172.60
709.59	51379.44
709.78	51141.88
709.97	51713.26
710.16	51150.07
710.34	51193.07
710.53	51438.83
710.72	50963.70
710.91	50922.74
711.10	51223.79
711.29	51029.24
711.48	50912.50
711.66	51115.25
711.85	50652.41
712.04	50726.14
712.23	50996.47
712.42	51066.10
712.61	50457.85
712.80	50949.37
712.98	50943.22
713.17	50291.97
713.36	50509.05
713.55	50410.75
713.74	50808.06
713.93	50783.48
714.11	50580.73
714.30	50255.11
714.49	50271.49
714.68	50529.53
714.87	50609.40
715.06	50535.68
715.24	50384.13
715.43	50375.94
715.62	50396.42
715.81	49906.95
716.00	50464.00
716.18	50029.83
716.37	49874.18
716.56	50068.74
716.75	50595.07
716.94	50228.48
717.12	49949.96
717.31	50289.92
717.50	50240.77
717.69	49976.58
717.88	50216.19
718.06	50341.12
718.25	50578.68
718.44	49831.18
718.63	49743.11
718.82	49911.05
719.00	49964.29
719.19	49923.33
719.38	49995.01
719.57	49411.34
719.76	49493.26
719.94	49464.59
720.13	49276.18
720.32	49650.95
720.51	49341.71
720.69	49382.67
720.88	49601.80
721.07	49298.70
721.26	49282.32
721.44	49048.85
721.63	49356.05
721.82	48940.31
722.01	49077.52
722.20	48856.34
722.38	48735.51
722.57	48301.34
722.76	48887.06
722.95	49222.93
723.13	48248.10
723.32	48657.69
723.51	48784.66
723.70	48540.96
723.88	48839.96
724.07	48676.12
724.26	48774.42
724.44	48340.25
724.63	48903.45
724.82	48774.42
725.01	48794.90
725.19	48602.39
725.38	48327.97
725.57	48477.47
725.76	48553.24
725.94	48203.04
726.13	48178.46
726.32	48565.53
726.51	48430.36
726.69	48712.98
726.88	48626.97
727.07	48739.61
727.25	48575.77
727.44	48280.86
727.63	48739.61
727.82	48348.45
728.00	48403.74
728.19	48360.73
728.38	48604.44
728.56	48170.27
728.75	48760.09
728.94	48135.46
729.12	48569.63
729.31	48424.22
729.50	48280.86
729.69	48719.13
729.87	48338.21
730.06	48403.74
730.25	48248.10
730.43	48852.25
730.62	48399.65
730.81	48444.70
730.99	48500.00
731.18	48506.14
731.37	48870.68
731.55	48727.32
731.74	49032.47
731.93	48715.03
732.11	48575.77
732.30	48440.60
732.49	48577.82
732.67	48596.25
732.86	48323.87
733.05	48721.18
733.23	48000.29
733.42	48567.58
733.61	48432.41
733.79	48274.72
733.98	48641.31
734.17	48708.89
734.35	48579.87
734.54	48639.26
734.73	48733.46
734.91	48790.81
735.10	48358.69
735.29	48788.76
735.47	48260.38
735.66	48258.34
735.84	48008.48
736.03	47822.12
736.22	48506.14
736.40	48205.09
736.59	48184.61
736.78	48149.79
736.96	48174.37
737.15	48837.91
737.33	48237.86
737.52	48395.55
737.71	48211.23
737.89	48186.66
738.08	48033.06
738.27	47848.74
738.45	48688.41
738.64	48069.92
738.82	48385.31
739.01	48323.87
739.20	48045.35
739.38	48200.99
739.57	48287.01
739.75	47858.98
739.94	47920.42
740.13	48014.63
740.31	47971.62
740.50	48481.56
740.68	48123.17
740.87	48190.75
741.06	48133.41
741.24	47805.73
741.43	47996.20
741.61	48147.75
741.80	47650.09
741.99	47873.32
742.17	48006.44
742.36	47797.54
742.54	47596.84
742.73	47918.37
742.91	47754.54
743.10	47945.00
743.29	48174.37
743.47	48022.82
743.66	47725.86
743.84	48100.64
744.03	47904.04
744.21	47705.38
744.40	48086.31
744.59	47310.13
744.77	47297.84
744.96	47934.76
745.14	47541.55
745.33	47322.41
745.51	47222.06
745.70	47455.53
745.88	47670.57
746.07	47504.68
746.26	46994.74
746.44	47293.74
746.63	47363.37
746.81	47789.35
747.00	47076.66
747.18	47217.97
747.37	47240.50
747.55	47527.21
747.74	47699.24
747.92	46990.64
748.11	47131.95
748.29	46875.96
748.48	47363.37
748.66	46603.58
748.85	47109.43
749.03	47312.17
749.22	47562.03
749.41	46646.58
749.59	47101.23
749.78	46564.67
749.96	46609.72
750.15	46701.88
750.33	47099.19
750.52	46841.14
750.70	47080.75
750.89	46646.58
751.07	46677.30
751.26	46732.60
751.44	46660.92
751.63	46411.07
751.81	46441.79
752.00	46134.59
752.18	46177.60
752.37	46835.00
752.55	46232.89
752.74	46224.70
752.92	46380.35
753.10	46214.46
753.29	46456.12
753.47	46277.95
753.66	46347.58
753.84	46480.70
754.03	45944.13
754.21	46212.41
754.40	45966.66
754.58	46253.37
754.77	46232.89
754.95	45892.93
755.14	45927.75
755.32	45827.40
755.51	45978.95
755.69	45843.78
755.88	46097.73
756.06	46079.30
756.24	45528.39
756.43	45874.50
756.61	45184.33
756.80	45344.08
756.98	45577.54
757.17	45897.03
757.35	45720.90
757.54	45606.22
757.72	45790.53
757.90	45225.29
758.09	45417.80
758.27	45315.40
758.46	45110.61
758.64	45497.67
758.83	45092.18
759.01	45004.11
759.19	45129.04
759.38	45253.97
759.56	45077.84
759.75	44995.92
759.93	44875.09
760.12	45104.46
760.30	45004.11
760.48	44586.33
760.67	44737.88
760.85	45032.78
761.04	44948.82
761.22	44885.33
761.40	44985.68
761.59	44887.38
761.77	44406.11
761.96	44676.44
762.14	44336.48
762.32	44199.26
762.51	44146.01
762.69	44567.90
762.88	44430.68
763.06	44719.45
763.24	44576.09
763.43	44123.49
763.61	43705.70
763.80	44152.16
763.98	43767.14
764.16	43906.40
764.35	43830.63
764.53	43916.64
764.72	43750.76
764.90	43797.86
765.08	43222.38
765.27	43695.46
765.45	43138.41
765.63	43025.78
765.82	43392.36
766.00	42808.69
766.18	43031.92
766.37	43502.95
766.55	43058.54
766.74	43195.76
766.92	42829.17
767.10	43144.56
767.29	42716.53
767.47	42261.88
767.65	43068.78
767.84	42440.06
768.02	42837.36
768.20	42370.43
768.39	42663.28
768.57	42630.52
768.75	42628.47
768.94	42388.86
769.12	42571.13
769.30	42689.91
769.49	42265.98
769.67	42681.72
769.85	42073.47
770.04	42411.38
770.22	42143.10
770.40	42001.79
770.59	41872.77
770.77	42257.79
770.95	42104.19
771.14	41973.12
771.32	41891.20
771.50	41520.52
771.69	41608.58
771.87	41551.24
772.05	41434.50
772.24	41432.46
772.42	41497.99
772.60	41203.08
772.78	41680.26
772.97	41282.95
773.15	41528.71
773.33	41407.88
773.52	41164.17
773.70	41446.79
773.88	41573.77
774.07	41137.55
774.25	41237.90
774.43	41471.37
774.61	41268.62
774.80	41434.50
774.98	41645.44
775.16	41375.11
775.34	41094.54
775.53	40904.08
775.71	41622.92
775.89	41225.61
776.08	40908.18
776.26	41080.21
776.44	41172.36
776.62	41061.77
776.81	41162.12
776.99	41129.36
777.17	41147.79
777.35	41098.64
777.54	40973.71
777.72	40895.89
777.90	40973.71
778.08	41164.17
778.27	41051.53
778.45	41563.53
778.63	41299.34
778.81	40920.46
779.00	41751.94
779.18	41051.53
779.36	42007.94
779.54	41665.92
779.73	41235.85
779.91	41352.58
780.09	41401.74
780.27	41530.76
780.46	41555.33
780.64	41422.22
780.82	41475.46
781.00	41002.38
781.19	41670.02
781.37	41786.75
781.55	41532.81
781.73	41749.89
781.91	41315.72
782.10	41608.58
782.28	41696.64
782.46	41588.10
782.64	41457.03
782.82	41426.31
783.01	41768.32
783.19	41258.38
783.37	41233.80
783.55	41078.16
783.74	41659.78
783.92	41665.92
784.10	42184.06
784.28	41639.30
784.46	41354.63
784.64	41207.18
784.83	41522.57
785.01	41618.82
785.19	41321.87
785.37	41385.35
785.55	41516.42
785.74	40979.85
785.92	41117.07
786.10	41381.26
786.28	41020.81
786.46	40897.94
786.64	40885.65
786.83	41168.27
787.01	40965.52
787.19	40861.07
787.37	41438.60
787.55	41006.48
787.74	40809.87
787.92	41119.12
788.10	40744.34
788.28	40379.80
788.46	40648.08
788.64	40320.41
788.82	40813.97
789.01	40629.65
789.19	40324.50
789.37	40172.96
789.55	40371.61
789.73	40199.58
789.91	40142.24
790.09	39822.75
790.28	39900.58
790.46	39900.58
790.64	39792.03
790.82	39667.11
791.00	39585.19
791.18	39550.37
791.36	39212.46
791.55	39699.87
791.73	39345.58
791.91	39380.39
792.09	38944.17
792.27	39042.48
792.45	39460.26
792.63	39167.40
792.81	38843.82
793.00	38890.93
793.18	39030.19
793.36	39091.63
793.54	39001.52
793.72	38483.38
793.90	38690.23
794.08	38456.76
794.26	38469.04
794.44	38204.86
794.62	38331.83
794.81	37731.78
794.99	37965.24
795.17	38049.21
795.35	37586.37
795.53	38053.31
795.71	37977.53
795.89	37666.24
796.07	37361.09
796.25	37336.52
796.43	37305.80
796.61	37156.30
796.80	37371.33
796.98	37320.13
797.16	36845.01
797.34	37006.80
797.52	36765.14
797.70	36750.80
797.88	36593.11
798.06	36378.07
798.24	36642.26
798.42	36298.20
798.60	36406.74
798.78	36441.56
798.96	36206.04
799.14	36183.51
799.32	36304.34
799.51	35804.64
799.69	36236.76
799.87	35943.90
800.05	35739.10
800.23	35659.23
800.41	35380.71
800.59	35272.17
800.77	35411.43
800.95	34905.58
801.13	34854.38
801.31	35237.35
801.49	35065.32
801.67	34878.96
801.85	34629.10
802.03	34825.71
802.21	34522.61
802.39	34227.70
802.57	34610.67
802.75	34317.81
802.93	34565.62
803.11	34174.45
803.29	34000.38
803.47	34090.49
803.65	34100.73
803.83	33908.22
804.01	33924.60
804.19	33480.19
804.37	33707.52
804.55	33768.96
804.73	33771.00
804.91	33711.61
805.09	33670.65
805.27	33252.87
805.45	33113.61
805.63	33349.12
805.81	33312.26
805.99	33271.30
806.17	33146.37
806.35	33084.94
806.53	32941.58
806.71	33046.02
806.89	33046.02
807.07	32798.22
807.25	33017.35
807.43	32411.15
807.61	32728.59
807.79	32441.87
807.97	32079.38
808.15	32505.36
808.33	32214.55
808.51	32491.02
808.69	32173.59
808.87	32118.29
809.05	32239.12
809.23	32063.00
809.41	31696.41
809.59	31776.28
809.77	32110.10
809.95	31421.98
810.13	31927.83
810.31	31979.03
810.49	31745.56
810.67	31278.63
810.84	31383.07
811.02	31385.12
811.20	31053.35
811.38	31331.87
811.56	31018.53
811.74	30815.79
811.92	30744.11
812.10	30844.46
812.28	30869.03
812.46	30887.46
812.64	30819.88
812.82	30830.12
813.00	31051.30
813.18	30836.27
813.36	30479.92
813.53	30344.75
813.71	30342.70
813.89	30266.93
814.07	30514.73
814.25	30324.27
814.43	30248.50
814.61	30443.06
814.79	30131.76
814.97	30047.80
815.15	30178.87
815.33	30027.32
815.50	29957.69
815.68	30135.86
815.86	29935.16
816.04	29654.59
816.22	29810.23
816.40	29978.17
816.58	30072.37
816.76	29599.29
816.94	29787.71
817.11	29945.40
817.29	29455.93
817.47	29429.31
817.65	29294.14
817.83	29404.74
818.01	28954.18
818.19	28894.79
818.37	29099.59
818.54	28761.67
818.72	28866.12
818.90	29081.16
819.08	29048.39
819.26	29021.77
819.44	29158.98
819.62	28552.78
819.80	28782.15
819.97	28884.55
820.15	28784.20
820.33	28749.39
820.51	28692.04
820.69	28563.02
820.87	28882.50
821.05	28579.40
821.22	28640.84
821.40	28692.04
821.58	28407.37
821.76	28288.59
821.94	28331.60
822.12	28411.47
822.29	28612.17
822.47	28026.45
822.65	28515.92
822.83	28171.86
823.01	28026.45
823.19	28030.55
823.36	27848.28
823.54	27803.22
823.72	27979.35
823.90	27635.29
824.08	27727.45
824.25	27684.44
824.43	27709.02
824.61	27788.89
824.79	27565.66
824.97	27471.45
825.15	27655.77
825.32	27784.79
825.50	27358.81
825.68	27289.18
825.86	27444.83
826.04	27524.70
826.21	27645.53
826.39	26992.23
826.57	27555.42
826.75	27272.80
826.93	27117.15
827.10	27065.96
827.28	27182.69
827.46	27496.03
827.64	27129.44
827.81	26904.17
827.99	27229.79
828.17	26965.60
828.35	26615.40
828.53	26984.04
828.70	26992.23
828.88	26855.01
829.06	27186.79
829.24	27119.20
829.41	26674.79
829.59	27039.33
829.77	26601.07
829.95	26676.84
830.12	26807.91
830.30	26551.91
830.48	26816.10
830.66	26779.24
830.84	26859.11
831.01	26244.72
831.19	26529.39
831.37	26461.80
831.55	26371.69
831.72	26056.31
831.90	26695.27
832.08	26437.23
832.25	26680.94
832.43	26369.65
832.61	25982.58
832.79	26144.37
832.96	26127.99
833.14	26343.02
833.32	26097.27
833.50	26111.60
833.67	25822.84
833.85	25880.18
834.03	25595.51
834.20	26316.40
834.38	26201.71
834.56	26093.17
834.74	25788.02
834.91	25945.72
835.09	25855.61
835.27	25558.65
835.44	25841.27
835.62	25296.51
835.80	25392.76
835.98	25427.58
836.15	25538.17
836.33	25763.45
836.51	25759.35
836.68	25269.89
836.86	25443.96
837.04	25630.33
837.21	25546.36
837.39	25394.81
837.57	25626.23
837.75	25298.56
837.92	25003.65
838.10	25142.91
838.28	25042.56
838.45	25243.26
838.63	25398.91
838.81	25534.07
838.98	25306.75
839.16	25337.47
839.34	24682.12
839.51	25144.96
839.69	24940.16
839.87	24854.15
840.04	24987.27
840.22	25114.24
840.40	24581.77
840.57	24327.82
840.75	24821.38
840.93	24374.92
841.10	24628.87
841.28	25007.75
841.46	24721.03
841.63	24899.20
841.81	24643.21
841.98	25073.28
842.16	24678.02
842.34	24817.29
842.51	24573.58
842.69	24510.09
842.87	24579.72
843.04	24854.15
843.22	24532.62
843.40	24516.23
843.57	24766.09
843.75	24665.74
843.92	24696.46
844.10	24223.37
844.28	24411.79
844.45	24268.43
844.63	24280.72
844.81	24178.32
844.98	24206.99
845.16	24276.62
845.33	24254.09
845.51	24239.76
845.69	24028.82
845.86	24274.57
846.04	23942.80
846.21	24104.59
846.39	24135.31
846.57	24137.36
846.74	24133.26
846.92	23946.90
847.09	23686.81
847.27	23735.96
847.45	23893.65
847.62	23928.47
847.80	24067.73
847.97	23678.61
848.15	23811.73
848.32	23475.87
848.50	23826.07
848.68	23717.53
848.85	23606.94
849.03	23346.84
849.20	23969.43
849.38	23787.16
849.56	23340.70
849.73	23541.40
849.91	23543.45
850.08	23668.37
850.26	23385.76
850.43	23328.41
850.61	23516.83
850.78	23129.76
850.96	23336.60
851.14	23070.37
851.31	23342.75
851.49	23201.44
851.66	23226.01
851.84	23477.91
852.01	23314.08
852.19	23244.45
852.36	23484.06
852.54	23082.66
852.71	23166.62
852.89	23021.22
853.07	23316.12
853.24	23115.42
853.42	23010.98
853.59	23109.28
853.77	22931.11
853.94	23226.01
854.12	23301.79
854.29	22628.01
854.47	22898.34
854.64	22558.38
854.82	22787.75
854.99	22654.63
855.17	22724.26
855.34	22826.66
855.52	22795.94
855.69	22597.29
855.87	22808.23
856.04	22357.67
856.22	22767.27
856.39	22304.43
856.57	22693.54
856.74	22797.99
856.92	22693.54
857.09	22204.08
857.27	22533.80
857.44	22595.24
857.62	22531.75
857.79	22460.07
857.97	22386.35
858.14	22310.57
858.32	22339.24
858.49	22406.83
858.67	22302.38
858.84	22257.32
859.02	22208.17
859.19	21972.66
859.37	21907.12
859.54	22085.30
859.72	22181.55
859.89	22113.97
860.06	22144.69
860.24	21989.04
860.41	22251.18
860.59	21585.59
860.76	22044.34
860.94	21628.60
861.11	21941.94
861.29	22019.76
861.46	21790.39
861.64	21784.24
861.81	21771.96
861.98	21999.28
862.16	21663.41
862.33	21577.40
862.51	21788.34
862.68	21524.15
862.86	21714.61
863.03	21436.09
863.21	21524.15
863.38	21450.42
863.55	21593.78
863.73	21620.41
863.90	21567.16
864.08	21442.23
864.25	21556.92
864.43	21278.40
864.60	21358.27
864.77	21272.25
864.95	21063.36
865.12	20983.49
865.30	21270.20
865.47	21055.17
865.64	21307.07
865.82	21194.43
865.99	21137.09
866.17	21143.23
866.34	21151.42
866.51	20903.62
866.69	20795.07
866.86	21112.51
867.04	20926.14
867.21	20993.73
867.38	20924.10
867.56	20764.36
867.73	20786.88
867.91	20774.60
868.08	20852.42
868.25	20508.36
868.43	20680.39
868.60	20727.49
868.78	20813.51
868.95	20842.18
869.12	20604.61
869.30	20547.27
869.47	20643.52
869.64	20328.14
869.82	20328.14
869.99	20305.61
870.16	20565.70
870.34	20287.18
870.51	20563.65
870.69	20285.13
870.86	20393.67
871.03	20516.55
871.21	20246.22
871.38	20109.01
871.55	19955.41
871.73	20235.98
871.90	19889.87
872.07	19873.49
872.25	19969.74
872.42	19621.59
872.59	19812.05
872.77	19787.47
872.94	19939.02
873.11	19713.75
873.29	19748.56
873.46	19541.72
873.63	19709.65
873.81	19728.08
873.98	19404.50
874.15	19535.57
874.33	19293.91
874.50	19177.18
874.67	19371.74
874.85	19211.99
875.02	19287.77
875.19	19259.10
875.37	19390.17
875.54	19119.84
875.71	19410.65
875.88	19062.49
876.06	19345.11
876.23	19078.88
876.40	19015.39
876.58	18767.59
876.75	19123.93
876.92	18976.48
877.10	18884.32
877.27	18624.23
877.44	18874.08
877.61	18786.02
877.79	18716.39
877.96	18636.52
878.13	18552.55
878.31	18611.94
878.48	18767.59
878.65	18536.17
878.82	18282.22
879.00	18769.63
879.17	18503.40
879.34	18435.81
879.51	18192.11
879.69	18093.80
879.86	18132.72
880.03	18085.61
880.21	18302.70
880.38	18155.24
880.55	18003.69
880.72	17927.92
880.90	18104.04
881.07	18122.48
881.24	18015.98
881.41	17970.93
881.59	17897.20
881.76	17856.24
881.93	17741.55
882.10	17757.94
882.28	17587.96
882.45	17708.79
882.62	17702.64
882.79	17782.51
882.96	17778.42
883.14	17610.48
883.31	17780.46
883.48	17583.86
883.65	17757.94
883.83	17825.52
884.00	17737.46
884.17	17540.85
884.34	17594.10
884.51	17665.78
884.69	17346.30
884.86	17497.84
885.03	17532.66
885.20	17473.27
885.38	17547.00
885.55	17194.75
885.72	17426.17
885.89	17182.46
886.06	17428.21
886.24	17219.32
886.41	17321.72
886.58	17377.01
886.75	17340.15
886.92	17174.27
887.10	17194.75
887.27	17145.59
887.44	17239.80
887.61	17047.29
887.78	17237.75
887.95	17102.59
888.13	17051.39
888.30	16867.07
888.47	16887.55
888.64	16901.89
888.81	16762.62
888.99	16668.42
889.16	16592.64
889.33	16717.57
889.50	16441.09
889.67	16637.70
889.84	16736.00
890.01	16559.88
890.19	16639.75
890.36	16549.64
890.53	16353.03
890.70	16305.93
890.87	16387.85
891.04	16271.11
891.22	16221.96
891.39	16502.53
891.56	16154.38
891.73	16467.72
891.90	16193.29
892.07	16178.95
892.24	16482.05
892.42	16187.14
892.59	16178.95
892.76	15982.35
892.93	16072.46
893.10	16320.26
893.27	16011.02
893.44	16152.33
893.61	15976.20
893.79	16191.24
893.96	15810.32
894.13	16041.74
894.30	15836.94
894.47	16031.50
894.64	16152.33
894.81	16023.31
894.98	16103.18
895.15	16129.80
895.33	15871.76
895.50	15904.53
895.67	16119.56
895.84	15830.80
896.01	15771.41
896.18	15699.73
896.35	15755.02
896.52	15861.52
896.69	15785.74
896.86	15642.39
897.04	15765.26
897.21	15789.84
897.38	15619.86
897.55	15640.34
897.72	15712.02
897.89	15638.29
898.06	15918.86
898.23	15767.31
898.40	15564.56
898.57	15652.63
898.74	15707.92
898.91	15599.38
899.08	15662.86
899.26	15726.35
899.43	15632.15
899.60	15525.65
899.77	15728.40
899.94	15419.16
900.11	15255.32
900.28	15607.57
900.45	15445.78
900.62	15370.01
900.79	15556.37
900.96	15615.76
901.13	15499.03
901.30	15630.10
901.47	15318.81
901.64	15349.53
901.81	15480.60
901.98	15355.67
902.15	15714.06
902.32	15357.72
902.49	15327.00
902.66	15544.08
902.83	15509.27
903.01	15275.80
903.18	15550.23
903.35	15269.66
903.52	15447.83
903.69	15453.97
903.86	15505.17
904.03	15568.66
904.20	15705.87
904.37	15552.27
904.54	15331.09
904.71	15363.86
904.88	15628.05
905.05	15357.72
905.22	15445.78
905.39	15431.44
905.56	15570.71
905.73	15294.23
905.90	15509.27
906.07	15531.80
906.24	15568.66
906.41	15316.76
906.58	15370.01
906.75	15449.88
906.92	15224.60
907.09	15388.44
907.26	15322.90
907.43	15390.49
907.60	15240.98
907.77	15556.37
907.93	15318.81
908.10	15154.97
908.27	15398.68
908.44	15302.42
908.61	15271.70
908.78	15222.55
908.95	15126.30
909.12	15208.22
909.29	15214.36
909.46	15277.85
909.63	15247.13
909.80	15068.95
909.97	15183.64
910.14	15197.98
910.31	15136.54
910.48	15083.29
910.65	15193.88
910.82	15077.15
910.99	14823.20
911.16	15052.57
911.33	14880.54
911.50	14927.64
911.66	14677.79
911.83	15023.90
912.00	14696.22
912.17	14577.44
912.34	14716.70
912.51	14698.27
912.68	14649.12
912.85	14759.71
913.02	14642.98
913.19	14429.99
913.36	14731.04
913.53	14614.30
913.70	14489.38
913.86	14663.46
914.03	14305.06
914.20	14581.54
914.37	14466.85
914.54	14405.41
914.71	14364.45
914.88	14407.46
915.05	14176.04
915.22	14184.23
915.39	14368.55
915.55	14157.61
915.72	14249.77
915.89	14020.39
916.06	14038.83
916.23	14190.38
916.40	14098.22
916.57	13788.97
916.74	14001.96
916.91	13997.87
917.07	13940.52
917.24	13893.42
917.41	13989.67
917.58	13852.46
917.75	13905.71
917.92	13604.66
918.09	13934.38
918.26	13776.69
918.42	13715.25
918.59	13670.19
918.76	13479.73
918.93	13262.65
919.10	13477.68
919.27	13459.25
919.44	13363.00
919.60	13432.63
919.77	13350.71
919.94	13246.26
920.11	13248.31
920.28	13338.42
920.45	13174.58
920.61	13186.87
920.78	12945.21
920.95	13004.60
921.12	12900.16
921.29	12713.79
921.46	12857.15
921.62	12736.32
921.79	12996.41
921.96	12756.80
922.13	12570.43
922.30	12556.10
922.47	12597.06
922.63	12482.37
922.80	12459.84
922.97	12212.04
923.14	12273.48
923.31	12330.82
923.47	12066.63
923.64	12373.83
923.81	12044.10
923.98	12259.14
924.15	12103.50
924.32	12056.39
924.48	11962.19
924.65	12072.78
924.82	11931.47
924.99	12076.87
925.15	11808.59
925.32	11929.42
925.49	11800.40
925.66	11880.27
925.83	11546.45
925.99	11753.29
926.16	11706.19
926.33	11741.00
926.50	11329.36
926.67	11685.71
926.83	11386.71
927.00	11358.03
927.17	11292.50
927.34	11198.29
927.50	11536.21
927.67	11282.26
927.84	11157.33
928.01	11214.68
928.17	11009.88
928.34	10790.75
928.51	10995.54
928.68	10854.23
928.84	10993.50
929.01	10870.62
929.18	10719.07
929.35	10565.47
929.51	10682.20
929.68	10583.90
929.85	10442.59
930.02	10463.07
930.18	10536.80
930.35	10354.53
930.52	10606.43
930.69	10428.26
930.85	10428.26
931.02	10407.78
931.19	10264.42
931.36	10190.69
931.52	10164.07
931.69	10274.66
931.86	10215.27
932.02	10104.68
932.19	10014.57
932.36	10016.62
932.53	10078.05
932.69	9969.51
932.86	9791.34
933.03	9854.83
933.19	9602.93
933.36	9711.47
933.53	9807.72
933.70	9346.93
933.86	9523.05
934.03	9338.74
934.20	9295.73
934.36	9424.75
934.53	9041.78
934.70	9021.30
934.86	9154.42
935.03	8867.70
935.20	8888.18
935.36	8843.13
935.53	8925.05
935.70	8884.09
935.86	8886.14
936.03	8617.85
936.20	8456.06
936.36	8427.39
936.53	8501.12
936.70	8402.82
936.86	8468.35
937.03	8187.78
937.20	8030.09
937.36	8179.59
937.53	7741.32
937.70	7856.01
937.86	7696.27
938.03	7968.65
938.20	7597.96
938.36	7548.81
938.53	7602.06
938.70	7323.54
938.86	7341.97
939.03	7212.95
939.20	7155.60
939.36	7022.48
939.53	6991.77
939.70	7284.62
939.86	6678.43
940.03	6709.15
940.19	6795.16
940.36	6690.71
940.53	6733.72
940.69	6487.96
940.86	6770.58
941.03	6436.77
941.19	6401.95
941.36	6412.19
941.52	6240.16
941.69	6049.70
941.86	6229.92
942.02	6029.22
942.19	6152.10
942.35	5935.01
942.52	6018.98
942.69	5894.05
942.85	5867.43
943.02	5695.40
943.18	5705.64
943.35	5650.35
943.52	5711.78
943.68	5541.80
943.85	5607.34
944.01	5556.14
944.18	5656.49
944.35	5527.47
944.51	5396.40
944.68	5361.58
944.84	5328.81
945.01	5420.97
945.17	5486.51
945.34	5463.98
945.51	5463.98
945.67	5375.92
945.84	5308.34
946.00	5154.74
946.17	5160.88
946.33	5291.95
946.50	5337.01
946.67	5158.83
946.83	5234.61
947.00	5271.47
947.16	5183.41
947.33	5156.79
947.49	5179.31
947.66	5218.22
947.82	5089.20
947.99	5177.26
948.16	5156.79
948.32	5242.80
948.49	5162.93
948.65	5234.61
948.82	5164.98
948.98	5128.11
949.15	5226.42
949.31	5222.32
949.48	5105.59
949.64	5220.27
949.81	5187.50
949.97	5109.68
950.14	5220.27
950.30	5023.67
950.47	5322.67
950.63	5164.98
950.80	5334.96
950.96	5189.55
951.13	5136.31
951.30	5177.26
951.46	5162.93
951.63	5330.86
951.79	5369.77
951.96	5283.76
952.12	5238.70
952.29	5285.81
952.45	5218.22
952.62	5279.66
952.78	5353.39
952.94	5224.37
953.11	5257.14
953.27	5265.33
953.44	5365.68
953.60	5365.68
953.77	5261.23
953.93	5191.60
954.10	5189.55
954.26	5377.97
954.43	5345.20
954.59	5222.32
954.76	5398.45
954.92	5414.83
955.09	5388.21
955.25	5349.29
955.42	5214.13
955.58	5451.69
955.75	5326.77
955.91	5244.85
956.07	5341.10
956.24	5398.45
956.40	5529.52
956.57	5570.48
956.73	5289.90
956.90	5377.97
957.06	5367.73
957.23	5304.24
957.39	5279.66
957.56	5468.08
957.72	5164.98
957.88	5220.27
958.05	5427.12
958.21	5562.28
958.38	5476.27
958.54	5418.93
958.71	5492.65
958.87	5410.73
959.03	5361.58
959.20	5214.13
959.36	5349.29
959.53	5386.16
959.69	5226.42
959.85	5425.07
960.02	5140.40
960.18	5433.26
960.35	5351.34
960.51	5320.62
960.68	5326.77
960.84	5375.92
961.00	5220.27
961.17	5240.75
961.33	5490.60
961.50	5314.48
961.66	5402.54
961.82	5279.66
961.99	5306.29
962.15	5175.22
962.31	5216.18
962.48	5261.23
962.64	5351.34
962.81	5294.00
962.97	5224.37
963.13	5423.02
963.30	5261.23
963.46	5273.52
963.62	5347.25
963.79	5302.19
963.95	5304.24
964.12	5228.46
964.28	5240.75
964.44	5214.13
964.61	5396.40
964.77	5359.53
964.93	5365.68
965.10	5250.99
965.26	5203.89
965.42	5267.38
965.59	5187.50
965.75	5214.13
965.92	5191.60
966.08	5230.51
966.24	5197.74
966.41	5119.92
966.57	5234.61
966.73	5394.35
966.90	5173.17
967.06	5201.84
967.22	5130.16
967.39	5244.85
967.55	5056.43
967.71	5056.43
967.88	5083.06
968.04	5119.92
968.20	4999.09
968.37	5132.21
968.53	4964.28
968.69	5050.29
968.85	5128.11
969.02	5115.83
969.18	5089.20
969.34	5056.43
969.51	5154.74
969.67	5111.73
969.83	5001.14
970.00	5091.25
970.16	5001.14
970.32	5146.55
970.48	5074.87
970.65	4861.88
970.81	4837.30
970.97	4925.36
971.14	4982.71
971.30	4927.41
971.46	4902.84
971.63	4943.80
971.79	4906.93
971.95	4847.54
972.11	4827.06
972.28	4827.06
972.44	4874.17
972.60	4788.15
972.76	4788.15
972.93	4941.75
973.09	4927.41
973.25	4796.34
973.42	4779.96
973.58	4947.89
973.74	4804.53
973.90	4865.97
974.07	4904.89
974.23	4779.96
974.39	4792.25
974.55	4743.10
974.72	4683.70
974.88	4618.17
975.04	4753.34
975.20	4693.94
975.37	4714.42
975.53	4689.85
975.69	4804.53
975.85	4769.72
976.01	4573.11
976.18	4767.67
976.34	4556.73
976.50	4683.70
976.66	4736.95
976.83	4558.78
976.99	4769.72
977.15	4593.59
977.31	4614.07
977.47	4718.52
977.64	4624.31
977.80	4585.40
977.96	4648.89
978.12	4470.72
978.29	4558.78
978.45	4399.04
978.61	4366.27
978.77	4577.21
978.93	4491.20
979.10	4595.64
979.26	4413.37
979.42	4442.04
979.58	4372.41
979.74	4493.24
979.91	4456.38
980.07	4386.75
980.23	4415.42
980.39	4288.45
980.55	4503.48
980.71	4347.84
980.88	4358.08
981.04	4360.13
981.20	4325.31
981.36	4374.46
981.52	4265.92
981.68	4278.21
981.85	4243.39
982.01	4304.83
982.17	4329.41
982.33	4286.40
982.49	4425.66
982.65	4267.97
982.82	4173.76
982.98	4306.88
983.14	4173.76
983.30	4306.88
983.46	4245.44
983.62	4323.26
983.79	4181.95
983.95	4224.96
984.11	4147.14
984.27	4192.19
984.43	4126.66
984.59	4083.65
984.75	4245.44
984.91	4100.03
985.08	4163.52
985.24	4140.99
985.40	3993.54
985.56	3975.11
985.72	4077.51
985.88	4169.66
986.04	4069.31
986.20	4030.40
986.37	3993.54
986.53	3966.92
986.69	4016.07
986.85	4014.02
987.01	3981.25
987.17	4126.66
987.33	4005.83
987.49	4009.92
987.65	3991.49
987.82	4018.11
987.98	3954.63
988.14	4024.26
988.30	3999.68
988.46	3878.85
988.62	3946.44
988.78	3946.44
988.94	3755.97
989.10	3848.13
989.26	3868.61
989.42	3772.36
989.59	3731.40
989.75	3782.60
989.91	3794.89
990.07	3680.20
990.23	3706.82
990.39	3913.67
990.55	3938.24
990.71	3661.77
990.87	3917.76
991.03	3852.23
991.19	3639.24
991.35	3735.50
991.51	3776.45
991.67	3796.93
991.83	3710.92
992.00	3606.47
992.16	3661.77
992.32	3620.81
992.48	3749.83
992.64	3581.90
992.80	3762.12
992.96	3676.10
993.12	3649.48
993.28	3561.42
993.44	3590.09
993.60	3602.38
993.76	3665.86
993.92	3641.29
994.08	3557.32
994.24	3643.34
994.40	3590.09
994.56	3588.04
994.72	3569.61
994.88	3487.69
995.04	3665.86
995.20	3547.08
995.36	3424.20
995.52	3559.37
995.68	3495.88
995.84	3502.03
996.00	3551.18
996.16	3514.31
996.32	3450.83
996.48	3477.45
996.64	3682.25
996.80	3508.17
996.96	3444.68
997.12	3407.82
997.28	3360.72
997.44	3330.00
997.60	3323.85
997.76	3403.72
997.92	3383.24
998.08	3463.12
998.24	3264.46
998.40	3456.97
998.56	3370.96
998.72	3203.02
998.88	3182.54
999.04	3276.75
999.20	3362.76
999.36	3219.41
999.52	3418.06
999.68	3297.23
999.84	3346.38
1000.00	3284.94
1000.16	3321.81
1000.32	3250.13
1000.48	3395.53
1000.64	3194.83
1000.80	3237.84
1000.95	3176.40
1001.11	3215.31
1001.27	3250.13
1001.43	3354.57
1001.59	3088.34
1001.75	3180.50
1001.91	3231.69
1002.07	3153.87
1002.23	3092.43
1002.39	3000.27
1002.55	3074.00
1002.71	3016.66
1002.87	3088.34
1003.03	3123.15
1003.19	3100.62
1003.34	3155.92
1003.50	3139.54
1003.66	3239.89
1003.82	3119.06
1003.98	3026.90
1004.14	3055.57
1004.30	2965.46
1004.46	2965.46
1004.62	2953.17
1004.78	3082.19
1004.94	3063.76
1005.09	2936.79
1005.25	3043.28
1005.41	2920.40
1005.57	3008.47
1005.73	2928.60
1005.89	2916.31
1006.05	2981.84
1006.21	2994.13
1006.37	2904.02
1006.52	2928.60
1006.68	2869.20
1006.84	3125.20
1007.00	2838.48
1007.16	2904.02
1007.32	2867.16
1007.48	2891.73
1007.64	2908.12
1007.79	2850.77
1007.95	2791.38
1008.11	2904.02
1008.27	2947.03
1008.43	2809.81
1008.59	2787.29
1008.75	2828.24
1008.91	2822.10
1009.06	2754.52
1009.22	2863.06
1009.38	2963.41
1009.54	2840.53
1009.70	2854.87
1009.86	2801.62
1010.01	2871.25
1010.17	2748.37
1010.33	2801.62
1010.49	2858.96
1010.65	2904.02
1010.81	2674.65
1010.96	2815.96
1011.12	2723.80
1011.28	2656.22
1011.44	2830.29
1011.60	2752.47
1011.76	2633.69
1011.91	2746.33
1012.07	2656.22
1012.23	2568.15
1012.39	2592.73
1012.55	2850.77
1012.71	2648.02
1012.86	2592.73
1013.02	2643.93
1013.18	2617.30
1013.34	2547.67
1013.50	2613.21
1013.65	2727.89
1013.81	2654.17
1013.97	2600.92
1014.13	2598.87
1014.29	2566.10
1014.44	2695.13
1014.60	2584.54
1014.76	2521.05
1014.92	2574.30
1015.07	2516.95
1015.23	2602.97
1015.39	2523.10
1015.55	2494.43
1015.71	2574.30
1015.86	2441.18
1016.02	2551.77
1016.18	2432.99
1016.34	2519.00
1016.49	2461.66
1016.65	2625.50
1016.81	2488.28
1016.97	2549.72
1017.12	2564.06
1017.28	2363.36
1017.44	2455.51
1017.60	2492.38
1017.75	2432.99
1017.91	2545.63
1018.07	2447.32
1018.23	2447.32
1018.38	2371.55
1018.54	2424.80
1018.70	2510.81
1018.86	2365.40
1019.01	2404.32
1019.17	2406.36
1019.33	2500.57
1019.49	2379.74
1019.64	2351.07
1019.80	2336.73
1019.96	2459.61
1020.12	2394.08
1020.27	2318.30
1020.43	2351.07
1020.59	2322.40
1020.74	2394.08
1020.90	2396.12
1021.06	2336.73
1021.22	2414.56
1021.37	2400.22
1021.53	2281.44
1021.69	2394.08
1021.84	2318.30
1022.00	2314.20
1022.16	2267.10
1022.31	2279.39
1022.47	2334.68
1022.63	2355.16
1022.79	2293.72
1022.94	2291.68
1023.10	2322.40
1023.26	2285.53
1023.41	2277.34
1023.57	2228.19
1023.73	2394.08
1023.88	2275.29
1024.04	2240.48
1024.20	2162.66
1024.35	2240.48
1024.51	2308.06
1024.67	2240.48
1024.82	2267.10
1024.98	2136.03
1025.14	2222.05
1025.29	2203.61
1025.45	2279.39
1025.61	2140.13
1025.76	2209.76
1025.92	2285.53
1026.08	2322.40
1026.23	2213.85
1026.39	2281.44
1026.55	2162.66
1026.70	2164.70
1026.86	2224.09
1027.02	2144.22
1027.17	2203.61
1027.33	2203.61
1027.48	2154.46
1027.64	2127.84
1027.80	2068.45
1027.95	2240.48
1028.11	2068.45
1028.27	2150.37
1028.42	2150.37
1028.58	2144.22
1028.73	2138.08
1028.89	2095.07
1029.05	2236.38
1029.20	2125.79
>>>>>End Processed Spectral Data<<<<<
