SpectraSuite Data File
++++++++++++++++++++++++++++++++++++
Date: Fri Jun 02 14:47:59 CEST 2017
User: INFO_000
Dark Spectrum Present: No
Reference Spectrum Present: No
Number of Sampled Component Spectra: 1
Spectrometers: USB4H00879
Integration Time (usec): 80000 (USB4H00879)
Spectra Averaged: 1 (USB4H00879)
Boxcar Smoothing: 0 (USB4H00879)
Correct for Electrical Dark: No (USB4H00879)
Strobe/Lamp Enabled: No (USB4H00879)
Correct for Detector Non-linearity: No (USB4H00879)
Correct for Stray Light: No (USB4H00879)
Number of Pixels in Processed Spectrum: 3648
>>>>>Begin Processed Spectral Data<<<<<
345.13	1306.60
345.34	1306.60
345.56	1306.60
345.78	1286.12
345.99	1271.79
346.21	1703.91
346.42	1720.29
346.64	1689.57
346.86	1779.68
347.07	1632.23
347.29	1701.86
347.50	1589.22
347.72	1675.24
347.94	1761.25
348.15	1556.46
348.37	1640.42
348.59	1675.24
348.80	1667.05
349.02	1808.36
349.23	1839.08
349.45	1830.88
349.67	1812.45
349.88	1847.27
350.10	1935.33
350.31	1923.04
350.53	1810.40
350.75	2047.97
350.96	1814.50
351.18	1834.98
351.39	1902.56
351.61	1834.98
351.82	1863.65
352.04	1908.71
352.26	1918.95
352.47	1873.89
352.69	1920.99
352.90	1759.21
353.12	1851.36
353.34	1787.88
353.55	1978.34
353.77	1906.66
353.98	1816.55
354.20	1855.46
354.41	1847.27
354.63	1996.77
354.85	2019.30
355.06	1855.46
355.28	1714.15
355.49	1908.71
355.71	1929.19
355.92	1847.27
356.14	1957.86
356.35	1880.04
356.57	1869.80
356.79	1918.95
357.00	1890.28
357.22	1908.71
357.43	1830.88
357.65	1955.81
357.86	1869.80
358.08	1912.80
358.29	1939.43
358.51	1968.10
358.72	1980.39
358.94	1916.90
359.16	1931.23
359.37	1916.90
359.59	1980.39
359.80	2052.06
360.02	1931.23
360.23	1849.32
360.45	1933.28
360.66	1886.18
360.88	1882.08
361.09	1964.00
361.31	2019.30
361.52	1916.90
361.74	2105.31
361.95	2058.21
362.17	2029.54
362.38	2099.17
362.60	2027.49
362.81	1955.81
363.03	2009.06
363.24	2033.63
363.46	2031.58
363.67	2060.26
363.89	1935.33
364.10	2004.96
364.32	1998.82
364.53	2076.64
364.75	1896.42
364.96	2056.16
365.18	2052.06
365.39	2078.69
365.61	1970.15
365.82	2072.54
366.04	2015.20
366.25	1982.43
366.47	2133.98
366.68	2066.40
366.90	2007.01
367.11	2043.87
367.33	2060.26
367.54	2056.16
367.76	2002.91
367.97	2150.37
368.19	1994.72
368.40	2052.06
368.62	1990.63
368.83	1970.15
369.05	2039.78
369.26	2064.35
369.48	1974.24
369.69	2047.97
369.91	2078.69
370.12	2029.54
370.33	2090.98
370.55	1929.19
370.76	2084.83
370.98	2136.03
371.19	2052.06
371.41	1953.76
371.62	1955.81
371.84	2066.40
372.05	2166.75
372.27	2099.17
372.48	2115.55
372.69	1943.52
372.91	2166.75
373.12	2138.08
373.34	2133.98
373.55	2107.36
373.77	2164.70
373.98	2086.88
374.20	2109.41
374.41	2250.72
374.62	2117.60
374.84	2160.61
375.05	2117.60
375.27	2093.02
375.48	2187.23
375.70	2193.37
375.91	2312.16
376.12	2346.97
376.34	2160.61
376.55	2207.71
376.77	2207.71
376.98	2133.98
377.19	2107.36
377.41	2166.75
377.62	2271.20
377.84	2224.09
378.05	2234.33
378.27	2236.38
378.48	2342.88
378.69	2396.12
378.91	2316.25
379.12	2316.25
379.34	2232.29
379.55	2328.54
379.76	2273.25
379.98	2279.39
380.19	2314.20
380.41	2246.62
380.62	2283.49
380.83	2289.63
381.05	2211.81
381.26	2383.84
381.47	2133.98
381.69	2297.82
381.90	2359.26
382.12	2267.10
382.33	2252.77
382.54	2330.59
382.76	2297.82
382.97	2328.54
383.19	2275.29
383.40	2322.40
383.61	2217.95
383.83	2248.67
384.04	2406.36
384.25	2338.78
384.47	2336.73
384.68	2387.93
384.89	2277.34
385.11	2310.11
385.32	2361.31
385.54	2324.44
385.75	2324.44
385.96	2412.51
386.18	2359.26
386.39	2338.78
386.60	2473.95
386.82	2424.80
387.03	2383.84
387.24	2480.09
387.46	2383.84
387.67	2428.89
387.88	2519.00
388.10	2478.04
388.31	2424.80
388.52	2512.86
388.74	2486.23
388.95	2559.96
389.16	2453.47
389.38	2529.24
389.59	2570.20
389.80	2574.30
390.02	2617.30
390.23	2607.06
390.44	2619.35
390.66	2537.43
390.87	2549.72
391.08	2629.59
391.30	2654.17
391.51	2621.40
391.72	2602.97
391.94	2678.74
392.15	2553.82
392.36	2629.59
392.58	2633.69
392.79	2617.30
393.00	2695.13
393.22	2666.46
393.43	2670.55
393.64	2766.81
393.85	2793.43
394.07	2670.55
394.28	2639.83
394.49	2711.51
394.71	2742.23
394.92	2815.96
395.13	2721.75
395.35	2785.24
395.56	2721.75
395.77	2799.57
395.98	2850.77
396.20	2752.47
396.41	2787.29
396.62	2922.45
396.84	2807.77
397.05	2785.24
397.26	2852.82
397.47	2912.21
397.69	2838.48
397.90	2936.79
398.11	2865.11
398.32	2850.77
398.54	2924.50
398.75	2920.40
398.96	2940.88
399.18	3094.48
399.39	2953.17
399.60	3065.81
399.81	2967.51
400.03	2891.73
400.24	3219.41
400.45	2953.17
400.66	2963.41
400.88	3018.71
401.09	3117.01
401.30	3065.81
401.51	3033.04
401.73	2967.51
401.94	3084.24
402.15	3133.39
402.36	3164.11
402.58	3108.82
402.79	3106.77
403.00	3100.62
403.21	3162.06
403.43	3307.47
403.64	3289.04
403.85	3110.86
404.06	3229.65
404.27	3004.37
404.49	3190.74
404.70	3182.54
404.91	3190.74
405.12	3182.54
405.34	3336.14
405.55	3399.63
405.76	3135.44
405.97	3147.73
406.19	3319.76
406.40	3131.34
406.61	3289.04
406.82	3332.05
407.03	3334.09
407.25	3317.71
407.46	3319.76
407.67	3446.73
407.88	3325.90
408.09	3377.10
408.31	3307.47
408.52	3436.49
408.73	3350.48
408.94	3354.57
409.15	3403.72
409.37	3536.84
409.58	3469.26
409.79	3385.29
410.00	3549.13
410.21	3418.06
410.43	3450.83
410.64	3481.55
410.85	3567.56
411.06	3536.84
411.27	3497.93
411.48	3739.59
411.70	3502.03
411.91	3559.37
412.12	3614.66
412.33	3608.52
412.54	3549.13
412.76	3737.54
412.97	3674.06
413.18	3536.84
413.39	3620.81
413.60	3704.78
413.81	3696.58
414.03	3678.15
414.24	3571.66
414.45	3786.69
414.66	3604.42
414.87	3669.96
415.08	3758.02
415.30	3672.01
415.51	3774.41
415.72	3710.92
415.93	3747.78
416.14	3753.93
416.35	3641.29
416.56	3815.37
416.78	3739.59
416.99	3833.80
417.20	3893.19
417.41	3891.14
417.62	3909.57
417.83	3991.49
418.04	3854.28
418.26	3878.85
418.47	3989.44
418.68	3934.15
418.89	4022.21
419.10	4147.14
419.31	3905.48
419.52	4073.41
419.73	4020.16
419.95	4222.91
420.16	3975.11
420.37	4018.11
420.58	3944.39
420.79	3944.39
421.00	4011.97
421.21	4063.17
421.42	4077.51
421.63	4239.30
421.85	4212.67
422.06	4155.33
422.27	4218.82
422.48	4253.63
422.69	4284.35
422.90	4327.36
423.11	4267.97
423.32	4313.02
423.53	4495.29
423.75	4315.07
423.96	4519.87
424.17	4276.16
424.38	4614.07
424.59	4372.41
424.80	4534.20
425.01	4349.89
425.22	4364.22
425.43	4396.99
425.64	4671.42
425.85	4628.41
426.06	4554.68
426.28	4550.59
426.49	4583.35
426.70	4569.02
426.91	4628.41
427.12	4618.17
427.33	4626.36
427.54	4634.55
427.75	4671.42
427.96	4685.75
428.17	4679.61
428.38	4759.48
428.59	4868.02
428.80	4712.38
429.01	4743.10
429.23	4876.21
429.44	4964.28
429.65	4911.03
429.86	4923.32
430.07	4857.78
430.28	4655.03
430.49	4880.31
430.70	5048.24
430.91	5107.63
431.12	4851.64
431.33	5056.43
431.54	5226.42
431.75	4999.09
431.96	5136.31
432.17	5072.82
432.38	5046.20
432.59	5244.85
432.80	5062.58
433.01	5124.02
433.22	5220.27
433.43	5308.34
433.64	5179.31
433.85	5177.26
434.06	5242.80
434.27	5246.90
434.49	5343.15
434.70	5490.60
434.91	5296.05
435.12	5294.00
435.33	5435.31
435.54	5502.89
435.75	5234.61
435.96	5382.06
436.17	5345.20
436.38	5654.44
436.59	5287.86
436.80	5472.17
437.01	5777.32
437.22	5742.50
437.43	5711.78
437.64	5435.31
437.85	5650.35
438.06	5769.13
438.27	5611.43
438.48	5638.06
438.69	5670.83
438.90	5875.62
439.11	5676.97
439.32	5832.62
439.53	5750.70
439.74	5894.05
439.95	5869.48
440.16	5750.70
440.37	5779.37
440.57	5730.22
440.78	5857.19
440.99	5955.49
441.20	5910.44
441.41	5949.35
441.62	5937.06
441.83	5836.71
442.04	6008.74
442.25	6051.75
442.46	5928.87
442.67	6010.79
442.88	6539.16
443.09	5941.16
443.30	5955.49
443.51	6240.16
443.72	6471.58
443.93	6006.69
444.14	6350.75
444.35	6096.80
444.56	6401.95
444.77	6354.85
444.98	6348.70
445.19	6408.09
445.40	6385.57
445.61	6414.24
445.81	6469.53
446.02	6418.33
446.23	6373.28
446.44	6424.48
446.65	6465.44
446.86	6539.16
447.07	6596.51
447.28	6569.88
447.49	6836.12
447.70	6549.40
447.91	6565.79
448.12	6692.76
448.33	6739.87
448.54	6846.36
448.74	6559.64
448.95	6836.12
449.16	6672.28
449.37	6932.37
449.58	6764.44
449.79	7036.82
450.00	6829.98
450.21	7024.53
450.42	7069.59
450.63	7028.63
450.84	6993.81
451.05	7036.82
451.25	7049.11
451.46	6977.43
451.67	7167.89
451.88	7171.99
452.09	7206.80
452.30	7206.80
452.51	7346.06
452.72	7313.30
452.93	7620.49
453.13	7178.13
453.34	7249.81
453.55	7391.12
453.76	7344.02
453.97	7604.11
454.18	7491.47
454.39	7630.73
454.60	7638.92
454.81	7516.05
455.01	7792.52
455.22	7393.17
455.43	7647.12
455.64	7911.30
455.85	7794.57
456.06	7911.30
456.27	7917.45
456.48	7663.50
456.68	7982.98
456.89	7995.27
457.10	7917.45
457.31	7962.50
457.52	8025.99
457.73	8071.04
457.94	8337.28
458.14	7858.06
458.35	8355.71
458.56	8226.69
458.77	8247.17
458.98	8384.38
459.19	8284.03
459.39	8320.90
459.60	8408.96
459.81	8347.52
460.02	8667.00
460.23	8613.76
460.44	8705.92
460.65	8667.00
460.85	8769.40
461.06	8695.68
461.27	8519.55
461.48	8851.32
461.69	9049.97
461.89	8673.15
462.10	9031.54
462.31	8742.78
462.52	8712.06
462.73	8935.29
462.94	9193.33
463.14	8908.66
463.35	9103.22
463.56	9428.85
463.77	9461.62
463.98	9117.56
464.18	9176.95
464.39	9465.71
464.60	9471.86
464.81	9428.85
465.02	9492.34
465.23	9793.39
465.43	9510.77
465.64	9799.53
465.85	9719.66
466.06	9660.27
466.27	9867.11
466.47	9932.65
466.68	9996.14
466.89	9740.14
467.10	9852.78
467.30	9711.47
467.51	10030.95
467.72	10311.52
467.93	9989.99
468.14	10364.77
468.34	10313.57
468.55	10532.70
468.76	10557.28
468.97	10233.70
469.17	10514.27
469.38	10590.05
469.59	10782.56
469.80	10635.10
470.01	10678.11
470.21	10635.10
470.42	11054.94
470.63	10964.82
470.84	10780.51
471.04	11259.73
471.25	11128.66
471.46	11075.42
471.67	11491.15
471.87	11167.57
472.08	11257.68
472.29	11698.00
472.50	11335.51
472.70	11398.99
472.91	11673.42
473.12	11716.43
473.33	11681.61
473.53	12027.72
473.74	11833.16
473.95	12107.59
474.16	12085.06
474.36	12390.21
474.57	12320.58
474.78	12447.55
474.99	12382.02
475.19	12261.19
475.40	12689.21
475.61	12715.84
475.81	12947.26
476.02	13010.75
476.23	12906.30
476.44	12871.48
476.64	13233.97
476.85	13109.05
477.06	13215.54
477.27	13489.97
477.47	13414.20
477.68	13569.84
477.89	13584.18
478.09	13707.05
478.30	13780.78
478.51	13780.78
478.71	14065.45
478.92	14116.65
479.13	14147.37
479.34	14409.51
479.54	14458.66
479.75	14333.73
479.96	14436.13
480.16	14645.02
480.37	14583.59
480.58	14661.41
480.78	15107.87
480.99	15013.66
481.20	15111.96
481.41	15183.64
481.61	15314.71
481.82	15626.00
482.03	15400.72
482.23	15398.68
482.44	15779.60
482.65	15759.12
482.85	15941.39
483.06	15771.41
483.27	15986.44
483.47	15947.53
483.68	16154.38
483.89	16320.26
484.09	16264.97
484.30	16363.27
484.51	16508.68
484.71	16674.56
484.92	16563.97
485.13	16701.19
485.33	16936.70
485.54	16840.45
485.75	17247.99
485.95	17395.45
486.16	17342.20
486.37	17225.47
486.57	17295.10
486.78	17420.02
486.98	17647.35
487.19	17764.08
487.40	18034.41
487.60	17796.85
487.81	18327.27
488.02	18040.56
488.22	18175.72
488.43	18478.82
488.64	18462.44
488.84	18654.95
489.05	18552.55
489.25	18646.76
489.46	18792.16
489.67	18906.85
489.87	18941.66
490.08	19046.11
490.29	19197.66
490.49	19396.31
490.70	19429.08
490.90	19732.18
491.11	19338.97
491.32	19805.91
491.52	19685.08
491.73	19891.92
491.94	19869.39
492.14	19932.88
492.35	20154.06
492.55	20342.47
492.76	20117.20
492.97	20494.02
493.17	20633.29
493.38	20766.40
493.58	20680.39
493.79	20897.47
494.00	20784.83
494.20	21044.93
494.41	20956.86
494.61	21161.66
494.82	21638.84
495.02	21333.69
495.23	21595.83
495.44	21524.15
495.64	21628.60
495.85	21794.48
496.05	21698.23
496.26	21692.08
496.47	21964.46
496.67	21900.98
496.88	22048.43
497.08	21696.18
497.29	22341.29
497.49	22394.54
497.70	22464.17
497.91	22587.05
498.11	22470.31
498.32	22812.32
498.52	22382.25
498.73	22810.28
498.93	23076.51
499.14	22992.55
499.34	23482.01
499.55	22998.69
499.76	23056.03
499.96	23271.07
500.17	23348.89
500.37	23111.33
500.58	23594.65
500.78	23455.39
500.99	23641.75
501.19	23615.13
501.40	23887.51
501.60	23520.92
501.81	23764.63
502.02	24317.58
502.22	23811.73
502.43	23953.04
502.63	24125.07
502.84	24462.99
503.04	24264.33
503.25	24309.39
503.45	24446.60
503.66	24450.70
503.86	24510.09
504.07	24841.86
504.27	24419.98
504.48	25050.75
504.68	24768.13
504.89	24888.96
505.09	24747.65
505.30	25028.23
505.50	25054.85
505.71	25323.13
505.91	25470.59
506.12	25364.09
506.32	25273.98
506.53	25255.55
506.73	25030.27
506.94	25288.32
507.14	25489.02
507.35	25726.58
507.55	25425.53
507.76	25585.27
507.96	25962.10
508.17	25871.99
508.37	25669.24
508.58	25542.27
508.78	25958.00
508.99	26037.87
509.19	25724.54
509.40	26222.19
509.60	26197.62
509.81	26392.17
510.01	26127.99
510.22	26214.00
510.42	26273.39
510.63	26101.36
510.83	26101.36
511.04	26347.12
511.24	26607.21
511.44	26191.47
511.65	26766.95
511.85	26242.67
512.06	26523.24
512.26	26721.90
512.47	26885.73
512.67	26658.41
512.88	26558.06
513.08	26443.37
513.29	27053.67
513.49	26932.84
513.69	26814.05
513.90	26775.14
514.10	27129.44
514.31	27111.01
514.51	27135.59
514.72	27059.81
514.92	27295.33
515.13	27047.52
515.33	27010.66
515.53	26920.55
515.74	27301.47
515.94	27291.23
516.15	27526.75
516.35	27395.68
516.56	27899.48
516.76	27309.66
516.96	27778.65
517.17	27987.54
517.37	27991.64
517.58	27639.39
517.78	27508.32
517.99	28096.08
518.19	28149.33
518.39	27887.19
518.60	28292.69
518.80	27934.29
519.01	28227.15
519.21	28155.47
519.41	28214.87
519.62	28341.84
519.82	28560.97
520.03	28636.75
520.23	28563.02
520.43	28132.95
520.64	29058.63
520.84	29091.40
521.05	28997.19
521.25	28984.90
521.45	28984.90
521.66	29187.65
521.86	28894.79
522.07	29115.97
522.27	29044.29
522.47	29197.89
522.68	29681.21
522.88	29572.67
523.08	29728.31
523.29	29584.96
523.49	29533.76
523.70	29728.31
523.90	29980.21
524.10	29814.33
524.31	29879.86
524.51	29593.15
524.71	30373.42
524.92	29926.97
525.12	30504.49
525.33	30422.58
525.53	30643.76
525.73	30318.13
525.94	30703.15
526.14	30660.14
526.34	30711.34
526.55	30574.13
526.75	31137.32
526.95	31039.01
527.16	30942.76
527.36	30985.77
527.56	31241.76
527.77	31344.16
527.97	31260.20
528.17	31798.81
528.38	31772.19
528.58	31530.53
528.78	31546.91
528.99	31852.06
529.19	31915.54
529.39	31725.08
529.60	32142.87
529.80	31905.31
530.00	31940.12
530.21	32523.79
530.41	32661.01
530.61	32439.82
530.82	32644.62
531.02	32636.43
531.22	32878.09
531.43	32562.70
531.63	32873.99
531.83	33037.83
532.04	33402.37
532.24	33013.26
532.44	33734.14
532.64	33965.56
532.85	33902.07
533.05	33551.87
533.25	33529.34
533.46	33891.83
533.66	34119.16
533.86	34024.95
534.07	34792.94
534.27	34326.00
534.47	34426.35
534.67	34561.52
534.88	34559.47
535.08	34633.20
535.28	35206.63
535.49	34983.40
535.69	35274.21
535.89	35149.29
536.09	35243.49
536.30	35622.37
536.50	35720.67
536.70	35792.35
536.91	35466.72
537.11	35614.18
537.31	35694.05
537.51	35841.50
537.72	36558.29
537.92	36197.85
538.12	36898.25
538.32	36335.06
538.53	36238.81
538.73	36357.59
538.93	36797.90
539.13	36707.79
539.34	36384.21
539.54	36744.66
539.74	36898.25
539.94	37180.87
540.15	37139.91
540.35	37434.82
540.55	37463.49
540.75	37248.46
540.96	37672.39
541.16	37475.78
541.36	37375.43
541.56	37733.82
541.77	38129.08
541.97	38063.55
542.17	38127.03
542.37	38403.51
542.58	38196.67
542.78	38282.68
542.98	38004.16
543.18	38354.36
543.38	39001.52
543.59	38745.52
543.79	39009.71
543.99	38704.56
544.19	38630.83
544.40	38944.17
544.60	39054.76
544.80	39253.42
545.00	38983.09
545.20	39595.43
545.41	38856.11
545.61	39277.99
545.81	39650.72
546.01	39697.83
546.21	39140.78
546.42	39558.56
546.62	39839.14
546.82	39826.85
547.02	39490.98
547.22	39947.68
547.43	39511.46
547.63	40078.75
547.83	40168.86
548.03	39970.21
548.23	40478.10
548.44	40461.72
548.64	40560.02
548.84	40252.83
549.04	40396.18
549.24	40852.88
549.45	40627.60
549.65	40637.84
549.85	40340.89
550.05	41153.93
550.25	41153.93
550.45	41205.13
550.66	40586.64
550.86	41209.23
551.06	41379.21
551.26	41086.35
551.46	41317.77
551.66	41371.02
551.87	41518.47
552.07	41549.19
552.27	41633.16
552.47	41575.81
552.67	41481.61
552.87	41436.55
553.07	41796.99
553.28	41743.75
553.48	41618.82
553.68	41469.32
553.88	41762.18
554.08	41932.16
554.28	42030.46
554.48	41948.54
554.69	41903.49
554.89	42245.50
555.09	41792.90
555.29	41883.01
555.49	42546.55
555.69	42214.78
555.89	42032.51
556.10	42507.64
556.30	42149.24
556.50	42655.09
556.70	42302.84
556.90	42528.12
557.10	42835.31
557.30	42290.55
557.50	42648.95
557.70	42696.05
557.91	42714.48
558.11	42665.33
558.31	42753.40
558.51	42759.54
558.71	42628.47
558.91	43308.40
559.11	42677.62
559.31	42974.58
559.51	43093.36
559.72	43095.41
559.92	43191.66
560.12	42837.36
560.32	43341.16
560.52	42804.59
560.72	43261.29
560.92	42954.10
561.12	42947.95
561.32	43353.45
561.52	42882.42
561.72	43521.38
561.93	42919.28
562.13	43341.16
562.33	43429.23
562.53	43369.83
562.73	43185.52
562.93	43165.04
563.13	43326.83
563.33	43171.18
563.53	43261.29
563.73	43197.80
563.93	43591.01
564.13	43654.50
564.33	43701.61
564.53	43789.67
564.74	43689.32
564.94	42988.91
565.14	43918.69
565.34	43218.28
565.54	43717.99
565.74	43750.76
565.94	44211.55
566.14	43666.79
566.34	44098.91
566.54	44162.40
566.74	43873.63
566.94	44346.72
567.14	44279.13
567.34	43769.19
567.54	44027.23
567.74	43871.59
567.94	43918.69
568.14	44348.76
568.34	44051.81
568.54	44283.23
568.74	44000.61
568.94	44049.76
569.14	44107.10
569.34	44303.71
569.54	44631.38
569.75	43967.84
569.95	44103.01
570.15	44496.22
570.35	44348.76
570.55	44457.31
570.75	44113.25
570.95	44496.22
571.15	44705.11
571.35	44588.38
571.55	44936.53
571.75	44631.38
571.95	44944.72
572.15	44508.50
572.35	44731.73
572.55	44639.57
572.75	44705.11
572.95	44832.08
573.15	44844.37
573.35	44639.57
573.55	44508.50
573.75	44469.59
573.95	44881.24
574.15	44758.36
574.35	45065.55
574.55	44748.12
574.75	44789.08
574.95	45176.14
575.15	44670.29
575.34	44715.35
575.54	44873.04
575.74	45198.67
575.94	45174.09
576.14	45190.48
576.34	45327.69
576.54	44926.29
576.74	45268.30
576.94	45034.83
577.14	45614.41
577.34	45804.87
577.54	45436.23
577.74	45749.57
577.94	45368.65
578.14	45751.62
578.34	45684.04
578.54	45331.79
578.74	45299.02
578.94	46325.05
579.14	45421.90
579.34	45772.10
579.54	46298.43
579.74	46019.91
579.94	45911.36
580.13	46261.57
580.33	46286.14
580.53	46118.21
580.73	46241.09
580.93	45841.73
581.13	45974.85
581.33	46402.88
581.53	46503.23
581.73	46533.95
581.93	46912.82
582.13	46953.78
582.33	46603.58
582.53	46339.39
582.73	46947.64
582.92	46687.54
583.12	46542.14
583.32	46636.34
583.52	46468.41
583.72	46947.64
583.92	46882.10
584.12	46826.81
584.32	47134.00
584.52	47226.16
584.72	47166.77
584.92	47076.66
585.11	47861.03
585.31	47373.61
585.51	47293.74
585.71	47144.24
585.91	47719.72
586.11	47527.21
586.31	47588.65
586.51	47232.30
586.71	47873.32
586.91	47858.98
587.10	47701.29
587.30	47527.21
587.50	48006.44
587.70	48131.36
587.90	47912.23
588.10	47994.15
588.30	47850.79
588.50	48278.82
588.69	47938.85
588.89	48469.28
589.09	48217.38
589.29	48332.06
589.49	48760.09
589.69	48368.93
589.89	48784.66
590.08	48518.43
590.28	48387.36
590.48	48796.95
590.68	49042.71
590.88	48399.65
591.08	48702.74
591.28	48776.47
591.47	49069.33
591.67	48727.32
591.87	48751.90
592.07	49186.07
592.27	48893.21
592.47	49521.93
592.67	48878.87
592.86	48960.79
593.06	49136.91
593.26	49433.87
593.46	49394.96
593.66	49708.30
593.86	49767.69
594.05	49659.15
594.25	50232.58
594.45	49065.24
594.65	49700.11
594.85	49896.71
595.05	50019.59
595.24	50023.68
595.44	49952.01
595.64	49945.86
595.84	50154.75
596.04	50402.56
596.23	50220.29
596.43	50593.02
596.63	50167.04
596.83	50545.92
597.03	50646.27
597.22	50982.13
597.42	50476.29
597.62	50787.58
597.82	50945.27
598.02	50545.92
598.21	51229.94
598.41	50476.29
598.61	50685.18
598.81	50992.37
599.01	51039.48
599.20	50953.46
599.40	50906.36
599.60	51270.90
599.80	51021.05
600.00	51381.49
600.19	51504.37
600.39	50898.17
600.59	51670.25
600.79	51928.30
600.98	51596.52
601.18	52196.58
601.38	52204.77
601.58	52145.38
601.78	52098.28
601.97	51973.35
602.17	52389.09
602.37	52210.92
602.57	52131.04
602.76	52466.91
602.96	51993.83
603.16	52880.60
603.36	52577.50
603.55	52901.08
603.75	52714.72
603.95	52845.79
604.15	53019.86
604.34	52770.01
604.54	53069.01
604.74	53195.99
604.94	53365.97
605.13	53679.31
605.33	53341.39
605.53	53392.59
605.73	53265.62
605.92	53322.96
606.12	53122.26
606.32	53728.46
606.52	53466.32
606.71	53490.90
606.91	53753.04
607.11	53273.81
607.30	54009.03
607.50	53777.61
607.70	53738.70
607.90	53837.00
608.09	53607.63
608.29	53662.93
608.49	54174.92
608.68	53998.79
608.88	53904.59
609.08	54047.94
609.28	54232.26
609.47	53923.02
609.67	54838.46
609.87	54375.62
610.06	54590.66
610.26	54670.53
610.46	54588.61
610.66	54527.17
610.85	55065.78
611.05	54275.27
611.25	54615.23
611.44	54377.67
611.64	54551.74
611.84	54789.31
612.03	54564.03
612.23	54797.50
612.43	54713.53
612.62	54838.46
612.82	55223.48
613.02	54797.50
613.21	54770.88
613.41	54551.74
613.61	55235.77
613.80	54752.44
614.00	55239.86
614.20	54883.51
614.39	54834.36
614.59	55272.63
614.79	55065.78
614.98	55053.50
615.18	55114.94
615.38	55391.41
615.57	54619.33
615.77	55229.62
615.97	55067.83
616.16	54887.61
616.36	55532.72
616.56	55694.51
616.75	55538.86
616.95	55080.12
617.15	55022.78
617.34	54817.98
617.54	55157.94
617.74	55792.81
617.93	55772.33
618.13	55403.70
618.32	55268.53
618.52	55289.01
618.72	55241.91
618.91	55430.32
619.11	55473.33
619.31	55581.87
619.50	55002.30
619.70	55059.64
619.90	55768.24
620.09	55067.83
620.29	55475.38
620.48	55473.33
620.68	55985.32
620.88	54949.05
621.07	55522.48
621.27	55418.03
621.46	55209.14
621.66	55467.19
621.86	55264.44
622.05	55284.92
622.25	55573.68
622.44	55526.58
622.64	55139.51
622.84	55360.69
623.03	55010.49
623.23	55391.41
623.42	55035.06
623.62	55262.39
623.82	55719.09
624.01	55362.74
624.21	55581.87
624.40	55399.60
624.60	55633.07
624.80	55102.65
624.99	55227.57
625.19	54910.14
625.38	55319.73
625.58	55184.57
625.77	55524.53
625.97	55313.59
626.17	55119.03
626.36	55073.98
626.56	55387.31
626.75	55084.22
626.95	55313.59
627.14	55227.57
627.34	55876.78
627.54	54836.41
627.73	55123.13
627.93	55235.77
628.12	54772.92
628.32	55133.37
628.51	55116.98
628.71	54983.86
628.90	55284.92
629.10	55127.22
629.30	55321.78
629.49	55039.16
629.69	54779.07
629.88	55035.06
630.08	55246.00
630.27	55583.92
630.47	55194.81
630.66	55194.81
630.86	55383.22
631.05	55045.30
631.25	55219.38
631.44	55047.35
631.64	55215.29
631.84	55119.03
632.03	55438.51
632.23	55264.44
632.42	55176.37
632.62	54975.67
632.81	54660.29
633.01	54836.41
633.20	55360.69
633.40	55116.98
633.59	54938.81
633.79	55383.22
633.98	55266.48
634.18	55737.52
634.37	54748.35
634.57	55645.36
634.76	55493.81
634.96	54865.08
635.15	54977.72
635.35	54899.90
635.54	55010.49
635.74	55415.99
635.93	54910.14
636.13	55194.81
636.32	55129.27
636.52	54559.94
636.71	54699.20
636.91	54731.96
637.10	55170.23
637.30	54912.19
637.49	54963.39
637.69	55080.12
637.88	54873.27
638.08	54625.47
638.27	55121.08
638.46	54903.99
638.66	54877.37
638.85	54918.33
639.05	55196.85
639.24	55342.26
639.44	54901.95
639.63	54893.75
639.83	54885.56
640.02	54826.17
640.22	55098.55
640.41	55360.69
640.61	54975.67
640.80	55415.99
640.99	54559.94
641.19	55033.02
641.38	55186.61
641.58	54928.57
641.77	54615.23
641.97	54914.23
642.16	54801.60
642.36	55162.04
642.55	55452.85
642.74	54576.32
642.94	55461.04
643.13	54762.68
643.33	55375.03
643.52	55135.41
643.72	55168.18
643.91	55090.36
644.10	55303.35
644.30	55606.45
644.49	54908.09
644.69	54785.21
644.88	55289.01
645.08	55385.27
645.27	55315.64
645.46	54609.09
645.66	55241.91
645.85	54510.78
646.05	55311.54
646.24	55129.27
646.43	55045.30
646.63	55039.16
646.82	55246.00
647.02	54940.86
647.21	55319.73
647.40	55020.73
647.60	55026.87
647.79	55235.77
647.99	55336.12
648.18	55026.87
648.37	55260.34
648.57	55266.48
648.76	55186.61
648.96	55121.08
649.15	55467.19
649.34	55553.20
649.54	55252.15
649.73	54918.33
649.92	55563.44
650.12	55098.55
650.31	55190.71
650.51	55168.18
650.70	55178.42
650.89	55407.79
651.09	55520.43
651.28	55377.08
651.47	55522.48
651.67	55415.99
651.86	55758.00
652.06	54707.39
652.25	55477.43
652.44	55403.70
652.64	55383.22
652.83	55151.80
653.02	55293.11
653.22	55461.04
653.41	54928.57
653.60	55123.13
653.80	55293.11
653.99	55389.36
654.18	54983.86
654.38	55002.30
654.57	55375.03
654.76	55420.08
654.96	55276.72
655.15	55092.41
655.34	55334.07
655.54	54832.32
655.73	55305.40
655.92	55774.38
656.12	55133.37
656.31	55219.38
656.50	55098.55
656.70	55112.89
656.89	54797.50
657.08	55514.29
657.28	54963.39
657.47	54990.01
657.66	55387.31
657.86	55377.08
658.05	55155.89
658.24	55284.92
658.43	55385.27
658.63	55622.83
658.82	55649.45
659.01	55119.03
659.21	55674.03
659.40	55284.92
659.59	55305.40
659.79	55319.73
659.98	55346.36
660.17	55553.20
660.36	55442.61
660.56	55401.65
660.75	55725.23
660.94	55536.82
661.14	55592.11
661.33	55002.30
661.52	54695.10
661.71	55520.43
661.91	55317.68
662.10	55426.23
662.29	55788.72
662.49	55547.06
662.68	55379.12
662.87	55268.53
663.06	55770.28
663.26	55471.28
663.45	55936.17
663.64	55571.63
663.83	55907.50
664.03	55671.98
664.22	55315.64
664.41	55047.35
664.60	55506.10
664.80	55745.71
664.99	55571.63
665.18	55489.71
665.37	55485.62
665.57	55669.93
665.76	55385.27
665.95	55528.62
666.14	55303.35
666.34	55352.50
666.53	55207.09
666.72	55680.17
666.91	55940.27
667.11	55393.46
667.30	55844.01
667.49	55536.82
667.68	55391.41
667.87	55680.17
668.07	55678.13
668.26	55518.38
668.45	55645.36
668.64	55739.57
668.84	55954.60
669.03	55911.59
669.22	55248.05
669.41	56122.54
669.60	55583.92
669.80	55733.42
669.99	55690.41
670.18	56018.09
670.37	55954.60
670.57	56001.71
670.76	55233.72
670.95	55901.36
671.14	55809.20
671.33	55428.27
671.53	56122.54
671.72	55688.37
671.91	55534.77
672.10	55471.28
672.29	55934.12
672.48	55592.11
672.68	55837.87
672.87	55725.23
673.06	55432.37
673.25	55649.45
673.44	55205.05
673.64	55438.51
673.83	55422.13
674.02	55616.69
674.21	55366.84
674.40	55817.39
674.59	55653.55
674.79	55526.58
674.98	55874.73
675.17	55522.48
675.36	55604.40
675.55	55977.13
675.74	55598.26
675.94	55583.92
676.13	55680.17
676.32	55823.53
676.51	56097.96
676.70	55844.01
676.89	55420.08
677.08	56276.13
677.28	55545.01
677.47	56095.91
677.66	56114.34
677.85	56104.10
678.04	56491.17
678.23	55989.42
678.42	56476.83
678.62	55803.05
678.81	56138.92
679.00	55729.33
679.19	56269.99
679.38	55895.21
679.57	55970.99
679.76	55520.43
679.96	56022.19
680.15	56145.06
680.34	56083.62
680.53	55696.56
680.72	56100.01
680.91	56202.41
681.10	55778.48
681.29	56104.10
681.48	55887.02
681.68	55927.98
681.87	56097.96
682.06	55942.31
682.25	55538.86
682.44	55993.51
682.63	55956.65
682.82	55729.33
683.01	55831.72
683.20	55485.62
683.39	55862.44
683.59	55524.53
683.78	55608.50
683.97	55639.22
684.16	55811.24
684.35	55866.54
684.54	55907.50
684.73	55936.17
684.92	55882.92
685.11	55958.70
685.30	56009.90
685.49	55944.36
685.69	56065.19
685.88	56007.85
686.07	55913.64
686.26	55962.79
686.45	55768.24
686.64	55475.38
686.83	55841.96
687.02	55807.15
687.21	56317.09
687.40	56081.58
687.59	55628.98
687.78	55538.86
687.97	55852.20
688.16	55874.73
688.35	55293.11
688.54	56005.80
688.74	55411.89
688.93	55686.32
689.12	55631.02
689.31	56085.67
689.50	55854.25
689.69	55583.92
689.88	55178.42
690.07	55536.82
690.26	55411.89
690.45	56140.97
690.64	55385.27
690.83	55579.82
691.02	55499.95
691.21	55227.57
691.40	55563.44
691.59	55452.85
691.78	55203.00
691.97	55751.85
692.16	55278.77
692.35	55573.68
692.54	55753.90
692.73	55612.59
692.92	55751.85
693.11	55557.30
693.30	55295.16
693.49	55530.67
693.68	55463.09
693.87	55444.66
694.06	55489.71
694.25	55338.16
694.44	55137.46
694.63	55198.90
694.82	55450.80
695.01	55209.14
695.20	55198.90
695.39	55538.86
695.58	55094.46
695.77	54727.87
695.96	54916.28
696.15	55207.09
696.34	54850.75
696.53	55549.10
696.72	55407.79
696.91	54566.08
697.10	54990.01
697.29	55338.16
697.48	55690.41
697.67	54834.36
697.86	54842.56
698.05	54619.33
698.24	55506.10
698.43	54926.52
698.62	55114.94
698.81	55010.49
699.00	55219.38
699.19	54142.15
699.38	55096.50
699.57	54516.93
699.76	55413.94
699.95	54369.47
700.14	54482.11
700.32	54490.30
700.51	54592.70
700.70	54985.91
700.89	54713.53
701.08	54361.28
701.27	54500.54
701.46	54887.61
701.65	53773.52
701.84	54576.32
702.03	54799.55
702.22	53892.30
702.41	54699.20
702.60	54674.62
702.79	54383.81
702.98	54279.36
703.17	54510.78
703.35	54039.75
703.54	54185.16
703.73	54371.52
703.92	54303.94
704.11	54539.46
704.30	54011.08
704.49	54705.34
704.68	53757.13
704.87	54678.72
705.06	54275.27
705.25	53687.50
705.43	53859.53
705.62	54336.71
705.81	54039.75
706.00	53863.63
706.19	53789.90
706.38	53994.70
706.57	53826.76
706.76	53601.49
706.95	53900.49
707.14	53755.08
707.32	53505.23
707.51	53458.13
707.70	53894.35
707.89	53978.31
708.08	53859.53
708.27	53456.08
708.46	54121.67
708.65	53773.52
708.84	54015.18
709.02	53699.79
709.21	53796.04
709.40	53660.88
709.59	53611.73
709.78	53179.60
709.97	53794.00
710.16	53707.98
710.34	53773.52
710.53	53220.56
710.72	53284.05
710.91	53638.35
711.10	53288.15
711.29	53320.91
711.48	53157.08
711.66	53212.37
711.85	53095.64
712.04	53271.76
712.23	52817.11
712.42	52716.76
712.61	53079.25
712.80	53474.51
712.98	52657.37
713.17	52798.68
713.36	52630.75
713.55	52872.41
713.74	52757.72
713.93	52526.30
714.11	52372.70
714.30	52081.89
714.49	52593.89
714.68	52724.96
714.87	53167.32
715.06	52835.55
715.24	52112.61
715.43	52866.27
715.62	52253.92
715.81	52153.57
716.00	52155.62
716.18	52165.86
716.37	51825.90
716.56	51856.62
716.75	52110.56
716.94	52042.98
717.12	51547.37
717.31	51797.23
717.50	52153.57
717.69	51647.72
717.88	52034.79
718.06	52014.31
718.25	52143.33
718.44	51467.50
718.63	51895.53
718.82	51328.24
719.00	51299.57
719.19	51203.31
719.38	51379.44
719.57	50963.70
719.76	51289.33
719.94	50756.86
720.13	51397.87
720.32	50818.30
720.51	51180.79
720.69	50701.56
720.88	50916.60
721.07	50398.46
721.26	50519.29
721.44	50533.63
721.63	50543.87
721.82	50363.65
722.01	50355.46
722.20	50670.84
722.38	50195.71
722.57	49970.44
722.76	50373.89
722.95	49892.61
723.13	50046.21
723.32	49898.76
723.51	49513.74
723.70	50009.35
723.88	49755.40
724.07	49610.00
724.26	49882.37
724.44	49206.55
724.63	49542.41
724.82	49462.54
725.01	49431.82
725.19	49308.94
725.38	49366.29
725.57	49087.76
725.76	49415.44
725.94	49083.67
726.13	48846.10
726.32	48952.60
726.51	48952.60
726.69	49276.18
726.88	49263.89
727.07	49237.26
727.25	49018.13
727.44	49280.27
727.63	48844.05
727.82	48518.43
728.00	48493.85
728.19	48862.49
728.38	49052.95
728.56	48487.71
728.75	49042.71
728.94	48909.59
729.12	48766.23
729.31	48784.66
729.50	48684.31
729.69	48915.73
729.87	48495.90
730.06	48497.95
730.25	48604.44
730.43	48497.95
730.62	48131.36
730.81	48641.31
730.99	48571.67
731.18	48624.92
731.37	48321.82
731.55	48426.27
731.74	48985.36
731.93	48276.77
732.11	48616.73
732.30	48575.77
732.49	48551.20
732.67	48041.25
732.86	48239.90
733.05	48114.98
733.23	47699.24
733.42	48456.99
733.61	47932.71
733.79	48006.44
733.98	48409.89
734.17	47951.14
734.35	48186.66
734.54	48200.99
734.73	48192.80
734.91	48080.16
735.10	47555.88
735.29	47934.76
735.47	47672.62
735.66	47938.85
735.84	47748.39
736.03	47494.44
736.22	48321.82
736.40	47441.20
736.59	47553.83
736.78	47678.76
736.96	47490.35
737.15	47662.38
737.33	47392.04
737.52	47793.45
737.71	47152.43
737.89	47451.44
738.08	47416.62
738.27	46986.55
738.45	47594.79
738.64	47459.63
738.82	47117.62
739.01	47177.01
739.20	46759.22
739.38	47004.98
739.57	46980.40
739.75	47117.62
739.94	46914.87
740.13	47263.02
740.31	46847.29
740.50	47078.71
740.68	47021.36
740.87	47217.97
741.06	46906.68
741.24	46466.36
741.43	46622.01
741.61	46724.41
741.80	46245.18
741.99	46245.18
742.17	46187.84
742.36	46593.34
742.54	46507.32
742.73	46550.33
742.91	46550.33
743.10	46263.61
743.29	46443.84
743.47	46470.46
743.66	46323.01
743.84	46472.51
744.03	46456.12
744.21	46169.41
744.40	46697.78
744.59	46288.19
744.77	46173.50
744.96	45806.92
745.14	45927.75
745.33	46458.17
745.51	45624.65
745.70	45725.00
745.88	45870.40
746.07	45702.47
746.26	45569.35
746.44	45565.26
746.63	45643.08
746.81	45339.98
747.00	45325.64
747.18	45657.42
747.37	45751.62
747.55	45290.83
747.74	45595.98
747.92	45172.05
748.11	45124.94
748.29	45231.44
748.48	45491.53
748.66	45405.52
748.85	45577.54
749.03	45274.45
749.22	44793.17
749.41	45282.64
749.59	45573.45
749.78	44827.99
749.96	44598.62
750.15	45174.09
750.33	44914.00
750.52	44934.48
750.70	44885.33
750.89	44524.89
751.07	44328.28
751.26	44914.00
751.44	44385.63
751.63	44459.35
751.81	44836.18
752.00	44594.52
752.18	44666.20
752.37	44322.14
752.55	44283.23
752.74	43990.37
752.92	44090.72
753.10	43969.89
753.29	44629.34
753.47	43935.07
753.66	43941.22
753.84	44686.68
754.03	44129.63
754.21	44070.24
754.40	44457.31
754.58	44537.18
754.77	44021.09
754.95	43713.89
755.14	43758.95
755.32	43945.31
755.51	43820.39
755.69	43787.62
755.88	43750.76
756.06	43967.84
756.24	43615.59
756.43	43414.89
756.61	43636.07
756.80	43375.98
756.98	43117.93
757.17	43539.82
757.35	43300.20
757.54	43277.68
757.72	43576.68
757.90	43230.57
758.09	43195.76
758.27	43144.56
758.46	42810.74
758.64	42812.79
758.83	43146.61
759.01	43447.66
759.19	43273.58
759.38	43218.28
759.56	43406.70
759.75	43058.54
759.93	42665.33
760.12	42562.93
760.30	43206.00
760.48	42775.92
760.67	42632.57
760.85	43148.65
761.04	43083.12
761.22	42898.80
761.40	42999.15
761.59	42870.13
761.77	42728.82
761.96	42937.71
762.14	42632.57
762.32	42106.24
762.51	42173.82
762.69	42380.67
762.88	42671.48
763.06	42698.10
763.24	42777.97
763.43	42356.09
763.61	41979.26
763.80	42179.96
763.98	42427.77
764.16	41819.52
764.35	41973.12
764.53	41772.42
764.72	41690.50
764.90	42028.41
765.08	41819.52
765.27	41749.89
765.45	41543.05
765.63	41432.46
765.82	41796.99
766.00	41264.52
766.18	41289.10
766.37	41833.86
766.55	41002.38
766.74	41354.63
766.92	40932.75
767.10	41278.86
767.29	41020.81
767.47	40920.46
767.65	41162.12
767.84	40908.18
768.02	40887.70
768.20	40895.89
768.39	40998.29
768.57	40981.90
768.75	40773.01
768.94	40994.19
769.12	41016.72
769.30	40707.47
769.49	41170.32
769.67	40893.84
769.85	40654.23
770.04	40461.72
770.22	40533.40
770.40	40521.11
770.59	40539.54
770.77	40719.76
770.95	40510.87
771.14	40521.11
771.32	40093.08
771.50	40023.45
771.69	40232.35
771.87	40463.77
772.05	40455.57
772.24	40205.72
772.42	40291.74
772.60	40005.02
772.78	39736.74
772.97	40134.04
773.15	40261.02
773.33	40039.84
773.52	40070.56
773.70	40154.52
773.88	40246.68
774.07	40107.42
774.25	39947.68
774.43	40056.22
774.61	39755.17
774.80	40215.96
774.98	40293.79
775.16	40023.45
775.34	39908.77
775.53	39943.58
775.71	39982.49
775.89	40175.00
776.08	40011.17
776.26	40304.02
776.44	40187.29
776.62	39982.49
776.81	40168.86
776.99	40254.87
777.17	40164.76
777.35	40570.26
777.54	40517.01
777.72	40170.91
777.90	40416.66
778.08	40150.43
778.27	40621.46
778.45	40355.22
778.63	40560.02
778.81	39968.16
779.00	41090.44
779.18	40355.22
779.36	40568.21
779.54	40246.68
779.73	40826.26
779.91	40795.54
780.09	41092.49
780.27	40873.36
780.46	40816.02
780.64	40934.80
780.82	40871.31
781.00	40478.10
781.19	40781.20
781.37	40963.47
781.55	40740.24
781.73	41241.99
781.91	41192.84
782.10	40914.32
782.28	41209.23
782.46	41088.40
782.64	41196.94
782.82	41198.99
783.01	41491.85
783.19	41280.91
783.37	41209.23
783.55	41049.49
783.74	41436.55
783.92	40961.42
784.10	41704.84
784.28	41510.28
784.46	40983.95
784.64	40887.70
784.83	41358.73
785.01	41325.96
785.19	41221.52
785.37	41649.54
785.55	41131.40
785.74	40770.96
785.92	40795.54
786.10	41088.40
786.28	41203.08
786.46	41131.40
786.64	40750.48
786.83	40963.47
787.01	40777.11
787.19	41239.95
787.37	41311.63
787.55	40736.15
787.74	40533.40
787.92	41035.15
788.10	41006.48
788.28	40289.69
788.46	40824.21
788.64	40873.36
788.82	40703.38
789.01	40463.77
789.19	40975.76
789.37	40662.42
789.55	40633.75
789.73	40201.63
789.91	40134.04
790.09	40400.28
790.28	40631.70
790.46	40033.69
790.64	40545.69
790.82	40498.58
791.00	40107.42
791.18	39488.93
791.36	39869.86
791.55	39994.78
791.73	40023.45
791.91	39585.19
792.09	39564.71
792.27	39919.01
792.45	39890.34
792.63	39671.20
792.81	39663.01
793.00	39675.30
793.18	39783.84
793.36	39407.01
793.54	39374.25
793.72	39108.01
793.90	39519.65
794.08	39245.23
794.26	39081.39
794.44	38766.00
794.62	38462.90
794.81	38526.39
794.99	39019.95
795.17	38718.90
795.35	38974.89
795.53	38393.27
795.71	38751.66
795.89	38133.18
796.07	38503.86
796.25	37971.39
796.43	38366.65
796.61	37897.66
796.80	38176.19
796.98	37866.94
797.16	37821.89
797.34	38026.68
797.52	37799.36
797.70	37881.28
797.88	37998.01
798.06	37266.89
798.24	37750.21
798.42	37451.20
798.60	37463.49
798.78	37389.77
798.96	37486.02
799.14	37178.82
799.32	37344.71
799.51	36793.81
799.69	37330.37
799.87	36816.33
800.05	36468.18
800.23	37084.62
800.41	36574.67
800.59	36709.84
800.77	36761.04
800.95	36421.08
801.13	36240.86
801.31	36345.30
801.49	36431.32
801.67	36074.97
801.85	36255.19
802.03	35741.15
802.21	35925.47
802.39	35835.36
802.57	35964.38
802.75	35646.94
802.93	35724.77
803.11	35483.11
803.29	35427.81
803.47	35448.29
803.65	35161.58
803.83	35069.42
804.01	35321.32
804.19	34944.49
804.37	35438.05
804.55	34967.02
804.73	35081.70
804.91	35048.94
805.09	35110.38
805.27	34993.64
805.45	34969.07
805.63	35218.92
805.81	34891.24
805.99	34614.77
806.17	34541.04
806.35	34801.13
806.53	34170.36
806.71	34670.06
806.89	34438.64
807.07	34133.50
807.25	34344.44
807.43	33807.87
807.61	34063.86
807.79	34078.20
807.97	33488.38
808.15	34059.77
808.33	33920.51
808.51	33453.57
808.69	33539.58
808.87	33560.06
809.05	33553.92
809.23	33111.56
809.41	33068.55
809.59	33056.26
809.77	33488.38
809.95	32919.05
810.13	33570.30
810.31	33125.89
810.49	33033.74
810.67	33277.44
810.84	33351.17
811.02	33043.98
811.20	32636.43
811.38	32695.82
811.56	32429.59
811.74	32626.19
811.92	32351.76
812.10	32417.30
812.28	32683.53
812.46	32155.16
812.64	32411.15
812.82	32153.11
813.00	32212.50
813.18	32577.04
813.36	31741.47
813.53	32192.02
813.71	32286.23
813.89	32106.01
814.07	32005.66
814.25	32095.77
814.43	31749.66
814.61	31464.99
814.79	31886.87
814.97	31565.34
815.15	32067.09
815.33	31514.14
815.50	31256.10
815.68	31632.93
815.86	31677.98
816.04	31247.91
816.22	31419.94
816.40	31473.18
816.58	31094.31
816.76	31049.25
816.94	30973.48
817.11	31284.77
817.29	30918.18
817.47	30658.09
817.65	31041.06
817.83	30674.48
818.01	30537.26
818.19	30443.06
818.37	30666.28
818.54	30162.48
818.72	30354.99
818.90	30139.96
819.08	30416.43
819.26	30529.07
819.44	30324.27
819.62	30381.62
819.80	30438.96
819.97	30148.15
820.15	30021.17
820.33	29937.21
820.51	29955.64
820.69	29877.82
820.87	30416.43
821.05	30389.81
821.22	29920.82
821.40	30123.57
821.58	29697.59
821.76	29632.06
821.94	29804.09
822.12	29496.89
822.29	29793.85
822.47	29533.76
822.65	29617.72
822.83	29699.64
823.01	29226.56
823.19	29466.17
823.36	29208.13
823.54	29324.86
823.72	29345.34
823.90	29062.72
824.08	29087.30
824.25	28829.26
824.43	28653.13
824.61	29048.39
824.79	29165.12
824.97	28952.13
825.15	29122.12
825.32	28956.23
825.50	28741.19
825.68	28548.68
825.86	28784.20
826.04	28968.52
826.21	28771.91
826.39	28575.31
826.57	28534.35
826.75	28468.81
826.93	28311.12
827.10	28384.85
827.28	28261.97
827.46	28546.64
827.64	28333.65
827.81	28151.38
827.99	28585.55
828.17	27973.21
828.35	28311.12
828.53	28118.61
828.70	28094.04
828.88	27866.71
829.06	28055.12
829.24	28257.87
829.41	27969.11
829.59	27835.99
829.77	27743.83
829.95	28051.03
830.12	27801.18
830.30	27790.94
830.48	27987.54
830.66	27690.59
830.84	27563.61
831.01	27393.63
831.19	27522.65
831.37	27321.95
831.55	27616.86
831.72	27289.18
831.90	27536.99
832.08	27309.66
832.25	27260.51
832.43	27434.59
832.61	27199.07
832.79	27111.01
832.96	27262.56
833.14	27317.86
833.32	27160.16
833.50	27272.80
833.67	27014.76
833.85	27106.91
834.03	26639.98
834.20	26883.69
834.38	26902.12
834.56	26902.12
834.74	26635.88
834.91	26488.43
835.09	26713.70
835.27	26437.23
835.44	26465.90
835.62	26357.36
835.80	26619.50
835.98	26134.13
836.15	26574.44
836.33	26242.67
836.51	26410.60
836.68	26375.79
836.86	26156.66
837.04	26117.75
837.21	26121.84
837.39	26297.97
837.57	26205.81
837.75	26123.89
837.92	25788.02
838.10	25966.20
838.28	25788.02
838.45	25796.21
838.63	26107.51
838.81	25845.37
838.98	25812.60
839.16	25960.05
839.34	25540.22
839.51	25429.63
839.69	25388.67
839.87	25654.90
840.04	25341.57
840.22	25771.64
840.40	25230.98
840.57	25165.44
840.75	25489.02
840.93	25222.78
841.10	25316.99
841.28	25816.69
841.46	25405.05
841.63	25337.47
841.81	25187.97
841.98	25396.86
842.16	25302.65
842.34	25302.65
842.51	24774.28
842.69	25456.25
842.87	25161.34
843.04	25083.52
843.22	25044.61
843.40	25063.04
843.57	25196.16
843.75	25099.90
843.92	24958.60
844.10	24948.36
844.28	24790.66
844.45	24747.65
844.63	24948.36
844.81	24372.88
844.98	24813.19
845.16	24250.00
845.33	24536.71
845.51	24436.36
845.69	24250.00
845.86	24209.04
846.04	24364.68
846.21	24385.16
846.39	24264.33
846.57	24293.01
846.74	24327.82
846.92	24039.06
847.09	24147.60
847.27	23862.93
847.45	24211.09
847.62	23850.64
847.80	23891.60
847.97	24108.69
848.15	23862.93
848.32	23969.43
848.50	23826.07
848.68	23561.88
848.85	23826.07
849.03	23576.22
849.20	23922.32
849.38	23692.95
849.56	23662.23
849.73	23666.33
849.91	23781.01
850.08	23678.61
850.26	23619.22
850.43	23486.11
850.61	23301.79
850.78	23174.81
850.96	23559.83
851.14	23226.01
851.31	23180.96
851.49	23426.71
851.66	23670.42
851.84	23289.50
852.01	23344.80
852.19	23295.64
852.36	23082.66
852.54	23017.12
852.71	23045.79
852.89	23072.42
853.07	22974.11
853.24	23127.71
853.42	22740.64
853.59	22972.07
853.77	22763.17
853.94	22822.56
854.12	23017.12
854.29	22531.75
854.47	22826.66
854.64	22699.69
854.82	22611.62
854.99	22769.32
855.17	22361.77
855.34	22580.90
855.52	22673.06
855.69	22560.42
855.87	22296.24
856.04	22257.32
856.22	22152.88
856.39	22089.39
856.57	22345.39
856.74	22408.87
856.92	22228.65
857.09	22333.10
857.27	22136.49
857.44	22482.60
857.62	22195.89
857.79	22066.86
857.97	22140.59
858.14	21956.27
858.32	21903.03
858.49	21978.80
858.67	21769.91
858.84	21819.06
859.02	21733.04
859.19	22003.38
859.37	21601.97
859.54	21614.26
859.72	22089.39
859.89	21687.99
860.06	21759.67
860.24	21681.85
860.41	21825.20
860.59	21423.80
860.76	21853.87
860.94	21321.40
861.11	21472.95
861.29	21499.58
861.46	21524.15
861.64	21147.33
861.81	21169.85
861.98	21120.70
862.16	21225.15
862.33	21098.17
862.51	21087.93
862.68	21313.21
862.86	21034.69
863.03	21128.89
863.21	21169.85
863.38	20926.14
863.55	20930.24
863.73	20713.16
863.90	20854.47
864.08	20958.91
864.25	20713.16
864.43	21157.57
864.60	20715.20
864.77	20668.10
864.95	20747.97
865.12	20653.76
865.30	20561.61
865.47	20831.94
865.64	20754.12
865.82	20700.87
865.99	20776.64
866.17	20405.96
866.34	20541.13
866.51	20197.07
866.69	20412.10
866.86	20451.02
867.04	20346.57
867.21	20037.33
867.38	20133.58
867.56	20254.41
867.73	19941.07
867.91	20141.77
868.08	20328.14
868.25	19867.34
868.43	20063.95
868.60	19988.18
868.78	19891.92
868.95	19943.12
869.12	20088.53
869.30	19621.59
869.47	20098.77
869.64	19642.07
869.82	19609.30
869.99	19769.04
870.16	19893.97
870.34	19730.13
870.51	19670.74
870.69	19670.74
870.86	19285.72
871.03	19404.50
871.21	19588.82
871.38	19316.44
871.55	19275.48
871.73	19308.25
871.90	19052.25
872.07	19138.27
872.25	19136.22
872.42	18894.56
872.59	18999.01
872.77	18853.60
872.94	18810.59
873.11	18884.32
873.29	18747.11
873.46	18984.67
873.63	18792.16
873.81	18892.51
873.98	18636.52
874.15	18573.03
874.33	18560.74
874.50	18634.47
874.67	18554.60
874.85	18491.11
875.02	18710.24
875.19	18515.69
875.37	18366.18
875.54	18405.10
875.71	18417.38
875.88	18245.35
876.06	18401.00
876.23	18337.51
876.40	18091.76
876.58	18052.84
876.75	18120.43
876.92	18083.56
877.10	18243.31
877.27	18073.32
877.44	17985.26
877.61	17843.95
877.79	17762.03
877.96	17737.46
878.13	17854.19
878.31	17682.16
878.48	18005.74
878.65	17635.06
878.82	17639.15
879.00	17751.79
879.17	17659.63
879.34	17450.74
879.51	17311.48
879.69	17471.22
879.86	17368.82
880.03	17182.46
880.21	17020.67
880.38	17409.78
880.55	17344.25
880.72	17397.49
880.90	17256.18
881.07	16985.85
881.24	17256.18
881.41	17028.86
881.59	17071.87
881.76	17121.02
881.93	17110.78
882.10	16994.04
882.28	16893.69
882.45	16709.38
882.62	16836.35
882.79	16877.31
882.96	16813.82
883.14	16944.89
883.31	16994.04
883.48	17006.33
883.65	16828.16
883.83	16860.93
884.00	17010.43
884.17	16643.84
884.34	16928.51
884.51	16654.08
884.69	16852.73
884.86	16619.27
885.03	16879.36
885.20	16387.85
885.38	16785.15
885.55	16500.48
885.72	16518.92
885.89	16670.47
886.06	16609.03
886.24	16467.72
886.41	16420.61
886.58	16480.00
886.75	16736.00
886.92	16312.07
887.10	16652.03
887.27	16193.29
887.44	16291.59
887.61	16185.10
887.78	16236.30
887.95	16412.42
888.13	16064.27
888.30	16166.67
888.47	16187.14
888.64	15965.96
888.81	16146.19
888.99	15838.99
889.16	15963.92
889.33	15882.00
889.50	15896.33
889.67	15841.04
889.84	15656.72
890.01	15781.65
890.19	15820.56
890.36	15959.82
890.53	15689.49
890.70	15632.15
890.87	15750.93
891.04	15470.36
891.22	15615.76
891.39	15560.47
891.56	15533.84
891.73	15374.10
891.90	15533.84
892.07	15615.76
892.24	15255.32
892.42	15269.66
892.59	15476.50
892.76	15329.05
892.93	15308.57
893.10	15314.71
893.27	15404.82
893.44	15230.74
893.61	15300.37
893.79	15527.70
893.96	15218.46
894.13	15245.08
894.30	15396.63
894.47	15277.85
894.64	15281.94
894.81	15197.98
894.98	15216.41
895.15	15406.87
895.33	15212.31
895.50	14974.75
895.67	15083.29
895.84	15296.28
896.01	15271.70
896.18	15099.67
896.35	15064.86
896.52	15048.47
896.69	15050.52
896.86	15189.78
897.04	15232.79
897.21	14944.03
897.38	15171.35
897.55	14931.74
897.72	15105.82
897.89	14954.27
898.06	15148.82
898.23	14995.23
898.40	14911.26
898.57	15171.35
898.74	15167.26
898.91	14935.84
899.08	14898.97
899.26	14991.13
899.43	15095.58
899.60	14886.68
899.77	15027.99
899.94	15111.96
900.11	14835.49
900.28	15007.52
900.45	14784.29
900.62	14753.57
900.79	14921.50
900.96	14888.73
901.13	14905.12
901.30	14917.40
901.47	14808.86
901.64	15046.43
901.81	14960.41
901.98	14831.39
902.15	15007.52
902.32	14726.94
902.49	14978.84
902.66	15038.23
902.83	14939.93
903.01	14804.77
903.18	14919.45
903.35	15073.05
903.52	14747.42
903.69	15071.00
903.86	15116.06
904.03	14946.08
904.20	15083.29
904.37	15075.10
904.54	14794.53
904.71	14778.14
904.88	14831.39
905.05	15011.61
905.22	14796.57
905.39	14827.29
905.56	14862.11
905.73	14817.05
905.90	14731.04
906.07	14798.62
906.24	14755.61
906.41	14860.06
906.58	14935.84
906.75	14741.28
906.92	14749.47
907.09	14573.35
907.26	15079.19
907.43	14909.21
907.60	14833.44
907.77	14925.60
907.93	14735.14
908.10	14726.94
908.27	14868.25
908.44	14751.52
908.61	14761.76
908.78	14765.85
908.95	14872.35
909.12	14628.64
909.29	14829.34
909.46	14726.94
909.63	14632.74
909.80	14626.59
909.97	14888.73
910.14	14769.95
910.31	14669.60
910.48	14636.83
910.65	14675.74
910.82	14505.76
910.99	14524.19
911.16	14630.69
911.33	14380.84
911.50	14524.19
911.66	14384.93
911.83	14667.55
912.00	14466.85
912.17	14311.21
912.34	14477.09
912.51	14399.27
912.68	14380.84
912.85	14477.09
913.02	14516.00
913.19	14321.45
913.36	14634.78
913.53	14110.50
913.70	14370.60
913.86	14405.41
914.03	14436.13
914.20	14270.25
914.37	14075.69
914.54	14251.81
914.71	14165.80
914.88	14155.56
915.05	14126.89
915.22	13930.28
915.39	14024.49
915.55	13993.77
915.72	14001.96
915.89	13795.12
916.06	13725.49
916.23	13889.32
916.40	13741.87
916.57	13604.66
916.74	13557.55
916.91	13993.77
917.07	13561.65
917.24	13598.51
917.41	13698.86
917.58	13492.02
917.75	13512.50
917.92	13594.42
918.09	13561.65
918.26	13436.72
918.42	13610.80
918.59	13412.15
918.76	13090.62
918.93	13002.55
919.10	13188.92
919.27	13252.41
919.44	13397.81
919.60	13408.05
919.77	13020.99
919.94	13045.56
920.11	12971.83
920.28	13053.75
920.45	13178.68
920.61	12726.08
920.78	12906.30
920.95	12863.29
921.12	12961.59
921.29	12822.33
921.46	12670.78
921.62	12820.28
921.79	12777.28
921.96	12699.45
922.13	12529.47
922.30	12394.31
922.47	12396.35
922.63	12410.69
922.80	12527.42
922.97	12357.44
923.14	12183.37
923.31	12177.22
923.47	12269.38
923.64	12222.28
923.81	12019.53
923.98	12144.45
924.15	11853.64
924.32	12181.32
924.48	11986.76
924.65	12085.06
924.82	11806.54
924.99	11536.21
925.15	11747.15
925.32	11675.47
925.49	11829.07
925.66	11591.50
925.83	11591.50
925.99	11620.17
926.16	11607.89
926.33	11624.27
926.50	11437.91
926.67	11558.74
926.83	11290.45
927.00	11413.33
927.17	11417.43
927.34	11165.53
927.50	11304.79
927.67	11315.03
927.84	11065.18
928.01	11102.04
928.17	11157.33
928.34	10925.91
928.51	10923.87
928.68	10809.18
928.84	10911.58
929.01	10790.75
929.18	10694.49
929.35	10714.97
929.51	10710.88
929.68	10653.53
929.85	10647.39
930.02	10600.29
930.18	10727.26
930.35	10559.33
930.52	10364.77
930.69	10411.87
930.85	10325.86
931.02	10407.78
931.19	10405.73
931.36	10291.04
931.52	10428.26
931.69	10368.87
931.86	10323.81
932.02	10119.01
932.19	10084.20
932.36	10006.38
932.53	10153.83
932.69	9914.22
932.86	9895.78
933.03	9877.35
933.19	9492.34
933.36	9789.29
933.53	9846.63
933.70	9668.46
933.86	9660.27
934.03	9695.08
934.20	9437.04
934.36	9455.47
934.53	9256.82
934.70	9074.55
934.86	9236.34
935.03	8959.86
935.20	9066.36
935.36	8970.10
935.53	8804.22
935.70	8923.00
935.86	8966.01
936.03	8736.63
936.20	8529.79
936.36	8480.64
936.53	8390.53
936.70	8441.73
936.86	8589.18
937.03	8521.60
937.20	8040.33
937.36	8302.47
937.53	7948.17
937.70	7925.64
937.86	7747.47
938.03	7829.38
938.20	7954.31
938.36	7583.63
938.53	7790.47
938.70	7405.46
938.86	7360.40
939.03	7247.76
939.20	7333.78
939.36	7448.46
939.53	7143.32
939.70	7411.60
939.86	6999.96
940.03	6809.50
940.19	6946.71
940.36	6889.37
940.53	6944.66
940.69	6649.75
940.86	6614.94
941.03	6539.16
941.19	6377.37
941.36	6346.66
941.52	6383.52
941.69	6266.78
941.86	6148.00
942.02	6053.80
942.19	6135.71
942.35	6324.13
942.52	6021.03
942.69	5889.96
942.85	5939.11
943.02	5810.09
943.18	6012.84
943.35	5781.42
943.52	5836.71
943.68	5650.35
943.85	5633.96
944.01	5636.01
944.18	5672.87
944.35	5697.45
944.51	5486.51
944.68	5552.04
944.84	5496.75
945.01	5447.60
945.17	5595.05
945.34	5644.20
945.51	5498.80
945.67	5461.93
945.84	5504.94
946.00	5369.77
946.17	5445.55
946.33	5386.16
946.50	5404.59
946.67	5318.57
946.83	5392.30
947.00	5320.62
947.16	5365.68
947.33	5298.10
947.49	5388.21
947.66	5365.68
947.82	5373.87
947.99	5267.38
948.16	5294.00
948.32	5337.01
948.49	5371.82
948.65	5533.61
948.82	5316.53
948.98	5320.62
949.15	5230.51
949.31	5474.22
949.48	5361.58
949.64	5181.36
949.81	5445.55
949.97	5173.17
950.14	5435.31
950.30	5445.55
950.47	5371.82
950.63	5289.90
950.80	5466.03
950.96	5248.94
951.13	5267.38
951.30	5334.96
951.46	5449.64
951.63	5420.97
951.79	5554.09
951.96	5468.08
952.12	5418.93
952.29	5359.53
952.45	5527.47
952.62	5429.17
952.78	5455.79
952.94	5404.59
953.11	5527.47
953.27	5429.17
953.44	5511.08
953.60	5468.08
953.77	5558.19
953.93	5603.24
954.10	5412.78
954.26	5513.13
954.43	5523.37
954.59	5617.58
954.76	5650.35
954.92	5459.88
955.09	5521.32
955.25	5482.41
955.42	5453.74
955.58	5629.87
955.75	5582.76
955.91	5564.33
956.07	5609.39
956.24	5396.40
956.40	5623.72
956.57	5615.53
956.73	5570.48
956.90	5562.28
957.06	5492.65
957.23	5490.60
957.39	5492.65
957.56	5599.15
957.72	5590.95
957.88	5418.93
958.05	5660.59
958.21	5564.33
958.38	5556.14
958.54	5412.78
958.71	5586.86
958.87	5486.51
959.03	5674.92
959.20	5416.88
959.36	5574.57
959.53	5609.39
959.69	5476.27
959.85	5666.73
960.02	5427.12
960.18	5633.96
960.35	5545.90
960.51	5621.67
960.68	5337.01
960.84	5568.43
961.00	5457.84
961.17	5500.84
961.33	5656.49
961.50	5697.45
961.66	5674.92
961.82	5466.03
961.99	5361.58
962.15	5427.12
962.31	5572.52
962.48	5517.23
962.64	5562.28
962.81	5533.61
962.97	5472.17
963.13	5531.56
963.30	5373.87
963.46	5474.22
963.62	5396.40
963.79	5451.69
963.95	5447.60
964.12	5529.52
964.28	5474.22
964.44	5455.79
964.61	5425.07
964.77	5523.37
964.93	5607.34
965.10	5441.45
965.26	5287.86
965.42	5380.01
965.59	5517.23
965.75	5414.83
965.92	5451.69
966.08	5541.80
966.24	5394.35
966.41	5294.00
966.57	5402.54
966.73	5453.74
966.90	5437.36
967.06	5359.53
967.22	5363.63
967.39	5310.38
967.55	5357.49
967.71	5248.94
967.88	5175.22
968.04	5240.75
968.20	5279.66
968.37	5431.21
968.53	5298.10
968.69	5265.33
968.85	5375.92
969.02	5271.47
969.18	5242.80
969.34	5216.18
969.51	5359.53
969.67	5349.29
969.83	5164.98
970.00	5306.29
970.16	5246.90
970.32	5189.55
970.48	5238.70
970.65	5173.17
970.81	5156.79
970.97	5267.38
971.14	5132.21
971.30	5113.78
971.46	5121.97
971.63	5089.20
971.79	5259.18
971.95	5064.63
972.11	5035.96
972.28	5027.76
972.44	5005.24
972.60	5078.96
972.76	5169.07
972.93	4927.41
973.09	5185.46
973.25	4943.80
973.42	4943.80
973.58	5033.91
973.74	5005.24
973.90	5058.48
974.07	4859.83
974.23	4890.55
974.39	4943.80
974.55	4978.61
974.72	4966.32
974.88	4655.03
975.04	5017.52
975.20	4849.59
975.37	4880.31
975.53	4886.45
975.69	4794.29
975.85	4911.03
976.01	4759.48
976.18	4747.19
976.34	4767.67
976.50	4792.25
976.66	4978.61
976.83	4841.40
976.99	4751.29
977.15	4677.56
977.31	4687.80
977.47	4833.21
977.64	4782.01
977.80	4628.41
977.96	4620.22
978.12	4726.71
978.29	4632.51
978.45	4671.42
978.61	4562.87
978.77	4898.74
978.93	4644.79
979.10	4677.56
979.26	4661.18
979.42	4632.51
979.58	4483.00
979.74	4710.33
979.91	4464.57
980.07	4550.59
980.23	4612.03
980.39	4446.14
980.55	4505.53
980.71	4485.05
980.88	4497.34
981.04	4417.47
981.20	4442.04
981.36	4444.09
981.52	4472.76
981.68	4411.32
981.85	4509.63
982.01	4501.44
982.17	4460.48
982.33	4405.18
982.49	4560.83
982.65	4341.69
982.82	4413.37
982.98	4362.17
983.14	4245.44
983.30	4337.60
983.46	4313.02
983.62	4351.93
983.79	4165.57
983.95	4196.29
984.11	4153.28
984.27	4364.22
984.43	4255.68
984.59	4298.69
984.75	4243.39
984.91	4222.91
985.08	4335.55
985.24	4261.82
985.40	4192.19
985.56	4218.82
985.72	4265.92
985.88	4364.22
986.04	4079.55
986.20	4165.57
986.37	4177.86
986.53	4038.59
986.69	4220.86
986.85	4257.73
987.01	4118.47
987.17	4091.84
987.33	4067.27
987.49	4136.90
987.65	4102.08
987.82	4104.13
987.98	3944.39
988.14	4102.08
988.30	4042.69
988.46	4003.78
988.62	4120.51
988.78	3954.63
988.94	3968.96
989.10	3985.35
989.26	3915.72
989.42	3897.28
989.59	3903.43
989.75	3893.19
989.91	3846.09
990.07	3813.32
990.23	3844.04
990.39	3880.90
990.55	3981.25
990.71	3737.54
990.87	3930.05
991.03	3923.91
991.19	3809.22
991.35	3870.66
991.51	3870.66
991.67	3889.09
991.83	3829.70
992.00	3880.90
992.16	3868.61
992.32	3749.83
992.48	3839.94
992.64	3764.17
992.80	3837.89
992.96	3794.89
993.12	3743.69
993.28	3772.36
993.44	3723.21
993.60	3629.00
993.76	3696.58
993.92	3573.71
994.08	3768.26
994.24	3618.76
994.40	3698.63
994.56	3669.96
994.72	3620.81
994.88	3622.86
995.04	3741.64
995.20	3674.06
995.36	3590.09
995.52	3516.36
995.68	3522.51
995.84	3452.88
996.00	3676.10
996.16	3428.30
996.32	3413.96
996.48	3506.12
996.64	3678.15
996.80	3473.36
996.96	3516.36
997.12	3567.56
997.28	3504.07
997.44	3420.11
997.60	3459.02
997.76	3356.62
997.92	3465.16
998.08	3413.96
998.24	3305.42
998.40	3444.68
998.56	3551.18
998.72	3401.68
998.88	3373.00
999.04	3399.63
999.20	3377.10
999.36	3385.29
999.52	3428.30
999.68	3354.57
999.84	3436.49
1000.00	3358.67
1000.16	3332.05
1000.32	3280.85
1000.48	3360.72
1000.64	3268.56
1000.80	3276.75
1000.95	3190.74
1001.11	3280.85
1001.27	3266.51
1001.43	3235.79
1001.59	3198.93
1001.75	3160.02
1001.91	3164.11
1002.07	3082.19
1002.23	3100.62
1002.39	3182.54
1002.55	3168.21
1002.71	3198.93
1002.87	3080.14
1003.03	3233.74
1003.19	3127.25
1003.34	3153.87
1003.50	3186.64
1003.66	3256.27
1003.82	3041.23
1003.98	3006.42
1004.14	3112.91
1004.30	3108.82
1004.46	3092.43
1004.62	3053.52
1004.78	3020.75
1004.94	3076.05
1005.09	3137.49
1005.25	3098.58
1005.41	2949.08
1005.57	3055.57
1005.73	2961.36
1005.89	2998.23
1006.05	2985.94
1006.21	2963.41
1006.37	2869.20
1006.52	2865.11
1006.68	2942.93
1006.84	3022.80
1007.00	2940.88
1007.16	2932.69
1007.32	2926.55
1007.48	2924.50
1007.64	2987.99
1007.79	2830.29
1007.95	2887.64
1008.11	3045.33
1008.27	2836.44
1008.43	2901.97
1008.59	2797.53
1008.75	2951.12
1008.91	2934.74
1009.06	2779.09
1009.22	2830.29
1009.38	2850.77
1009.54	2879.44
1009.70	2875.35
1009.86	2775.00
1010.01	2787.29
1010.17	2748.37
1010.33	2803.67
1010.49	2748.37
1010.65	2924.50
1010.81	2754.52
1010.96	2865.11
1011.12	2717.65
1011.28	2744.28
1011.44	2789.33
1011.60	2652.12
1011.76	2623.45
1011.91	2742.23
1012.07	2740.18
1012.23	2631.64
1012.39	2756.57
1012.55	2721.75
1012.71	2631.64
1012.86	2637.78
1013.02	2672.60
1013.18	2590.68
1013.34	2541.53
1013.50	2719.70
1013.65	2617.30
1013.81	2627.54
1013.97	2553.82
1014.13	2695.13
1014.29	2533.34
1014.44	2717.65
1014.60	2672.60
1014.76	2592.73
1014.92	2621.40
1015.07	2662.36
1015.23	2635.74
1015.39	2568.15
1015.55	2551.77
1015.71	2545.63
1015.86	2559.96
1016.02	2504.67
1016.18	2502.62
1016.34	2658.26
1016.49	2486.23
1016.65	2545.63
1016.81	2537.43
1016.97	2500.57
1017.12	2432.99
1017.28	2482.14
1017.44	2392.03
1017.60	2428.89
1017.75	2451.42
1017.91	2506.71
1018.07	2471.90
1018.23	2529.24
1018.38	2381.79
1018.54	2443.23
1018.70	2447.32
1018.86	2410.46
1019.01	2383.84
1019.17	2418.65
1019.33	2432.99
1019.49	2318.30
1019.64	2480.09
1019.80	2533.34
1019.96	2471.90
1020.12	2342.88
1020.27	2342.88
1020.43	2367.45
1020.59	2490.33
1020.74	2373.60
1020.90	2381.79
1021.06	2289.63
1021.22	2494.43
1021.37	2256.86
1021.53	2359.26
1021.69	2379.74
1021.84	2201.57
1022.00	2246.62
1022.16	2365.40
1022.31	2320.35
1022.47	2359.26
1022.63	2375.64
1022.79	2240.48
1022.94	2277.34
1023.10	2277.34
1023.26	2199.52
1023.41	2277.34
1023.57	2205.66
1023.73	2271.20
1023.88	2306.01
1024.04	2193.37
1024.20	2181.09
1024.35	2324.44
1024.51	2211.81
1024.67	2316.25
1024.82	2242.53
1024.98	2234.33
1025.14	2291.68
1025.29	2191.33
1025.45	2248.67
1025.61	2213.85
1025.76	2189.28
1025.92	2217.95
1026.08	2254.81
1026.23	2267.10
1026.39	2299.87
1026.55	2162.66
1026.70	2168.80
1026.86	2260.96
1027.02	2140.13
1027.17	2172.89
1027.33	2281.44
1027.48	2166.75
1027.64	2205.66
1027.80	2033.63
1027.95	2185.18
1028.11	2027.49
1028.27	2189.28
1028.42	2197.47
1028.58	2121.70
1028.73	2125.79
1028.89	2015.20
1029.05	2179.04
1029.20	2170.85
>>>>>End Processed Spectral Data<<<<<
