SpectraSuite Data File
++++++++++++++++++++++++++++++++++++
Date: Fri Jun 02 14:47:54 CEST 2017
User: INFO_000
Dark Spectrum Present: No
Reference Spectrum Present: No
Number of Sampled Component Spectra: 1
Spectrometers: USB4H00879
Integration Time (usec): 80000 (USB4H00879)
Spectra Averaged: 1 (USB4H00879)
Boxcar Smoothing: 0 (USB4H00879)
Correct for Electrical Dark: No (USB4H00879)
Strobe/Lamp Enabled: No (USB4H00879)
Correct for Detector Non-linearity: No (USB4H00879)
Correct for Stray Light: No (USB4H00879)
Number of Pixels in Processed Spectrum: 3648
>>>>>Begin Processed Spectral Data<<<<<
345.13	1224.69
345.34	1224.69
345.56	1224.69
345.78	1224.69
345.99	1255.40
346.21	1718.25
346.42	1710.05
346.64	1673.19
346.86	1787.88
347.07	1581.03
347.29	1687.53
347.50	1630.18
347.72	1665.00
347.94	1789.92
348.15	1640.42
348.37	1601.51
348.59	1691.62
348.80	1632.23
349.02	1730.53
349.23	1837.03
349.45	1667.05
349.67	1816.55
349.88	1748.97
350.10	1931.23
350.31	1769.44
350.53	1730.53
350.75	1927.14
350.96	1755.11
351.18	1826.79
351.39	1773.54
351.61	1781.73
351.82	1806.31
352.04	1839.08
352.26	1794.02
352.47	1843.17
352.69	1861.60
352.90	1714.15
353.12	1808.36
353.34	1787.88
353.55	1853.41
353.77	1869.80
353.98	1820.64
354.20	1869.80
354.41	1828.84
354.63	1839.08
354.85	2021.35
355.06	1783.78
355.28	1724.39
355.49	1808.36
355.71	1740.77
355.92	1855.46
356.14	1894.37
356.35	1759.21
356.57	1822.69
356.79	1898.47
357.00	1869.80
357.22	1933.28
357.43	1714.15
357.65	1920.99
357.86	1798.12
358.08	1898.47
358.29	1841.12
358.51	1955.81
358.72	1904.61
358.94	1857.51
359.16	1933.28
359.37	1880.04
359.59	1888.23
359.80	1970.15
360.02	1953.76
360.23	1920.99
360.45	1941.47
360.66	1920.99
360.88	1861.60
361.09	1820.64
361.31	1953.76
361.52	1849.32
361.74	1994.72
361.95	2021.35
362.17	1941.47
362.38	1966.05
362.60	1957.86
362.81	1974.24
363.03	1886.18
363.24	1894.37
363.46	2037.73
363.67	1966.05
363.89	1865.70
364.10	1992.67
364.32	1880.04
364.53	2007.01
364.75	1904.61
364.96	2027.49
365.18	1990.63
365.39	1980.39
365.61	1920.99
365.82	2047.97
366.04	2013.15
366.25	1880.04
366.47	2033.63
366.68	1966.05
366.90	1877.99
367.11	2013.15
367.33	2033.63
367.54	2052.06
367.76	1937.38
367.97	2056.16
368.19	1939.43
368.40	2076.64
368.62	1912.80
368.83	1951.71
369.05	2052.06
369.26	2017.25
369.48	1966.05
369.69	1929.19
369.91	2017.25
370.12	1961.95
370.33	2054.11
370.55	1972.19
370.76	1994.72
370.98	2064.35
371.19	2043.87
371.41	1982.43
371.62	2019.30
371.84	1931.23
372.05	2152.42
372.27	2017.25
372.48	2052.06
372.69	2115.55
372.91	2146.27
373.12	2088.93
373.34	2013.15
373.55	2072.54
373.77	2117.60
373.98	2035.68
374.20	2174.94
374.41	2269.15
374.62	2088.93
374.84	2109.41
375.05	2144.22
375.27	2158.56
375.48	2187.23
375.70	2111.46
375.91	2174.94
376.12	2297.82
376.34	2078.69
376.55	2078.69
376.77	2166.75
376.98	2097.12
377.19	2105.31
377.41	2164.70
377.62	2166.75
377.84	2201.57
378.05	2371.55
378.27	2146.27
378.48	2281.44
378.69	2275.29
378.91	2287.58
379.12	2213.85
379.34	2254.81
379.55	2293.72
379.76	2207.71
379.98	2254.81
380.19	2281.44
380.41	2183.13
380.62	2265.05
380.83	2189.28
381.05	2252.77
381.26	2418.65
381.47	2224.09
381.69	2236.38
381.90	2392.03
382.12	2322.40
382.33	2183.13
382.54	2322.40
382.76	2293.72
382.97	2365.40
383.19	2234.33
383.40	2410.46
383.61	2265.05
383.83	2295.77
384.04	2306.01
384.25	2346.97
384.47	2336.73
384.68	2338.78
384.89	2342.88
385.11	2312.16
385.32	2318.30
385.54	2289.63
385.75	2338.78
385.96	2449.37
386.18	2361.31
386.39	2414.56
386.60	2299.87
386.82	2435.03
387.03	2420.70
387.24	2494.43
387.46	2529.24
387.67	2396.12
387.88	2486.23
388.10	2516.95
388.31	2394.08
388.52	2496.47
388.74	2496.47
388.95	2404.32
389.16	2447.32
389.38	2519.00
389.59	2582.49
389.80	2529.24
390.02	2523.10
390.23	2551.77
390.44	2648.02
390.66	2570.20
390.87	2516.95
391.08	2600.92
391.30	2645.98
391.51	2660.31
391.72	2650.07
391.94	2553.82
392.15	2621.40
392.36	2592.73
392.58	2637.78
392.79	2609.11
393.00	2738.13
393.22	2756.57
393.43	2787.29
393.64	2793.43
393.85	2805.72
394.07	2650.07
394.28	2764.76
394.49	2707.41
394.71	2746.33
394.92	2838.48
395.13	2723.80
395.35	2736.09
395.56	2760.66
395.77	2822.10
395.98	2789.33
396.20	2861.01
396.41	2877.40
396.62	2881.49
396.84	2813.91
397.05	2756.57
397.26	2846.68
397.47	2936.79
397.69	2795.48
397.90	2914.26
398.11	2951.12
398.32	2887.64
398.54	2762.71
398.75	2930.64
398.96	2842.58
399.18	3045.33
399.39	2981.84
399.60	2992.08
399.81	2977.75
400.03	2885.59
400.24	3209.17
400.45	3006.42
400.66	3067.86
400.88	3100.62
401.09	3084.24
401.30	3125.20
401.51	3256.27
401.73	3035.09
401.94	3086.29
402.15	3155.92
402.36	3117.01
402.58	3145.68
402.79	3129.30
403.00	3176.40
403.21	3182.54
403.43	3205.07
403.64	3293.13
403.85	3194.83
404.06	3256.27
404.27	3149.78
404.49	3186.64
404.70	3157.97
404.91	3284.94
405.12	3258.32
405.34	3305.42
405.55	3377.10
405.76	3149.78
405.97	3223.50
406.19	3465.16
406.40	3192.78
406.61	3262.41
406.82	3295.18
407.03	3248.08
407.25	3260.37
407.46	3471.31
407.67	3375.05
407.88	3383.24
408.09	3348.43
408.31	3346.38
408.52	3262.41
408.73	3364.81
408.94	3260.37
409.15	3362.76
409.37	3477.45
409.58	3502.03
409.79	3477.45
410.00	3528.65
410.21	3485.64
410.43	3418.06
410.64	3321.81
410.85	3579.85
411.06	3442.64
411.27	3424.20
411.48	3596.23
411.70	3579.85
411.91	3561.42
412.12	3608.52
412.33	3622.86
412.54	3512.27
412.76	3653.58
412.97	3649.48
413.18	3493.83
413.39	3665.86
413.60	3717.06
413.81	3690.44
414.03	3594.19
414.24	3583.95
414.45	3829.70
414.66	3643.34
414.87	3612.62
415.08	3645.38
415.30	3715.02
415.51	3770.31
415.72	3651.53
415.93	3784.65
416.14	3706.82
416.35	3680.20
416.56	3895.24
416.78	3821.51
416.99	3833.80
417.20	3878.85
417.41	3905.48
417.62	3915.72
417.83	3897.28
418.04	3841.99
418.26	3960.77
418.47	3909.57
418.68	3958.72
418.89	3954.63
419.10	4065.22
419.31	3952.58
419.52	4020.16
419.73	3964.87
419.95	4038.59
420.16	4052.93
420.37	3962.82
420.58	4075.46
420.79	4001.73
421.00	4071.36
421.21	4136.90
421.42	4108.23
421.63	4091.84
421.85	4011.97
422.06	4157.38
422.27	4208.58
422.48	4284.35
422.69	4220.86
422.90	4300.73
423.11	4198.34
423.32	4304.83
423.53	4435.90
423.75	4247.49
423.96	4489.15
424.17	4396.99
424.38	4460.48
424.59	4372.41
424.80	4454.33
425.01	4497.34
425.22	4353.98
425.43	4364.22
425.64	4468.67
425.85	4622.27
426.06	4476.86
426.28	4599.74
426.49	4394.94
426.70	4521.92
426.91	4546.49
427.12	4636.60
427.33	4648.89
427.54	4585.40
427.75	4804.53
427.96	4730.81
428.17	4673.46
428.38	4716.47
428.59	4835.25
428.80	4693.94
429.01	4816.82
429.23	4796.34
429.44	4921.27
429.65	4837.30
429.86	4988.85
430.07	4886.45
430.28	4892.60
430.49	4853.69
430.70	5003.19
430.91	5107.63
431.12	4978.61
431.33	5097.39
431.54	5095.35
431.75	5185.46
431.96	4949.94
432.17	5015.48
432.38	5142.45
432.59	5291.95
432.80	5298.10
433.01	5160.88
433.22	5152.69
433.43	5287.86
433.64	5253.04
433.85	5195.70
434.06	5394.35
434.27	5185.46
434.49	5412.78
434.70	5375.92
434.91	5427.12
435.12	5343.15
435.33	5345.20
435.54	5509.04
435.75	5210.03
435.96	5439.40
436.17	5412.78
436.38	5568.43
436.59	5644.20
436.80	5416.88
437.01	5840.81
437.22	5652.39
437.43	5552.04
437.64	5506.99
437.85	5631.91
438.06	5674.92
438.27	5519.28
438.48	5765.03
438.69	5875.62
438.90	5795.75
439.11	5781.42
439.32	5820.33
439.53	5760.94
439.74	5808.04
439.95	5842.85
440.16	5955.49
440.37	5814.18
440.57	5730.22
440.78	5892.01
440.99	5941.16
441.20	5830.57
441.41	5877.67
441.62	5957.54
441.83	5803.94
442.04	6168.48
442.25	6061.99
442.46	6043.56
442.67	6223.78
442.88	6485.92
443.09	6133.67
443.30	6131.62
443.51	6127.52
443.72	6457.25
443.93	6156.19
444.14	6293.41
444.35	6098.85
444.56	6289.31
444.77	6332.32
444.98	6211.49
445.19	6358.94
445.40	6182.82
445.61	6338.46
445.81	6432.67
446.02	6428.57
446.23	6447.01
446.44	6270.88
446.65	6467.49
446.86	6432.67
447.07	6414.24
447.28	6746.01
447.49	6541.21
447.70	6623.13
447.91	6518.68
448.12	6561.69
448.33	6707.10
448.54	6678.43
448.74	6772.63
448.95	6684.57
449.16	6829.98
449.37	7026.58
449.58	6703.00
449.79	6959.00
450.00	6748.06
450.21	7098.26
450.42	6989.72
450.63	6897.56
450.84	6922.13
451.05	6995.86
451.25	7061.40
451.46	6821.78
451.67	7231.38
451.88	7301.01
452.09	7112.60
452.30	7126.93
452.51	7083.92
452.72	7157.65
452.93	7364.50
453.13	7081.88
453.34	7184.27
453.55	7055.25
453.76	7233.43
453.97	7823.24
454.18	7180.18
454.39	7446.41
454.60	7384.98
454.81	7329.68
455.01	7782.28
455.22	7475.09
455.43	7421.84
455.64	7608.20
455.85	7837.58
456.06	7921.54
456.27	7737.23
456.48	7694.22
456.68	7759.75
456.89	7860.10
457.10	7919.50
457.31	7978.89
457.52	7810.95
457.73	7958.41
457.94	8146.82
458.14	8064.90
458.35	8204.16
458.56	8025.99
458.77	7995.27
458.98	8095.62
459.19	8368.00
459.39	8269.70
459.60	8494.97
459.81	8277.89
460.02	8339.33
460.23	8515.45
460.44	8669.05
460.65	8675.20
460.85	8531.84
461.06	8568.70
461.27	8417.15
461.48	8912.76
461.69	9066.36
461.89	8517.50
462.10	8718.20
462.31	8683.39
462.52	8753.02
462.73	8861.56
462.94	8976.25
463.14	9025.40
463.35	8996.73
463.56	9201.52
463.77	9441.14
463.98	8990.58
464.18	9148.28
464.39	9326.45
464.60	9592.69
464.81	9598.83
465.02	9400.18
465.23	9766.76
465.43	9496.43
465.64	9719.66
465.85	9662.32
466.06	9613.17
466.27	10149.73
466.47	9910.12
466.68	9944.94
466.89	9781.10
467.10	10059.62
467.30	9918.31
467.51	10207.08
467.72	10325.86
467.93	9838.44
468.14	10221.41
468.34	10420.06
468.55	10461.02
468.76	10522.46
468.97	10489.70
469.17	10504.03
469.38	10616.67
469.59	10837.85
469.80	10723.16
470.01	10757.98
470.21	10909.53
470.42	11165.53
470.63	11192.15
470.84	10768.22
471.04	11011.93
471.25	11124.57
471.46	11034.46
471.67	11546.45
471.87	11497.30
472.08	11525.97
472.29	11732.81
472.50	11376.47
472.70	11550.54
472.91	11775.82
473.12	11880.27
473.33	11900.75
473.53	12246.85
473.74	11898.70
473.95	12269.38
474.16	12324.68
474.36	12365.64
474.57	12502.85
474.78	12453.70
474.99	12488.51
475.19	12275.52
475.40	12971.83
475.61	12980.03
475.81	12951.35
476.02	13184.82
476.23	13123.38
476.44	13082.42
476.64	13481.78
476.85	13502.26
477.06	13287.22
477.27	13559.60
477.47	13844.27
477.68	13594.42
477.89	13926.19
478.09	13981.48
478.30	13741.87
478.51	13965.10
478.71	14059.31
478.92	14165.80
479.13	14219.05
479.34	14458.66
479.54	14370.60
479.75	14491.43
479.96	14626.59
480.16	14634.78
480.37	14716.70
480.58	15011.61
480.78	15095.58
480.99	14968.60
481.20	14870.30
481.41	15372.05
481.61	15449.88
481.82	15472.40
482.03	15423.25
482.23	15546.13
482.44	15681.30
482.65	16013.07
482.85	16002.83
483.06	15998.73
483.27	16045.84
483.47	16056.08
483.68	16015.12
483.89	16236.30
484.09	16273.16
484.30	16453.38
484.51	16723.71
484.71	16713.47
484.92	16776.96
485.13	16807.68
485.33	17086.20
485.54	16797.44
485.75	17211.13
485.95	17256.18
486.16	17080.06
486.37	17465.08
486.57	17196.79
486.78	17442.55
486.98	17622.77
487.19	17551.09
487.40	17776.37
487.60	17571.57
487.81	18089.71
488.02	17923.82
488.22	17968.88
488.43	18319.08
488.64	18210.54
488.84	18323.18
489.05	18570.98
489.25	18249.45
489.46	18657.00
489.67	18671.33
489.87	18736.87
490.08	18919.14
490.29	18826.98
490.49	19482.33
490.70	19117.79
490.90	19158.75
491.11	19259.10
491.32	19381.98
491.52	19652.31
491.73	19359.45
491.94	19674.84
492.14	19572.44
492.35	19979.98
492.55	20043.47
492.76	20203.21
492.97	20096.72
493.17	20176.59
493.38	20096.72
493.58	20698.82
493.79	20395.72
494.00	20510.41
494.20	20481.74
494.41	20594.37
494.61	20723.40
494.82	20686.53
495.02	20645.57
495.23	21032.64
495.44	21042.88
495.64	21436.09
495.85	21176.00
496.05	21319.35
496.26	21362.36
496.47	21739.19
496.67	21470.90
496.88	21968.56
497.08	21720.76
497.29	21382.84
497.49	21798.58
497.70	22015.66
497.91	22009.52
498.11	22245.04
498.32	22116.01
498.52	22490.79
498.73	22507.18
498.93	22621.86
499.14	22679.21
499.34	22433.45
499.55	22869.67
499.76	22654.63
499.96	23090.85
500.17	22937.25
500.37	23123.62
500.58	23002.78
500.78	23074.46
500.99	23273.12
501.19	23350.94
501.40	23482.01
501.60	23332.51
501.81	23527.06
502.02	23797.40
502.22	23695.00
502.43	23912.08
502.63	23903.89
502.84	23948.95
503.04	24008.34
503.25	23809.68
503.45	24153.74
503.66	24327.82
503.86	24352.40
504.07	24082.06
504.27	24202.89
504.48	24823.43
504.68	24977.03
504.89	25046.66
505.09	24960.64
505.30	24903.30
505.50	24942.21
505.71	24854.15
505.91	25241.21
506.12	24749.70
506.32	25056.90
506.53	25101.95
506.73	25132.67
506.94	25484.92
507.14	25167.49
507.35	25323.13
507.55	25874.04
507.76	25523.83
507.96	25579.13
508.17	25720.44
508.37	25661.05
508.58	25765.49
508.78	25601.66
508.99	25992.82
509.19	25806.45
509.40	26144.37
509.60	26035.83
509.81	26236.53
510.01	25998.96
510.22	26414.70
510.42	26404.46
510.63	26418.80
510.83	26234.48
511.04	26422.89
511.24	26531.44
511.44	26513.00
511.65	26685.03
511.85	26543.72
512.06	26660.46
512.26	26451.56
512.47	27213.41
512.67	26932.84
512.88	26826.34
513.08	26658.41
513.29	26664.55
513.49	27070.05
513.69	27047.52
513.90	26906.21
514.10	27061.86
514.31	27184.74
514.51	27303.52
514.72	27139.68
514.92	27137.63
515.13	27295.33
515.33	27479.64
515.53	27629.15
515.74	27655.77
515.94	27647.58
516.15	27588.19
516.35	27512.41
516.56	27784.79
516.76	27633.24
516.96	27625.05
517.17	28165.71
517.37	28218.96
517.58	27885.14
517.78	28292.69
517.99	28180.05
518.19	28139.09
518.39	28755.53
518.60	28257.87
518.80	28413.52
519.01	28464.72
519.21	28374.61
519.41	28563.02
519.62	28814.92
519.82	28468.81
520.03	28933.70
520.23	28778.06
520.43	28659.27
520.64	29089.35
520.84	28978.76
521.05	29015.62
521.25	29161.03
521.45	29021.77
521.66	29572.67
521.86	29179.46
522.07	29306.43
522.27	29666.88
522.47	29412.93
522.68	29670.97
522.88	29922.87
523.08	29617.72
523.29	29726.27
523.49	29967.93
523.70	29926.97
523.90	29994.55
524.10	29951.54
524.31	30086.71
524.51	29892.15
524.71	30576.17
524.92	30690.86
525.12	30398.00
525.33	30426.67
525.53	30684.72
525.73	30895.66
525.94	30621.23
526.14	30862.89
526.34	30950.95
526.55	30838.31
526.75	31223.33
526.95	31405.60
527.16	31217.19
527.36	31024.68
527.56	31209.00
527.77	31823.39
527.97	31514.14
528.17	31510.05
528.38	31467.04
528.58	31960.60
528.78	31938.07
528.99	31796.76
529.19	32056.85
529.39	31591.97
529.60	32452.11
529.80	32302.61
530.00	32069.14
530.21	32687.63
530.41	32615.95
530.61	32867.85
530.82	32738.83
531.02	32677.39
531.22	33031.69
531.43	32634.38
531.63	33048.07
531.83	33463.81
532.04	33693.18
532.24	33410.56
532.44	33396.23
532.64	33580.54
532.85	33836.54
533.05	33807.87
533.25	33938.94
533.46	34092.54
533.66	34260.47
533.86	34061.82
534.07	34018.81
534.27	34242.04
534.47	34829.80
534.67	34631.15
534.88	34424.31
535.08	34852.33
535.28	35059.18
535.49	35014.12
535.69	35024.36
535.89	35220.97
536.09	35288.55
536.30	35544.55
536.50	35472.87
536.70	35591.65
536.91	35841.50
537.11	35845.60
537.31	35859.93
537.51	35882.46
537.72	36021.72
537.92	36214.23
538.12	36459.99
538.32	36459.99
538.53	36761.04
538.73	36570.58
538.93	36492.76
539.13	36328.92
539.34	36724.18
539.54	36564.43
539.74	37246.41
539.94	37146.06
540.15	36738.51
540.35	37416.39
540.55	37174.73
540.75	37125.58
540.96	37625.28
541.16	37123.53
541.36	37496.26
541.56	37557.70
541.77	37963.20
541.97	37856.70
542.17	37803.46
542.37	37901.76
542.58	37762.50
542.78	37918.14
542.98	38028.73
543.18	38307.26
543.38	38884.78
543.59	38559.16
543.79	38174.14
543.99	38487.48
544.19	38407.61
544.40	38679.99
544.60	39058.86
544.80	38743.47
545.00	39032.24
545.20	39101.87
545.41	38983.09
545.61	38878.64
545.81	39196.07
546.01	39450.02
546.21	39345.58
546.42	39347.62
546.62	39703.97
546.82	39034.28
547.02	39237.03
547.22	39763.36
547.43	39407.01
547.63	39456.17
547.83	39773.60
548.03	39685.54
548.23	39691.68
548.44	39876.00
548.64	40201.63
548.84	40048.03
549.04	40289.69
549.24	40043.93
549.45	40752.53
549.65	40246.68
549.85	40269.21
550.05	40568.21
550.25	40086.94
550.45	40822.16
550.66	40349.08
550.86	40471.96
551.06	40650.13
551.26	40451.48
551.46	40826.26
551.66	40717.71
551.87	40813.97
552.07	41022.86
552.27	40730.00
552.47	41188.75
552.67	41325.96
552.87	40850.83
553.07	40613.27
553.28	41051.53
553.48	41248.14
553.68	41350.54
553.88	41442.70
554.08	41139.60
554.28	41188.75
554.48	41076.11
554.69	41661.83
554.89	41657.73
555.09	41624.96
555.29	41100.68
555.49	41706.88
555.69	41362.82
555.89	41444.74
556.10	41889.15
556.30	41215.37
556.50	41819.52
556.70	41477.51
556.90	41311.63
557.10	42243.45
557.30	41590.15
557.50	41846.15
557.70	41962.88
557.91	42306.94
558.11	42130.81
558.31	42030.46
558.51	41479.56
558.71	42190.20
558.91	41942.40
559.11	41680.26
559.31	41891.20
559.51	41809.28
559.72	42284.41
559.92	42151.29
560.12	42026.37
560.32	42448.25
560.52	41868.67
560.72	42487.16
560.92	42483.06
561.12	42100.09
561.32	42759.54
561.52	42376.57
561.72	42726.77
561.93	42272.12
562.13	42902.90
562.33	42575.22
562.53	43017.58
562.73	42583.41
562.93	42659.19
563.13	42724.72
563.33	42476.92
563.53	42890.61
563.73	42679.67
563.93	42782.07
564.13	43435.37
564.33	42978.67
564.53	43093.36
564.74	43455.85
564.94	43138.41
565.14	42900.85
565.34	42700.15
565.54	43029.87
565.74	43177.33
565.94	43146.61
566.14	43046.26
566.34	43453.80
566.54	43662.69
566.74	43212.14
566.94	43300.20
567.14	43523.43
567.34	43406.70
567.54	43611.49
567.74	43279.72
567.94	43283.82
568.14	43701.61
568.34	43443.56
568.54	43644.26
568.74	44062.05
568.94	43900.26
569.14	43883.87
569.34	43887.97
569.54	43840.87
569.75	43896.16
569.95	43773.28
570.15	44225.89
570.35	43980.13
570.55	44125.53
570.75	44037.47
570.95	44033.38
571.15	44492.12
571.35	44522.84
571.55	44301.66
571.75	44197.21
571.95	44107.10
572.15	44326.24
572.35	44997.97
572.55	44764.50
572.75	44795.22
572.95	44610.90
573.15	44793.17
573.35	44676.44
573.55	44891.48
573.75	44774.74
573.95	44885.33
574.15	45139.28
574.35	45108.56
574.55	45286.73
574.75	44518.74
574.95	44924.24
575.15	44909.91
575.34	45032.78
575.54	45319.50
575.74	45266.25
575.94	45561.16
576.14	45450.57
576.34	45847.88
576.54	45753.67
576.74	45800.77
576.94	45284.68
577.14	45815.11
577.34	46484.79
577.54	45653.32
577.74	45878.60
577.94	46009.67
578.14	45991.23
578.34	46593.34
578.54	45675.85
578.74	45995.33
578.94	46888.24
579.14	46060.87
579.34	46554.43
579.54	46630.20
579.74	46658.87
579.94	46314.81
580.13	47002.93
580.33	46730.55
580.53	46964.02
580.73	46765.37
580.93	46843.19
581.13	46998.83
581.33	47254.83
581.53	47101.23
581.73	47351.09
581.93	47381.80
582.13	47154.48
582.33	47525.16
582.53	47101.23
582.73	47523.11
582.92	47822.12
583.12	47789.35
583.32	47346.99
583.52	47150.38
583.72	47809.83
583.92	47842.60
584.12	47838.50
584.32	48420.13
584.52	48071.97
584.72	48049.44
584.92	48295.20
585.11	48633.11
585.31	47754.54
585.51	48438.56
585.71	48004.39
585.91	48633.11
586.11	48518.43
586.31	48487.71
586.51	48842.01
586.71	48428.32
586.91	48772.38
587.10	48776.47
587.30	48600.35
587.50	49116.43
587.70	48524.57
587.90	48907.54
588.10	49151.25
588.30	48813.34
588.50	49278.22
588.69	49296.66
588.89	48893.21
589.09	49200.40
589.29	49061.14
589.49	49466.64
589.69	48930.07
589.89	49188.11
590.08	49095.95
590.28	49224.98
590.48	49091.86
590.68	49202.45
590.88	49546.51
591.08	49267.98
591.28	49280.27
591.47	50093.32
591.67	49923.33
591.87	49806.60
592.07	49884.42
592.27	50150.66
592.47	50015.49
592.67	50095.36
592.86	49585.42
593.06	49976.58
593.26	50019.59
593.46	50529.53
593.66	49632.52
593.86	50089.22
594.05	50367.74
594.25	50398.46
594.45	50078.98
594.65	50437.37
594.85	49849.61
595.05	50668.79
595.24	50644.22
595.44	50484.48
595.64	50484.48
595.84	50414.85
596.04	50668.79
596.23	50752.76
596.43	50963.70
596.63	50638.08
596.83	50504.96
597.03	51039.48
597.22	51088.63
597.42	50681.08
597.62	51193.07
597.82	51215.60
598.02	51393.78
598.21	51354.86
598.41	50808.06
598.61	51254.51
598.81	51383.54
599.01	51496.17
599.20	51238.13
599.40	51084.53
599.60	51490.03
599.80	51453.17
600.00	51674.35
600.19	51483.89
600.39	51313.90
600.59	51561.71
600.79	52204.77
600.98	51637.48
601.18	51684.59
601.38	52212.96
601.58	52126.95
601.78	51868.90
601.97	51770.60
602.17	52536.54
602.37	51895.53
602.57	52063.46
602.76	52280.55
602.96	52063.46
603.16	52327.65
603.36	52180.20
603.55	52657.37
603.75	52249.83
603.95	52393.18
604.15	52296.93
604.34	52366.56
604.54	52718.81
604.74	52770.01
604.94	52665.56
605.13	52700.38
605.33	52593.89
605.53	52393.18
605.73	52890.84
605.92	52679.90
606.12	52436.19
606.32	52690.14
606.52	52712.67
606.71	52606.17
606.91	52999.38
607.11	52886.74
607.30	53511.38
607.50	52978.90
607.70	53097.69
607.90	52684.00
608.09	52741.34
608.29	53036.25
608.49	53171.41
608.68	52987.10
608.88	53292.24
609.08	53173.46
609.28	53390.55
609.47	52806.87
609.67	53437.65
609.87	53458.13
610.06	53474.51
610.26	53460.18
610.46	53744.84
610.66	53245.14
610.85	53294.29
611.05	53406.93
611.25	53232.85
611.44	53361.87
611.64	53441.74
611.84	53511.38
612.03	53503.18
612.23	53036.25
612.43	53501.14
612.62	53589.20
612.82	53484.75
613.02	53294.29
613.21	53896.39
613.41	53355.73
613.61	53861.58
613.80	53413.07
614.00	53638.35
614.20	53351.63
614.39	53425.36
614.59	53720.27
614.79	53533.90
614.98	53732.56
615.18	54203.59
615.38	53732.56
615.57	53814.47
615.77	54017.22
615.97	54101.19
616.16	54201.54
616.36	53898.44
616.56	53957.83
616.75	53437.65
616.95	53925.07
617.15	54326.47
617.34	53656.78
617.54	53605.58
617.74	54088.90
617.93	54490.30
618.13	53832.91
618.32	53861.58
618.52	53714.12
618.72	54252.74
618.91	53658.83
619.11	53374.16
619.31	53707.98
619.50	53538.00
619.70	53738.70
619.90	53961.93
620.09	54074.57
620.29	54127.81
620.48	54027.46
620.68	54330.56
620.88	53617.87
621.07	53929.16
621.27	53773.52
621.46	53998.79
621.66	53812.43
621.86	53994.70
622.05	53667.02
622.25	54453.44
622.44	53888.20
622.64	53925.07
622.84	53892.30
623.03	53722.32
623.23	54095.05
623.42	53607.63
623.62	54174.92
623.82	54543.55
624.01	54113.48
624.21	54588.61
624.40	54369.47
624.60	54410.43
624.80	53742.80
624.99	54219.97
625.19	53867.72
625.38	53980.36
625.58	54346.95
625.77	53941.45
625.97	54314.18
626.17	54320.32
626.36	53900.49
626.56	54262.98
626.75	53454.03
626.95	54344.90
627.14	53994.70
627.34	54856.89
627.54	53880.01
627.73	54150.34
627.93	54252.74
628.12	54215.88
628.32	53775.56
628.51	54396.10
628.71	54338.75
628.90	54179.01
629.10	53939.40
629.30	55002.30
629.49	54385.86
629.69	54336.71
629.88	54224.07
630.08	54547.65
630.27	54781.12
630.47	54359.23
630.66	54006.98
630.86	55108.79
631.05	54447.30
631.25	55043.26
631.44	55073.98
631.64	54549.70
631.84	54303.94
632.03	55166.13
632.23	54897.85
632.42	55041.21
632.62	54867.13
632.81	54609.09
633.01	54858.94
633.20	54496.45
633.40	55276.72
633.59	54637.76
633.79	54328.52
633.98	55116.98
634.18	54944.95
634.37	54877.37
634.57	54785.21
634.76	54867.13
634.96	54772.92
635.15	55465.14
635.35	54992.06
635.54	55033.02
635.74	55317.68
635.93	55055.54
636.13	55014.58
636.32	55172.28
636.52	54584.51
636.71	55106.74
636.91	55039.16
637.10	55405.75
637.30	55043.26
637.49	55329.97
637.69	54899.90
637.88	55530.67
638.08	55133.37
638.27	55518.38
638.46	55233.72
638.66	54949.05
638.85	55332.02
639.05	55344.31
639.24	55608.50
639.44	54961.34
639.63	55180.47
639.83	55327.92
640.02	55133.37
640.22	55227.57
640.41	55342.26
640.61	55383.22
640.80	55338.16
640.99	55581.87
641.19	55600.30
641.38	55184.57
641.58	54957.24
641.77	55237.81
641.97	55246.00
642.16	55612.59
642.36	55893.16
642.55	55708.85
642.74	55342.26
642.94	56171.69
643.13	55565.49
643.33	55653.55
643.52	55714.99
643.72	55628.98
643.91	55616.69
644.10	55780.52
644.30	56075.43
644.49	55850.16
644.69	55979.18
644.88	55882.92
645.08	55882.92
645.27	55563.44
645.46	55317.68
645.66	55948.46
645.85	55854.25
646.05	56016.04
646.24	56145.06
646.43	56071.34
646.63	55901.36
646.82	56509.60
647.02	55702.70
647.21	56265.89
647.40	55915.69
647.60	55852.20
647.79	56093.86
647.99	56067.24
648.18	55772.33
648.37	56151.21
648.57	56575.14
648.76	56392.87
648.96	56036.52
649.15	55989.42
649.34	56401.06
649.54	56196.26
649.73	55803.05
649.92	56269.99
650.12	56122.54
650.31	55866.54
650.51	56255.65
650.70	56575.14
650.89	56341.67
651.09	56673.44
651.28	56415.40
651.47	56534.18
651.67	56390.82
651.86	56407.20
652.06	56437.92
652.25	56167.59
652.44	56243.37
652.64	56220.84
652.83	55612.59
653.02	55991.47
653.22	56147.11
653.41	56128.68
653.60	55981.23
653.80	56308.90
653.99	56001.71
654.18	56155.30
654.38	55866.54
654.57	55688.37
654.76	56313.00
654.96	55942.31
655.15	55923.88
655.34	56222.89
655.54	55764.14
655.73	56345.76
655.92	56143.02
656.12	56269.99
656.31	56087.72
656.50	56235.17
656.70	56036.52
656.89	55891.12
657.08	56439.97
657.28	56147.11
657.47	56067.24
657.66	56444.07
657.86	56149.16
658.05	56052.90
658.24	56065.19
658.43	56255.65
658.63	56413.35
658.82	56882.33
659.01	56100.01
659.21	56337.57
659.40	56200.36
659.59	55874.73
659.79	56067.24
659.98	56220.84
660.17	56153.26
660.36	55948.46
660.56	56292.52
660.75	56282.28
660.94	56040.62
661.14	55964.84
661.33	56050.86
661.52	55848.11
661.71	56372.39
661.91	55989.42
662.10	56282.28
662.29	56427.68
662.49	56372.39
662.68	56198.31
662.87	56040.62
663.06	56194.21
663.26	55688.37
663.45	56042.66
663.64	55829.68
663.83	56372.39
664.03	56143.02
664.22	56224.93
664.41	55991.47
664.60	55952.55
664.80	55956.65
664.99	55868.59
665.18	55979.18
665.37	55905.45
665.57	56024.23
665.76	55891.12
665.95	56001.71
666.14	55743.66
666.34	56032.42
666.53	55577.78
666.72	56022.19
666.91	55811.24
667.11	55876.78
667.30	55985.32
667.49	55743.66
667.68	55792.81
667.87	55686.32
668.07	55649.45
668.26	56075.43
668.45	56022.19
668.64	55612.59
668.84	55932.07
669.03	56214.69
669.22	55721.13
669.41	56138.92
669.60	55758.00
669.80	55878.83
669.99	55860.40
670.18	55997.61
670.37	55882.92
670.57	56233.13
670.76	55846.06
670.95	56009.90
671.14	55936.17
671.33	55362.74
671.53	56013.99
671.72	55893.16
671.91	55764.14
672.10	55319.73
672.29	55678.13
672.48	55542.96
672.68	56046.76
672.87	55493.81
673.06	55514.29
673.25	55387.31
673.44	55346.36
673.64	55983.27
673.83	55434.42
674.02	55823.53
674.21	55579.82
674.40	55850.16
674.59	54932.67
674.79	55340.21
674.98	55622.83
675.17	55979.18
675.36	55446.71
675.55	55532.72
675.74	55719.09
675.94	55389.36
676.13	55637.17
676.32	55483.57
676.51	55975.08
676.70	55631.02
676.89	55415.99
677.08	55948.46
677.28	55450.80
677.47	55991.47
677.66	55874.73
677.85	55809.20
678.04	55923.88
678.23	55999.66
678.42	55469.23
678.62	55594.16
678.81	55598.26
679.00	55452.85
679.19	56206.50
679.38	55506.10
679.57	55649.45
679.76	55618.74
679.96	56292.52
680.15	55438.51
680.34	55692.46
680.53	55385.27
680.72	56085.67
680.91	56155.30
681.10	55518.38
681.29	55432.37
681.48	55694.51
681.68	55243.96
681.87	55669.93
682.06	55542.96
682.25	55415.99
682.44	55082.17
682.63	55809.20
682.82	55084.22
683.01	55516.34
683.20	54826.17
683.39	55542.96
683.59	55461.04
683.78	55485.62
683.97	55534.77
684.16	55456.95
684.35	55710.89
684.54	55520.43
684.73	55229.62
684.92	55100.60
685.11	55657.65
685.30	55276.72
685.49	55764.14
685.69	55418.03
685.88	55497.91
686.07	55272.63
686.26	55405.75
686.45	55684.27
686.64	54893.75
686.83	55606.45
687.02	55440.56
687.21	55721.13
687.40	55325.88
687.59	55383.22
687.78	54938.81
687.97	55612.59
688.16	55403.70
688.35	55321.78
688.54	55137.46
688.74	55280.82
688.93	55598.26
689.12	55129.27
689.31	55303.35
689.50	55469.23
689.69	55028.92
689.88	55057.59
690.07	55702.70
690.26	54748.35
690.45	55112.89
690.64	54856.89
690.83	54981.82
691.02	54949.05
691.21	54932.67
691.40	55084.22
691.59	55164.09
691.78	54590.66
691.97	55112.89
692.16	54879.42
692.35	55426.23
692.54	55018.68
692.73	55049.40
692.92	54961.34
693.11	54922.43
693.30	54564.03
693.49	55090.36
693.68	55137.46
693.87	55176.37
694.06	54797.50
694.25	54811.84
694.44	54584.51
694.63	55098.55
694.82	54633.66
695.01	55100.60
695.20	54537.41
695.39	55286.96
695.58	54604.99
695.77	54318.28
695.96	54516.93
696.15	54738.11
696.34	54789.31
696.53	54564.03
696.72	54529.22
696.91	54559.94
697.10	54703.29
697.29	54234.31
697.48	55024.82
697.67	54185.16
697.86	53941.45
698.05	54582.46
698.24	54574.27
698.43	54351.04
698.62	54426.82
698.81	54142.15
699.00	54535.36
699.19	53994.70
699.38	54701.25
699.57	53845.19
699.76	54664.38
699.95	53802.19
700.14	54158.53
700.32	54093.00
700.51	54039.75
700.70	54746.30
700.89	54219.97
701.08	54289.60
701.27	54242.50
701.46	54678.72
701.65	53435.60
701.84	54334.66
702.03	54265.03
702.22	54004.94
702.41	53945.54
702.60	54406.34
702.79	53832.91
702.98	53951.69
703.17	53753.04
703.35	53624.01
703.54	53609.68
703.73	53787.85
703.92	54015.18
704.11	53728.46
704.30	53359.83
704.49	53279.96
704.68	53943.50
704.87	53687.50
705.06	53363.92
705.25	53429.46
705.43	54187.21
705.62	53806.28
705.81	53800.14
706.00	53486.80
706.19	53449.94
706.38	53937.35
706.57	53388.50
706.76	53175.51
706.95	53685.45
707.14	53304.53
707.32	53329.11
707.51	52866.27
707.70	53083.35
707.89	53511.38
708.08	53331.15
708.27	53028.05
708.46	53378.26
708.65	52851.93
708.84	53239.00
709.02	53112.02
709.21	53066.97
709.40	53253.33
709.59	53228.76
709.78	52999.38
709.97	53150.93
710.16	52944.09
710.34	52591.84
710.53	52882.65
710.72	52673.76
710.91	52215.01
711.10	52729.05
711.29	52761.82
711.48	52489.44
711.66	52167.91
711.85	51977.45
712.04	52391.14
712.23	52571.36
712.42	52206.82
712.61	52354.27
712.80	51860.71
712.98	52473.06
713.17	52184.29
713.36	52032.74
713.55	51991.78
713.74	51860.71
713.93	51778.79
714.11	51928.30
714.30	51555.57
714.49	52161.76
714.68	51703.02
714.87	51975.40
715.06	52069.61
715.24	51477.74
715.43	51537.13
715.62	51266.80
715.81	51580.14
716.00	51936.49
716.18	51410.16
716.37	50947.32
716.56	51041.53
716.75	51762.41
716.94	51395.82
717.12	51248.37
717.31	51313.90
717.50	51285.23
717.69	51053.81
717.88	51119.35
718.06	51369.20
718.25	51500.27
718.44	51051.76
718.63	51223.79
718.82	50554.11
719.00	51033.33
719.19	50441.47
719.38	50806.01
719.57	50197.76
719.76	50042.12
719.94	49956.10
720.13	50457.85
720.32	50201.86
720.51	50316.54
720.69	50345.22
720.88	50461.95
721.07	50025.73
721.26	49683.72
721.44	49833.22
721.63	49865.99
721.82	49591.56
722.01	49177.87
722.20	49749.26
722.38	49491.21
722.57	48936.21
722.76	49515.79
722.95	49368.33
723.13	49069.33
723.32	49382.67
723.51	49075.48
723.70	49343.76
723.88	48919.83
724.07	48925.97
724.26	49132.82
724.44	48268.58
724.63	49001.75
724.82	49050.90
725.01	48600.35
725.19	48502.04
725.38	48741.66
725.57	48526.62
725.76	48663.83
725.94	48237.86
726.13	48452.89
726.32	48526.62
726.51	48332.06
726.69	48604.44
726.88	48512.28
727.07	48321.82
727.25	47977.76
727.44	48287.01
727.63	48086.31
727.82	48196.90
728.00	47879.46
728.19	47883.56
728.38	48350.49
728.56	48338.21
728.75	48084.26
728.94	47955.24
729.12	48071.97
729.31	47820.07
729.50	47885.61
729.69	48147.75
729.87	48018.72
730.06	47684.90
730.25	47889.70
730.43	47990.05
730.62	47867.17
730.81	48125.22
730.99	47830.31
731.18	47920.42
731.37	47930.66
731.55	47936.80
731.74	47815.97
731.93	47955.24
732.11	47801.64
732.30	48004.39
732.49	47818.02
732.67	47494.44
732.86	47697.19
733.05	47684.90
733.23	47265.07
733.42	47895.85
733.61	47387.95
733.79	47220.02
733.98	47594.79
734.17	47461.68
734.35	47273.26
734.54	47645.99
734.73	47707.43
734.91	47576.36
735.10	46941.49
735.29	47738.15
735.47	47144.24
735.66	47346.99
735.84	47111.47
736.03	47058.23
736.22	47750.44
736.40	47201.58
736.59	47469.87
736.78	47248.69
736.96	47246.64
737.15	46996.79
737.33	46789.94
737.52	47242.54
737.71	47152.43
737.89	47494.44
738.08	46380.35
738.27	46927.16
738.45	47125.81
738.64	47052.08
738.82	46910.77
739.01	46978.36
739.20	46519.61
739.38	46689.59
739.57	46613.82
739.75	46961.97
739.94	46323.01
740.13	46820.66
740.31	46333.24
740.50	46513.47
740.68	46708.02
740.87	46402.88
741.06	46605.62
741.24	46720.31
741.43	46267.71
741.61	46603.58
741.80	46583.10
741.99	46392.64
742.17	46449.98
742.36	46535.99
742.54	45733.19
742.73	46101.82
742.91	46531.90
743.10	46030.15
743.29	46349.63
743.47	46671.16
743.66	46200.13
743.84	46454.08
744.03	46210.37
744.21	46191.94
744.40	46044.48
744.59	46032.19
744.77	46083.39
744.96	46433.60
745.14	45886.79
745.33	46290.24
745.51	45997.38
745.70	45649.22
745.88	45501.77
746.07	45692.23
746.26	45651.27
746.44	45856.07
746.63	45909.32
746.81	45593.93
747.00	45817.16
747.18	45641.03
747.37	45456.71
747.55	45520.20
747.74	46028.10
747.92	45729.09
748.11	45460.81
748.29	45763.91
748.48	45581.64
748.66	45409.61
748.85	45165.90
749.03	45469.00
749.22	45368.65
749.41	45530.44
749.59	45616.46
749.78	45354.32
749.96	44893.52
750.15	45184.33
750.33	45399.37
750.52	45595.98
750.70	45098.32
750.89	45002.07
751.07	45071.70
751.26	45053.26
751.44	44959.06
751.63	44787.03
751.81	44803.41
752.00	44598.62
752.18	44922.19
752.37	44905.81
752.55	44281.18
752.74	44404.06
752.92	44674.39
753.10	44258.65
753.29	44914.00
753.47	44791.12
753.66	44488.03
753.84	44535.13
754.03	44346.72
754.21	44088.67
754.40	44793.17
754.58	44422.49
754.77	44494.17
754.95	44238.17
755.14	44596.57
755.32	44543.32
755.51	44098.91
755.69	44389.72
755.88	44348.76
756.06	44455.26
756.24	43967.84
756.43	44080.48
756.61	44455.26
756.80	44004.70
756.98	43705.70
757.17	43980.13
757.35	43935.07
757.54	44168.54
757.72	44062.05
757.90	44008.80
758.09	43832.68
758.27	43752.80
758.46	43343.21
758.64	44006.75
758.83	44012.90
759.01	44260.70
759.19	43683.17
759.38	44031.33
759.56	43847.01
759.75	43525.48
759.93	43826.53
760.12	43734.37
760.30	43750.76
760.48	43236.72
760.67	43570.54
760.85	43822.44
761.04	43474.28
761.22	43916.64
761.40	43398.51
761.59	43160.94
761.77	43261.29
761.96	43543.91
762.14	43279.72
762.32	43132.27
762.51	43308.40
762.69	43230.57
762.88	43466.09
763.06	43349.35
763.24	43461.99
763.43	43343.21
763.61	43070.83
763.80	43003.25
763.98	43253.10
764.16	43072.88
764.35	42777.97
764.53	42616.18
764.72	42696.05
764.90	42753.40
765.08	43070.83
765.27	42892.66
765.45	42610.04
765.63	42280.31
765.82	42544.50
766.00	42198.40
766.18	42468.73
766.37	42700.15
766.55	42165.63
766.74	42364.28
766.92	42550.65
767.10	42128.77
767.29	41985.41
767.47	41776.51
767.65	42194.30
767.84	41983.36
768.02	41944.45
768.20	41688.45
768.39	42315.13
768.57	42196.35
768.75	42280.31
768.94	42059.13
769.12	41649.54
769.30	41659.78
769.49	41938.30
769.67	41743.75
769.85	41432.46
770.04	41823.62
770.22	41258.38
770.40	41516.42
770.59	41469.32
770.77	41452.94
770.95	41414.02
771.14	41100.68
771.32	41596.29
771.50	41325.96
771.69	41461.13
771.87	41442.70
772.05	41080.21
772.24	41112.97
772.42	41037.20
772.60	40871.31
772.78	40975.76
772.97	41031.05
773.15	41201.04
773.33	41207.18
773.52	41428.36
773.70	41047.44
773.88	41123.21
774.07	40744.34
774.25	41293.19
774.43	41571.72
774.61	41164.17
774.80	41366.92
774.98	40914.32
775.16	41321.87
775.34	41328.01
775.53	41055.63
775.71	41280.91
775.89	41643.40
776.08	41481.61
776.26	41637.25
776.44	41115.02
776.62	41366.92
776.81	41135.50
776.99	41180.56
777.17	41280.91
777.35	41106.83
777.54	41516.42
777.72	40979.85
777.90	41805.19
778.08	41725.32
778.27	41596.29
778.45	41512.33
778.63	41510.28
778.81	40920.46
779.00	41768.32
779.18	41633.16
779.36	41641.35
779.54	41674.12
779.73	41285.00
779.91	42384.76
780.09	41344.39
780.27	42028.41
780.46	41637.25
780.64	42014.08
780.82	41917.82
781.00	41248.14
781.19	41774.47
781.37	41991.55
781.55	42341.75
781.73	42423.67
781.91	41844.10
782.10	41934.21
782.28	42157.44
782.46	42485.11
782.64	42134.91
782.82	41926.02
783.01	42182.01
783.19	42431.86
783.37	41944.45
783.55	42005.89
783.74	42141.05
783.92	42149.24
784.10	42540.41
784.28	42120.57
784.46	41782.66
784.64	41635.20
784.83	42175.87
785.01	42311.03
785.19	42556.79
785.37	42177.92
785.55	42063.23
785.74	41891.20
785.92	41710.98
786.10	42163.58
786.28	41964.93
786.46	42100.09
786.64	41563.53
786.83	41657.73
787.01	41907.58
787.19	41723.27
787.37	42153.34
787.55	41502.09
787.74	41258.38
787.92	41727.36
788.10	41586.05
788.28	40951.18
788.46	41205.13
788.64	41002.38
788.82	41575.81
789.01	41190.80
789.19	41461.13
789.37	41090.44
789.55	41676.16
789.73	40605.08
789.91	40621.46
790.09	40951.18
790.28	40383.90
790.46	40844.69
790.64	40904.08
790.82	40867.22
791.00	40586.64
791.18	40547.73
791.36	40271.26
791.55	40203.67
791.73	40261.02
791.91	39749.03
792.09	40160.67
792.27	40248.73
792.45	40639.89
792.63	40054.17
792.81	39921.05
793.00	39849.38
793.18	39730.59
793.36	39728.55
793.54	39620.00
793.72	39355.82
793.90	39286.18
794.08	39153.07
794.26	39333.29
794.44	38921.65
794.62	38970.80
794.81	39042.48
794.99	38944.17
795.17	38544.82
795.35	38882.73
795.53	38909.36
795.71	38561.20
795.89	38350.26
796.07	38585.78
796.25	38190.52
796.43	38256.06
796.61	37778.88
796.80	37944.76
796.98	38159.80
797.16	37907.90
797.34	37635.52
797.52	37848.51
797.70	37832.13
797.88	37971.39
798.06	37361.09
798.24	37539.27
798.42	37533.12
798.60	37426.63
798.78	36945.36
798.96	37279.18
799.14	37146.06
799.32	37000.65
799.51	36664.78
799.69	37000.65
799.87	36828.62
800.05	36156.89
800.23	36804.05
800.41	36255.19
800.59	36775.37
800.77	36007.39
800.95	35995.10
801.13	35728.86
801.31	35567.07
801.49	36132.31
801.67	35544.55
801.85	35796.45
802.03	35966.43
802.21	35493.35
802.39	35458.53
802.57	35329.51
802.75	35558.88
802.93	35313.13
803.11	34948.59
803.29	35016.17
803.47	34706.93
803.65	34606.58
803.83	34881.00
804.01	34930.16
804.19	34387.44
804.37	34493.94
804.55	34559.47
804.73	33766.91
804.91	34375.16
805.09	34448.88
805.27	34045.43
805.45	34493.94
805.63	34235.89
805.81	34213.37
805.99	33906.17
806.17	34070.01
806.35	33779.20
806.53	33523.20
806.71	33848.83
806.89	33609.22
807.07	33822.20
807.25	33551.87
807.43	33132.04
807.61	33771.00
807.79	33359.36
807.97	32892.43
808.15	33185.29
808.33	32851.47
808.51	32880.14
808.69	32949.77
808.87	32566.80
809.05	32749.07
809.23	32775.69
809.41	32347.67
809.59	32605.71
809.77	32376.34
809.95	32208.40
810.13	32388.63
810.31	32376.34
810.49	32505.36
810.67	32183.83
810.84	32200.21
811.02	32116.25
811.20	31786.52
811.38	31749.66
811.56	31381.03
811.74	31811.10
811.92	31802.91
812.10	31487.52
812.28	31356.45
812.46	31483.42
812.64	31524.38
812.82	31397.41
813.00	31483.42
813.18	31286.82
813.36	31374.88
813.53	31065.64
813.71	31067.69
813.89	31137.32
814.07	30928.42
814.25	30981.67
814.43	30598.70
814.61	30467.63
814.79	30608.94
814.97	30637.61
815.15	30901.80
815.33	29967.93
815.50	30133.81
815.68	30604.84
815.86	30197.30
816.04	30162.48
816.22	30242.35
816.40	30049.85
816.58	30064.18
816.76	30033.46
816.94	29933.11
817.11	29828.66
817.29	29963.83
817.47	29845.05
817.65	29558.33
817.83	29716.03
818.01	29623.87
818.19	29242.95
818.37	29234.75
818.54	29122.12
818.72	29302.34
818.90	29533.76
819.08	28935.75
819.26	29234.75
819.44	29349.44
819.62	28972.61
819.80	29271.62
819.97	29038.15
820.15	29165.12
820.33	28847.69
820.51	28982.85
820.69	28657.23
820.87	29206.08
821.05	29298.24
821.22	29093.44
821.40	28728.91
821.58	28474.96
821.76	28624.46
821.94	28737.10
822.12	28579.40
822.29	28835.40
822.47	28407.37
822.65	28644.94
822.83	28134.99
823.01	28509.77
823.19	28044.88
823.36	28204.63
823.54	27848.28
823.72	28216.91
823.90	27973.21
824.08	27799.13
824.25	27768.41
824.43	27588.19
824.61	28083.80
824.79	27749.98
824.97	27848.28
825.15	27606.62
825.32	27575.90
825.50	27702.87
825.68	27391.58
825.86	27764.31
826.04	27709.02
826.21	27672.15
826.39	27381.34
826.57	27547.23
826.75	27145.83
826.93	27014.76
827.10	27266.66
827.28	27194.98
827.46	27567.71
827.64	27137.63
827.81	27041.38
827.99	27061.86
828.17	26986.08
828.35	26916.45
828.53	26981.99
828.70	26979.94
828.88	27049.57
829.06	26922.60
829.24	27063.91
829.41	26674.79
829.59	26738.28
829.77	26730.09
829.95	26584.68
830.12	26799.72
830.30	26812.01
830.48	26396.27
830.66	26777.19
830.84	26553.96
831.01	26338.93
831.19	26338.93
831.37	26545.77
831.55	26515.05
831.72	26564.20
831.90	26345.07
832.08	26324.59
832.25	26365.55
832.43	26140.27
832.61	26035.83
832.79	25769.59
832.96	26044.02
833.14	26295.92
833.32	26224.24
833.50	26005.11
833.67	26175.09
833.85	25958.00
834.03	25792.12
834.20	25855.61
834.38	26130.03
834.56	26334.83
834.74	25663.10
834.91	25859.70
835.09	25958.00
835.27	25736.82
835.44	25527.93
835.62	25388.67
835.80	25355.90
835.98	25779.83
836.15	25343.61
836.33	25239.17
836.51	25568.89
836.68	25230.98
836.86	25382.52
837.04	25538.17
837.21	25525.88
837.39	25134.72
837.57	25497.21
837.75	25362.04
837.92	24954.50
838.10	25007.75
838.28	25056.90
838.45	24923.78
838.63	24825.48
838.81	25161.34
838.98	24798.85
839.16	25017.99
839.34	24770.18
839.51	25063.04
839.69	24690.31
839.87	24796.81
840.04	24856.20
840.22	25120.38
840.40	24514.19
840.57	24503.95
840.75	24632.97
840.93	24268.43
841.10	24669.83
841.28	25087.62
841.46	24794.76
841.63	24542.86
841.81	24415.88
841.98	24698.50
842.16	24624.78
842.34	24360.59
842.51	24286.86
842.69	24563.34
842.87	24405.64
843.04	24512.14
843.22	24202.89
843.40	24608.39
843.57	24059.54
843.75	24696.46
843.92	24135.31
844.10	24047.25
844.28	24069.78
844.45	24428.17
844.63	23625.37
844.81	24190.61
844.98	23893.65
845.16	23807.64
845.33	23977.62
845.51	23981.71
845.69	24270.48
845.86	23719.57
846.04	23879.32
846.21	23561.88
846.39	23699.09
846.57	23668.37
846.74	23860.88
846.92	23756.44
847.09	23625.37
847.27	23328.41
847.45	23723.67
847.62	23715.48
847.80	23592.60
847.97	23592.60
848.15	23213.73
848.32	23549.59
848.50	23553.69
848.68	23285.40
848.85	23045.79
849.03	23160.48
849.20	23242.40
849.38	23203.49
849.56	23314.08
849.73	23084.70
849.91	23213.73
850.08	23262.88
850.26	22914.72
850.43	22916.77
850.61	23197.34
850.78	22929.06
850.96	23203.49
851.14	22945.44
851.31	23359.13
851.49	23295.64
851.66	23398.04
851.84	23013.02
852.01	23223.97
852.19	23185.05
852.36	23135.90
852.54	22904.48
852.71	22603.43
852.89	23039.65
853.07	22970.02
853.24	22843.04
853.42	22683.30
853.59	22570.66
853.77	22722.21
853.94	22650.53
854.12	22976.16
854.29	22591.14
854.47	22562.47
854.64	22699.69
854.82	22662.82
854.99	22519.46
855.17	22480.55
855.34	22435.50
855.52	22472.36
855.69	22603.43
855.87	22212.27
856.04	22222.51
856.22	22277.80
856.39	22441.64
856.57	22378.15
856.74	22099.63
856.92	22064.82
857.09	22044.34
857.27	22154.93
857.44	22310.57
857.62	22372.01
857.79	21984.94
857.97	22064.82
858.14	21896.88
858.32	21843.63
858.49	22079.15
858.67	21921.46
858.84	21921.46
859.02	21880.50
859.19	21708.47
859.37	21687.99
859.54	21890.74
859.72	21833.39
859.89	21624.50
860.06	21857.97
860.24	21751.48
860.41	21651.13
860.59	21589.69
860.76	21952.18
860.94	21702.32
861.11	21831.35
861.29	21354.17
861.46	21329.59
861.64	21399.23
861.81	21503.67
861.98	21489.34
862.16	21554.87
862.33	21366.46
862.51	21192.38
862.68	21208.76
862.86	21300.92
863.03	21233.34
863.21	21198.52
863.38	21061.31
863.55	21278.40
863.73	21157.57
863.90	21364.41
864.08	21155.52
864.25	21016.26
864.43	21212.86
864.60	20821.70
864.77	20930.24
864.95	20801.22
865.12	20827.84
865.30	20872.90
865.47	20573.89
865.64	21020.35
865.82	21137.09
865.99	21098.17
866.17	20860.61
866.34	20786.88
866.51	20680.39
866.69	20737.73
866.86	20723.40
867.04	20745.92
867.21	20684.48
867.38	20713.16
867.56	20547.27
867.73	20528.84
867.91	20530.89
868.08	20543.17
868.25	20532.93
868.43	20233.93
868.60	20426.44
868.78	20416.20
868.95	20719.30
869.12	20485.83
869.30	20160.20
869.47	20369.10
869.64	20059.85
869.82	20195.02
869.99	19887.82
870.16	20137.68
870.34	19977.94
870.51	20309.71
870.69	19527.38
870.86	19891.92
871.03	20274.89
871.21	19545.81
871.38	20311.75
871.55	19820.24
871.73	19810.00
871.90	19881.68
872.07	19699.41
872.25	19171.04
872.42	19439.32
872.59	19574.49
872.77	19793.62
872.94	19259.10
873.11	19498.71
873.29	19562.20
873.46	19390.17
873.63	19240.67
873.81	19402.46
873.98	19091.16
874.15	19416.79
874.33	19146.46
874.50	19007.20
874.67	19191.52
874.85	18906.85
875.02	18976.48
875.19	18857.70
875.37	18904.80
875.54	19095.26
875.71	18874.08
875.88	18812.64
876.06	18878.18
876.23	18894.56
876.40	18601.70
876.58	18675.43
876.75	19017.44
876.92	18515.69
877.10	18585.32
877.27	18497.25
877.44	18493.16
877.61	18415.34
877.79	18147.05
877.96	18278.12
878.13	18407.14
878.31	18233.07
878.48	18126.57
878.65	17999.60
878.82	18185.96
879.00	18620.13
879.17	18128.62
879.34	18116.33
879.51	17862.38
879.69	17905.39
879.86	17854.19
880.03	17889.01
880.21	17940.21
880.38	17762.03
880.55	17821.42
880.72	17848.05
880.90	17854.19
881.07	17833.71
881.24	17864.43
881.41	17794.80
881.59	17788.66
881.76	17999.60
881.93	17663.73
882.10	17532.66
882.28	17587.96
882.45	17561.33
882.62	17538.80
882.79	17907.44
882.96	17344.25
883.14	17481.46
883.31	17303.29
883.48	17424.12
883.65	17340.15
883.83	17571.57
884.00	17465.08
884.17	17342.20
884.34	17389.30
884.51	17272.57
884.69	17207.03
884.86	17325.82
885.03	17114.87
885.20	16908.03
885.38	17247.99
885.55	16930.56
885.72	17311.48
885.89	17155.83
886.06	17198.84
886.24	16944.89
886.41	16938.75
886.58	17116.92
886.75	16940.80
886.92	16975.61
887.10	16965.37
887.27	16836.35
887.44	16860.93
887.61	16934.65
887.78	16846.59
887.95	16822.02
888.13	16746.24
888.30	16543.49
888.47	16588.55
888.64	16684.80
888.81	16688.90
888.99	16568.07
889.16	16510.72
889.33	16297.74
889.50	16387.85
889.67	16428.81
889.84	16580.36
890.01	16365.32
890.19	16467.72
890.36	16430.85
890.53	16434.95
890.70	16011.02
890.87	16082.70
891.04	16086.79
891.22	16219.91
891.39	15855.37
891.56	16334.60
891.73	16068.36
891.90	15781.65
892.07	15802.13
892.24	15814.41
892.42	15947.53
892.59	15869.71
892.76	15806.22
892.93	15736.59
893.10	15654.67
893.27	16203.53
893.44	15808.27
893.61	15867.66
893.79	15865.61
893.96	15716.11
894.13	15783.70
894.30	15595.28
894.47	15759.12
894.64	15539.99
894.81	15595.28
894.98	15863.57
895.15	15705.87
895.33	15517.46
895.50	15509.27
895.67	15750.93
895.84	15597.33
896.01	15568.66
896.18	15703.82
896.35	15617.81
896.52	15503.12
896.69	15433.49
896.86	15370.01
897.04	15384.34
897.21	15865.61
897.38	15726.35
897.55	15517.46
897.72	15496.98
897.89	15361.81
898.06	15484.69
898.23	15890.19
898.40	15503.12
898.57	15318.81
898.74	15626.00
898.91	15445.78
899.08	15404.82
899.26	15443.73
899.43	15521.56
899.60	15372.05
899.77	15425.30
899.94	15259.42
900.11	15331.09
900.28	15054.62
900.45	15132.44
900.62	15081.24
900.79	15316.76
900.96	15245.08
901.13	15191.83
901.30	15167.26
901.47	15222.55
901.64	15257.37
901.81	15283.99
901.98	15034.14
902.15	15050.52
902.32	15173.40
902.49	15152.92
902.66	15419.16
902.83	15296.28
903.01	15210.26
903.18	15324.95
903.35	15200.02
903.52	15230.74
903.69	15124.25
903.86	15240.98
904.03	15410.96
904.20	15306.52
904.37	15277.85
904.54	15206.17
904.71	15189.78
904.88	15292.18
905.05	15122.20
905.22	15259.42
905.39	14767.90
905.56	15152.92
905.73	15165.21
905.90	15413.01
906.07	15200.02
906.24	14982.94
906.41	15132.44
906.58	15142.68
906.75	15179.54
906.92	15060.76
907.09	15081.24
907.26	15071.00
907.43	14915.36
907.60	15118.11
907.77	15255.32
907.93	15097.63
908.10	15232.79
908.27	15169.30
908.44	14898.97
908.61	14812.96
908.78	15103.77
908.95	15269.66
909.12	15120.15
909.29	14968.60
909.46	15062.81
909.63	14954.27
909.80	14851.87
909.97	14698.27
910.14	14647.07
910.31	14978.84
910.48	14927.64
910.65	14739.23
910.82	14645.02
910.99	14794.53
911.16	14765.85
911.33	14673.70
911.50	14751.52
911.66	14696.22
911.83	14645.02
912.00	14647.07
912.17	14559.01
912.34	14530.34
912.51	14559.01
912.68	14505.76
912.85	14772.00
913.02	14522.15
913.19	14448.42
913.36	14595.87
913.53	14597.92
913.70	14403.36
913.86	14526.24
914.03	14382.88
914.20	14393.12
914.37	14311.21
914.54	14333.73
914.71	14284.58
914.88	14077.74
915.05	14292.77
915.22	14198.57
915.39	14067.50
915.55	14126.89
915.72	13934.38
915.89	14012.20
916.06	13901.61
916.23	13797.17
916.40	13698.86
916.57	13786.93
916.74	13797.17
916.91	13791.02
917.07	13584.18
917.24	13735.73
917.41	13860.65
917.58	13707.05
917.75	13426.48
917.92	13375.28
918.09	13479.73
918.26	13555.51
918.42	13475.63
918.59	13492.02
918.76	13219.64
918.93	13203.25
919.10	13281.08
919.27	13363.00
919.44	13434.68
919.60	13330.23
919.77	13190.97
919.94	13143.86
920.11	13285.17
920.28	13211.45
920.45	13076.28
920.61	13090.62
920.78	12793.66
920.95	12793.66
921.12	12861.24
921.29	12869.44
921.46	12805.95
921.62	12502.85
921.79	12773.18
921.96	12681.02
922.13	12615.49
922.30	12547.90
922.47	12488.51
922.63	12586.82
922.80	12341.06
922.97	12396.35
923.14	12220.23
923.31	12429.12
923.47	11933.51
923.64	12394.31
923.81	12179.27
923.98	12257.09
924.15	11804.49
924.32	11902.79
924.48	12019.53
924.65	12027.72
924.82	11822.92
924.99	11853.64
925.15	11806.54
925.32	11808.59
925.49	11446.10
925.66	11685.71
925.83	11640.65
925.99	11659.09
926.16	11657.04
926.33	11530.06
926.50	11366.23
926.67	11587.41
926.83	11278.16
927.00	11292.50
927.17	11173.72
927.34	11085.65
927.50	11167.57
927.67	11388.75
927.84	11153.24
928.01	10917.72
928.17	10979.16
928.34	11038.55
928.51	10866.52
928.68	10843.99
928.84	10862.43
929.01	10592.09
929.18	10768.22
929.35	10643.29
929.51	10794.84
929.68	10426.21
929.85	10512.22
930.02	10526.56
930.18	10356.58
930.35	10170.21
930.52	10403.68
930.69	10336.10
930.85	10360.67
931.02	10297.19
931.19	10108.77
931.36	10104.68
931.52	10192.74
931.69	10282.85
931.86	9924.46
932.02	10073.96
932.19	9998.18
932.36	9777.00
932.53	9852.78
932.69	9807.72
932.86	9836.39
933.03	9611.12
933.19	9465.71
933.36	9529.20
933.53	9643.88
933.70	9320.31
933.86	9441.14
934.03	9416.56
934.20	9107.32
934.36	9547.63
934.53	8998.77
934.70	9037.69
934.86	9072.50
935.03	8947.58
935.20	8947.58
935.36	9004.92
935.53	8773.50
935.70	8773.50
935.86	8806.27
936.03	8619.90
936.20	8472.45
936.36	8595.32
936.53	8519.55
936.70	8400.77
936.86	8423.30
937.03	8257.41
937.20	8023.94
937.36	8288.13
937.53	7907.21
937.70	7937.93
937.86	7815.05
938.03	7720.84
938.20	7796.62
938.36	7497.61
938.53	7503.76
938.70	7384.98
938.86	7448.46
939.03	7178.13
939.20	7264.15
939.36	7032.72
939.53	7075.73
939.70	7124.88
939.86	6846.36
940.03	6836.12
940.19	6834.07
940.36	6703.00
940.53	6621.08
940.69	6619.04
940.86	6463.39
941.03	6434.72
941.19	6332.32
941.36	6436.77
941.52	6309.79
941.69	6129.57
941.86	6197.15
942.02	6320.03
942.19	5963.68
942.35	6012.84
942.52	5961.64
942.69	5838.76
942.85	5742.50
943.02	5767.08
943.18	5902.25
943.35	5750.70
943.52	5840.81
943.68	5709.74
943.85	5607.34
944.01	5666.73
944.18	5564.33
944.35	5523.37
944.51	5529.52
944.68	5361.58
944.84	5640.11
945.01	5423.02
945.17	5390.25
945.34	5349.29
945.51	5472.17
945.67	5373.87
945.84	5310.38
946.00	5242.80
946.17	5240.75
946.33	5146.55
946.50	5162.93
946.67	5185.46
946.83	5238.70
947.00	5271.47
947.16	5113.78
947.33	5248.94
947.49	5097.39
947.66	5261.23
947.82	5187.50
947.99	5148.59
948.16	5275.57
948.32	5289.90
948.49	5326.77
948.65	5205.94
948.82	5218.22
948.98	5185.46
949.15	5007.28
949.31	5332.91
949.48	5212.08
949.64	5167.03
949.81	5300.14
949.97	5173.17
950.14	5334.96
950.30	5330.86
950.47	5279.66
950.63	5150.64
950.80	5279.66
950.96	5339.05
951.13	5294.00
951.30	5334.96
951.46	5337.01
951.63	5459.88
951.79	5314.48
951.96	5369.77
952.12	5341.10
952.29	5406.64
952.45	5468.08
952.62	5255.09
952.78	5345.20
952.94	5369.77
953.11	5312.43
953.27	5261.23
953.44	5320.62
953.60	5310.38
953.77	5410.73
953.93	5300.14
954.10	5347.25
954.26	5406.64
954.43	5265.33
954.59	5341.10
954.76	5457.84
954.92	5480.36
955.09	5334.96
955.25	5416.88
955.42	5332.91
955.58	5509.04
955.75	5392.30
955.91	5390.25
956.07	5367.73
956.24	5488.56
956.40	5451.69
956.57	5525.42
956.73	5257.14
956.90	5568.43
957.06	5474.22
957.23	5431.21
957.39	5461.93
957.56	5439.40
957.72	5343.15
957.88	5453.74
958.05	5400.49
958.21	5517.23
958.38	5398.45
958.54	5498.80
958.71	5504.94
958.87	5384.11
959.03	5431.21
959.20	5418.93
959.36	5468.08
959.53	5447.60
959.69	5578.67
959.85	5525.42
960.02	5363.63
960.18	5605.29
960.35	5439.40
960.51	5552.04
960.68	5435.31
960.84	5433.26
961.00	5431.21
961.17	5322.67
961.33	5439.40
961.50	5490.60
961.66	5558.19
961.82	5382.06
961.99	5517.23
962.15	5406.64
962.31	5369.77
962.48	5380.01
962.64	5535.66
962.81	5345.20
962.97	5431.21
963.13	5287.86
963.30	5476.27
963.46	5187.50
963.62	5269.42
963.79	5443.50
963.95	5326.77
964.12	5523.37
964.28	5418.93
964.44	5267.38
964.61	5351.34
964.77	5349.29
964.93	5451.69
965.10	5480.36
965.26	5267.38
965.42	5330.86
965.59	5289.90
965.75	5259.18
965.92	5298.10
966.08	5322.67
966.24	5363.63
966.41	5326.77
966.57	5291.95
966.73	5326.77
966.90	5294.00
967.06	5316.53
967.22	5164.98
967.39	5248.94
967.55	5164.98
967.71	5171.12
967.88	5185.46
968.04	5119.92
968.20	5189.55
968.37	5111.73
968.53	5091.25
968.69	5240.75
968.85	5177.26
969.02	5187.50
969.18	5189.55
969.34	5191.60
969.51	5302.19
969.67	5357.49
969.83	5134.26
970.00	5197.74
970.16	5019.57
970.32	5074.87
970.48	5140.40
970.65	4988.85
970.81	5115.83
970.97	5042.10
971.14	5089.20
971.30	5142.45
971.46	5044.15
971.63	5005.24
971.79	5042.10
971.95	4857.78
972.11	4954.04
972.28	4935.60
972.44	5216.18
972.60	4980.66
972.76	4886.45
972.93	4919.22
973.09	5058.48
973.25	5013.43
973.42	4794.29
973.58	5015.48
973.74	4966.32
973.90	4960.18
974.07	4865.97
974.23	4708.28
974.39	4941.75
974.55	4931.51
974.72	4951.99
974.88	4859.83
975.04	4900.79
975.20	4775.86
975.37	4878.26
975.53	4849.59
975.69	4923.32
975.85	4827.06
976.01	4870.07
976.18	4681.66
976.34	4769.72
976.50	4788.15
976.66	4702.14
976.83	4640.70
976.99	4700.09
977.15	4706.23
977.31	4624.31
977.47	4759.48
977.64	4695.99
977.80	4632.51
977.96	4607.93
978.12	4579.26
978.29	4616.12
978.45	4540.35
978.61	4614.07
978.77	4530.11
978.93	4552.63
979.10	4480.96
979.26	4597.69
979.42	4417.47
979.58	4452.28
979.74	4542.39
979.91	4550.59
980.07	4491.20
980.23	4515.77
980.39	4497.34
980.55	4431.80
980.71	4523.96
980.88	4466.62
981.04	4415.42
981.20	4497.34
981.36	4517.82
981.52	4358.08
981.68	4233.15
981.85	4374.46
982.01	4282.30
982.17	4423.61
982.33	4302.78
982.49	4468.67
982.65	4151.23
982.82	4442.04
982.98	4298.69
983.14	4194.24
983.30	4356.03
983.46	4290.49
983.62	4247.49
983.79	4134.85
983.95	4284.35
984.11	4128.70
984.27	4263.87
984.43	4202.43
984.59	4313.02
984.75	4333.50
984.91	4233.15
985.08	4251.58
985.24	4050.88
985.40	4202.43
985.56	4097.99
985.72	4157.38
985.88	4120.51
986.04	4001.73
986.20	4155.33
986.37	4220.86
986.53	3987.40
986.69	4149.18
986.85	4052.93
987.01	4052.93
987.17	3995.59
987.33	3950.53
987.49	4140.99
987.65	4104.13
987.82	3946.44
987.98	4042.69
988.14	4069.31
988.30	3952.58
988.46	4001.73
988.62	3968.96
988.78	3936.20
988.94	3911.62
989.10	3897.28
989.26	3815.37
989.42	3942.34
989.59	3809.22
989.75	3844.04
989.91	3878.85
990.07	3809.22
990.23	3770.31
990.39	3848.13
990.55	3872.71
990.71	3774.41
990.87	3846.09
991.03	3887.04
991.19	3717.06
991.35	3796.93
991.51	3885.00
991.67	3833.80
991.83	3833.80
992.00	3721.16
992.16	3854.28
992.32	3753.93
992.48	3780.55
992.64	3729.35
992.80	3672.01
992.96	3729.35
993.12	3704.78
993.28	3807.17
993.44	3682.25
993.60	3635.14
993.76	3542.99
993.92	3680.20
994.08	3760.07
994.24	3712.97
994.40	3592.14
994.56	3645.38
994.72	3614.66
994.88	3659.72
995.04	3579.85
995.20	3647.43
995.36	3590.09
995.52	3575.75
995.68	3557.32
995.84	3540.94
996.00	3637.19
996.16	3485.64
996.32	3481.55
996.48	3577.80
996.64	3590.09
996.80	3450.83
996.96	3514.31
997.12	3475.40
997.28	3456.97
997.44	3475.40
997.60	3424.20
997.76	3364.81
997.92	3401.68
998.08	3416.01
998.24	3373.00
998.40	3452.88
998.56	3405.77
998.72	3373.00
998.88	3325.90
999.04	3264.46
999.20	3375.05
999.36	3264.46
999.52	3497.93
999.68	3297.23
999.84	3459.02
1000.00	3389.39
1000.16	3375.05
1000.32	3336.14
1000.48	3366.86
1000.64	3274.70
1000.80	3155.92
1000.95	3282.89
1001.11	3313.61
1001.27	3147.73
1001.43	3119.06
1001.59	3141.58
1001.75	3139.54
1001.91	3235.79
1002.07	3092.43
1002.23	3178.45
1002.39	3200.98
1002.55	3174.35
1002.71	3170.26
1002.87	3194.83
1003.03	3088.34
1003.19	3006.42
1003.34	3114.96
1003.50	3018.71
1003.66	3172.30
1003.82	3143.63
1003.98	3067.86
1004.14	3129.30
1004.30	3096.53
1004.46	2994.13
1004.62	3059.67
1004.78	3026.90
1004.94	3012.56
1005.09	3043.28
1005.25	3069.91
1005.41	2940.88
1005.57	2973.65
1005.73	3026.90
1005.89	2951.12
1006.05	3092.43
1006.21	2922.45
1006.37	2926.55
1006.52	2881.49
1006.68	2918.36
1006.84	3039.19
1007.00	2969.55
1007.16	2996.18
1007.32	2920.40
1007.48	2930.64
1007.64	2875.35
1007.79	2920.40
1007.95	2811.86
1008.11	2942.93
1008.27	2852.82
1008.43	2789.33
1008.59	2875.35
1008.75	2990.03
1008.91	2936.79
1009.06	2852.82
1009.22	2791.38
1009.38	2932.69
1009.54	2901.97
1009.70	2840.53
1009.86	2830.29
1010.01	2740.18
1010.17	2725.85
1010.33	2899.92
1010.49	2791.38
1010.65	2899.92
1010.81	2807.77
1010.96	2789.33
1011.12	2738.13
1011.28	2691.03
1011.44	2861.01
1011.60	2736.09
1011.76	2793.43
1011.91	2803.67
1012.07	2668.50
1012.23	2666.46
1012.39	2680.79
1012.55	2672.60
1012.71	2691.03
1012.86	2639.83
1013.02	2623.45
1013.18	2580.44
1013.34	2688.98
1013.50	2629.59
1013.65	2668.50
1013.81	2607.06
1013.97	2570.20
1014.13	2553.82
1014.29	2660.31
1014.44	2682.84
1014.60	2574.30
1014.76	2564.06
1014.92	2568.15
1015.07	2539.48
1015.23	2586.58
1015.39	2549.72
1015.55	2613.21
1015.71	2574.30
1015.86	2492.38
1016.02	2574.30
1016.18	2506.71
1016.34	2537.43
1016.49	2365.40
1016.65	2680.79
1016.81	2504.67
1016.97	2510.81
1017.12	2502.62
1017.28	2459.61
1017.44	2328.54
1017.60	2461.66
1017.75	2424.80
1017.91	2449.37
1018.07	2439.13
1018.23	2404.32
1018.38	2449.37
1018.54	2361.31
1018.70	2418.65
1018.86	2437.08
1019.01	2385.88
1019.17	2379.74
1019.33	2480.09
1019.49	2381.79
1019.64	2346.97
1019.80	2365.40
1019.96	2506.71
1020.12	2406.36
1020.27	2355.16
1020.43	2394.08
1020.59	2377.69
1020.74	2379.74
1020.90	2392.03
1021.06	2361.31
1021.22	2357.21
1021.37	2349.02
1021.53	2297.82
1021.69	2332.64
1021.84	2295.77
1022.00	2367.45
1022.16	2359.26
1022.31	2289.63
1022.47	2355.16
1022.63	2363.36
1022.79	2297.82
1022.94	2320.35
1023.10	2308.06
1023.26	2232.29
1023.41	2246.62
1023.57	2185.18
1023.73	2248.67
1023.88	2240.48
1024.04	2176.99
1024.20	2215.90
1024.35	2238.43
1024.51	2277.34
1024.67	2224.09
1024.82	2314.20
1024.98	2215.90
1025.14	2172.89
1025.29	2176.99
1025.45	2353.12
1025.61	2197.47
1025.76	2162.66
1025.92	2234.33
1026.08	2209.76
1026.23	2215.90
1026.39	2156.51
1026.55	2088.93
1026.70	2123.74
1026.86	2164.70
1027.02	2174.94
1027.17	2150.37
1027.33	2117.60
1027.48	2144.22
1027.64	2113.50
1027.80	2131.94
1027.95	2164.70
1028.11	2090.98
1028.27	2160.61
1028.42	2125.79
1028.58	2166.75
1028.73	2123.74
1028.89	2070.50
1029.05	2183.13
1029.20	2121.70
>>>>>End Processed Spectral Data<<<<<
