SpectraSuite Data File
++++++++++++++++++++++++++++++++++++
Date: Fri Jun 02 14:47:58 CEST 2017
User: INFO_000
Dark Spectrum Present: No
Reference Spectrum Present: No
Number of Sampled Component Spectra: 1
Spectrometers: USB4H00879
Integration Time (usec): 80000 (USB4H00879)
Spectra Averaged: 1 (USB4H00879)
Boxcar Smoothing: 0 (USB4H00879)
Correct for Electrical Dark: No (USB4H00879)
Strobe/Lamp Enabled: No (USB4H00879)
Correct for Detector Non-linearity: No (USB4H00879)
Correct for Stray Light: No (USB4H00879)
Number of Pixels in Processed Spectrum: 3648
>>>>>Begin Processed Spectral Data<<<<<
345.13	1357.80
345.34	1357.80
345.56	1357.80
345.78	1296.36
345.99	1273.84
346.21	1726.44
346.42	1685.48
346.64	1646.57
346.86	1771.49
347.07	1718.25
347.29	1634.28
347.50	1648.61
347.72	1613.80
347.94	1820.64
348.15	1601.51
348.37	1615.85
348.59	1650.66
348.80	1613.80
349.02	1787.88
349.23	1902.56
349.45	1830.88
349.67	1855.46
349.88	1853.41
350.10	1972.19
350.31	1843.17
350.53	1798.12
350.75	1951.71
350.96	1839.08
351.18	1912.80
351.39	1845.22
351.61	1841.12
351.82	1859.56
352.04	1947.62
352.26	1834.98
352.47	1912.80
352.69	1920.99
352.90	1701.86
353.12	1877.99
353.34	1832.93
353.55	1880.04
353.77	1794.02
353.98	1865.70
354.20	1765.35
354.41	1925.09
354.63	1851.36
354.85	2054.11
355.06	1900.52
355.28	1845.22
355.49	1877.99
355.71	1978.34
355.92	1851.36
356.14	1869.80
356.35	1857.51
356.57	1810.40
356.79	1867.75
357.00	1826.79
357.22	1957.86
357.43	1753.06
357.65	1931.23
357.86	1828.84
358.08	1869.80
358.29	1968.10
358.51	2004.96
358.72	1910.75
358.94	1929.19
359.16	1875.94
359.37	1918.95
359.59	1980.39
359.80	1992.67
360.02	1920.99
360.23	1955.81
360.45	2011.11
360.66	1886.18
360.88	1857.51
361.09	1894.37
361.31	2031.58
361.52	2007.01
361.74	2117.60
361.95	2007.01
362.17	1945.57
362.38	2019.30
362.60	2015.20
362.81	1980.39
363.03	1916.90
363.24	1984.48
363.46	2084.83
363.67	1947.62
363.89	2041.82
364.10	2039.78
364.32	2031.58
364.53	2009.06
364.75	1939.43
364.96	2017.25
365.18	1996.77
365.39	2025.44
365.61	1918.95
365.82	2150.37
366.04	1996.77
366.25	1886.18
366.47	2015.20
366.68	2062.30
366.90	1957.86
367.11	2072.54
367.33	2004.96
367.54	2058.21
367.76	2033.63
367.97	2148.32
368.19	2064.35
368.40	1974.24
368.62	2019.30
368.83	1972.19
369.05	2074.59
369.26	2047.97
369.48	1998.82
369.69	2033.63
369.91	2035.68
370.12	2054.11
370.33	2138.08
370.55	1916.90
370.76	1998.82
370.98	2076.64
371.19	2076.64
371.41	2090.98
371.62	2070.50
371.84	1945.57
372.05	2154.46
372.27	2095.07
372.48	2025.44
372.69	2107.36
372.91	2172.89
373.12	2131.94
373.34	2074.59
373.55	2099.17
373.77	2156.51
373.98	2099.17
374.20	2203.61
374.41	2277.34
374.62	2095.07
374.84	2090.98
375.05	2232.29
375.27	2174.94
375.48	2179.04
375.70	2172.89
375.91	2158.56
376.12	2324.44
376.34	2133.98
376.55	2166.75
376.77	2222.05
376.98	2058.21
377.19	2140.13
377.41	2099.17
377.62	2199.52
377.84	2133.98
378.05	2273.25
378.27	2133.98
378.48	2269.15
378.69	2344.92
378.91	2340.83
379.12	2308.06
379.34	2340.83
379.55	2273.25
379.76	2224.09
379.98	2189.28
380.19	2281.44
380.41	2256.86
380.62	2308.06
380.83	2285.53
381.05	2240.48
381.26	2451.42
381.47	2285.53
381.69	2273.25
381.90	2453.47
382.12	2330.59
382.33	2383.84
382.54	2308.06
382.76	2443.23
382.97	2338.78
383.19	2269.15
383.40	2381.79
383.61	2256.86
383.83	2295.77
384.04	2363.36
384.25	2387.93
384.47	2453.47
384.68	2383.84
384.89	2322.40
385.11	2281.44
385.32	2355.16
385.54	2295.77
385.75	2379.74
385.96	2361.31
386.18	2502.62
386.39	2441.18
386.60	2314.20
386.82	2449.37
387.03	2408.41
387.24	2482.14
387.46	2473.95
387.67	2500.57
387.88	2523.10
388.10	2453.47
388.31	2469.85
388.52	2611.16
388.74	2506.71
388.95	2422.75
389.16	2486.23
389.38	2432.99
389.59	2664.41
389.80	2600.92
390.02	2514.91
390.23	2598.87
390.44	2555.86
390.66	2605.02
390.87	2453.47
391.08	2570.20
391.30	2637.78
391.51	2674.65
391.72	2629.59
391.94	2592.73
392.15	2623.45
392.36	2508.76
392.58	2613.21
392.79	2611.16
393.00	2619.35
393.22	2797.53
393.43	2725.85
393.64	2834.39
393.85	2795.48
394.07	2609.11
394.28	2752.47
394.49	2723.80
394.71	2746.33
394.92	2811.86
395.13	2709.46
395.35	2775.00
395.56	2793.43
395.77	2822.10
395.98	2861.01
396.20	2881.49
396.41	2764.76
396.62	2910.16
396.84	2885.59
397.05	2822.10
397.26	2932.69
397.47	2856.92
397.69	2871.25
397.90	2971.60
398.11	2871.25
398.32	2854.87
398.54	2922.45
398.75	2854.87
398.96	2944.98
399.18	2977.75
399.39	2936.79
399.60	2914.26
399.81	3004.37
400.03	2926.55
400.24	3278.80
400.45	3033.04
400.66	3035.09
400.88	2942.93
401.09	3131.34
401.30	3008.47
401.51	3264.46
401.73	3086.29
401.94	3063.76
402.15	3143.63
402.36	3198.93
402.58	3104.72
402.79	3186.64
403.00	3131.34
403.21	3221.45
403.43	3207.12
403.64	3233.74
403.85	3157.97
404.06	3180.50
404.27	3145.68
404.49	3303.37
404.70	3190.74
404.91	3327.95
405.12	3280.85
405.34	3252.17
405.55	3434.44
405.76	3155.92
405.97	3196.88
406.19	3442.64
406.40	3243.98
406.61	3284.94
406.82	3293.13
407.03	3352.52
407.25	3178.45
407.46	3409.87
407.67	3432.40
407.88	3442.64
408.09	3358.67
408.31	3305.42
408.52	3327.95
408.73	3360.72
408.94	3411.92
409.15	3418.06
409.37	3428.30
409.58	3526.60
409.79	3495.88
410.00	3493.83
410.21	3424.20
410.43	3456.97
410.64	3469.26
410.85	3477.45
411.06	3522.51
411.27	3577.80
411.48	3612.62
411.70	3567.56
411.91	3696.58
412.12	3618.76
412.33	3686.34
412.54	3514.31
412.76	3637.19
412.97	3692.49
413.18	3489.74
413.39	3577.80
413.60	3684.30
413.81	3672.01
414.03	3680.20
414.24	3442.64
414.45	3819.46
414.66	3565.51
414.87	3715.02
415.08	3672.01
415.30	3704.78
415.51	3661.77
415.72	3686.34
415.93	3661.77
416.14	3796.93
416.35	3821.51
416.56	3729.35
416.78	3798.98
416.99	3762.12
417.20	3878.85
417.41	3887.04
417.62	3905.48
417.83	3839.94
418.04	3821.51
418.26	3860.42
418.47	3899.33
418.68	3966.92
418.89	3868.61
419.10	4016.07
419.31	3919.81
419.52	4169.66
419.73	3960.77
419.95	4005.83
420.16	3932.10
420.37	4005.83
420.58	4093.89
420.79	3897.28
421.00	4040.64
421.21	4190.14
421.42	4001.73
421.63	4077.51
421.85	4016.07
422.06	4212.67
422.27	4145.09
422.48	4212.67
422.69	4188.10
422.90	4210.62
423.11	4253.63
423.32	4306.88
423.53	4353.98
423.75	4388.80
423.96	4390.84
424.17	4288.45
424.38	4431.80
424.59	4343.74
424.80	4523.96
425.01	4403.13
425.22	4427.71
425.43	4505.53
425.64	4562.87
425.85	4640.70
426.06	4446.14
426.28	4523.96
426.49	4566.97
426.70	4417.47
426.91	4599.74
427.12	4562.87
427.33	4612.03
427.54	4605.88
427.75	4607.93
427.96	4769.72
428.17	4693.94
428.38	4863.93
428.59	4728.76
428.80	4712.38
429.01	4853.69
429.23	4894.65
429.44	4943.80
429.65	4962.23
429.86	4876.21
430.07	4900.79
430.28	4718.52
430.49	4962.23
430.70	4970.42
430.91	5083.06
431.12	4900.79
431.33	5154.74
431.54	5164.98
431.75	5115.83
431.96	5029.81
432.17	5062.58
432.38	5107.63
432.59	5255.09
432.80	5298.10
433.01	5113.78
433.22	5289.90
433.43	5382.06
433.64	5259.18
433.85	5234.61
434.06	5353.39
434.27	5201.84
434.49	5332.91
434.70	5400.49
434.91	5443.50
435.12	5332.91
435.33	5451.69
435.54	5603.24
435.75	5388.21
435.96	5382.06
436.17	5466.03
436.38	5590.95
436.59	5533.61
436.80	5455.79
437.01	5599.15
437.22	5691.31
437.43	5580.71
437.64	5509.04
437.85	5867.43
438.06	5717.93
438.27	5605.29
438.48	5652.39
438.69	5822.38
438.90	5664.68
439.11	5801.90
439.32	5896.10
439.53	5826.47
439.74	5849.00
439.95	5918.63
440.16	5853.09
440.37	5668.78
440.57	5726.12
440.78	5937.06
440.99	5916.58
441.20	5883.81
441.41	5748.65
441.62	5988.26
441.83	5930.92
442.04	5980.07
442.25	5994.40
442.46	6072.23
442.67	6188.96
442.88	6561.69
443.09	5986.21
443.30	6150.05
443.51	6217.63
443.72	6348.70
443.93	6088.61
444.14	6389.66
444.35	6121.38
444.56	6238.11
444.77	6412.19
444.98	6389.66
445.19	6459.29
445.40	6315.94
445.61	6496.16
445.81	6490.01
446.02	6449.05
446.23	6348.70
446.44	6334.37
446.65	6520.73
446.86	6518.68
447.07	6510.49
447.28	6619.04
447.49	6686.62
447.70	6524.83
447.91	6590.36
448.12	6563.74
448.33	6705.05
448.54	6709.15
448.74	6655.90
448.95	6733.72
449.16	6754.20
449.37	6803.35
449.58	6754.20
449.79	6913.94
450.00	6666.14
450.21	6707.10
450.42	7122.84
450.63	6924.18
450.84	6840.22
451.05	6979.48
451.25	6756.25
451.46	6729.63
451.67	6983.57
451.88	7212.95
452.09	6932.37
452.30	7102.36
452.51	7030.68
452.72	7212.95
452.93	7458.70
453.13	6997.91
453.34	6997.91
453.55	7225.23
453.76	7374.74
453.97	7516.05
454.18	7477.13
454.39	7470.99
454.60	7350.16
454.81	7403.41
455.01	7645.07
455.22	7255.95
455.43	7448.46
455.64	7593.87
455.85	7798.66
456.06	7958.41
456.27	7751.56
456.48	7663.50
456.68	7616.40
456.89	7876.49
457.10	7909.26
457.31	8011.65
457.52	7862.15
457.73	7956.36
457.94	8077.19
458.14	7882.63
458.35	8277.89
458.56	8003.46
458.77	8198.02
458.98	8224.64
459.19	8284.03
459.39	8429.44
459.60	8351.62
459.81	8058.76
460.02	8464.25
460.23	8341.38
460.44	8660.86
460.65	8583.04
460.85	8525.69
461.06	8763.26
461.27	8425.34
461.48	8802.17
461.69	8988.53
461.89	8697.72
462.10	8720.25
462.31	8636.28
462.52	8734.59
462.73	8843.13
462.94	8929.14
463.14	9043.83
463.35	8990.58
463.56	9437.04
463.77	9385.84
463.98	9209.72
464.18	9328.50
464.39	9381.74
464.60	9523.05
464.81	9426.80
465.02	9494.38
465.23	9686.89
465.43	9488.24
465.64	9654.12
465.85	9561.97
466.06	9598.83
466.27	9973.61
466.47	9942.89
466.68	10012.52
466.89	9856.87
467.10	10035.05
467.30	9932.65
467.51	10121.06
467.72	10342.24
467.93	10016.62
468.14	10159.97
468.34	10370.91
468.55	10383.20
468.76	10456.93
468.97	10368.87
469.17	10862.43
469.38	10712.92
469.59	10897.24
469.80	10635.10
470.01	10706.78
470.21	10860.38
470.42	11028.31
470.63	11372.37
470.84	10884.95
471.04	11398.99
471.25	11214.68
471.46	11249.49
471.67	11388.75
471.87	11495.25
472.08	11431.76
472.29	11632.46
472.50	11427.67
472.70	11517.78
472.91	11872.07
473.12	11816.78
473.33	12117.83
473.53	12216.13
473.74	12095.30
473.95	12302.15
474.16	12279.62
474.36	12283.72
474.57	12506.95
474.78	12678.97
474.99	12764.99
475.19	12547.90
475.40	12740.41
475.61	12715.84
475.81	12998.46
476.02	13137.72
476.23	12830.52
476.44	13233.97
476.64	13498.16
476.85	13594.42
477.06	13496.11
477.27	13782.83
477.47	13936.43
477.68	13682.48
477.89	13809.45
478.09	13893.42
478.30	13940.52
478.51	13930.28
478.71	14288.68
478.92	14188.33
479.13	14497.57
479.34	14532.39
479.54	14716.70
479.75	14757.66
479.96	14765.85
480.16	14710.56
480.37	14835.49
480.58	14845.73
480.78	15253.27
480.99	15304.47
481.20	15234.84
481.41	15279.89
481.61	15496.98
481.82	15560.47
482.03	15683.34
482.23	15556.37
482.44	15925.00
482.65	16099.08
482.85	15853.33
483.06	16260.87
483.27	16068.36
483.47	16076.55
483.68	16066.31
483.89	16459.52
484.09	16338.69
484.30	16340.74
484.51	16852.73
484.71	16811.78
484.92	16854.78
485.13	16948.99
485.33	16910.08
485.54	16965.37
485.75	16961.28
485.95	17483.51
486.16	17475.32
486.37	17426.17
486.57	17407.73
486.78	17501.94
486.98	17741.55
487.19	17778.42
487.40	17770.22
487.60	17870.58
487.81	18132.72
488.02	17819.38
488.22	17989.36
488.43	18190.06
488.64	18452.20
488.84	18493.16
489.05	18669.28
489.25	18540.26
489.46	18669.28
489.67	18675.43
489.87	19025.63
490.08	19273.43
490.29	18532.07
490.49	19363.54
490.70	19271.39
490.90	19162.84
491.11	19042.01
491.32	19422.94
491.52	19580.63
491.73	19693.27
491.94	19640.02
492.14	19627.73
492.35	19955.41
492.55	19685.08
492.76	19965.65
492.97	20199.12
493.17	20311.75
493.38	20276.94
493.58	20334.28
493.79	20528.84
494.00	20391.62
494.20	20514.50
494.41	20670.15
494.61	20778.69
494.82	20539.08
495.02	21044.93
495.23	20926.14
495.44	20809.41
495.64	21327.55
495.85	21196.48
496.05	21274.30
496.26	21262.01
496.47	21511.86
496.67	21112.51
496.88	21681.85
497.08	21499.58
497.29	21749.43
497.49	21706.42
497.70	21800.63
497.91	22077.10
498.11	22032.05
498.32	22300.33
498.52	22021.81
498.73	22662.82
498.93	22337.20
499.14	22447.79
499.34	22415.02
499.55	22568.62
499.76	22595.24
499.96	22697.64
500.17	22666.92
500.37	22746.79
500.58	22861.48
500.78	23203.49
500.99	23058.08
501.19	23436.95
501.40	23123.62
501.60	23060.13
501.81	23320.22
502.02	23494.30
502.22	23156.38
502.43	23336.60
502.63	23883.41
502.84	23742.10
503.04	23838.36
503.25	23987.86
503.45	23860.88
503.66	24198.80
503.86	23778.97
504.07	24104.59
504.27	23920.28
504.48	24553.10
504.68	24182.42
504.89	24426.12
505.09	24340.11
505.30	24465.03
505.50	24583.82
505.71	24606.34
505.91	24831.62
506.12	24561.29
506.32	24858.24
506.53	24927.88
506.73	25163.39
506.94	25095.81
507.14	24985.22
507.35	25040.51
507.55	25366.14
507.76	25429.63
507.96	25312.89
508.17	25386.62
508.37	25400.96
508.58	25699.96
508.78	25712.25
508.99	25788.02
509.19	25890.42
509.40	25859.70
509.60	25853.56
509.81	26062.45
510.01	25654.90
510.22	26154.61
510.42	26132.08
510.63	26062.45
510.83	25980.53
511.04	26089.07
511.24	26570.35
511.44	26320.49
511.65	26502.76
511.85	26527.34
512.06	26539.63
512.26	26814.05
512.47	26631.79
512.67	26963.56
512.88	26912.36
513.08	26687.08
513.29	26990.18
513.49	27321.95
513.69	27104.87
513.90	26906.21
514.10	27254.37
514.31	27424.35
514.51	27410.01
514.72	27268.70
514.92	27481.69
515.13	27479.64
515.33	27758.17
515.53	27596.38
515.74	27426.40
515.94	28067.41
516.15	27696.73
516.35	27821.66
516.56	28137.04
516.76	27946.58
516.96	28270.16
517.17	28399.18
517.37	28104.28
517.58	28186.19
517.78	28309.07
517.99	28522.06
518.19	28601.93
518.39	28618.32
518.60	28853.83
518.80	28841.54
519.01	29038.15
519.21	28931.65
519.41	29107.78
519.62	29068.87
519.82	29183.55
520.03	29052.48
520.23	28980.81
520.43	29017.67
520.64	29408.83
520.84	29441.60
521.05	29748.79
521.25	29507.13
521.45	29656.64
521.66	29711.93
521.86	29576.76
522.07	29828.66
522.27	29595.20
522.47	29949.50
522.68	29871.67
522.88	29900.34
523.08	30279.22
523.29	30260.79
523.49	30404.14
523.70	30109.24
523.90	30504.49
524.10	30780.97
524.31	30873.13
524.51	30705.20
524.71	31049.25
524.92	30555.69
525.12	30922.28
525.33	30991.91
525.53	31133.22
525.73	31512.10
525.94	31397.41
526.14	31108.65
526.34	31460.90
526.55	31563.29
526.75	31587.87
526.95	31735.32
527.16	31737.37
527.36	31649.31
527.56	32169.49
527.77	31981.08
527.97	32212.50
528.17	32077.33
528.38	32392.72
528.58	32425.49
528.78	32423.44
528.99	32327.19
529.19	32708.11
529.39	32032.28
529.60	32675.34
529.80	32497.17
530.00	32966.15
530.21	32863.75
530.41	33160.71
530.61	33013.26
530.82	33185.29
531.02	33189.38
531.22	33371.65
531.43	33195.53
531.63	33494.53
531.83	33701.37
532.04	33783.29
532.24	33412.61
532.44	33828.35
532.64	33889.79
532.85	34113.02
533.05	34033.14
533.25	34162.17
533.46	34010.62
533.66	34379.25
533.86	34319.86
534.07	34756.08
534.27	34551.28
534.47	34754.03
534.67	34762.22
534.88	34717.17
535.08	34852.33
535.28	34874.86
535.49	34850.28
535.69	35313.13
535.89	35448.29
536.09	35390.95
536.30	35384.80
536.50	35562.98
536.70	35519.97
536.91	35515.87
537.11	35630.56
537.31	36001.24
537.51	35763.68
537.72	36044.25
537.92	36304.34
538.12	36431.32
538.32	36052.44
538.53	36081.11
538.73	36173.27
538.93	36429.27
539.13	36466.13
539.34	36869.58
539.54	36290.01
539.74	36945.36
539.94	36668.88
540.15	36699.60
540.35	37154.25
540.55	36881.87
540.75	36926.92
540.96	36980.17
541.16	37119.43
541.36	37221.83
541.56	37268.94
541.77	37567.94
541.97	37082.57
542.17	37209.54
542.37	37434.82
542.58	37594.56
542.78	37477.83
542.98	37467.59
543.18	37729.73
543.38	38120.89
543.59	38024.64
543.79	37883.33
543.99	37729.73
544.19	38501.81
544.40	37965.24
544.60	38452.66
544.80	38477.24
545.00	38106.55
545.20	38483.38
545.41	38331.83
545.61	38141.37
545.81	39017.90
546.01	38436.28
546.21	38626.74
546.42	38663.60
546.62	39204.27
546.82	38483.38
547.02	38643.12
547.22	38923.69
547.43	38921.65
547.63	39179.69
547.83	39095.72
548.03	38712.75
548.23	38942.13
548.44	38954.41
548.64	39220.65
548.84	39439.78
549.04	39267.75
549.24	39640.48
549.45	39806.37
549.65	39622.05
549.85	39470.50
550.05	39718.31
550.25	39724.45
550.45	40172.96
550.66	39685.54
550.86	39542.18
551.06	40218.01
551.26	40146.33
551.46	39886.24
551.66	40175.00
551.87	40244.63
552.07	40431.00
552.27	40250.78
552.47	40191.39
552.67	40392.09
552.87	40557.97
553.07	40390.04
553.28	40643.99
553.48	40580.50
553.68	40736.15
553.88	41084.30
554.08	40783.25
554.28	40420.76
554.48	40695.19
554.69	40811.92
554.89	40824.21
555.09	41088.40
555.29	40967.57
555.49	41555.33
555.69	41397.64
555.89	41360.78
556.10	41248.14
556.30	40877.46
556.50	41434.50
556.70	41254.28
556.90	41618.82
557.10	41577.86
557.30	41584.01
557.50	41747.84
557.70	41989.50
557.91	42003.84
558.11	41530.76
558.31	42079.61
558.51	41778.56
558.71	41883.01
558.91	42161.53
559.11	41874.82
559.31	41880.96
559.51	42100.09
559.72	42194.30
559.92	42542.45
560.12	42337.66
560.32	42724.72
560.52	42079.61
560.72	42464.63
560.92	42538.36
561.12	42212.73
561.32	42853.75
561.52	42374.52
561.72	42694.00
561.93	42790.26
562.13	42734.96
562.33	42866.03
562.53	43412.84
562.73	42667.38
562.93	42823.03
563.13	42997.10
563.33	42882.42
563.53	43642.21
563.73	42915.19
563.93	43349.35
564.13	43652.45
564.33	43386.22
564.53	43177.33
564.74	43660.65
564.94	43099.50
565.14	43490.66
565.34	43416.94
565.54	43861.35
565.74	43515.24
565.94	43894.11
566.14	43797.86
566.34	43642.21
566.54	44123.49
566.74	43631.97
566.94	44045.66
567.14	44186.97
567.34	43754.85
567.54	44119.39
567.74	43992.42
567.94	43695.46
568.14	43930.98
568.34	44592.47
568.54	44176.73
568.74	44305.76
568.94	44332.38
569.14	44791.12
569.34	44160.35
569.54	44709.21
569.75	44381.53
569.95	44528.98
570.15	45192.53
570.35	45186.38
570.55	44404.06
570.75	44975.44
570.95	44914.00
571.15	45010.26
571.35	45008.21
571.55	45374.80
571.75	44899.67
571.95	45231.44
572.15	45118.80
572.35	45507.91
572.55	45059.41
572.75	45382.99
572.95	45282.64
573.15	45647.18
573.35	45438.28
573.55	45438.28
573.75	45669.70
573.95	45563.21
574.15	45505.87
574.35	45454.67
574.55	45727.05
574.75	45735.24
574.95	45806.92
575.15	45542.73
575.34	45870.40
575.54	46243.13
575.74	45806.92
575.94	46024.00
576.14	46015.81
576.34	46265.66
576.54	46409.02
576.74	46212.41
576.94	46693.69
577.14	46341.44
577.34	47148.34
577.54	46183.74
577.74	46591.29
577.94	46523.71
578.14	46521.66
578.34	47144.24
578.54	46515.51
578.74	46497.08
578.94	46824.76
579.14	47349.04
579.34	46605.62
579.54	47156.53
579.74	47381.80
579.94	47174.96
580.13	47318.32
580.33	46978.36
580.53	47398.19
580.73	47668.52
580.93	47346.99
581.13	47568.17
581.33	47564.07
581.53	47949.09
581.73	47551.79
581.93	48010.53
582.13	47955.24
582.33	47869.22
582.53	47789.35
582.73	47797.54
582.92	47691.05
583.12	48387.36
583.32	48014.63
583.52	47983.91
583.72	48315.68
583.92	47822.12
584.12	48557.34
584.32	48559.39
584.52	48149.79
584.72	48145.70
584.92	48438.56
585.11	48553.24
585.31	48762.14
585.51	48776.47
585.71	48397.60
585.91	48997.65
586.11	48747.80
586.31	48618.78
586.51	48788.76
586.71	48588.06
586.91	49048.85
587.10	49429.77
587.30	48946.45
587.50	49149.20
587.70	48973.08
587.90	49306.90
588.10	49124.63
588.30	49444.11
588.50	49700.11
588.69	49151.25
588.89	49343.76
589.09	49483.02
589.29	49339.66
589.49	49681.67
589.69	49155.35
589.89	49134.87
590.08	49487.12
590.28	48921.88
590.48	49233.17
590.68	49030.42
590.88	49411.34
591.08	49587.47
591.28	49136.91
591.47	50052.36
591.67	49556.75
591.87	49540.36
592.07	49722.63
592.27	49614.09
592.47	49607.95
592.67	49837.32
592.86	49450.25
593.06	49714.44
593.26	50244.87
593.46	49956.10
593.66	49888.52
593.86	50179.33
594.05	50009.35
594.25	50052.36
594.45	50013.44
594.65	49884.42
594.85	49796.36
595.05	50179.33
595.24	50347.26
595.44	50431.23
595.64	50156.80
595.84	50287.87
596.04	50838.78
596.23	50195.71
596.43	50898.17
596.63	50240.77
596.83	50367.74
597.03	51188.98
597.22	50742.52
597.42	50474.24
597.62	50965.75
597.82	50879.74
598.02	50773.24
598.21	51195.12
598.41	50320.64
598.61	50533.63
598.81	50650.36
599.01	50967.80
599.20	51090.68
599.40	50773.24
599.60	51447.02
599.80	51049.72
600.00	51289.33
600.19	51551.47
600.39	50896.12
600.59	51633.39
600.79	51250.42
600.98	51274.99
601.18	51733.74
601.38	51864.81
601.58	51533.04
601.78	51438.83
601.97	51827.95
602.17	51950.82
602.37	51453.17
602.57	51477.74
602.76	51862.76
602.96	51487.98
603.16	51799.27
603.36	51627.24
603.55	51864.81
603.75	51879.14
603.95	51965.16
604.15	52038.89
604.34	51930.34
604.54	52108.52
604.74	52450.53
604.94	52417.76
605.13	52331.75
605.33	52493.54
605.53	52194.53
605.73	52301.03
605.92	52227.30
606.12	52671.71
606.32	52428.00
606.52	52075.75
606.71	52518.11
606.91	52577.50
607.11	52638.94
607.30	52722.91
607.50	52905.18
607.70	52542.69
607.90	52073.70
608.09	52434.14
608.29	52872.41
608.49	53089.49
608.68	52991.19
608.88	52935.90
609.08	52634.84
609.28	52964.57
609.47	52503.77
609.67	53177.56
609.87	53062.87
610.06	53124.31
610.26	52991.19
610.46	53089.49
610.66	52839.64
610.85	53376.21
611.05	53124.31
611.25	53513.42
611.44	53048.53
611.64	53548.24
611.84	52862.17
612.03	52702.43
612.23	53449.94
612.43	53396.69
612.62	53069.01
612.82	53394.64
613.02	53458.13
613.21	53210.32
613.41	53103.83
613.61	53357.78
613.80	53058.77
614.00	53585.10
614.20	53527.76
614.39	53241.04
614.59	53370.07
614.79	53646.54
614.98	53519.57
615.18	53269.72
615.38	53851.34
615.57	53626.06
615.77	53282.00
615.97	53638.35
616.16	53720.27
616.36	53472.46
616.56	54066.38
616.75	53626.06
616.95	53337.30
617.15	54164.68
617.34	53882.06
617.54	53251.28
617.74	53888.20
617.93	53753.04
618.13	53492.94
618.32	53753.04
618.52	53435.60
618.72	53710.03
618.91	53347.54
619.11	53859.53
619.31	53361.87
619.50	53396.69
619.70	53298.39
619.90	53613.77
620.09	53679.31
620.29	53888.20
620.48	53646.54
620.68	53941.45
620.88	53527.76
621.07	53851.34
621.27	53900.49
621.46	53564.62
621.66	53691.60
621.86	53957.83
622.05	53351.63
622.25	53871.82
622.44	53707.98
622.64	53728.46
622.84	53769.42
623.03	53669.07
623.23	53884.11
623.42	53939.40
623.62	53925.07
623.82	54111.43
624.01	54355.14
624.21	54203.59
624.40	54084.81
624.60	53978.31
624.80	53644.49
624.99	54068.42
625.19	53699.79
625.38	54453.44
625.58	53771.47
625.77	53712.08
625.97	54052.04
626.17	53595.34
626.36	53923.02
626.56	54019.27
626.75	53796.04
626.95	54510.78
627.14	54021.32
627.34	54488.26
627.54	54006.98
627.73	53945.54
627.93	54035.66
628.12	54342.85
628.32	54207.68
628.51	54142.15
628.71	54273.22
628.90	54179.01
629.10	54480.06
629.30	54467.78
629.49	54080.71
629.69	54070.47
629.88	54719.68
630.08	54236.36
630.27	54379.71
630.47	54654.14
630.66	54179.01
630.86	54746.30
631.05	53972.17
631.25	54957.24
631.44	54783.16
631.64	54383.81
631.84	54490.30
632.03	54871.23
632.23	54682.81
632.42	55258.29
632.62	54564.03
632.81	54744.25
633.01	54598.85
633.20	55221.43
633.40	54719.68
633.59	55008.44
633.79	54248.64
633.98	54817.98
634.18	54969.53
634.37	55104.70
634.57	54785.21
634.76	55094.46
634.96	54897.85
635.15	55198.90
635.35	54752.44
635.54	55008.44
635.74	55092.41
635.93	54875.32
636.13	55323.83
636.32	55354.55
636.52	54678.72
636.71	55035.06
636.91	55104.70
637.10	55172.28
637.30	55141.56
637.49	54940.86
637.69	54881.47
637.88	55399.60
638.08	54959.29
638.27	55641.26
638.46	55260.34
638.66	55362.74
638.85	55780.52
639.05	55628.98
639.24	55874.73
639.44	55221.43
639.63	55790.76
639.83	55801.00
640.02	55923.88
640.22	55678.13
640.41	55805.10
640.61	54985.91
640.80	55770.28
640.99	55620.78
641.19	56079.53
641.38	55624.88
641.58	55362.74
641.77	55583.92
641.97	55547.06
642.16	55796.91
642.36	55809.20
642.55	56310.95
642.74	55628.98
642.94	56302.76
643.13	55981.23
643.33	56179.88
643.52	55979.18
643.72	56110.25
643.91	55784.62
644.10	56229.03
644.30	56026.28
644.49	56378.53
644.69	56112.30
644.88	56059.05
645.08	55975.08
645.27	56206.50
645.46	55809.20
645.66	56269.99
645.85	55829.68
646.05	56507.55
646.24	56005.80
646.43	56360.10
646.63	56358.05
646.82	56542.37
647.02	56456.35
647.21	56648.86
647.40	56726.69
647.60	56571.04
647.79	56874.14
647.99	56650.91
648.18	56624.29
648.37	57216.15
648.57	56818.84
648.76	56831.13
648.96	56546.47
649.15	56562.85
649.34	57042.07
649.54	56538.27
649.73	56226.98
649.92	57140.38
650.12	56810.65
650.31	57136.28
650.51	56872.09
650.70	57107.61
650.89	56771.74
651.09	57476.24
651.28	57398.42
651.47	57128.09
651.67	57289.88
651.86	57156.76
652.06	56714.40
652.25	57447.57
652.44	56786.08
652.64	56882.33
652.83	56659.10
653.02	56421.54
653.22	56863.90
653.41	56632.48
653.60	56636.58
653.80	56906.91
653.99	57431.19
654.18	56714.40
654.38	56726.69
654.57	56861.85
654.76	56468.64
654.96	56810.65
655.15	56655.01
655.34	56794.27
655.54	56812.70
655.73	56923.29
655.92	57197.72
656.12	56906.91
656.31	57255.06
656.50	56988.83
656.70	57228.44
656.89	56935.58
657.08	57205.91
657.28	57113.75
657.47	56661.15
657.66	57160.86
657.86	56974.49
658.05	57083.03
658.24	57214.10
658.43	56775.84
658.63	56902.81
658.82	57074.84
659.01	56904.86
659.21	57027.74
659.40	56990.87
659.59	56816.80
659.79	56882.33
659.98	57248.92
660.17	56986.78
660.36	56861.85
660.56	56800.41
660.75	57156.76
660.94	57040.03
661.14	56820.89
661.33	56960.15
661.52	56454.31
661.71	57605.26
661.91	56915.10
662.10	56808.61
662.29	56874.14
662.49	56818.84
662.68	56939.68
662.87	56888.48
663.06	56980.63
663.26	56546.47
663.45	56929.44
663.64	56888.48
663.83	57021.59
664.03	57132.18
664.22	57160.86
664.41	57033.88
664.60	56964.25
664.80	56628.38
664.99	56769.69
665.18	56550.56
665.37	56837.28
665.57	56751.26
665.76	56589.47
665.95	56972.44
666.14	56870.04
666.34	56988.83
666.53	56521.89
666.72	56738.97
666.91	56788.13
667.11	56114.34
667.30	56718.49
667.49	56702.11
667.68	56487.07
667.87	56347.81
668.07	56511.65
668.26	56523.94
668.45	56743.07
668.64	56665.25
668.84	57167.00
669.03	56560.80
669.22	56087.72
669.41	56521.89
669.60	56655.01
669.80	56231.08
669.99	56640.67
670.18	56675.49
670.37	56417.44
670.57	56908.96
670.76	56368.29
670.95	56661.15
671.14	56157.35
671.33	56329.38
671.53	56718.49
671.72	56456.35
671.91	55827.63
672.10	56085.67
672.29	56366.24
672.48	55639.22
672.68	56392.87
672.87	55727.28
673.06	56476.83
673.25	56198.31
673.44	56026.28
673.64	55858.35
673.83	56235.17
674.02	56292.52
674.21	55813.29
674.40	56050.86
674.59	55758.00
674.79	55680.17
674.98	55547.06
675.17	56165.54
675.36	55538.86
675.55	56192.17
675.74	55635.12
675.94	55624.88
676.13	55819.44
676.32	55956.65
676.51	55809.20
676.70	55721.13
676.89	55985.32
677.08	56028.33
677.28	55555.25
677.47	56214.69
677.66	56530.08
677.85	55737.52
678.04	55751.85
678.23	55813.29
678.42	55758.00
678.62	55737.52
678.81	56452.26
679.00	55379.12
679.19	55887.02
679.38	55540.91
679.57	55915.69
679.76	55329.97
679.96	55649.45
680.15	55764.14
680.34	55432.37
680.53	55841.96
680.72	55362.74
680.91	55702.70
681.10	55508.14
681.29	55389.36
681.48	55643.31
681.68	55248.05
681.87	55264.44
682.06	55352.50
682.25	54973.63
682.44	55192.76
682.63	55035.06
682.82	54863.03
683.01	55221.43
683.20	54580.42
683.39	55284.92
683.59	54832.32
683.78	55184.57
683.97	54920.38
684.16	55133.37
684.35	54668.48
684.54	55010.49
684.73	55125.17
684.92	55055.54
685.11	54387.91
685.30	54604.99
685.49	55059.64
685.69	54648.00
685.88	54684.86
686.07	54461.63
686.26	54936.76
686.45	54942.91
686.64	54887.61
686.83	54588.61
687.02	54377.67
687.21	54731.96
687.40	54584.51
687.59	54383.81
687.78	54281.41
687.97	54490.30
688.16	54506.69
688.35	54625.47
688.54	54449.35
688.74	54412.48
688.93	54224.07
689.12	54123.72
689.31	54338.75
689.50	54684.86
689.69	54318.28
689.88	53804.24
690.07	54205.64
690.26	53990.60
690.45	54559.94
690.64	53931.21
690.83	54363.33
691.02	53621.97
691.21	53896.39
691.40	53996.74
691.59	54326.47
691.78	53894.35
691.97	54031.56
692.16	54105.29
692.35	54019.27
692.54	54131.91
692.73	54207.68
692.92	53720.27
693.11	53736.65
693.30	53439.70
693.49	54093.00
693.68	53726.41
693.87	53777.61
694.06	53664.97
694.25	53642.45
694.44	53613.77
694.63	53540.05
694.82	53761.23
695.01	53345.49
695.20	53433.55
695.39	53540.05
695.58	53206.23
695.77	53179.60
695.96	53109.97
696.15	53621.97
696.34	53234.90
696.53	53714.12
696.72	53574.86
696.91	53034.20
697.10	53460.18
697.29	53341.39
697.48	53720.27
697.67	53286.10
697.86	52821.21
698.05	52720.86
698.24	53634.25
698.43	52880.60
698.62	53187.80
698.81	53144.79
699.00	53241.04
699.19	52622.56
699.38	52976.86
699.57	52640.99
699.76	53406.93
699.95	52933.85
700.14	52884.70
700.32	53206.23
700.51	53015.77
700.70	52942.04
700.89	53234.90
701.08	52602.08
701.27	52708.57
701.46	53116.12
701.65	52391.14
701.84	53030.10
702.03	52800.73
702.22	52925.66
702.41	52575.45
702.60	53179.60
702.79	52577.50
702.98	52208.87
703.17	52675.80
703.35	52575.45
703.54	52325.60
703.73	52921.56
703.92	52421.86
704.11	52690.14
704.30	52501.73
704.49	52536.54
704.68	52210.92
704.87	52479.20
705.06	52325.60
705.25	52276.45
705.43	52384.99
705.62	52450.53
705.81	52704.48
706.00	52749.53
706.19	51842.28
706.38	52094.18
706.57	52190.44
706.76	52309.22
706.95	52714.72
707.14	52182.24
707.32	51469.55
707.51	52067.56
707.70	51926.25
707.89	52208.87
708.08	52018.41
708.27	52024.55
708.46	52245.73
708.65	51959.02
708.84	52557.02
709.02	52370.66
709.21	52188.39
709.40	52045.03
709.59	52219.11
709.78	51899.62
709.97	52450.53
710.16	52026.60
710.34	51836.14
710.53	52186.34
710.72	51881.19
710.91	51836.14
711.10	52081.89
711.29	52458.72
711.48	51748.07
711.66	51807.47
711.85	51496.17
712.04	51793.13
712.23	51559.66
712.42	51977.45
712.61	51387.63
712.80	51444.98
712.98	51821.80
713.17	51784.94
713.36	51344.62
713.55	51592.43
713.74	51565.81
713.93	51420.40
714.11	51934.44
714.30	51094.77
714.49	51500.27
714.68	51690.73
714.87	51500.27
715.06	51549.42
715.24	50953.46
715.43	51182.84
715.62	51346.67
715.81	51383.54
716.00	51451.12
716.18	51127.54
716.37	50969.85
716.56	51123.44
716.75	51748.07
716.94	51123.44
717.12	50840.82
717.31	51035.38
717.50	50844.92
717.69	51279.09
717.88	51334.38
718.06	51029.24
718.25	51696.88
718.44	51191.03
718.63	51070.20
718.82	50724.09
719.00	50654.46
719.19	50851.06
719.38	50390.27
719.57	50359.55
719.76	50611.45
719.94	50488.57
720.13	50803.96
720.32	50238.72
720.51	50291.97
720.69	49976.58
720.88	50629.88
721.07	50576.64
721.26	49990.92
721.44	49917.19
721.63	50205.95
721.82	50054.40
722.01	49976.58
722.20	50228.48
722.38	49784.07
722.57	49675.53
722.76	50347.26
722.95	49995.01
723.13	49892.61
723.32	49542.41
723.51	49552.65
723.70	49589.52
723.88	49519.88
724.07	49564.94
724.26	49691.91
724.44	49272.08
724.63	49454.35
724.82	49446.16
725.01	49501.45
725.19	49634.57
725.38	48829.72
725.57	48973.08
725.76	49284.37
725.94	48684.31
726.13	49177.87
726.32	49091.86
726.51	49204.50
726.69	49757.45
726.88	49390.86
727.07	49186.07
727.25	49069.33
727.44	49069.33
727.63	49210.64
727.82	49145.11
728.00	49542.41
728.19	48821.53
728.38	49323.28
728.56	48639.26
728.75	49157.39
728.94	48872.73
729.12	49231.12
729.31	49190.16
729.50	49124.63
729.69	48712.98
729.87	49454.35
730.06	49216.78
730.25	48663.83
730.43	49255.70
730.62	49196.31
730.81	49345.81
730.99	49399.05
731.18	48956.69
731.37	49081.62
731.55	49458.45
731.74	49138.96
731.93	49354.00
732.11	49296.66
732.30	49272.08
732.49	49069.33
732.67	49333.52
732.86	48813.34
733.05	49634.57
733.23	49050.90
733.42	48885.01
733.61	48770.33
733.79	49089.81
733.98	49446.16
734.17	48743.70
734.35	48813.34
734.54	49126.67
734.73	49143.06
734.91	48577.82
735.10	48999.70
735.29	48758.04
735.47	48569.63
735.66	48860.44
735.84	49227.02
736.03	48344.35
736.22	48993.56
736.40	48784.66
736.59	49112.34
736.78	48678.17
736.96	48796.95
737.15	48753.94
737.33	48186.66
737.52	48543.00
737.71	48549.15
737.89	48348.45
738.08	48221.47
738.27	47977.76
738.45	48952.60
738.64	48481.56
738.82	48545.05
739.01	48297.25
739.20	47822.12
739.38	48256.29
739.57	48303.39
739.75	48559.39
739.94	47740.20
740.13	48250.14
740.31	48002.34
740.50	48211.23
740.68	48053.54
740.87	47922.47
741.06	48108.83
741.24	48338.21
741.43	47783.21
741.61	47949.09
741.80	47351.09
741.99	48014.63
742.17	47803.69
742.36	48160.03
742.54	47822.12
742.73	47662.38
742.91	47799.59
743.10	47742.25
743.29	47813.93
743.47	47926.56
743.66	47840.55
743.84	47832.36
744.03	47781.16
744.21	47535.40
744.40	47897.89
744.59	47523.11
744.77	47734.06
744.96	47488.30
745.14	47631.66
745.33	47387.95
745.51	47213.87
745.70	47281.45
745.88	47422.76
746.07	47349.04
746.26	47492.40
746.44	46888.24
746.63	46904.63
746.81	47496.49
747.00	46949.68
747.18	46986.55
747.37	46982.45
747.55	47084.85
747.74	47181.10
747.92	46472.51
748.11	46679.35
748.29	46943.54
748.48	46984.50
748.66	46669.11
748.85	46675.26
749.03	46511.42
749.22	46857.52
749.41	46634.30
749.59	46652.73
749.78	46646.58
749.96	45987.14
750.15	46552.38
750.33	46789.94
750.52	46216.51
750.70	46191.94
750.89	46363.96
751.07	46392.64
751.26	46017.86
751.44	46165.31
751.63	46069.06
751.81	45804.87
752.00	46138.69
752.18	45903.17
752.37	46054.72
752.55	45477.19
752.74	45296.97
752.92	45659.46
753.10	45774.15
753.29	46138.69
753.47	45774.15
753.66	45391.18
753.84	46030.15
754.03	45444.43
754.21	45653.32
754.40	45727.05
754.58	46040.39
754.77	45479.24
754.95	45395.28
755.14	45163.85
755.32	45249.87
755.51	44983.63
755.69	44928.34
755.88	45124.94
756.06	45262.16
756.24	44901.71
756.43	45063.50
756.61	45458.76
756.80	44471.64
756.98	44778.84
757.17	44488.03
757.35	44744.02
757.54	44662.10
757.72	44608.86
757.90	44698.97
758.09	44637.53
758.27	44610.90
758.46	44436.83
758.64	44451.16
758.83	44733.78
759.01	44262.75
759.19	44234.08
759.38	44557.66
759.56	44170.59
759.75	44119.39
759.93	44123.49
760.12	43677.03
760.30	44567.90
760.48	43953.51
760.67	44338.52
760.85	44201.31
761.04	44074.34
761.22	44019.04
761.40	43783.52
761.59	43654.50
761.77	43986.27
761.96	43388.27
762.14	43701.61
762.32	43634.02
762.51	43777.38
762.69	43378.03
762.88	43408.75
763.06	43427.18
763.24	43648.36
763.43	43640.17
763.61	43160.94
763.80	43468.14
763.98	42947.95
764.16	43447.66
764.35	43208.04
764.53	42784.12
764.72	43046.26
764.90	43001.20
765.08	42851.70
765.27	42761.59
765.45	42341.75
765.63	42012.03
765.82	42634.61
766.00	42157.44
766.18	42259.84
766.37	42892.66
766.55	42276.22
766.74	42136.96
766.92	42372.47
767.10	42429.82
767.29	42106.24
767.47	42126.72
767.65	41969.02
767.84	42048.89
768.02	42116.48
768.20	41950.59
768.39	42057.09
768.57	41969.02
768.75	41465.22
768.94	41639.30
769.12	41821.57
769.30	41301.39
769.49	41403.78
769.67	41133.45
769.85	41579.91
770.04	41645.44
770.22	41471.37
770.40	40908.18
770.59	41096.59
770.77	41246.09
770.95	41047.44
771.14	40727.95
771.32	41018.77
771.50	40445.33
771.69	40666.52
771.87	40986.00
772.05	40781.20
772.24	40441.24
772.42	40764.82
772.60	40387.99
772.78	40248.73
772.97	40598.93
773.15	40996.24
773.33	40394.14
773.52	40279.45
773.70	40267.16
773.88	40396.18
774.07	40437.14
774.25	40113.56
774.43	40332.70
774.61	40170.91
774.80	40183.19
774.98	40607.12
775.16	40160.67
775.34	40451.48
775.53	40523.16
775.71	40607.12
775.89	40641.94
776.08	40261.02
776.26	40392.09
776.44	40519.06
776.62	40248.73
776.81	40043.93
776.99	40426.90
777.17	40252.83
777.35	40412.57
777.54	40467.86
777.72	40023.45
777.90	40293.79
778.08	40342.94
778.27	40500.63
778.45	40414.62
778.63	40635.80
778.81	40441.24
779.00	41153.93
779.18	40408.47
779.36	40838.54
779.54	40424.86
779.73	40539.54
779.91	40807.83
780.09	40740.24
780.27	40584.60
780.46	40605.08
780.64	40660.37
780.82	40586.64
781.00	40707.47
781.19	40607.12
781.37	41031.05
781.55	40842.64
781.73	41219.47
781.91	40705.43
782.10	40760.72
782.28	40662.42
782.46	41067.92
782.64	41278.86
782.82	40877.46
783.01	41244.04
783.19	41354.63
783.37	41053.58
783.55	40996.24
783.74	40934.80
783.92	40463.77
784.10	41231.75
784.28	40650.13
784.46	40474.01
784.64	40674.71
784.83	40713.62
785.01	40813.97
785.19	40687.00
785.37	40957.33
785.55	40781.20
785.74	40582.55
785.92	40947.09
786.10	41069.97
786.28	40603.03
786.46	40037.79
786.64	40084.89
786.83	40619.41
787.01	40709.52
787.19	40228.25
787.37	40109.47
787.55	40457.62
787.74	40324.50
787.92	40400.28
788.10	40443.29
788.28	40154.52
788.46	40172.96
788.64	39857.57
788.82	40435.10
789.01	39816.61
789.19	40172.96
789.37	39892.38
789.55	39798.18
789.73	39611.81
789.91	39566.76
790.09	39716.26
790.28	39339.43
790.46	39146.92
790.64	39611.81
790.82	39486.89
791.00	39300.52
791.18	39132.59
791.36	39114.16
791.55	39056.81
791.73	38864.30
791.91	38733.23
792.09	38548.92
792.27	39077.29
792.45	38608.31
792.63	38923.69
792.81	38733.23
793.00	38766.00
793.18	38385.08
793.36	38294.97
793.54	38587.83
793.72	38272.44
793.90	37957.05
794.08	38630.83
794.26	38499.76
794.44	37883.33
794.62	37633.47
794.81	37918.14
794.99	37778.88
795.17	37760.45
795.35	37561.79
795.53	37414.34
795.71	37715.39
795.89	37336.52
796.07	37361.09
796.25	36992.46
796.43	37551.56
796.61	37254.60
796.80	36933.07
796.98	37201.35
797.16	36763.09
797.34	36824.53
797.52	36492.76
797.70	36883.92
797.88	36335.06
798.06	36384.21
798.24	36425.17
798.42	36177.37
798.60	36326.87
798.78	35984.86
798.96	36378.07
799.14	35870.17
799.32	36320.73
799.51	35505.63
799.69	35845.60
799.87	35528.16
800.05	35419.62
800.23	35792.35
800.41	35354.08
800.59	35476.96
800.77	35132.90
800.95	34784.75
801.13	35575.27
801.31	34829.80
801.49	35186.15
801.67	34835.95
801.85	34872.81
802.03	34827.76
802.21	34229.75
802.39	34670.06
802.57	34305.52
802.75	34522.61
802.93	34426.35
803.11	34340.34
803.29	33951.23
803.47	34260.47
803.65	34268.66
803.83	34055.67
804.01	33920.51
804.19	33926.65
804.37	33476.10
804.55	33842.68
804.73	33838.59
804.91	33668.61
805.09	33713.66
805.27	33177.09
805.45	33529.34
805.63	33590.78
805.81	33472.00
805.99	33641.98
806.17	33533.44
806.35	33564.16
806.53	32910.86
806.71	33289.73
806.89	33132.04
807.07	32687.63
807.25	33080.84
807.43	32591.37
807.61	33007.11
807.79	33109.51
807.97	32554.51
808.15	32738.83
808.33	32790.03
808.51	32634.38
808.69	32634.38
808.87	32413.20
809.05	32007.70
809.23	32136.73
809.41	32116.25
809.59	32173.59
809.77	32220.69
809.95	31786.52
810.13	32247.32
810.31	31804.95
810.49	32153.11
810.67	31913.50
810.84	31890.97
811.02	31571.49
811.20	31526.43
811.38	31616.54
811.56	31557.15
811.74	31456.80
811.92	31385.12
812.10	31338.02
812.28	31141.41
812.46	31421.98
812.64	31077.93
812.82	31346.21
813.00	31137.32
813.18	31192.61
813.36	31317.54
813.53	30430.77
813.71	30801.45
813.89	31270.43
814.07	30844.46
814.25	30901.80
814.43	30432.82
814.61	30549.55
814.79	30617.13
814.97	30766.63
815.15	30469.68
815.33	30391.86
815.50	30350.90
815.68	30334.51
815.86	30541.36
816.04	30307.89
816.22	29953.59
816.40	30363.18
816.58	29976.12
816.76	29748.79
816.94	30099.00
817.11	29832.76
817.29	29992.50
817.47	29988.41
817.65	29769.27
817.83	29707.83
818.01	29654.59
818.19	29468.22
818.37	29333.06
818.54	29183.55
818.72	29484.61
818.90	29670.97
819.08	29267.52
819.26	29359.68
819.44	29607.48
819.62	29464.13
819.80	29513.28
819.97	29320.77
820.15	29195.84
820.33	29011.53
820.51	29271.62
820.69	28800.58
820.87	29109.83
821.05	29296.19
821.22	28989.00
821.40	28986.95
821.58	29052.48
821.76	28888.65
821.94	28798.54
822.12	28636.75
822.29	28632.65
822.47	28646.99
822.65	28788.30
822.83	28655.18
823.01	28509.77
823.19	28296.78
823.36	28290.64
823.54	28329.55
823.72	28429.90
823.90	28178.00
824.08	28096.08
824.25	28354.13
824.43	27835.99
824.61	28081.75
824.79	28204.63
824.97	28104.28
825.15	28202.58
825.32	28132.95
825.50	28094.04
825.68	28096.08
825.86	28042.84
826.04	27874.90
826.21	28020.31
826.39	27891.29
826.57	27969.11
826.75	27711.07
826.93	27508.32
827.10	27555.42
827.28	27663.96
827.46	28051.03
827.64	27653.72
827.81	27676.25
827.99	27661.91
828.17	27328.10
828.35	27684.44
828.53	27383.39
828.70	27690.59
828.88	27530.84
829.06	27590.24
829.24	27534.94
829.41	27391.58
829.59	27623.00
829.77	27135.59
829.95	27348.57
830.12	26932.84
830.30	27268.70
830.48	27025.00
830.66	26893.93
830.84	27108.96
831.01	26877.54
831.19	27002.47
831.37	26664.55
831.55	26791.53
831.72	26965.60
831.90	26666.60
832.08	27084.39
832.25	26670.70
832.43	26740.33
832.61	26306.16
832.79	26658.41
832.96	26586.73
833.14	26895.97
833.32	26791.53
833.50	26934.88
833.67	26914.41
833.85	26725.99
834.03	26250.86
834.20	26490.48
834.38	26619.50
834.56	26855.01
834.74	26445.42
834.91	26265.20
835.09	26259.06
835.27	26216.05
835.44	26302.06
835.62	25990.77
835.80	26142.32
835.98	26386.03
836.15	25859.70
836.33	26209.90
836.51	25953.91
836.68	25927.28
836.86	25841.27
837.04	25915.00
837.21	26054.26
837.39	25822.84
837.57	25960.05
837.75	26013.30
837.92	25689.72
838.10	25699.96
838.28	25495.16
838.45	25654.90
838.63	25818.74
838.81	25603.71
838.98	25644.66
839.16	25413.24
839.34	25407.10
839.51	25257.60
839.69	25548.41
839.87	25015.94
840.04	25163.39
840.22	25454.20
840.40	25327.23
840.57	25198.21
840.75	25132.67
840.93	24876.68
841.10	25108.10
841.28	25368.19
841.46	25288.32
841.63	25044.61
841.81	25087.62
841.98	25044.61
842.16	25142.91
842.34	25032.32
842.51	24970.88
842.69	25294.46
842.87	24891.01
843.04	25067.14
843.22	24798.85
843.40	24872.58
843.57	24780.42
843.75	25009.79
843.92	25157.25
844.10	24864.39
844.28	24884.87
844.45	24962.69
844.63	24565.39
844.81	24600.20
844.98	24860.29
845.16	24432.27
845.33	24759.94
845.51	24569.48
845.69	24551.05
845.86	24354.44
846.04	24407.69
846.21	24602.25
846.39	24321.68
846.57	24465.03
846.74	24213.13
846.92	24303.25
847.09	24250.00
847.27	24106.64
847.45	24227.47
847.62	24346.25
847.80	24342.16
847.97	24346.25
848.15	24098.45
848.32	23961.23
848.50	23971.47
848.68	24133.26
848.85	23852.69
849.03	23750.29
849.20	23752.34
849.38	23875.22
849.56	23770.77
849.73	23641.75
849.91	23862.93
850.08	23787.16
850.26	23414.43
850.43	23666.33
850.61	23582.36
850.78	23434.91
850.96	23602.84
851.14	23510.68
851.31	23867.03
851.49	23471.77
851.66	23439.00
851.84	23385.76
852.01	23518.87
852.19	23625.37
852.36	23213.73
852.54	23592.60
852.71	23344.80
852.89	23275.16
853.07	23266.97
853.24	23223.97
853.42	23090.85
853.59	23180.96
853.77	23166.62
853.94	23043.74
854.12	23510.68
854.29	23058.08
854.47	22816.42
854.64	23090.85
854.82	23123.62
854.99	23094.94
855.17	22980.26
855.34	22738.60
855.52	22996.64
855.69	22967.97
855.87	22453.93
856.04	22701.73
856.22	22736.55
856.39	22417.07
856.57	22638.25
856.74	22562.47
856.92	22775.46
857.09	22433.45
857.27	22410.92
857.44	22843.04
857.62	22689.45
857.79	22603.43
857.97	22570.66
858.14	22396.59
858.32	22214.32
858.49	22367.91
858.67	22290.09
858.84	22638.25
859.02	22249.13
859.19	22134.45
859.37	22032.05
859.54	22210.22
859.72	22148.78
859.89	22253.23
860.06	22175.41
860.24	22111.92
860.41	22103.73
860.59	21802.68
860.76	22228.65
860.94	21814.96
861.11	22163.12
861.29	21970.61
861.46	22107.82
861.64	21644.98
861.81	21618.36
861.98	22185.65
862.16	21667.51
862.33	21345.98
862.51	21571.25
862.68	21925.55
862.86	21677.75
863.03	21411.51
863.21	21388.99
863.38	21534.39
863.55	21649.08
863.73	21661.37
863.90	21395.13
864.08	21644.98
864.25	21278.40
864.43	21481.14
864.60	21374.65
864.77	21067.45
864.95	21579.45
865.12	21225.15
865.30	21296.83
865.47	21370.55
865.64	20926.14
865.82	21010.11
865.99	21221.05
866.17	21204.67
866.34	21155.52
866.51	20702.92
866.69	21130.94
866.86	20889.28
867.04	21114.56
867.21	20903.62
867.38	21042.88
867.56	20680.39
867.73	20858.56
867.91	20793.03
868.08	20729.54
868.25	20424.39
868.43	20465.35
868.60	20567.75
868.78	20473.54
868.95	20657.86
869.12	20612.81
869.30	20426.44
869.47	20565.70
869.64	20334.28
869.82	20301.51
869.99	20152.01
870.16	20477.64
870.34	20285.13
870.51	20158.16
870.69	19908.30
870.86	20160.20
871.03	19982.03
871.21	20043.47
871.38	19865.30
871.55	20035.28
871.73	19898.06
871.90	19470.04
872.07	19812.05
872.25	19676.88
872.42	19799.76
872.59	19433.18
872.77	19525.33
872.94	19418.84
873.11	19572.44
873.29	19232.47
873.46	19214.04
873.63	19670.74
873.81	19513.05
873.98	19076.83
874.15	19232.47
874.33	19259.10
874.50	19064.54
874.67	19486.42
874.85	19316.44
875.02	19113.69
875.19	19078.88
875.37	19148.51
875.54	19048.16
875.71	19001.05
875.88	18822.88
876.06	19070.68
876.23	18915.04
876.40	18796.26
876.58	18661.09
876.75	18728.67
876.92	18513.64
877.10	18994.91
877.27	18343.66
877.44	18403.05
877.61	18327.27
877.79	18353.90
877.96	18290.41
878.13	18433.77
878.31	18245.35
878.48	18267.88
878.65	18214.63
878.82	18118.38
879.00	18183.91
879.17	18151.15
879.34	18095.85
879.51	18169.58
879.69	18093.80
879.86	18040.56
880.03	18022.12
880.21	17508.08
880.38	17968.88
880.55	17983.21
880.72	17780.46
880.90	17788.66
881.07	17846.00
881.24	17862.38
881.41	17766.13
881.59	17698.55
881.76	17839.86
881.93	17690.35
882.10	17450.74
882.28	17434.36
882.45	17475.32
882.62	17276.66
882.79	17688.31
882.96	17303.29
883.14	17448.69
883.31	17598.20
883.48	17444.60
883.65	17391.35
883.83	17458.93
884.00	17409.78
884.17	17338.10
884.34	17379.06
884.51	17104.64
884.69	17454.84
884.86	17344.25
885.03	17254.14
885.20	16877.31
885.38	17176.31
885.55	17045.24
885.72	17198.84
885.89	17004.28
886.06	17231.61
886.24	17172.22
886.41	16916.22
886.58	17344.25
886.75	17065.72
886.92	17051.39
887.10	16918.27
887.27	16826.11
887.44	16733.95
887.61	16658.18
887.78	16901.89
887.95	16836.35
888.13	16680.71
888.30	16465.67
888.47	16684.80
888.64	16621.31
888.81	16746.24
888.99	16649.99
889.16	16369.41
889.33	16461.57
889.50	16422.66
889.67	16281.35
889.84	16287.50
890.01	16131.85
890.19	16369.41
890.36	16119.56
890.53	16023.31
890.70	16267.02
890.87	16094.99
891.04	16068.36
891.22	16115.47
891.39	15812.37
891.56	15935.24
891.73	16129.80
891.90	16015.12
892.07	15712.02
892.24	15945.48
892.42	15798.03
892.59	15920.91
892.76	15730.45
892.93	15769.36
893.10	16035.60
893.27	15793.94
893.44	15605.52
893.61	15736.59
893.79	15779.60
893.96	15664.91
894.13	15652.63
894.30	15630.10
894.47	15517.46
894.64	15617.81
894.81	15578.90
894.98	15746.83
895.15	15703.82
895.33	15576.85
895.50	15509.27
895.67	15517.46
895.84	15398.68
896.01	15388.44
896.18	15343.38
896.35	15699.73
896.52	15357.72
896.69	15554.32
896.86	15390.49
897.04	15388.44
897.21	15376.15
897.38	15238.94
897.55	15544.08
897.72	15626.00
897.89	15349.53
898.06	15380.25
898.23	15372.05
898.40	15499.03
898.57	15406.87
898.74	15431.44
898.91	15189.78
899.08	15460.12
899.26	15413.01
899.43	15327.00
899.60	15466.26
899.77	15200.02
899.94	15200.02
900.11	15173.40
900.28	15195.93
900.45	15302.42
900.62	15183.64
900.79	15294.23
900.96	15329.05
901.13	15077.15
901.30	15124.25
901.47	15165.21
901.64	15150.87
901.81	14892.83
901.98	15134.49
902.15	15212.31
902.32	15300.37
902.49	15007.52
902.66	15271.70
902.83	15339.29
903.01	15114.01
903.18	15089.43
903.35	15064.86
903.52	15206.17
903.69	15566.61
903.86	15406.87
904.03	15202.07
904.20	15169.30
904.37	15202.07
904.54	15060.76
904.71	15030.04
904.88	15269.66
905.05	15099.67
905.22	15202.07
905.39	15042.33
905.56	14950.17
905.73	15046.43
905.90	15077.15
906.07	15044.38
906.24	15048.47
906.41	14819.10
906.58	15091.48
906.75	15132.44
906.92	14823.20
907.09	15005.47
907.26	15146.78
907.43	14890.78
907.60	15013.66
907.77	15030.04
907.93	15206.17
908.10	15093.53
908.27	15204.12
908.44	14675.74
908.61	14825.25
908.78	14804.77
908.95	14911.26
909.12	14659.36
909.29	14878.49
909.46	14763.81
909.63	15056.67
909.80	14782.24
909.97	14704.42
910.14	14616.35
910.31	14923.55
910.48	14677.79
910.65	14747.42
910.82	14698.27
910.99	14720.80
911.16	14532.39
911.33	14542.63
911.50	14550.82
911.66	14507.81
911.83	14819.10
912.00	14649.12
912.17	14360.36
912.34	14602.02
912.51	14509.86
912.68	14337.83
912.85	14421.80
913.02	14634.78
913.19	14356.26
913.36	14509.86
913.53	14253.86
913.70	14208.81
913.86	14464.80
914.03	14397.22
914.20	14079.79
914.37	14176.04
914.54	14204.71
914.71	14341.93
914.88	14165.80
915.05	13979.43
915.22	14044.97
915.39	14028.59
915.55	14071.59
915.72	13846.32
915.89	13899.56
916.06	13934.38
916.23	13868.84
916.40	13645.62
916.57	13659.95
916.74	13569.84
916.91	13874.99
917.07	13889.32
917.24	13578.03
917.41	13444.91
917.58	13776.69
917.75	13485.87
917.92	13342.52
918.09	13455.15
918.26	13537.07
918.42	13424.44
918.59	13563.70
918.76	13092.66
918.93	13375.28
919.10	13100.86
919.27	13195.06
919.44	13315.89
919.60	13158.20
919.77	13178.68
919.94	13328.18
920.11	13053.75
920.28	13072.18
920.45	12992.31
920.61	13018.94
920.78	12693.31
920.95	12627.78
921.12	13014.84
921.29	12627.78
921.46	12695.36
921.62	12621.63
921.79	12560.19
921.96	12265.28
922.13	12420.93
922.30	12513.09
922.47	12152.65
922.63	12355.40
922.80	12238.66
922.97	12244.81
923.14	11904.84
923.31	12425.03
923.47	12029.77
923.64	12427.07
923.81	12042.06
923.98	11962.19
924.15	11943.75
924.32	11953.99
924.48	11878.22
924.65	12005.19
924.82	11814.73
924.99	11745.10
925.15	11751.24
925.32	11761.48
925.49	11452.24
925.66	11661.13
925.83	11562.83
925.99	11347.79
926.16	11571.02
926.33	11499.34
926.50	11398.99
926.67	11321.17
926.83	11272.02
927.00	11409.23
927.17	11122.52
927.34	10915.67
927.50	11155.29
927.67	11335.51
927.84	11126.61
928.01	10964.82
928.17	10930.01
928.34	10970.97
928.51	10762.08
928.68	10755.93
928.84	10856.28
929.01	10674.01
929.18	10665.82
929.35	10651.49
929.51	10663.77
929.68	10446.69
929.85	10444.64
930.02	10352.48
930.18	10270.56
930.35	10358.63
930.52	10264.42
930.69	10178.40
930.85	10112.87
931.02	10256.23
931.19	10088.29
931.36	10129.25
931.52	10112.87
931.69	10121.06
931.86	10106.73
932.02	10076.01
932.19	9932.65
932.36	9781.10
932.53	10010.47
932.69	9811.82
932.86	9797.48
933.03	9854.83
933.19	9465.71
933.36	9690.99
933.53	9641.84
933.70	9576.30
933.86	9578.35
934.03	9512.81
934.20	9224.05
934.36	9494.38
934.53	8982.39
934.70	8986.49
934.86	9066.36
935.03	9035.64
935.20	8843.13
935.36	8853.37
935.53	8771.45
935.70	8675.20
935.86	8765.31
936.03	8634.24
936.20	8472.45
936.36	8470.40
936.53	8277.89
936.70	8351.62
936.86	8468.35
937.03	8277.89
937.20	8087.43
937.36	8294.27
937.53	7655.31
937.70	7737.23
937.86	7716.75
938.03	7831.43
938.20	7806.86
938.36	7380.88
938.53	7477.13
938.70	7309.20
938.86	7239.57
939.03	7341.97
939.20	7147.41
939.36	6963.09
939.53	7022.48
939.70	7145.36
939.86	6965.14
940.03	6807.45
940.19	6610.84
940.36	6649.75
940.53	6612.89
940.69	6623.13
940.86	6610.84
941.03	6266.78
941.19	6254.50
941.36	6344.61
941.52	6289.31
941.69	6066.08
941.86	6059.94
942.02	6209.44
942.19	6000.55
942.35	6049.70
942.52	5902.25
942.69	5955.49
942.85	5844.90
943.02	5750.70
943.18	5719.98
943.35	5707.69
943.52	5705.64
943.68	5691.31
943.85	5607.34
944.01	5427.12
944.18	5531.56
944.35	5644.20
944.51	5486.51
944.68	5328.81
944.84	5468.08
945.01	5320.62
945.17	5326.77
945.34	5253.04
945.51	5318.57
945.67	5263.28
945.84	5400.49
946.00	5148.59
946.17	5306.29
946.33	5304.24
946.50	5339.05
946.67	5113.78
946.83	5332.91
947.00	5158.83
947.16	5191.60
947.33	5226.42
947.49	5294.00
947.66	5177.26
947.82	5281.71
947.99	5099.44
948.16	5066.67
948.32	5203.89
948.49	5175.22
948.65	5253.04
948.82	5269.42
948.98	5091.25
949.15	5132.21
949.31	5144.50
949.48	5242.80
949.64	4978.61
949.81	5255.09
949.97	5187.50
950.14	5339.05
950.30	5011.38
950.47	5171.12
950.63	5253.04
950.80	5273.52
950.96	5142.45
951.13	5115.83
951.30	5296.05
951.46	5392.30
951.63	5259.18
951.79	5240.75
951.96	5296.05
952.12	5132.21
952.29	5255.09
952.45	5160.88
952.62	5240.75
952.78	5359.53
952.94	5345.20
953.11	5115.83
953.27	5148.59
953.44	5400.49
953.60	5263.28
953.77	5410.73
953.93	5496.75
954.10	5320.62
954.26	5380.01
954.43	5382.06
954.59	5312.43
954.76	5517.23
954.92	5250.99
955.09	5320.62
955.25	5308.34
955.42	5263.28
955.58	5453.74
955.75	5365.68
955.91	5279.66
956.07	5349.29
956.24	5332.91
956.40	5382.06
956.57	5425.07
956.73	5343.15
956.90	5455.79
957.06	5386.16
957.23	5398.45
957.39	5302.19
957.56	5429.17
957.72	5341.10
957.88	5478.32
958.05	5466.03
958.21	5482.41
958.38	5556.14
958.54	5326.77
958.71	5513.13
958.87	5343.15
959.03	5334.96
959.20	5459.88
959.36	5318.57
959.53	5265.33
959.69	5431.21
959.85	5423.02
960.02	5230.51
960.18	5470.12
960.35	5402.54
960.51	5490.60
960.68	5283.76
960.84	5513.13
961.00	5486.51
961.17	5404.59
961.33	5396.40
961.50	5550.00
961.66	5406.64
961.82	5302.19
961.99	5369.77
962.15	5431.21
962.31	5365.68
962.48	5226.42
962.64	5369.77
962.81	5324.72
962.97	5302.19
963.13	5390.25
963.30	5394.35
963.46	5326.77
963.62	5195.70
963.79	5261.23
963.95	5339.05
964.12	5398.45
964.28	5271.47
964.44	5328.81
964.61	5449.64
964.77	5332.91
964.93	5443.50
965.10	5187.50
965.26	5279.66
965.42	5273.52
965.59	5304.24
965.75	5228.46
965.92	5318.57
966.08	5244.85
966.24	5244.85
966.41	5199.79
966.57	5255.09
966.73	5203.89
966.90	5298.10
967.06	5224.37
967.22	5228.46
967.39	5216.18
967.55	5134.26
967.71	5152.69
967.88	5169.07
968.04	5097.39
968.20	5152.69
968.37	5140.40
968.53	4978.61
968.69	5160.88
968.85	5146.55
969.02	5334.96
969.18	5148.59
969.34	5154.74
969.51	5015.48
969.67	5205.94
969.83	5085.11
970.00	5230.51
970.16	5259.18
970.32	5199.79
970.48	5164.98
970.65	5009.33
970.81	5117.87
970.97	4939.70
971.14	4876.21
971.30	5181.36
971.46	4939.70
971.63	5121.97
971.79	4990.90
971.95	4945.84
972.11	4872.12
972.28	4954.04
972.44	5025.72
972.60	4847.54
972.76	4943.80
972.93	4671.42
973.09	5056.43
973.25	4923.32
973.42	4845.49
973.58	4870.07
973.74	4966.32
973.90	4849.59
974.07	4853.69
974.23	4913.08
974.39	4888.50
974.55	4949.94
974.72	4745.14
974.88	4569.02
975.04	4939.70
975.20	4753.34
975.37	4849.59
975.53	4800.44
975.69	4769.72
975.85	4644.79
976.01	4673.46
976.18	4743.10
976.34	4741.05
976.50	4812.73
976.66	4847.54
976.83	4683.70
976.99	4726.71
977.15	4702.14
977.31	4556.73
977.47	4661.18
977.64	4757.43
977.80	4655.03
977.96	4583.35
978.12	4761.53
978.29	4585.40
978.45	4597.69
978.61	4640.70
978.77	4632.51
978.93	4444.09
979.10	4515.77
979.26	4458.43
979.42	4577.21
979.58	4294.59
979.74	4480.96
979.91	4499.39
980.07	4509.63
980.23	4532.15
980.39	4474.81
980.55	4519.87
980.71	4544.44
980.88	4466.62
981.04	4323.26
981.20	4460.48
981.36	4478.91
981.52	4270.01
981.68	4351.93
981.85	4382.65
982.01	4351.93
982.17	4274.11
982.33	4427.71
982.49	4396.99
982.65	4272.06
982.82	4288.45
982.98	4214.72
983.14	4253.63
983.30	4409.28
983.46	4280.25
983.62	4175.81
983.79	4186.05
983.95	4253.63
984.11	4147.14
984.27	4198.34
984.43	4229.06
984.59	4190.14
984.75	4274.11
984.91	4216.77
985.08	4149.18
985.24	4104.13
985.40	4173.76
985.56	4136.90
985.72	4163.52
985.88	4216.77
986.04	4057.03
986.20	4114.37
986.37	4179.90
986.53	4065.22
986.69	4114.37
986.85	3936.20
987.01	4005.83
987.17	4024.26
987.33	4040.64
987.49	4067.27
987.65	4034.50
987.82	4057.03
987.98	3848.13
988.14	4163.52
988.30	4083.65
988.46	3925.96
988.62	3858.37
988.78	3878.85
988.94	3811.27
989.10	3790.79
989.26	3919.81
989.42	3901.38
989.59	3764.17
989.75	3733.45
989.91	3811.27
990.07	3762.12
990.23	3706.82
990.39	3688.39
990.55	3917.76
990.71	3825.61
990.87	3786.69
991.03	3837.89
991.19	3629.00
991.35	3860.42
991.51	3782.60
991.67	3891.14
991.83	3823.56
992.00	3663.82
992.16	3739.59
992.32	3827.65
992.48	3698.63
992.64	3590.09
992.80	3758.02
992.96	3780.55
993.12	3688.39
993.28	3846.09
993.44	3702.73
993.60	3606.47
993.76	3637.19
993.92	3598.28
994.08	3704.78
994.24	3686.34
994.40	3665.86
994.56	3536.84
994.72	3579.85
994.88	3616.71
995.04	3602.38
995.20	3606.47
995.36	3610.57
995.52	3491.79
995.68	3497.93
995.84	3403.72
996.00	3663.82
996.16	3471.31
996.32	3497.93
996.48	3567.56
996.64	3561.42
996.80	3387.34
996.96	3493.83
997.12	3325.90
997.28	3524.55
997.44	3485.64
997.60	3506.12
997.76	3465.16
997.92	3370.96
998.08	3477.45
998.24	3362.76
998.40	3399.63
998.56	3393.48
998.72	3213.26
998.88	3395.53
999.04	3313.61
999.20	3450.83
999.36	3299.28
999.52	3428.30
999.68	3370.96
999.84	3280.85
1000.00	3325.90
1000.16	3368.91
1000.32	3254.22
1000.48	3389.39
1000.64	3260.37
1000.80	3137.49
1000.95	3153.87
1001.11	3383.24
1001.27	3174.35
1001.43	3313.61
1001.59	3108.82
1001.75	3127.25
1001.91	3135.44
1002.07	3141.58
1002.23	3164.11
1002.39	3160.02
1002.55	3051.47
1002.71	3166.16
1002.87	3129.30
1003.03	3084.24
1003.19	3147.73
1003.34	3205.07
1003.50	3178.45
1003.66	3215.31
1003.82	3096.53
1003.98	3082.19
1004.14	3004.37
1004.30	3000.27
1004.46	3016.66
1004.62	3084.24
1004.78	3090.38
1004.94	3076.05
1005.09	3137.49
1005.25	2951.12
1005.41	3018.71
1005.57	2938.84
1005.73	3063.76
1005.89	3026.90
1006.05	3098.58
1006.21	2961.36
1006.37	3012.56
1006.52	2920.40
1006.68	2961.36
1006.84	3024.85
1007.00	2914.26
1007.16	3059.67
1007.32	2881.49
1007.48	2924.50
1007.64	2861.01
1007.79	2940.88
1007.95	2981.84
1008.11	2961.36
1008.27	2942.93
1008.43	2836.44
1008.59	2803.67
1008.75	2877.40
1008.91	2883.54
1009.06	2836.44
1009.22	2846.68
1009.38	2797.53
1009.54	2932.69
1009.70	2742.23
1009.86	2707.41
1010.01	2949.08
1010.17	2785.24
1010.33	2826.20
1010.49	2811.86
1010.65	2854.87
1010.81	2721.75
1010.96	2838.48
1011.12	2656.22
1011.28	2742.23
1011.44	2844.63
1011.60	2729.94
1011.76	2641.88
1011.91	2879.44
1012.07	2633.69
1012.23	2631.64
1012.39	2564.06
1012.55	2756.57
1012.71	2680.79
1012.86	2707.41
1013.02	2664.41
1013.18	2627.54
1013.34	2553.82
1013.50	2703.32
1013.65	2682.84
1013.81	2635.74
1013.97	2639.83
1014.13	2680.79
1014.29	2568.15
1014.44	2691.03
1014.60	2537.43
1014.76	2580.44
1014.92	2633.69
1015.07	2598.87
1015.23	2584.54
1015.39	2502.62
1015.55	2594.78
1015.71	2551.77
1015.86	2514.91
1016.02	2588.63
1016.18	2428.89
1016.34	2494.43
1016.49	2514.91
1016.65	2605.02
1016.81	2547.67
1016.97	2502.62
1017.12	2525.15
1017.28	2416.60
1017.44	2424.80
1017.60	2557.91
1017.75	2430.94
1017.91	2441.18
1018.07	2430.94
1018.23	2424.80
1018.38	2430.94
1018.54	2469.85
1018.70	2478.04
1018.86	2412.51
1019.01	2363.36
1019.17	2410.46
1019.33	2510.81
1019.49	2475.99
1019.64	2484.19
1019.80	2537.43
1019.96	2461.66
1020.12	2404.32
1020.27	2379.74
1020.43	2320.35
1020.59	2406.36
1020.74	2437.08
1020.90	2424.80
1021.06	2344.92
1021.22	2269.15
1021.37	2344.92
1021.53	2291.68
1021.69	2404.32
1021.84	2328.54
1022.00	2363.36
1022.16	2267.10
1022.31	2312.16
1022.47	2260.96
1022.63	2410.46
1022.79	2203.61
1022.94	2244.57
1023.10	2426.84
1023.26	2254.81
1023.41	2248.67
1023.57	2277.34
1023.73	2324.44
1023.88	2297.82
1024.04	2316.25
1024.20	2220.00
1024.35	2222.05
1024.51	2301.92
1024.67	2289.63
1024.82	2297.82
1024.98	2215.90
1025.14	2244.57
1025.29	2254.81
1025.45	2285.53
1025.61	2109.41
1025.76	2207.71
1025.92	2314.20
1026.08	2230.24
1026.23	2220.00
1026.39	2326.49
1026.55	2205.66
1026.70	2269.15
1026.86	2148.32
1027.02	2220.00
1027.17	2224.09
1027.33	2201.57
1027.48	2154.46
1027.64	2125.79
1027.80	2107.36
1027.95	2160.61
1028.11	2154.46
1028.27	2197.47
1028.42	2160.61
1028.58	2138.08
1028.73	2052.06
1028.89	2109.41
1029.05	2217.95
1029.20	2172.89
>>>>>End Processed Spectral Data<<<<<
