SpectraSuite Data File
++++++++++++++++++++++++++++++++++++
Date: Fri Jun 02 14:48:01 CEST 2017
User: INFO_000
Dark Spectrum Present: No
Reference Spectrum Present: No
Number of Sampled Component Spectra: 1
Spectrometers: USB4H00879
Integration Time (usec): 80000 (USB4H00879)
Spectra Averaged: 1 (USB4H00879)
Boxcar Smoothing: 0 (USB4H00879)
Correct for Electrical Dark: No (USB4H00879)
Strobe/Lamp Enabled: No (USB4H00879)
Correct for Detector Non-linearity: No (USB4H00879)
Correct for Stray Light: No (USB4H00879)
Number of Pixels in Processed Spectrum: 3648
>>>>>Begin Processed Spectral Data<<<<<
345.13	1284.08
345.34	1284.08
345.56	1284.08
345.78	1329.13
345.99	1310.70
346.21	1681.38
346.42	1658.85
346.64	1683.43
346.86	1810.40
347.07	1685.48
347.29	1710.05
347.50	1568.74
347.72	1720.29
347.94	1761.25
348.15	1605.61
348.37	1624.04
348.59	1728.49
348.80	1644.52
349.02	1839.08
349.23	1853.41
349.45	1822.69
349.67	1892.32
349.88	1859.56
350.10	1984.48
350.31	1855.46
350.53	1775.59
350.75	1992.67
350.96	1746.92
351.18	1861.60
351.39	1802.21
351.61	1783.78
351.82	2004.96
352.04	1798.12
352.26	1865.70
352.47	1822.69
352.69	1918.95
352.90	1765.35
353.12	1892.32
353.34	1818.60
353.55	1927.14
353.77	1892.32
353.98	1841.12
354.20	1798.12
354.41	1945.57
354.63	1949.67
354.85	2064.35
355.06	1855.46
355.28	1794.02
355.49	1939.43
355.71	1959.91
355.92	1867.75
356.14	1937.38
356.35	1841.12
356.57	1859.56
356.79	1923.04
357.00	1945.57
357.22	2009.06
357.43	1839.08
357.65	1998.82
357.86	1859.56
358.08	1939.43
358.29	2017.25
358.51	2056.16
358.72	1959.91
358.94	1957.86
359.16	1953.76
359.37	1941.47
359.59	1970.15
359.80	1996.77
360.02	2035.68
360.23	1943.52
360.45	2039.78
360.66	2023.39
360.88	1894.37
361.09	1937.38
361.31	1951.71
361.52	1863.65
361.74	1976.29
361.95	2029.54
362.17	1910.75
362.38	2070.50
362.60	1984.48
362.81	2002.91
363.03	1968.10
363.24	2033.63
363.46	2111.46
363.67	2113.50
363.89	2023.39
364.10	1957.86
364.32	1978.34
364.53	1959.91
364.75	1951.71
364.96	2086.88
365.18	2019.30
365.39	2107.36
365.61	1964.00
365.82	2185.18
366.04	2033.63
366.25	1986.53
366.47	2095.07
366.68	2070.50
366.90	1841.12
367.11	2078.69
367.33	2080.74
367.54	2011.11
367.76	2015.20
367.97	2078.69
368.19	1982.43
368.40	2119.65
368.62	2011.11
368.83	2015.20
369.05	2060.26
369.26	1947.62
369.48	1976.29
369.69	1957.86
369.91	2084.83
370.12	2037.73
370.33	2082.78
370.55	1929.19
370.76	1998.82
370.98	2154.46
371.19	2093.02
371.41	2072.54
371.62	1988.58
371.84	1925.09
372.05	2220.00
372.27	2027.49
372.48	2158.56
372.69	2138.08
372.91	2199.52
373.12	2199.52
373.34	2156.51
373.55	2113.50
373.77	2285.53
373.98	2125.79
374.20	2144.22
374.41	2217.95
374.62	2045.92
374.84	2179.04
375.05	2158.56
375.27	2093.02
375.48	2258.91
375.70	2144.22
375.91	2242.53
376.12	2260.96
376.34	2224.09
376.55	2211.81
376.77	2271.20
376.98	2070.50
377.19	2246.62
377.41	2125.79
377.62	2193.37
377.84	2185.18
378.05	2377.69
378.27	2172.89
378.48	2359.26
378.69	2353.12
378.91	2295.77
379.12	2303.96
379.34	2193.37
379.55	2211.81
379.76	2281.44
379.98	2213.85
380.19	2273.25
380.41	2320.35
380.62	2224.09
380.83	2287.58
381.05	2220.00
381.26	2310.11
381.47	2269.15
381.69	2351.07
381.90	2408.41
382.12	2340.83
382.33	2316.25
382.54	2357.21
382.76	2381.79
382.97	2338.78
383.19	2295.77
383.40	2396.12
383.61	2238.43
383.83	2265.05
384.04	2314.20
384.25	2404.32
384.47	2457.56
384.68	2441.18
384.89	2373.60
385.11	2359.26
385.32	2371.55
385.54	2392.03
385.75	2381.79
385.96	2412.51
386.18	2373.60
386.39	2428.89
386.60	2432.99
386.82	2351.07
387.03	2410.46
387.24	2527.19
387.46	2508.76
387.67	2478.04
387.88	2559.96
388.10	2500.57
388.31	2533.34
388.52	2643.93
388.74	2564.06
388.95	2500.57
389.16	2580.44
389.38	2541.53
389.59	2629.59
389.80	2602.97
390.02	2586.58
390.23	2721.75
390.44	2508.76
390.66	2473.95
390.87	2512.86
391.08	2625.50
391.30	2697.17
391.51	2611.16
391.72	2660.31
391.94	2668.50
392.15	2668.50
392.36	2643.93
392.58	2613.21
392.79	2592.73
393.00	2758.61
393.22	2740.18
393.43	2811.86
393.64	2942.93
393.85	2756.57
394.07	2793.43
394.28	2781.14
394.49	2854.87
394.71	2779.09
394.92	2885.59
395.13	2822.10
395.35	2742.23
395.56	2756.57
395.77	2740.18
395.98	2916.31
396.20	2873.30
396.41	2951.12
396.62	3014.61
396.84	2830.29
397.05	2887.64
397.26	2985.94
397.47	2951.12
397.69	2807.77
397.90	3047.38
398.11	2955.22
398.32	2936.79
398.54	2901.97
398.75	2983.89
398.96	2887.64
399.18	3151.82
399.39	2987.99
399.60	3108.82
399.81	2971.60
400.03	2932.69
400.24	3358.67
400.45	3028.95
400.66	3160.02
400.88	3047.38
401.09	3219.41
401.30	3137.49
401.51	3227.60
401.73	3151.82
401.94	3123.15
402.15	3188.69
402.36	3172.30
402.58	3297.23
402.79	3129.30
403.00	3260.37
403.21	3184.59
403.43	3319.76
403.64	3379.15
403.85	3178.45
404.06	3215.31
404.27	3207.12
404.49	3342.28
404.70	3190.74
404.91	3393.48
405.12	3289.04
405.34	3330.00
405.55	3264.46
405.76	3233.74
405.97	3254.22
406.19	3530.70
406.40	3282.89
406.61	3454.92
406.82	3440.59
407.03	3489.74
407.25	3381.20
407.46	3469.26
407.67	3516.36
407.88	3493.83
408.09	3432.40
408.31	3313.61
408.52	3499.98
408.73	3461.07
408.94	3432.40
409.15	3491.79
409.37	3542.99
409.58	3491.79
409.79	3581.90
410.00	3565.51
410.21	3497.93
410.43	3528.65
410.64	3508.17
410.85	3669.96
411.06	3502.03
411.27	3729.35
411.48	3618.76
411.70	3631.05
411.91	3678.15
412.12	3807.17
412.33	3774.41
412.54	3667.91
412.76	3755.97
412.97	3698.63
413.18	3542.99
413.39	3721.16
413.60	3776.45
413.81	3788.74
414.03	3792.84
414.24	3858.37
414.45	3803.08
414.66	3667.91
414.87	3846.09
415.08	3626.95
415.30	3809.22
415.51	3876.80
415.72	3817.41
415.93	3719.11
416.14	3825.61
416.35	3887.04
416.56	3874.76
416.78	3846.09
416.99	3925.96
417.20	3889.09
417.41	4067.27
417.62	4034.50
417.83	3979.20
418.04	3878.85
418.26	4034.50
418.47	3987.40
418.68	4145.09
418.89	4079.55
419.10	4235.20
419.31	4138.94
419.52	4061.12
419.73	4054.98
419.95	4149.18
420.16	3995.59
420.37	4063.17
420.58	4157.38
420.79	3880.90
421.00	4140.99
421.21	4177.86
421.42	4278.21
421.63	4181.95
421.85	4259.78
422.06	4415.42
422.27	4257.73
422.48	4243.39
422.69	4257.73
422.90	4319.17
423.11	4419.52
423.32	4466.62
423.53	4517.82
423.75	4411.32
423.96	4483.00
424.17	4470.72
424.38	4511.68
424.59	4530.11
424.80	4734.90
425.01	4523.96
425.22	4542.39
425.43	4501.44
425.64	4769.72
425.85	4745.14
426.06	4657.08
426.28	4630.46
426.49	4542.39
426.70	4822.97
426.91	4624.31
427.12	4759.48
427.33	4767.67
427.54	4822.97
427.75	4843.45
427.96	4921.27
428.17	4861.88
428.38	4818.87
428.59	4933.56
428.80	4853.69
429.01	4900.79
429.23	4896.69
429.44	5216.18
429.65	5025.72
429.86	4911.03
430.07	4984.76
430.28	4968.37
430.49	5056.43
430.70	5234.61
430.91	5185.46
431.12	5197.74
431.33	5201.84
431.54	5216.18
431.75	5087.15
431.96	5138.35
432.17	5302.19
432.38	5253.04
432.59	5517.23
432.80	5326.77
433.01	5355.44
433.22	5457.84
433.43	5380.01
433.64	5427.12
433.85	5400.49
434.06	5439.40
434.27	5394.35
434.49	5394.35
434.70	5664.68
434.91	5605.29
435.12	5736.36
435.33	5593.00
435.54	5767.08
435.75	5500.84
435.96	5519.28
436.17	5564.33
436.38	5771.18
436.59	5654.44
436.80	5707.69
437.01	5906.34
437.22	5924.77
437.43	5771.18
437.64	5611.43
437.85	5920.68
438.06	5896.10
438.27	5889.96
438.48	5822.38
438.69	5973.92
438.90	6002.60
439.11	5967.78
439.32	6104.99
439.53	5955.49
439.74	6109.09
439.95	5980.07
440.16	5963.68
440.37	6113.19
440.57	5984.16
440.78	6047.65
440.99	6088.61
441.20	6094.76
441.41	6092.71
441.62	6274.98
441.83	6066.08
442.04	6238.11
442.25	6176.67
442.46	6291.36
442.67	6365.09
442.88	6758.30
443.09	6279.07
443.30	6309.79
443.51	6438.81
443.72	6430.62
443.93	6344.61
444.14	6719.39
444.35	6453.15
444.56	6604.70
444.77	6563.74
444.98	6621.08
445.19	6676.38
445.40	6674.33
445.61	6412.19
445.81	6686.62
446.02	6657.95
446.23	6606.75
446.44	6578.08
446.65	6866.84
446.86	6639.51
447.07	6858.65
447.28	7094.16
447.49	6920.09
447.70	6819.74
447.91	6881.18
448.12	6879.13
448.33	6786.97
448.54	6703.00
448.74	7014.29
448.95	6940.57
449.16	6950.81
449.37	7237.52
449.58	7028.63
449.79	7163.79
450.00	7022.48
450.21	7069.59
450.42	7303.06
450.63	7376.78
450.84	7217.04
451.05	7247.76
451.25	7251.86
451.46	7157.65
451.67	7442.32
451.88	7405.46
452.09	7208.85
452.30	7255.95
452.51	7288.72
452.72	7354.26
452.93	7720.84
453.13	7456.65
453.34	7524.24
453.55	7423.89
453.76	7497.61
453.97	8099.72
454.18	7606.16
454.39	7876.49
454.60	7610.25
454.81	7632.78
455.01	7735.18
455.22	7649.16
455.43	7913.35
455.64	7813.00
455.85	8204.16
456.06	8140.68
456.27	8056.71
456.48	7964.55
456.68	8007.56
456.89	8234.88
457.10	8138.63
457.31	8298.37
457.52	8085.38
457.73	8263.55
457.94	8519.55
458.14	8230.79
458.35	8619.90
458.56	8429.44
458.77	8449.92
458.98	8501.12
459.19	8447.87
459.39	8718.20
459.60	8796.03
459.81	8652.67
460.02	8894.33
460.23	8712.06
460.44	9133.94
460.65	8953.72
460.85	9097.08
461.06	9045.88
461.27	8793.98
461.48	9111.41
461.69	9111.41
461.89	8927.10
462.10	9256.82
462.31	9166.71
462.52	9377.65
462.73	9086.84
462.94	9506.67
463.14	9332.59
463.35	9250.67
463.56	9777.00
463.77	9734.00
463.98	9514.86
464.18	9637.74
464.39	9723.76
464.60	9830.25
464.81	9721.71
465.02	9817.96
465.23	9989.99
465.43	9934.70
465.64	10100.58
465.85	9992.04
466.06	9906.02
466.27	10360.67
466.47	10137.45
466.68	10329.95
466.89	10420.06
467.10	10487.65
467.30	10293.09
467.51	10567.52
467.72	10782.56
467.93	10301.28
468.14	10573.66
468.34	10878.81
468.55	10768.22
468.76	10854.23
468.97	10735.45
469.17	11073.37
469.38	11245.40
469.59	11276.12
469.80	10911.58
470.01	11151.19
470.21	11317.08
470.42	11372.37
470.63	11505.49
470.84	11380.56
471.04	11620.17
471.25	11534.16
471.46	11831.12
471.67	12105.54
471.87	11870.03
472.08	12074.82
472.29	12001.10
472.50	11841.36
472.70	11941.71
472.91	11956.04
473.12	12496.71
473.33	12433.22
473.53	12566.34
473.74	12554.05
473.95	12646.21
474.16	12728.13
474.36	12721.98
474.57	12826.43
474.78	12922.68
474.99	12951.35
475.19	13051.70
475.40	13182.77
475.61	13223.73
475.81	13408.05
476.02	13766.45
476.23	13571.89
476.44	13659.95
476.64	13823.79
476.85	14034.73
477.06	13975.34
477.27	14280.49
477.47	14249.77
477.68	14149.42
477.89	14626.59
478.09	14354.21
478.30	14436.13
478.51	14620.45
478.71	14569.25
478.92	14743.33
479.13	15013.66
479.34	14919.45
479.54	14909.21
479.75	15032.09
479.96	15101.72
480.16	15288.09
480.37	15580.95
480.58	15413.01
480.78	15652.63
480.99	15709.97
481.20	15658.77
481.41	15953.68
481.61	15970.06
481.82	16070.41
482.03	16203.53
482.23	15998.73
482.44	16549.64
482.65	16416.52
482.85	16803.58
483.06	16856.83
483.27	16697.09
483.47	16834.30
483.68	16873.21
483.89	17104.64
484.09	17141.50
484.30	17073.92
484.51	17170.17
484.71	17430.26
484.92	17247.99
485.13	17594.10
485.33	17729.27
485.54	17407.73
485.75	18089.71
485.95	18026.22
486.16	17999.60
486.37	18128.62
486.57	18075.37
486.78	18302.70
486.98	18382.57
487.19	18491.11
487.40	18792.16
487.60	19173.08
487.81	18925.28
488.02	18700.00
488.22	18730.72
488.43	19140.32
488.64	19072.73
488.84	19304.15
489.05	19392.22
489.25	19234.52
489.46	19398.36
489.67	19537.62
489.87	19742.42
490.08	19840.72
490.29	19881.68
490.49	20209.36
490.70	19922.64
490.90	20313.80
491.11	20018.89
491.32	20502.22
491.52	20457.16
491.73	20383.43
491.94	20555.46
492.14	20883.14
492.35	20745.92
492.55	20592.33
492.76	20786.88
492.97	20903.62
493.17	21161.66
493.38	21159.61
493.58	21638.84
493.79	21436.09
494.00	21532.34
494.20	21384.89
494.41	21583.54
494.61	21905.07
494.82	21722.80
495.02	21853.87
495.23	22253.23
495.44	21882.55
495.64	22261.42
495.85	22091.44
496.05	22302.38
496.26	22630.05
496.47	22400.68
496.67	22423.21
496.88	22970.02
497.08	22650.53
497.29	22836.90
497.49	23111.33
497.70	22687.40
497.91	23076.51
498.11	23166.62
498.32	23142.05
498.52	23322.27
498.73	23692.95
498.93	23334.56
499.14	23721.62
499.34	23533.21
499.55	23815.83
499.76	23895.70
499.96	23760.53
500.17	23996.05
500.37	24063.63
500.58	23994.00
500.78	24323.72
500.99	23969.43
501.19	24422.03
501.40	24438.41
501.60	24381.07
501.81	24682.12
502.02	24704.65
502.22	24323.72
502.43	24819.33
502.63	24882.82
502.84	24913.54
503.04	24737.41
503.25	25050.75
503.45	24983.17
503.66	25079.43
503.86	25144.96
504.07	25333.37
504.27	25130.62
504.48	25767.54
504.68	25570.94
504.89	25757.30
505.09	25491.07
505.30	25654.90
505.50	25794.17
505.71	25747.06
505.91	25878.13
506.12	25974.39
506.32	26060.40
506.53	26023.54
506.73	26166.90
506.94	26074.74
507.14	26478.19
507.35	26404.46
507.55	26519.15
507.76	26605.16
507.96	26449.52
508.17	26439.28
508.37	26576.49
508.58	26463.85
508.78	26607.21
508.99	27164.26
509.19	26893.93
509.40	27074.15
509.60	27127.39
509.81	27256.42
510.01	27162.21
510.22	26869.35
510.42	27235.94
510.63	27170.40
510.83	27074.15
511.04	27557.47
511.24	27805.27
511.44	27534.94
511.65	27666.01
511.85	27676.25
512.06	27725.40
512.26	28003.92
512.47	27821.66
512.67	27997.78
512.88	27991.64
513.08	27565.66
513.29	28339.79
513.49	27997.78
513.69	28255.82
513.90	28565.07
514.10	28515.92
514.31	28409.42
514.51	28497.49
514.72	28364.37
514.92	28128.85
515.13	28274.26
515.33	28689.99
515.53	28915.27
515.74	28585.55
515.94	28962.37
516.15	28948.04
516.35	28714.57
516.56	29032.00
516.76	28808.78
516.96	29034.05
517.17	28986.95
517.37	29025.86
517.58	29378.11
517.78	29492.80
517.99	29371.97
518.19	29587.00
518.39	29478.46
518.60	29662.78
518.80	29523.52
519.01	29797.95
519.21	29855.29
519.41	29595.20
519.62	29740.60
519.82	29871.67
520.03	29810.23
520.23	29974.07
520.43	29910.58
520.64	30371.38
520.84	30727.72
521.05	30273.07
521.25	30811.69
521.45	30795.31
521.66	30692.91
521.86	30543.41
522.07	30236.21
522.27	30430.77
522.47	30940.71
522.68	31002.15
522.88	30852.65
523.08	31385.12
523.29	31215.14
523.49	31413.79
523.70	31436.32
523.90	31614.49
524.10	31202.85
524.31	31608.35
524.51	31764.00
524.71	32030.23
524.92	31854.11
525.12	32013.85
525.33	31927.83
525.53	32298.52
525.73	32337.43
525.94	32249.36
526.14	32448.02
526.34	32450.06
526.55	32927.24
526.75	32437.78
526.95	32933.39
527.16	32779.79
527.36	32663.05
527.56	32767.50
527.77	33041.93
527.97	32902.67
528.17	33216.01
528.38	33426.95
528.58	33308.16
528.78	33844.73
528.99	33318.40
529.19	33633.79
529.39	33648.13
529.60	34022.90
529.80	33916.41
530.00	34088.44
530.21	33967.61
530.41	34270.71
530.61	34016.76
530.82	34475.51
531.02	34418.16
531.22	34719.21
531.43	34536.94
531.63	34534.90
531.83	35063.27
532.04	34932.20
532.24	34678.25
532.44	35040.75
532.64	35204.58
532.85	35378.66
533.05	35085.80
533.25	35395.04
533.46	35464.67
533.66	35581.41
533.86	35214.82
534.07	36294.10
534.27	35597.79
534.47	36314.58
534.67	36191.70
534.88	36236.76
535.08	36199.90
535.28	36328.92
535.49	36163.03
535.69	36865.49
535.89	36593.11
536.09	36879.82
536.30	36894.16
536.50	36978.12
536.70	37096.91
536.91	36986.32
537.11	37232.07
537.31	37273.03
537.51	37569.99
537.72	37809.60
537.92	38041.02
538.12	37920.19
538.32	37535.17
538.53	37926.33
538.73	38045.12
538.93	38391.22
539.13	37932.48
539.34	37965.24
539.54	37840.32
539.74	38469.04
539.94	38561.20
540.15	38227.38
540.35	38479.28
540.55	38329.78
540.75	38806.96
540.96	38587.83
541.16	38714.80
541.36	38909.36
541.56	39011.76
541.77	39513.51
541.97	39159.21
542.17	39609.76
542.37	39032.24
542.58	39828.90
542.78	39427.49
542.98	39269.80
543.18	39957.92
543.38	39908.77
543.59	40072.60
543.79	39722.40
543.99	39515.56
544.19	39746.98
544.40	39894.43
544.60	40322.46
544.80	40058.27
545.00	40127.90
545.20	40527.25
545.41	40136.09
545.61	40390.04
545.81	40629.65
546.01	40770.96
546.21	40687.00
546.42	41035.15
546.62	40836.50
546.82	40463.77
547.02	40879.50
547.22	40881.55
547.43	40693.14
547.63	41280.91
547.83	41166.22
548.03	40740.24
548.23	40936.85
548.44	41391.50
548.64	41735.56
548.84	41178.51
549.04	41465.22
549.24	41502.09
549.45	41690.50
549.65	41276.81
549.85	41743.75
550.05	41872.77
550.25	41647.49
550.45	42397.05
550.66	42016.13
550.86	41602.44
551.06	41905.54
551.26	42116.48
551.46	42175.87
551.66	42446.20
551.87	42120.57
552.07	42456.44
552.27	42495.35
552.47	42616.18
552.67	42382.71
552.87	42253.69
553.07	42726.77
553.28	42853.75
553.48	43191.66
553.68	43003.25
553.88	43038.06
554.08	42861.94
554.28	42888.56
554.48	43111.79
554.69	42737.01
554.89	42722.68
555.09	43165.04
555.29	43005.30
555.49	43408.75
555.69	43025.78
555.89	43406.70
556.10	43142.51
556.30	43029.87
556.50	43378.03
556.70	43507.05
556.90	43500.90
557.10	43869.54
557.30	43220.33
557.50	43902.31
557.70	43961.70
557.91	44062.05
558.11	44049.76
558.31	43920.74
558.51	43855.20
558.71	44064.10
558.91	44445.02
559.11	43726.18
559.31	43722.08
559.51	44287.32
559.72	44272.99
559.92	44389.72
560.12	44045.66
560.32	44481.88
560.52	44127.58
560.72	44168.54
560.92	44002.66
561.12	44365.15
561.32	45032.78
561.52	44442.97
561.72	44729.69
561.93	44498.26
562.13	44873.04
562.33	44340.57
562.53	45229.39
562.73	44193.12
562.93	44774.74
563.13	44604.76
563.33	44860.76
563.53	45327.69
563.73	44645.72
563.93	45032.78
564.13	45448.52
564.33	44897.62
564.53	44860.76
564.74	45507.91
564.94	45086.03
565.14	45081.94
565.34	45213.01
565.54	45671.75
565.74	45299.02
565.94	45880.64
566.14	45542.73
566.34	45241.68
566.54	45925.70
566.74	45548.87
566.94	45495.63
567.14	45628.74
567.34	45415.76
567.54	45831.49
567.74	45593.93
567.94	45399.37
568.14	45655.37
568.34	46122.30
568.54	45657.42
568.74	46169.41
568.94	45569.35
569.14	46191.94
569.34	45837.64
569.54	46038.34
569.75	45880.64
569.95	46095.68
570.15	46329.15
570.35	46269.76
570.55	46257.47
570.75	46013.76
570.95	46140.74
571.15	46454.08
571.35	46372.16
571.55	46826.81
571.75	46630.20
571.95	46763.32
572.15	46949.68
572.35	47023.41
572.55	46669.11
572.75	47058.23
572.95	46376.25
573.15	47093.04
573.35	46810.42
573.55	46959.92
573.75	47027.51
573.95	46925.11
574.15	46386.49
574.35	47338.80
574.55	47174.96
574.75	46818.61
574.95	47535.40
575.15	47131.95
575.34	47408.43
575.54	47512.88
575.74	47830.31
575.94	47453.48
576.14	47224.11
576.34	47676.71
576.54	47805.73
576.74	47963.43
576.94	47365.42
577.14	48110.88
577.34	48037.16
577.54	47596.84
577.74	48047.39
577.94	47795.49
578.14	48407.84
578.34	47891.75
578.54	47803.69
578.74	48262.43
578.94	48624.92
579.14	47799.59
579.34	48092.45
579.54	48176.42
579.74	48583.96
579.94	48796.95
580.13	48344.35
580.33	48741.66
580.53	48895.25
580.73	48792.86
580.93	48495.90
581.13	48612.63
581.33	49116.43
581.53	48850.20
581.73	48950.55
581.93	49515.79
582.13	49237.26
582.33	49591.56
582.53	49147.15
582.73	49218.83
582.92	49245.46
583.12	49589.52
583.32	49098.00
583.52	49177.87
583.72	49429.77
583.92	49446.16
584.12	49435.92
584.32	49878.28
584.52	49620.23
584.72	49931.53
584.92	50058.50
585.11	50296.06
585.31	49904.90
585.51	50093.32
585.71	50111.75
585.91	50330.88
586.11	49974.53
586.31	50488.57
586.51	50431.23
586.71	50234.63
586.91	50541.82
587.10	50392.32
587.30	50455.81
587.50	50560.25
587.70	50525.44
587.90	50492.67
588.10	50586.88
588.30	50494.72
588.50	50797.82
588.69	51039.48
588.89	50691.32
589.09	50652.41
589.29	50939.13
589.49	51090.68
589.69	50638.08
589.89	51305.71
590.08	50875.64
590.28	51008.76
590.48	51008.76
590.68	50935.03
590.88	51533.04
591.08	51252.47
591.28	51289.33
591.47	51428.59
591.67	51866.86
591.87	51444.98
592.07	52034.79
592.27	51336.43
592.47	51926.25
592.67	51361.01
592.86	51475.69
593.06	51641.58
593.26	52002.02
593.46	51694.83
593.66	52036.84
593.86	51801.32
594.05	52217.06
594.25	52460.77
594.45	52065.51
594.65	52016.36
594.85	51653.87
595.05	52380.90
595.24	52354.27
595.44	52335.84
595.64	52413.66
595.84	52262.11
596.04	52499.68
596.23	52597.98
596.43	52630.75
596.63	52602.08
596.83	52458.72
597.03	52755.68
597.22	53058.77
597.42	52782.30
597.62	53351.63
597.82	53302.48
598.02	53042.39
598.21	53333.20
598.41	52872.41
598.61	53257.43
598.81	53273.81
599.01	53236.95
599.20	53138.65
599.40	53290.19
599.60	53193.94
599.80	53314.77
600.00	53591.25
600.19	53695.69
600.39	53116.12
600.59	54009.03
600.79	53589.20
600.98	53740.75
601.18	53865.67
601.38	53789.90
601.58	53957.83
601.78	54267.08
601.97	53621.97
602.17	54338.75
602.37	54058.18
602.57	54060.23
602.76	54756.54
602.96	54185.16
603.16	54484.16
603.36	54394.05
603.55	54742.20
603.75	54566.08
603.95	55293.11
604.15	54768.83
604.34	54785.21
604.54	54994.10
604.74	54748.35
604.94	54887.61
605.13	55213.24
605.33	54869.18
605.53	55153.85
605.73	55456.95
605.92	55260.34
606.12	55354.55
606.32	55579.82
606.52	55272.63
606.71	55352.50
606.91	55542.96
607.11	55233.72
607.30	55907.50
607.50	55348.40
607.70	55913.64
607.90	54854.84
608.09	55321.78
608.29	56007.85
608.49	55821.48
608.68	55145.65
608.88	55493.81
609.08	55690.41
609.28	55579.82
609.47	55624.88
609.67	56128.68
609.87	55243.96
610.06	56161.45
610.26	55837.87
610.46	56026.28
610.66	55571.63
610.85	56153.26
611.05	55704.75
611.25	56089.77
611.44	55909.55
611.64	56192.17
611.84	55876.78
612.03	55903.40
612.23	56046.76
612.43	56288.42
612.62	56267.94
612.82	56329.38
613.02	56134.82
613.21	56435.87
613.41	55893.16
613.61	56296.61
613.80	55868.59
614.00	55999.66
614.20	56294.56
614.39	55958.70
614.59	56345.76
614.79	56302.76
614.98	56292.52
615.18	56491.17
615.38	56730.78
615.57	55975.08
615.77	56898.72
615.97	56757.41
616.16	56640.67
616.36	56673.44
616.56	56581.28
616.75	56714.40
616.95	56603.81
617.15	56415.40
617.34	56710.30
617.54	56702.11
617.74	57107.61
617.93	56550.56
618.13	56284.33
618.32	56235.17
618.52	56480.93
618.72	56439.97
618.91	56591.52
619.11	56626.34
619.31	56546.47
619.50	56390.82
619.70	56366.24
619.90	56448.16
620.09	56538.27
620.29	56710.30
620.48	56413.35
620.68	57048.22
620.88	56648.86
621.07	56581.28
621.27	56153.26
621.46	56169.64
621.66	56669.34
621.86	56368.29
622.05	55874.73
622.25	56583.33
622.44	56403.11
622.64	56286.37
622.84	56390.82
623.03	56380.58
623.23	56323.24
623.42	56370.34
623.62	56507.55
623.82	56702.11
624.01	56386.72
624.21	56906.91
624.40	56341.67
624.60	56771.74
624.80	56071.34
624.99	56450.21
625.19	56335.52
625.38	56532.13
625.58	56923.29
625.77	56784.03
625.97	56286.37
626.17	55944.36
626.36	56224.93
626.56	56726.69
626.75	55993.51
626.95	56491.17
627.14	56251.56
627.34	56917.15
627.54	56300.71
627.73	56581.28
627.93	56609.95
628.12	56310.95
628.32	55973.03
628.51	56624.29
628.71	56556.70
628.90	56599.71
629.10	56407.20
629.30	56562.85
629.49	56575.14
629.69	56265.89
629.88	56603.81
630.08	56831.13
630.27	56693.92
630.47	56523.94
630.66	56525.99
630.86	56988.83
631.05	56362.15
631.25	57246.87
631.44	56384.68
631.64	56310.95
631.84	56493.22
632.03	57236.63
632.23	56579.23
632.42	57279.64
632.62	56992.92
632.81	56427.68
633.01	57003.16
633.20	56741.02
633.40	56712.35
633.59	56781.98
633.79	56390.82
633.98	56900.76
634.18	57121.94
634.37	56732.83
634.57	56599.71
634.76	56939.68
634.96	56573.09
635.15	56681.63
635.35	56509.60
635.54	57037.98
635.74	56624.29
635.93	56917.15
636.13	56736.93
636.32	57210.01
636.52	56566.94
636.71	56761.50
636.91	56951.96
637.10	57451.67
637.30	56816.80
637.49	56888.48
637.69	56741.02
637.88	57040.03
638.08	56607.90
638.27	56988.83
638.46	56958.11
638.66	57379.99
638.85	56816.80
639.05	56923.29
639.24	57130.14
639.44	56917.15
639.63	57308.31
639.83	56956.06
640.02	56818.84
640.22	57150.62
640.41	57216.15
640.61	56460.45
640.80	56911.00
640.99	57058.46
641.19	57633.94
641.38	56835.23
641.58	57156.76
641.77	57361.56
641.97	56769.69
642.16	56779.93
642.36	57658.51
642.55	57441.43
642.74	56964.25
642.94	57613.46
643.13	57488.53
643.33	57201.82
643.52	57468.05
643.72	57537.68
643.91	57367.70
644.10	57523.35
644.30	57386.13
644.49	57734.29
644.69	57377.94
644.88	57730.19
645.08	57449.62
645.27	57676.94
645.46	57259.16
645.66	58008.71
645.85	57590.93
646.05	57803.92
646.24	57392.28
646.43	57898.12
646.63	58156.17
646.82	57883.79
647.02	57570.45
647.21	58242.18
647.40	57922.70
647.60	57896.08
647.79	58225.80
647.99	58104.97
648.18	57562.26
648.37	58127.50
648.57	57922.70
648.76	57689.23
648.96	57709.71
649.15	58279.05
649.34	57859.21
649.54	57891.98
649.73	57672.85
649.92	57971.85
650.12	58266.76
650.31	58086.54
650.51	58242.18
650.70	57914.51
650.89	57955.47
651.09	58381.45
651.28	58096.78
651.47	57934.99
651.67	58317.96
651.86	58473.60
652.06	57853.07
652.25	58381.45
652.44	58324.10
652.64	57965.71
652.83	58033.29
653.02	57959.56
653.22	58418.31
653.41	57967.76
653.60	57851.02
653.80	57914.51
653.99	58520.71
654.18	57896.08
654.38	58033.29
654.57	57963.66
654.76	58133.64
654.96	58125.45
655.15	58659.97
655.34	58442.88
655.54	58238.09
655.73	58356.87
655.92	58598.53
656.12	58139.78
656.31	58424.45
656.50	58336.39
656.70	58205.32
656.89	58295.43
657.08	58459.27
657.28	58414.21
657.47	58137.74
657.66	58737.79
657.86	58422.40
658.05	58469.51
658.24	58752.13
658.43	58129.54
658.63	58532.99
658.82	58621.06
659.01	58659.97
659.21	58707.07
659.40	58156.17
659.59	58926.20
659.79	58432.64
659.98	58678.40
660.17	58586.24
660.36	58893.44
660.56	58299.53
660.75	58596.48
660.94	58856.57
661.14	58641.54
661.33	58246.28
661.52	58580.10
661.71	58586.24
661.91	58594.43
662.10	58217.61
662.29	59057.27
662.49	58385.54
662.68	58598.53
662.87	58653.82
663.06	58672.26
663.26	58522.76
663.45	58922.11
663.64	58328.20
663.83	59315.32
664.03	58588.29
664.22	58682.50
664.41	58428.55
664.60	58416.26
664.80	58715.26
664.99	58190.98
665.18	58524.80
665.37	58784.90
665.57	58725.50
665.76	58301.57
665.95	58662.02
666.14	58459.27
666.34	58532.99
666.53	58799.23
666.72	58428.55
666.91	58821.76
667.11	58401.92
667.30	58768.51
667.49	58567.81
667.68	58567.81
667.87	58565.76
668.07	58668.16
668.26	58387.59
668.45	58766.46
668.64	58197.13
668.84	59425.91
669.03	58496.13
669.22	58545.28
669.41	58514.56
669.60	58537.09
669.80	58272.90
669.99	58494.08
670.18	58713.22
670.37	59131.00
670.57	58899.58
670.76	58424.45
670.95	58657.92
671.14	58737.79
671.33	58285.19
671.53	59047.04
671.72	58391.68
671.91	58401.92
672.10	58365.06
672.29	58674.30
672.48	58461.32
672.68	58514.56
672.87	58600.58
673.06	58786.94
673.25	58107.02
673.44	58403.97
673.64	58528.90
673.83	58299.53
674.02	58184.84
674.21	58041.48
674.40	58307.72
674.59	58242.18
674.79	58363.01
674.98	57906.32
675.17	58356.87
675.36	58107.02
675.55	58639.49
675.74	58477.70
675.94	58023.05
676.13	58223.75
676.32	58291.33
676.51	58506.37
676.70	58317.96
676.89	58363.01
677.08	58905.73
677.28	58377.35
677.47	58670.21
677.66	58840.19
677.85	58666.11
678.04	58510.47
678.23	58420.36
678.42	58549.38
678.62	58328.20
678.81	58467.46
679.00	58430.60
679.19	58643.59
679.38	58205.32
679.57	58434.69
679.76	58289.29
679.96	58287.24
680.15	58252.42
680.34	58502.28
680.53	58244.23
680.72	58291.33
680.91	58563.71
681.10	58088.59
681.29	58057.87
681.48	58336.39
681.68	58174.60
681.87	58213.51
682.06	58332.29
682.25	57947.28
682.44	57937.04
682.63	57814.16
682.82	57848.97
683.01	57894.03
683.20	57218.20
683.39	58029.19
683.59	57836.69
683.78	57828.49
683.97	57842.83
684.16	58092.68
684.35	57754.77
684.54	57859.21
684.73	58018.95
684.92	57834.64
685.11	57891.98
685.30	57470.10
685.49	57920.65
685.69	57416.85
685.88	57584.79
686.07	58121.35
686.26	57560.21
686.45	57711.76
686.64	57713.81
686.83	57771.15
687.02	57922.70
687.21	57998.48
687.40	57834.64
687.59	57787.53
687.78	57554.07
687.97	57818.25
688.16	57080.98
688.35	57472.15
688.54	57214.10
688.74	57570.45
688.93	57070.75
689.12	57343.12
689.31	57375.89
689.50	57070.75
689.69	57212.06
689.88	57357.46
690.07	57490.58
690.26	57373.84
690.45	57762.96
690.64	56917.15
690.83	56753.31
691.02	57025.69
691.21	57095.32
691.40	56747.17
691.59	57105.56
691.78	56980.63
691.97	57197.72
692.16	56988.83
692.35	57742.48
692.54	56851.61
692.73	57027.74
692.92	56984.73
693.11	57226.39
693.30	56562.85
693.49	56839.32
693.68	57119.90
693.87	56898.72
694.06	56407.20
694.25	56927.39
694.44	56431.78
694.63	56390.82
694.82	56724.64
695.01	56775.84
695.20	56763.55
695.39	56251.56
695.58	56814.75
695.77	56267.94
695.96	56560.80
696.15	56558.75
696.34	56399.01
696.53	56464.55
696.72	56358.05
696.91	56528.03
697.10	56024.23
697.29	56358.05
697.48	56579.23
697.67	55899.31
697.86	55870.64
698.05	55884.97
698.24	56308.90
698.43	55823.53
698.62	55940.27
698.81	55579.82
699.00	56067.24
699.19	56138.92
699.38	56202.41
699.57	55753.90
699.76	56368.29
699.95	55714.99
700.14	55823.53
700.32	55827.63
700.51	55680.17
700.70	55786.67
700.89	55567.54
701.08	55915.69
701.27	55436.47
701.46	56091.82
701.65	55088.31
701.84	55755.95
702.03	55911.59
702.22	55385.27
702.41	55583.92
702.60	55964.84
702.79	55409.84
702.98	54744.25
703.17	55289.01
703.35	55235.77
703.54	55508.14
703.73	55778.48
703.92	55510.19
704.11	55139.51
704.30	54897.85
704.49	55542.96
704.68	55108.79
704.87	55006.39
705.06	55108.79
705.25	54883.51
705.43	55203.00
705.62	55473.33
705.81	54850.75
706.00	54768.83
706.19	54521.02
706.38	55049.40
706.57	54809.79
706.76	54944.95
706.95	55149.75
707.14	54703.29
707.32	54656.19
707.51	54783.16
707.70	54627.52
707.89	54820.03
708.08	54631.61
708.27	55112.89
708.46	54963.39
708.65	54715.58
708.84	54852.80
709.02	54551.74
709.21	54906.04
709.40	54619.33
709.59	54250.69
709.78	54234.31
709.97	54604.99
710.16	54271.17
710.34	54232.26
710.53	54121.67
710.72	54136.01
710.91	54392.00
711.10	54629.57
711.29	54144.20
711.48	54166.73
711.66	53920.97
711.85	53875.91
712.04	54426.82
712.23	54504.64
712.42	54277.32
712.61	54039.75
712.80	53935.30
712.98	54066.38
713.17	53687.50
713.36	53486.80
713.55	53675.21
713.74	54097.09
713.93	53703.88
714.11	53589.20
714.30	53794.00
714.49	53396.69
714.68	53724.36
714.87	53630.16
715.06	53906.63
715.24	53290.19
715.43	53394.64
715.62	53208.28
715.81	53312.72
716.00	53370.07
716.18	52915.42
716.37	53017.82
716.56	53060.82
716.75	53077.21
716.94	52917.46
717.12	53228.76
717.31	53064.92
717.50	53187.80
717.69	52776.15
717.88	53140.69
718.06	53259.48
718.25	53040.34
718.44	52540.64
718.63	52534.49
718.82	52716.76
719.00	52378.85
719.19	52360.42
719.38	52253.92
719.57	52403.42
719.76	52245.73
719.94	51655.92
720.13	52212.96
720.32	52393.18
720.51	51660.01
720.69	52196.58
720.88	51901.67
721.07	52231.40
721.26	51383.54
721.44	51660.01
721.63	51539.18
721.82	51930.34
722.01	51713.26
722.20	51639.53
722.38	51373.30
722.57	51389.68
722.76	51418.35
722.95	51201.27
723.13	51121.40
723.32	51399.92
723.51	50844.92
723.70	50971.89
723.88	51287.28
724.07	50916.60
724.26	51031.29
724.44	50093.32
724.63	51186.93
724.82	50943.22
725.01	50844.92
725.19	51043.57
725.38	50799.86
725.57	50978.04
725.76	50646.27
725.94	50162.95
726.13	50830.58
726.32	50443.52
726.51	50179.33
726.69	50658.56
726.88	50828.54
727.07	50359.55
727.25	50513.15
727.44	50533.63
727.63	50191.62
727.82	50681.08
728.00	50500.86
728.19	50294.02
728.38	50412.80
728.56	50035.97
728.75	50570.49
728.94	50095.36
729.12	50251.01
729.31	50267.39
729.50	50255.11
729.69	50345.22
729.87	50248.96
730.06	50017.54
730.25	50113.80
730.43	50451.71
730.62	50363.65
730.81	50156.80
730.99	50298.11
731.18	49921.29
731.37	50078.98
731.55	50214.15
731.74	50343.17
731.93	50291.97
732.11	50560.25
732.30	50420.99
732.49	50451.71
732.67	50242.82
732.86	49485.07
733.05	49968.39
733.23	49890.57
733.42	49855.75
733.61	49849.61
733.79	49581.32
733.98	50296.06
734.17	50066.69
734.35	49790.22
734.54	49952.01
734.73	49798.41
734.91	49962.25
735.10	49597.71
735.29	49814.79
735.47	49184.02
735.66	49405.20
735.84	49681.67
736.03	49554.70
736.22	50042.12
736.40	49583.37
736.59	50054.40
736.78	49708.30
736.96	49540.36
737.15	49558.80
737.33	49394.96
737.52	49370.38
737.71	49167.63
737.89	48999.70
738.08	49075.48
738.27	49333.52
738.45	49587.47
738.64	49741.06
738.82	49587.47
739.01	49317.14
739.20	49368.33
739.38	49276.18
739.57	49333.52
739.75	49571.08
739.94	48811.29
740.13	48915.73
740.31	49147.15
740.50	48725.27
740.68	48874.77
740.87	49055.00
741.06	49091.86
741.24	48854.29
741.43	48942.36
741.61	48755.99
741.80	48440.60
741.99	48870.68
742.17	48868.63
742.36	48715.03
742.54	48782.62
742.73	48604.44
742.91	49102.10
743.10	49005.84
743.29	48821.53
743.47	48536.86
743.66	48827.67
743.84	48643.35
744.03	48850.20
744.21	48565.53
744.40	49032.47
744.59	48520.48
744.77	48166.18
744.96	48575.77
745.14	48270.62
745.33	48350.49
745.51	48084.26
745.70	48684.31
745.88	47938.85
746.07	48399.65
746.26	47502.64
746.44	48018.72
746.63	48082.21
746.81	47770.92
747.00	47349.04
747.18	48031.01
747.37	47707.43
747.55	47492.40
747.74	48125.22
747.92	47430.96
748.11	47877.41
748.29	47797.54
748.48	47641.90
748.66	47351.09
748.85	48002.34
749.03	47914.28
749.22	48239.90
749.41	47633.71
749.59	47639.85
749.78	47523.11
749.96	47154.48
750.15	47699.24
750.33	47564.07
750.52	47463.72
750.70	47119.66
750.89	47320.37
751.07	46675.26
751.26	47240.50
751.44	46998.83
751.63	47179.06
751.81	46888.24
752.00	46880.05
752.18	47207.73
752.37	46970.16
752.55	46435.64
752.74	47029.55
752.92	46732.60
753.10	47019.31
753.29	46650.68
753.47	46425.40
753.66	46263.61
753.84	46642.49
754.03	46818.61
754.21	46562.62
754.40	46837.05
754.58	46781.75
754.77	46738.74
754.95	46234.94
755.14	46482.75
755.32	46146.88
755.51	46521.66
755.69	46277.95
755.88	46327.10
756.06	46423.36
756.24	46384.44
756.43	46208.32
756.61	46466.36
756.80	46372.16
756.98	45845.83
757.17	46003.52
757.35	45813.06
757.54	46097.73
757.72	45782.34
757.90	46052.67
758.09	45897.03
758.27	45657.42
758.46	45415.76
758.64	45860.16
758.83	46327.10
759.01	45444.43
759.19	45671.75
759.38	45602.12
759.56	46126.40
759.75	45491.53
759.93	45479.24
760.12	45432.14
760.30	45462.86
760.48	45309.26
760.67	45522.25
760.85	45305.16
761.04	45624.65
761.22	45466.95
761.40	45380.94
761.59	45079.89
761.77	44997.97
761.96	45266.25
762.14	45202.77
762.32	45012.31
762.51	45215.05
762.69	44881.24
762.88	44901.71
763.06	45208.91
763.24	45073.74
763.43	44889.43
763.61	44871.00
763.80	44678.49
763.98	44780.88
764.16	44291.42
764.35	44449.11
764.53	44000.61
764.72	44152.16
764.90	44684.63
765.08	44168.54
765.27	44361.05
765.45	44412.25
765.63	44080.48
765.82	43939.17
766.00	44131.68
766.18	43849.06
766.37	44174.69
766.55	43627.88
766.74	43599.21
766.92	43660.65
767.10	44049.76
767.29	43431.27
767.47	43443.56
767.65	43619.69
767.84	43423.08
768.02	43490.66
768.20	43537.77
768.39	43797.86
768.57	43541.86
768.75	43464.04
768.94	43644.26
769.12	43406.70
769.30	43036.02
769.49	43515.24
769.67	43238.76
769.85	42976.62
770.04	43324.78
770.22	43189.61
770.40	43015.54
770.59	42726.77
770.77	42835.31
770.95	42943.86
771.14	42528.12
771.32	42417.53
771.50	42519.93
771.69	42696.05
771.87	42792.31
772.05	42587.51
772.24	42622.33
772.42	42505.59
772.60	42415.48
772.78	42018.17
772.97	42521.98
773.15	42321.27
773.33	42308.99
773.52	42204.54
773.70	41796.99
773.88	42601.85
774.07	42141.05
774.25	42165.63
774.43	42315.13
774.61	42345.85
774.80	42739.06
774.98	42757.49
775.16	42653.05
775.34	42456.44
775.53	42173.82
775.71	42782.07
775.89	42296.70
776.08	42136.96
776.26	42288.51
776.44	42212.73
776.62	42171.77
776.81	42116.48
776.99	42476.92
777.17	42173.82
777.35	42667.38
777.54	42509.69
777.72	42616.18
777.90	42638.71
778.08	42317.18
778.27	42411.38
778.45	43091.31
778.63	42925.42
778.81	42438.01
779.00	43226.48
779.18	42755.44
779.36	43015.54
779.54	42716.53
779.73	42700.15
779.91	43103.60
780.09	43076.97
780.27	42820.98
780.46	42683.76
780.64	42896.75
780.82	42868.08
781.00	42751.35
781.19	43115.89
781.37	43103.60
781.55	42823.03
781.73	43541.86
781.91	43234.67
782.10	43027.82
782.28	43218.28
782.46	43300.20
782.64	43619.69
782.82	42886.51
783.01	43505.00
783.19	43300.20
783.37	43085.17
783.55	42927.47
783.74	43431.27
783.92	43033.97
784.10	43775.33
784.28	43175.28
784.46	43365.74
784.64	43087.21
784.83	43224.43
785.01	43394.41
785.19	42978.67
785.37	43214.19
785.55	43038.06
785.74	42782.07
785.92	42870.13
786.10	43576.68
786.28	43480.42
786.46	42816.88
786.64	42190.20
786.83	42956.14
787.01	42929.52
787.19	43107.69
787.37	43271.53
787.55	42710.39
787.74	42495.35
787.92	42589.56
788.10	42646.90
788.28	42579.32
788.46	42534.26
788.64	41944.45
788.82	42476.92
789.01	42478.97
789.19	42311.03
789.37	42374.52
789.55	41962.88
789.73	41962.88
789.91	42096.00
790.09	42173.82
790.28	42249.60
790.46	41756.03
790.64	42077.57
790.82	41629.06
791.00	41592.20
791.18	41252.23
791.36	41612.68
791.55	41567.62
791.73	41354.63
791.91	41278.86
792.09	41528.71
792.27	41219.47
792.45	41311.63
792.63	41270.67
792.81	41239.95
793.00	41166.22
793.18	41147.79
793.36	40754.58
793.54	40793.49
793.72	40498.58
793.90	40676.76
794.08	40435.10
794.26	40752.53
794.44	40289.69
794.62	39781.79
794.81	40351.13
794.99	40228.25
795.17	40611.22
795.35	39902.62
795.53	39929.25
795.71	39949.73
795.89	39908.77
796.07	39488.93
796.25	40150.43
796.43	39409.06
796.61	39157.16
796.80	39456.17
796.98	38952.37
797.16	39130.54
797.34	39294.38
797.52	39261.61
797.70	39151.02
797.88	38788.53
798.06	38419.89
798.24	38598.07
798.42	38747.57
798.60	38706.61
798.78	38577.59
798.96	38718.90
799.14	38444.47
799.32	38327.74
799.51	38370.74
799.69	38282.68
799.87	38284.73
800.05	37774.78
800.23	37928.38
800.41	37782.98
800.59	37903.81
800.77	37422.53
800.95	37213.64
801.13	37588.42
801.31	37510.60
801.49	37610.95
801.67	37144.01
801.85	37393.86
802.03	36976.08
802.21	37080.52
802.39	36681.17
802.57	37053.90
802.75	36697.55
802.93	36500.95
803.11	36093.40
803.29	36304.34
803.47	36443.60
803.65	36052.44
803.83	36222.42
804.01	36087.26
804.19	35784.16
804.37	35964.38
804.55	35771.87
804.73	35751.39
804.91	35982.81
805.09	35907.04
805.27	35415.52
805.45	35718.62
805.63	35730.91
805.81	35859.93
805.99	35626.46
806.17	35182.06
806.35	35421.67
806.53	35063.27
806.71	34989.55
806.89	35249.64
807.07	34897.39
807.25	34917.87
807.43	34663.92
807.61	35165.67
807.79	35001.83
807.97	34471.41
808.15	34678.25
808.33	34229.75
808.51	34252.28
808.69	34424.31
808.87	34350.58
809.05	34096.63
809.23	34096.63
809.41	33936.89
809.59	33832.44
809.77	34153.97
809.95	34108.92
810.13	34137.59
810.31	33650.17
810.49	33691.13
810.67	33695.23
810.84	33590.78
811.02	33558.02
811.20	33289.73
811.38	33451.52
811.56	33031.69
811.74	32968.20
811.92	32994.82
812.10	33201.67
812.28	32943.63
812.46	33007.11
812.64	33228.29
812.82	33068.55
813.00	32759.31
813.18	32796.17
813.36	32792.08
813.53	32497.17
813.71	32626.19
813.89	32701.96
814.07	32622.09
814.25	32439.82
814.43	31843.87
814.61	31850.01
814.79	31936.02
814.97	32161.30
815.15	32372.24
815.33	31395.36
815.50	31645.21
815.68	31735.32
815.86	32316.95
816.04	31667.74
816.22	31753.76
816.40	31807.00
816.58	31739.42
816.76	31524.38
816.94	31561.25
817.11	31493.66
817.29	31561.25
817.47	31653.40
817.65	31018.53
817.83	30971.43
818.01	31170.08
818.19	30598.70
818.37	31182.37
818.54	30791.21
818.72	31161.89
818.90	30830.12
819.08	30703.15
819.26	31163.94
819.44	31039.01
819.62	30565.93
819.80	30996.01
819.97	30551.60
820.15	30637.61
820.33	30719.53
820.51	30719.53
820.69	30195.25
820.87	30365.23
821.05	30320.18
821.22	30311.99
821.40	30549.55
821.58	30367.28
821.76	30576.17
821.94	29945.40
822.12	29863.48
822.29	30115.38
822.47	29646.40
822.65	30078.52
822.83	29718.07
823.01	29746.75
823.19	29486.65
823.36	29496.89
823.54	29924.92
823.72	29613.63
823.90	29693.50
824.08	29355.58
824.25	29075.01
824.43	29103.68
824.61	29509.18
824.79	29443.65
824.97	29105.73
825.15	29111.88
825.32	29263.43
825.50	29138.50
825.68	28999.24
825.86	29181.51
826.04	29277.76
826.21	29097.54
826.39	29013.57
826.57	28995.14
826.75	28814.92
826.93	28632.65
827.10	28620.36
827.28	28941.89
827.46	28825.16
827.64	28632.65
827.81	28542.54
827.99	28595.79
828.17	28153.43
828.35	28628.56
828.53	28386.89
828.70	28485.20
828.88	28477.01
829.06	28417.61
829.24	28599.88
829.41	28053.08
829.59	28603.98
829.77	28141.14
829.95	28048.98
830.12	28196.43
830.30	27971.16
830.48	28243.54
830.66	28507.72
830.84	28292.69
831.01	27819.61
831.19	27727.45
831.37	27770.46
831.55	27762.26
831.72	28067.41
831.90	27981.40
832.08	27819.61
832.25	27680.35
832.43	27692.63
832.61	27543.13
832.79	27729.50
832.96	27784.79
833.14	27504.22
833.32	27985.49
833.50	27469.40
833.67	27270.75
833.85	27352.67
834.03	27174.50
834.20	27305.57
834.38	27217.50
834.56	27432.54
834.74	27016.80
834.91	27348.57
835.09	27180.64
835.27	26938.98
835.44	26814.05
835.62	26658.41
835.80	27158.11
835.98	27080.29
836.15	26910.31
836.33	26664.55
836.51	26781.29
836.68	26539.63
836.86	26789.48
837.04	26578.54
837.21	26431.08
837.39	26910.31
837.57	26568.30
837.75	26777.19
837.92	26306.16
838.10	26269.30
838.28	26191.47
838.45	26418.80
838.63	26349.17
838.81	26076.79
838.98	26218.10
839.16	25812.60
839.34	26205.81
839.51	25912.95
839.69	25845.37
839.87	25710.20
840.04	26029.68
840.22	25888.37
840.40	26041.97
840.57	25634.42
840.75	25927.28
840.93	25695.86
841.10	26121.84
841.28	26201.71
841.46	25724.54
841.63	25933.43
841.81	25556.60
841.98	25955.96
842.16	25724.54
842.34	25761.40
842.51	25468.54
842.69	25790.07
842.87	25552.51
843.04	25521.79
843.22	25122.43
843.40	25712.25
843.57	25630.33
843.75	25390.72
843.92	25499.26
844.10	25433.72
844.28	25228.93
844.45	25253.50
844.63	25220.74
844.81	24962.69
844.98	25177.73
845.16	25228.93
845.33	25560.70
845.51	25212.54
845.69	24878.72
845.86	24995.46
846.04	24766.09
846.21	25095.81
846.39	25042.56
846.57	24669.83
846.74	25128.58
846.92	24761.99
847.09	24686.22
847.27	24419.98
847.45	24848.00
847.62	24632.97
847.80	24792.71
847.97	24632.97
848.15	24395.40
848.32	24665.74
848.50	24764.04
848.68	24299.15
848.85	24516.23
849.03	24082.06
849.20	24333.96
849.38	24608.39
849.56	24258.19
849.73	24247.95
849.91	24196.75
850.08	24260.24
850.26	24084.11
850.43	24063.63
850.61	24073.87
850.78	23674.52
850.96	23977.62
851.14	23907.99
851.31	24229.52
851.49	23905.94
851.66	23928.47
851.84	23807.64
852.01	23793.30
852.19	24051.34
852.36	23932.56
852.54	23871.12
852.71	23705.24
852.89	23600.79
853.07	23821.97
853.24	23565.98
853.42	23443.10
853.59	23465.63
853.77	23613.08
853.94	23375.52
854.12	23774.87
854.29	23246.49
854.47	23635.61
854.64	23367.32
854.82	23342.75
854.99	23776.92
855.17	23176.86
855.34	23086.75
855.52	23381.66
855.69	23289.50
855.87	23111.33
856.04	23043.74
856.22	22902.43
856.39	22951.59
856.57	22994.59
856.74	23322.27
856.92	23381.66
857.09	23094.94
857.27	23090.85
857.44	23039.65
857.62	22939.30
857.79	22947.49
857.97	23045.79
858.14	22711.97
858.32	22611.62
858.49	22793.89
858.67	22707.88
858.84	22312.62
859.02	22722.21
859.19	22615.72
859.37	22621.86
859.54	22288.04
859.72	22589.10
859.89	22486.70
860.06	22474.41
860.24	22326.96
860.41	22519.46
860.59	21972.66
860.76	22329.00
860.94	22281.90
861.11	22144.69
861.29	21788.34
861.46	22402.73
861.64	21941.94
861.81	21812.92
861.98	22214.32
862.16	21958.32
862.33	22161.07
862.51	21962.42
862.68	22079.15
862.86	21923.51
863.03	21810.87
863.21	21524.15
863.38	21771.96
863.55	21612.21
863.73	22161.07
863.90	21563.06
864.08	21884.59
864.25	21634.74
864.43	21563.06
864.60	21757.62
864.77	21575.35
864.95	21800.63
865.12	21544.63
865.30	21552.82
865.47	21409.47
865.64	21262.01
865.82	21626.55
865.99	21589.69
866.17	21257.92
866.34	21380.79
866.51	20889.28
866.69	21286.59
866.86	21429.94
867.04	21343.93
867.21	21292.73
867.38	21253.82
867.56	21034.69
867.73	21165.76
867.91	20979.39
868.08	20813.51
868.25	20848.32
868.43	20674.24
868.60	20833.99
868.78	20694.72
868.95	21085.89
869.12	20788.93
869.30	20793.03
869.47	20909.76
869.64	20475.59
869.82	20647.62
869.99	20840.13
870.16	20702.92
870.34	20289.23
870.51	20661.96
870.69	20426.44
870.86	20346.57
871.03	20293.32
871.21	20307.66
871.38	20432.58
871.55	20190.92
871.73	20276.94
871.90	20303.56
872.07	20068.05
872.25	20229.84
872.42	20098.77
872.59	19865.30
872.77	19961.55
872.94	20016.85
873.11	20072.14
873.29	20104.91
873.46	19662.55
873.63	19898.06
873.81	19617.49
873.98	19394.26
874.15	19816.15
874.33	19465.94
874.50	19447.51
874.67	19570.39
874.85	19433.18
875.02	19543.77
875.19	19334.87
875.37	19353.30
875.54	19533.53
875.71	19486.42
875.88	19162.84
876.06	19306.20
876.23	19295.96
876.40	19087.07
876.58	19132.12
876.75	19146.46
876.92	19357.40
877.10	19070.68
877.27	19001.05
877.44	18939.62
877.61	18953.95
877.79	18835.17
877.96	18804.45
878.13	18527.97
878.31	18677.48
878.48	18712.29
878.65	18667.24
878.82	18603.75
879.00	18568.93
879.17	18679.52
879.34	18511.59
879.51	18482.92
879.69	18224.87
879.86	18278.12
880.03	18325.22
880.21	18171.63
880.38	18306.79
880.55	18128.62
880.72	18114.28
880.90	18118.38
881.07	18153.20
881.24	18218.73
881.41	18292.46
881.59	17944.30
881.76	17981.17
881.93	17692.40
882.10	17995.50
882.28	17551.09
882.45	17968.88
882.62	17936.11
882.79	17850.10
882.96	17798.90
883.14	17688.31
883.31	17907.44
883.48	17694.45
883.65	17770.22
883.83	17893.10
884.00	17712.88
884.17	17833.71
884.34	18069.23
884.51	17805.04
884.69	17663.73
884.86	17794.80
885.03	17684.21
885.20	17682.16
885.38	17612.53
885.55	17495.80
885.72	17417.97
885.89	17481.46
886.06	17692.40
886.24	17452.79
886.41	17331.96
886.58	17602.29
886.75	17565.43
886.92	17221.37
887.10	17377.01
887.27	17487.61
887.44	17506.04
887.61	17542.90
887.78	17454.84
887.95	17415.93
888.13	17035.00
888.30	17028.86
888.47	16981.76
888.64	17037.05
888.81	16920.32
888.99	16932.61
889.16	16742.14
889.33	16891.65
889.50	16881.41
889.67	16934.65
889.84	16746.24
890.01	16879.36
890.19	16692.99
890.36	16918.27
890.53	16914.17
890.70	16609.03
890.87	16662.27
891.04	16551.68
891.22	16596.74
891.39	16490.24
891.56	16549.64
891.73	16340.74
891.90	16504.58
892.07	16305.93
892.24	16246.54
892.42	16269.06
892.59	16348.93
892.76	16330.50
892.93	16316.17
893.10	16330.50
893.27	16273.16
893.44	16181.00
893.61	16070.41
893.79	16264.97
893.96	16041.74
894.13	16408.33
894.30	16404.23
894.47	16056.08
894.64	16271.11
894.81	16174.86
894.98	16295.69
895.15	16131.85
895.33	15992.59
895.50	16033.55
895.67	16189.19
895.84	16035.60
896.01	16113.42
896.18	16142.09
896.35	16252.68
896.52	15873.81
896.69	15912.72
896.86	15961.87
897.04	15951.63
897.21	15945.48
897.38	16013.07
897.55	16017.16
897.72	16164.62
897.89	15802.13
898.06	16174.86
898.23	15943.44
898.40	16035.60
898.57	16264.97
898.74	15896.33
898.91	15664.91
899.08	15888.14
899.26	15968.01
899.43	15953.68
899.60	15875.85
899.77	15775.50
899.94	15595.28
900.11	15941.39
900.28	15728.40
900.45	15750.93
900.62	15728.40
900.79	15877.90
900.96	15851.28
901.13	15851.28
901.30	15851.28
901.47	15781.65
901.64	15892.24
901.81	15795.98
901.98	15712.02
902.15	15972.11
902.32	15478.55
902.49	15929.10
902.66	15693.58
902.83	15886.09
903.01	15849.23
903.18	16008.97
903.35	15755.02
903.52	15970.06
903.69	15709.97
903.86	15904.53
904.03	15802.13
904.20	15929.10
904.37	15787.79
904.54	15875.85
904.71	15916.81
904.88	15814.41
905.05	15843.09
905.22	15742.74
905.39	15990.54
905.56	15746.83
905.73	15505.17
905.90	15582.99
906.07	15716.11
906.24	15617.81
906.41	15703.82
906.58	15781.65
906.75	15496.98
906.92	15445.78
907.09	15679.25
907.26	15585.04
907.43	15562.51
907.60	15447.83
907.77	15619.86
907.93	15630.10
908.10	15857.42
908.27	15808.27
908.44	15509.27
908.61	15484.69
908.78	15525.65
908.95	15652.63
909.12	15509.27
909.29	15755.02
909.46	15576.85
909.63	15757.07
909.80	15615.76
909.97	15664.91
910.14	15288.09
910.31	15490.84
910.48	15628.05
910.65	15126.30
910.82	15232.79
910.99	15601.43
911.16	15546.13
911.33	15431.44
911.50	15556.37
911.66	15365.91
911.83	15208.22
912.00	15089.43
912.17	15001.37
912.34	15011.61
912.51	15206.17
912.68	15021.85
912.85	15365.91
913.02	15204.12
913.19	15114.01
913.36	14950.17
913.53	15402.77
913.70	14919.45
913.86	15146.78
914.03	14964.51
914.20	15034.14
914.37	14931.74
914.54	14946.08
914.71	14888.73
914.88	14984.99
915.05	14870.30
915.22	14685.98
915.39	14622.50
915.55	14692.13
915.72	14477.09
915.89	14438.18
916.06	14436.13
916.23	14563.11
916.40	14452.52
916.57	14307.11
916.74	14448.42
916.91	14401.32
917.07	14341.93
917.24	14460.71
917.41	14372.64
917.58	14692.13
917.75	14319.40
917.92	14190.38
918.09	14247.72
918.26	14266.15
918.42	14413.60
918.59	14081.83
918.76	13969.19
918.93	13956.91
919.10	14069.55
919.27	14124.84
919.44	13952.81
919.60	13948.72
919.77	13805.36
919.94	13776.69
920.11	13764.40
920.28	13786.93
920.45	13610.80
920.61	13479.73
920.78	13780.78
920.95	13813.55
921.12	13324.08
921.29	13418.29
921.46	13190.97
921.62	13287.22
921.79	13430.58
921.96	13264.69
922.13	13262.65
922.30	12967.74
922.47	12887.87
922.63	13111.10
922.80	12902.20
922.97	12730.17
923.14	12625.73
923.31	13160.25
923.47	12894.01
923.64	13023.03
923.81	12545.86
923.98	12844.86
924.15	12418.88
924.32	12549.95
924.48	12543.81
924.65	12539.71
924.82	12470.08
924.99	12304.20
925.15	12259.14
925.32	12525.38
925.49	12199.75
925.66	12324.68
925.83	12078.92
925.99	12150.60
926.16	12171.08
926.33	12246.85
926.50	11589.46
926.67	12121.93
926.83	12166.98
927.00	11870.03
927.17	12085.06
927.34	11771.72
927.50	11710.29
927.67	11970.38
927.84	11661.13
928.01	11521.87
928.17	11511.63
928.34	11587.41
928.51	11523.92
928.68	11315.03
928.84	11360.08
929.01	11325.27
929.18	11099.99
929.35	11192.15
929.51	11005.78
929.68	11106.13
929.85	11188.05
930.02	11022.17
930.18	11087.70
930.35	11040.60
930.52	10815.32
930.69	10936.15
930.85	10854.23
931.02	10784.60
931.19	10676.06
931.36	10706.78
931.52	10698.59
931.69	10575.71
931.86	10485.60
932.02	10604.38
932.19	10712.92
932.36	10375.01
932.53	10428.26
932.69	10370.91
932.86	10362.72
933.03	10456.93
933.19	10067.81
933.36	10248.04
933.53	10037.09
933.70	10061.67
933.86	10022.76
934.03	9805.67
934.20	9885.55
934.36	9858.92
934.53	9598.83
934.70	9539.44
934.86	9627.50
935.03	9533.29
935.20	9480.05
935.36	9471.86
935.53	9467.76
935.70	9338.74
935.86	9252.72
936.03	8984.44
936.20	9031.54
936.36	8894.33
936.53	8769.40
936.70	8734.59
936.86	8810.36
937.03	8527.74
937.20	8523.65
937.36	8509.31
937.53	8159.11
937.70	8243.07
937.86	8337.28
938.03	8204.16
938.20	8165.25
938.36	7962.50
938.53	8017.80
938.70	7786.38
938.86	7739.27
939.03	7624.59
939.20	7460.75
939.36	7540.62
939.53	7409.55
939.70	7491.47
939.86	7270.29
940.03	7106.45
940.19	7171.99
940.36	7104.40
940.53	6866.84
940.69	6999.96
940.86	6891.41
941.03	6631.32
941.19	6565.79
941.36	6602.65
941.52	6643.61
941.69	6528.92
941.86	6426.53
942.02	6346.66
942.19	6326.18
942.35	6360.99
942.52	6303.65
942.69	6162.34
942.85	6129.57
943.02	5941.16
943.18	5982.12
943.35	6025.12
943.52	5871.53
943.68	5828.52
943.85	5812.14
944.01	5834.66
944.18	5867.43
944.35	5830.57
944.51	5654.44
944.68	5533.61
944.84	5488.56
945.01	5683.11
945.17	5605.29
945.34	5644.20
945.51	5523.37
945.67	5568.43
945.84	5408.69
946.00	5486.51
946.17	5423.02
946.33	5517.23
946.50	5435.31
946.67	5545.90
946.83	5480.36
947.00	5564.33
947.16	5416.88
947.33	5511.08
947.49	5445.55
947.66	5435.31
947.82	5474.22
947.99	5500.84
948.16	5380.01
948.32	5486.51
948.49	5435.31
948.65	5425.07
948.82	5480.36
948.98	5435.31
949.15	5230.51
949.31	5535.66
949.48	5494.70
949.64	5517.23
949.81	5449.64
949.97	5390.25
950.14	5590.95
950.30	5353.39
950.47	5406.64
950.63	5570.48
950.80	5447.60
950.96	5414.83
951.13	5642.15
951.30	5556.14
951.46	5480.36
951.63	5633.96
951.79	5488.56
951.96	5588.91
952.12	5463.98
952.29	5646.25
952.45	5556.14
952.62	5476.27
952.78	5642.15
952.94	5574.57
953.11	5498.80
953.27	5437.36
953.44	5621.67
953.60	5529.52
953.77	5670.83
953.93	5480.36
954.10	5629.87
954.26	5496.75
954.43	5545.90
954.59	5754.79
954.76	5781.42
954.92	5558.19
955.09	5625.77
955.25	5533.61
955.42	5451.69
955.58	5631.91
955.75	5642.15
955.91	5562.28
956.07	5640.11
956.24	5595.05
956.40	5642.15
956.57	5781.42
956.73	5576.62
956.90	5687.21
957.06	5570.48
957.23	5554.09
957.39	5681.07
957.56	5535.66
957.72	5578.67
957.88	5484.46
958.05	5722.02
958.21	5660.59
958.38	5640.11
958.54	5521.32
958.71	5853.09
958.87	5552.04
959.03	5722.02
959.20	5660.59
959.36	5623.72
959.53	5554.09
959.69	5588.91
959.85	5619.63
960.02	5433.26
960.18	5625.77
960.35	5531.56
960.51	5650.35
960.68	5545.90
960.84	5523.37
961.00	5586.86
961.17	5521.32
961.33	5746.60
961.50	5642.15
961.66	5681.07
961.82	5683.11
961.99	5664.68
962.15	5603.24
962.31	5547.95
962.48	5582.76
962.64	5609.39
962.81	5566.38
962.97	5545.90
963.13	5402.54
963.30	5691.31
963.46	5498.80
963.62	5523.37
963.79	5433.26
963.95	5492.65
964.12	5533.61
964.28	5498.80
964.44	5410.73
964.61	5562.28
964.77	5562.28
964.93	5615.53
965.10	5408.69
965.26	5384.11
965.42	5445.55
965.59	5423.02
965.75	5517.23
965.92	5502.89
966.08	5351.34
966.24	5420.97
966.41	5463.98
966.57	5441.45
966.73	5543.85
966.90	5509.04
967.06	5431.21
967.22	5556.14
967.39	5382.06
967.55	5308.34
967.71	5478.32
967.88	5375.92
968.04	5328.81
968.20	5287.86
968.37	5386.16
968.53	5320.62
968.69	5250.99
968.85	5377.97
969.02	5238.70
969.18	5326.77
969.34	5291.95
969.51	5369.77
969.67	5263.28
969.83	5185.46
970.00	5285.81
970.16	5244.85
970.32	5408.69
970.48	5334.96
970.65	5050.29
970.81	5160.88
970.97	5126.07
971.14	5015.48
971.30	5283.76
971.46	5191.60
971.63	5140.40
971.79	5377.97
971.95	5234.61
972.11	5158.83
972.28	5128.11
972.44	5189.55
972.60	5013.43
972.76	5060.53
972.93	5078.96
973.09	5222.32
973.25	5105.59
973.42	4986.80
973.58	5267.38
973.74	4917.17
973.90	5105.59
974.07	4997.04
974.23	5093.30
974.39	5005.24
974.55	4986.80
974.72	4939.70
974.88	4908.98
975.04	5128.11
975.20	4814.77
975.37	4925.36
975.53	4964.28
975.69	4870.07
975.85	4878.26
976.01	4863.93
976.18	4861.88
976.34	4777.91
976.50	4945.84
976.66	4968.37
976.83	4825.01
976.99	4890.55
977.15	4734.90
977.31	4671.42
977.47	4863.93
977.64	4792.25
977.80	4771.77
977.96	4657.08
978.12	4720.57
978.29	4710.33
978.45	4743.10
978.61	4632.51
978.77	4755.38
978.93	4618.17
979.10	4609.98
979.26	4794.29
979.42	4587.45
979.58	4616.12
979.74	4695.99
979.91	4614.07
980.07	4640.70
980.23	4607.93
980.39	4550.59
980.55	4550.59
980.71	4652.98
980.88	4579.26
981.04	4534.20
981.20	4523.96
981.36	4480.96
981.52	4421.56
981.68	4374.46
981.85	4593.59
982.01	4517.82
982.17	4452.28
982.33	4503.48
982.49	4450.24
982.65	4472.76
982.82	4450.24
982.98	4462.52
983.14	4388.80
983.30	4501.44
983.46	4368.32
983.62	4444.09
983.79	4411.32
983.95	4292.54
984.11	4337.60
984.27	4351.93
984.43	4306.88
984.59	4409.28
984.75	4212.67
984.91	4386.75
985.08	4454.33
985.24	4290.49
985.40	4175.81
985.56	4163.52
985.72	4343.74
985.88	4196.29
986.04	4243.39
986.20	4120.51
986.37	4245.44
986.53	4241.34
986.69	4143.04
986.85	4157.38
987.01	4026.31
987.17	4097.99
987.33	4022.21
987.49	4052.93
987.65	4081.60
987.82	4077.51
987.98	3897.28
988.14	4095.94
988.30	4102.08
988.46	4048.83
988.62	3966.92
988.78	3958.72
988.94	4081.60
989.10	4118.47
989.26	3950.53
989.42	3977.16
989.59	3905.48
989.75	3911.62
989.91	3979.20
990.07	3872.71
990.23	3874.76
990.39	3821.51
990.55	4065.22
990.71	3844.04
990.87	3891.14
991.03	3885.00
991.19	3743.69
991.35	3817.41
991.51	3878.85
991.67	3901.38
991.83	3798.98
992.00	3762.12
992.16	3829.70
992.32	3807.17
992.48	3866.56
992.64	3721.16
992.80	3758.02
992.96	3672.01
993.12	3895.24
993.28	3796.93
993.44	3704.78
993.60	3762.12
993.76	3739.59
993.92	3649.48
994.08	3784.65
994.24	3661.77
994.40	3674.06
994.56	3741.64
994.72	3672.01
994.88	3608.52
995.04	3696.58
995.20	3684.30
995.36	3663.82
995.52	3665.86
995.68	3530.70
995.84	3502.03
996.00	3645.38
996.16	3530.70
996.32	3547.08
996.48	3526.60
996.64	3692.49
996.80	3407.82
996.96	3522.51
997.12	3571.66
997.28	3598.28
997.44	3518.41
997.60	3540.94
997.76	3497.93
997.92	3563.47
998.08	3432.40
998.24	3418.06
998.40	3483.59
998.56	3444.68
998.72	3330.00
998.88	3471.31
999.04	3379.15
999.20	3514.31
999.36	3362.76
999.52	3385.29
999.68	3428.30
999.84	3450.83
1000.00	3350.48
1000.16	3422.16
1000.32	3344.33
1000.48	3442.64
1000.64	3260.37
1000.80	3229.65
1000.95	3180.50
1001.11	3385.29
1001.27	3319.76
1001.43	3243.98
1001.59	3254.22
1001.75	3221.45
1001.91	3307.47
1002.07	3157.97
1002.23	3094.48
1002.39	3231.69
1002.55	3227.60
1002.71	3071.95
1002.87	3129.30
1003.03	3106.77
1003.19	3182.54
1003.34	3305.42
1003.50	3184.59
1003.66	3207.12
1003.82	3209.17
1003.98	3114.96
1004.14	3129.30
1004.30	3114.96
1004.46	3024.85
1004.62	3094.48
1004.78	3133.39
1004.94	3131.34
1005.09	3069.91
1005.25	3076.05
1005.41	2953.17
1005.57	3028.95
1005.73	2967.51
1005.89	3063.76
1006.05	3180.50
1006.21	3086.29
1006.37	3016.66
1006.52	2926.55
1006.68	2904.02
1006.84	3098.58
1007.00	2961.36
1007.16	3030.99
1007.32	2877.40
1007.48	3002.32
1007.64	2955.22
1007.79	2936.79
1007.95	2897.88
1008.11	2992.08
1008.27	2922.45
1008.43	2901.97
1008.59	2887.64
1008.75	3020.75
1008.91	2949.08
1009.06	2891.73
1009.22	2977.75
1009.38	2842.58
1009.54	2869.20
1009.70	2785.24
1009.86	2910.16
1010.01	2834.39
1010.17	2807.77
1010.33	2807.77
1010.49	2760.66
1010.65	2924.50
1010.81	2793.43
1010.96	2789.33
1011.12	2725.85
1011.28	2693.08
1011.44	2715.61
1011.60	2727.89
1011.76	2670.55
1011.91	2828.24
1012.07	2707.41
1012.23	2674.65
1012.39	2740.18
1012.55	2707.41
1012.71	2635.74
1012.86	2691.03
1013.02	2643.93
1013.18	2725.85
1013.34	2697.17
1013.50	2664.41
1013.65	2670.55
1013.81	2600.92
1013.97	2568.15
1014.13	2611.16
1014.29	2539.48
1014.44	2648.02
1014.60	2637.78
1014.76	2641.88
1014.92	2629.59
1015.07	2631.64
1015.23	2592.73
1015.39	2564.06
1015.55	2676.70
1015.71	2611.16
1015.86	2525.15
1016.02	2537.43
1016.18	2539.48
1016.34	2523.10
1016.49	2508.76
1016.65	2582.49
1016.81	2478.04
1016.97	2570.20
1017.12	2562.01
1017.28	2508.76
1017.44	2453.47
1017.60	2453.47
1017.75	2422.75
1017.91	2420.70
1018.07	2516.95
1018.23	2492.38
1018.38	2461.66
1018.54	2478.04
1018.70	2504.67
1018.86	2406.36
1019.01	2377.69
1019.17	2443.23
1019.33	2545.63
1019.49	2432.99
1019.64	2502.62
1019.80	2404.32
1019.96	2412.51
1020.12	2469.85
1020.27	2432.99
1020.43	2404.32
1020.59	2475.99
1020.74	2445.27
1020.90	2439.13
1021.06	2371.55
1021.22	2492.38
1021.37	2248.67
1021.53	2359.26
1021.69	2426.84
1021.84	2242.53
1022.00	2340.83
1022.16	2269.15
1022.31	2297.82
1022.47	2422.75
1022.63	2375.64
1022.79	2285.53
1022.94	2285.53
1023.10	2396.12
1023.26	2293.72
1023.41	2220.00
1023.57	2248.67
1023.73	2338.78
1023.88	2289.63
1024.04	2203.61
1024.20	2312.16
1024.35	2281.44
1024.51	2246.62
1024.67	2240.48
1024.82	2271.20
1024.98	2162.66
1025.14	2254.81
1025.29	2275.29
1025.45	2314.20
1025.61	2183.13
1025.76	2322.40
1025.92	2271.20
1026.08	2359.26
1026.23	2275.29
1026.39	2271.20
1026.55	2248.67
1026.70	2193.37
1026.86	2213.85
1027.02	2236.38
1027.17	2187.23
1027.33	2244.57
1027.48	2150.37
1027.64	2078.69
1027.80	2136.03
1027.95	2242.53
1028.11	2076.64
1028.27	2162.66
1028.42	2119.65
1028.58	2213.85
1028.73	2099.17
1028.89	2062.30
1029.05	2240.48
1029.20	2195.42
>>>>>End Processed Spectral Data<<<<<
