SpectraSuite Data File
++++++++++++++++++++++++++++++++++++
Date: Fri Jun 02 14:52:29 CEST 2017
User: INFO_000
Dark Spectrum Present: No
Reference Spectrum Present: No
Number of Sampled Component Spectra: 1
Spectrometers: USB4H00879
Integration Time (usec): 80000 (USB4H00879)
Spectra Averaged: 1 (USB4H00879)
Boxcar Smoothing: 0 (USB4H00879)
Correct for Electrical Dark: No (USB4H00879)
Strobe/Lamp Enabled: No (USB4H00879)
Correct for Detector Non-linearity: No (USB4H00879)
Correct for Stray Light: No (USB4H00879)
Number of Pixels in Processed Spectrum: 3648
>>>>>Begin Processed Spectral Data<<<<<
345.13	1341.42
345.34	1341.42
345.56	1341.42
345.78	1298.41
345.99	1329.13
346.21	1734.63
346.42	1691.62
346.64	1648.61
346.86	1781.73
347.07	1748.97
347.29	1687.53
347.50	1585.13
347.72	1689.57
347.94	1789.92
348.15	1632.23
348.37	1693.67
348.59	1732.58
348.80	1648.61
349.02	1736.68
349.23	1871.84
349.45	1859.56
349.67	1900.52
349.88	1824.74
350.10	1986.53
350.31	1777.64
350.53	1869.80
350.75	1933.28
350.96	1771.49
351.18	1820.64
351.39	1798.12
351.61	1789.92
351.82	1890.28
352.04	1873.89
352.26	1814.50
352.47	1861.60
352.69	1877.99
352.90	1787.88
353.12	1761.25
353.34	1861.60
353.55	1945.57
353.77	1920.99
353.98	1818.60
354.20	1853.41
354.41	1892.32
354.63	1951.71
354.85	2007.01
355.06	1939.43
355.28	1851.36
355.49	1898.47
355.71	1880.04
355.92	1925.09
356.14	1986.53
356.35	1916.90
356.57	1839.08
356.79	1970.15
357.00	1855.46
357.22	2009.06
357.43	1847.27
357.65	1910.75
357.86	1929.19
358.08	1869.80
358.29	1984.48
358.51	2007.01
358.72	1943.52
358.94	1968.10
359.16	1904.61
359.37	1916.90
359.59	1949.67
359.80	2023.39
360.02	1943.52
360.23	1978.34
360.45	1978.34
360.66	2025.44
360.88	1873.89
361.09	1939.43
361.31	2060.26
361.52	1882.08
361.74	2047.97
361.95	2056.16
362.17	1904.61
362.38	2043.87
362.60	2011.11
362.81	1923.04
363.03	2000.87
363.24	1920.99
363.46	2039.78
363.67	1994.72
363.89	2033.63
364.10	2033.63
364.32	1976.29
364.53	2002.91
364.75	2007.01
364.96	2064.35
365.18	2097.12
365.39	2015.20
365.61	1998.82
365.82	2113.50
366.04	1947.62
366.25	1986.53
366.47	2027.49
366.68	2070.50
366.90	1984.48
367.11	2068.45
367.33	2072.54
367.54	2086.88
367.76	1998.82
367.97	2127.84
368.19	2064.35
368.40	2080.74
368.62	2107.36
368.83	1957.86
369.05	2058.21
369.26	2080.74
369.48	2045.92
369.69	1959.91
369.91	2074.59
370.12	2002.91
370.33	2107.36
370.55	1982.43
370.76	2033.63
370.98	2084.83
371.19	2027.49
371.41	2033.63
371.62	2068.45
371.84	2031.58
372.05	2174.94
372.27	2035.68
372.48	2064.35
372.69	2068.45
372.91	2146.27
373.12	2131.94
373.34	2064.35
373.55	2199.52
373.77	2209.76
373.98	2004.96
374.20	2170.85
374.41	2217.95
374.62	2123.74
374.84	2105.31
375.05	2308.06
375.27	2226.14
375.48	2174.94
375.70	2119.65
375.91	2207.71
376.12	2222.05
376.34	2105.31
376.55	2119.65
376.77	2209.76
376.98	2052.06
377.19	2123.74
377.41	2148.32
377.62	2172.89
377.84	2099.17
378.05	2291.68
378.27	2207.71
378.48	2254.81
378.69	2326.49
378.91	2287.58
379.12	2158.56
379.34	2170.85
379.55	2207.71
379.76	2240.48
379.98	2314.20
380.19	2265.05
380.41	2224.09
380.62	2260.96
380.83	2172.89
381.05	2228.19
381.26	2285.53
381.47	2207.71
381.69	2226.14
381.90	2338.78
382.12	2252.77
382.33	2242.53
382.54	2303.96
382.76	2277.34
382.97	2301.92
383.19	2267.10
383.40	2310.11
383.61	2394.08
383.83	2318.30
384.04	2326.49
384.25	2308.06
384.47	2365.40
384.68	2355.16
384.89	2396.12
385.11	2355.16
385.32	2314.20
385.54	2342.88
385.75	2316.25
385.96	2414.56
386.18	2443.23
386.39	2496.47
386.60	2478.04
386.82	2383.84
387.03	2437.08
387.24	2449.37
387.46	2344.92
387.67	2580.44
387.88	2498.52
388.10	2549.72
388.31	2435.03
388.52	2500.57
388.74	2525.15
388.95	2506.71
389.16	2637.78
389.38	2500.57
389.59	2598.87
389.80	2654.17
390.02	2502.62
390.23	2656.22
390.44	2549.72
390.66	2406.36
390.87	2428.89
391.08	2623.45
391.30	2584.54
391.51	2723.80
391.72	2721.75
391.94	2605.02
392.15	2539.48
392.36	2637.78
392.58	2570.20
392.79	2676.70
393.00	2723.80
393.22	2662.36
393.43	2797.53
393.64	2772.95
393.85	2838.48
394.07	2707.41
394.28	2766.81
394.49	2633.69
394.71	2754.52
394.92	2820.05
395.13	2678.74
395.35	2721.75
395.56	2691.03
395.77	2750.42
395.98	2803.67
396.20	2768.85
396.41	2809.81
396.62	2901.97
396.84	2785.24
397.05	2779.09
397.26	2869.20
397.47	3002.32
397.69	2836.44
397.90	3006.42
398.11	2932.69
398.32	2824.15
398.54	2797.53
398.75	2885.59
398.96	2938.84
399.18	3174.35
399.39	2928.60
399.60	2953.17
399.81	2861.01
400.03	2908.12
400.24	3196.88
400.45	3026.90
400.66	3045.33
400.88	2967.51
401.09	3233.74
401.30	3043.28
401.51	3162.06
401.73	3141.58
401.94	3100.62
402.15	3166.16
402.36	3045.33
402.58	3135.44
402.79	3178.45
403.00	3162.06
403.21	3260.37
403.43	3225.55
403.64	3196.88
403.85	3110.86
404.06	3170.26
404.27	3190.74
404.49	3117.01
404.70	3291.09
404.91	3221.45
405.12	3307.47
405.34	3303.37
405.55	3456.97
405.76	3205.07
405.97	3223.50
406.19	3330.00
406.40	3207.12
406.61	3250.13
406.82	3211.22
407.03	3309.52
407.25	3239.89
407.46	3426.25
407.67	3452.88
407.88	3422.16
408.09	3264.46
408.31	3418.06
408.52	3356.62
408.73	3317.71
408.94	3330.00
409.15	3375.05
409.37	3315.66
409.58	3479.50
409.79	3487.69
410.00	3487.69
410.21	3317.71
410.43	3551.18
410.64	3379.15
410.85	3489.74
411.06	3452.88
411.27	3526.60
411.48	3610.57
411.70	3508.17
411.91	3559.37
412.12	3694.54
412.33	3553.23
412.54	3532.75
412.76	3612.62
412.97	3657.67
413.18	3418.06
413.39	3571.66
413.60	3573.71
413.81	3710.92
414.03	3590.09
414.24	3614.66
414.45	3823.56
414.66	3538.89
414.87	3694.54
415.08	3674.06
415.30	3706.82
415.51	3774.41
415.72	3723.21
415.93	3622.86
416.14	3692.49
416.35	3678.15
416.56	3778.50
416.78	3846.09
416.99	3782.60
417.20	3688.39
417.41	3872.71
417.62	3858.37
417.83	3907.52
418.04	3913.67
418.26	3889.09
418.47	3839.94
418.68	3907.52
418.89	3942.34
419.10	4065.22
419.31	3966.92
419.52	3854.28
419.73	3934.15
419.95	4014.02
420.16	3893.19
420.37	4005.83
420.58	3942.34
420.79	3856.33
421.00	4014.02
421.21	4073.41
421.42	4040.64
421.63	4061.12
421.85	4079.55
422.06	4124.61
422.27	4071.36
422.48	4112.32
422.69	4200.38
422.90	4110.27
423.11	4198.34
423.32	4298.69
423.53	4343.74
423.75	4253.63
423.96	4409.28
424.17	4335.55
424.38	4462.52
424.59	4409.28
424.80	4603.83
425.01	4294.59
425.22	4181.95
425.43	4345.79
425.64	4480.96
425.85	4560.83
426.06	4554.68
426.28	4552.63
426.49	4491.20
426.70	4442.04
426.91	4550.59
427.12	4601.79
427.33	4544.44
427.54	4616.12
427.75	4634.55
427.96	4622.27
428.17	4777.91
428.38	4829.11
428.59	4775.86
428.80	4564.92
429.01	4812.73
429.23	4708.28
429.44	4816.82
429.65	4945.84
429.86	4870.07
430.07	4771.77
430.28	4626.36
430.49	4964.28
430.70	5083.06
430.91	5054.39
431.12	4859.83
431.33	5216.18
431.54	4960.18
431.75	5187.50
431.96	5066.67
432.17	4919.22
432.38	5066.67
432.59	5261.23
432.80	5181.36
433.01	5195.70
433.22	5253.04
433.43	5205.94
433.64	5281.71
433.85	5259.18
434.06	5416.88
434.27	5214.13
434.49	5380.01
434.70	5490.60
434.91	5334.96
435.12	5445.55
435.33	5306.29
435.54	5304.24
435.75	5175.22
435.96	5443.50
436.17	5394.35
436.38	5590.95
436.59	5574.57
436.80	5455.79
437.01	5693.35
437.22	5681.07
437.43	5611.43
437.64	5543.85
437.85	5719.98
438.06	5748.65
438.27	5545.90
438.48	5691.31
438.69	5754.79
438.90	5640.11
439.11	5625.77
439.32	5924.77
439.53	5767.08
439.74	5797.80
439.95	5898.15
440.16	5867.43
440.37	5814.18
440.57	5777.32
440.78	5973.92
440.99	6027.17
441.20	5908.39
441.41	5920.68
441.62	5894.05
441.83	5791.66
442.04	5928.87
442.25	6041.51
442.46	6025.12
442.67	6188.96
442.88	6365.09
443.09	6068.13
443.30	6068.13
443.51	6191.01
443.72	6481.82
443.93	6139.81
444.14	6377.37
444.35	6156.19
444.56	6473.63
444.77	6289.31
444.98	6377.37
445.19	6356.90
445.40	6229.92
445.61	6299.55
445.81	6582.17
446.02	6504.35
446.23	6397.85
446.44	6297.50
446.65	6496.16
446.86	6348.70
447.07	6483.87
447.28	6664.09
447.49	6541.21
447.70	6629.27
447.91	6623.13
448.12	6571.93
448.33	6735.77
448.54	6770.58
448.74	6616.99
448.95	6737.82
449.16	6664.09
449.37	7004.05
449.58	6676.38
449.79	7040.92
450.00	6784.92
450.21	6999.96
450.42	7047.06
450.63	7194.51
450.84	6748.06
451.05	6997.91
451.25	6862.74
451.46	6897.56
451.67	7116.69
451.88	7149.46
452.09	7122.84
452.30	7016.34
452.51	7096.21
452.72	7288.72
452.93	7563.15
453.13	7085.97
453.34	7034.77
453.55	7225.23
453.76	7137.17
453.97	7618.44
454.18	7288.72
454.39	7528.33
454.60	7448.46
454.81	7413.65
455.01	7681.93
455.22	7341.97
455.43	7663.50
455.64	7790.47
455.85	7866.25
456.06	7982.98
456.27	7874.44
456.48	7808.90
456.68	7894.92
456.89	7821.19
457.10	7966.60
457.31	7966.60
457.52	7982.98
457.73	7888.78
457.94	8226.69
458.14	7894.92
458.35	8359.81
458.56	8062.85
458.77	8202.11
458.98	8226.69
459.19	8150.92
459.39	8281.99
459.60	8189.83
459.81	8185.73
460.02	8529.79
460.23	8351.62
460.44	8544.13
460.65	8675.20
460.85	8793.98
461.06	8556.41
461.27	8548.22
461.48	8931.19
461.69	8986.49
461.89	8574.85
462.10	8822.65
462.31	8667.00
462.52	8732.54
462.73	8701.82
462.94	8961.91
463.14	9064.31
463.35	9172.85
463.56	9383.79
463.77	9322.35
463.98	9080.69
464.18	9152.37
464.39	9287.54
464.60	9383.79
464.81	9379.70
465.02	9326.45
465.23	9551.73
465.43	9586.54
465.64	9809.77
465.85	9697.13
466.06	9318.26
466.27	9901.93
466.47	9955.18
466.68	9805.67
466.89	9807.72
467.10	10141.54
467.30	9787.24
467.51	10082.15
467.72	10182.50
467.93	10035.05
468.14	10153.83
468.34	10499.94
468.55	10297.19
468.76	10321.76
468.97	10297.19
469.17	10563.42
469.38	10524.51
469.59	10850.14
469.80	10567.52
470.01	10624.86
470.21	10723.16
470.42	10829.66
470.63	10979.16
470.84	10825.56
471.04	10989.40
471.25	11009.88
471.46	10991.45
471.67	11210.58
471.87	11163.48
472.08	11472.72
472.29	11650.89
472.50	11306.84
472.70	11351.89
472.91	11446.10
473.12	11593.55
473.33	11495.25
473.53	12080.97
473.74	11702.09
473.95	12019.53
474.16	12144.45
474.36	12271.43
474.57	12216.13
474.78	12302.15
474.99	12189.51
475.19	12310.34
475.40	12470.08
475.61	12670.78
475.81	12711.74
476.02	12828.48
476.23	12769.09
476.44	12910.40
476.64	13170.49
476.85	13193.01
477.06	13254.45
477.27	13289.27
477.47	13545.27
477.68	13584.18
477.89	13616.94
478.09	13602.61
478.30	13760.30
478.51	13760.30
478.71	13823.79
478.92	13956.91
479.13	13993.77
479.34	14165.80
479.54	13997.87
479.75	14260.01
479.96	14239.53
480.16	14303.01
480.37	14571.30
480.58	14728.99
480.78	14796.57
480.99	14849.82
481.20	14827.29
481.41	15052.57
481.61	15300.37
481.82	15265.56
482.03	15105.82
482.23	15218.46
482.44	15621.91
482.65	15529.75
482.85	15611.67
483.06	15724.30
483.27	15830.80
483.47	15664.91
483.68	15937.29
483.89	16166.67
484.09	16131.85
484.30	16199.43
484.51	16660.23
484.71	16498.44
484.92	16690.95
485.13	16523.01
485.33	16895.74
485.54	16789.25
485.75	16881.41
485.95	17280.76
486.16	17147.64
486.37	17313.53
486.57	17241.85
486.78	17243.90
486.98	17243.90
487.19	17471.22
487.40	17893.10
487.60	17399.54
487.81	17843.95
488.02	17821.42
488.22	17762.03
488.43	18333.42
488.64	18349.80
488.84	18312.94
489.05	18331.37
489.25	18583.27
489.46	18536.17
489.67	18544.36
489.87	18609.89
490.08	18837.22
490.29	18743.01
490.49	19152.60
490.70	19211.99
490.90	19408.60
491.11	19179.23
491.32	19343.06
491.52	19394.26
491.73	19437.27
491.94	19578.58
492.14	19693.27
492.35	19853.01
492.55	20135.63
492.76	20039.37
492.97	20238.03
493.17	20172.49
493.38	20289.23
493.58	20657.86
493.79	20717.25
494.00	20342.47
494.20	20950.72
494.41	20854.47
494.61	20995.78
494.82	20782.79
495.02	20842.18
495.23	21266.11
495.44	21253.82
495.64	21253.82
495.85	21163.71
496.05	21499.58
496.26	21528.25
496.47	21790.39
496.67	21274.30
496.88	22091.44
497.08	21687.99
497.29	21999.28
497.49	21681.85
497.70	22126.25
497.91	22064.82
498.11	22507.18
498.32	22562.47
498.52	22595.24
498.73	22800.04
498.93	22732.45
499.14	22701.73
499.34	22861.48
499.55	23029.41
499.76	23072.42
499.96	23269.02
500.17	22941.35
500.37	23322.27
500.58	23033.50
500.78	23312.03
500.99	23703.19
501.19	23682.71
501.40	23355.04
501.60	23651.99
501.81	23674.52
502.02	23541.40
502.22	23402.14
502.43	23891.60
502.63	24258.19
502.84	23885.46
503.04	23916.18
503.25	24260.24
503.45	24034.96
503.66	24108.69
503.86	24157.84
504.07	24637.06
504.27	24225.42
504.48	24327.82
504.68	24899.20
504.89	24878.72
505.09	24833.67
505.30	24737.41
505.50	25024.13
505.71	24993.41
505.91	25001.60
506.12	25087.62
506.32	25157.25
506.53	25390.72
506.73	25337.47
506.94	25370.24
507.14	25497.21
507.35	25523.83
507.55	25597.56
507.76	25726.58
507.96	25538.17
508.17	25626.23
508.37	25773.69
508.58	25892.47
508.78	26003.06
508.99	26273.39
509.19	26121.84
509.40	26254.96
509.60	26197.62
509.81	26271.34
510.01	26031.73
510.22	26226.29
510.42	26134.13
510.63	26728.04
510.83	26267.25
511.04	26275.44
511.24	26734.18
511.44	26502.76
511.65	26564.20
511.85	26605.16
512.06	26938.98
512.26	26783.34
512.47	26994.28
512.67	26924.65
512.88	26975.84
513.08	26779.24
513.29	27070.05
513.49	27096.67
513.69	27139.68
513.90	27434.59
514.10	27127.39
514.31	27422.30
514.51	27340.38
514.72	27237.98
514.92	27414.11
515.13	27336.29
515.33	27276.90
515.53	27262.56
515.74	27831.90
515.94	27741.78
516.15	27981.40
516.35	27795.03
516.56	27901.53
516.76	27938.39
516.96	27983.44
517.17	27973.21
517.37	28051.03
517.58	28464.72
517.78	28124.75
517.99	28415.57
518.19	28474.96
518.39	28372.56
518.60	28651.08
518.80	28452.43
519.01	28491.34
519.21	28716.62
519.41	28438.09
519.62	28534.35
519.82	28573.26
520.03	28823.11
520.23	28859.98
520.43	29111.88
520.64	29556.28
520.84	29361.73
521.05	29132.36
521.25	29384.26
521.45	29480.51
521.66	29351.49
521.86	29316.67
522.07	29367.87
522.27	29419.07
522.47	29382.21
522.68	29898.30
522.88	29527.61
523.08	29867.58
523.29	29955.64
523.49	29967.93
523.70	29775.42
523.90	30268.98
524.10	29861.43
524.31	30166.58
524.51	30285.36
524.71	30570.03
524.92	30488.11
525.12	30477.87
525.33	30584.37
525.53	30684.72
525.73	30860.84
525.94	30400.05
526.14	30840.36
526.34	30864.94
526.55	30821.93
526.75	30895.66
526.95	31338.02
527.16	31170.08
527.36	31266.34
527.56	31428.13
527.77	31495.71
527.97	31362.59
528.17	31198.76
528.38	31686.17
528.58	31858.20
528.78	32149.01
528.99	31774.24
529.19	32151.06
529.39	31854.11
529.60	31866.39
529.80	32079.38
530.00	32249.36
530.21	32400.91
530.41	32304.66
530.61	32312.85
530.82	32601.61
531.02	32298.52
531.22	32716.30
531.43	32810.51
531.63	32806.41
531.83	33168.90
532.04	33263.11
532.24	32886.28
532.44	33490.43
532.64	33342.98
532.85	33668.61
533.05	33496.58
533.25	33515.01
533.46	33555.97
533.66	33783.29
533.86	33865.21
534.07	33865.21
534.27	34088.44
534.47	34117.11
534.67	34119.16
534.88	33732.09
535.08	34264.57
535.28	34332.15
535.49	34541.04
535.69	34813.42
535.89	34663.92
536.09	34393.59
536.30	35376.61
536.50	35128.81
536.70	35247.59
536.91	34909.68
537.11	35098.09
537.31	35550.69
537.51	35020.27
537.72	35646.94
537.92	35118.57
538.12	35648.99
538.32	35595.74
538.53	35773.92
538.73	35483.11
538.93	35665.38
539.13	35569.12
539.34	35937.76
539.54	35700.19
539.74	36357.59
539.94	36128.22
540.15	35904.99
540.35	36271.57
540.55	36236.76
540.75	36216.28
540.96	36537.81
541.16	36730.32
541.36	36597.20
541.56	36634.06
541.77	36980.17
541.97	36709.84
542.17	36621.78
542.37	36976.08
542.58	37213.64
542.78	37197.26
542.98	37213.64
543.18	36931.02
543.38	37731.78
543.59	37510.60
543.79	37451.20
543.99	37608.90
544.19	37354.95
544.40	37621.19
544.60	37850.56
544.80	37637.57
545.00	37414.34
545.20	38049.21
545.41	38092.22
545.61	38256.06
545.81	38159.80
546.01	38307.26
546.21	38110.65
546.42	37922.24
546.62	38278.58
546.82	38272.44
547.02	38421.94
547.22	38878.64
547.43	38577.59
547.63	38985.13
547.83	38614.45
548.03	38731.18
548.23	38958.51
548.44	38886.83
548.64	39101.87
548.84	39429.54
549.04	38989.23
549.24	39378.34
549.45	39347.62
549.65	38884.78
549.85	38886.83
550.05	39626.15
550.25	38913.45
550.45	39835.04
550.66	39642.53
550.86	39288.23
551.06	39554.47
551.26	39935.39
551.46	39826.85
551.66	39605.67
551.87	39998.88
552.07	39912.86
552.27	40048.03
552.47	39902.62
552.67	39929.25
552.87	40332.70
553.07	40310.17
553.28	40258.97
553.48	40347.03
553.68	40594.84
553.88	41016.72
554.08	40510.87
554.28	40637.84
554.48	40463.77
554.69	40594.84
554.89	41076.11
555.09	40777.11
555.29	40355.22
555.49	40904.08
555.69	40723.86
555.89	40899.98
556.10	41426.31
556.30	40777.11
556.50	41321.87
556.70	40920.46
556.90	41592.20
557.10	41602.44
557.30	41051.53
557.50	41262.47
557.70	41289.10
557.91	41776.51
558.11	41383.30
558.31	41596.29
558.51	41371.02
558.71	41725.32
558.91	41864.58
559.11	41866.63
559.31	41547.14
559.51	41528.71
559.72	41944.45
559.92	42145.15
560.12	41854.34
560.32	41987.46
560.52	41598.34
560.72	42089.85
560.92	41899.39
561.12	42425.72
561.32	42597.75
561.52	41964.93
561.72	42646.90
561.93	41858.43
562.13	42196.35
562.33	42206.59
562.53	42849.65
562.73	42771.83
562.93	42952.05
563.13	42626.42
563.33	42712.44
563.53	42620.28
563.73	42632.57
563.93	42976.62
564.13	42976.62
564.33	43140.46
564.53	42741.11
564.74	43302.25
564.94	42798.45
565.14	42968.43
565.34	43230.57
565.54	42694.00
565.74	43554.15
565.94	44053.86
566.14	43232.62
566.34	42767.73
566.54	43740.52
566.74	43269.48
566.94	43664.74
567.14	43816.29
567.34	43543.91
567.54	43746.66
567.74	43892.07
567.94	44051.81
568.14	44186.97
568.34	44176.73
568.54	43967.84
568.74	43916.64
568.94	43859.30
569.14	44152.16
569.34	43855.20
569.54	44307.80
569.75	43447.66
569.95	44254.56
570.15	44670.29
570.35	44666.20
570.55	44168.54
570.75	44619.10
570.95	44316.00
571.15	44629.34
571.35	44965.20
571.55	44778.84
571.75	44895.57
571.95	44836.18
572.15	44770.64
572.35	44658.01
572.55	44711.25
572.75	44950.87
572.95	45139.28
573.15	45161.81
573.35	45061.46
573.55	44877.14
573.75	45358.41
573.95	45126.99
574.15	45405.52
574.35	45491.53
574.55	45210.96
574.75	45694.28
574.95	45602.12
575.15	45374.80
575.34	45583.69
575.54	45729.09
575.74	45901.12
575.94	46134.59
576.14	45630.79
576.34	46161.22
576.54	46177.60
576.74	46261.57
576.94	46292.29
577.14	46398.78
577.34	46540.09
577.54	46265.66
577.74	46286.14
577.94	46413.12
578.14	46835.00
578.34	46662.97
578.54	46314.81
578.74	46507.32
578.94	46703.93
579.14	46243.13
579.34	46419.26
579.54	46654.78
579.74	47314.22
579.94	46814.52
580.13	47406.38
580.33	46986.55
580.53	47232.30
580.73	47095.09
580.93	47269.17
581.13	47336.75
581.33	47637.80
581.53	47627.56
581.73	47529.26
581.93	48061.73
582.13	48039.20
582.33	47893.80
582.53	47762.73
582.73	47693.10
582.92	47858.98
583.12	48002.34
583.32	47908.13
583.52	47705.38
583.72	48581.91
583.92	47988.00
584.12	47988.00
584.32	48749.85
584.52	48147.75
584.72	48522.52
584.92	48592.15
585.11	48618.78
585.31	48092.45
585.51	48477.47
585.71	48467.23
585.91	48747.80
586.11	48583.96
586.31	48641.31
586.51	48393.50
586.71	49161.49
586.91	48928.02
587.10	48985.36
587.30	48940.31
587.50	49110.29
587.70	49339.66
587.90	49566.99
588.10	49413.39
588.30	48915.73
588.50	49575.18
588.69	49597.71
588.89	49321.23
589.09	49487.12
589.29	49607.95
589.49	49790.22
589.69	49319.18
589.89	49874.18
590.08	49952.01
590.28	50062.60
590.48	50005.25
590.68	49888.52
590.88	49792.26
591.08	49751.30
591.28	49843.46
591.47	49878.28
591.67	49857.80
591.87	50033.92
592.07	50019.59
592.27	50173.19
592.47	49956.10
592.67	50435.33
592.86	49919.24
593.06	50353.41
593.26	50310.40
593.46	50396.42
593.66	50611.45
593.86	50863.35
594.05	50525.44
594.25	50955.51
594.45	50654.46
594.65	50889.98
594.85	50441.47
595.05	50935.03
595.24	50763.00
595.44	50615.55
595.64	50889.98
595.84	51025.14
596.04	51193.07
596.23	50912.50
596.43	50953.46
596.63	51174.64
596.83	50947.32
597.03	51496.17
597.22	51283.19
597.42	51264.75
597.62	51700.97
597.82	51481.84
598.02	51238.13
598.21	51516.65
598.41	51508.46
598.61	51412.21
598.81	51461.36
599.01	51647.72
599.20	51479.79
599.40	51594.48
599.60	51588.33
599.80	51707.12
600.00	52045.03
600.19	52290.79
600.39	51619.05
600.59	52436.19
600.79	52126.95
600.98	51932.39
601.18	52067.56
601.38	52290.79
601.58	52376.80
601.78	52276.45
601.97	51762.41
602.17	52942.04
602.37	52376.80
602.57	52548.83
602.76	52896.98
602.96	52589.79
603.16	52724.96
603.36	52616.41
603.55	52606.17
603.75	52606.17
603.95	52921.56
604.15	52870.36
604.34	52327.65
604.54	52894.94
604.74	52696.28
604.94	53077.21
605.13	52964.57
605.33	52589.79
605.53	52731.10
605.73	53296.34
605.92	53316.82
606.12	53073.11
606.32	53343.44
606.52	52892.89
606.71	53423.31
606.91	53628.11
607.11	53138.65
607.30	53503.18
607.50	53388.50
607.70	53468.37
607.90	53466.32
608.09	53368.02
608.29	53646.54
608.49	53519.57
608.68	53451.98
608.88	53652.69
609.08	53566.67
609.28	53230.80
609.47	53544.14
609.67	53888.20
609.87	53499.09
610.06	54203.59
610.26	53650.64
610.46	54158.53
610.66	53914.83
610.85	54004.94
611.05	53607.63
611.25	53646.54
611.44	53570.77
611.64	53839.05
611.84	54041.80
612.03	53271.76
612.23	53718.22
612.43	53646.54
612.62	53376.21
612.82	54058.18
613.02	54027.46
613.21	54047.94
613.41	53482.70
613.61	53755.08
613.80	53380.31
614.00	53736.65
614.20	54049.99
614.39	53724.36
614.59	53923.02
614.79	53546.19
614.98	53671.12
615.18	53689.55
615.38	54047.94
615.57	53761.23
615.77	54162.63
615.97	53837.00
616.16	54015.18
616.36	53753.04
616.56	54166.73
616.75	53990.60
616.95	53634.25
617.15	53611.73
617.34	53871.82
617.54	53765.32
617.74	54142.15
617.93	53900.49
618.13	53548.24
618.32	53568.72
618.52	53617.87
618.72	53738.70
618.91	53992.65
619.11	53558.48
619.31	53621.97
619.50	53288.15
619.70	53515.47
619.90	53877.96
620.09	53755.08
620.29	53710.03
620.48	53531.86
620.68	53820.62
620.88	53451.98
621.07	53656.78
621.27	53480.66
621.46	53462.22
621.66	53396.69
621.86	53320.91
622.05	53679.31
622.25	54207.68
622.44	53679.31
622.64	53892.30
622.84	53433.55
623.03	53247.19
623.23	53818.57
623.42	53312.72
623.62	53470.42
623.82	53441.74
624.01	53175.51
624.21	53581.01
624.40	53638.35
624.60	53009.62
624.80	53105.88
624.99	53388.50
625.19	52937.94
625.38	53396.69
625.58	53296.34
625.77	53214.42
625.97	53275.86
626.17	53087.45
626.36	53687.50
626.56	53693.64
626.75	52937.94
626.95	53730.51
627.14	53290.19
627.34	53480.66
627.54	53142.74
627.73	53329.11
627.93	53597.39
628.12	52939.99
628.32	53372.11
628.51	53312.72
628.71	53261.52
628.90	53124.31
629.10	53216.47
629.30	53374.16
629.49	53355.73
629.69	52991.19
629.88	53388.50
630.08	53470.42
630.27	53277.91
630.47	53429.46
630.66	52970.71
630.86	53658.83
631.05	53028.05
631.25	53515.47
631.44	53286.10
631.64	53357.78
631.84	53408.98
632.03	53910.73
632.23	53325.01
632.42	53773.52
632.62	53368.02
632.81	53413.07
633.01	53243.09
633.20	53599.44
633.40	53376.21
633.59	53533.90
633.79	53302.48
633.98	53413.07
634.18	53386.45
634.37	53292.24
634.57	52962.52
634.76	53730.51
634.96	53406.93
635.15	53822.67
635.35	53116.12
635.54	53179.60
635.74	53509.33
635.93	53239.00
636.13	53466.32
636.32	53501.14
636.52	53535.95
636.71	53656.78
636.91	53488.85
637.10	53703.88
637.30	53312.72
637.49	53533.90
637.69	53388.50
637.88	53621.97
638.08	53206.23
638.27	53562.57
638.46	53085.40
638.66	53050.58
638.85	53716.17
639.05	53843.15
639.24	53542.10
639.44	53642.45
639.63	53728.46
639.83	53638.35
640.02	53789.90
640.22	53658.83
640.41	54119.62
640.61	53099.73
640.80	53654.73
640.99	53660.88
641.19	54176.97
641.38	53939.40
641.58	53615.82
641.77	53570.77
641.97	53394.64
642.16	53421.26
642.36	54023.37
642.55	54199.49
642.74	53785.80
642.94	54369.47
643.13	53429.46
643.33	54099.14
643.52	54086.85
643.72	54332.61
643.91	54041.80
644.10	54039.75
644.30	53939.40
644.49	53652.69
644.69	53933.26
644.88	54127.81
645.08	53818.57
645.27	53884.11
645.46	53630.16
645.66	54516.93
645.85	54209.73
646.05	54121.67
646.24	53894.35
646.43	54375.62
646.63	54359.23
646.82	54541.50
647.02	54361.28
647.21	54158.53
647.40	54312.13
647.60	54498.50
647.79	54895.80
647.99	54621.37
648.18	54090.95
648.37	54455.49
648.57	54645.95
648.76	54326.47
648.96	54060.23
649.15	54940.86
649.34	54514.88
649.54	54680.77
649.73	54586.56
649.92	54611.13
650.12	54453.44
650.31	55043.26
650.51	54697.15
650.70	55250.10
650.89	54502.59
651.09	54977.72
651.28	55164.09
651.47	55381.17
651.67	54877.37
651.86	55440.56
652.06	54594.75
652.25	55252.15
652.44	54875.32
652.64	55071.93
652.83	54856.89
653.02	54709.44
653.22	54645.95
653.41	54979.77
653.60	54860.99
653.80	54826.17
653.99	55491.76
654.18	54637.76
654.38	54688.96
654.57	55653.55
654.76	55030.97
654.96	54932.67
655.15	54705.34
655.34	54850.75
655.54	54793.40
655.73	55119.03
655.92	54891.71
656.12	55235.77
656.31	55598.26
656.50	55203.00
656.70	55413.94
656.89	55170.23
657.08	55352.50
657.28	55299.25
657.47	55276.72
657.66	55450.80
657.86	55010.49
658.05	55481.52
658.24	55364.79
658.43	55053.50
658.63	56022.19
658.82	55286.96
659.01	55542.96
659.21	55588.02
659.40	55368.88
659.59	55317.68
659.79	55819.44
659.98	55968.94
660.17	55831.72
660.36	55604.40
660.56	55735.47
660.75	55790.76
660.94	55782.57
661.14	55325.88
661.33	55596.21
661.52	55325.88
661.71	56022.19
661.91	55239.86
662.10	55682.22
662.29	55796.91
662.49	55784.62
662.68	55661.74
662.87	55696.56
663.06	55592.11
663.26	55667.89
663.45	55809.20
663.64	55661.74
663.83	56179.88
664.03	55899.31
664.22	55770.28
664.41	55721.13
664.60	55925.93
664.80	55801.00
664.99	55839.92
665.18	55909.55
665.37	56231.08
665.57	55960.75
665.76	56298.66
665.95	56132.78
666.14	56093.86
666.34	55915.69
666.53	55897.26
666.72	55950.51
666.91	55979.18
667.11	55446.71
667.30	56274.09
667.49	56104.10
667.68	56138.92
667.87	56057.00
668.07	56421.54
668.26	55891.12
668.45	55817.39
668.64	55899.31
668.84	56470.69
669.03	56386.72
669.22	56427.68
669.41	56274.09
669.60	56169.64
669.80	56186.02
669.99	56466.59
670.18	56202.41
670.37	56048.81
670.57	56779.93
670.76	56540.32
670.95	56411.30
671.14	56708.25
671.33	56212.65
671.53	56775.84
671.72	56792.22
671.91	56399.01
672.10	56145.06
672.29	56087.72
672.48	56579.23
672.68	56579.23
672.87	56186.02
673.06	56339.62
673.25	56286.37
673.44	56042.66
673.64	56186.02
673.83	56196.26
674.02	55919.79
674.21	56126.63
674.40	56079.53
674.59	56267.94
674.79	55983.27
674.98	56333.48
675.17	56552.61
675.36	55936.17
675.55	56276.13
675.74	56239.27
675.94	56081.58
676.13	56044.71
676.32	56571.04
676.51	56544.42
676.70	56634.53
676.89	56302.76
677.08	56382.63
677.28	56298.66
677.47	56536.23
677.66	56648.86
677.85	56194.21
678.04	56761.50
678.23	56724.64
678.42	56501.41
678.62	56243.37
678.81	57072.79
679.00	56243.37
679.19	56806.56
679.38	56714.40
679.57	56452.26
679.76	56425.64
679.96	56714.40
680.15	56284.33
680.34	56521.89
680.53	56208.55
680.72	56231.08
680.91	56550.56
681.10	56507.55
681.29	56480.93
681.48	56235.17
681.68	56165.54
681.87	55989.42
682.06	56272.04
682.25	56392.87
682.44	56380.58
682.63	56564.90
682.82	56401.06
683.01	56298.66
683.20	56280.23
683.39	56353.96
683.59	56261.80
683.78	56034.47
683.97	56007.85
684.16	55835.82
684.35	56069.29
684.54	55975.08
684.73	56118.44
684.92	56210.60
685.11	56050.86
685.30	56046.76
685.49	56294.56
685.69	55768.24
685.88	56439.97
686.07	56216.74
686.26	55555.25
686.45	55981.23
686.64	55979.18
686.83	55770.28
687.02	55956.65
687.21	55927.98
687.40	56030.38
687.59	56100.01
687.78	56263.85
687.97	56470.69
688.16	56235.17
688.35	55946.41
688.54	56132.78
688.74	56169.64
688.93	56263.85
689.12	55882.92
689.31	55805.10
689.50	56304.80
689.69	55477.43
689.88	55149.75
690.07	55970.99
690.26	55887.02
690.45	56380.58
690.64	55952.55
690.83	55592.11
691.02	55684.27
691.21	55676.08
691.40	55706.80
691.59	55532.72
691.78	55592.11
691.97	56042.66
692.16	55772.33
692.35	55966.89
692.54	55874.73
692.73	55614.64
692.92	55469.23
693.11	55688.37
693.30	55518.38
693.49	55874.73
693.68	55852.20
693.87	55731.37
694.06	55354.55
694.25	55135.41
694.44	54949.05
694.63	55686.32
694.82	55872.68
695.01	55751.85
695.20	55254.20
695.39	55483.57
695.58	55387.31
695.77	55342.26
695.96	55051.45
696.15	55217.33
696.34	55221.43
696.53	55137.46
696.72	55469.23
696.91	55334.07
697.10	55317.68
697.29	54961.34
697.48	55428.27
697.67	54981.82
697.86	54953.15
698.05	55166.13
698.24	55223.48
698.43	54695.10
698.62	54932.67
698.81	54875.32
699.00	55139.51
699.19	54713.53
699.38	54623.42
699.57	54504.64
699.76	55391.41
699.95	54838.46
700.14	54203.59
700.32	54658.24
700.51	55102.65
700.70	54707.39
700.89	54838.46
701.08	55272.63
701.27	54840.51
701.46	54801.60
701.65	53937.35
701.84	54389.95
702.03	54674.62
702.22	54271.17
702.41	54449.35
702.60	54443.20
702.79	54836.41
702.98	54494.40
703.17	54236.36
703.35	54084.81
703.54	53990.60
703.73	54254.79
703.92	53734.60
704.11	54385.86
704.30	53933.26
704.49	54019.27
704.68	54009.03
704.87	53908.68
705.06	53806.28
705.25	53810.38
705.43	53812.43
705.62	53675.21
705.81	53769.42
706.00	53374.16
706.19	53431.50
706.38	53425.36
706.57	53937.35
706.76	53294.29
706.95	53689.55
707.14	53269.72
707.32	53554.38
707.51	53220.56
707.70	53372.11
707.89	53753.04
708.08	53224.66
708.27	53505.23
708.46	53509.33
708.65	53437.65
708.84	53509.33
709.02	53290.19
709.21	53583.05
709.40	53519.57
709.59	53175.51
709.78	53171.41
709.97	53300.43
710.16	53492.94
710.34	53112.02
710.53	53349.59
710.72	53101.78
710.91	53247.19
711.10	52823.26
711.29	53148.88
711.48	53028.05
711.66	53030.10
711.85	52569.31
712.04	52841.69
712.23	53134.55
712.42	52813.02
712.61	52868.31
712.80	52786.39
712.98	52630.75
713.17	52501.73
713.36	52290.79
713.55	52436.19
713.74	52055.27
713.93	52559.07
714.11	52589.79
714.30	52491.49
714.49	52552.93
714.68	52614.37
714.87	52104.42
715.06	52557.02
715.24	52499.68
715.43	52231.40
715.62	51739.88
715.81	52270.31
716.00	52100.32
716.18	51408.11
716.37	51588.33
716.56	51545.33
716.75	51948.78
716.94	51649.77
717.12	51268.85
717.31	51836.14
717.50	51623.15
717.69	51619.05
717.88	51371.25
718.06	51623.15
718.25	52384.99
718.44	51049.72
718.63	51549.42
718.82	51023.09
719.00	51166.45
719.19	51260.66
719.38	50943.22
719.57	50425.09
719.76	50730.23
719.94	50617.60
720.13	50693.37
720.32	50842.87
720.51	50670.84
720.69	50832.63
720.88	50627.84
721.07	50525.44
721.26	49978.63
721.44	50586.88
721.63	50386.18
721.82	50238.72
722.01	49755.40
722.20	50486.53
722.38	49788.17
722.57	49337.62
722.76	49878.28
722.95	49665.29
723.13	49431.82
723.32	49536.27
723.51	49384.72
723.70	49304.85
723.88	49917.19
724.07	49321.23
724.26	49358.09
724.44	49009.94
724.63	49659.15
724.82	49532.17
725.01	49093.91
725.19	49083.67
725.38	48782.62
725.57	48844.05
725.76	49333.52
725.94	48921.88
726.13	48776.47
726.32	48964.88
726.51	48815.38
726.69	49231.12
726.88	49001.75
727.07	48755.99
727.25	48796.95
727.44	48465.18
727.63	48870.68
727.82	48848.15
728.00	48405.79
728.19	48293.15
728.38	48866.58
728.56	48491.80
728.75	48784.66
728.94	48446.75
729.12	48952.60
729.31	48248.10
729.50	48413.98
729.69	49026.32
729.87	48604.44
730.06	48237.86
730.25	48612.63
730.43	48846.10
730.62	48084.26
730.81	48485.66
730.99	48446.75
731.18	48487.71
731.37	48301.34
731.55	48727.32
731.74	48409.89
731.93	48381.21
732.11	48370.97
732.30	48207.14
732.49	48155.94
732.67	47801.64
732.86	47965.48
733.05	48002.34
733.23	47775.02
733.42	47768.87
733.61	48086.31
733.79	47830.31
733.98	48293.15
734.17	48076.07
734.35	47914.28
734.54	48051.49
734.73	48020.77
734.91	48268.58
735.10	47678.76
735.29	48278.82
735.47	47574.31
735.66	48176.42
735.84	48078.11
736.03	47686.95
736.22	48010.53
736.40	47772.97
736.59	47580.46
736.78	47449.39
736.96	46904.63
737.15	47662.38
737.33	46875.96
737.52	47039.79
737.71	47353.13
737.89	47383.85
738.08	46894.39
738.27	47537.45
738.45	47457.58
738.64	47306.03
738.82	46959.92
739.01	47191.34
739.20	47412.52
739.38	47224.11
739.57	47131.95
739.75	47115.57
739.94	46869.81
740.13	47234.35
740.31	46554.43
740.50	46791.99
740.68	46513.47
740.87	47355.18
741.06	47234.35
741.24	46421.31
741.43	46544.19
741.61	46814.52
741.80	46699.83
741.99	46783.80
742.17	46415.16
742.36	46351.68
742.54	46323.01
742.73	46761.27
742.91	46644.54
743.10	45974.85
743.29	46796.09
743.47	46302.53
743.66	46126.40
743.84	46355.77
744.03	46294.33
744.21	46155.07
744.40	46544.19
744.59	46183.74
744.77	46142.78
744.96	45843.78
745.14	46259.52
745.33	46134.59
745.51	45997.38
745.70	46257.47
745.88	45806.92
746.07	45796.68
746.26	45622.60
746.44	46030.15
746.63	45651.27
746.81	45782.34
747.00	45774.15
747.18	46058.82
747.37	45692.23
747.55	45403.47
747.74	45634.89
747.92	45409.61
748.11	45684.04
748.29	45555.02
748.48	45163.85
748.66	45407.56
748.85	45475.15
749.03	45411.66
749.22	45444.43
749.41	45364.56
749.59	44954.96
749.78	44875.09
749.96	44676.44
750.15	44543.32
750.33	45004.11
750.52	45180.24
750.70	44793.17
750.89	44711.25
751.07	44598.62
751.26	44549.46
751.44	44637.53
751.63	44920.15
751.81	44590.42
752.00	44318.04
752.18	44580.18
752.37	44705.11
752.55	44062.05
752.74	44346.72
752.92	44266.84
753.10	44174.69
753.29	44139.87
753.47	44295.52
753.66	43806.05
753.84	44109.15
754.03	44252.51
754.21	43787.62
754.40	44246.36
754.58	44012.90
754.77	43947.36
754.95	43664.74
755.14	43955.55
755.32	43644.26
755.51	43210.09
755.69	43652.45
755.88	43973.98
756.06	43539.82
756.24	43246.96
756.43	43265.39
756.61	43810.15
756.80	43179.37
756.98	43439.47
757.17	43554.15
757.35	43687.27
757.54	43464.04
757.72	43488.62
757.90	43558.25
758.09	42935.66
758.27	43283.82
758.46	42814.83
758.64	42790.26
758.83	43505.00
759.01	43029.87
759.19	43206.00
759.38	43038.06
759.56	43365.74
759.75	42986.86
759.93	43089.26
760.12	42667.38
760.30	43040.11
760.48	42460.54
760.67	42947.95
760.85	42833.27
761.04	42620.28
761.22	42509.69
761.40	42769.78
761.59	42014.08
761.77	42014.08
761.96	42454.39
762.14	42308.99
762.32	42024.32
762.51	42390.91
762.69	42411.38
762.88	41981.31
763.06	42311.03
763.24	42569.08
763.43	42145.15
763.61	41850.24
763.80	42087.81
763.98	41784.71
764.16	41903.49
764.35	42022.27
764.53	41530.76
764.72	41276.81
764.90	41702.79
765.08	41497.99
765.27	41293.19
765.45	41475.46
765.63	41592.20
765.82	41520.52
766.00	41205.13
766.18	41129.36
766.37	41541.00
766.55	41405.83
766.74	41553.29
766.92	41393.54
767.10	40994.19
767.29	41229.71
767.47	40674.71
767.65	41051.53
767.84	41096.59
768.02	41112.97
768.20	40963.47
768.39	40953.23
768.57	40789.39
768.75	40889.74
768.94	41299.34
769.12	40656.28
769.30	40650.13
769.49	40480.15
769.67	40248.73
769.85	40271.26
770.04	40410.52
770.22	40488.34
770.40	40132.00
770.59	40218.01
770.77	40377.75
770.95	40127.90
771.14	40232.35
771.32	39925.15
771.50	39822.75
771.69	39957.92
771.87	39925.15
772.05	39384.49
772.24	39331.24
772.42	39697.83
772.60	39746.98
772.78	39542.18
772.97	39407.01
773.15	39742.88
773.33	39239.08
773.52	39296.42
773.70	39609.76
773.88	39796.13
774.07	39196.07
774.25	39413.16
774.43	39464.36
774.61	39286.18
774.80	39734.69
774.98	39511.46
775.16	39609.76
775.34	39497.13
775.53	39703.97
775.71	39527.84
775.89	39626.15
776.08	39435.69
776.26	39566.76
776.44	39613.86
776.62	39628.20
776.81	39499.17
776.99	39624.10
777.17	39411.11
777.35	39660.96
777.54	40181.15
777.72	39445.93
777.90	39574.95
778.08	39736.74
778.27	39792.03
778.45	39978.40
778.63	39900.58
778.81	39310.76
779.00	39941.53
779.18	39513.51
779.36	40301.98
779.54	40359.32
779.73	39884.19
779.91	40029.60
780.09	40236.44
780.27	39945.63
780.46	40150.43
780.64	40244.63
780.82	40484.25
781.00	39990.69
781.19	40136.09
781.37	40572.31
781.55	40342.94
781.73	40304.02
781.91	40189.34
782.10	40150.43
782.28	40408.47
782.46	40342.94
782.64	40410.52
782.82	40107.42
783.01	40611.22
783.19	40682.90
783.37	40461.72
783.55	40314.26
783.74	40537.49
783.92	40101.28
784.10	40959.38
784.28	40209.82
784.46	40175.00
784.64	40422.81
784.83	40482.20
785.01	40711.57
785.19	40121.76
785.37	40797.59
785.55	40674.71
785.74	39560.61
785.92	40156.57
786.10	40500.63
786.28	40332.70
786.46	40396.18
786.64	39878.05
786.83	40351.13
787.01	40355.22
787.19	40252.83
787.37	39919.01
787.55	40578.45
787.74	40289.69
787.92	40349.08
788.10	39892.38
788.28	39630.24
788.46	40183.19
788.64	39798.18
788.82	40150.43
789.01	39611.81
789.19	40328.60
789.37	39581.09
789.55	39714.21
789.73	39577.00
789.91	39556.52
790.09	39378.34
790.28	39343.53
790.46	39380.39
790.64	39435.69
790.82	39538.08
791.00	39433.64
791.18	39288.23
791.36	39208.36
791.55	39380.39
791.73	39101.87
791.91	38485.43
792.09	39038.38
792.27	38510.00
792.45	38675.89
792.63	38892.97
792.81	38608.31
793.00	38632.88
793.18	38614.45
793.36	38577.59
793.54	38311.35
793.72	38069.69
793.90	38307.26
794.08	37897.66
794.26	38344.12
794.44	37633.47
794.62	37699.01
794.81	38127.03
794.99	37809.60
795.17	37877.18
795.35	37801.41
795.53	37866.94
795.71	37791.17
795.89	37377.48
796.07	37027.28
796.25	37000.65
796.43	36928.97
796.61	36963.79
796.80	36869.58
796.98	37086.67
797.16	36863.44
797.34	36959.69
797.52	36662.74
797.70	36961.74
797.88	36713.94
798.06	35964.38
798.24	36599.25
798.42	36558.29
798.60	36177.37
798.78	36394.45
798.96	36052.44
799.14	36023.77
799.32	35825.12
799.51	36017.63
799.69	36265.43
799.87	35603.94
800.05	35481.06
800.23	35395.04
800.41	35653.09
800.59	35698.14
800.77	35569.12
800.95	35003.88
801.13	35605.98
801.31	35208.68
801.49	35333.60
801.67	35077.61
801.85	34917.87
802.03	34878.96
802.21	34817.52
802.39	34772.46
802.57	34940.39
802.75	34233.85
802.93	34700.78
803.11	34405.88
803.29	34350.58
803.47	33977.85
803.65	34033.14
803.83	34293.24
804.01	34393.59
804.19	34092.54
804.37	33994.23
804.55	33981.95
804.73	33596.93
804.91	33838.59
805.09	33601.02
805.27	33754.62
805.45	33846.78
805.63	33807.87
805.81	33891.83
805.99	33828.35
806.17	33453.57
806.35	33517.06
806.53	33218.05
806.71	33185.29
806.89	32982.54
807.07	33287.68
807.25	33314.31
807.43	33154.57
807.61	33039.88
807.79	32835.08
807.97	32773.64
808.15	32654.86
808.33	32628.24
808.51	32609.81
808.69	32810.51
808.87	32314.90
809.05	32482.83
809.23	32429.59
809.41	32269.84
809.59	32200.21
809.77	32286.23
809.95	32126.49
810.13	32241.17
810.31	31804.95
810.49	31895.07
810.67	32093.72
810.84	31809.05
811.02	32237.08
811.20	31464.99
811.38	31979.03
811.56	31161.89
811.74	31594.01
811.92	31499.81
812.10	31579.68
812.28	31409.70
812.46	31458.85
812.64	31276.58
812.82	31452.70
813.00	31227.43
813.18	31055.40
813.36	31254.05
813.53	30832.17
813.71	31233.57
813.89	31022.63
814.07	30889.51
814.25	30598.70
814.43	30953.00
814.61	30668.33
814.79	30821.93
814.97	30447.15
815.15	30828.07
815.33	30795.31
815.50	30424.62
815.68	30565.93
815.86	30512.69
816.04	30185.01
816.22	30078.52
816.40	30195.25
816.58	30187.06
816.76	30225.97
816.94	30170.68
817.11	30072.37
817.29	29984.31
817.47	30166.58
817.65	29863.48
817.83	30029.37
818.01	29767.23
818.19	29453.89
818.37	29951.54
818.54	29673.02
818.72	29341.25
818.90	29564.48
819.08	29691.45
819.26	29810.23
819.44	29439.55
819.62	29482.56
819.80	29464.13
819.97	29285.95
820.15	29333.06
820.33	29212.23
820.51	29298.24
820.69	28700.23
820.87	29281.86
821.05	29222.47
821.22	29075.01
821.40	29062.72
821.58	28882.50
821.76	29027.91
821.94	29064.77
822.12	29062.72
822.29	28778.06
822.47	28579.40
822.65	29294.14
822.83	29070.92
823.01	28366.42
823.19	28638.80
823.36	28522.06
823.54	28489.29
823.72	28509.77
823.90	28528.20
824.08	27975.25
824.25	28366.42
824.43	28180.05
824.61	28374.61
824.79	28020.31
824.97	28091.99
825.15	28257.87
825.32	28122.71
825.50	28012.12
825.68	27651.67
825.86	28450.38
826.04	28216.91
826.21	28333.65
826.39	28051.03
826.57	27831.90
826.75	27862.61
826.93	27709.02
827.10	27911.77
827.28	27727.45
827.46	27713.11
827.64	27825.75
827.81	27354.72
827.99	27604.57
828.17	27360.86
828.35	27412.06
828.53	27450.97
828.70	27567.71
828.88	27424.35
829.06	27360.86
829.24	27235.94
829.41	27027.04
829.59	27346.53
829.77	27020.90
829.95	27422.30
830.12	26947.17
830.30	27031.14
830.48	27006.56
830.66	27194.98
830.84	27199.07
831.01	26711.66
831.19	26969.70
831.37	26865.25
831.55	27000.42
831.72	26496.62
831.90	26809.96
832.08	26725.99
832.25	26787.43
832.43	26822.25
832.61	27082.34
832.79	26383.98
832.96	26607.21
833.14	26500.72
833.32	26625.64
833.50	26678.89
833.67	26789.48
833.85	26498.67
834.03	26525.29
834.20	26355.31
834.38	26470.00
834.56	26390.13
834.74	26226.29
834.91	26500.72
835.09	26216.05
835.27	25798.26
835.44	26183.28
835.62	26013.30
835.80	26326.64
835.98	25955.96
836.15	26154.61
836.33	26201.71
836.51	25980.53
836.68	25847.41
836.86	25945.72
837.04	26119.79
837.21	25843.32
837.39	25908.85
837.57	25921.14
837.75	26201.71
837.92	25718.39
838.10	25794.17
838.28	25249.41
838.45	25769.59
838.63	25681.53
838.81	25501.31
838.98	25288.32
839.16	25269.89
839.34	25589.37
839.51	25501.31
839.69	25364.09
839.87	25007.75
840.04	25509.50
840.22	25456.25
840.40	25476.73
840.57	25128.58
840.75	25122.43
840.93	24931.97
841.10	25048.71
841.28	25472.64
841.46	25261.69
841.63	25228.93
841.81	25122.43
841.98	25073.28
842.16	25659.00
842.34	25212.54
842.51	24880.77
842.69	25134.72
842.87	24886.92
843.04	24862.34
843.22	24946.31
843.40	24616.58
843.57	25024.13
843.75	24907.40
843.92	24739.46
844.10	24739.46
844.28	24958.60
844.45	24692.36
844.63	24917.64
844.81	24532.62
844.98	24585.86
845.16	24675.98
845.33	24723.08
845.51	24438.41
845.69	24399.50
845.86	24239.76
846.04	24405.64
846.21	24428.17
846.39	24350.35
846.57	24153.74
846.74	24102.54
846.92	23916.18
847.09	24329.87
847.27	23936.66
847.45	24020.63
847.62	23932.56
847.80	24211.09
847.97	24057.49
848.15	23836.31
848.32	24053.39
848.50	23994.00
848.68	23725.72
848.85	24016.53
849.03	23838.36
849.20	23883.41
849.38	23830.16
849.56	23695.00
849.73	23695.00
849.91	23623.32
850.08	23932.56
850.26	23518.87
850.43	23533.21
850.61	23527.06
850.78	23436.95
850.96	23424.67
851.14	23576.22
851.31	23981.71
851.49	23125.66
851.66	23590.55
851.84	23357.08
852.01	23314.08
852.19	23396.00
852.36	23500.44
852.54	23326.36
852.71	23244.45
852.89	23193.25
853.07	23205.53
853.24	23207.58
853.42	23131.81
853.59	22879.91
853.77	23121.57
853.94	23228.06
854.12	23283.36
854.29	22793.89
854.47	23015.07
854.64	22982.31
854.82	22871.72
854.99	23070.37
855.17	22841.00
855.34	22793.89
855.52	22970.02
855.69	22877.86
855.87	22693.54
856.04	22564.52
856.22	22742.69
856.39	22369.96
856.57	22617.77
856.74	22484.65
856.92	22791.84
857.09	22458.03
857.27	22474.41
857.44	22634.15
857.62	22589.10
857.79	22525.61
857.97	22296.24
858.14	22460.07
858.32	22554.28
858.49	22337.20
858.67	22181.55
858.84	22406.83
859.02	22472.36
859.19	22329.00
859.37	22249.13
859.54	22154.93
859.72	22156.97
859.89	22027.95
860.06	22490.79
860.24	22044.34
860.41	22120.11
860.59	21968.56
860.76	22161.07
860.94	21749.43
861.11	21876.40
861.29	21792.44
861.46	21868.21
861.64	21774.00
861.81	21655.22
861.98	21784.24
862.16	21745.33
862.33	21444.28
862.51	21647.03
862.68	21733.04
862.86	21554.87
863.03	21520.06
863.21	21743.28
863.38	21429.94
863.55	21546.68
863.73	21810.87
863.90	21659.32
864.08	21358.27
864.25	21507.77
864.43	21401.27
864.60	21323.45
864.77	20997.82
864.95	21124.80
865.12	21024.45
865.30	21092.03
865.47	21155.52
865.64	21057.21
865.82	21051.07
865.99	21348.03
866.17	21196.48
866.34	21057.21
866.51	20801.22
866.69	21081.79
866.86	20989.63
867.04	20895.43
867.21	20979.39
867.38	20770.50
867.56	20778.69
867.73	20657.86
867.91	20559.56
868.08	20842.18
868.25	20500.17
868.43	20266.70
868.60	20606.66
868.78	20414.15
868.95	20637.38
869.12	20334.28
869.30	20420.30
869.47	20461.26
869.64	20315.85
869.82	20494.02
869.99	20395.72
870.16	20496.07
870.34	20080.33
870.51	20203.21
870.69	20197.07
870.86	20031.18
871.03	20248.27
871.21	20383.43
871.38	20137.68
871.55	19992.27
871.73	19990.22
871.90	19869.39
872.07	19779.28
872.25	19621.59
872.42	19844.82
872.59	19836.63
872.77	19783.38
872.94	19943.12
873.11	19500.76
873.29	19814.10
873.46	19699.41
873.63	19439.32
873.81	19494.61
873.98	19490.52
874.15	19343.06
874.33	19381.98
874.50	19105.50
874.67	19232.47
874.85	19095.26
875.02	19156.70
875.19	18939.62
875.37	19287.77
875.54	18972.38
875.71	19160.80
875.88	18829.02
876.06	18878.18
876.23	18972.38
876.40	18771.68
876.58	18681.57
876.75	18650.85
876.92	18626.28
877.10	18953.95
877.27	18581.22
877.44	18663.14
877.61	18413.29
877.79	18507.49
877.96	18472.68
878.13	18542.31
878.31	18370.28
878.48	18343.66
878.65	18243.31
878.82	18022.12
879.00	18308.84
879.17	17979.12
879.34	18433.77
879.51	18069.23
879.69	18239.21
879.86	17975.02
880.03	18007.79
880.21	18089.71
880.38	18069.23
880.55	18001.65
880.72	17925.87
880.90	17999.60
881.07	17964.78
881.24	17909.49
881.41	17745.65
881.59	17805.04
881.76	17891.06
881.93	17846.00
882.10	17571.57
882.28	17708.79
882.45	17852.14
882.62	17749.75
882.79	17813.23
882.96	17514.23
883.14	17569.52
883.31	17436.41
883.48	17284.86
883.65	17352.44
883.83	17454.84
884.00	17319.67
884.17	17354.49
884.34	17350.39
884.51	17260.28
884.69	17297.14
884.86	17379.06
885.03	17002.24
885.20	16973.56
885.38	17254.14
885.55	17301.24
885.72	17233.66
885.89	17217.27
886.06	16994.04
886.24	17207.03
886.41	17141.50
886.58	17098.49
886.75	17155.83
886.92	17049.34
887.10	17133.31
887.27	16715.52
887.44	17223.42
887.61	17219.32
887.78	16955.13
887.95	17026.81
888.13	16840.45
888.30	17049.34
888.47	16830.21
888.64	16848.64
888.81	16846.59
888.99	16756.48
889.16	16518.92
889.33	16752.38
889.50	16779.01
889.67	16545.54
889.84	16449.28
890.01	16529.16
890.19	16471.81
890.36	16439.05
890.53	16451.33
890.70	16287.50
890.87	16320.26
891.04	16238.34
891.22	16520.96
891.39	16373.51
891.56	16099.08
891.73	16099.08
891.90	16088.84
892.07	15957.77
892.24	16086.79
892.42	15900.43
892.59	16123.66
892.76	15824.65
892.93	16197.38
893.10	15783.70
893.27	15927.05
893.44	15959.82
893.61	15771.41
893.79	15951.63
893.96	16021.26
894.13	15738.64
894.30	16070.41
894.47	15855.37
894.64	15998.73
894.81	15822.61
894.98	15720.21
895.15	15785.74
895.33	15798.03
895.50	15761.17
895.67	15773.46
895.84	15529.75
896.01	15767.31
896.18	15783.70
896.35	15933.20
896.52	15607.57
896.69	15750.93
896.86	15685.39
897.04	15683.34
897.21	15527.70
897.38	15550.23
897.55	15587.09
897.72	15644.43
897.89	15607.57
898.06	15648.53
898.23	15734.54
898.40	15652.63
898.57	15873.81
898.74	15826.70
898.91	15789.84
899.08	15855.37
899.26	15761.17
899.43	15587.09
899.60	15505.17
899.77	15662.86
899.94	15507.22
900.11	15449.88
900.28	15642.39
900.45	15470.36
900.62	15535.89
900.79	15816.46
900.96	15597.33
901.13	15591.19
901.30	15386.39
901.47	15402.77
901.64	15599.38
901.81	15644.43
901.98	15279.89
902.15	15634.19
902.32	15529.75
902.49	15599.38
902.66	15718.16
902.83	15630.10
903.01	15408.92
903.18	15462.16
903.35	15544.08
903.52	15433.49
903.69	15533.84
903.86	15650.58
904.03	15480.60
904.20	15458.07
904.37	15220.50
904.54	15419.16
904.71	15478.55
904.88	15396.63
905.05	15349.53
905.22	15458.07
905.39	15197.98
905.56	15570.71
905.73	15372.05
905.90	15425.30
906.07	15404.82
906.24	15404.82
906.41	15580.95
906.58	15310.61
906.75	15296.28
906.92	15216.41
907.09	15167.26
907.26	15599.38
907.43	15118.11
907.60	15159.06
907.77	15318.81
907.93	15363.86
908.10	15554.32
908.27	15539.99
908.44	15394.58
908.61	15367.96
908.78	15298.33
908.95	15304.47
909.12	15195.93
909.29	15134.49
909.46	15013.66
909.63	15040.28
909.80	15400.72
909.97	15492.88
910.14	15216.41
910.31	15288.09
910.48	15126.30
910.65	15222.55
910.82	14876.44
910.99	15007.52
911.16	15130.39
911.33	15150.87
911.50	14978.84
911.66	14997.28
911.83	14862.11
912.00	15046.43
912.17	14946.08
912.34	14831.39
912.51	14831.39
912.68	14700.32
912.85	14651.17
913.02	14655.26
913.19	14640.93
913.36	14589.73
913.53	14530.34
913.70	14622.50
913.86	14833.44
914.03	14610.21
914.20	14628.64
914.37	14544.67
914.54	14772.00
914.71	14567.20
914.88	14665.50
915.05	14401.32
915.22	14327.59
915.39	14419.75
915.55	14591.78
915.72	14386.98
915.89	14126.89
916.06	14106.41
916.23	14153.51
916.40	14065.45
916.57	13934.38
916.74	14292.77
916.91	13973.29
917.07	13752.11
917.24	13715.25
917.41	14049.07
917.58	13973.29
917.75	13809.45
917.92	13733.68
918.09	13774.64
918.26	13543.22
918.42	13948.72
918.59	13815.60
918.76	13528.88
918.93	13561.65
919.10	13418.29
919.27	13502.26
919.44	13508.40
919.60	13600.56
919.77	13444.91
919.94	13336.37
920.11	13328.18
920.28	13227.83
920.45	13086.52
920.61	13027.13
920.78	13102.90
920.95	13127.48
921.12	13078.33
921.29	12975.93
921.46	12986.17
921.62	12851.00
921.79	13053.75
921.96	12928.83
922.13	12912.44
922.30	12775.23
922.47	12678.97
922.63	12650.30
922.80	12615.49
922.97	12568.38
923.14	12388.16
923.31	12525.38
923.47	12257.09
923.64	12658.49
923.81	12365.64
923.98	12232.52
924.15	12359.49
924.32	12242.76
924.48	12228.42
924.65	12244.81
924.82	12201.80
924.99	12025.67
925.15	11951.95
925.32	11870.03
925.49	11827.02
925.66	11700.05
925.83	11784.01
925.99	11712.33
926.16	11792.20
926.33	11530.06
926.50	11528.02
926.67	11583.31
926.83	11341.65
927.00	11474.77
927.17	11489.10
927.34	11310.93
927.50	11337.56
927.67	11472.72
927.84	11194.20
928.01	11470.67
928.17	11235.16
928.34	11235.16
928.51	10952.54
928.68	10950.49
928.84	10989.40
929.01	10882.91
929.18	10825.56
929.35	10680.16
929.51	10612.57
929.68	10540.90
929.85	10682.20
930.02	10641.25
930.18	10432.35
930.35	10489.70
930.52	10448.74
930.69	10413.92
930.85	10430.30
931.02	10280.80
931.19	10233.70
931.36	10141.54
931.52	10211.17
931.69	10291.04
931.86	10078.05
932.02	10188.64
932.19	10088.29
932.36	10245.99
932.53	10010.47
932.69	9850.73
932.86	9832.30
933.03	9858.92
933.19	9723.76
933.36	9987.94
933.53	9758.57
933.70	9725.80
933.86	9596.78
934.03	9533.29
934.20	9277.30
934.36	9379.70
934.53	9187.19
934.70	9056.12
934.86	9293.68
935.03	9176.95
935.20	9123.70
935.36	8832.89
935.53	8892.28
935.70	8828.79
935.86	8972.15
936.03	8636.28
936.20	8662.91
936.36	8576.89
936.53	8685.44
936.70	8540.03
936.86	8511.36
937.03	8320.90
937.20	8011.65
937.36	8296.32
937.53	7997.32
937.70	8161.16
937.86	7860.10
938.03	7917.45
938.20	7950.21
938.36	7542.67
938.53	7669.64
938.70	7427.98
938.86	7458.70
939.03	7415.69
939.20	7317.39
939.36	7323.54
939.53	7196.56
939.70	7301.01
939.86	6870.94
940.03	6766.49
940.19	6678.43
940.36	6727.58
940.53	6768.54
940.69	6614.94
940.86	6567.84
941.03	6453.15
941.19	6502.30
941.36	6256.54
941.52	6256.54
941.69	6246.30
941.86	6158.24
942.02	6121.38
942.19	6223.78
942.35	6156.19
942.52	5980.07
942.69	6021.03
942.85	5816.23
943.02	5930.92
943.18	5830.57
943.35	5820.33
943.52	5689.26
943.68	5730.22
943.85	5758.89
944.01	5623.72
944.18	5529.52
944.35	5590.95
944.51	5474.22
944.68	5396.40
944.84	5451.69
945.01	5439.40
945.17	5343.15
945.34	5437.36
945.51	5513.13
945.67	5492.65
945.84	5345.20
946.00	5222.32
946.17	5267.38
946.33	5322.67
946.50	5439.40
946.67	5203.89
946.83	5124.02
947.00	5160.88
947.16	5371.82
947.33	5193.65
947.49	5261.23
947.66	5154.74
947.82	5232.56
947.99	5212.08
948.16	5255.09
948.32	5300.14
948.49	5349.29
948.65	5289.90
948.82	5369.77
948.98	5339.05
949.15	5113.78
949.31	5369.77
949.48	5318.57
949.64	5314.48
949.81	5269.42
949.97	5255.09
950.14	5214.13
950.30	5177.26
950.47	5418.93
950.63	5191.60
950.80	5310.38
950.96	5267.38
951.13	5253.04
951.30	5148.59
951.46	5246.90
951.63	5466.03
951.79	5400.49
951.96	5412.78
952.12	5255.09
952.29	5246.90
952.45	5314.48
952.62	5423.02
952.78	5318.57
952.94	5343.15
953.11	5343.15
953.27	5332.91
953.44	5423.02
953.60	5463.98
953.77	5314.48
953.93	5369.77
954.10	5287.86
954.26	5304.24
954.43	5330.86
954.59	5427.12
954.76	5525.42
954.92	5302.19
955.09	5474.22
955.25	5253.04
955.42	5394.35
955.58	5429.17
955.75	5486.51
955.91	5253.04
956.07	5488.56
956.24	5437.36
956.40	5357.49
956.57	5425.07
956.73	5322.67
956.90	5373.87
957.06	5406.64
957.23	5435.31
957.39	5279.66
957.56	5396.40
957.72	5316.53
957.88	5337.01
958.05	5580.71
958.21	5429.17
958.38	5582.76
958.54	5365.68
958.71	5504.94
958.87	5425.07
959.03	5431.21
959.20	5359.53
959.36	5468.08
959.53	5214.13
959.69	5279.66
959.85	5486.51
960.02	5201.84
960.18	5277.62
960.35	5357.49
960.51	5533.61
960.68	5332.91
960.84	5341.10
961.00	5447.60
961.17	5238.70
961.33	5410.73
961.50	5230.51
961.66	5410.73
961.82	5273.52
961.99	5349.29
962.15	5255.09
962.31	5394.35
962.48	5410.73
962.64	5494.70
962.81	5361.58
962.97	5357.49
963.13	5234.61
963.30	5244.85
963.46	5253.04
963.62	5459.88
963.79	5246.90
963.95	5308.34
964.12	5332.91
964.28	5375.92
964.44	5318.57
964.61	5283.76
964.77	5373.87
964.93	5285.81
965.10	5261.23
965.26	5263.28
965.42	5185.46
965.59	5175.22
965.75	5197.74
965.92	5222.32
966.08	5220.27
966.24	5250.99
966.41	5107.63
966.57	5187.50
966.73	5259.18
966.90	5181.36
967.06	5289.90
967.22	5154.74
967.39	5066.67
967.55	5109.68
967.71	5146.55
967.88	5083.06
968.04	5091.25
968.20	5105.59
968.37	5052.34
968.53	4982.71
968.69	5105.59
968.85	5220.27
969.02	5132.21
969.18	5156.79
969.34	4906.93
969.51	5056.43
969.67	5111.73
969.83	5101.49
970.00	5019.57
970.16	5013.43
970.32	4939.70
970.48	5107.63
970.65	4798.39
970.81	5070.77
970.97	4853.69
971.14	4921.27
971.30	4980.66
971.46	5017.52
971.63	4888.50
971.79	4990.90
971.95	4878.26
972.11	4769.72
972.28	4849.59
972.44	4886.45
972.60	4816.82
972.76	4820.92
972.93	4786.10
973.09	4915.12
973.25	4872.12
973.42	4736.95
973.58	4937.65
973.74	4759.48
973.90	4808.63
974.07	4739.00
974.23	4837.30
974.39	4868.02
974.55	4636.60
974.72	4755.38
974.88	4698.04
975.04	4659.13
975.20	4681.66
975.37	4700.09
975.53	4702.14
975.69	4716.47
975.85	4575.16
976.01	4628.41
976.18	4448.19
976.34	4599.74
976.50	4648.89
976.66	4827.06
976.83	4585.40
976.99	4566.97
977.15	4663.22
977.31	4495.29
977.47	4624.31
977.64	4614.07
977.80	4485.05
977.96	4423.61
978.12	4497.34
978.29	4558.78
978.45	4378.56
978.61	4413.37
978.77	4550.59
978.93	4415.42
979.10	4581.31
979.26	4431.80
979.42	4419.52
979.58	4341.69
979.74	4382.65
979.91	4343.74
980.07	4380.61
980.23	4370.37
980.39	4440.00
980.55	4317.12
980.71	4423.61
980.88	4362.17
981.04	4186.05
981.20	4337.60
981.36	4440.00
981.52	4413.37
981.68	4106.18
981.85	4386.75
982.01	4259.78
982.17	4351.93
982.33	4345.79
982.49	4292.54
982.65	4194.24
982.82	4261.82
982.98	4302.78
983.14	4046.79
983.30	4181.95
983.46	4325.31
983.62	4227.01
983.79	4169.66
983.95	4151.23
984.11	4167.62
984.27	4184.00
984.43	4155.33
984.59	4100.03
984.75	4001.73
984.91	4057.03
985.08	4147.14
985.24	4116.42
985.40	4034.50
985.56	4050.88
985.72	4186.05
985.88	4085.70
986.04	3981.25
986.20	3999.68
986.37	3997.64
986.53	3952.58
986.69	4059.07
986.85	3848.13
987.01	3948.48
987.17	4005.83
987.33	4042.69
987.49	3901.38
987.65	3952.58
987.82	3936.20
987.98	3764.17
988.14	3893.19
988.30	3844.04
988.46	3934.15
988.62	3831.75
988.78	3803.08
988.94	3827.65
989.10	3809.22
989.26	3776.45
989.42	3723.21
989.59	3829.70
989.75	3721.16
989.91	3833.80
990.07	3653.58
990.23	3663.82
990.39	3700.68
990.55	3667.91
990.71	3678.15
990.87	3831.75
991.03	3708.87
991.19	3770.31
991.35	3751.88
991.51	3661.77
991.67	3753.93
991.83	3567.56
992.00	3747.78
992.16	3672.01
992.32	3667.91
992.48	3649.48
992.64	3592.14
992.80	3616.71
992.96	3551.18
993.12	3579.85
993.28	3534.79
993.44	3590.09
993.60	3590.09
993.76	3551.18
993.92	3602.38
994.08	3682.25
994.24	3653.58
994.40	3508.17
994.56	3631.05
994.72	3516.36
994.88	3483.59
995.04	3530.70
995.20	3477.45
995.36	3354.57
995.52	3567.56
995.68	3418.06
995.84	3403.72
996.00	3530.70
996.16	3428.30
996.32	3311.57
996.48	3393.48
996.64	3497.93
996.80	3420.11
996.96	3362.76
997.12	3520.46
997.28	3403.72
997.44	3332.05
997.60	3303.37
997.76	3385.29
997.92	3340.24
998.08	3362.76
998.24	3289.04
998.40	3272.65
998.56	3413.96
998.72	3205.07
998.88	3278.80
999.04	3209.17
999.20	3426.25
999.36	3182.54
999.52	3278.80
999.68	3317.71
999.84	3313.61
1000.00	3284.94
1000.16	3248.08
1000.32	3174.35
1000.48	3491.79
1000.64	3131.34
1000.80	3123.15
1000.95	3045.33
1001.11	3235.79
1001.27	3131.34
1001.43	3149.78
1001.59	3024.85
1001.75	3065.81
1001.91	3143.63
1002.07	3088.34
1002.23	3049.43
1002.39	3096.53
1002.55	3063.76
1002.71	2940.88
1002.87	3110.86
1003.03	3051.47
1003.19	3008.47
1003.34	3076.05
1003.50	3043.28
1003.66	3051.47
1003.82	3030.99
1003.98	3026.90
1004.14	2990.03
1004.30	2938.84
1004.46	2920.40
1004.62	2887.64
1004.78	2918.36
1004.94	2957.27
1005.09	3020.75
1005.25	2967.51
1005.41	2983.89
1005.57	2887.64
1005.73	2852.82
1005.89	2926.55
1006.05	2891.73
1006.21	2838.48
1006.37	2852.82
1006.52	2871.25
1006.68	2861.01
1006.84	2932.69
1007.00	2815.96
1007.16	2865.11
1007.32	2852.82
1007.48	2793.43
1007.64	2820.05
1007.79	2799.57
1007.95	2762.71
1008.11	2947.03
1008.27	2787.29
1008.43	2807.77
1008.59	2754.52
1008.75	2791.38
1008.91	2764.76
1009.06	2799.57
1009.22	2830.29
1009.38	2867.16
1009.54	2736.09
1009.70	2711.51
1009.86	2789.33
1010.01	2738.13
1010.17	2688.98
1010.33	2750.42
1010.49	2781.14
1010.65	2742.23
1010.81	2658.26
1010.96	2723.80
1011.12	2666.46
1011.28	2670.55
1011.44	2770.90
1011.60	2705.37
1011.76	2559.96
1011.91	2641.88
1012.07	2551.77
1012.23	2617.30
1012.39	2613.21
1012.55	2641.88
1012.71	2621.40
1012.86	2566.10
1013.02	2557.91
1013.18	2635.74
1013.34	2576.34
1013.50	2643.93
1013.65	2478.04
1013.81	2486.23
1013.97	2496.47
1014.13	2621.40
1014.29	2531.29
1014.44	2658.26
1014.60	2551.77
1014.76	2508.76
1014.92	2568.15
1015.07	2508.76
1015.23	2459.61
1015.39	2494.43
1015.55	2514.91
1015.71	2475.99
1015.86	2510.81
1016.02	2494.43
1016.18	2492.38
1016.34	2471.90
1016.49	2500.57
1016.65	2598.87
1016.81	2543.58
1016.97	2457.56
1017.12	2478.04
1017.28	2467.80
1017.44	2342.88
1017.60	2533.34
1017.75	2461.66
1017.91	2414.56
1018.07	2492.38
1018.23	2486.23
1018.38	2463.71
1018.54	2353.12
1018.70	2449.37
1018.86	2385.88
1019.01	2332.64
1019.17	2359.26
1019.33	2394.08
1019.49	2404.32
1019.64	2459.61
1019.80	2369.50
1019.96	2367.45
1020.12	2445.27
1020.27	2414.56
1020.43	2389.98
1020.59	2418.65
1020.74	2439.13
1020.90	2406.36
1021.06	2273.25
1021.22	2293.72
1021.37	2396.12
1021.53	2359.26
1021.69	2342.88
1021.84	2248.67
1022.00	2385.88
1022.16	2246.62
1022.31	2250.72
1022.47	2303.96
1022.63	2371.55
1022.79	2248.67
1022.94	2240.48
1023.10	2277.34
1023.26	2258.91
1023.41	2230.24
1023.57	2197.47
1023.73	2312.16
1023.88	2248.67
1024.04	2181.09
1024.20	2240.48
1024.35	2265.05
1024.51	2273.25
1024.67	2125.79
1024.82	2306.01
1024.98	2199.52
1025.14	2256.86
1025.29	2176.99
1025.45	2287.58
1025.61	2129.89
1025.76	2191.33
1025.92	2160.61
1026.08	2269.15
1026.23	2201.57
1026.39	2217.95
1026.55	2181.09
1026.70	2136.03
1026.86	2146.27
1027.02	2265.05
1027.17	2150.37
1027.33	2076.64
1027.48	2099.17
1027.64	2119.65
1027.80	2072.54
1027.95	2168.80
1028.11	2086.88
1028.27	2189.28
1028.42	2129.89
1028.58	2123.74
1028.73	2095.07
1028.89	1982.43
1029.05	2203.61
1029.20	2187.23
>>>>>End Processed Spectral Data<<<<<
