SpectraSuite Data File
++++++++++++++++++++++++++++++++++++
Date: Fri Jun 02 14:52:25 CEST 2017
User: INFO_000
Dark Spectrum Present: No
Reference Spectrum Present: No
Number of Sampled Component Spectra: 1
Spectrometers: USB4H00879
Integration Time (usec): 80000 (USB4H00879)
Spectra Averaged: 1 (USB4H00879)
Boxcar Smoothing: 0 (USB4H00879)
Correct for Electrical Dark: No (USB4H00879)
Strobe/Lamp Enabled: No (USB4H00879)
Correct for Detector Non-linearity: No (USB4H00879)
Correct for Stray Light: No (USB4H00879)
Number of Pixels in Processed Spectrum: 3648
>>>>>Begin Processed Spectral Data<<<<<
345.13	1257.45
345.34	1257.45
345.56	1257.45
345.78	1304.56
345.99	1251.31
346.21	1728.49
346.42	1636.33
346.64	1640.42
346.86	1761.25
347.07	1716.20
347.29	1708.01
347.50	1607.66
347.72	1646.57
347.94	1757.16
348.15	1572.84
348.37	1667.05
348.59	1730.53
348.80	1703.91
349.02	1771.49
349.23	1898.47
349.45	1863.65
349.67	1845.22
349.88	1769.44
350.10	1918.95
350.31	1798.12
350.53	1773.54
350.75	2009.06
350.96	1918.95
351.18	1847.27
351.39	1863.65
351.61	1884.13
351.82	1882.08
352.04	1945.57
352.26	1830.88
352.47	1902.56
352.69	1953.76
352.90	1765.35
353.12	1888.23
353.34	1888.23
353.55	1941.47
353.77	1886.18
353.98	1859.56
354.20	1808.36
354.41	1953.76
354.63	1931.23
354.85	1920.99
355.06	1941.47
355.28	1818.60
355.49	1812.45
355.71	1888.23
355.92	1859.56
356.14	1898.47
356.35	1880.04
356.57	1816.55
356.79	1877.99
357.00	1839.08
357.22	2023.39
357.43	1845.22
357.65	1953.76
357.86	1820.64
358.08	1966.05
358.29	1851.36
358.51	1947.62
358.72	1931.23
358.94	1947.62
359.16	2011.11
359.37	1939.43
359.59	1933.28
359.80	1986.53
360.02	1935.33
360.23	1933.28
360.45	1978.34
360.66	1968.10
360.88	1918.95
361.09	1933.28
361.31	2029.54
361.52	1959.91
361.74	2013.15
361.95	2115.55
362.17	1865.70
362.38	2193.37
362.60	2099.17
362.81	2033.63
363.03	1929.19
363.24	2029.54
363.46	2019.30
363.67	2035.68
363.89	1945.57
364.10	1990.63
364.32	1998.82
364.53	2082.78
364.75	1935.33
364.96	2013.15
365.18	2019.30
365.39	1949.67
365.61	1939.43
365.82	2146.27
366.04	2052.06
366.25	2035.68
366.47	1992.67
366.68	2099.17
366.90	1908.71
367.11	2084.83
367.33	1970.15
367.54	2150.37
367.76	2060.26
367.97	2090.98
368.19	2029.54
368.40	2119.65
368.62	1959.91
368.83	1990.63
369.05	2072.54
369.26	2027.49
369.48	1978.34
369.69	2021.35
369.91	2093.02
370.12	2064.35
370.33	2105.31
370.55	2056.16
370.76	2074.59
370.98	2160.61
371.19	2043.87
371.41	2052.06
371.62	2090.98
371.84	2025.44
372.05	2205.66
372.27	2009.06
372.48	2068.45
372.69	2052.06
372.91	2115.55
373.12	2164.70
373.34	2142.18
373.55	2101.22
373.77	2224.09
373.98	2088.93
374.20	2250.72
374.41	2195.42
374.62	2160.61
374.84	2168.80
375.05	2234.33
375.27	2152.42
375.48	2207.71
375.70	2158.56
375.91	2240.48
376.12	2277.34
376.34	2125.79
376.55	2228.19
376.77	2232.29
376.98	2099.17
377.19	2164.70
377.41	2324.44
377.62	2263.01
377.84	2351.07
378.05	2256.86
378.27	2258.91
378.48	2351.07
378.69	2387.93
378.91	2293.72
379.12	2273.25
379.34	2283.49
379.55	2326.49
379.76	2265.05
379.98	2199.52
380.19	2295.77
380.41	2277.34
380.62	2318.30
380.83	2353.12
381.05	2232.29
381.26	2346.97
381.47	2260.96
381.69	2269.15
381.90	2465.75
382.12	2301.92
382.33	2187.23
382.54	2203.61
382.76	2273.25
382.97	2312.16
383.19	2254.81
383.40	2375.64
383.61	2445.27
383.83	2285.53
384.04	2385.88
384.25	2353.12
384.47	2467.80
384.68	2400.22
384.89	2344.92
385.11	2320.35
385.32	2363.36
385.54	2379.74
385.75	2369.50
385.96	2379.74
386.18	2424.80
386.39	2502.62
386.60	2426.84
386.82	2428.89
387.03	2416.60
387.24	2559.96
387.46	2510.81
387.67	2514.91
387.88	2500.57
388.10	2465.75
388.31	2463.71
388.52	2613.21
388.74	2516.95
388.95	2494.43
389.16	2539.48
389.38	2562.01
389.59	2572.25
389.80	2617.30
390.02	2541.53
390.23	2625.50
390.44	2562.01
390.66	2564.06
390.87	2562.01
391.08	2592.73
391.30	2742.23
391.51	2658.26
391.72	2678.74
391.94	2674.65
392.15	2633.69
392.36	2633.69
392.58	2555.86
392.79	2826.20
393.00	2721.75
393.22	2672.60
393.43	2775.00
393.64	2830.29
393.85	2734.04
394.07	2768.85
394.28	2799.57
394.49	2711.51
394.71	2830.29
394.92	2875.35
395.13	2811.86
395.35	2818.00
395.56	2824.15
395.77	2746.33
395.98	2799.57
396.20	2842.58
396.41	2912.21
396.62	2938.84
396.84	2756.57
397.05	2838.48
397.26	2826.20
397.47	3024.85
397.69	2803.67
397.90	2994.13
398.11	2916.31
398.32	2908.12
398.54	2873.30
398.75	2942.93
398.96	2979.79
399.18	3123.15
399.39	2949.08
399.60	3082.19
399.81	3069.91
400.03	2891.73
400.24	3260.37
400.45	3008.47
400.66	3076.05
400.88	2947.03
401.09	3149.78
401.30	3106.77
401.51	3088.34
401.73	3094.48
401.94	3121.10
402.15	3250.13
402.36	3141.58
402.58	3127.25
402.79	3295.18
403.00	3266.51
403.21	3178.45
403.43	3178.45
403.64	3313.61
403.85	3063.76
404.06	3276.75
404.27	3184.59
404.49	3311.57
404.70	3239.89
404.91	3272.65
405.12	3311.57
405.34	3286.99
405.55	3438.54
405.76	3117.01
405.97	3190.74
406.19	3385.29
406.40	3342.28
406.61	3383.24
406.82	3354.57
407.03	3313.61
407.25	3362.76
407.46	3508.17
407.67	3383.24
407.88	3514.31
408.09	3391.44
408.31	3303.37
408.52	3407.82
408.73	3477.45
408.94	3319.76
409.15	3450.83
409.37	3540.94
409.58	3510.22
409.79	3497.93
410.00	3577.80
410.21	3461.07
410.43	3506.12
410.64	3485.64
410.85	3622.86
411.06	3518.41
411.27	3647.43
411.48	3692.49
411.70	3645.38
411.91	3700.68
412.12	3729.35
412.33	3776.45
412.54	3651.53
412.76	3706.82
412.97	3821.51
413.18	3594.19
413.39	3721.16
413.60	3686.34
413.81	3712.97
414.03	3755.97
414.24	3698.63
414.45	3833.80
414.66	3684.30
414.87	3960.77
415.08	3813.32
415.30	3817.41
415.51	3782.60
415.72	3774.41
415.93	3837.89
416.14	3977.16
416.35	3858.37
416.56	3874.76
416.78	3917.76
416.99	3934.15
417.20	4001.73
417.41	3977.16
417.62	4087.75
417.83	4044.74
418.04	4116.42
418.26	4112.32
418.47	3925.96
418.68	3950.53
418.89	4050.88
419.10	4255.68
419.31	4083.65
419.52	4108.23
419.73	4108.23
419.95	4216.77
420.16	4042.69
420.37	4140.99
420.58	4216.77
420.79	4026.31
421.00	4067.27
421.21	4286.40
421.42	4130.75
421.63	4284.35
421.85	4175.81
422.06	4159.42
422.27	4132.80
422.48	4243.39
422.69	4368.32
422.90	4304.83
423.11	4374.46
423.32	4435.90
423.53	4429.76
423.75	4431.80
423.96	4636.60
424.17	4407.23
424.38	4657.08
424.59	4462.52
424.80	4677.56
425.01	4632.51
425.22	4573.11
425.43	4417.47
425.64	4763.58
425.85	4839.35
426.06	4562.87
426.28	4655.03
426.49	4591.55
426.70	4530.11
426.91	4575.16
427.12	4659.13
427.33	4695.99
427.54	4710.33
427.75	4753.34
427.96	4900.79
428.17	4779.96
428.38	4892.60
428.59	5048.24
428.80	4794.29
429.01	4884.41
429.23	4941.75
429.44	5054.39
429.65	5117.87
429.86	5072.82
430.07	5023.67
430.28	4790.20
430.49	5105.59
430.70	5294.00
430.91	5373.87
431.12	5156.79
431.33	5263.28
431.54	5316.53
431.75	5171.12
431.96	5279.66
432.17	5072.82
432.38	5150.64
432.59	5529.52
432.80	5400.49
433.01	5414.83
433.22	5406.64
433.43	5394.35
433.64	5257.14
433.85	5296.05
434.06	5558.19
434.27	5351.34
434.49	5490.60
434.70	5607.34
434.91	5537.71
435.12	5556.14
435.33	5519.28
435.54	5531.56
435.75	5320.62
435.96	5519.28
436.17	5410.73
436.38	5609.39
436.59	5885.86
436.80	5541.80
437.01	5955.49
437.22	5834.66
437.43	5855.14
437.64	5541.80
437.85	5832.62
438.06	5793.70
438.27	5830.57
438.48	5887.91
438.69	5857.19
438.90	5863.33
439.11	5672.87
439.32	6006.69
439.53	5949.35
439.74	5963.68
439.95	6096.80
440.16	6078.37
440.37	6004.64
440.57	5873.57
440.78	5984.16
440.99	6076.32
441.20	6006.69
441.41	5971.88
441.62	6100.90
441.83	5947.30
442.04	6289.31
442.25	6098.85
442.46	6107.04
442.67	6268.83
442.88	6391.71
443.09	6123.43
443.30	6191.01
443.51	6115.23
443.72	6473.63
443.93	6191.01
444.14	6449.05
444.35	6336.42
444.56	6408.09
444.77	6328.22
444.98	6346.66
445.19	6551.45
445.40	6490.01
445.61	6442.91
445.81	6621.08
446.02	6614.94
446.23	6393.76
446.44	6424.48
446.65	6510.49
446.86	6571.93
447.07	6791.06
447.28	6698.91
447.49	6815.64
447.70	6547.36
447.91	6815.64
448.12	6641.56
448.33	7063.44
448.54	6737.82
448.74	6786.97
448.95	6809.50
449.16	6768.54
449.37	7192.47
449.58	6932.37
449.79	7020.44
450.00	6682.52
450.21	7147.41
450.42	7128.98
450.63	7006.10
450.84	7063.44
451.05	7282.58
451.25	7110.55
451.46	7079.83
451.67	7204.75
451.88	7360.40
452.09	7286.67
452.30	7251.86
452.51	7364.50
452.72	7446.41
452.93	7753.61
453.13	7258.00
453.34	7231.38
453.55	7387.02
453.76	7514.00
453.97	7907.21
454.18	7475.09
454.39	7577.48
454.60	7546.76
454.81	7683.98
455.01	7745.42
455.22	7470.99
455.43	7907.21
455.64	7921.54
455.85	8087.43
456.06	8134.53
456.27	8038.28
456.48	7913.35
456.68	7982.98
456.89	7993.22
457.10	8251.27
457.31	8290.18
457.52	8050.57
457.73	8214.40
457.94	8406.91
458.14	8281.99
458.35	8458.11
458.56	8374.14
458.77	8220.55
458.98	8572.80
459.19	8523.65
459.39	8593.28
459.60	8619.90
459.81	8537.98
460.02	8757.11
460.23	8742.78
460.44	8724.35
460.65	8771.45
460.85	8875.90
461.06	9029.49
461.27	8814.46
461.48	9150.32
461.69	9144.18
461.89	8763.26
462.10	9084.79
462.31	8894.33
462.52	9078.65
462.73	9197.43
462.94	9179.00
463.14	9123.70
463.35	9244.53
463.56	9815.91
463.77	9615.21
463.98	9715.56
464.18	9385.84
464.39	9777.00
464.60	9836.39
464.81	9807.72
465.02	9842.54
465.23	10129.25
465.43	9856.87
465.64	9934.70
465.85	9846.63
466.06	10110.82
466.27	10133.35
466.47	10258.28
466.68	10368.87
466.89	10336.10
467.10	10272.61
467.30	10227.56
467.51	10407.78
467.72	10682.20
467.93	10581.85
468.14	10817.37
468.34	10837.85
468.55	10770.27
468.76	10880.86
468.97	10889.05
469.17	10819.42
469.38	11153.24
469.59	11300.69
469.80	10993.50
470.01	11005.78
470.21	11112.28
470.42	11353.94
470.63	11405.14
470.84	11304.79
471.04	11528.02
471.25	11597.65
471.46	11624.27
471.67	12005.19
471.87	11741.00
472.08	11978.57
472.29	12322.63
472.50	11712.33
472.70	12195.65
472.91	11888.46
473.12	12339.01
473.33	12457.79
473.53	12582.72
473.74	12281.67
473.95	12652.35
474.16	12783.42
474.36	12658.49
474.57	12721.98
474.78	13072.18
474.99	12953.40
475.19	13088.57
475.40	13059.90
475.61	13070.14
475.81	13512.50
476.02	13752.11
476.23	13418.29
476.44	13739.82
476.64	13823.79
476.85	13905.71
477.06	13721.39
477.27	14233.38
477.47	14098.22
477.68	14100.26
477.89	14290.73
478.09	14196.52
478.30	14321.45
478.51	14425.89
478.71	14497.57
478.92	14501.67
479.13	14710.56
479.34	14929.69
479.54	14931.74
479.75	15189.78
479.96	15056.67
480.16	14982.94
480.37	15120.15
480.58	15572.75
480.78	15677.20
480.99	15441.68
481.20	15357.72
481.41	15736.59
481.61	15882.00
481.82	16101.13
482.03	15838.99
482.23	15965.96
482.44	16535.30
482.65	16101.13
482.85	16373.51
483.06	16430.85
483.27	16506.63
483.47	16396.04
483.68	16348.93
483.89	16692.99
484.09	16834.30
484.30	17121.02
484.51	17022.72
484.71	17129.21
484.92	17356.54
485.13	17254.14
485.33	17397.49
485.54	17633.01
485.75	18018.03
485.95	17571.57
486.16	17901.29
486.37	18073.32
486.57	17972.97
486.78	17993.45
486.98	17970.93
487.19	18128.62
487.40	18243.31
487.60	18278.12
487.81	18605.80
488.02	18460.39
488.22	18325.22
488.43	18904.80
488.64	18783.97
488.84	19062.49
489.05	19050.21
489.25	19093.21
489.46	19187.42
489.67	19248.86
489.87	19427.03
490.08	19461.85
490.29	19402.46
490.49	19855.06
490.70	19777.23
490.90	19678.93
491.11	19697.36
491.32	19932.88
491.52	19795.67
491.73	19883.73
491.94	20192.97
492.14	20131.53
492.35	20522.69
492.55	20534.98
492.76	20354.76
492.97	20856.51
493.17	20651.72
493.38	20825.79
493.58	21049.02
493.79	21157.57
494.00	20897.47
494.20	21149.37
494.41	21276.35
494.61	21733.04
494.82	21374.65
495.02	21157.57
495.23	21415.61
495.44	21632.69
495.64	21886.64
495.85	21941.94
496.05	21687.99
496.26	21749.43
496.47	22165.17
496.67	22253.23
496.88	22574.76
497.08	22122.16
497.29	22333.10
497.49	22324.91
497.70	22535.85
497.91	22845.09
498.11	23037.60
498.32	22980.26
498.52	22886.05
498.73	23056.03
498.93	22918.82
499.14	23271.07
499.34	23195.29
499.55	23426.71
499.76	23029.41
499.96	23352.99
500.17	23631.51
500.37	23363.23
500.58	23385.76
500.78	23934.61
500.99	23772.82
501.19	24116.88
501.40	23705.24
501.60	23643.80
501.81	23703.19
502.02	23981.71
502.22	24188.56
502.43	24034.96
502.63	24356.49
502.84	24549.00
503.04	24215.18
503.25	24376.97
503.45	24444.56
503.66	24444.56
503.86	24557.19
504.07	24841.86
504.27	24321.68
504.48	25136.77
504.68	25050.75
504.89	25179.78
505.09	25245.31
505.30	24811.14
505.50	25089.67
505.71	25351.81
505.91	25575.03
506.12	25646.71
506.32	25429.63
506.53	25550.46
506.73	25943.67
506.94	26068.59
507.14	25587.32
507.35	25595.51
507.55	26031.73
507.76	25992.82
507.96	25902.71
508.17	25839.22
508.37	26191.47
508.58	26125.94
508.78	26066.55
508.99	26418.80
509.19	26443.37
509.40	26334.83
509.60	26588.78
509.81	26400.37
510.01	26373.74
510.22	26863.21
510.42	26609.26
510.63	26793.58
510.83	26699.37
511.04	26783.34
511.24	26926.69
511.44	26941.03
511.65	27246.18
511.85	27283.04
512.06	27350.62
512.26	27260.51
512.47	27203.17
512.67	27240.03
512.88	27424.35
513.08	27389.53
513.29	27479.64
513.49	27201.12
513.69	27489.88
513.90	27702.87
514.10	27545.18
514.31	28208.72
514.51	27815.51
514.72	27741.78
514.92	28223.06
515.13	28200.53
515.33	28120.66
515.53	28200.53
515.74	28100.18
515.94	28350.03
516.15	28130.90
516.35	28538.44
516.56	28712.52
516.76	28382.80
516.96	28782.15
517.17	28980.81
517.37	29148.74
517.58	28902.98
517.78	28802.63
517.99	28991.05
518.19	28952.13
518.39	29263.43
518.60	29378.11
518.80	29308.48
519.01	29480.51
519.21	29462.08
519.41	29646.40
519.62	29523.52
519.82	29816.38
520.03	29617.72
520.23	30133.81
520.43	29814.33
520.64	30213.68
520.84	29922.87
521.05	30281.27
521.25	30221.87
521.45	30416.43
521.66	30414.38
521.86	30271.03
522.07	30557.74
522.27	30479.92
522.47	30549.55
522.68	30885.42
522.88	30717.48
523.08	30955.05
523.29	31188.52
523.49	31077.93
523.70	31137.32
523.90	31256.10
524.10	30996.01
524.31	31442.46
524.51	31194.66
524.71	31766.04
524.92	31598.11
525.12	32036.38
525.33	31782.43
525.53	32044.57
525.73	32112.15
525.94	31933.98
526.14	32052.76
526.34	31897.11
526.55	32407.06
526.75	31964.70
526.95	32585.23
527.16	32607.76
527.36	32970.25
527.56	32693.77
527.77	33355.27
527.97	32865.80
528.17	32759.31
528.38	32863.75
528.58	33310.21
528.78	33394.18
528.99	33535.49
529.19	33578.50
529.39	33371.65
529.60	33611.26
529.80	33902.07
530.00	33465.86
530.21	33648.13
530.41	34145.78
530.61	33963.51
530.82	34184.69
531.02	34143.74
531.22	34432.50
531.43	34188.79
531.63	34512.37
531.83	34950.63
532.04	35044.84
532.24	34907.63
532.44	35106.28
532.64	35200.49
532.85	35296.74
533.05	35161.58
533.25	35605.98
533.46	35405.28
533.66	35849.69
533.86	35567.07
534.07	36120.02
534.27	36046.30
534.47	35896.80
534.67	36265.43
534.88	35923.42
535.08	36203.99
535.28	36296.15
535.49	36210.14
535.69	36738.51
535.89	36748.75
536.09	36928.97
536.30	37352.90
536.50	36849.10
536.70	37154.25
536.91	37129.67
537.11	37240.26
537.31	37164.49
537.51	37383.62
537.72	37719.49
537.92	37692.86
538.12	37707.20
538.32	37606.85
538.53	37821.89
538.73	37555.65
538.93	37711.30
539.13	37701.06
539.34	37840.32
539.54	37893.57
539.74	38198.71
539.94	38286.78
540.15	38170.04
540.35	38112.70
540.55	38542.77
540.75	38510.00
540.96	38557.11
541.16	38450.61
541.36	38983.09
541.56	38868.40
541.77	39114.16
541.97	39026.09
542.17	39056.81
542.37	39003.56
542.58	39323.05
542.78	39245.23
542.98	38942.13
543.18	39364.01
543.38	39445.93
543.59	39490.98
543.79	39564.71
543.99	39239.08
544.19	39884.19
544.40	39611.81
544.60	40050.08
544.80	39957.92
545.00	39624.10
545.20	40318.36
545.41	40140.19
545.61	39810.46
545.81	40267.16
546.01	40232.35
546.21	40195.48
546.42	40213.91
546.62	40983.95
546.82	40297.88
547.02	40560.02
547.22	41414.02
547.43	40531.35
547.63	40687.00
547.83	40684.95
548.03	40564.12
548.23	41047.44
548.44	40809.87
548.64	41024.91
548.84	41067.92
549.04	41096.59
549.24	41184.65
549.45	41360.78
549.65	40854.93
549.85	41274.76
550.05	41604.49
550.25	41176.46
550.45	41735.56
550.66	41598.34
550.86	41004.43
551.06	41780.61
551.26	41692.55
551.46	41739.65
551.66	41727.36
551.87	41721.22
552.07	41801.09
552.27	42005.89
552.47	42124.67
552.67	42038.65
552.87	42044.80
553.07	42009.98
553.28	42360.19
553.48	42227.07
553.68	42114.43
553.88	42354.04
554.08	42294.65
554.28	42261.88
554.48	42063.23
554.69	42300.79
554.89	42263.93
555.09	42687.86
555.29	41895.30
555.49	42397.05
555.69	42495.35
555.89	42425.72
556.10	42464.63
556.30	42333.56
556.50	42659.19
556.70	42458.49
556.90	42558.84
557.10	42718.58
557.30	42362.23
557.50	43017.58
557.70	42960.24
557.91	43203.95
558.11	42968.43
558.31	43283.82
558.51	43326.83
558.71	43382.12
558.91	43330.92
559.11	42595.70
559.31	43029.87
559.51	43113.84
559.72	43244.91
559.92	43449.70
560.12	43150.70
560.32	43345.26
560.52	42999.15
560.72	43281.77
560.92	43492.71
561.12	43406.70
561.32	43611.49
561.52	43011.44
561.72	44156.25
561.93	42990.96
562.13	43574.63
562.33	43339.11
562.53	43513.19
562.73	43490.66
562.93	43613.54
563.13	43890.02
563.33	43234.67
563.53	44275.04
563.73	43261.29
563.93	43873.63
564.13	44090.72
564.33	43847.01
564.53	43789.67
564.74	44475.74
564.94	43842.92
565.14	44021.09
565.34	43650.41
565.54	44381.53
565.74	44078.43
565.94	44379.48
566.14	44469.59
566.34	43732.32
566.54	44326.24
566.74	43971.94
566.94	44438.87
567.14	44346.72
567.34	43961.70
567.54	44301.66
567.74	44371.29
567.94	44180.83
568.14	44406.11
568.34	44660.05
568.54	44412.25
568.74	44957.01
568.94	44311.90
569.14	44746.07
569.34	44698.97
569.54	44649.81
569.75	44571.99
569.95	44756.31
570.15	45135.18
570.35	44889.43
570.55	44660.05
570.75	44940.63
570.95	45034.83
571.15	45206.86
571.35	44682.58
571.55	44971.35
571.75	45286.73
571.95	45399.37
572.15	45151.57
572.35	45393.23
572.55	45096.27
572.75	45491.53
572.95	45266.25
573.15	45466.95
573.35	45385.04
573.55	45479.24
573.75	45817.16
573.95	45872.45
574.15	45251.92
574.35	45679.94
574.55	45700.42
574.75	45565.26
574.95	45669.70
575.15	45811.01
575.34	46167.36
575.54	45940.04
575.74	46236.99
575.94	46406.97
576.14	46179.65
576.34	46173.50
576.54	46548.28
576.74	46566.71
576.94	46044.48
577.14	46738.74
577.34	46888.24
577.54	46183.74
577.74	46566.71
577.94	46243.13
578.14	47205.68
578.34	46583.10
578.54	46130.50
578.74	46114.11
578.94	47238.45
579.14	47084.85
579.34	47052.08
579.54	47084.85
579.74	47533.35
579.94	47037.75
580.13	47334.70
580.33	47441.20
580.53	47562.03
580.73	47635.75
580.93	47283.50
581.13	47238.45
581.33	47789.35
581.53	47621.42
581.73	47607.08
581.93	48020.77
582.13	47996.20
582.33	47826.21
582.53	47965.48
582.73	48049.44
582.92	48450.84
583.12	47955.24
583.32	47480.11
583.52	47654.18
583.72	48258.34
583.92	48227.62
584.12	48565.53
584.32	48553.24
584.52	48387.36
584.72	48678.17
584.92	48870.68
585.11	48813.34
585.31	48641.31
585.51	48952.60
585.71	48461.08
585.91	48858.39
586.11	48874.77
586.31	48997.65
586.51	48893.21
586.71	48674.07
586.91	49462.54
587.10	49071.38
587.30	49354.00
587.50	49181.97
587.70	49306.90
587.90	49624.33
588.10	49657.10
588.30	49253.65
588.50	49820.94
588.69	49847.56
588.89	49634.57
589.09	49689.87
589.29	49620.23
589.49	49997.06
589.69	49464.59
589.89	50228.48
590.08	50076.93
590.28	50052.36
590.48	49960.20
590.68	50025.73
590.88	50099.46
591.08	50353.41
591.28	49861.90
591.47	50296.06
591.67	50648.32
591.87	50709.75
592.07	50560.25
592.27	50640.12
592.47	50584.83
592.67	51105.01
592.86	50423.04
593.06	50670.84
593.26	50951.41
593.46	50609.40
593.66	50910.46
593.86	51266.80
594.05	50930.93
594.25	51629.29
594.45	51086.58
594.65	50943.22
594.85	50996.47
595.05	51582.19
595.24	52012.26
595.44	51277.04
595.64	51344.62
595.84	51741.93
596.04	51422.45
596.23	51627.24
596.43	52296.93
596.63	51881.19
596.83	51811.56
597.03	52067.56
597.22	52501.73
597.42	51985.64
597.62	52237.54
597.82	52065.51
598.02	52577.50
598.21	52395.23
598.41	51789.03
598.61	52387.04
598.81	52626.65
599.01	52503.77
599.20	52589.79
599.40	52493.54
599.60	52929.75
599.80	52819.16
600.00	52866.27
600.19	53097.69
600.39	52944.09
600.59	52876.51
600.79	53109.97
600.98	53019.86
601.18	53392.59
601.38	53322.96
601.58	53400.79
601.78	53499.09
601.97	53540.05
602.17	53931.21
602.37	53390.55
602.57	53069.01
602.76	54215.88
602.96	53560.53
603.16	54166.73
603.36	53982.41
603.55	54252.74
603.75	53808.33
603.95	54453.44
604.15	54385.86
604.34	54093.00
604.54	54691.01
604.74	54226.12
604.94	54361.28
605.13	54142.15
605.33	54277.32
605.53	54203.59
605.73	54877.37
605.92	54809.79
606.12	54557.89
606.32	55098.55
606.52	54791.36
606.71	54289.60
606.91	55309.49
607.11	54578.37
607.30	55004.34
607.50	55030.97
607.70	55493.81
607.90	55063.74
608.09	54971.58
608.29	54912.19
608.49	55547.06
608.68	55479.47
608.88	55475.38
609.08	55299.25
609.28	55415.99
609.47	55301.30
609.67	55620.78
609.87	55964.84
610.06	56300.71
610.26	55932.07
610.46	55899.31
610.66	55487.67
610.85	55542.96
611.05	55471.28
611.25	55653.55
611.44	55694.51
611.64	55975.08
611.84	55458.99
612.03	56057.00
612.23	55407.79
612.43	55903.40
612.62	55882.92
612.82	56124.58
613.02	56333.48
613.21	56188.07
613.41	56280.23
613.61	56063.14
613.80	55778.48
614.00	56018.09
614.20	56503.46
614.39	56235.17
614.59	56800.41
614.79	56235.17
614.98	56327.33
615.18	55909.55
615.38	56429.73
615.57	56224.93
615.77	56497.31
615.97	56093.86
616.16	56276.13
616.36	56405.16
616.56	56513.70
616.75	56525.99
616.95	56317.09
617.15	56153.26
617.34	56542.37
617.54	56499.36
617.74	56562.85
617.93	56401.06
618.13	55813.29
618.32	56685.73
618.52	56134.82
618.72	56235.17
618.91	56372.39
619.11	55692.46
619.31	56562.85
619.50	56464.55
619.70	56153.26
619.90	56581.28
620.09	56267.94
620.29	56120.49
620.48	56521.89
620.68	56683.68
620.88	56261.80
621.07	56079.53
621.27	56282.28
621.46	55854.25
621.66	56698.01
621.86	56448.16
622.05	56347.81
622.25	56417.44
622.44	56405.16
622.64	56239.27
622.84	56577.18
623.03	56431.78
623.23	56503.46
623.42	56333.48
623.62	56521.89
623.82	56947.87
624.01	56501.41
624.21	56409.25
624.40	56384.68
624.60	56315.04
624.80	56343.72
624.99	55919.79
625.19	55880.88
625.38	56652.96
625.58	56403.11
625.77	56319.14
625.97	56538.27
626.17	56419.49
626.36	56712.35
626.56	56648.86
626.75	55884.97
626.95	56425.64
627.14	56243.37
627.34	56876.19
627.54	56087.72
627.73	56409.25
627.93	56278.18
628.12	55979.18
628.32	56341.67
628.51	56378.53
628.71	55704.75
628.90	56439.97
629.10	56276.13
629.30	56239.27
629.49	56358.05
629.69	56620.19
629.88	56042.66
630.08	56460.45
630.27	56880.28
630.47	56431.78
630.66	56159.40
630.86	55956.65
631.05	56439.97
631.25	56669.34
631.44	56165.54
631.64	56001.71
631.84	56638.62
632.03	56399.01
632.23	56564.90
632.42	56605.86
632.62	56480.93
632.81	56290.47
633.01	56562.85
633.20	56779.93
633.40	56640.67
633.59	56624.29
633.79	55880.88
633.98	56538.27
634.18	56605.86
634.37	56558.75
634.57	56300.71
634.76	56642.72
634.96	56730.78
635.15	56685.73
635.35	56059.05
635.54	56478.88
635.74	56833.18
635.93	56169.64
636.13	56579.23
636.32	56300.71
636.52	56351.91
636.71	56644.77
636.91	56622.24
637.10	56417.44
637.30	56284.33
637.49	56669.34
637.69	56245.41
637.88	56794.27
638.08	55968.94
638.27	56339.62
638.46	56616.10
638.66	56214.69
638.85	55923.88
639.05	56636.58
639.24	56650.91
639.44	56333.48
639.63	56456.35
639.83	56710.30
640.02	56485.03
640.22	56194.21
640.41	57056.41
640.61	56437.92
640.80	56601.76
640.99	56773.79
641.19	56546.47
641.38	56452.26
641.58	56419.49
641.77	56503.46
641.97	56380.58
642.16	56628.38
642.36	56972.44
642.55	56958.11
642.74	56396.96
642.94	56759.45
643.13	56161.45
643.33	56855.71
643.52	56728.73
643.72	56661.15
643.91	56628.38
644.10	56759.45
644.30	56898.72
644.49	56622.24
644.69	56935.58
644.88	56419.49
645.08	56452.26
645.27	56423.59
645.46	56376.48
645.66	57230.49
645.85	55850.16
646.05	56679.58
646.24	56513.70
646.43	56521.89
646.63	56804.51
646.82	56738.97
647.02	56779.93
647.21	56968.35
647.40	56560.80
647.60	57048.22
647.79	56384.68
647.99	57054.36
648.18	56745.12
648.37	57226.39
648.57	57001.11
648.76	56853.66
648.96	56698.01
649.15	56794.27
649.34	57044.12
649.54	57076.89
649.73	56558.75
649.92	56849.56
650.12	56884.38
650.31	56689.82
650.51	57142.42
650.70	57134.23
650.89	56808.61
651.09	57410.71
651.28	56800.41
651.47	56874.14
651.67	56769.69
651.86	57326.74
652.06	56650.91
652.25	56722.59
652.44	56679.58
652.64	56388.77
652.83	57048.22
653.02	56308.90
653.22	56759.45
653.41	57162.90
653.60	56460.45
653.80	56681.63
653.99	56808.61
654.18	56571.04
654.38	56720.54
654.57	57119.90
654.76	57013.40
654.96	56566.94
655.15	56333.48
655.34	56698.01
655.54	56351.91
655.73	56861.85
655.92	56906.91
656.12	57597.07
656.31	57019.55
656.50	56779.93
656.70	56972.44
656.89	56638.62
657.08	57037.98
657.28	56941.72
657.47	56804.51
657.66	56513.70
657.86	57011.35
658.05	56845.47
658.24	57107.61
658.43	57070.75
658.63	56868.00
658.82	56607.90
659.01	56781.98
659.21	56927.39
659.40	57314.45
659.59	56472.74
659.79	57414.80
659.98	57304.21
660.17	57171.10
660.36	57146.52
660.56	57169.05
660.75	57013.40
660.94	57244.82
661.14	56679.58
661.33	56773.79
661.52	56482.98
661.71	57037.98
661.91	56509.60
662.10	56439.97
662.29	56888.48
662.49	57244.82
662.68	56659.10
662.87	56980.63
663.06	57238.68
663.26	56827.04
663.45	56898.72
663.64	56800.41
663.83	57500.82
664.03	56947.87
664.22	56829.08
664.41	56759.45
664.60	56521.89
664.80	57126.04
664.99	56779.93
665.18	56814.75
665.37	56800.41
665.57	56673.44
665.76	56568.99
665.95	57455.76
666.14	57040.03
666.34	56751.26
666.53	56521.89
666.72	56775.84
666.91	56743.07
667.11	56433.83
667.30	56624.29
667.49	56474.79
667.68	56540.32
667.87	56456.35
668.07	56935.58
668.26	56308.90
668.45	56837.28
668.64	56497.31
668.84	57103.51
669.03	56544.42
669.22	56681.63
669.41	56581.28
669.60	56976.54
669.80	56589.47
669.99	56982.68
670.18	56759.45
670.37	56974.49
670.57	56894.62
670.76	56370.34
670.95	57044.12
671.14	56806.56
671.33	56612.00
671.53	57083.03
671.72	57078.94
671.91	56599.71
672.10	56200.36
672.29	56609.95
672.48	56583.33
672.68	56784.03
672.87	56452.26
673.06	56734.88
673.25	56450.21
673.44	56630.43
673.64	56173.73
673.83	56151.21
674.02	56380.58
674.21	56153.26
674.40	56306.85
674.59	56265.89
674.79	56235.17
674.98	56138.92
675.17	56210.60
675.36	56091.82
675.55	56507.55
675.74	56171.69
675.94	56433.83
676.13	56685.73
676.32	56566.94
676.51	56568.99
676.70	56769.69
676.89	56612.00
677.08	56716.45
677.28	55882.92
677.47	56466.59
677.66	56345.76
677.85	56374.44
678.04	56423.59
678.23	56640.67
678.42	56605.86
678.62	56198.31
678.81	56464.55
679.00	56229.03
679.19	56964.25
679.38	56478.88
679.57	56710.30
679.76	56474.79
679.96	56706.21
680.15	56409.25
680.34	56091.82
680.53	56245.41
680.72	56517.79
680.91	56689.82
681.10	56378.53
681.29	56427.68
681.48	56464.55
681.68	55723.18
681.87	55997.61
682.06	55772.33
682.25	56106.15
682.44	55887.02
682.63	56317.09
682.82	55690.41
683.01	56210.60
683.20	55780.52
683.39	56120.49
683.59	55727.28
683.78	55956.65
683.97	55999.66
684.16	56052.90
684.35	55841.96
684.54	55766.19
684.73	55723.18
684.92	55637.17
685.11	55612.59
685.30	55542.96
685.49	55948.46
685.69	55633.07
685.88	55858.35
686.07	55614.64
686.26	55684.27
686.45	55952.55
686.64	55590.06
686.83	55923.88
687.02	56120.49
687.21	56038.57
687.40	56046.76
687.59	55321.78
687.78	55733.42
687.97	56018.09
688.16	55770.28
688.35	55405.75
688.54	55669.93
688.74	55495.86
688.93	55635.12
689.12	55825.58
689.31	55598.26
689.50	55588.02
689.69	55086.26
689.88	54889.66
690.07	55557.30
690.26	55542.96
690.45	55762.09
690.64	55088.31
690.83	55321.78
691.02	55190.71
691.21	55340.21
691.40	55401.65
691.59	55372.98
691.78	54879.42
691.97	55872.68
692.16	55325.88
692.35	55540.91
692.54	55424.18
692.73	55946.41
692.92	55301.30
693.11	54879.42
693.30	54955.19
693.49	55141.56
693.68	55067.83
693.87	55510.19
694.06	54975.67
694.25	55362.74
694.44	54809.79
694.63	55196.85
694.82	55116.98
695.01	55211.19
695.20	54795.45
695.39	54832.32
695.58	54791.36
695.77	55153.85
695.96	54770.88
696.15	54600.89
696.34	54762.68
696.53	54912.19
696.72	55225.53
696.91	54846.65
697.10	54727.87
697.29	54906.04
697.48	54942.91
697.67	54498.50
697.86	54836.41
698.05	54901.95
698.24	54867.13
698.43	54367.43
698.62	55078.07
698.81	54371.52
699.00	55055.54
699.19	54625.47
699.38	54908.09
699.57	54887.61
699.76	55319.73
699.95	54418.63
700.14	54054.09
700.32	54703.29
700.51	54320.32
700.70	55000.25
700.89	54582.46
701.08	54856.89
701.27	54236.36
701.46	54617.28
701.65	54236.36
701.84	54490.30
702.03	54572.22
702.22	53894.35
702.41	54105.29
702.60	54531.26
702.79	54377.67
702.98	53943.50
703.17	54424.77
703.35	53714.12
703.54	53638.35
703.73	53957.83
703.92	53972.17
704.11	54340.80
704.30	53955.78
704.49	54019.27
704.68	53837.00
704.87	54101.19
705.06	54031.56
705.25	53804.24
705.43	53798.09
705.62	53968.07
705.81	53773.52
706.00	53953.74
706.19	53497.04
706.38	53777.61
706.57	53542.10
706.76	53466.32
706.95	53896.39
707.14	53832.91
707.32	53263.57
707.51	53593.29
707.70	53662.93
707.89	53423.31
708.08	53566.67
708.27	54072.52
708.46	53982.41
708.65	53826.76
708.84	53710.03
709.02	53697.74
709.21	53986.50
709.40	53843.15
709.59	53714.12
709.78	53494.99
709.97	53771.47
710.16	53525.71
710.34	53079.25
710.53	53581.01
710.72	53294.29
710.91	53408.98
711.10	53583.05
711.29	53394.64
711.48	53249.24
711.66	53130.45
711.85	53112.02
712.04	53173.46
712.23	53417.17
712.42	53224.66
712.61	53271.76
712.80	53023.96
712.98	52966.62
713.17	53005.53
713.36	52888.79
713.55	53265.62
713.74	53077.21
713.93	52970.71
714.11	52923.61
714.30	52810.97
714.49	52677.85
714.68	52942.04
714.87	52548.83
715.06	53120.21
715.24	52747.48
715.43	52886.74
715.62	52329.70
715.81	52575.45
716.00	52907.22
716.18	52499.68
716.37	52298.98
716.56	52415.71
716.75	52667.61
716.94	52200.68
717.12	52241.63
717.31	52468.96
717.50	52638.94
717.69	52190.44
717.88	52636.89
718.06	52573.41
718.25	52382.94
718.44	51991.78
718.63	52016.36
718.82	51897.58
719.00	52057.32
719.19	52057.32
719.38	51975.40
719.57	51688.68
719.76	51643.63
719.94	51717.35
720.13	51635.44
720.32	51504.37
720.51	51533.04
720.69	51508.46
720.88	51598.57
721.07	51459.31
721.26	51143.92
721.44	51436.78
721.63	51328.24
721.82	50883.83
722.01	51301.62
722.20	51229.94
722.38	51000.57
722.57	50904.31
722.76	51084.53
722.95	50844.92
723.13	50605.31
723.32	50873.59
723.51	50648.32
723.70	50658.56
723.88	50797.82
724.07	50547.96
724.26	50840.82
724.44	49779.98
724.63	50410.75
724.82	50488.57
725.01	50631.93
725.19	50429.18
725.38	50400.51
725.57	49915.14
725.76	50670.84
725.94	50146.56
726.13	50158.85
726.32	50248.96
726.51	50060.55
726.69	50361.60
726.88	50470.14
727.07	50312.45
727.25	49892.61
727.44	50525.44
727.63	50029.83
727.82	50183.43
728.00	50173.19
728.19	49964.29
728.38	50353.41
728.56	49773.83
728.75	49976.58
728.94	50326.78
729.12	50435.33
729.31	50007.30
729.50	50158.85
729.69	50089.22
729.87	50113.80
730.06	49882.37
730.25	49990.92
730.43	50152.71
730.62	49714.44
730.81	50285.82
730.99	50042.12
731.18	49689.87
731.37	49845.51
731.55	50052.36
731.74	50013.44
731.93	50132.23
732.11	49966.34
732.30	50279.68
732.49	50298.11
732.67	49898.76
732.86	50294.02
733.05	50078.98
733.23	49825.03
733.42	50058.50
733.61	50062.60
733.79	50117.89
733.98	50099.46
734.17	50271.49
734.35	49779.98
734.54	49888.52
734.73	50324.74
734.91	49816.84
735.10	49386.77
735.29	50107.65
735.47	49376.53
735.66	49911.05
735.84	49372.43
736.03	49659.15
736.22	49986.82
736.40	49374.48
736.59	49798.41
736.78	49360.14
736.96	49679.63
737.15	49509.64
737.33	49329.42
737.52	49065.24
737.71	48975.12
737.89	49003.80
738.08	49325.33
738.27	49204.50
738.45	49413.39
738.64	49933.57
738.82	49317.14
739.01	49091.86
739.20	49061.14
739.38	49175.83
739.57	49331.47
739.75	49399.05
739.94	49032.47
740.13	48829.72
740.31	48764.18
740.50	49650.95
740.68	49446.16
740.87	49077.52
741.06	49124.63
741.24	48979.22
741.43	48907.54
741.61	48729.37
741.80	48434.46
741.99	48723.22
742.17	48549.15
742.36	48669.98
742.54	48346.40
742.73	48665.88
742.91	49030.42
743.10	48471.32
743.29	48796.95
743.47	48700.70
743.66	48790.81
743.84	48579.87
744.03	48870.68
744.21	48612.63
744.40	48450.84
744.59	48803.10
744.77	48618.78
744.96	48227.62
745.14	48817.43
745.33	48112.93
745.51	48393.50
745.70	48616.73
745.88	48270.62
746.07	48145.70
746.26	48147.75
746.44	48176.42
746.63	48043.30
746.81	48088.35
747.00	47807.78
747.18	48194.85
747.37	47666.47
747.55	47727.91
747.74	48223.52
747.92	47228.21
748.11	47977.76
748.29	47412.52
748.48	47607.08
748.66	47830.31
748.85	47359.28
749.03	47635.75
749.22	47602.99
749.41	47367.47
749.59	47754.54
749.78	47265.07
749.96	47320.37
750.15	47660.33
750.33	47013.17
750.52	47228.21
750.70	47533.35
750.89	47232.30
751.07	46855.48
751.26	46814.52
751.44	47363.37
751.63	47238.45
751.81	46945.59
752.00	46867.76
752.18	47166.77
752.37	46931.25
752.55	46499.13
752.74	46638.39
752.92	47103.28
753.10	46540.09
753.29	46855.48
753.47	46458.17
753.66	46128.45
753.84	46445.88
754.03	46769.46
754.21	46310.72
754.40	46662.97
754.58	46519.61
754.77	46146.88
754.95	45884.74
755.14	46574.91
755.32	46378.30
755.51	46175.55
755.69	45821.25
755.88	46038.34
756.06	46257.47
756.24	45876.55
756.43	45595.98
756.61	45643.08
756.80	45960.51
756.98	45561.16
757.17	45552.97
757.35	45987.14
757.54	45929.80
757.72	45673.80
757.90	45589.83
758.09	45407.56
758.27	45473.10
758.46	45411.66
758.64	45593.93
758.83	45751.62
759.01	45669.70
759.19	45587.78
759.38	45679.94
759.56	45487.43
759.75	45399.37
759.93	45643.08
760.12	45395.28
760.30	45000.02
760.48	45067.60
760.67	45151.57
760.85	45143.38
761.04	45460.81
761.22	45010.26
761.40	45159.76
761.59	44885.33
761.77	44408.15
761.96	44864.85
762.14	44961.11
762.32	44610.90
762.51	44660.05
762.69	44379.48
762.88	44512.60
763.06	44504.41
763.24	44629.34
763.43	44195.17
763.61	44334.43
763.80	44518.74
763.98	43937.12
764.16	44508.50
764.35	44131.68
764.53	43767.14
764.72	44100.96
764.90	43640.17
765.08	43775.33
765.27	44207.45
765.45	43664.74
765.63	43781.48
765.82	43980.13
766.00	43853.15
766.18	44127.58
766.37	43771.24
766.55	43529.58
766.74	43513.19
766.92	43255.15
767.10	43791.72
767.29	43195.76
767.47	43109.74
767.65	43318.64
767.84	42900.85
768.02	43545.96
768.20	42902.90
768.39	43326.83
768.57	43353.45
768.75	43117.93
768.94	43257.20
769.12	43177.33
769.30	42990.96
769.49	42825.07
769.67	42747.25
769.85	42415.48
770.04	42622.33
770.22	42671.48
770.40	42478.97
770.59	42327.42
770.77	42644.85
770.95	42526.07
771.14	42141.05
771.32	41864.58
771.50	41831.81
771.69	41575.81
771.87	42278.27
772.05	42020.22
772.24	41770.37
772.42	41989.50
772.60	42034.56
772.78	41590.15
772.97	41772.42
773.15	41688.45
773.33	41354.63
773.52	41575.81
773.70	41610.63
773.88	41981.31
774.07	41704.84
774.25	41756.03
774.43	41741.70
774.61	41416.07
774.80	41665.92
774.98	41543.05
775.16	41776.51
775.34	41538.95
775.53	41571.72
775.71	41729.41
775.89	41579.91
776.08	41485.70
776.26	41809.28
776.44	41733.51
776.62	41579.91
776.81	41420.17
776.99	41780.61
777.17	41614.72
777.35	41979.26
777.54	42098.05
777.72	41395.59
777.90	41837.95
778.08	41794.95
778.27	42016.13
778.45	41727.36
778.63	42229.12
778.81	41645.44
779.00	42308.99
779.18	41465.22
779.36	41973.12
779.54	41807.23
779.73	41989.50
779.91	42020.22
780.09	41979.26
780.27	41909.63
780.46	42083.71
780.64	42444.15
780.82	41790.85
781.00	42220.92
781.19	42067.33
781.37	42466.68
781.55	42462.58
781.73	42409.34
781.91	42268.03
782.10	42016.13
782.28	42239.36
782.46	42296.70
782.64	42233.21
782.82	42022.27
783.01	42470.78
783.19	42325.37
783.37	42403.19
783.55	42112.38
783.74	42554.74
783.92	41850.24
784.10	42499.45
784.28	42220.92
784.46	42507.64
784.64	42182.01
784.83	42020.22
785.01	42468.73
785.19	42208.64
785.37	42618.23
785.55	42681.72
785.74	41852.29
785.92	41850.24
786.10	41985.41
786.28	41936.26
786.46	41809.28
786.64	41694.60
786.83	41723.27
787.01	41837.95
787.19	41631.11
787.37	41850.24
787.55	41889.15
787.74	41395.59
787.92	41512.33
788.10	41786.75
788.28	41213.32
788.46	41917.82
788.64	41379.21
788.82	41987.46
789.01	41571.72
789.19	42096.00
789.37	41418.12
789.55	40953.23
789.73	40922.51
789.91	40942.99
790.09	41063.82
790.28	40955.28
790.46	40656.28
790.64	41031.05
790.82	40803.73
791.00	40625.56
791.18	40531.35
791.36	40318.36
791.55	40701.33
791.73	40494.49
791.91	39802.27
792.09	40084.89
792.27	40125.85
792.45	39941.53
792.63	40297.88
792.81	39794.08
793.00	39701.92
793.18	39646.63
793.36	39753.12
793.54	39663.01
793.72	39574.95
793.90	39421.35
794.08	39409.06
794.26	39384.49
794.44	39396.77
794.62	38962.61
794.81	39284.14
794.99	38796.72
795.17	39056.81
795.35	38837.68
795.53	38835.63
795.71	38659.51
795.89	38528.44
796.07	38153.66
796.25	37893.57
796.43	37998.01
796.61	37971.39
796.80	37963.20
796.98	38024.64
797.16	37758.40
797.34	37907.90
797.52	38075.84
797.70	37799.36
797.88	37778.88
798.06	37660.10
798.24	37737.92
798.42	37533.12
798.60	37352.90
798.78	37504.45
798.96	37277.13
799.14	37270.98
799.32	37295.56
799.51	36525.52
799.69	36939.21
799.87	37293.51
800.05	36261.33
800.23	36666.83
800.41	36457.94
800.59	36580.82
800.77	36793.81
800.95	36138.46
801.13	36371.92
801.31	36113.88
801.49	36210.14
801.67	36046.30
801.85	36163.03
802.03	35685.86
802.21	35718.62
802.39	35538.40
802.57	35476.96
802.75	35212.77
802.93	35122.66
803.11	35304.93
803.29	35239.40
803.47	34747.89
803.65	34907.63
803.83	35083.75
804.01	35079.66
804.19	34670.06
804.37	34522.61
804.55	34596.34
804.73	34555.38
804.91	34794.99
805.09	34504.18
805.27	34528.75
805.45	34381.30
805.63	34559.47
805.81	34489.84
805.99	34215.41
806.17	34350.58
806.35	34149.88
806.53	33728.00
806.71	33832.44
806.89	34008.57
807.07	33904.12
807.25	33965.56
807.43	33893.88
807.61	33811.96
807.79	33453.57
807.97	33048.07
808.15	33541.63
808.33	33101.32
808.51	33504.77
808.69	33199.62
808.87	33273.35
809.05	32980.49
809.23	32677.39
809.41	32714.25
809.59	32503.31
809.77	33064.46
809.95	32734.73
810.13	32751.12
810.31	32394.77
810.49	33125.89
810.67	32077.33
810.84	32413.20
811.02	32368.15
811.20	31933.98
811.38	32224.79
811.56	31956.50
811.74	31954.46
811.92	32108.05
812.10	31983.13
812.28	32230.93
812.46	31602.21
812.64	31720.99
812.82	31663.64
813.00	31784.48
813.18	31591.97
813.36	31245.86
813.53	31262.24
813.71	31462.94
813.89	30873.13
814.07	31387.17
814.25	31295.01
814.43	31219.24
814.61	31309.35
814.79	30989.86
814.97	30979.62
815.15	30942.76
815.33	30907.94
815.50	30637.61
815.68	30688.81
815.86	30492.21
816.04	30318.13
816.22	30471.73
816.40	30625.32
816.58	30586.41
816.76	30320.18
816.94	30099.00
817.11	30217.78
817.29	30250.55
817.47	30383.66
817.65	29990.45
817.83	30185.01
818.01	30125.62
818.19	30066.23
818.37	30006.84
818.54	29789.75
818.72	29568.57
818.90	29593.15
819.08	29486.65
819.26	29500.99
819.44	29554.24
819.62	29386.30
819.80	29668.92
819.97	29466.17
820.15	29204.03
820.33	29046.34
820.51	29175.36
820.69	29165.12
820.87	29521.47
821.05	29044.29
821.22	29269.57
821.40	29267.52
821.58	28745.29
821.76	28974.66
821.94	28993.09
822.12	28886.60
822.29	28827.21
822.47	29013.57
822.65	28710.47
822.83	28870.22
823.01	28968.52
823.19	28538.44
823.36	28358.22
823.54	28520.01
823.72	28552.78
823.90	28372.56
824.08	28364.37
824.25	28528.20
824.43	28075.60
824.61	28018.26
824.79	28298.83
824.97	27907.67
825.15	28245.58
825.32	28100.18
825.50	27719.26
825.68	27995.73
825.86	28581.45
826.04	28128.85
826.21	27899.48
826.39	27647.58
826.57	27723.35
826.75	27653.72
826.93	27596.38
827.10	27436.64
827.28	27561.56
827.46	27655.77
827.64	27737.69
827.81	27811.42
827.99	27573.85
828.17	27293.28
828.35	27221.60
828.53	27373.15
828.70	27186.79
828.88	26971.75
829.06	27332.19
829.24	27430.49
829.41	27139.68
829.59	27291.23
829.77	27111.01
829.95	27237.98
830.12	26701.42
830.30	26932.84
830.48	27166.31
830.66	26918.50
830.84	26906.21
831.01	26756.71
831.19	26977.89
831.37	27004.52
831.55	26713.70
831.72	26678.89
831.90	26816.10
832.08	26750.57
832.25	26902.12
832.43	26263.15
832.61	26646.12
832.79	26576.49
832.96	26465.90
833.14	26529.39
833.32	26728.04
833.50	26484.33
833.67	26144.37
833.85	26369.65
834.03	25841.27
834.20	26459.76
834.38	26383.98
834.56	26097.27
834.74	25888.37
834.91	25833.08
835.09	25849.46
835.27	25943.67
835.44	25878.13
835.62	25376.38
835.80	25597.56
835.98	26064.50
836.15	25564.79
836.33	25642.62
836.51	25976.44
836.68	25955.96
836.86	25865.85
837.04	25765.49
837.21	25523.83
837.39	25552.51
837.57	25704.06
837.75	25761.40
837.92	25482.88
838.10	25480.83
838.28	25292.41
838.45	25276.03
838.63	25167.49
838.81	25228.93
838.98	25173.63
839.16	25054.85
839.34	25214.59
839.51	24884.87
839.69	24688.26
839.87	25171.58
840.04	24999.55
840.22	24948.36
840.40	24948.36
840.57	24669.83
840.75	24981.12
840.93	24786.57
841.10	25067.14
841.28	25294.46
841.46	24934.02
841.63	24878.72
841.81	24581.77
841.98	24579.72
842.16	24841.86
842.34	24583.82
842.51	24505.99
842.69	24794.76
842.87	24559.24
843.04	24675.98
843.22	24215.18
843.40	24307.34
843.57	24370.83
843.75	24559.24
843.92	24338.06
844.10	24354.44
844.28	24262.29
844.45	24456.84
844.63	24278.67
844.81	23971.47
844.98	24356.49
845.16	24315.53
845.33	24383.12
845.51	24368.78
845.69	24215.18
845.86	24170.13
846.04	23926.42
846.21	24018.58
846.39	23998.10
846.57	24020.63
846.74	24055.44
846.92	23715.48
847.09	23932.56
847.27	23656.09
847.45	23707.29
847.62	23918.23
847.80	24030.87
847.97	23817.88
848.15	24004.24
848.32	23516.83
848.50	23525.02
848.68	23269.02
848.85	23580.31
849.03	23211.68
849.20	23568.02
849.38	23426.71
849.56	23555.74
849.73	23340.70
849.91	23504.54
850.08	23854.74
850.26	23185.05
850.43	23197.34
850.61	23385.76
850.78	23076.51
850.96	23273.12
851.14	23013.02
851.31	23158.43
851.49	23013.02
851.66	23035.55
851.84	23129.76
852.01	23273.12
852.19	23109.28
852.36	22871.72
852.54	23064.22
852.71	22711.97
852.89	22662.82
853.07	23180.96
853.24	23037.60
853.42	22705.83
853.59	23041.70
853.77	23117.47
853.94	22900.39
854.12	22918.82
854.29	22478.50
854.47	22759.08
854.64	22763.17
854.82	22687.40
854.99	22699.69
855.17	22306.48
855.34	22458.03
855.52	22472.36
855.69	22662.82
855.87	22390.44
856.04	22359.72
856.22	22320.81
856.39	22449.83
856.57	22298.28
856.74	22259.37
856.92	22378.15
857.09	22654.63
857.27	22320.81
857.44	22316.72
857.62	22470.31
857.79	22146.73
857.97	22165.17
858.14	22075.06
858.32	22005.42
858.49	21833.39
858.67	21876.40
858.84	22015.66
859.02	22034.10
859.19	22001.33
859.37	21976.75
859.54	21974.70
859.72	21827.25
859.89	22054.58
860.06	22187.69
860.24	21610.17
860.41	21812.92
860.59	21767.86
860.76	21659.32
860.94	21352.12
861.11	21687.99
861.29	21753.52
861.46	21520.06
861.64	21456.57
861.81	21606.07
861.98	21651.13
862.16	21315.26
862.33	21094.08
862.51	21272.25
862.68	21495.48
862.86	21268.16
863.03	21372.60
863.21	21251.77
863.38	21470.90
863.55	21169.85
863.73	21184.19
863.90	21176.00
864.08	21315.26
864.25	21425.85
864.43	21257.92
864.60	20944.58
864.77	20854.47
864.95	20952.77
865.12	20971.20
865.30	20698.82
865.47	20934.34
865.64	21030.59
865.82	21044.93
865.99	21165.76
866.17	20860.61
866.34	20762.31
866.51	20631.24
866.69	20684.48
866.86	20963.01
867.04	20688.58
867.21	20707.01
867.38	20442.82
867.56	20471.50
867.73	20475.59
867.91	20518.60
868.08	20530.89
868.25	20764.36
868.43	20700.87
868.60	20412.10
868.78	20360.91
868.95	20408.01
869.12	20385.48
869.30	20494.02
869.47	20240.08
869.64	20174.54
869.82	19842.77
869.99	20283.08
870.16	20451.02
870.34	20154.06
870.51	20328.14
870.69	20332.23
870.86	20027.09
871.03	19916.50
871.21	19865.30
871.38	20031.18
871.55	19926.74
871.73	19963.60
871.90	19705.56
872.07	19564.25
872.25	19707.60
872.42	19484.37
872.59	19687.12
872.77	19672.79
872.94	19734.23
873.11	19601.11
873.29	19896.02
873.46	19392.22
873.63	19537.62
873.81	19453.66
873.98	19152.60
874.15	19259.10
874.33	19042.01
874.50	19050.21
874.67	19007.20
874.85	19138.27
875.02	18976.48
875.19	19171.04
875.37	18867.94
875.54	18996.96
875.71	19220.19
875.88	18872.03
876.06	18888.42
876.23	18718.43
876.40	18558.69
876.58	18667.24
876.75	18665.19
876.92	18771.68
877.10	18753.25
877.27	18798.31
877.44	18349.80
877.61	18417.38
877.79	18519.78
877.96	18401.00
878.13	18568.93
878.31	18505.45
878.48	18523.88
878.65	18331.37
878.82	18228.97
879.00	18538.21
879.17	18130.67
879.34	18489.06
879.51	18026.22
879.69	17932.01
879.86	18169.58
880.03	17798.90
880.21	17862.38
880.38	18124.52
880.55	17907.44
880.72	17927.92
880.90	18040.56
881.07	18007.79
881.24	18050.80
881.41	18011.89
881.59	17616.63
881.76	17719.03
881.93	17737.46
882.10	17673.97
882.28	17610.48
882.45	17927.92
882.62	17827.57
882.79	17798.90
882.96	17323.77
883.14	17547.00
883.31	17551.09
883.48	17481.46
883.65	17614.58
883.83	17291.00
884.00	17526.52
884.17	17573.62
884.34	17487.61
884.51	17381.11
884.69	17305.34
884.86	17403.64
885.03	17241.85
885.20	16969.47
885.38	17407.73
885.55	17217.27
885.72	17118.97
885.89	17202.94
886.06	17352.44
886.24	17383.16
886.41	17055.48
886.58	17108.73
886.75	17168.12
886.92	17065.72
887.10	17207.03
887.27	16965.37
887.44	16938.75
887.61	17139.45
887.78	17215.23
887.95	17155.83
888.13	16830.21
888.30	16856.83
888.47	16885.50
888.64	16897.79
888.81	16985.85
888.99	16733.95
889.16	16789.25
889.33	16635.65
889.50	16697.09
889.67	16846.59
889.84	16592.64
890.01	16529.16
890.19	16664.32
890.36	16719.62
890.53	16723.71
890.70	16469.76
890.87	16477.96
891.04	16514.82
891.22	16332.55
891.39	16578.31
891.56	16135.95
891.73	16170.76
891.90	16393.99
892.07	16137.99
892.24	16232.20
892.42	16195.34
892.59	16371.46
892.76	16045.84
892.93	16049.93
893.10	16242.44
893.27	16086.79
893.44	16170.76
893.61	15841.04
893.79	16264.97
893.96	16142.09
894.13	16150.28
894.30	16125.71
894.47	16185.10
894.64	16035.60
894.81	16049.93
894.98	16162.57
895.15	16297.74
895.33	15916.81
895.50	16133.90
895.67	16232.20
895.84	15949.58
896.01	16174.86
896.18	15865.61
896.35	16164.62
896.52	15847.18
896.69	15908.62
896.86	16037.64
897.04	16094.99
897.21	16068.36
897.38	15945.48
897.55	15748.88
897.72	16072.46
897.89	15847.18
898.06	15798.03
898.23	16103.18
898.40	15849.23
898.57	15861.52
898.74	15939.34
898.91	15996.68
899.08	15744.78
899.26	15906.57
899.43	15705.87
899.60	15703.82
899.77	15763.22
899.94	15787.79
900.11	15652.63
900.28	15933.20
900.45	15746.83
900.62	15773.46
900.79	16123.66
900.96	15748.88
901.13	16027.40
901.30	15370.01
901.47	16029.45
901.64	15697.68
901.81	16002.83
901.98	15761.17
902.15	15908.62
902.32	15605.52
902.49	15882.00
902.66	15660.82
902.83	15638.29
903.01	15781.65
903.18	15892.24
903.35	15871.76
903.52	15965.96
903.69	16084.75
903.86	15613.71
904.03	15849.23
904.20	15818.51
904.37	15816.46
904.54	15730.45
904.71	15576.85
904.88	15626.00
905.05	15808.27
905.22	15789.84
905.39	15726.35
905.56	15619.86
905.73	15699.73
905.90	15683.34
906.07	15566.61
906.24	15619.86
906.41	15580.95
906.58	15556.37
906.75	15841.04
906.92	15677.20
907.09	15712.02
907.26	15728.40
907.43	15482.64
907.60	15740.69
907.77	15882.00
907.93	15601.43
908.10	15589.14
908.27	15775.50
908.44	15501.08
908.61	15566.61
908.78	15435.54
908.95	15621.91
909.12	15572.75
909.29	15453.97
909.46	15603.47
909.63	15826.70
909.80	15683.34
909.97	15664.91
910.14	15451.92
910.31	15546.13
910.48	15638.29
910.65	15539.99
910.82	15263.51
910.99	15505.17
911.16	15521.56
911.33	15681.30
911.50	15310.61
911.66	15347.48
911.83	15314.71
912.00	15331.09
912.17	15015.71
912.34	15257.37
912.51	15191.83
912.68	15040.28
912.85	15415.06
913.02	15021.85
913.19	15167.26
913.36	15263.51
913.53	15054.62
913.70	15079.19
913.86	15390.49
914.03	15101.72
914.20	14941.98
914.37	15011.61
914.54	14884.64
914.71	15003.42
914.88	15058.71
915.05	14870.30
915.22	14819.10
915.39	14622.50
915.55	14800.67
915.72	14616.35
915.89	14610.21
916.06	14731.04
916.23	14575.39
916.40	14479.14
916.57	14487.33
916.74	14468.90
916.91	14604.07
917.07	14479.14
917.24	14149.42
917.41	14425.89
917.58	14200.62
917.75	14120.74
917.92	14135.08
918.09	14032.68
918.26	14243.62
918.42	14155.56
918.59	14057.26
918.76	14090.02
918.93	13854.51
919.10	13885.23
919.27	13977.39
919.44	14075.69
919.60	13721.39
919.77	13637.42
919.94	13864.75
920.11	13825.84
920.28	13803.31
920.45	13709.10
920.61	13530.93
920.78	13463.35
920.95	13430.58
921.12	13467.44
921.29	13481.78
921.46	13559.60
921.62	13309.75
921.79	13172.54
921.96	13211.45
922.13	13176.63
922.30	13209.40
922.47	13281.08
922.63	12924.73
922.80	13129.53
922.97	13023.03
923.14	12693.31
923.31	12994.36
923.47	12994.36
923.64	12955.45
923.81	12709.69
923.98	12685.12
924.15	12611.39
924.32	12660.54
924.48	12742.46
924.65	12533.57
924.82	12488.51
924.99	12300.10
925.15	12373.83
925.32	12257.09
925.49	12171.08
925.66	12091.21
925.83	12187.46
925.99	12158.79
926.16	12234.57
926.33	12279.62
926.50	11738.96
926.67	12009.29
926.83	12029.77
927.00	11835.21
927.17	11925.32
927.34	11597.65
927.50	11757.39
927.67	12070.73
927.84	11751.24
928.01	11552.59
928.17	11448.15
928.34	11585.36
928.51	11427.67
928.68	11341.65
928.84	11456.34
929.01	11288.40
929.18	10948.44
929.35	11040.60
929.51	11259.73
929.68	10887.00
929.85	11210.58
930.02	11048.79
930.18	11128.66
930.35	10772.32
930.52	10915.67
930.69	10887.00
930.85	10903.39
931.02	10714.97
931.19	10749.79
931.36	10637.15
931.52	10708.83
931.69	10678.11
931.86	10319.71
932.02	10581.85
932.19	10395.49
932.36	10495.84
932.53	10340.19
932.69	10254.18
932.86	10440.54
933.03	10321.76
933.19	10096.49
933.36	10182.50
933.53	10309.47
933.70	9928.55
933.86	9977.70
934.03	9908.07
934.20	9723.76
934.36	9815.91
934.53	9596.78
934.70	9535.34
934.86	9598.83
935.03	9400.18
935.20	9404.27
935.36	9260.91
935.53	9242.48
935.70	9260.91
935.86	9037.69
936.03	9133.94
936.20	8626.04
936.36	8800.12
936.53	8748.92
936.70	8839.03
936.86	8781.69
937.03	8677.24
937.20	8431.49
937.36	8607.61
937.53	8437.63
937.70	8306.56
937.86	8206.21
938.03	8187.78
938.20	8261.51
938.36	7985.03
938.53	7982.98
938.70	7741.32
938.86	7833.48
939.03	7606.16
939.20	7520.14
939.36	7554.96
939.53	7585.68
939.70	7647.12
939.86	7200.66
940.03	7104.40
940.19	7032.72
940.36	7116.69
940.53	7085.97
940.69	6893.46
940.86	6811.54
941.03	6815.64
941.19	6530.97
941.36	6668.19
941.52	6588.32
941.69	6700.95
941.86	6533.02
942.02	6375.33
942.19	6426.53
942.35	6389.66
942.52	6250.40
942.69	6324.13
942.85	6080.42
943.02	6137.76
943.18	6145.95
943.35	6016.93
943.52	6012.84
943.68	5859.24
943.85	5918.63
944.01	5879.72
944.18	5853.09
944.35	5818.28
944.51	5765.03
944.68	5619.63
944.84	5638.06
945.01	5564.33
945.17	5762.98
945.34	5621.67
945.51	5670.83
945.67	5619.63
945.84	5574.57
946.00	5541.80
946.17	5470.12
946.33	5488.56
946.50	5472.17
946.67	5597.10
946.83	5451.69
947.00	5494.70
947.16	5527.47
947.33	5414.83
947.49	5410.73
947.66	5416.88
947.82	5498.80
947.99	5414.83
948.16	5523.37
948.32	5455.79
948.49	5447.60
948.65	5537.71
948.82	5461.93
948.98	5312.43
949.15	5328.81
949.31	5416.88
949.48	5437.36
949.64	5345.20
949.81	5427.12
949.97	5420.97
950.14	5435.31
950.30	5359.53
950.47	5566.38
950.63	5558.19
950.80	5406.64
950.96	5480.36
951.13	5429.17
951.30	5406.64
951.46	5603.24
951.63	5486.51
951.79	5506.99
951.96	5574.57
952.12	5492.65
952.29	5509.04
952.45	5457.84
952.62	5482.41
952.78	5482.41
952.94	5457.84
953.11	5566.38
953.27	5470.12
953.44	5633.96
953.60	5502.89
953.77	5631.91
953.93	5588.91
954.10	5506.99
954.26	5558.19
954.43	5398.45
954.59	5685.16
954.76	5709.74
954.92	5597.10
955.09	5420.97
955.25	5566.38
955.42	5578.67
955.58	5619.63
955.75	5605.29
955.91	5646.25
956.07	5586.86
956.24	5656.49
956.40	5554.09
956.57	5754.79
956.73	5547.95
956.90	5605.29
957.06	5466.03
957.23	5666.73
957.39	5664.68
957.56	5558.19
957.72	5584.81
957.88	5658.54
958.05	5715.88
958.21	5648.30
958.38	5736.36
958.54	5660.59
958.71	5762.98
958.87	5650.35
959.03	5502.89
959.20	5574.57
959.36	5463.98
959.53	5463.98
959.69	5359.53
959.85	5576.62
960.02	5437.36
960.18	5547.95
960.35	5461.93
960.51	5605.29
960.68	5562.28
960.84	5615.53
961.00	5529.52
961.17	5476.27
961.33	5595.05
961.50	5552.04
961.66	5523.37
961.82	5580.71
961.99	5550.00
962.15	5429.17
962.31	5676.97
962.48	5547.95
962.64	5627.82
962.81	5623.72
962.97	5629.87
963.13	5623.72
963.30	5541.80
963.46	5468.08
963.62	5588.91
963.79	5580.71
963.95	5486.51
964.12	5484.46
964.28	5566.38
964.44	5506.99
964.61	5562.28
964.77	5457.84
964.93	5566.38
965.10	5363.63
965.26	5453.74
965.42	5392.30
965.59	5359.53
965.75	5384.11
965.92	5410.73
966.08	5470.12
966.24	5490.60
966.41	5312.43
966.57	5470.12
966.73	5443.50
966.90	5527.47
967.06	5451.69
967.22	5318.57
967.39	5355.44
967.55	5281.71
967.71	5414.83
967.88	5279.66
968.04	5285.81
968.20	5406.64
968.37	5257.14
968.53	5291.95
968.69	5388.21
968.85	5298.10
969.02	5363.63
969.18	5275.57
969.34	5234.61
969.51	5142.45
969.67	5291.95
969.83	5216.18
970.00	5302.19
970.16	5195.70
970.32	5349.29
970.48	5324.72
970.65	5113.78
970.81	5078.96
970.97	5111.73
971.14	4951.99
971.30	5185.46
971.46	5087.15
971.63	5033.91
971.79	5189.55
971.95	5099.44
972.11	5009.33
972.28	5064.63
972.44	5070.77
972.60	4988.85
972.76	5074.87
972.93	4886.45
973.09	4968.37
973.25	5062.58
973.42	4999.09
973.58	4992.95
973.74	4923.32
973.90	5009.33
974.07	4904.89
974.23	4974.52
974.39	4927.41
974.55	4900.79
974.72	4868.02
974.88	4904.89
975.04	4816.82
975.20	4902.84
975.37	4921.27
975.53	4806.58
975.69	4990.90
975.85	4878.26
976.01	4880.31
976.18	4708.28
976.34	4763.58
976.50	4902.84
976.66	4757.43
976.83	4788.15
976.99	4855.73
977.15	4741.05
977.31	4507.58
977.47	4825.01
977.64	4714.42
977.80	4511.68
977.96	4814.77
978.12	4683.70
978.29	4587.45
978.45	4677.56
978.61	4536.25
978.77	4648.89
978.93	4579.26
979.10	4542.39
979.26	4661.18
979.42	4505.53
979.58	4532.15
979.74	4497.34
979.91	4575.16
980.07	4489.15
980.23	4476.86
980.39	4495.29
980.55	4542.39
980.71	4528.06
980.88	4474.81
981.04	4435.90
981.20	4454.33
981.36	4466.62
981.52	4415.42
981.68	4306.88
981.85	4579.26
982.01	4427.71
982.17	4343.74
982.33	4401.08
982.49	4501.44
982.65	4267.97
982.82	4405.18
982.98	4341.69
983.14	4315.07
983.30	4267.97
983.46	4435.90
983.62	4294.59
983.79	4212.67
983.95	4204.48
984.11	4100.03
984.27	4214.72
984.43	4253.63
984.59	4251.58
984.75	4392.89
984.91	4171.71
985.08	4351.93
985.24	4149.18
985.40	4097.99
985.56	4263.87
985.72	4270.01
985.88	4229.06
986.04	4038.59
986.20	4009.92
986.37	4124.61
986.53	4181.95
986.69	4093.89
986.85	4087.75
987.01	4001.73
987.17	4304.83
987.33	3962.82
987.49	4024.26
987.65	4075.46
987.82	4149.18
987.98	3915.72
988.14	4026.31
988.30	4016.07
988.46	3971.01
988.62	3985.35
988.78	3829.70
988.94	3983.30
989.10	3837.89
989.26	3762.12
989.42	3878.85
989.59	3778.50
989.75	3776.45
989.91	3907.52
990.07	3686.34
990.23	3813.32
990.39	3913.67
990.55	3866.56
990.71	3844.04
990.87	3833.80
991.03	3889.09
991.19	3721.16
991.35	3624.90
991.51	3760.07
991.67	3852.23
991.83	3817.41
992.00	3831.75
992.16	3856.33
992.32	3811.27
992.48	3780.55
992.64	3715.02
992.80	3831.75
992.96	3731.40
993.12	3680.20
993.28	3727.30
993.44	3733.45
993.60	3637.19
993.76	3598.28
993.92	3620.81
994.08	3747.78
994.24	3651.53
994.40	3604.42
994.56	3618.76
994.72	3633.10
994.88	3508.17
995.04	3518.41
995.20	3639.24
995.36	3604.42
995.52	3547.08
995.68	3602.38
995.84	3340.24
996.00	3616.71
996.16	3452.88
996.32	3432.40
996.48	3368.91
996.64	3594.19
996.80	3481.55
996.96	3549.13
997.12	3356.62
997.28	3379.15
997.44	3432.40
997.60	3452.88
997.76	3387.34
997.92	3502.03
998.08	3346.38
998.24	3348.43
998.40	3295.18
998.56	3432.40
998.72	3286.99
998.88	3381.20
999.04	3286.99
999.20	3389.39
999.36	3366.86
999.52	3368.91
999.68	3254.22
999.84	3362.76
1000.00	3301.33
1000.16	3403.72
1000.32	3262.41
1000.48	3370.96
1000.64	3213.26
1000.80	3145.68
1000.95	3127.25
1001.11	3256.27
1001.27	3125.20
1001.43	3231.69
1001.59	3213.26
1001.75	3194.83
1001.91	3190.74
1002.07	3205.07
1002.23	3176.40
1002.39	3133.39
1002.55	3168.21
1002.71	3074.00
1002.87	3143.63
1003.03	3260.37
1003.19	3043.28
1003.34	3125.20
1003.50	3047.38
1003.66	3176.40
1003.82	3108.82
1003.98	3090.38
1004.14	3037.14
1004.30	3006.42
1004.46	2951.12
1004.62	2992.08
1004.78	2932.69
1004.94	2969.55
1005.09	3039.19
1005.25	3094.48
1005.41	3037.14
1005.57	2920.40
1005.73	3078.10
1005.89	2975.70
1006.05	3004.37
1006.21	3051.47
1006.37	2969.55
1006.52	2924.50
1006.68	2955.22
1006.84	3008.47
1007.00	2967.51
1007.16	2934.74
1007.32	2863.06
1007.48	2977.75
1007.64	2965.46
1007.79	2985.94
1007.95	2828.24
1008.11	2971.60
1008.27	2826.20
1008.43	2830.29
1008.59	2844.63
1008.75	2928.60
1008.91	2895.83
1009.06	2762.71
1009.22	2869.20
1009.38	2758.61
1009.54	2734.04
1009.70	2785.24
1009.86	2809.81
1010.01	2721.75
1010.17	2654.17
1010.33	2742.23
1010.49	2772.95
1010.65	2877.40
1010.81	2666.46
1010.96	2731.99
1011.12	2629.59
1011.28	2629.59
1011.44	2719.70
1011.60	2707.41
1011.76	2695.13
1011.91	2775.00
1012.07	2680.79
1012.23	2645.98
1012.39	2631.64
1012.55	2629.59
1012.71	2592.73
1012.86	2660.31
1013.02	2668.50
1013.18	2590.68
1013.34	2553.82
1013.50	2666.46
1013.65	2594.78
1013.81	2615.26
1013.97	2519.00
1014.13	2660.31
1014.29	2678.74
1014.44	2648.02
1014.60	2592.73
1014.76	2584.54
1014.92	2564.06
1015.07	2557.91
1015.23	2613.21
1015.39	2504.67
1015.55	2598.87
1015.71	2543.58
1015.86	2529.24
1016.02	2504.67
1016.18	2500.57
1016.34	2512.86
1016.49	2678.74
1016.65	2547.67
1016.81	2475.99
1016.97	2504.67
1017.12	2543.58
1017.28	2498.52
1017.44	2510.81
1017.60	2502.62
1017.75	2418.65
1017.91	2602.97
1018.07	2412.51
1018.23	2416.60
1018.38	2367.45
1018.54	2306.01
1018.70	2437.08
1018.86	2430.94
1019.01	2365.40
1019.17	2389.98
1019.33	2598.87
1019.49	2424.80
1019.64	2445.27
1019.80	2363.36
1019.96	2443.23
1020.12	2293.72
1020.27	2306.01
1020.43	2508.76
1020.59	2475.99
1020.74	2359.26
1020.90	2412.51
1021.06	2289.63
1021.22	2355.16
1021.37	2326.49
1021.53	2383.84
1021.69	2396.12
1021.84	2269.15
1022.00	2234.33
1022.16	2279.39
1022.31	2367.45
1022.47	2310.11
1022.63	2359.26
1022.79	2209.76
1022.94	2234.33
1023.10	2453.47
1023.26	2265.05
1023.41	2295.77
1023.57	2222.05
1023.73	2289.63
1023.88	2232.29
1024.04	2250.72
1024.20	2281.44
1024.35	2279.39
1024.51	2293.72
1024.67	2291.68
1024.82	2340.83
1024.98	2109.41
1025.14	2133.98
1025.29	2254.81
1025.45	2174.94
1025.61	2156.51
1025.76	2220.00
1025.92	2172.89
1026.08	2297.82
1026.23	2220.00
1026.39	2277.34
1026.55	2250.72
1026.70	2131.94
1026.86	2248.67
1027.02	2232.29
1027.17	2222.05
1027.33	2162.66
1027.48	2195.42
1027.64	2166.75
1027.80	2082.78
1027.95	2176.99
1028.11	2052.06
1028.27	2185.18
1028.42	2140.13
1028.58	2164.70
1028.73	2179.04
1028.89	2101.22
1029.05	2142.18
1029.20	2099.17
>>>>>End Processed Spectral Data<<<<<
