SpectraSuite Data File
++++++++++++++++++++++++++++++++++++
Date: Fri Jun 02 14:52:23 CEST 2017
User: INFO_000
Dark Spectrum Present: No
Reference Spectrum Present: No
Number of Sampled Component Spectra: 1
Spectrometers: USB4H00879
Integration Time (usec): 80000 (USB4H00879)
Spectra Averaged: 1 (USB4H00879)
Boxcar Smoothing: 0 (USB4H00879)
Correct for Electrical Dark: No (USB4H00879)
Strobe/Lamp Enabled: No (USB4H00879)
Correct for Detector Non-linearity: No (USB4H00879)
Correct for Stray Light: No (USB4H00879)
Number of Pixels in Processed Spectrum: 3648
>>>>>Begin Processed Spectral Data<<<<<
345.13	1316.84
345.34	1316.84
345.56	1316.84
345.78	1245.16
345.99	1275.88
346.21	1640.42
346.42	1779.68
346.64	1593.32
346.86	1773.54
347.07	1669.09
347.29	1736.68
347.50	1650.66
347.72	1681.38
347.94	1712.10
348.15	1578.98
348.37	1658.85
348.59	1687.53
348.80	1710.05
349.02	1753.06
349.23	1863.65
349.45	1705.96
349.67	1824.74
349.88	1673.19
350.10	1882.08
350.31	1843.17
350.53	1781.73
350.75	1886.18
350.96	1675.24
351.18	1765.35
351.39	1806.31
351.61	1736.68
351.82	1810.40
352.04	1794.02
352.26	1748.97
352.47	1755.11
352.69	1773.54
352.90	1634.28
353.12	1748.97
353.34	1785.83
353.55	1802.21
353.77	1800.16
353.98	1738.73
354.20	1728.49
354.41	1900.52
354.63	1914.85
354.85	1945.57
355.06	1839.08
355.28	1685.48
355.49	1849.32
355.71	1783.78
355.92	1773.54
356.14	1851.36
356.35	1753.06
356.57	1798.12
356.79	1880.04
357.00	1693.67
357.22	1943.52
357.43	1794.02
357.65	1853.41
357.86	1755.11
358.08	1812.45
358.29	1892.32
358.51	1906.66
358.72	1863.65
358.94	1923.04
359.16	1820.64
359.37	1808.36
359.59	1935.33
359.80	1914.85
360.02	1855.46
360.23	1857.51
360.45	1877.99
360.66	1822.69
360.88	1748.97
361.09	1781.73
361.31	1880.04
361.52	1814.50
361.74	1853.41
361.95	1992.67
362.17	1822.69
362.38	1918.95
362.60	1918.95
362.81	1900.52
363.03	1847.27
363.24	1863.65
363.46	1976.29
363.67	1822.69
363.89	1882.08
364.10	1839.08
364.32	1808.36
364.53	1894.37
364.75	1796.07
364.96	1843.17
365.18	1941.47
365.39	1843.17
365.61	1765.35
365.82	2052.06
366.04	1935.33
366.25	1834.98
366.47	1920.99
366.68	1877.99
366.90	1851.36
367.11	2015.20
367.33	1984.48
367.54	1927.14
367.76	1867.75
367.97	1988.58
368.19	1968.10
368.40	1994.72
368.62	1927.14
368.83	1896.42
369.05	1877.99
369.26	1898.47
369.48	1902.56
369.69	1941.47
369.91	1892.32
370.12	1822.69
370.33	1953.76
370.55	1888.23
370.76	1935.33
370.98	1953.76
371.19	1984.48
371.41	1855.46
371.62	1920.99
371.84	1931.23
372.05	2011.11
372.27	1904.61
372.48	1988.58
372.69	2029.54
372.91	2117.60
373.12	1970.15
373.34	1910.75
373.55	2062.30
373.77	2009.06
373.98	1916.90
374.20	2127.84
374.41	2115.55
374.62	1978.34
374.84	2113.50
375.05	2066.40
375.27	2093.02
375.48	2105.31
375.70	2115.55
375.91	2125.79
376.12	2246.62
376.34	2111.46
376.55	2023.39
376.77	2095.07
376.98	2066.40
377.19	1974.24
377.41	2093.02
377.62	2158.56
377.84	2174.94
378.05	2265.05
378.27	2086.88
378.48	2271.20
378.69	2260.96
378.91	2267.10
379.12	2082.78
379.34	2101.22
379.55	2164.70
379.76	2131.94
379.98	2123.74
380.19	2234.33
380.41	2215.90
380.62	2211.81
380.83	2146.27
381.05	2109.41
381.26	2324.44
381.47	2183.13
381.69	2164.70
381.90	2379.74
382.12	2242.53
382.33	2162.66
382.54	2310.11
382.76	2230.24
382.97	2185.18
383.19	2076.64
383.40	2351.07
383.61	2211.81
383.83	2242.53
384.04	2220.00
384.25	2265.05
384.47	2308.06
384.68	2236.38
384.89	2205.66
385.11	2338.78
385.32	2379.74
385.54	2346.97
385.75	2297.82
385.96	2328.54
386.18	2424.80
386.39	2373.60
386.60	2314.20
386.82	2469.85
387.03	2363.36
387.24	2510.81
387.46	2435.03
387.67	2398.17
387.88	2553.82
388.10	2447.32
388.31	2498.52
388.52	2609.11
388.74	2531.29
388.95	2488.28
389.16	2467.80
389.38	2451.42
389.59	2519.00
389.80	2629.59
390.02	2549.72
390.23	2619.35
390.44	2574.30
390.66	2570.20
390.87	2535.39
391.08	2625.50
391.30	2672.60
391.51	2695.13
391.72	2607.06
391.94	2668.50
392.15	2584.54
392.36	2557.91
392.58	2535.39
392.79	2639.83
393.00	2760.66
393.22	2678.74
393.43	2799.57
393.64	2717.65
393.85	2775.00
394.07	2684.89
394.28	2768.85
394.49	2785.24
394.71	2820.05
394.92	2863.06
395.13	2672.60
395.35	2670.55
395.56	2742.23
395.77	2740.18
395.98	2887.64
396.20	2861.01
396.41	2869.20
396.62	2875.35
396.84	2797.53
397.05	2803.67
397.26	2856.92
397.47	2981.84
397.69	2863.06
397.90	3055.57
398.11	2973.65
398.32	2832.34
398.54	2959.31
398.75	2920.40
398.96	2930.64
399.18	3200.98
399.39	2957.27
399.60	3155.92
399.81	2914.26
400.03	2957.27
400.24	3264.46
400.45	3030.99
400.66	3051.47
400.88	3078.10
401.09	3229.65
401.30	3033.04
401.51	3286.99
401.73	3141.58
401.94	3190.74
402.15	3209.17
402.36	3049.43
402.58	3211.22
402.79	3104.72
403.00	3123.15
403.21	3213.26
403.43	3200.98
403.64	3418.06
403.85	3182.54
404.06	3243.98
404.27	3129.30
404.49	3258.32
404.70	3133.39
404.91	3305.42
405.12	3305.42
405.34	3313.61
405.55	3411.92
405.76	3207.12
405.97	3198.93
406.19	3481.55
406.40	3284.94
406.61	3315.66
406.82	3338.19
407.03	3395.53
407.25	3424.20
407.46	3569.61
407.67	3504.07
407.88	3426.25
408.09	3274.70
408.31	3370.96
408.52	3440.59
408.73	3438.54
408.94	3506.12
409.15	3518.41
409.37	3575.75
409.58	3502.03
409.79	3508.17
410.00	3561.42
410.21	3381.20
410.43	3577.80
410.64	3399.63
410.85	3375.05
411.06	3438.54
411.27	3616.71
411.48	3719.11
411.70	3604.42
411.91	3639.24
412.12	3760.07
412.33	3559.37
412.54	3487.69
412.76	3731.40
412.97	3669.96
413.18	3528.65
413.39	3665.86
413.60	3741.64
413.81	3743.69
414.03	3692.49
414.24	3583.95
414.45	3780.55
414.66	3520.46
414.87	3776.45
415.08	3729.35
415.30	3850.18
415.51	3657.67
415.72	3764.17
415.93	3811.27
416.14	3831.75
416.35	3911.62
416.56	3917.76
416.78	3909.57
416.99	3876.80
417.20	3876.80
417.41	3981.25
417.62	4001.73
417.83	3991.49
418.04	4030.40
418.26	4001.73
418.47	3960.77
418.68	4149.18
418.89	3934.15
419.10	4153.28
419.31	4028.35
419.52	4159.42
419.73	3997.64
419.95	4124.61
420.16	4024.26
420.37	4120.51
420.58	4009.92
420.79	4007.87
421.00	4114.37
421.21	4196.29
421.42	4042.69
421.63	4280.25
421.85	4210.62
422.06	4265.92
422.27	4317.12
422.48	4243.39
422.69	4272.06
422.90	4280.25
423.11	4335.55
423.32	4403.13
423.53	4474.81
423.75	4310.97
423.96	4417.47
424.17	4548.54
424.38	4669.37
424.59	4419.52
424.80	4728.76
425.01	4530.11
425.22	4419.52
425.43	4609.98
425.64	4687.80
425.85	4747.19
426.06	4665.27
426.28	4589.50
426.49	4642.75
426.70	4671.42
426.91	4540.35
427.12	4712.38
427.33	4693.94
427.54	4657.08
427.75	4794.29
427.96	4831.16
428.17	4706.23
428.38	4794.29
428.59	4794.29
428.80	4931.51
429.01	4915.12
429.23	4919.22
429.44	5087.15
429.65	4972.47
429.86	5046.20
430.07	4845.49
430.28	4913.08
430.49	5066.67
430.70	5164.98
430.91	5361.58
431.12	5031.86
431.33	5095.35
431.54	5150.64
431.75	5337.01
431.96	5101.49
432.17	5199.79
432.38	5294.00
432.59	5294.00
432.80	5392.30
433.01	5506.99
433.22	5255.09
433.43	5375.92
433.64	5316.53
433.85	5300.14
434.06	5437.36
434.27	5316.53
434.49	5427.12
434.70	5613.48
434.91	5447.60
435.12	5644.20
435.33	5590.95
435.54	5468.08
435.75	5279.66
435.96	5572.52
436.17	5414.83
436.38	5705.64
436.59	5736.36
436.80	5681.07
437.01	5820.33
437.22	5846.95
437.43	5728.17
437.64	5486.51
437.85	5795.75
438.06	5920.68
438.27	5658.54
438.48	5722.02
438.69	6025.12
438.90	5812.14
439.11	5836.71
439.32	6008.74
439.53	5910.44
439.74	6008.74
439.95	6027.17
440.16	5904.29
440.37	5982.12
440.57	5930.92
440.78	6023.08
440.99	6025.12
441.20	6049.70
441.41	6021.03
441.62	6143.91
441.83	6109.09
442.04	6195.11
442.25	6250.40
442.46	6172.58
442.67	6303.65
442.88	6733.72
443.09	6191.01
443.30	6199.20
443.51	6182.82
443.72	6561.69
443.93	6326.18
444.14	6602.65
444.35	6301.60
444.56	6424.48
444.77	6483.87
444.98	6387.61
445.19	6530.97
445.40	6524.83
445.61	6483.87
445.81	6758.30
446.02	6614.94
446.23	6549.40
446.44	6334.37
446.65	6698.91
446.86	6684.57
447.07	6713.24
447.28	6909.85
447.49	6631.32
447.70	6616.99
447.91	6635.42
448.12	6797.21
448.33	6967.19
448.54	6868.89
448.74	6664.09
448.95	6862.74
449.16	6746.01
449.37	7307.15
449.58	6893.46
449.79	7188.37
450.00	6719.39
450.21	6952.85
450.42	7147.41
450.63	7176.08
450.84	7057.30
451.05	7159.70
451.25	7260.05
451.46	6991.77
451.67	7217.04
451.88	7395.22
452.09	7305.10
452.30	7131.03
452.51	7237.52
452.72	7352.21
452.93	7683.98
453.13	7128.98
453.34	7417.74
453.55	7477.13
453.76	7360.40
453.97	7638.92
454.18	7600.01
454.39	7522.19
454.60	7692.17
454.81	7536.52
455.01	7792.52
455.22	7376.78
455.43	7669.64
455.64	7892.87
455.85	8060.80
456.06	8056.71
456.27	7974.79
456.48	7948.17
456.68	7796.62
456.89	7939.97
457.10	8120.20
457.31	8226.69
457.52	7915.40
457.73	8167.30
457.94	8447.87
458.14	8044.42
458.35	8587.13
458.56	8427.39
458.77	8185.73
458.98	8318.85
459.19	8470.40
459.39	8552.32
459.60	8707.96
459.81	8499.07
460.02	8763.26
460.23	8679.29
460.44	8923.00
460.65	8753.02
460.85	8791.93
461.06	8861.56
461.27	8728.44
461.48	9111.41
461.69	9064.31
461.89	8744.83
462.10	9281.39
462.31	8746.87
462.52	8990.58
462.73	9037.69
462.94	9398.13
463.14	9252.72
463.35	9170.80
463.56	9537.39
463.77	9469.81
463.98	9418.61
464.18	9586.54
464.39	9652.08
464.60	9701.23
464.81	9742.19
465.02	9731.95
465.23	10184.55
465.43	9664.36
465.64	10100.58
465.85	10057.57
466.06	9889.64
466.27	10026.86
466.47	10215.27
466.68	10389.35
466.89	10323.81
467.10	10301.28
467.30	10276.71
467.51	10313.57
467.72	10702.68
467.93	10342.24
468.14	10432.35
468.34	10620.77
468.55	10702.68
468.76	10717.02
468.97	10686.30
469.17	10862.43
469.38	10956.63
469.59	11161.43
469.80	10903.39
470.01	10911.58
470.21	10962.78
470.42	11167.57
470.63	11362.13
470.84	11218.77
471.04	11538.26
471.25	11390.80
471.46	11571.02
471.67	11597.65
471.87	11761.48
472.08	11806.54
472.29	11906.89
472.50	11568.98
472.70	11992.90
472.91	11974.47
473.12	12265.28
473.33	12042.06
473.53	12128.07
473.74	11997.00
473.95	12330.82
474.16	12508.99
474.36	12377.92
474.57	12588.86
474.78	12943.16
474.99	12621.63
475.19	12830.52
475.40	13074.23
475.61	13326.13
475.81	13164.34
476.02	13496.11
476.23	13246.26
476.44	13356.85
476.64	13629.23
476.85	13942.57
477.06	13539.12
477.27	13774.64
477.47	13989.67
477.68	14110.50
477.89	13983.53
478.09	14311.21
478.30	14262.05
478.51	14317.35
478.71	14507.81
478.92	14577.44
479.13	14587.68
479.34	14694.18
479.54	14849.82
479.75	14618.40
479.96	15005.47
480.16	15093.53
480.37	15050.52
480.58	15224.60
480.78	15333.14
480.99	15562.51
481.20	15752.98
481.41	15476.50
481.61	15685.39
481.82	15896.33
482.03	15802.13
482.23	15748.88
482.44	16238.34
482.65	16125.71
482.85	16191.24
483.06	16092.94
483.27	16512.77
483.47	16514.82
483.68	16420.61
483.89	16713.47
484.09	16551.68
484.30	16922.37
484.51	17012.48
484.71	17327.86
484.92	17057.53
485.13	17415.93
485.33	17307.38
485.54	17520.37
485.75	17616.63
485.95	17600.24
486.16	17798.90
486.37	17995.50
486.57	17929.97
486.78	17911.53
486.98	17964.78
487.19	18102.00
487.40	18370.28
487.60	18480.87
487.81	18657.00
488.02	18527.97
488.22	18474.73
488.43	18882.27
488.64	18773.73
488.84	19029.73
489.05	19156.70
489.25	18720.48
489.46	19166.94
489.67	19261.15
489.87	19730.13
490.08	19377.88
490.29	19572.44
490.49	19693.27
490.70	19789.52
490.90	19846.87
491.11	19738.32
491.32	19979.98
491.52	20006.61
491.73	20379.34
491.94	20094.67
492.14	20195.02
492.35	20604.61
492.55	20362.95
492.76	20711.11
492.97	20829.89
493.17	20864.71
493.38	21245.63
493.58	21255.87
493.79	21225.15
494.00	20991.68
494.20	21247.68
494.41	21626.55
494.61	21671.61
494.82	21571.25
495.02	21200.57
495.23	21763.76
495.44	21667.51
495.64	22113.97
495.85	22208.17
496.05	22193.84
496.26	21943.99
496.47	22455.98
496.67	21925.55
496.88	22486.70
497.08	22384.30
497.29	22511.27
497.49	22638.25
497.70	22924.96
497.91	22707.88
498.11	22806.18
498.32	23049.89
498.52	22836.90
498.73	23428.76
498.93	23035.55
499.14	23477.91
499.34	23287.45
499.55	23334.56
499.76	23551.64
499.96	23555.74
500.17	23541.40
500.37	23844.50
500.58	23699.09
500.78	23867.03
500.99	24133.26
501.19	24159.89
501.40	24131.22
501.60	24012.43
501.81	24254.09
502.02	24379.02
502.22	24223.37
502.43	24178.32
502.63	24581.77
502.84	24454.79
503.04	24477.32
503.25	24632.97
503.45	24518.28
503.66	24866.44
503.86	24778.37
504.07	25376.38
504.27	25173.63
504.48	25339.52
504.68	25187.97
504.89	25413.24
505.09	25151.10
505.30	25462.40
505.50	25480.83
505.71	25587.32
505.91	25378.43
506.12	25507.45
506.32	25319.04
506.53	25796.21
506.73	25904.76
506.94	25753.21
507.14	25837.17
507.35	25919.09
507.55	26144.37
507.76	25972.34
507.96	26021.49
508.17	26250.86
508.37	26283.63
508.58	26377.84
508.78	26220.14
508.99	26699.37
509.19	26390.13
509.40	26695.27
509.60	26402.41
509.81	26609.26
510.01	26715.75
510.22	26631.79
510.42	26728.04
510.63	26842.73
510.83	27004.52
511.04	26758.76
511.24	27252.32
511.44	26801.77
511.65	27237.98
511.85	27076.19
512.06	27033.19
512.26	27383.39
512.47	27182.69
512.67	27565.66
512.88	27762.26
513.08	27307.62
513.29	27311.71
513.49	27295.33
513.69	27752.02
513.90	27733.59
514.10	27821.66
514.31	27813.46
514.51	27944.53
514.72	27905.62
514.92	27889.24
515.13	27997.78
515.33	27854.42
515.53	28157.52
515.74	28087.89
515.94	28393.04
516.15	28364.37
516.35	28165.71
516.56	28632.65
516.76	28563.02
516.96	28479.05
517.17	28438.09
517.37	28366.42
517.58	28696.14
517.78	28759.63
517.99	28943.94
518.19	28601.93
518.39	28862.02
518.60	29328.96
518.80	29056.58
519.01	29124.16
519.21	29232.71
519.41	29455.93
519.62	29249.09
519.82	29472.32
520.03	29462.08
520.23	29206.08
520.43	30017.08
520.64	29632.06
520.84	29832.76
521.05	30017.08
521.25	30047.80
521.45	30166.58
521.66	29965.88
521.86	30086.71
522.07	30414.38
522.27	30461.49
522.47	29937.21
522.68	30694.96
522.88	30559.79
523.08	30711.34
523.29	30793.26
523.49	30774.83
523.70	30690.86
523.90	31039.01
524.10	30821.93
524.31	31223.33
524.51	30852.65
524.71	31204.90
524.92	31063.59
525.12	31518.24
525.33	31168.04
525.53	31389.22
525.73	31499.81
525.94	31632.93
526.14	31917.59
526.34	31802.91
526.55	32024.09
526.75	32013.85
526.95	32427.54
527.16	31776.28
527.36	32517.65
527.56	32425.49
527.77	32278.04
527.97	32282.13
528.17	32773.64
528.38	32476.69
528.58	32812.56
528.78	32998.92
528.99	32951.82
529.19	32970.25
529.39	33076.74
529.60	33191.43
529.80	33287.68
530.00	33101.32
530.21	33555.97
530.41	33418.75
530.61	33381.89
530.82	33854.97
531.02	33678.85
531.22	33811.96
531.43	34004.47
531.63	34012.66
531.83	34571.76
532.04	34471.41
532.24	34405.88
532.44	34881.00
532.64	34635.25
532.85	34801.13
533.05	34848.24
533.25	34514.42
533.46	35091.94
533.66	35302.89
533.86	34874.86
534.07	35603.94
534.27	35343.84
534.47	35835.36
534.67	35558.88
534.88	35366.37
535.08	35724.77
535.28	35689.95
535.49	35919.32
535.69	35999.19
535.89	36034.01
536.09	36468.18
536.30	36609.49
536.50	36113.88
536.70	36793.81
536.91	36222.42
537.11	36693.46
537.31	36955.60
537.51	36756.94
537.72	37199.30
537.92	37076.43
538.12	37033.42
538.32	37070.28
538.53	37529.03
538.73	37361.09
538.93	37037.51
539.13	37305.80
539.34	37664.19
539.54	37422.53
539.74	37529.03
539.94	37537.22
540.15	37692.86
540.35	37877.18
540.55	38086.07
540.75	37959.10
540.96	38428.09
541.16	37840.32
541.36	38452.66
541.56	38409.65
541.77	38626.74
541.97	38661.55
542.17	38987.18
542.37	38354.36
542.58	39009.71
542.78	38540.72
542.98	38696.37
543.18	39275.94
543.38	39108.01
543.59	39099.82
543.79	39224.75
543.99	39265.70
544.19	39484.84
544.40	39220.65
544.60	39466.41
544.80	39146.92
545.00	39554.47
545.20	39593.38
545.41	39609.76
545.61	39589.28
545.81	39751.07
546.01	39703.97
546.21	39998.88
546.42	39884.19
546.62	39882.14
546.82	40207.77
547.02	40080.80
547.22	40187.29
547.43	39982.49
547.63	40469.91
547.83	40418.71
548.03	40506.77
548.23	40713.62
548.44	40875.41
548.64	40603.03
548.84	40740.24
549.04	41119.12
549.24	40523.16
549.45	40801.68
549.65	41108.88
549.85	41033.10
550.05	41624.96
550.25	40949.14
550.45	41489.80
550.66	41346.44
550.86	41102.73
551.06	41346.44
551.26	41438.60
551.46	41450.89
551.66	41543.05
551.87	41549.19
552.07	41403.78
552.27	41254.28
552.47	41829.76
552.67	41899.39
552.87	41805.19
553.07	41887.10
553.28	41862.53
553.48	42073.47
553.68	41883.01
553.88	42386.81
554.08	42087.81
554.28	41835.91
554.48	42112.38
554.69	42202.49
554.89	42265.98
555.09	42220.92
555.29	41692.55
555.49	42411.38
555.69	42356.09
555.89	42233.21
556.10	42669.43
556.30	42190.20
556.50	42188.16
556.70	42513.78
556.90	42718.58
557.10	42689.91
557.30	42483.06
557.50	42802.55
557.70	42960.24
557.91	43191.66
558.11	42853.75
558.31	42976.62
558.51	43017.58
558.71	43222.38
558.91	43214.19
559.11	42915.19
559.31	42863.99
559.51	42773.88
559.72	43453.80
559.92	43242.86
560.12	43242.86
560.32	43822.44
560.52	42911.09
560.72	43523.43
560.92	43523.43
561.12	43310.44
561.32	43572.58
561.52	43400.55
561.72	43904.35
561.93	43332.97
562.13	43885.92
562.33	43281.77
562.53	44037.47
562.73	43431.27
562.93	44029.28
563.13	43750.76
563.33	43691.37
563.53	44217.69
563.73	43636.07
563.93	44152.16
564.13	44238.17
564.33	44035.42
564.53	44352.86
564.74	44354.91
564.94	43900.26
565.14	44264.80
565.34	44035.42
565.54	44340.57
565.74	44320.09
565.94	44688.73
566.14	44602.71
566.34	44305.76
566.54	44658.01
566.74	44340.57
566.94	44453.21
567.14	44635.48
567.34	44557.66
567.54	44688.73
567.74	44287.32
567.94	44658.01
568.14	44840.28
568.34	45262.16
568.54	44852.56
568.74	44983.63
568.94	44424.54
569.14	45229.39
569.34	45086.03
569.54	45288.78
569.75	44494.17
569.95	45002.07
570.15	45708.61
570.35	45161.81
570.55	45503.82
570.75	45237.58
570.95	45167.95
571.15	45462.86
571.35	45280.59
571.55	45628.74
571.75	45575.50
571.95	45540.68
572.15	45694.28
572.35	45606.22
572.55	45768.01
572.75	45733.19
572.95	45837.64
573.15	45643.08
573.35	45894.98
573.55	45884.74
573.75	45806.92
573.95	46241.09
574.15	45880.64
574.35	46409.02
574.55	46200.13
574.75	45983.04
574.95	46153.02
575.15	46208.32
575.34	46165.31
575.54	46521.66
575.74	46619.96
575.94	46693.69
576.14	46499.13
576.34	46611.77
576.54	46835.00
576.74	46650.68
576.94	46447.93
577.14	46753.08
577.34	46859.57
577.54	46617.91
577.74	47019.31
577.94	46955.83
578.14	47054.13
578.34	47195.44
578.54	46523.71
578.74	47066.42
578.94	47484.20
579.14	47029.55
579.34	47396.14
579.54	47002.93
579.74	47580.46
579.94	47486.25
580.13	47879.46
580.33	47580.46
580.53	47709.48
580.73	47576.36
580.93	47592.75
581.13	47861.03
581.33	48157.99
581.53	48174.37
581.73	48080.16
581.93	48088.35
582.13	47850.79
582.33	48870.68
582.53	48506.14
582.73	48293.15
582.92	48370.97
583.12	48870.68
583.32	48731.42
583.52	48420.13
583.72	48893.21
583.92	48878.87
584.12	48733.46
584.32	49397.01
584.52	48690.46
584.72	48612.63
584.92	49042.71
585.11	49270.03
585.31	48925.97
585.51	48952.60
585.71	48780.57
585.91	49708.30
586.11	49087.76
586.31	48997.65
586.51	49198.35
586.71	49126.67
586.91	49593.61
587.10	49636.62
587.30	49448.21
587.50	49403.15
587.70	49960.20
587.90	49939.72
588.10	49526.03
588.30	49679.63
588.50	49763.59
588.69	50044.16
588.89	49786.12
589.09	49812.74
589.29	49786.12
589.49	50320.64
589.69	49765.64
589.89	50377.98
590.08	50353.41
590.28	50294.02
590.48	50476.29
590.68	50058.50
590.88	50119.94
591.08	49956.10
591.28	49896.71
591.47	50697.47
591.67	50504.96
591.87	50552.06
592.07	50492.67
592.27	50474.24
592.47	51072.24
592.67	50631.93
592.86	50492.67
593.06	50763.00
593.26	50896.12
593.46	51256.56
593.66	50611.45
593.86	50855.16
594.05	50791.67
594.25	51500.27
594.45	50756.86
594.65	51166.45
594.85	51135.73
595.05	51500.27
595.24	51084.53
595.44	51129.59
595.64	51090.68
595.84	51389.68
596.04	51385.58
596.23	51574.00
596.43	51555.57
596.63	51410.16
596.83	51578.09
597.03	51797.23
597.22	51582.19
597.42	51492.08
597.62	52042.98
597.82	52026.60
598.02	52212.96
598.21	52141.28
598.41	51877.10
598.61	51868.90
598.81	52161.76
599.01	52468.96
599.20	52147.43
599.40	52004.07
599.60	52522.21
599.80	52632.80
600.00	53001.43
600.19	52790.49
600.39	52339.94
600.59	52901.08
600.79	52483.30
600.98	53112.02
601.18	52888.79
601.38	52851.93
601.58	52620.51
601.78	53320.91
601.97	53030.10
602.17	53204.18
602.37	52819.16
602.57	53349.59
602.76	53167.32
602.96	53255.38
603.16	53636.30
603.36	53402.83
603.55	53368.02
603.75	53335.25
603.95	53773.52
604.15	53505.23
604.34	53392.59
604.54	53789.90
604.74	54082.76
604.94	53673.16
605.13	53746.89
605.33	53812.43
605.53	53671.12
605.73	53789.90
605.92	54191.30
606.12	54230.21
606.32	54240.45
606.52	53834.95
606.71	54191.30
606.91	54138.05
607.11	54355.14
607.30	54576.32
607.50	54451.39
607.70	54731.96
607.90	54142.15
608.09	54316.23
608.29	54549.70
608.49	54850.75
608.68	54566.08
608.88	54736.06
609.08	55162.04
609.28	54731.96
609.47	54572.22
609.67	55194.81
609.87	54871.23
610.06	54426.82
610.26	54600.89
610.46	54951.10
610.66	54875.32
610.85	54844.60
611.05	54437.06
611.25	54871.23
611.44	54617.28
611.64	54858.94
611.84	54662.33
612.03	54662.33
612.23	55190.71
612.43	54881.47
612.62	54748.35
612.82	55461.04
613.02	54787.26
613.21	55082.17
613.41	54654.14
613.61	55088.31
613.80	54299.84
614.00	55254.20
614.20	55411.89
614.39	54953.15
614.59	55502.00
614.79	55139.51
614.98	55250.10
615.18	55143.61
615.38	55796.91
615.57	55205.05
615.77	55344.31
615.97	54797.50
616.16	55125.17
616.36	55188.66
616.56	55450.80
616.75	55354.55
616.95	55127.22
617.15	55254.20
617.34	55133.37
617.54	55192.76
617.74	55536.82
617.93	55399.60
618.13	55014.58
618.32	55260.34
618.52	55053.50
618.72	55454.90
618.91	55426.23
619.11	54891.71
619.31	55393.46
619.50	55190.71
619.70	55039.16
619.90	55237.81
620.09	55352.50
620.29	55415.99
620.48	55162.04
620.68	55735.47
620.88	54883.51
621.07	55082.17
621.27	55293.11
621.46	55289.01
621.66	55342.26
621.86	55344.31
622.05	55262.39
622.25	55522.48
622.44	55561.39
622.64	55196.85
622.84	55456.95
623.03	55090.36
623.23	55276.72
623.42	55538.86
623.62	55563.44
623.82	55725.23
624.01	55194.81
624.21	55471.28
624.40	54873.27
624.60	55039.16
624.80	55291.06
624.99	55524.53
625.19	54752.44
625.38	55526.58
625.58	55350.45
625.77	55243.96
625.97	55477.43
626.17	55407.79
626.36	55469.23
626.56	55694.51
626.75	55051.45
626.95	55391.41
627.14	55043.26
627.34	55768.24
627.54	55313.59
627.73	55225.53
627.93	55151.80
628.12	54801.60
628.32	55405.75
628.51	54908.09
628.71	55153.85
628.90	55114.94
629.10	55278.77
629.30	55463.09
629.49	55096.50
629.69	55440.56
629.88	55174.33
630.08	55721.13
630.27	55317.68
630.47	55246.00
630.66	55418.03
630.86	55755.95
631.05	54961.34
631.25	55631.02
631.44	54883.51
631.64	55786.67
631.84	55129.27
632.03	55663.79
632.23	55686.32
632.42	55551.15
632.62	55829.68
632.81	55321.78
633.01	55284.92
633.20	55530.67
633.40	55577.78
633.59	55852.20
633.79	55403.70
633.98	55415.99
634.18	55825.58
634.37	55723.18
634.57	55608.50
634.76	55923.88
634.96	55606.45
635.15	55452.85
635.35	55432.37
635.54	55514.29
635.74	55956.65
635.93	55082.17
636.13	55641.26
636.32	55975.08
636.52	55590.06
636.71	55719.09
636.91	55942.31
637.10	55786.67
637.30	55413.94
637.49	55811.24
637.69	55692.46
637.88	56046.76
638.08	55426.23
638.27	55827.63
638.46	55678.13
638.66	55370.93
638.85	56005.80
639.05	55665.84
639.24	56181.93
639.44	55712.94
639.63	56132.78
639.83	56233.13
640.02	55858.35
640.22	55862.44
640.41	56122.54
640.61	55350.45
640.80	55835.82
640.99	55987.37
641.19	56562.85
641.38	56112.30
641.58	56011.95
641.77	56104.10
641.97	55772.33
642.16	56177.83
642.36	56358.05
642.55	56620.19
642.74	56136.87
642.94	56595.62
643.13	56259.75
643.33	56589.47
643.52	56288.42
643.72	56431.78
643.91	56368.29
644.10	56401.06
644.30	56550.56
644.49	56255.65
644.69	56546.47
644.88	56253.61
645.08	55921.83
645.27	56458.40
645.46	56282.28
645.66	56720.54
645.85	56130.73
646.05	56681.63
646.24	56659.10
646.43	56687.78
646.63	56669.34
646.82	57115.80
647.02	56800.41
647.21	57044.12
647.40	56405.16
647.60	56710.30
647.79	56648.86
647.99	56681.63
648.18	56566.94
648.37	57001.11
648.57	57310.36
648.76	57062.55
648.96	56544.42
649.15	56792.22
649.34	57068.70
649.54	57218.20
649.73	56657.06
649.92	56738.97
650.12	56958.11
650.31	57109.66
650.51	57138.33
650.70	57255.06
650.89	56468.64
651.09	57611.41
651.28	57459.86
651.47	57379.99
651.67	57076.89
651.86	57447.57
652.06	56566.94
652.25	57126.04
652.44	57187.48
652.64	56630.43
652.83	57234.58
653.02	56870.04
653.22	57140.38
653.41	57087.13
653.60	56730.78
653.80	57214.10
653.99	57289.88
654.18	56839.32
654.38	56632.48
654.57	57603.22
654.76	57144.47
654.96	56908.96
655.15	56992.92
655.34	56790.17
655.54	57128.09
655.73	57259.16
655.92	57257.11
656.12	56923.29
656.31	56868.00
656.50	57384.08
656.70	57537.68
656.89	56984.73
657.08	57326.74
657.28	57472.15
657.47	57382.04
657.66	57212.06
657.86	57336.98
658.05	57246.87
658.24	57468.05
658.43	56808.61
658.63	57439.38
658.82	57388.18
659.01	57787.53
659.21	57791.63
659.40	57531.54
659.59	57314.45
659.79	57549.97
659.98	57527.44
660.17	57431.19
660.36	57367.70
660.56	57451.67
660.75	57640.08
660.94	57091.22
661.14	56997.02
661.33	57496.72
661.52	56984.73
661.71	57808.01
661.91	57037.98
662.10	57357.46
662.29	57830.54
662.49	57267.35
662.68	57564.31
662.87	57113.75
663.06	57666.70
663.26	57480.34
663.45	57678.99
663.64	57623.70
663.83	57891.98
664.03	57660.56
664.22	57238.68
664.41	57681.04
664.60	57144.47
664.80	57423.00
664.99	57541.78
665.18	57083.03
665.37	57334.93
665.57	57603.22
665.76	57621.65
665.95	57767.05
666.14	57494.67
666.34	57144.47
666.53	57662.61
666.72	56978.59
666.91	57144.47
667.11	57310.36
667.30	57619.60
667.49	57414.80
667.68	57652.37
667.87	56947.87
668.07	57375.89
668.26	57513.11
668.45	57824.40
668.64	57461.91
668.84	57939.08
669.03	57334.93
669.22	57423.00
669.41	57816.21
669.60	57699.47
669.80	57595.03
669.99	57525.39
670.18	57293.97
670.37	57529.49
670.57	57552.02
670.76	57035.93
670.95	57662.61
671.14	57447.57
671.33	56741.02
671.53	57943.18
671.72	57715.86
671.91	57078.94
672.10	57431.19
672.29	57277.59
672.48	56906.91
672.68	57703.57
672.87	56872.09
673.06	57693.33
673.25	56804.51
673.44	57201.82
673.64	57210.01
673.83	57242.77
674.02	57185.43
674.21	56919.20
674.40	57447.57
674.59	56767.65
674.79	57007.26
674.98	56767.65
675.17	57238.68
675.36	56706.21
675.55	56702.11
675.74	57046.17
675.94	56868.00
676.13	57181.34
676.32	57468.05
676.51	57502.87
676.70	57412.76
676.89	57130.14
677.08	57343.12
677.28	57179.29
677.47	57412.76
677.66	57341.08
677.85	57005.21
678.04	57203.86
678.23	57355.41
678.42	57226.39
678.62	57033.88
678.81	57273.49
679.00	56831.13
679.19	57707.66
679.38	56960.15
679.57	57078.94
679.76	57289.88
679.96	57205.91
680.15	56933.53
680.34	57091.22
680.53	56845.47
680.72	57291.93
680.91	57521.30
681.10	56964.25
681.29	57263.25
681.48	56814.75
681.68	56669.34
681.87	57054.36
682.06	56849.56
682.25	56462.50
682.44	56732.83
682.63	56728.73
682.82	56579.23
683.01	56511.65
683.20	56272.04
683.39	56976.54
683.59	56597.66
683.78	56247.46
683.97	56456.35
684.16	56239.27
684.35	56380.58
684.54	56376.48
684.73	56259.75
684.92	56214.69
685.11	56407.20
685.30	56683.68
685.49	56652.96
685.69	56106.15
685.88	56366.24
686.07	56511.65
686.26	56456.35
686.45	56155.30
686.64	56175.78
686.83	56149.16
687.02	56491.17
687.21	56456.35
687.40	56507.55
687.59	56059.05
687.78	56050.86
687.97	56636.58
688.16	56138.92
688.35	55798.96
688.54	56198.31
688.74	56190.12
688.93	55899.31
689.12	55778.48
689.31	56272.04
689.50	56022.19
689.69	55860.40
689.88	55813.29
690.07	56210.60
690.26	55588.02
690.45	56114.34
690.64	55719.09
690.83	55895.21
691.02	55588.02
691.21	55653.55
691.40	55368.88
691.59	56038.57
691.78	55874.73
691.97	56319.14
692.16	55469.23
692.35	56108.20
692.54	55635.12
692.73	55991.47
692.92	55375.03
693.11	55635.12
693.30	55735.47
693.49	55620.78
693.68	55514.29
693.87	55354.55
694.06	55243.96
694.25	55391.41
694.44	55545.01
694.63	55659.69
694.82	55665.84
695.01	55358.64
695.20	55295.16
695.39	55059.64
695.58	55432.37
695.77	55033.02
695.96	55055.54
696.15	55456.95
696.34	55370.93
696.53	55280.82
696.72	55452.85
696.91	54949.05
697.10	55594.16
697.29	54998.20
697.48	55776.43
697.67	54779.07
697.86	54969.53
698.05	54613.18
698.24	55254.20
698.43	54514.88
698.62	55207.09
698.81	54453.44
699.00	55006.39
699.19	54787.26
699.38	55284.92
699.57	54645.95
699.76	55104.70
699.95	54480.06
700.14	54744.25
700.32	54498.50
700.51	54367.43
700.70	55323.83
700.89	55051.45
701.08	54711.49
701.27	54887.61
701.46	55057.59
701.65	54043.85
701.84	54453.44
702.03	54594.75
702.22	54410.43
702.41	54455.49
702.60	54738.11
702.79	54246.60
702.98	53935.30
703.17	54252.74
703.35	54355.14
703.54	54248.64
703.73	54222.02
703.92	53697.74
704.11	53957.83
704.30	53382.35
704.49	53933.26
704.68	53648.59
704.87	54033.61
705.06	53744.84
705.25	54027.46
705.43	54002.89
705.62	53933.26
705.81	53763.28
706.00	53621.97
706.19	53634.25
706.38	53707.98
706.57	53470.42
706.76	53413.07
706.95	53634.25
707.14	53398.74
707.32	53476.56
707.51	53206.23
707.70	53581.01
707.89	53384.40
708.08	53656.78
708.27	53454.03
708.46	53755.08
708.65	53548.24
708.84	53605.58
709.02	53441.74
709.21	53359.83
709.40	53648.59
709.59	53695.69
709.78	52864.22
709.97	53617.87
710.16	52909.27
710.34	53337.30
710.53	53222.61
710.72	52704.48
710.91	53257.43
711.10	53269.72
711.29	53048.53
711.48	53294.29
711.66	52698.33
711.85	52606.17
712.04	52714.72
712.23	52737.24
712.42	52706.52
712.61	52782.30
712.80	52810.97
712.98	52770.01
713.17	52532.45
713.36	52628.70
713.55	52481.25
713.74	52565.21
713.93	52757.72
714.11	52567.26
714.30	52118.76
714.49	52550.88
714.68	52679.90
714.87	52755.68
715.06	52303.07
715.24	52608.22
715.43	52155.62
715.62	52051.17
715.81	52012.26
716.00	51979.49
716.18	51723.50
716.37	51901.67
716.56	51801.32
716.75	52540.64
716.94	52114.66
717.12	51999.97
717.31	52196.58
717.50	51772.65
717.69	51715.31
717.88	52274.40
718.06	52094.18
718.25	52282.59
718.44	51473.65
718.63	51895.53
718.82	51318.00
719.00	51471.60
719.19	51404.02
719.38	51428.59
719.57	50750.71
719.76	50828.54
719.94	50951.41
720.13	51412.21
720.32	50801.91
720.51	50814.20
720.69	50992.37
720.88	51074.29
721.07	50812.15
721.26	50228.48
721.44	50423.04
721.63	50472.19
721.82	50222.34
722.01	50441.47
722.20	50642.17
722.38	50375.94
722.57	50072.84
722.76	50179.33
722.95	50056.45
723.13	49919.24
723.32	50339.07
723.51	50154.75
723.70	49673.48
723.88	50320.64
724.07	49732.87
724.26	50124.04
724.44	49548.56
724.63	49947.91
724.82	49919.24
725.01	49632.52
725.19	49730.83
725.38	49837.32
725.57	49566.99
725.76	49550.60
725.94	49356.05
726.13	49181.97
726.32	49583.37
726.51	49040.66
726.69	49935.62
726.88	49622.28
727.07	49505.55
727.25	49050.90
727.44	49231.12
727.63	49425.68
727.82	49450.25
728.00	49282.32
728.19	48987.41
728.38	49485.07
728.56	48637.21
728.75	49149.20
728.94	49028.37
729.12	48973.08
729.31	49411.34
729.50	49163.54
729.69	49394.96
729.87	49177.87
730.06	49151.25
730.25	49022.23
730.43	49734.92
730.62	48948.50
730.81	48921.88
730.99	49511.69
731.18	48854.29
731.37	49274.13
731.55	49224.98
731.74	49466.64
731.93	49214.74
732.11	48956.69
732.30	48868.63
732.49	48692.50
732.67	48915.73
732.86	48686.36
733.05	48809.24
733.23	48405.79
733.42	48782.62
733.61	49020.18
733.79	48913.69
733.98	49188.11
734.17	48760.09
734.35	48715.03
734.54	48680.22
734.73	48911.64
734.91	48624.92
735.10	48762.14
735.29	49257.74
735.47	48827.67
735.66	48772.38
735.84	48917.78
736.03	48364.83
736.22	49196.31
736.40	48917.78
736.59	48928.02
736.78	48715.03
736.96	48706.84
737.15	48524.57
737.33	48479.52
737.52	48698.65
737.71	48430.36
737.89	48307.49
738.08	48205.09
738.27	48123.17
738.45	48424.22
738.64	48332.06
738.82	48287.01
739.01	48401.69
739.20	48233.76
739.38	48493.85
739.57	48043.30
739.75	48346.40
739.94	48387.36
740.13	48436.51
740.31	48344.35
740.50	48002.34
740.68	48188.70
740.87	48268.58
741.06	48020.77
741.24	48219.42
741.43	47617.32
741.61	48082.21
741.80	47887.65
741.99	47924.52
742.17	47297.84
742.36	47654.18
742.54	47097.14
742.73	47910.18
742.91	47979.81
743.10	47369.52
743.29	47883.56
743.47	47701.29
743.66	47736.10
743.84	47535.40
744.03	47342.89
744.21	47662.38
744.40	47783.21
744.59	47170.86
744.77	46945.59
744.96	47101.23
745.14	47301.93
745.33	47486.25
745.51	47662.38
745.70	47582.51
745.88	47250.74
746.07	47158.58
746.26	47117.62
746.44	47052.08
746.63	47039.79
746.81	47080.75
747.00	47433.00
747.18	47117.62
747.37	47308.08
747.55	46732.60
747.74	47760.68
747.92	46753.08
748.11	46748.98
748.29	47027.51
748.48	46781.75
748.66	46490.94
748.85	46662.97
749.03	46808.37
749.22	46761.27
749.41	46630.20
749.59	46812.47
749.78	46540.09
749.96	46419.26
750.15	46429.50
750.33	46689.59
750.52	46087.49
750.70	46153.02
750.89	46259.52
751.07	46435.64
751.26	46351.68
751.44	46089.54
751.63	46026.05
751.81	45894.98
752.00	46220.61
752.18	46187.84
752.37	46062.91
752.55	45591.88
752.74	45667.66
752.92	45440.33
753.10	45665.61
753.29	46224.70
753.47	45645.13
753.66	45534.54
753.84	45692.23
754.03	45522.25
754.21	45176.14
754.40	45550.92
754.58	45626.70
754.77	45491.53
754.95	45356.36
755.14	45487.43
755.32	45290.83
755.51	45389.13
755.69	45192.53
755.88	44952.91
756.06	45299.02
756.24	44916.05
756.43	45043.02
756.61	44825.94
756.80	45184.33
756.98	44735.83
757.17	44717.40
757.35	44862.80
757.54	44922.19
757.72	45022.54
757.90	44922.19
758.09	44850.52
758.27	45006.16
758.46	44848.47
758.64	44541.27
758.83	45057.36
759.01	44799.32
759.19	44739.93
759.38	44692.82
759.56	45126.99
759.75	44574.04
759.93	44612.95
760.12	44080.48
760.30	44610.90
760.48	44619.10
760.67	44649.81
760.85	44402.01
761.04	44686.68
761.22	44522.84
761.40	44459.35
761.59	44066.14
761.77	44316.00
761.96	44016.99
762.14	43734.37
762.32	43793.76
762.51	44012.90
762.69	43744.61
762.88	43957.60
763.06	44090.72
763.24	43863.39
763.43	43654.50
763.61	43464.04
763.80	43480.42
763.98	43609.45
764.16	43455.85
764.35	43384.17
764.53	43050.35
764.72	43400.55
764.90	43591.01
765.08	42849.65
765.27	43232.62
765.45	42993.01
765.63	42915.19
765.82	43255.15
766.00	43101.55
766.18	43148.65
766.37	43492.71
766.55	43308.40
766.74	43070.83
766.92	42689.91
767.10	42917.23
767.29	42730.87
767.47	42622.33
767.65	42730.87
767.84	42734.96
768.02	42632.57
768.20	42556.79
768.39	42458.49
768.57	42622.33
768.75	42866.03
768.94	42687.86
769.12	42702.20
769.30	42470.78
769.49	42593.65
769.67	42020.22
769.85	41678.21
770.04	42005.89
770.22	41713.03
770.40	41547.14
770.59	42005.89
770.77	42044.80
770.95	42198.40
771.14	41375.11
771.32	41579.91
771.50	41454.98
771.69	41893.25
771.87	42329.47
772.05	41868.67
772.24	41280.91
772.42	41684.36
772.60	41444.74
772.78	41264.52
772.97	41043.34
773.15	41450.89
773.33	41325.96
773.52	41137.55
773.70	41235.85
773.88	41475.46
774.07	41162.12
774.25	41176.46
774.43	41065.87
774.61	41094.54
774.80	41696.64
774.98	40889.74
775.16	41526.66
775.34	41387.40
775.53	41094.54
775.71	41469.32
775.89	41446.79
776.08	41368.97
776.26	41616.77
776.44	41510.28
776.62	41483.66
776.81	41305.48
776.99	41520.52
777.17	41332.11
777.35	41768.32
777.54	41983.36
777.72	41280.91
777.90	41645.44
778.08	41840.00
778.27	41694.60
778.45	41504.13
778.63	42526.07
778.81	41272.71
779.00	41948.54
779.18	41702.79
779.36	42149.24
779.54	41575.81
779.73	41674.12
779.91	41616.77
780.09	41518.47
780.27	42028.41
780.46	41569.67
780.64	42112.38
780.82	41604.49
781.00	41508.23
781.19	42126.72
781.37	41960.83
781.55	42165.63
781.73	42007.94
781.91	42392.95
782.10	42194.30
782.28	42212.73
782.46	42169.72
782.64	42648.95
782.82	41696.64
783.01	42188.16
783.19	42102.14
783.37	42206.59
783.55	41973.12
783.74	42614.13
783.92	42165.63
784.10	42884.47
784.28	42255.74
784.46	42112.38
784.64	42407.29
784.83	42276.22
785.01	42460.54
785.19	42227.07
785.37	42423.67
785.55	42124.67
785.74	41858.43
785.92	41911.68
786.10	42052.99
786.28	41887.10
786.46	41659.78
786.64	41569.67
786.83	41938.30
787.01	42296.70
787.19	41823.62
787.37	41840.00
787.55	41698.69
787.74	41532.81
787.92	41676.16
788.10	41522.57
788.28	41307.53
788.46	41323.91
788.64	41301.39
788.82	41885.06
789.01	41321.87
789.19	41354.63
789.37	41407.88
789.55	41495.94
789.73	41207.18
789.91	41305.48
790.09	41039.25
790.28	40834.45
790.46	40891.79
790.64	41362.82
790.82	40832.40
791.00	40801.68
791.18	40306.07
791.36	40820.11
791.55	40709.52
791.73	40547.73
791.91	39984.54
792.09	40488.34
792.27	40422.81
792.45	40164.76
792.63	40060.32
792.81	40000.93
793.00	40052.12
793.18	39974.30
793.36	39773.60
793.54	39859.62
793.72	39959.97
793.90	39546.28
794.08	39296.42
794.26	39538.08
794.44	39056.81
794.62	39302.57
794.81	39650.72
794.99	39216.55
795.17	39290.28
795.35	39200.17
795.53	38870.45
795.71	39054.76
795.89	38958.51
796.07	39058.86
796.25	38870.45
796.43	38610.35
796.61	38409.65
796.80	38047.16
796.98	38073.79
797.16	38262.20
797.34	37985.72
797.52	37924.29
797.70	38028.73
797.88	37938.62
798.06	38053.31
798.24	37828.03
798.42	37647.81
798.60	37705.15
798.78	37782.98
798.96	37731.78
799.14	37043.66
799.32	37537.22
799.51	37076.43
799.69	37717.44
799.87	36939.21
800.05	37068.23
800.23	36738.51
800.41	36470.23
800.59	36812.24
800.77	37057.99
800.95	35911.13
801.13	36185.56
801.31	36296.15
801.49	36670.93
801.67	36484.56
801.85	35978.72
802.03	36074.97
802.21	35874.27
802.39	36060.63
802.57	35569.12
802.75	35872.22
802.93	35704.29
803.11	35460.58
803.29	35673.57
803.47	35333.60
803.65	35558.88
803.83	35354.08
804.01	34952.68
804.19	35096.04
804.37	34741.74
804.55	34946.54
804.73	35053.03
804.91	35087.85
805.09	34870.76
805.27	34391.54
805.45	34622.96
805.63	34751.98
805.81	34864.62
805.99	34858.48
806.17	34743.79
806.35	34283.00
806.53	34215.41
806.71	34139.64
806.89	34502.13
807.07	34461.17
807.25	34231.80
807.43	34041.34
807.61	34018.81
807.79	34051.58
807.97	33844.73
808.15	33824.25
808.33	33418.75
808.51	33500.67
808.69	33598.98
808.87	33392.13
809.05	32962.06
809.23	33525.25
809.41	32933.39
809.59	33181.19
809.77	32871.95
809.95	32896.52
810.13	33111.56
810.31	32744.97
810.49	32753.16
810.67	32650.77
810.84	32837.13
811.02	32747.02
811.20	32572.94
811.38	32644.62
811.56	32118.29
811.74	32134.68
811.92	32189.97
812.10	32224.79
812.28	32298.52
812.46	32140.82
812.64	32138.77
812.82	32056.85
813.00	31864.35
813.18	32208.40
813.36	31858.20
813.53	31700.51
813.71	32011.80
813.89	31753.76
814.07	31802.91
814.25	31917.59
814.43	31585.82
814.61	31397.41
814.79	31659.55
814.97	31536.67
815.15	31720.99
815.33	30983.72
815.50	30807.59
815.68	31016.49
815.86	31383.07
816.04	30723.63
816.22	31254.05
816.40	31055.40
816.58	30918.18
816.76	30869.03
816.94	30744.11
817.11	30844.46
817.29	30502.45
817.47	30801.45
817.65	30821.93
817.83	30938.66
818.01	30266.93
818.19	30340.66
818.37	30463.54
818.54	30162.48
818.72	30164.53
818.90	30324.27
819.08	30240.31
819.26	30340.66
819.44	30135.86
819.62	30137.91
819.80	30113.33
819.97	30084.66
820.15	29654.59
820.33	29464.13
820.51	30006.84
820.69	29660.73
820.87	30139.96
821.05	29988.41
821.22	29314.62
821.40	29705.79
821.58	29359.68
821.76	29472.32
821.94	29283.91
822.12	29318.72
822.29	29396.54
822.47	29437.50
822.65	29365.82
822.83	29363.78
823.01	29228.61
823.19	29173.31
823.36	29072.96
823.54	28778.06
823.72	28821.06
823.90	28880.46
824.08	29058.63
824.25	28569.16
824.43	28517.96
824.61	28560.97
824.79	28624.46
824.97	28792.39
825.15	28388.94
825.32	28810.82
825.50	28321.36
825.68	28341.84
825.86	28612.17
826.04	28333.65
826.21	28405.33
826.39	28292.69
826.57	28642.89
826.75	27987.54
826.93	28235.35
827.10	27846.23
827.28	28083.80
827.46	28208.72
827.64	27897.43
827.81	28010.07
827.99	28110.42
828.17	27782.74
828.35	27864.66
828.53	27717.21
828.70	28020.31
828.88	27600.47
829.06	27819.61
829.24	27801.18
829.41	27586.14
829.59	27680.35
829.77	27690.59
829.95	27618.91
830.12	27432.54
830.30	27229.79
830.48	27278.94
830.66	27739.74
830.84	27479.64
831.01	27508.32
831.19	27627.10
831.37	27203.17
831.55	27090.53
831.72	26971.75
831.90	27119.20
832.08	27223.65
832.25	27215.46
832.43	26914.41
832.61	26889.83
832.79	26793.58
832.96	26826.34
833.14	26709.61
833.32	27043.43
833.50	26969.70
833.67	27031.14
833.85	26648.17
834.03	26472.04
834.20	26662.51
834.38	26635.88
834.56	26889.83
834.74	26429.04
834.91	26670.70
835.09	26861.16
835.27	26377.84
835.44	26443.37
835.62	25824.89
835.80	26332.78
835.98	26119.79
836.15	26302.06
836.33	26377.84
836.51	26297.97
836.68	26044.02
836.86	26195.57
837.04	26377.84
837.21	26013.30
837.39	26261.10
837.57	26111.60
837.75	26162.80
837.92	25841.27
838.10	26048.11
838.28	25497.21
838.45	25917.04
838.63	25493.12
838.81	25765.49
838.98	25615.99
839.16	25751.16
839.34	25628.28
839.51	25306.75
839.69	25267.84
839.87	25226.88
840.04	25542.27
840.22	25378.43
840.40	25425.53
840.57	24817.29
840.75	25372.28
840.93	25083.52
841.10	25284.22
841.28	25343.61
841.46	25525.88
841.63	25654.90
841.81	24948.36
841.98	25124.48
842.16	25175.68
842.34	25249.41
842.51	24829.57
842.69	25206.40
842.87	24917.64
843.04	25093.76
843.22	24510.09
843.40	24995.46
843.57	24878.72
843.75	24962.69
843.92	24925.83
844.10	24714.89
844.28	24796.81
844.45	25007.75
844.63	24551.05
844.81	24327.82
844.98	24655.50
845.16	24557.19
845.33	24534.67
845.51	24907.40
845.69	24356.49
845.86	24211.09
846.04	24264.33
846.21	24323.72
846.39	24456.84
846.57	24082.06
846.74	24014.48
846.92	24442.51
847.09	24260.24
847.27	23912.08
847.45	23991.95
847.62	24274.57
847.80	24321.68
847.97	23989.91
848.15	24446.60
848.32	23903.89
848.50	23721.62
848.68	24037.01
848.85	23633.56
849.03	23584.41
849.20	23711.38
849.38	24012.43
849.56	23760.53
849.73	23666.33
849.91	23721.62
850.08	23690.90
850.26	23545.50
850.43	23627.42
850.61	23824.02
850.78	23209.63
850.96	23363.23
851.14	23111.33
851.31	23643.80
851.49	23391.90
851.66	23430.81
851.84	23211.68
852.01	23439.00
852.19	23262.88
852.36	23070.37
852.54	23209.63
852.71	23252.64
852.89	23441.05
853.07	23156.38
853.24	23158.43
853.42	23254.69
853.59	23084.70
853.77	22869.67
853.94	23322.27
854.12	23330.46
854.29	22609.58
854.47	23082.66
854.64	22916.77
854.82	22808.23
854.99	22924.96
855.17	22802.08
855.34	22759.08
855.52	22863.52
855.69	22978.21
855.87	22730.41
856.04	22515.37
856.22	22517.42
856.39	22691.49
856.57	22546.09
856.74	22533.80
856.92	22836.90
857.09	22322.86
857.27	22392.49
857.44	22673.06
857.62	22408.87
857.79	22494.89
857.97	22546.09
858.14	22296.24
858.32	22267.56
858.49	22269.61
858.67	22025.90
858.84	22226.60
859.02	22222.51
859.19	22277.80
859.37	22013.62
859.54	21810.87
859.72	22097.58
859.89	22288.04
860.06	21984.94
860.24	22005.42
860.41	22259.37
860.59	21681.85
860.76	22091.44
860.94	21620.41
861.11	21995.18
861.29	21702.32
861.46	21898.93
861.64	21460.66
861.81	21898.93
861.98	21577.40
862.16	21499.58
862.33	21599.93
862.51	21612.21
862.68	21556.92
862.86	21350.07
863.03	21431.99
863.21	21544.63
863.38	21354.17
863.55	21233.34
863.73	21524.15
863.90	21524.15
864.08	21653.17
864.25	21356.22
864.43	21255.87
864.60	21212.86
864.77	21147.33
864.95	21149.37
865.12	21163.71
865.30	21210.81
865.47	21008.06
865.64	21028.54
865.82	20895.43
865.99	21022.40
866.17	21040.83
866.34	21001.92
866.51	20770.50
866.69	20934.34
866.86	20936.38
867.04	20770.50
867.21	20606.66
867.38	20782.79
867.56	20653.76
867.73	20637.38
867.91	20467.40
868.08	20467.40
868.25	20559.56
868.43	20254.41
868.60	20369.10
868.78	20410.06
868.95	20367.05
869.12	20209.36
869.30	20278.99
869.47	20260.55
869.64	20029.13
869.82	20317.90
869.99	20066.00
870.16	20182.73
870.34	20225.74
870.51	20453.06
870.69	19912.40
870.86	20051.66
871.03	20174.54
871.21	19857.10
871.38	20037.33
871.55	19726.04
871.73	19869.39
871.90	19605.20
872.07	19732.18
872.25	19523.29
872.42	19801.81
872.59	19588.82
872.77	19891.92
872.94	19793.62
873.11	19609.30
873.29	19699.41
873.46	19314.39
873.63	19597.01
873.81	19447.51
873.98	19285.72
874.15	19398.36
874.33	19171.04
874.50	19113.69
874.67	19152.60
874.85	19138.27
875.02	19011.29
875.19	18945.76
875.37	18611.94
875.54	18757.35
875.71	18829.02
875.88	18818.78
876.06	18896.61
876.23	18730.72
876.40	18915.04
876.58	18863.84
876.75	18620.13
876.92	18743.01
877.10	18835.17
877.27	18370.28
877.44	18446.05
877.61	18398.95
877.79	18439.91
877.96	18398.95
878.13	18503.40
878.31	18452.20
878.48	18228.97
878.65	18036.46
878.82	17833.71
879.00	18271.98
879.17	18093.80
879.34	18247.40
879.51	17999.60
879.69	18005.74
879.86	18026.22
880.03	17854.19
880.21	17811.18
880.38	17690.35
880.55	17813.23
880.72	18048.75
880.90	17698.55
881.07	17856.24
881.24	17837.81
881.41	17759.98
881.59	17882.86
881.76	17463.03
881.93	17434.36
882.10	17596.15
882.28	17506.04
882.45	17544.95
882.62	17524.47
882.79	17581.81
882.96	17166.07
883.14	17479.41
883.31	17303.29
883.48	17348.34
883.65	17270.52
883.83	17039.10
884.00	17327.86
884.17	17182.46
884.34	17407.73
884.51	17104.64
884.69	17194.75
884.86	17078.01
885.03	17293.05
885.20	16924.41
885.38	17145.59
885.55	17112.83
885.72	17094.40
885.89	17004.28
886.06	17198.84
886.24	16774.91
886.41	16889.60
886.58	17215.23
886.75	17364.73
886.92	16799.49
887.10	16856.83
887.27	16789.25
887.44	17000.19
887.61	16977.66
887.78	16680.71
887.95	16932.61
888.13	16758.53
888.30	16793.34
888.47	16643.84
888.64	16602.88
888.81	16621.31
888.99	16776.96
889.16	16414.47
889.33	16541.44
889.50	16488.20
889.67	16604.93
889.84	16203.53
890.01	16600.83
890.19	16398.09
890.36	16375.56
890.53	16273.16
890.70	16142.09
890.87	16406.28
891.04	16168.71
891.22	16054.03
891.39	16324.36
891.56	16191.24
891.73	15982.35
891.90	15974.16
892.07	16019.21
892.24	15961.87
892.42	15748.88
892.59	15879.95
892.76	15939.34
892.93	15806.22
893.10	16004.88
893.27	15832.85
893.44	15740.69
893.61	15716.11
893.79	15925.00
893.96	16086.79
894.13	15884.05
894.30	16076.55
894.47	15742.74
894.64	15951.63
894.81	15746.83
894.98	15918.86
895.15	15896.33
895.33	15537.94
895.50	15865.61
895.67	15853.33
895.84	15900.43
896.01	15572.75
896.18	15546.13
896.35	15681.30
896.52	15673.10
896.69	15730.45
896.86	15798.03
897.04	15527.70
897.21	15810.32
897.38	15681.30
897.55	15542.03
897.72	15726.35
897.89	15525.65
898.06	15695.63
898.23	15576.85
898.40	15687.44
898.57	15642.39
898.74	15783.70
898.91	15519.51
899.08	15642.39
899.26	15791.89
899.43	15535.89
899.60	15546.13
899.77	15408.92
899.94	15556.37
900.11	15468.31
900.28	15548.18
900.45	15527.70
900.62	15425.30
900.79	15652.63
900.96	15566.61
901.13	15380.25
901.30	15613.71
901.47	15294.23
901.64	15353.62
901.81	15576.85
901.98	15478.55
902.15	15601.43
902.32	15380.25
902.49	15449.88
902.66	15398.68
902.83	15599.38
903.01	15353.62
903.18	15492.88
903.35	15318.81
903.52	15300.37
903.69	15398.68
903.86	15759.12
904.03	15413.01
904.20	15601.43
904.37	15419.16
904.54	15298.33
904.71	15298.33
904.88	15484.69
905.05	15134.49
905.22	15439.64
905.39	15216.41
905.56	15261.46
905.73	15238.94
905.90	15400.72
906.07	15263.51
906.24	15611.67
906.41	15200.02
906.58	15709.97
906.75	15363.86
906.92	15370.01
907.09	15308.57
907.26	15447.83
907.43	15146.78
907.60	15351.57
907.77	15300.37
907.93	15519.51
908.10	15441.68
908.27	15462.16
908.44	15202.07
908.61	15068.95
908.78	15034.14
908.95	15197.98
909.12	15200.02
909.29	15177.50
909.46	15126.30
909.63	15433.49
909.80	15204.12
909.97	15187.74
910.14	15257.37
910.31	15021.85
910.48	15283.99
910.65	15234.84
910.82	15050.52
910.99	14999.32
911.16	14970.65
911.33	15236.89
911.50	15046.43
911.66	15005.47
911.83	15038.23
912.00	14892.83
912.17	14815.01
912.34	15109.91
912.51	14708.51
912.68	14696.22
912.85	15011.61
913.02	15083.29
913.19	14817.05
913.36	14692.13
913.53	14819.10
913.70	14720.80
913.86	14706.46
914.03	14587.68
914.20	14548.77
914.37	14741.28
914.54	14581.54
914.71	14520.10
914.88	14698.27
915.05	14585.63
915.22	14556.96
915.39	14448.42
915.55	14401.32
915.72	14294.82
915.89	14386.98
916.06	14346.02
916.23	14343.97
916.40	14182.18
916.57	14130.98
916.74	14307.11
916.91	14059.31
917.07	14100.26
917.24	14085.93
917.41	14049.07
917.58	14004.01
917.75	13821.74
917.92	13819.69
918.09	13825.84
918.26	13651.76
918.42	13774.64
918.59	13731.63
918.76	13633.33
918.93	13539.12
919.10	13545.27
919.27	13637.42
919.44	13623.09
919.60	13530.93
919.77	13678.38
919.94	13252.41
920.11	13330.23
920.28	13414.20
920.45	13379.38
920.61	13156.15
920.78	13143.86
920.95	12957.50
921.12	13276.98
921.29	12810.04
921.46	13059.90
921.62	12842.81
921.79	12924.73
921.96	12920.63
922.13	12793.66
922.30	12764.99
922.47	12760.89
922.63	12560.19
922.80	12705.60
922.97	12662.59
923.14	12570.43
923.31	12635.97
923.47	12439.36
923.64	12638.02
923.81	12429.12
923.98	12425.03
924.15	12336.96
924.32	12517.18
924.48	12396.35
924.65	12244.81
924.82	12166.98
924.99	12003.14
925.15	11851.60
925.32	12126.02
925.49	11892.55
925.66	11974.47
925.83	11927.37
925.99	11804.49
926.16	12017.48
926.33	11861.84
926.50	11648.85
926.67	11712.33
926.83	11644.75
927.00	11390.80
927.17	11226.96
927.34	11421.52
927.50	11452.24
927.67	11499.34
927.84	11489.10
928.01	11368.27
928.17	11267.92
928.34	11016.02
928.51	11210.58
928.68	11151.19
928.84	11130.71
929.01	10866.52
929.18	10803.04
929.35	11118.42
929.51	10887.00
929.68	10688.35
929.85	10504.03
930.02	10725.21
930.18	10622.81
930.35	10577.76
930.52	10565.47
930.69	10694.49
930.85	10522.46
931.02	10366.82
931.19	10334.05
931.36	10401.63
931.52	10387.30
931.69	10184.55
931.86	10202.98
932.02	10100.58
932.19	10166.12
932.36	10254.18
932.53	10219.36
932.69	10092.39
932.86	10000.23
933.03	10020.71
933.19	9713.52
933.36	9811.82
933.53	9946.98
933.70	9838.44
933.86	9725.80
934.03	9752.43
934.20	9547.63
934.36	9709.42
934.53	9394.03
934.70	9303.92
934.86	9316.21
935.03	9371.50
935.20	9187.19
935.36	9242.48
935.53	8867.70
935.70	8865.66
935.86	9090.93
936.03	8730.49
936.20	8804.22
936.36	8636.28
936.53	8724.35
936.70	8599.42
936.86	8624.00
937.03	8560.51
937.20	8195.97
937.36	8402.82
937.53	8118.15
937.70	8021.89
937.86	8144.77
938.03	7890.82
938.20	8054.66
938.36	7821.19
938.53	7798.66
938.70	7432.08
938.86	7522.19
939.03	7450.51
939.20	7384.98
939.36	7442.32
939.53	7231.38
939.70	7423.89
939.86	7063.44
940.03	7098.26
940.19	6954.90
940.36	6827.93
940.53	6764.44
940.69	6713.24
940.86	6815.64
941.03	6420.38
941.19	6494.11
941.36	6528.92
941.52	6473.63
941.69	6346.66
941.86	6328.22
942.02	6178.72
942.19	6244.26
942.35	6111.14
942.52	6098.85
942.69	6066.08
942.85	5881.77
943.02	5998.50
943.18	5961.64
943.35	5971.88
943.52	5771.18
943.68	5846.95
943.85	5851.05
944.01	5713.83
944.18	5578.67
944.35	5842.85
944.51	5615.53
944.68	5402.54
944.84	5466.03
945.01	5480.36
945.17	5500.84
945.34	5517.23
945.51	5629.87
945.67	5449.64
945.84	5431.21
946.00	5316.53
946.17	5377.97
946.33	5447.60
946.50	5453.74
946.67	5496.75
946.83	5343.15
947.00	5341.10
947.16	5347.25
947.33	5324.72
947.49	5453.74
947.66	5152.69
947.82	5312.43
947.99	5222.32
948.16	5328.81
948.32	5377.97
948.49	5375.92
948.65	5306.29
948.82	5519.28
948.98	5388.21
949.15	5197.74
949.31	5466.03
949.48	5296.05
949.64	5304.24
949.81	5296.05
949.97	5320.62
950.14	5382.06
950.30	5226.42
950.47	5310.38
950.63	5416.88
950.80	5345.20
950.96	5308.34
951.13	5472.17
951.30	5380.01
951.46	5410.73
951.63	5433.26
951.79	5394.35
951.96	5564.33
952.12	5486.51
952.29	5377.97
952.45	5271.47
952.62	5556.14
952.78	5492.65
952.94	5353.39
953.11	5386.16
953.27	5308.34
953.44	5603.24
953.60	5521.32
953.77	5466.03
953.93	5429.17
954.10	5427.12
954.26	5408.69
954.43	5511.08
954.59	5566.38
954.76	5558.19
954.92	5324.72
955.09	5377.97
955.25	5550.00
955.42	5402.54
955.58	5613.48
955.75	5595.05
955.91	5369.77
956.07	5390.25
956.24	5558.19
956.40	5525.42
956.57	5765.03
956.73	5506.99
956.90	5631.91
957.06	5474.22
957.23	5423.02
957.39	5457.84
957.56	5537.71
957.72	5478.32
957.88	5574.57
958.05	5515.18
958.21	5670.83
958.38	5525.42
958.54	5578.67
958.71	5631.91
958.87	5525.42
959.03	5468.08
959.20	5595.05
959.36	5373.87
959.53	5418.93
959.69	5506.99
959.85	5560.24
960.02	5431.21
960.18	5685.16
960.35	5439.40
960.51	5601.19
960.68	5472.17
960.84	5470.12
961.00	5476.27
961.17	5556.14
961.33	5414.83
961.50	5484.46
961.66	5408.69
961.82	5394.35
961.99	5502.89
962.15	5418.93
962.31	5425.07
962.48	5437.36
962.64	5398.45
962.81	5578.67
962.97	5392.30
963.13	5474.22
963.30	5521.32
963.46	5484.46
963.62	5435.31
963.79	5431.21
963.95	5443.50
964.12	5375.92
964.28	5449.64
964.44	5580.71
964.61	5509.04
964.77	5527.47
964.93	5433.26
965.10	5468.08
965.26	5273.52
965.42	5255.09
965.59	5351.34
965.75	5308.34
965.92	5365.68
966.08	5423.02
966.24	5259.18
966.41	5263.28
966.57	5341.10
966.73	5412.78
966.90	5476.27
967.06	5287.86
967.22	5279.66
967.39	5253.04
967.55	5269.42
967.71	5253.04
967.88	5201.84
968.04	5216.18
968.20	5201.84
968.37	5132.21
968.53	5304.24
968.69	5412.78
968.85	5287.86
969.02	5148.59
969.18	5197.74
969.34	5214.13
969.51	5072.82
969.67	5140.40
969.83	4974.52
970.00	5298.10
970.16	5103.54
970.32	5060.53
970.48	5400.49
970.65	4960.18
970.81	5013.43
970.97	5105.59
971.14	4978.61
971.30	5171.12
971.46	5048.24
971.63	4954.04
971.79	5152.69
971.95	5076.91
972.11	4894.65
972.28	5025.72
972.44	4939.70
972.60	4878.26
972.76	5009.33
972.93	5134.26
973.09	5025.72
973.25	5046.20
973.42	4927.41
973.58	5033.91
973.74	4970.42
973.90	4964.28
974.07	4841.40
974.23	4997.04
974.39	4964.28
974.55	4882.36
974.72	4863.93
974.88	4861.88
975.04	4804.53
975.20	4825.01
975.37	4929.46
975.53	4820.92
975.69	5066.67
975.85	4700.09
976.01	4763.58
976.18	4640.70
976.34	4777.91
976.50	4880.31
976.66	4741.05
976.83	4806.58
976.99	4777.91
977.15	4784.06
977.31	4460.48
977.47	4853.69
977.64	4739.00
977.80	4646.84
977.96	4720.57
978.12	4634.55
978.29	4581.31
978.45	4577.21
978.61	4601.79
978.77	4753.34
978.93	4575.16
979.10	4478.91
979.26	4620.22
979.42	4652.98
979.58	4558.78
979.74	4517.82
979.91	4581.31
980.07	4485.05
980.23	4407.23
980.39	4495.29
980.55	4464.57
980.71	4501.44
980.88	4407.23
981.04	4442.04
981.20	4450.24
981.36	4372.41
981.52	4483.00
981.68	4448.19
981.85	4554.68
982.01	4403.13
982.17	4437.95
982.33	4276.16
982.49	4448.19
982.65	4427.71
982.82	4401.08
982.98	4470.72
983.14	4337.60
983.30	4583.35
983.46	4337.60
983.62	4218.82
983.79	4218.82
983.95	4188.10
984.11	4247.49
984.27	4237.25
984.43	4294.59
984.59	4143.04
984.75	4345.79
984.91	4239.30
985.08	4263.87
985.24	4038.59
985.40	4136.90
985.56	4153.28
985.72	4177.86
985.88	4255.68
986.04	4063.17
986.20	4083.65
986.37	4147.14
986.53	4044.74
986.69	4089.79
986.85	3946.44
987.01	4102.08
987.17	4108.23
987.33	3977.16
987.49	4057.03
987.65	4091.84
987.82	4032.45
987.98	3928.00
988.14	3911.62
988.30	4052.93
988.46	4073.41
988.62	4020.16
988.78	4097.99
988.94	3977.16
989.10	3962.82
989.26	3858.37
989.42	3899.33
989.59	3643.34
989.75	3839.94
989.91	3862.47
990.07	3796.93
990.23	3813.32
990.39	3817.41
990.55	3893.19
990.71	3915.72
990.87	3856.33
991.03	3993.54
991.19	3680.20
991.35	3725.26
991.51	3784.65
991.67	3827.65
991.83	3778.50
992.00	3866.56
992.16	3903.43
992.32	3776.45
992.48	3796.93
992.64	3698.63
992.80	3809.22
992.96	3692.49
993.12	3729.35
993.28	3858.37
993.44	3698.63
993.60	3653.58
993.76	3622.86
993.92	3624.90
994.08	3794.89
994.24	3637.19
994.40	3657.67
994.56	3690.44
994.72	3514.31
994.88	3590.09
995.04	3629.00
995.20	3606.47
995.36	3567.56
995.52	3502.03
995.68	3602.38
995.84	3446.73
996.00	3698.63
996.16	3561.42
996.32	3547.08
996.48	3477.45
996.64	3530.70
996.80	3442.64
996.96	3522.51
997.12	3469.26
997.28	3401.68
997.44	3424.20
997.60	3524.55
997.76	3461.07
997.92	3403.72
998.08	3332.05
998.24	3354.57
998.40	3370.96
998.56	3461.07
998.72	3391.44
998.88	3366.86
999.04	3432.40
999.20	3379.15
999.36	3317.71
999.52	3317.71
999.68	3354.57
999.84	3297.23
1000.00	3379.15
1000.16	3309.52
1000.32	3221.45
1000.48	3254.22
1000.64	3123.15
1000.80	3168.21
1000.95	3246.03
1001.11	3229.65
1001.27	3196.88
1001.43	3254.22
1001.59	3123.15
1001.75	3127.25
1001.91	3157.97
1002.07	3141.58
1002.23	3129.30
1002.39	3166.16
1002.55	3121.10
1002.71	3051.47
1002.87	3254.22
1003.03	3067.86
1003.19	3147.73
1003.34	3080.14
1003.50	3059.67
1003.66	3063.76
1003.82	3121.10
1003.98	3047.38
1004.14	3024.85
1004.30	3000.27
1004.46	3125.20
1004.62	3057.62
1004.78	3080.14
1004.94	3030.99
1005.09	3035.09
1005.25	3053.52
1005.41	3057.62
1005.57	2985.94
1005.73	3010.51
1005.89	2959.31
1006.05	3041.23
1006.21	2957.27
1006.37	2985.94
1006.52	2990.03
1006.68	2926.55
1006.84	3006.42
1007.00	2879.44
1007.16	2957.27
1007.32	2797.53
1007.48	2897.88
1007.64	2912.21
1007.79	2973.65
1007.95	2887.64
1008.11	2936.79
1008.27	2820.05
1008.43	2918.36
1008.59	2766.81
1008.75	2854.87
1008.91	2920.40
1009.06	2887.64
1009.22	2910.16
1009.38	2748.37
1009.54	2854.87
1009.70	2723.80
1009.86	2762.71
1010.01	2760.66
1010.17	2781.14
1010.33	2822.10
1010.49	2779.09
1010.65	2858.96
1010.81	2777.05
1010.96	2779.09
1011.12	2668.50
1011.28	2607.06
1011.44	2758.61
1011.60	2734.04
1011.76	2736.09
1011.91	2754.52
1012.07	2619.35
1012.23	2580.44
1012.39	2605.02
1012.55	2744.28
1012.71	2635.74
1012.86	2672.60
1013.02	2564.06
1013.18	2600.92
1013.34	2672.60
1013.50	2637.78
1013.65	2682.84
1013.81	2562.01
1013.97	2611.16
1014.13	2557.91
1014.29	2516.95
1014.44	2631.64
1014.60	2465.75
1014.76	2641.88
1014.92	2600.92
1015.07	2576.34
1015.23	2602.97
1015.39	2582.49
1015.55	2461.66
1015.71	2498.52
1015.86	2469.85
1016.02	2492.38
1016.18	2471.90
1016.34	2467.80
1016.49	2484.19
1016.65	2551.77
1016.81	2465.75
1016.97	2469.85
1017.12	2494.43
1017.28	2353.12
1017.44	2295.77
1017.60	2437.08
1017.75	2387.93
1017.91	2406.36
1018.07	2475.99
1018.23	2336.73
1018.38	2379.74
1018.54	2326.49
1018.70	2453.47
1018.86	2369.50
1019.01	2381.79
1019.17	2424.80
1019.33	2467.80
1019.49	2459.61
1019.64	2344.92
1019.80	2326.49
1019.96	2342.88
1020.12	2340.83
1020.27	2254.81
1020.43	2369.50
1020.59	2293.72
1020.74	2287.58
1020.90	2295.77
1021.06	2213.85
1021.22	2240.48
1021.37	2248.67
1021.53	2297.82
1021.69	2256.86
1021.84	2215.90
1022.00	2285.53
1022.16	2172.89
1022.31	2232.29
1022.47	2277.34
1022.63	2267.10
1022.79	2160.61
1022.94	2111.46
1023.10	2383.84
1023.26	2189.28
1023.41	2170.85
1023.57	2084.83
1023.73	2256.86
1023.88	2164.70
1024.04	2146.27
1024.20	2142.18
1024.35	2164.70
1024.51	2287.58
1024.67	2281.44
1024.82	2209.76
1024.98	2060.26
1025.14	2152.42
1025.29	2031.58
1025.45	2166.75
1025.61	1974.24
1025.76	2090.98
1025.92	2052.06
1026.08	2101.22
1026.23	2154.46
1026.39	2148.32
1026.55	1996.77
1026.70	2076.64
1026.86	2166.75
1027.02	2133.98
1027.17	1996.77
1027.33	2156.51
1027.48	2047.97
1027.64	1949.67
1027.80	1964.00
1027.95	2088.93
1028.11	2027.49
1028.27	2080.74
1028.42	2033.63
1028.58	2047.97
1028.73	1964.00
1028.89	1931.23
1029.05	2146.27
1029.20	1972.19
>>>>>End Processed Spectral Data<<<<<
