SpectraSuite Data File
++++++++++++++++++++++++++++++++++++
Date: Fri Jun 02 14:52:28 CEST 2017
User: INFO_000
Dark Spectrum Present: No
Reference Spectrum Present: No
Number of Sampled Component Spectra: 1
Spectrometers: USB4H00879
Integration Time (usec): 80000 (USB4H00879)
Spectra Averaged: 1 (USB4H00879)
Boxcar Smoothing: 0 (USB4H00879)
Correct for Electrical Dark: No (USB4H00879)
Strobe/Lamp Enabled: No (USB4H00879)
Correct for Detector Non-linearity: No (USB4H00879)
Correct for Stray Light: No (USB4H00879)
Number of Pixels in Processed Spectrum: 3648
>>>>>Begin Processed Spectral Data<<<<<
345.13	1230.83
345.34	1230.83
345.56	1230.83
345.78	1286.12
345.99	1288.17
346.21	1746.92
346.42	1730.53
346.64	1667.05
346.86	1771.49
347.07	1671.14
347.29	1634.28
347.50	1578.98
347.72	1646.57
347.94	1824.74
348.15	1558.50
348.37	1613.80
348.59	1718.25
348.80	1632.23
349.02	1787.88
349.23	1906.66
349.45	1857.51
349.67	1912.80
349.88	1839.08
350.10	1955.81
350.31	1753.06
350.53	1841.12
350.75	2033.63
350.96	1843.17
351.18	1914.85
351.39	1877.99
351.61	1822.69
351.82	1890.28
352.04	1841.12
352.26	1877.99
352.47	1918.95
352.69	1890.28
352.90	1777.64
353.12	1814.50
353.34	1896.42
353.55	1875.94
353.77	1904.61
353.98	1816.55
354.20	1812.45
354.41	1947.62
354.63	1920.99
354.85	2013.15
355.06	1912.80
355.28	1771.49
355.49	1914.85
355.71	1886.18
355.92	1871.84
356.14	1880.04
356.35	1853.41
356.57	1863.65
356.79	2007.01
357.00	1785.83
357.22	1951.71
357.43	1855.46
357.65	2035.68
357.86	1884.13
358.08	1863.65
358.29	1992.67
358.51	1941.47
358.72	1937.38
358.94	1937.38
359.16	1976.29
359.37	2004.96
359.59	1888.23
359.80	1910.75
360.02	2017.25
360.23	1966.05
360.45	1998.82
360.66	1964.00
360.88	1902.56
361.09	1929.19
361.31	2058.21
361.52	1927.14
361.74	2045.92
361.95	2097.12
362.17	1884.13
362.38	2062.30
362.60	2023.39
362.81	1984.48
363.03	1970.15
363.24	1912.80
363.46	2062.30
363.67	2017.25
363.89	2002.91
364.10	2066.40
364.32	1935.33
364.53	1976.29
364.75	1877.99
364.96	2027.49
365.18	2039.78
365.39	2029.54
365.61	1974.24
365.82	2174.94
366.04	2054.11
366.25	1912.80
366.47	2076.64
366.68	2025.44
366.90	1943.52
367.11	2107.36
367.33	2105.31
367.54	2054.11
367.76	2021.35
367.97	2133.98
368.19	2029.54
368.40	2095.07
368.62	1978.34
368.83	1998.82
369.05	2138.08
369.26	2033.63
369.48	2052.06
369.69	2000.87
369.91	2119.65
370.12	2002.91
370.33	2101.22
370.55	2027.49
370.76	2019.30
370.98	2158.56
371.19	2113.50
371.41	2043.87
371.62	2101.22
371.84	2017.25
372.05	2197.47
372.27	2109.41
372.48	2068.45
372.69	2162.66
372.91	2058.21
373.12	2181.09
373.34	2170.85
373.55	2195.42
373.77	2166.75
373.98	2101.22
374.20	2217.95
374.41	2303.96
374.62	2160.61
374.84	2172.89
375.05	2205.66
375.27	2170.85
375.48	2209.76
375.70	2244.57
375.91	2242.53
376.12	2314.20
376.34	2267.10
376.55	2205.66
376.77	2242.53
376.98	2211.81
377.19	2191.33
377.41	2105.31
377.62	2301.92
377.84	2297.82
378.05	2361.31
378.27	2133.98
378.48	2379.74
378.69	2342.88
378.91	2344.92
379.12	2185.18
379.34	2275.29
379.55	2318.30
379.76	2205.66
379.98	2361.31
380.19	2258.91
380.41	2203.61
380.62	2377.69
380.83	2306.01
381.05	2205.66
381.26	2461.66
381.47	2316.25
381.69	2203.61
381.90	2437.08
382.12	2398.17
382.33	2273.25
382.54	2324.44
382.76	2320.35
382.97	2330.59
383.19	2263.01
383.40	2322.40
383.61	2326.49
383.83	2353.12
384.04	2394.08
384.25	2320.35
384.47	2449.37
384.68	2439.13
384.89	2338.78
385.11	2340.83
385.32	2432.99
385.54	2400.22
385.75	2387.93
385.96	2435.03
386.18	2394.08
386.39	2435.03
386.60	2387.93
386.82	2408.41
387.03	2418.65
387.24	2514.91
387.46	2498.52
387.67	2471.90
387.88	2574.30
388.10	2500.57
388.31	2523.10
388.52	2527.19
388.74	2496.47
388.95	2553.82
389.16	2502.62
389.38	2568.15
389.59	2631.64
389.80	2613.21
390.02	2648.02
390.23	2611.16
390.44	2596.82
390.66	2623.45
390.87	2467.80
391.08	2611.16
391.30	2641.88
391.51	2664.41
391.72	2676.70
391.94	2678.74
392.15	2652.12
392.36	2617.30
392.58	2625.50
392.79	2629.59
393.00	2764.76
393.22	2756.57
393.43	2867.16
393.64	2748.37
393.85	2830.29
394.07	2705.37
394.28	2682.84
394.49	2736.09
394.71	2781.14
394.92	2852.82
395.13	2715.61
395.35	2707.41
395.56	2682.84
395.77	2856.92
395.98	2863.06
396.20	2809.81
396.41	2871.25
396.62	2863.06
396.84	2863.06
397.05	2854.87
397.26	2912.21
397.47	3014.61
397.69	2856.92
397.90	3039.19
398.11	2969.55
398.32	2873.30
398.54	2877.40
398.75	2906.07
398.96	2924.50
399.18	3162.06
399.39	3024.85
399.60	3102.67
399.81	3014.61
400.03	2955.22
400.24	3211.22
400.45	2895.83
400.66	3049.43
400.88	3067.86
401.09	3325.90
401.30	3170.26
401.51	3211.22
401.73	3129.30
401.94	3211.22
402.15	3200.98
402.36	3196.88
402.58	3092.43
402.79	3121.10
403.00	3190.74
403.21	3293.13
403.43	3233.74
403.64	3299.28
403.85	3080.14
404.06	3344.33
404.27	3166.16
404.49	3313.61
404.70	3182.54
404.91	3297.23
405.12	3225.55
405.34	3227.60
405.55	3508.17
405.76	3268.56
405.97	3340.24
406.19	3551.18
406.40	3317.71
406.61	3241.93
406.82	3319.76
407.03	3276.75
407.25	3313.61
407.46	3448.78
407.67	3485.64
407.88	3485.64
408.09	3309.52
408.31	3510.22
408.52	3434.44
408.73	3426.25
408.94	3413.96
409.15	3403.72
409.37	3461.07
409.58	3547.08
409.79	3565.51
410.00	3639.24
410.21	3422.16
410.43	3483.59
410.64	3487.69
410.85	3643.34
411.06	3692.49
411.27	3592.14
411.48	3743.69
411.70	3524.55
411.91	3665.86
412.12	3688.39
412.33	3624.90
412.54	3739.59
412.76	3794.89
412.97	3772.36
413.18	3495.88
413.39	3690.44
413.60	3829.70
413.81	3764.17
414.03	3774.41
414.24	3606.47
414.45	3860.42
414.66	3692.49
414.87	3813.32
415.08	3784.65
415.30	3911.62
415.51	3844.04
415.72	3704.78
415.93	3768.26
416.14	3860.42
416.35	3971.01
416.56	3844.04
416.78	3819.46
416.99	3956.68
417.20	3901.38
417.41	3971.01
417.62	4104.13
417.83	4011.97
418.04	4028.35
418.26	4136.90
418.47	3981.25
418.68	4083.65
418.89	4112.32
419.10	4227.01
419.31	4161.47
419.52	4243.39
419.73	4147.14
419.95	4233.15
420.16	4042.69
420.37	4159.42
420.58	4059.07
420.79	4007.87
421.00	4175.81
421.21	4218.82
421.42	4077.51
421.63	4296.64
421.85	4140.99
422.06	4247.49
422.27	4251.58
422.48	4298.69
422.69	4394.94
422.90	4370.37
423.11	4450.24
423.32	4403.13
423.53	4517.82
423.75	4440.00
423.96	4544.44
424.17	4495.29
424.38	4542.39
424.59	4472.76
424.80	4671.42
425.01	4669.37
425.22	4450.24
425.43	4421.56
425.64	4753.34
425.85	4802.49
426.06	4732.86
426.28	4579.26
426.49	4515.77
426.70	4612.03
426.91	4671.42
427.12	4847.54
427.33	4612.03
427.54	4734.90
427.75	4827.06
427.96	4986.80
428.17	4829.11
428.38	4792.25
428.59	4894.65
428.80	4929.46
429.01	5017.52
429.23	4919.22
429.44	5007.28
429.65	5160.88
429.86	5173.17
430.07	4949.94
430.28	4829.11
430.49	5132.21
430.70	5244.85
430.91	5242.80
431.12	5038.00
431.33	5107.63
431.54	5177.26
431.75	5113.78
431.96	5078.96
432.17	5164.98
432.38	5246.90
432.59	5380.01
432.80	5320.62
433.01	5275.57
433.22	5255.09
433.43	5447.60
433.64	5324.72
433.85	5197.74
434.06	5455.79
434.27	5337.01
434.49	5392.30
434.70	5492.65
434.91	5441.45
435.12	5554.09
435.33	5519.28
435.54	5636.01
435.75	5279.66
435.96	5529.52
436.17	5394.35
436.38	5541.80
436.59	5668.78
436.80	5584.81
437.01	5957.54
437.22	5812.14
437.43	5642.15
437.64	5466.03
437.85	5738.41
438.06	5844.90
438.27	5560.24
438.48	5775.27
438.69	5873.57
438.90	5808.04
439.11	5717.93
439.32	5914.53
439.53	5734.31
439.74	5832.62
439.95	5967.78
440.16	5861.29
440.37	5869.48
440.57	5820.33
440.78	5902.25
440.99	6082.47
441.20	6107.04
441.41	5869.48
441.62	5947.30
441.83	5869.48
442.04	6109.09
442.25	6072.23
442.46	6123.43
442.67	6274.98
442.88	6586.27
443.09	5887.91
443.30	6145.95
443.51	6158.24
443.72	6508.44
443.93	6238.11
444.14	6504.35
444.35	6070.18
444.56	6338.46
444.77	6281.12
444.98	6520.73
445.19	6483.87
445.40	6483.87
445.61	6352.80
445.81	6600.60
446.02	6492.06
446.23	6473.63
446.44	6379.42
446.65	6604.70
446.86	6514.59
447.07	6735.77
447.28	6719.39
447.49	6703.00
447.70	6868.89
447.91	6752.15
448.12	6877.08
448.33	6842.26
448.54	6856.60
448.74	6653.85
448.95	6887.32
449.16	6754.20
449.37	7161.75
449.58	6881.18
449.79	7147.41
450.00	6772.63
450.21	7059.35
450.42	7219.09
450.63	7145.36
450.84	7112.60
451.05	7126.93
451.25	7276.43
451.46	7190.42
451.67	7450.51
451.88	7296.91
452.09	7253.91
452.30	7143.32
452.51	7276.43
452.72	7389.07
452.93	7638.92
453.13	7309.20
453.34	7397.26
453.55	7520.14
453.76	7413.65
453.97	7720.84
454.18	7653.26
454.39	7774.09
454.60	7573.39
454.81	7626.64
455.01	7825.29
455.22	7473.04
455.43	7759.75
455.64	8040.33
455.85	8062.85
456.06	8064.90
456.27	7780.23
456.48	7792.52
456.68	8161.16
456.89	8085.38
457.10	8157.06
457.31	8271.75
457.52	8161.16
457.73	8365.95
457.94	8492.93
458.14	8193.92
458.35	8574.85
458.56	8605.56
458.77	8308.61
458.98	8583.04
459.19	8527.74
459.39	8578.94
459.60	8826.75
459.81	8611.71
460.02	9000.82
460.23	8722.30
460.44	8927.10
460.65	8957.82
460.85	8863.61
461.06	9172.85
461.27	8765.31
461.48	9338.74
461.69	9357.17
461.89	8908.66
462.10	9176.95
462.31	9092.98
462.52	9156.47
462.73	9320.31
462.94	9697.13
463.14	9391.98
463.35	9389.94
463.56	9820.01
463.77	9828.20
463.98	9445.23
464.18	9680.75
464.39	10035.05
464.60	10063.72
464.81	9932.65
465.02	9690.99
465.23	10059.62
465.43	9949.03
465.64	10166.12
465.85	9953.13
466.06	10116.97
466.27	10403.68
466.47	10205.03
466.68	10286.95
466.89	10461.02
467.10	10405.73
467.30	10233.70
467.51	10555.23
467.72	10880.86
467.93	10370.91
468.14	10854.23
468.34	10850.14
468.55	10927.96
468.76	10884.95
468.97	10774.36
469.17	10872.67
469.38	11118.42
469.59	11251.54
469.80	11222.87
470.01	11061.08
470.21	11161.43
470.42	11292.50
470.63	11513.68
470.84	11624.27
471.04	11724.62
471.25	11698.00
471.46	11626.32
471.67	11941.71
471.87	11755.34
472.08	11960.14
472.29	12062.54
472.50	11820.88
472.70	12013.38
472.91	12042.06
473.12	12267.33
473.33	12392.26
473.53	12377.92
473.74	12433.22
473.95	12420.93
474.16	12705.60
474.36	12689.21
474.57	12934.97
474.78	12898.11
474.99	12922.68
475.19	12846.91
475.40	13166.39
475.61	13236.02
475.81	13213.49
476.02	13430.58
476.23	13389.62
476.44	13332.28
476.64	13739.82
476.85	13887.28
477.06	13784.88
477.27	14243.62
477.47	14227.24
477.68	14018.35
477.89	14237.48
478.09	14284.58
478.30	14180.14
478.51	14440.23
478.71	14518.05
478.92	14665.50
479.13	14647.07
479.34	14935.84
479.54	14882.59
479.75	14763.81
479.96	14817.05
480.16	15271.70
480.37	15288.09
480.58	15157.02
480.78	15476.50
480.99	15380.25
481.20	15703.82
481.41	15580.95
481.61	15740.69
481.82	15961.87
482.03	15904.53
482.23	15709.97
482.44	15927.05
482.65	16154.38
482.85	16537.35
483.06	16344.84
483.27	16363.27
483.47	16365.32
483.68	16535.30
483.89	16826.11
484.09	16338.69
484.30	16928.51
484.51	16918.27
484.71	16996.09
484.92	17141.50
485.13	17284.86
485.33	17256.18
485.54	17538.80
485.75	17493.75
485.95	17719.03
486.16	17719.03
486.37	17925.87
486.57	17716.98
486.78	17716.98
486.98	17921.77
487.19	18050.80
487.40	18145.00
487.60	18175.72
487.81	18493.16
488.02	18327.27
488.22	18353.90
488.43	18409.19
488.64	18425.57
488.84	18585.32
489.05	18779.87
489.25	18726.63
489.46	19250.91
489.67	18962.14
489.87	19277.53
490.08	19226.33
490.29	19535.57
490.49	19631.83
490.70	19488.47
490.90	19838.67
491.11	19666.64
491.32	19930.83
491.52	19853.01
491.73	19846.87
491.94	20170.44
492.14	19969.74
492.35	19975.89
492.55	20532.93
492.76	20467.40
492.97	20455.11
493.17	20467.40
493.38	20913.86
493.58	20776.64
493.79	20901.57
494.00	20623.05
494.20	21077.69
494.41	21384.89
494.61	21116.61
494.82	21008.06
495.02	21094.08
495.23	21315.26
495.44	21458.62
495.64	21278.40
495.85	21599.93
496.05	21827.25
496.26	21718.71
496.47	21995.18
496.67	21958.32
496.88	21980.85
497.08	21937.84
497.29	22208.17
497.49	22185.65
497.70	22253.23
497.91	22402.73
498.11	22578.86
498.32	22607.53
498.52	22591.14
498.73	23180.96
498.93	22970.02
499.14	23219.87
499.34	22984.35
499.55	23367.32
499.76	22924.96
499.96	23350.94
500.17	23064.22
500.37	23297.69
500.58	23330.46
500.78	23482.01
500.99	23826.07
501.19	23701.14
501.40	23590.55
501.60	23637.66
501.81	23578.26
502.02	23830.16
502.22	23715.48
502.43	24209.04
502.63	24315.53
502.84	24250.00
503.04	24405.64
503.25	24237.71
503.45	24434.32
503.66	24649.35
503.86	24426.12
504.07	24835.72
504.27	24649.35
504.48	24981.12
504.68	24788.61
504.89	25183.87
505.09	24876.68
505.30	24979.07
505.50	25104.00
505.71	25130.62
505.91	25157.25
506.12	25675.38
506.32	25654.90
506.53	25321.09
506.73	25661.05
506.94	25597.56
507.14	25681.53
507.35	25767.54
507.55	25734.78
507.76	25785.97
507.96	25898.61
508.17	26207.86
508.37	26058.35
508.58	25996.92
508.78	26136.18
508.99	26412.65
509.19	26334.83
509.40	26275.44
509.60	26533.48
509.81	26715.75
510.01	26451.56
510.22	26596.97
510.42	26631.79
510.63	26869.35
510.83	26930.79
511.04	26812.01
511.24	27033.19
511.44	26826.34
511.65	27068.00
511.85	27033.19
512.06	27221.60
512.26	27293.28
512.47	27160.16
512.67	27504.22
512.88	27530.84
513.08	27299.42
513.29	27608.67
513.49	27752.02
513.69	27557.47
513.90	27876.95
514.10	27690.59
514.31	27778.65
514.51	28038.74
514.72	28132.95
514.92	28061.27
515.13	28294.74
515.33	28235.35
515.53	28335.70
515.74	28616.27
515.94	28909.13
516.15	28632.65
516.35	28442.19
516.56	28849.74
516.76	28644.94
516.96	28868.17
517.17	29267.52
517.37	28794.44
517.58	29113.92
517.78	29294.14
517.99	29234.75
518.19	29224.51
518.39	29249.09
518.60	29398.59
518.80	29390.40
519.01	29642.30
519.21	29468.22
519.41	29795.90
519.62	29685.31
519.82	29853.24
520.03	30182.96
520.23	29851.19
520.43	29978.17
520.64	30291.51
520.84	30289.46
521.05	30443.06
521.25	30522.93
521.45	30602.80
521.66	30596.65
521.86	30588.46
522.07	30402.10
522.27	30709.29
522.47	30533.17
522.68	31229.48
522.88	30881.32
523.08	31108.65
523.29	30971.43
523.49	31487.52
523.70	31135.27
523.90	31514.14
524.10	31585.82
524.31	31639.07
524.51	31641.12
524.71	32241.17
524.92	31862.30
525.12	31979.03
525.33	32237.08
525.53	32400.91
525.73	32157.21
525.94	32247.32
526.14	32347.67
526.34	32505.36
526.55	32570.90
526.75	32685.58
526.95	32589.33
527.16	32929.29
527.36	32751.12
527.56	32904.71
527.77	33340.93
527.97	32900.62
528.17	33099.27
528.38	33539.58
528.58	33347.08
528.78	33289.73
528.99	33412.61
529.19	33811.96
529.39	33486.34
529.60	34221.56
529.80	33566.21
530.00	33725.95
530.21	34235.89
530.41	34369.01
530.61	34074.10
530.82	34385.40
531.02	34434.55
531.22	34420.21
531.43	34428.40
531.63	34475.51
531.83	34797.04
532.04	35139.05
532.24	34813.42
532.44	35309.03
532.64	35175.91
532.85	35284.45
533.05	35806.69
533.25	35464.67
533.46	35313.13
533.66	36148.70
533.86	35833.31
534.07	35886.56
534.27	35743.20
534.47	36267.48
534.67	36167.13
534.88	35921.37
535.08	36304.34
535.28	36158.94
535.49	36457.94
535.69	37037.51
535.89	36646.35
536.09	36748.75
536.30	37002.70
536.50	36758.99
536.70	37156.30
536.91	36855.25
537.11	37160.39
537.31	37164.49
537.51	37215.69
537.72	38157.75
537.92	37363.14
538.12	38448.57
538.32	37395.91
538.53	37977.53
538.73	37486.02
538.93	37602.75
539.13	38151.61
539.34	38028.73
539.54	37885.37
539.74	38266.30
539.94	38182.33
540.15	37789.12
540.35	38555.06
540.55	38243.77
540.75	38079.93
540.96	38577.59
541.16	38454.71
541.36	38641.07
541.56	38395.32
541.77	39005.61
541.97	39022.00
542.17	38868.40
542.37	39138.73
542.58	38974.89
542.78	39079.34
542.98	39404.97
543.18	39445.93
543.38	39839.14
543.59	39513.51
543.79	39234.99
543.99	39255.46
544.19	39456.17
544.40	39505.32
544.60	39804.32
544.80	40117.66
545.00	40207.77
545.20	40150.43
545.41	39820.70
545.61	40336.79
545.81	40367.51
546.01	40424.86
546.21	40107.42
546.42	40037.79
546.62	40580.50
546.82	40056.22
547.02	40400.28
547.22	40322.46
547.43	40193.43
547.63	40144.28
547.83	40600.98
548.03	40162.72
548.23	40691.09
548.44	40500.63
548.64	40764.82
548.84	41405.83
549.04	40748.43
549.24	40740.24
549.45	40715.67
549.65	40795.54
549.85	40959.38
550.05	41428.36
550.25	40856.98
550.45	41502.09
550.66	41018.77
550.86	41133.45
551.06	41612.68
551.26	41362.82
551.46	41524.61
551.66	41436.55
551.87	41778.56
552.07	41295.24
552.27	41868.67
552.47	41543.05
552.67	41637.25
552.87	41530.76
553.07	41534.85
553.28	41590.15
553.48	42046.85
553.68	41485.70
553.88	42280.31
554.08	41692.55
554.28	41768.32
554.48	41790.85
554.69	41870.72
554.89	41829.76
555.09	41973.12
555.29	41946.50
555.49	41897.34
555.69	42210.68
555.89	42108.29
556.10	42743.16
556.30	41805.19
556.50	42317.18
556.70	42206.59
556.90	42579.32
557.10	42726.77
557.30	42145.15
557.50	42837.36
557.70	42493.30
557.91	42798.45
558.11	42478.97
558.31	42685.81
558.51	42169.72
558.71	42503.54
558.91	42753.40
559.11	42769.78
559.31	42587.51
559.51	42646.90
559.72	42909.04
559.92	42540.41
560.12	42661.24
560.32	42556.79
560.52	42550.65
560.72	43208.04
560.92	43173.23
561.12	42577.27
561.32	43457.90
561.52	43087.21
561.72	43531.62
561.93	42913.14
562.13	43138.41
562.33	43216.24
562.53	43474.28
562.73	43048.30
562.93	43332.97
563.13	43427.18
563.33	43257.20
563.53	43464.04
563.73	43107.69
563.93	43341.16
564.13	43816.29
564.33	43568.49
564.53	43668.84
564.74	43394.41
564.94	43373.93
565.14	43394.41
565.34	43128.17
565.54	43701.61
565.74	43804.00
565.94	43814.24
566.14	43982.18
566.34	43386.22
566.54	43896.16
566.74	43971.94
566.94	44320.09
567.14	44154.21
567.34	43939.17
567.54	44485.98
567.74	44295.52
567.94	43990.37
568.14	44488.03
568.34	44293.47
568.54	44252.51
568.74	44031.33
568.94	44154.21
569.14	44627.29
569.34	44414.30
569.54	44383.58
569.75	44010.85
569.95	44500.31
570.15	45266.25
570.35	44453.21
570.55	44723.54
570.75	44387.67
570.95	44756.31
571.15	44883.28
571.35	44610.90
571.55	44944.72
571.75	44997.97
571.95	45000.02
572.15	44473.69
572.35	44889.43
572.55	45178.19
572.75	45028.69
572.95	45303.12
573.15	45290.83
573.35	45495.63
573.55	44903.76
573.75	45241.68
573.95	45481.29
574.15	45555.02
574.35	45409.61
574.55	45325.64
574.75	45268.30
574.95	45626.70
575.15	45440.33
575.34	45393.23
575.54	45722.95
575.74	45999.43
575.94	46073.15
576.14	45741.38
576.34	46175.55
576.54	46413.12
576.74	46402.88
576.94	45966.66
577.14	46290.24
577.34	46495.03
577.54	46257.47
577.74	46402.88
577.94	46488.89
578.14	46433.60
578.34	46765.37
578.54	45872.45
578.74	46650.68
578.94	46884.15
579.14	46728.50
579.34	46691.64
579.54	46916.92
579.74	47310.13
579.94	47379.76
580.13	47897.89
580.33	47496.49
580.53	47398.19
580.73	47613.23
580.93	47146.29
581.13	47138.10
581.33	47775.02
581.53	47686.95
581.73	47998.24
581.93	47828.26
582.13	47893.80
582.33	47953.19
582.53	47951.14
582.73	48086.31
582.92	48096.55
583.12	48428.32
583.32	48088.35
583.52	48022.82
583.72	48137.51
583.92	48014.63
584.12	48260.38
584.32	48725.27
584.52	48383.26
584.72	48491.80
584.92	48690.46
585.11	48993.56
585.31	48450.84
585.51	48936.21
585.71	49267.98
585.91	49204.50
586.11	48657.69
586.31	48813.34
586.51	49046.80
586.71	49462.54
586.91	49464.59
587.10	49474.83
587.30	49055.00
587.50	49427.73
587.70	49503.50
587.90	49925.38
588.10	49566.99
588.30	49773.83
588.50	49724.68
588.69	49933.57
588.89	49509.64
589.09	49992.97
589.29	50029.83
589.49	50230.53
589.69	49861.90
589.89	50025.73
590.08	50033.92
590.28	49782.02
590.48	49941.77
590.68	50230.53
590.88	50304.26
591.08	50308.35
591.28	50101.51
591.47	50865.40
591.67	50840.82
591.87	51074.29
592.07	51033.33
592.27	50693.37
592.47	50650.36
592.67	50910.46
592.86	50468.09
593.06	51059.96
593.26	51117.30
593.46	51221.75
593.66	50978.04
593.86	51375.34
594.05	51326.19
594.25	51502.32
594.45	51248.37
594.65	51188.98
594.85	51332.34
595.05	51287.28
595.24	51680.49
595.44	51524.85
595.64	51784.94
595.84	51866.86
596.04	51858.66
596.23	52323.55
596.43	52065.51
596.63	51987.69
596.83	51854.57
597.03	51999.97
597.22	52763.87
597.42	51950.82
597.62	52180.20
597.82	52241.63
598.02	52528.35
598.21	52622.56
598.41	52083.94
598.61	52434.14
598.81	52653.28
599.01	52907.22
599.20	52847.83
599.40	52575.45
599.60	53040.34
599.80	53122.26
600.00	53208.28
600.19	53296.34
600.39	53058.77
600.59	53269.72
600.79	53351.63
600.98	53040.34
601.18	53564.62
601.38	54080.71
601.58	53642.45
601.78	53693.64
601.97	53804.24
602.17	54291.65
602.37	53753.04
602.57	53791.95
602.76	54060.23
602.96	53601.49
603.16	54000.84
603.36	53929.16
603.55	54435.01
603.75	54451.39
603.95	54285.51
604.15	54248.64
604.34	54392.00
604.54	54858.94
604.74	54504.64
604.94	54527.17
605.13	54566.08
605.33	54633.66
605.53	54529.22
605.73	54770.88
605.92	54867.13
606.12	55186.61
606.32	54983.86
606.52	55035.06
606.71	55389.36
606.91	55313.59
607.11	54779.07
607.30	54981.82
607.50	55313.59
607.70	55530.67
607.90	55555.25
608.09	55579.82
608.29	55608.50
608.49	55415.99
608.68	56050.86
608.88	55776.43
609.08	55538.86
609.28	55596.21
609.47	55907.50
609.67	56112.30
609.87	56042.66
610.06	56032.42
610.26	55989.42
610.46	56054.95
610.66	55499.95
610.85	55860.40
611.05	55739.57
611.25	56155.30
611.44	55669.93
611.64	56306.85
611.84	56054.95
612.03	55981.23
612.23	56013.99
612.43	56208.55
612.62	56241.32
612.82	56308.90
613.02	56005.80
613.21	56247.46
613.41	56276.13
613.61	56298.66
613.80	55925.93
614.00	56423.59
614.20	56487.07
614.39	56634.53
614.59	56181.93
614.79	56370.34
614.98	56448.16
615.18	56423.59
615.38	56472.74
615.57	55927.98
615.77	56448.16
615.97	56458.40
616.16	56575.14
616.36	56267.94
616.56	56382.63
616.75	56554.66
616.95	55866.54
617.15	56302.76
617.34	56505.51
617.54	56480.93
617.74	56824.99
617.93	56341.67
618.13	55962.79
618.32	56319.14
618.52	56044.71
618.72	56548.51
618.91	56540.32
619.11	55880.88
619.31	56143.02
619.50	56169.64
619.70	56161.45
619.90	56671.39
620.09	56368.29
620.29	56259.75
620.48	55958.70
620.68	56747.17
620.88	56233.13
621.07	56542.37
621.27	56759.45
621.46	56247.46
621.66	56247.46
621.86	56718.49
622.05	55899.31
622.25	56892.57
622.44	56321.19
622.64	56331.43
622.84	57035.93
623.03	56528.03
623.23	56274.09
623.42	56444.07
623.62	56558.75
623.82	56362.15
624.01	56226.98
624.21	56614.05
624.40	56038.57
624.60	56272.04
624.80	56315.04
624.99	55809.20
625.19	55966.89
625.38	56493.22
625.58	55911.59
625.77	56511.65
625.97	56222.89
626.17	56151.21
626.36	56206.50
626.56	56276.13
626.75	55751.85
626.95	56417.44
627.14	56167.59
627.34	56532.13
627.54	56140.97
627.73	56300.71
627.93	56169.64
628.12	55944.36
628.32	56155.30
628.51	55899.31
628.71	56208.55
628.90	56313.00
629.10	56278.18
629.30	56263.85
629.49	56630.43
629.69	55880.88
629.88	55934.12
630.08	56544.42
630.27	56007.85
630.47	56446.11
630.66	56128.68
630.86	56401.06
631.05	55375.03
631.25	56378.53
631.44	55678.13
631.64	56274.09
631.84	56186.02
632.03	56738.97
632.23	55938.22
632.42	56259.75
632.62	56147.11
632.81	55200.95
633.01	56267.94
633.20	55837.87
633.40	55858.35
633.59	55737.52
633.79	55604.40
633.98	56145.06
634.18	56218.79
634.37	56360.10
634.57	56341.67
634.76	56206.50
634.96	56212.65
635.15	56292.52
635.35	55688.37
635.54	55690.41
635.74	56456.35
635.93	55764.14
636.13	56335.52
636.32	56116.39
636.52	56050.86
636.71	56079.53
636.91	56073.38
637.10	56278.18
637.30	56104.10
637.49	56054.95
637.69	55710.89
637.88	56450.21
638.08	55669.93
638.27	56448.16
638.46	56108.20
638.66	55600.30
638.85	55821.48
639.05	56087.72
639.24	56151.21
639.44	55719.09
639.63	55882.92
639.83	56319.14
640.02	55981.23
640.22	56112.30
640.41	56792.22
640.61	56161.45
640.80	56431.78
640.99	55784.62
641.19	56446.11
641.38	56251.56
641.58	56161.45
641.77	55653.55
641.97	55774.38
642.16	56376.48
642.36	56276.13
642.55	56198.31
642.74	55895.21
642.94	56290.47
643.13	55837.87
643.33	56497.31
643.52	56145.06
643.72	56548.51
643.91	56190.12
644.10	56413.35
644.30	56212.65
644.49	55897.26
644.69	56224.93
644.88	56165.54
645.08	56087.72
645.27	56130.73
645.46	56001.71
645.66	56243.37
645.85	56163.50
646.05	56263.85
646.24	55989.42
646.43	56003.75
646.63	56630.43
646.82	56591.52
647.02	55829.68
647.21	56310.95
647.40	56229.03
647.60	56566.94
647.79	56392.87
647.99	56521.89
648.18	55833.77
648.37	56507.55
648.57	56718.49
648.76	56652.96
648.96	56358.05
649.15	56724.64
649.34	56425.64
649.54	56695.97
649.73	55993.51
649.92	56634.53
650.12	56525.99
650.31	56409.25
650.51	56689.82
650.70	56503.46
650.89	56317.09
651.09	56915.10
651.28	56968.35
651.47	56419.49
651.67	56462.50
651.86	56882.33
652.06	56333.48
652.25	56417.44
652.44	56528.03
652.64	56292.52
652.83	56179.88
653.02	56231.08
653.22	56175.78
653.41	56202.41
653.60	56325.28
653.80	55927.98
653.99	56480.93
654.18	56368.29
654.38	55934.12
654.57	56515.75
654.76	56644.77
654.96	56435.87
655.15	56071.34
655.34	56136.87
655.54	56122.54
655.73	56906.91
655.92	56788.13
656.12	56554.66
656.31	56478.88
656.50	56554.66
656.70	56235.17
656.89	56480.93
657.08	56425.64
657.28	56226.98
657.47	56366.24
657.66	56759.45
657.86	56351.91
658.05	56530.08
658.24	56870.04
658.43	56296.61
658.63	56525.99
658.82	56650.91
659.01	56636.58
659.21	56624.29
659.40	56958.11
659.59	56638.62
659.79	56695.97
659.98	56603.81
660.17	56865.95
660.36	56745.12
660.56	56657.06
660.75	56493.22
660.94	56788.13
661.14	56757.41
661.33	56499.36
661.52	56288.42
661.71	56911.00
661.91	56544.42
662.10	55944.36
662.29	56835.23
662.49	56603.81
662.68	56646.82
662.87	56497.31
663.06	56464.55
663.26	56474.79
663.45	57177.24
663.64	56669.34
663.83	57193.62
664.03	56726.69
664.22	56788.13
664.41	56681.63
664.60	56702.11
664.80	56769.69
664.99	56534.18
665.18	56865.95
665.37	57007.26
665.57	56669.34
665.76	56579.23
665.95	56595.62
666.14	56511.65
666.34	56509.60
666.53	56665.25
666.72	56417.44
666.91	56335.52
667.11	56300.71
667.30	56577.18
667.49	56356.00
667.68	56509.60
667.87	56710.30
668.07	56816.80
668.26	56630.43
668.45	56476.83
668.64	56550.56
668.84	57248.92
669.03	56917.15
669.22	56857.76
669.41	56605.86
669.60	56894.62
669.80	56444.07
669.99	56622.24
670.18	56646.82
670.37	56802.46
670.57	57230.49
670.76	56710.30
670.95	57105.56
671.14	56892.57
671.33	56788.13
671.53	57107.61
671.72	56423.59
671.91	56718.49
672.10	56415.40
672.29	56552.61
672.48	56657.06
672.68	56777.89
672.87	56732.83
673.06	56765.60
673.25	56489.12
673.44	56835.23
673.64	56415.40
673.83	56431.78
674.02	56779.93
674.21	56329.38
674.40	56509.60
674.59	56181.93
674.79	56472.74
674.98	56110.25
675.17	56263.85
675.36	56005.80
675.55	56439.97
675.74	56239.27
675.94	56345.76
676.13	56333.48
676.32	56849.56
676.51	56579.23
676.70	56591.52
676.89	56394.92
677.08	56773.79
677.28	56591.52
677.47	56845.47
677.66	56884.38
677.85	56446.11
678.04	56859.80
678.23	56824.99
678.42	57027.74
678.62	56724.64
678.81	56665.25
679.00	56493.22
679.19	56980.63
679.38	56411.30
679.57	56601.76
679.76	56546.47
679.96	56784.03
680.15	56411.30
680.34	56456.35
680.53	56521.89
680.72	56839.32
680.91	56878.24
681.10	56595.62
681.29	56640.67
681.48	56661.15
681.68	56290.47
681.87	56243.37
682.06	56259.75
682.25	56263.85
682.44	55901.36
682.63	56145.06
682.82	56057.00
683.01	55815.34
683.20	56018.09
683.39	56224.93
683.59	55944.36
683.78	55792.81
683.97	55792.81
684.16	56052.90
684.35	56071.34
684.54	56136.87
684.73	55968.94
684.92	55934.12
685.11	55770.28
685.30	55831.72
685.49	56165.54
685.69	55841.96
685.88	56089.77
686.07	56054.95
686.26	55942.31
686.45	56167.59
686.64	56001.71
686.83	55803.05
687.02	56267.94
687.21	55952.55
687.40	55932.07
687.59	56120.49
687.78	56310.95
687.97	56339.62
688.16	56116.39
688.35	55502.00
688.54	56040.62
688.74	55633.07
688.93	56071.34
689.12	55444.66
689.31	55858.35
689.50	55702.70
689.69	55254.20
689.88	55626.93
690.07	56054.95
690.26	55700.65
690.45	55975.08
690.64	55721.13
690.83	55796.91
691.02	55858.35
691.21	55725.23
691.40	55332.02
691.59	55805.10
691.78	55833.77
691.97	55887.02
692.16	55530.67
692.35	55882.92
692.54	55669.93
692.73	55729.33
692.92	55743.66
693.11	55946.41
693.30	55678.13
693.49	55764.14
693.68	55671.98
693.87	55370.93
694.06	55155.89
694.25	55669.93
694.44	54998.20
694.63	55622.83
694.82	55411.89
695.01	55248.05
695.20	55456.95
695.39	55610.54
695.58	55321.78
695.77	55391.41
695.96	55360.69
696.15	55479.47
696.34	55366.84
696.53	55176.37
696.72	55542.96
696.91	55448.75
697.10	55301.30
697.29	55293.11
697.48	55551.15
697.67	55276.72
697.86	55098.55
698.05	54783.16
698.24	55248.05
698.43	55049.40
698.62	54961.34
698.81	54584.51
699.00	55557.30
699.19	55006.39
699.38	55264.44
699.57	54875.32
699.76	55448.75
699.95	54963.39
700.14	55125.17
700.32	55180.47
700.51	54631.61
700.70	55350.45
700.89	55084.22
701.08	55588.02
701.27	54602.94
701.46	55145.65
701.65	54330.56
701.84	54441.15
702.03	55215.29
702.22	54471.87
702.41	54768.83
702.60	55178.42
702.79	54787.26
702.98	54324.42
703.17	54752.44
703.35	54592.70
703.54	54281.41
703.73	54498.50
703.92	54318.28
704.11	54152.39
704.30	53961.93
704.49	54367.43
704.68	54129.86
704.87	54402.24
705.06	54375.62
705.25	54176.97
705.43	54426.82
705.62	54752.44
705.81	53968.07
706.00	54811.84
706.19	54066.38
706.38	53871.82
706.57	53728.46
706.76	54093.00
706.95	54174.92
707.14	53519.57
707.32	53884.11
707.51	53867.72
707.70	54359.23
707.89	53720.27
708.08	54033.61
708.27	54017.22
708.46	54248.64
708.65	54068.42
708.84	54219.97
709.02	53918.92
709.21	54013.13
709.40	54021.32
709.59	53961.93
709.78	53554.38
709.97	54142.15
710.16	53695.69
710.34	53757.13
710.53	54121.67
710.72	53578.96
710.91	53574.86
711.10	53484.75
711.29	53691.60
711.48	53443.79
711.66	53241.04
711.85	53585.10
712.04	53443.79
712.23	53750.99
712.42	53875.91
712.61	53370.07
712.80	53679.31
712.98	53456.08
713.17	53181.65
713.36	53433.55
713.55	53009.62
713.74	53626.06
713.93	53282.00
714.11	52872.41
714.30	52927.70
714.49	53048.53
714.68	53032.15
714.87	53308.63
715.06	53318.87
715.24	52821.21
715.43	52966.62
715.62	52919.51
715.81	52606.17
716.00	53085.40
716.18	52794.59
716.37	52483.30
716.56	52925.66
716.75	52614.37
716.94	52827.35
717.12	52364.51
717.31	52825.31
717.50	53001.43
717.69	52352.23
717.88	52450.53
718.06	52487.39
718.25	52526.30
718.44	52270.31
718.63	52524.25
718.82	52542.69
719.00	52266.21
719.19	51954.92
719.38	51694.83
719.57	51811.56
719.76	51766.51
719.94	51393.78
720.13	52077.80
720.32	52028.65
720.51	52024.55
720.69	51576.04
720.88	51868.90
721.07	51737.83
721.26	51248.37
721.44	51193.07
721.63	51735.79
721.82	51377.39
722.01	51035.38
722.20	51555.57
722.38	51340.53
722.57	51180.79
722.76	50924.79
722.95	50679.03
723.13	51211.51
723.32	50785.53
723.51	51197.17
723.70	50758.91
723.88	50980.09
724.07	50574.59
724.26	51098.87
724.44	50226.43
724.63	51211.51
724.82	50812.15
725.01	50332.93
725.19	50523.39
725.38	50736.38
725.57	50554.11
725.76	50521.34
725.94	50371.84
726.13	50439.42
726.32	50474.24
726.51	49855.75
726.69	50447.61
726.88	50179.33
727.07	50115.84
727.25	50103.56
727.44	50496.77
727.63	49837.32
727.82	50210.05
728.00	49927.43
728.19	49771.78
728.38	50267.39
728.56	49542.41
728.75	50033.92
728.94	50218.24
729.12	50062.60
729.31	49700.11
729.50	49947.91
729.69	50107.65
729.87	50009.35
730.06	49954.05
730.25	50263.30
730.43	50603.26
730.62	50160.90
730.81	50455.81
730.99	50124.04
731.18	49941.77
731.37	49941.77
731.55	49863.94
731.74	50124.04
731.93	49904.90
732.11	50181.38
732.30	50011.40
732.49	49792.26
732.67	49865.99
732.86	49880.33
733.05	50101.51
733.23	49224.98
733.42	49956.10
733.61	49575.18
733.79	49812.74
733.98	49962.25
734.17	49489.16
734.35	50115.84
734.54	49714.44
734.73	49990.92
734.91	49921.29
735.10	49444.11
735.29	49554.70
735.47	49397.01
735.66	49327.38
735.84	49640.71
736.03	49456.40
736.22	49997.06
736.40	49169.68
736.59	49769.74
736.78	49630.47
736.96	49278.22
737.15	49386.77
737.33	48985.36
737.52	48846.10
737.71	49026.32
737.89	48934.17
738.08	48895.25
738.27	48651.55
738.45	49720.59
738.64	49259.79
738.82	49171.73
739.01	49181.97
739.20	48973.08
739.38	48592.15
739.57	49313.04
739.75	48903.45
739.94	48964.88
740.13	48747.80
740.31	48721.18
740.50	48616.73
740.68	48854.29
740.87	48946.45
741.06	49014.04
741.24	48579.87
741.43	48407.84
741.61	48715.03
741.80	48504.09
741.99	48416.03
742.17	48782.62
742.36	48274.72
742.54	48428.32
742.73	48710.94
742.91	48469.28
743.10	48354.59
743.29	48772.38
743.47	48444.70
743.66	48241.95
743.84	48137.51
744.03	48334.11
744.21	48184.61
744.40	48684.31
744.59	47928.61
744.77	48000.29
744.96	48248.10
745.14	48168.22
745.33	48274.72
745.51	48047.39
745.70	48028.96
745.88	48170.27
746.07	48282.91
746.26	47910.18
746.44	47697.19
746.63	47525.16
746.81	48000.29
747.00	47543.59
747.18	47930.66
747.37	47691.05
747.55	47791.40
747.74	48205.09
747.92	47547.69
748.11	47039.79
748.29	47512.88
748.48	47533.35
748.66	47113.52
748.85	47568.17
749.03	47545.64
749.22	47514.92
749.41	47355.18
749.59	47381.80
749.78	47021.36
749.96	46753.08
750.15	46857.52
750.33	47174.96
750.52	46880.05
750.70	47164.72
750.89	46867.76
751.07	46806.33
751.26	46843.19
751.44	46929.20
751.63	47115.57
751.81	46513.47
752.00	46720.31
752.18	46814.52
752.37	46415.16
752.55	46302.53
752.74	46306.62
752.92	46290.24
753.10	46695.74
753.29	46024.00
753.47	46249.28
753.66	45819.20
753.84	46501.18
754.03	45839.68
754.21	46112.06
754.40	46226.75
754.58	46101.82
754.77	46011.71
754.95	45528.39
755.14	45716.81
755.32	45784.39
755.51	45643.08
755.69	45598.02
755.88	46056.77
756.06	45696.33
756.24	45466.95
756.43	45452.62
756.61	45178.19
756.80	45227.34
756.98	45210.96
757.17	45782.34
757.35	45389.13
757.54	45217.10
757.72	45137.23
757.90	45118.80
758.09	45260.11
758.27	45210.96
758.46	45002.07
758.64	44692.82
758.83	45325.64
759.01	45200.72
759.19	45311.31
759.38	45270.35
759.56	45057.36
759.75	45131.09
759.93	44911.95
760.12	44240.22
760.30	45151.57
760.48	44567.90
760.67	44322.14
760.85	44879.19
761.04	44780.88
761.22	44387.67
761.40	44574.04
761.59	44660.05
761.77	44008.80
761.96	44316.00
762.14	44328.28
762.32	43924.83
762.51	43971.94
762.69	43976.03
762.88	44164.45
763.06	44078.43
763.24	43930.98
763.43	44299.61
763.61	43980.13
763.80	43812.20
763.98	43871.59
764.16	43918.69
764.35	43457.90
764.53	43425.13
764.72	43431.27
764.90	43756.90
765.08	43593.06
765.27	43451.75
765.45	43179.37
765.63	43150.70
765.82	43386.22
766.00	43251.05
766.18	43070.83
766.37	43500.90
766.55	43097.45
766.74	43105.65
766.92	42769.78
767.10	42724.72
767.29	42917.23
767.47	43042.16
767.65	42870.13
767.84	42349.95
768.02	43326.83
768.20	42591.61
768.39	42567.03
768.57	42720.63
768.75	42460.54
768.94	42454.39
769.12	42397.05
769.30	42059.13
769.49	42667.38
769.67	42247.55
769.85	42093.95
770.04	42302.84
770.22	41895.30
770.40	42188.16
770.59	42042.75
770.77	41870.72
770.95	41659.78
771.14	41684.36
771.32	41495.94
771.50	41508.23
771.69	41252.23
771.87	41543.05
772.05	41606.53
772.24	41151.88
772.42	41528.71
772.60	41629.06
772.78	41049.49
772.97	41147.79
773.15	41616.77
773.33	41266.57
773.52	40717.71
773.70	41348.49
773.88	41524.61
774.07	41051.53
774.25	41006.48
774.43	41098.64
774.61	41280.91
774.80	41346.44
774.98	40908.18
775.16	41166.22
775.34	41155.98
775.53	41098.64
775.71	41133.45
775.89	41125.26
776.08	41135.50
776.26	41375.11
776.44	41321.87
776.62	41057.68
776.81	40863.12
776.99	41401.74
777.17	41317.77
777.35	41688.45
777.54	41346.44
777.72	40998.29
777.90	41481.61
778.08	41600.39
778.27	41170.32
778.45	41612.68
778.63	41522.57
778.81	41573.77
779.00	41954.69
779.18	41788.80
779.36	41729.41
779.54	41526.66
779.73	41608.58
779.91	41747.84
780.09	41551.24
780.27	41815.43
780.46	41678.21
780.64	41905.54
780.82	41244.04
781.00	41366.92
781.19	41758.08
781.37	41745.80
781.55	41801.09
781.73	42100.09
781.91	41670.02
782.10	41891.20
782.28	41889.15
782.46	41899.39
782.64	41987.46
782.82	41350.54
783.01	41805.19
783.19	42055.04
783.37	41928.06
783.55	42018.17
783.74	41977.22
783.92	41850.24
784.10	42253.69
784.28	42055.04
784.46	41497.99
784.64	41870.72
784.83	41964.93
785.01	42059.13
785.19	41966.98
785.37	42075.52
785.55	41651.59
785.74	41346.44
785.92	41579.91
786.10	41835.91
786.28	41715.08
786.46	41452.94
786.64	41010.57
786.83	41313.67
787.01	41418.12
787.19	41399.69
787.37	41803.14
787.55	41448.84
787.74	41147.79
787.92	41442.70
788.10	41213.32
788.28	40936.85
788.46	41373.06
788.64	41055.63
788.82	41440.65
789.01	41432.46
789.19	41330.06
789.37	40838.54
789.55	40838.54
789.73	40488.34
789.91	40818.07
790.09	40678.80
790.28	40410.52
790.46	40611.22
790.64	40762.77
790.82	40437.14
791.00	40379.80
791.18	39878.05
791.36	40244.63
791.55	40334.74
791.73	39947.68
791.91	39935.39
792.09	40093.08
792.27	39785.89
792.45	39966.11
792.63	39695.78
792.81	39445.93
793.00	39984.54
793.18	39341.48
793.36	39488.93
793.54	39003.56
793.72	39062.96
793.90	39251.37
794.08	39036.33
794.26	39230.89
794.44	38622.64
794.62	38053.31
794.81	38686.13
794.99	38684.08
795.17	38862.26
795.35	38679.99
795.53	38411.70
795.71	38745.52
795.89	38352.31
796.07	37909.95
796.25	37778.88
796.43	37787.07
796.61	37909.95
796.80	37838.27
796.98	37979.58
797.16	37688.77
797.34	37912.00
797.52	37557.70
797.70	37686.72
797.88	37191.11
798.06	37471.68
798.24	37586.37
798.42	36947.40
798.60	37039.56
798.78	36799.95
798.96	37457.35
799.14	37021.13
799.32	36855.25
799.51	36736.46
799.69	36879.82
799.87	36582.87
800.05	36218.33
800.23	36343.25
800.41	36152.79
800.59	36437.46
800.77	35984.86
800.95	36031.96
801.13	36023.77
801.31	35884.51
801.49	35999.19
801.67	35628.51
801.85	35493.35
802.03	35558.88
802.21	35851.74
802.39	35010.03
802.57	35646.94
802.75	35261.93
802.93	35067.37
803.11	35243.49
803.29	34905.58
803.47	34842.09
803.65	35012.07
803.83	34698.73
804.01	34706.93
804.19	34465.27
804.37	34268.66
804.55	34960.87
804.73	34657.78
804.91	34420.21
805.09	34395.64
805.27	34407.92
805.45	34356.72
805.63	34283.00
805.81	34473.46
805.99	34448.88
806.17	34184.69
806.35	34092.54
806.53	34010.62
806.71	33728.00
806.89	34059.77
807.07	33558.02
807.25	33752.57
807.43	32941.58
807.61	33893.88
807.79	33568.26
807.97	33318.40
808.15	33383.94
808.33	33504.77
808.51	33426.95
808.69	33367.55
808.87	32970.25
809.05	32939.53
809.23	32708.11
809.41	32675.34
809.59	32646.67
809.77	32613.90
809.95	32673.29
810.13	32540.18
810.31	32867.85
810.49	32814.60
810.67	32908.81
810.84	32357.91
811.02	32388.63
811.20	32007.70
811.38	32103.96
811.56	31919.64
811.74	31925.78
811.92	31757.85
812.10	31751.71
812.28	32296.47
812.46	31831.58
812.64	32384.53
812.82	31688.22
813.00	31452.70
813.18	31587.87
813.36	31217.19
813.53	31432.22
813.71	31362.59
813.89	31090.21
814.07	31301.15
814.25	31323.68
814.43	31143.46
814.61	31342.11
814.79	31104.55
814.97	30948.90
815.15	31157.80
815.33	30744.11
815.50	30813.74
815.68	30563.89
815.86	30852.65
816.04	30420.53
816.22	30547.50
816.40	30637.61
816.58	30492.21
816.76	30316.08
816.94	30484.01
817.11	30082.61
817.29	30545.45
817.47	30242.35
817.65	30062.13
817.83	30150.20
818.01	30248.50
818.19	30035.51
818.37	30025.27
818.54	29849.14
818.72	29799.99
818.90	29607.48
819.08	29795.90
819.26	29740.60
819.44	29519.42
819.62	29824.57
819.80	29474.37
819.97	29541.95
820.15	29144.64
820.33	29400.64
820.51	29517.37
820.69	29181.51
820.87	29398.59
821.05	29404.74
821.22	29185.60
821.40	29099.59
821.58	29036.10
821.76	29056.58
821.94	28984.90
822.12	29128.26
822.29	29062.72
822.47	28640.84
822.65	29148.74
822.83	28866.12
823.01	28804.68
823.19	28735.05
823.36	28593.74
823.54	28221.01
823.72	28515.92
823.90	28548.68
824.08	28536.40
824.25	28296.78
824.43	28352.08
824.61	28515.92
824.79	28653.13
824.97	28399.18
825.15	28646.99
825.32	28190.29
825.50	28010.07
825.68	27926.10
825.86	28134.99
826.04	28333.65
826.21	28030.55
826.39	28288.59
826.57	27895.38
826.75	28016.21
826.93	27739.74
827.10	27594.33
827.28	27852.38
827.46	28038.74
827.64	27948.63
827.81	27588.19
827.99	27969.11
828.17	27676.25
828.35	27584.09
828.53	27180.64
828.70	27379.29
828.88	27696.73
829.06	27682.39
829.24	27637.34
829.41	27410.01
829.59	27557.47
829.77	27260.51
829.95	27240.03
830.12	27377.25
830.30	27344.48
830.48	27266.66
830.66	27334.24
830.84	27231.84
831.01	26918.50
831.19	26994.28
831.37	27213.41
831.55	26865.25
831.72	26695.27
831.90	26453.61
832.08	26728.04
832.25	26818.15
832.43	26812.01
832.61	26525.29
832.79	26756.71
832.96	26654.31
833.14	26467.95
833.32	26459.76
833.50	26613.35
833.67	26220.14
833.85	26594.92
834.03	26148.46
834.20	26494.57
834.38	26525.29
834.56	26750.57
834.74	26422.89
834.91	26271.34
835.09	26238.58
835.27	25972.34
835.44	25998.96
835.62	25716.34
835.80	25851.51
835.98	26189.42
836.15	26056.31
836.33	25945.72
836.51	25915.00
836.68	25841.27
836.86	25970.29
837.04	25951.86
837.21	26078.83
837.39	25935.48
837.57	26228.34
837.75	26070.64
837.92	25501.31
838.10	25413.24
838.28	25685.62
838.45	25495.16
838.63	25306.75
838.81	25761.40
838.98	25390.72
839.16	25241.21
839.34	25171.58
839.51	25470.59
839.69	25007.75
839.87	25087.62
840.04	25452.16
840.22	25515.64
840.40	25302.65
840.57	25011.84
840.75	24843.91
840.93	24811.14
841.10	24989.31
841.28	25249.41
841.46	25013.89
841.63	25368.19
841.81	25009.79
841.98	24919.68
842.16	24850.05
842.34	25204.35
842.51	24774.28
842.69	25177.73
842.87	24641.16
843.04	25198.21
843.22	24573.58
843.40	24798.85
843.57	24610.44
843.75	24718.98
843.92	24794.76
844.10	24594.06
844.28	24702.60
844.45	24747.65
844.63	24817.29
844.81	24444.56
844.98	24700.55
845.16	24585.86
845.33	24426.12
845.51	24452.75
845.69	24348.30
845.86	24063.63
846.04	24217.23
846.21	24190.61
846.39	23887.51
846.57	23973.52
846.74	24297.10
846.92	24245.90
847.09	23977.62
847.27	23848.60
847.45	24127.12
847.62	24012.43
847.80	24106.64
847.97	24034.96
848.15	23787.16
848.32	23936.66
848.50	24053.39
848.68	23735.96
848.85	23590.55
849.03	23793.30
849.20	23973.52
849.38	23969.43
849.56	23565.98
849.73	23608.98
849.91	23721.62
850.08	24274.57
850.26	23549.59
850.43	23633.56
850.61	23617.18
850.78	23096.99
850.96	23547.54
851.14	23377.56
851.31	23658.14
851.49	23350.94
851.66	23504.54
851.84	23264.92
852.01	23307.93
852.19	23135.90
852.36	22941.35
852.54	23115.42
852.71	23238.30
852.89	23183.01
853.07	23074.46
853.24	23160.48
853.42	23355.04
853.59	23000.74
853.77	22992.55
853.94	23174.81
854.12	23318.17
854.29	22927.01
854.47	22851.24
854.64	22877.86
854.82	22834.85
854.99	22734.50
855.17	23070.37
855.34	23039.65
855.52	22892.19
855.69	23191.20
855.87	22617.77
856.04	22517.42
856.22	22922.91
856.39	22423.21
856.57	22470.31
856.74	22677.16
856.92	22757.03
857.09	22369.96
857.27	22460.07
857.44	22621.86
857.62	22619.81
857.79	22537.90
857.97	22322.86
858.14	22423.21
858.32	22267.56
858.49	22257.32
858.67	22404.78
858.84	22470.31
859.02	22146.73
859.19	22365.87
859.37	22064.82
859.54	22050.48
859.72	22523.56
859.89	21909.17
860.06	22259.37
860.24	22165.17
860.41	21962.42
860.59	21804.72
860.76	22269.61
860.94	21628.60
861.11	22116.01
861.29	21763.76
861.46	21792.44
861.64	22007.47
861.81	21900.98
861.98	21808.82
862.16	21534.39
862.33	21419.71
862.51	21714.61
862.68	21595.83
862.86	21675.70
863.03	21534.39
863.21	21421.75
863.38	21794.48
863.55	21438.14
863.73	21327.55
863.90	21393.08
864.08	21294.78
864.25	21499.58
864.43	21307.07
864.60	21624.50
864.77	21040.83
864.95	21143.23
865.12	21151.42
865.30	21188.28
865.47	21114.56
865.64	21231.29
865.82	21292.73
865.99	21329.59
866.17	21212.86
866.34	21167.80
866.51	21044.93
866.69	21120.70
866.86	20836.03
867.04	20920.00
867.21	20885.19
867.38	20502.22
867.56	20702.92
867.73	20631.24
867.91	20725.44
868.08	20588.23
868.25	20754.12
868.43	20391.62
868.60	20262.60
868.78	20651.72
868.95	20723.40
869.12	20313.80
869.30	20367.05
869.47	20588.23
869.64	20098.77
869.82	20262.60
869.99	20393.67
870.16	20369.10
870.34	20397.77
870.51	20440.78
870.69	20084.43
870.86	20240.08
871.03	20301.51
871.21	20047.57
871.38	20348.62
871.55	20278.99
871.73	19977.94
871.90	19900.11
872.07	19830.48
872.25	19914.45
872.42	19842.77
872.59	19912.40
872.77	19840.72
872.94	19539.67
873.11	19936.98
873.29	19713.75
873.46	19324.63
873.63	19883.73
873.81	19785.43
873.98	19685.08
874.15	19814.10
874.33	19347.16
874.50	19144.41
874.67	19506.90
874.85	19209.95
875.02	19343.06
875.19	18996.96
875.37	19252.95
875.54	19037.92
875.71	19119.84
875.88	19193.56
876.06	18906.85
876.23	19099.36
876.40	18564.84
876.58	19050.21
876.75	18951.90
876.92	18872.03
877.10	18886.37
877.27	19050.21
877.44	18474.73
877.61	18695.91
877.79	18685.67
877.96	18515.69
878.13	18552.55
878.31	18210.54
878.48	18501.35
878.65	18292.46
878.82	18179.82
879.00	18671.33
879.17	18370.28
879.34	18284.26
879.51	18278.12
879.69	18063.08
879.86	17970.93
880.03	18177.77
880.21	18237.16
880.38	18196.20
880.55	18329.32
880.72	18282.22
880.90	18030.32
881.07	18079.47
881.24	17909.49
881.41	18034.41
881.59	18147.05
881.76	18018.03
881.93	17932.01
882.10	17706.74
882.28	17837.81
882.45	17929.97
882.62	17727.22
882.79	17858.29
882.96	17587.96
883.14	17745.65
883.31	17764.08
883.48	17665.78
883.65	17819.38
883.83	18015.98
884.00	17606.39
884.17	17520.37
884.34	17757.94
884.51	17377.01
884.69	17635.06
884.86	17401.59
885.03	17590.00
885.20	17215.23
885.38	17676.02
885.55	17213.18
885.72	17401.59
885.89	17348.34
886.06	17323.77
886.24	17295.10
886.41	17272.57
886.58	17575.67
886.75	17354.49
886.92	17356.54
887.10	17166.07
887.27	17155.83
887.44	17149.69
887.61	17311.48
887.78	17164.03
887.95	17166.07
888.13	16944.89
888.30	16928.51
888.47	17014.52
888.64	17006.33
888.81	16803.58
888.99	16977.66
889.16	16871.17
889.33	16629.51
889.50	16889.60
889.67	16992.00
889.84	16719.62
890.01	16852.73
890.19	16586.50
890.36	16719.62
890.53	16879.36
890.70	16590.59
890.87	16803.58
891.04	16457.48
891.22	16572.16
891.39	16441.09
891.56	16502.53
891.73	16260.87
891.90	16396.04
892.07	16314.12
892.24	16545.54
892.42	16557.83
892.59	16406.28
892.76	16342.79
892.93	16416.52
893.10	16252.68
893.27	16035.60
893.44	16117.51
893.61	15974.16
893.79	16684.80
893.96	16246.54
894.13	16109.32
894.30	16152.33
894.47	15976.20
894.64	16324.36
894.81	15994.64
894.98	16123.66
895.15	16135.95
895.33	16090.89
895.50	16056.08
895.67	16205.58
895.84	16267.02
896.01	16129.80
896.18	15963.92
896.35	16240.39
896.52	15974.16
896.69	16023.31
896.86	15998.73
897.04	16121.61
897.21	15900.43
897.38	15980.30
897.55	15810.32
897.72	16090.89
897.89	15859.47
898.06	15955.72
898.23	16111.37
898.40	15679.25
898.57	16013.07
898.74	15982.35
898.91	15793.94
899.08	15949.58
899.26	15937.29
899.43	16029.45
899.60	15763.22
899.77	15836.94
899.94	15834.89
900.11	15759.12
900.28	15714.06
900.45	15765.26
900.62	15691.54
900.79	15892.24
900.96	15859.47
901.13	15763.22
901.30	15931.15
901.47	15714.06
901.64	15896.33
901.81	15804.17
901.98	15564.56
902.15	15841.04
902.32	15576.85
902.49	15845.13
902.66	15787.79
902.83	15718.16
903.01	15767.31
903.18	15714.06
903.35	15845.13
903.52	15892.24
903.69	15617.81
903.86	15781.65
904.03	15550.23
904.20	15804.17
904.37	15656.72
904.54	15689.49
904.71	15849.23
904.88	15826.70
905.05	15648.53
905.22	15677.20
905.39	15679.25
905.56	15781.65
905.73	15429.40
905.90	15750.93
906.07	15628.05
906.24	15763.22
906.41	15517.46
906.58	15863.57
906.75	15683.34
906.92	15529.75
907.09	15626.00
907.26	15517.46
907.43	15572.75
907.60	15601.43
907.77	15832.85
907.93	15548.18
908.10	15539.99
908.27	15611.67
908.44	15666.96
908.61	15351.57
908.78	15558.42
908.95	15640.34
909.12	15492.88
909.29	15759.12
909.46	15537.94
909.63	15712.02
909.80	15611.67
909.97	15539.99
910.14	15730.45
910.31	15396.63
910.48	15353.62
910.65	15359.77
910.82	15593.23
910.99	15410.96
911.16	15355.67
911.33	15370.01
911.50	15390.49
911.66	15337.24
911.83	15339.29
912.00	15183.64
912.17	15009.56
912.34	15027.99
912.51	15114.01
912.68	14841.63
912.85	15183.64
913.02	15179.54
913.19	15036.19
913.36	15003.42
913.53	15208.22
913.70	14831.39
913.86	15105.82
914.03	15001.37
914.20	14741.28
914.37	15165.21
914.54	14843.68
914.71	14968.60
914.88	14952.22
915.05	14903.07
915.22	15009.56
915.39	14847.77
915.55	14769.95
915.72	14851.87
915.89	14722.85
916.06	14577.44
916.23	14456.61
916.40	14649.12
916.57	14446.37
916.74	14522.15
916.91	14634.78
917.07	14393.12
917.24	14307.11
917.41	14274.34
917.58	14157.61
917.75	14296.87
917.92	14038.83
918.09	14061.35
918.26	14110.50
918.42	14108.46
918.59	14094.12
918.76	13948.72
918.93	13922.09
919.10	13629.23
919.27	13836.08
919.44	13705.01
919.60	13860.65
919.77	13881.13
919.94	13778.73
920.11	13719.34
920.28	13604.66
920.45	13594.42
920.61	13420.34
920.78	13459.25
920.95	13096.76
921.12	13360.95
921.29	13184.82
921.46	13365.04
921.62	13190.97
921.79	13422.39
921.96	13246.26
922.13	13111.10
922.30	12922.68
922.47	13125.43
922.63	13152.06
922.80	13156.15
922.97	13045.56
923.14	12568.38
923.31	12902.20
923.47	12773.18
923.64	12871.48
923.81	12494.66
923.98	12748.61
924.15	12527.42
924.32	12392.26
924.48	12724.03
924.65	12617.54
924.82	12326.72
924.99	12240.71
925.15	12220.23
925.32	12361.54
925.49	12244.81
925.66	12267.33
925.83	12062.54
925.99	12083.02
926.16	11925.32
926.33	12126.02
926.50	11894.60
926.67	11929.42
926.83	11665.23
927.00	11714.38
927.17	11777.87
927.34	11562.83
927.50	11431.76
927.67	11714.38
927.84	11734.86
928.01	11628.37
928.17	11398.99
928.34	11427.67
928.51	11245.40
928.68	11255.64
928.84	11300.69
929.01	11044.70
929.18	10917.72
929.35	10985.30
929.51	11020.12
929.68	10950.49
929.85	10917.72
930.02	10848.09
930.18	10938.20
930.35	10852.19
930.52	10800.99
930.69	11022.17
930.85	10784.60
931.02	10721.12
931.19	10610.53
931.36	10540.90
931.52	10377.06
931.69	10446.69
931.86	10430.30
932.02	10491.74
932.19	10432.35
932.36	10415.97
932.53	10233.70
932.69	10127.21
932.86	10280.80
933.03	10133.35
933.19	10004.33
933.36	10073.96
933.53	9879.40
933.70	9965.42
933.86	9903.98
934.03	9971.56
934.20	9727.85
934.36	9912.17
934.53	9432.94
934.70	9262.96
934.86	9551.73
935.03	9291.63
935.20	9363.31
935.36	9189.24
935.53	9226.10
935.70	9176.95
935.86	9158.52
936.03	9019.25
936.20	8761.21
936.36	8789.88
936.53	8748.92
936.70	8556.41
936.86	8808.31
937.03	8486.78
937.20	8380.29
937.36	8540.03
937.53	8167.30
937.70	8212.35
937.86	8050.57
938.03	8060.80
938.20	8023.94
938.36	7888.78
938.53	7950.21
938.70	7651.21
938.86	7651.21
939.03	7612.30
939.20	7542.67
939.36	7335.82
939.53	7341.97
939.70	7473.04
939.86	7110.55
940.03	7028.63
940.19	6973.33
940.36	7004.05
940.53	6954.90
940.69	6885.27
940.86	6762.39
941.03	6713.24
941.19	6565.79
941.36	6647.71
941.52	6518.68
941.69	6420.38
941.86	6424.48
942.02	6350.75
942.19	6236.06
942.35	6342.56
942.52	6051.75
942.69	6010.79
942.85	5978.02
943.02	6004.64
943.18	5959.59
943.35	5920.68
943.52	5836.71
943.68	5855.14
943.85	5877.67
944.01	5742.50
944.18	5844.90
944.35	5689.26
944.51	5742.50
944.68	5636.01
944.84	5470.12
945.01	5490.60
945.17	5545.90
945.34	5584.81
945.51	5513.13
945.67	5463.98
945.84	5523.37
946.00	5437.36
946.17	5382.06
946.33	5382.06
946.50	5519.28
946.67	5531.56
946.83	5384.11
947.00	5509.04
947.16	5306.29
947.33	5347.25
947.49	5337.01
947.66	5390.25
947.82	5410.73
947.99	5326.77
948.16	5316.53
948.32	5306.29
948.49	5261.23
948.65	5396.40
948.82	5441.45
948.98	5439.40
949.15	5263.28
949.31	5500.84
949.48	5558.19
949.64	5341.10
949.81	5459.88
949.97	5328.81
950.14	5334.96
950.30	5328.81
950.47	5480.36
950.63	5367.73
950.80	5425.07
950.96	5380.01
951.13	5377.97
951.30	5558.19
951.46	5545.90
951.63	5537.71
951.79	5414.83
951.96	5498.80
952.12	5394.35
952.29	5406.64
952.45	5449.64
952.62	5359.53
952.78	5451.69
952.94	5414.83
953.11	5414.83
953.27	5447.60
953.44	5582.76
953.60	5394.35
953.77	5480.36
953.93	5367.73
954.10	5502.89
954.26	5607.34
954.43	5455.79
954.59	5441.45
954.76	5633.96
954.92	5513.13
955.09	5570.48
955.25	5453.74
955.42	5509.04
955.58	5533.61
955.75	5314.48
955.91	5322.67
956.07	5539.76
956.24	5623.72
956.40	5619.63
956.57	5461.93
956.73	5494.70
956.90	5349.29
957.06	5531.56
957.23	5455.79
957.39	5599.15
957.56	5394.35
957.72	5423.02
957.88	5380.01
958.05	5586.86
958.21	5566.38
958.38	5533.61
958.54	5539.76
958.71	5838.76
958.87	5472.17
959.03	5629.87
959.20	5496.75
959.36	5482.41
959.53	5509.04
959.69	5337.01
959.85	5679.02
960.02	5480.36
960.18	5517.23
960.35	5541.80
960.51	5722.02
960.68	5451.69
960.84	5547.95
961.00	5494.70
961.17	5414.83
961.33	5476.27
961.50	5484.46
961.66	5463.98
961.82	5492.65
961.99	5631.91
962.15	5539.76
962.31	5558.19
962.48	5578.67
962.64	5457.84
962.81	5541.80
962.97	5523.37
963.13	5523.37
963.30	5420.97
963.46	5414.83
963.62	5447.60
963.79	5447.60
963.95	5578.67
964.12	5427.12
964.28	5406.64
964.44	5345.20
964.61	5410.73
964.77	5418.93
964.93	5570.48
965.10	5427.12
965.26	5257.14
965.42	5535.66
965.59	5406.64
965.75	5435.31
965.92	5582.76
966.08	5318.57
966.24	5425.07
966.41	5339.05
966.57	5343.15
966.73	5400.49
966.90	5369.77
967.06	5412.78
967.22	5212.08
967.39	5291.95
967.55	5318.57
967.71	5339.05
967.88	5353.39
968.04	5148.59
968.20	5287.86
968.37	5132.21
968.53	5105.59
968.69	5214.13
968.85	5230.51
969.02	5226.42
969.18	5238.70
969.34	5238.70
969.51	5230.51
969.67	5179.31
969.83	5081.01
970.00	5246.90
970.16	5287.86
970.32	5207.98
970.48	5291.95
970.65	5160.88
970.81	4925.36
970.97	5046.20
971.14	5031.86
971.30	5238.70
971.46	4990.90
971.63	5013.43
971.79	5023.67
971.95	4974.52
972.11	5044.15
972.28	5044.15
972.44	5089.20
972.60	4859.83
972.76	5046.20
972.93	5130.16
973.09	4992.95
973.25	5007.28
973.42	4913.08
973.58	4974.52
973.74	4919.22
973.90	4927.41
974.07	4851.64
974.23	5025.72
974.39	4827.06
974.55	4870.07
974.72	4868.02
974.88	4685.75
975.04	4857.78
975.20	4822.97
975.37	4919.22
975.53	4769.72
975.69	4796.34
975.85	4556.73
976.01	4724.66
976.18	4698.04
976.34	4763.58
976.50	4863.93
976.66	4818.87
976.83	4657.08
976.99	4661.18
977.15	4626.36
977.31	4585.40
977.47	4775.86
977.64	4689.85
977.80	4806.58
977.96	4659.13
978.12	4569.02
978.29	4632.51
978.45	4575.16
978.61	4540.35
978.77	4622.27
978.93	4456.38
979.10	4573.11
979.26	4464.57
979.42	4562.87
979.58	4386.75
979.74	4483.00
979.91	4417.47
980.07	4462.52
980.23	4429.76
980.39	4507.58
980.55	4573.11
980.71	4362.17
980.88	4468.67
981.04	4437.95
981.20	4384.70
981.36	4394.94
981.52	4437.95
981.68	4339.65
981.85	4333.50
982.01	4270.01
982.17	4335.55
982.33	4274.11
982.49	4464.57
982.65	4321.21
982.82	4335.55
982.98	4323.26
983.14	4210.62
983.30	4319.17
983.46	4456.38
983.62	4265.92
983.79	4251.58
983.95	4216.77
984.11	4106.18
984.27	4267.97
984.43	4251.58
984.59	4161.47
984.75	4296.64
984.91	4208.58
985.08	4227.01
985.24	4030.40
985.40	4100.03
985.56	4143.04
985.72	4087.75
985.88	4173.76
986.04	4097.99
986.20	4001.73
986.37	4108.23
986.53	4100.03
986.69	4186.05
986.85	3979.20
987.01	4097.99
987.17	4151.23
987.33	3993.54
987.49	3973.06
987.65	3975.11
987.82	4001.73
987.98	3968.96
988.14	3983.30
988.30	4040.64
988.46	4009.92
988.62	3923.91
988.78	3948.48
988.94	3983.30
989.10	3885.00
989.26	3942.34
989.42	3823.56
989.59	3794.89
989.75	3831.75
989.91	3938.24
990.07	3751.88
990.23	3862.47
990.39	3854.28
990.55	3905.48
990.71	3792.84
990.87	3731.40
991.03	3809.22
991.19	3803.08
991.35	3743.69
991.51	3715.02
991.67	3801.03
991.83	3764.17
992.00	3764.17
992.16	3758.02
992.32	3715.02
992.48	3704.78
992.64	3590.09
992.80	3715.02
992.96	3721.16
993.12	3727.30
993.28	3659.72
993.44	3669.96
993.60	3700.68
993.76	3575.75
993.92	3676.10
994.08	3661.77
994.24	3665.86
994.40	3524.55
994.56	3676.10
994.72	3512.27
994.88	3579.85
995.04	3585.99
995.20	3418.06
995.36	3590.09
995.52	3588.04
995.68	3571.66
995.84	3428.30
996.00	3631.05
996.16	3497.93
996.32	3413.96
996.48	3534.79
996.64	3475.40
996.80	3366.86
996.96	3536.84
997.12	3395.53
997.28	3454.92
997.44	3366.86
997.60	3475.40
997.76	3469.26
997.92	3459.02
998.08	3465.16
998.24	3215.31
998.40	3303.37
998.56	3442.64
998.72	3090.38
998.88	3356.62
999.04	3254.22
999.20	3448.78
999.36	3239.89
999.52	3379.15
999.68	3203.02
999.84	3280.85
1000.00	3313.61
1000.16	3336.14
1000.32	3188.69
1000.48	3387.34
1000.64	3160.02
1000.80	3231.69
1000.95	3092.43
1001.11	3299.28
1001.27	3123.15
1001.43	3256.27
1001.59	3051.47
1001.75	3162.06
1001.91	3104.72
1002.07	3141.58
1002.23	3076.05
1002.39	3047.38
1002.55	3149.78
1002.71	3098.58
1002.87	3123.15
1003.03	3035.09
1003.19	3135.44
1003.34	3166.16
1003.50	3088.34
1003.66	3170.26
1003.82	3129.30
1003.98	3002.32
1004.14	3055.57
1004.30	3024.85
1004.46	3045.33
1004.62	3039.19
1004.78	3006.42
1004.94	3026.90
1005.09	3071.95
1005.25	2926.55
1005.41	2992.08
1005.57	2926.55
1005.73	2926.55
1005.89	2906.07
1006.05	3037.14
1006.21	3035.09
1006.37	2908.12
1006.52	2947.03
1006.68	2799.57
1006.84	3018.71
1007.00	2846.68
1007.16	3022.80
1007.32	2883.54
1007.48	2901.97
1007.64	2906.07
1007.79	2877.40
1007.95	2863.06
1008.11	2924.50
1008.27	2764.76
1008.43	2836.44
1008.59	2793.43
1008.75	2893.78
1008.91	2785.24
1009.06	2850.77
1009.22	2734.04
1009.38	2723.80
1009.54	2881.49
1009.70	2772.95
1009.86	2725.85
1010.01	2760.66
1010.17	2748.37
1010.33	2725.85
1010.49	2836.44
1010.65	2852.82
1010.81	2654.17
1010.96	2793.43
1011.12	2721.75
1011.28	2731.99
1011.44	2811.86
1011.60	2777.05
1011.76	2668.50
1011.91	2736.09
1012.07	2660.31
1012.23	2580.44
1012.39	2631.64
1012.55	2768.85
1012.71	2643.93
1012.86	2621.40
1013.02	2652.12
1013.18	2555.86
1013.34	2564.06
1013.50	2611.16
1013.65	2637.78
1013.81	2650.07
1013.97	2609.11
1014.13	2664.41
1014.29	2598.87
1014.44	2648.02
1014.60	2519.00
1014.76	2609.11
1014.92	2490.33
1015.07	2580.44
1015.23	2627.54
1015.39	2570.20
1015.55	2482.14
1015.71	2420.70
1015.86	2541.53
1016.02	2486.23
1016.18	2508.76
1016.34	2457.56
1016.49	2549.72
1016.65	2582.49
1016.81	2478.04
1016.97	2514.91
1017.12	2537.43
1017.28	2414.56
1017.44	2435.03
1017.60	2467.80
1017.75	2535.39
1017.91	2494.43
1018.07	2527.19
1018.23	2285.53
1018.38	2420.70
1018.54	2381.79
1018.70	2543.58
1018.86	2418.65
1019.01	2330.59
1019.17	2424.80
1019.33	2527.19
1019.49	2418.65
1019.64	2396.12
1019.80	2355.16
1019.96	2402.27
1020.12	2387.93
1020.27	2383.84
1020.43	2349.02
1020.59	2432.99
1020.74	2396.12
1020.90	2375.64
1021.06	2303.96
1021.22	2338.78
1021.37	2275.29
1021.53	2203.61
1021.69	2289.63
1021.84	2322.40
1022.00	2332.64
1022.16	2353.12
1022.31	2342.88
1022.47	2269.15
1022.63	2320.35
1022.79	2220.00
1022.94	2197.47
1023.10	2322.40
1023.26	2248.67
1023.41	2191.33
1023.57	2183.13
1023.73	2314.20
1023.88	2205.66
1024.04	2226.14
1024.20	2133.98
1024.35	2133.98
1024.51	2207.71
1024.67	2203.61
1024.82	2230.24
1024.98	2150.37
1025.14	2217.95
1025.29	2275.29
1025.45	2285.53
1025.61	2088.93
1025.76	2195.42
1025.92	2148.32
1026.08	2209.76
1026.23	2217.95
1026.39	2215.90
1026.55	2213.85
1026.70	2142.18
1026.86	2197.47
1027.02	2181.09
1027.17	2068.45
1027.33	2260.96
1027.48	2199.52
1027.64	2093.02
1027.80	2129.89
1027.95	2172.89
1028.11	2019.30
1028.27	2148.32
1028.42	2152.42
1028.58	2160.61
1028.73	2111.46
1028.89	2078.69
1029.05	2201.57
1029.20	2158.56
>>>>>End Processed Spectral Data<<<<<
