SpectraSuite Data File
++++++++++++++++++++++++++++++++++++
Date: Fri Jun 02 14:52:24 CEST 2017
User: INFO_000
Dark Spectrum Present: No
Reference Spectrum Present: No
Number of Sampled Component Spectra: 1
Spectrometers: USB4H00879
Integration Time (usec): 80000 (USB4H00879)
Spectra Averaged: 1 (USB4H00879)
Boxcar Smoothing: 0 (USB4H00879)
Correct for Electrical Dark: No (USB4H00879)
Strobe/Lamp Enabled: No (USB4H00879)
Correct for Detector Non-linearity: No (USB4H00879)
Correct for Stray Light: No (USB4H00879)
Number of Pixels in Processed Spectrum: 3648
>>>>>Begin Processed Spectral Data<<<<<
345.13	1314.80
345.34	1314.80
345.56	1314.80
345.78	1310.70
345.99	1288.17
346.21	1751.01
346.42	1652.71
346.64	1626.09
346.86	1789.92
347.07	1683.43
347.29	1720.29
347.50	1638.38
347.72	1630.18
347.94	1773.54
348.15	1583.08
348.37	1642.47
348.59	1775.59
348.80	1621.99
349.02	1716.20
349.23	1873.89
349.45	1820.64
349.67	1855.46
349.88	1875.94
350.10	1976.29
350.31	1791.97
350.53	1763.30
350.75	1947.62
350.96	1734.63
351.18	1884.13
351.39	1826.79
351.61	1785.83
351.82	1871.84
352.04	1871.84
352.26	1818.60
352.47	1863.65
352.69	1843.17
352.90	1794.02
353.12	1859.56
353.34	1824.74
353.55	1949.67
353.77	1867.75
353.98	1902.56
354.20	1785.83
354.41	1898.47
354.63	1884.13
354.85	1986.53
355.06	1912.80
355.28	1822.69
355.49	1896.42
355.71	2002.91
355.92	1912.80
356.14	1861.60
356.35	1875.94
356.57	1824.74
356.79	1927.14
357.00	1791.97
357.22	1945.57
357.43	1810.40
357.65	1968.10
357.86	1824.74
358.08	1955.81
358.29	1943.52
358.51	1832.93
358.72	1923.04
358.94	1951.71
359.16	1863.65
359.37	1900.52
359.59	1931.23
359.80	1935.33
360.02	1920.99
360.23	1980.39
360.45	1970.15
360.66	1941.47
360.88	1880.04
361.09	1984.48
361.31	2025.44
361.52	1947.62
361.74	2086.88
361.95	2064.35
362.17	1900.52
362.38	2097.12
362.60	2000.87
362.81	1945.57
363.03	1923.04
363.24	2021.35
363.46	2023.39
363.67	2002.91
363.89	1998.82
364.10	2043.87
364.32	2011.11
364.53	2086.88
364.75	1925.09
364.96	1929.19
365.18	2129.89
365.39	1970.15
365.61	2000.87
365.82	2142.18
366.04	2017.25
366.25	1914.85
366.47	2093.02
366.68	2043.87
366.90	1964.00
367.11	2056.16
367.33	2072.54
367.54	2105.31
367.76	2047.97
367.97	2002.91
368.19	2060.26
368.40	2146.27
368.62	2037.73
368.83	1949.67
369.05	2041.82
369.26	2023.39
369.48	2037.73
369.69	1968.10
369.91	2025.44
370.12	2133.98
370.33	2189.28
370.55	2054.11
370.76	2052.06
370.98	2176.99
371.19	2019.30
371.41	2039.78
371.62	2088.93
371.84	2052.06
372.05	2185.18
372.27	2076.64
372.48	2076.64
372.69	2054.11
372.91	2168.80
373.12	2150.37
373.34	2047.97
373.55	2123.74
373.77	2185.18
373.98	2062.30
374.20	2164.70
374.41	2263.01
374.62	2103.26
374.84	2136.03
375.05	2160.61
375.27	2168.80
375.48	2199.52
375.70	2113.50
375.91	2199.52
376.12	2258.91
376.34	2189.28
376.55	2244.57
376.77	2248.67
376.98	2133.98
377.19	2191.33
377.41	2207.71
377.62	2203.61
377.84	2234.33
378.05	2328.54
378.27	2232.29
378.48	2281.44
378.69	2336.73
378.91	2334.68
379.12	2349.02
379.34	2176.99
379.55	2308.06
379.76	2217.95
379.98	2260.96
380.19	2316.25
380.41	2318.30
380.62	2246.62
380.83	2263.01
381.05	2174.94
381.26	2465.75
381.47	2238.43
381.69	2240.48
381.90	2525.15
382.12	2291.68
382.33	2351.07
382.54	2306.01
382.76	2330.59
382.97	2316.25
383.19	2230.24
383.40	2426.84
383.61	2369.50
383.83	2277.34
384.04	2353.12
384.25	2310.11
384.47	2430.94
384.68	2404.32
384.89	2414.56
385.11	2336.73
385.32	2389.98
385.54	2404.32
385.75	2344.92
385.96	2480.09
386.18	2478.04
386.39	2480.09
386.60	2379.74
386.82	2451.42
387.03	2355.16
387.24	2445.27
387.46	2396.12
387.67	2475.99
387.88	2633.69
388.10	2519.00
388.31	2461.66
388.52	2605.02
388.74	2535.39
388.95	2455.51
389.16	2578.39
389.38	2430.94
389.59	2566.10
389.80	2635.74
390.02	2557.91
390.23	2711.51
390.44	2600.92
390.66	2521.05
390.87	2492.38
391.08	2609.11
391.30	2715.61
391.51	2639.83
391.72	2625.50
391.94	2584.54
392.15	2574.30
392.36	2615.26
392.58	2564.06
392.79	2686.94
393.00	2670.55
393.22	2691.03
393.43	2744.28
393.64	2723.80
393.85	2818.00
394.07	2762.71
394.28	2713.56
394.49	2834.39
394.71	2752.47
394.92	2863.06
395.13	2699.22
395.35	2754.52
395.56	2697.17
395.77	2731.99
395.98	2764.76
396.20	2906.07
396.41	2822.10
396.62	2957.27
396.84	2928.60
397.05	2809.81
397.26	2916.31
397.47	2899.92
397.69	2852.82
397.90	3100.62
398.11	2944.98
398.32	2854.87
398.54	2924.50
398.75	3010.51
398.96	2987.99
399.18	3125.20
399.39	3028.95
399.60	3045.33
399.81	2985.94
400.03	3016.66
400.24	3323.85
400.45	2934.74
400.66	3096.53
400.88	3071.95
401.09	3276.75
401.30	3151.82
401.51	3262.41
401.73	3262.41
401.94	3069.91
402.15	3194.83
402.36	3155.92
402.58	3221.45
402.79	3270.61
403.00	3078.10
403.21	3311.57
403.43	3278.80
403.64	3334.09
403.85	3184.59
404.06	3375.05
404.27	3092.43
404.49	3217.36
404.70	3213.26
404.91	3346.38
405.12	3364.81
405.34	3389.39
405.55	3385.29
405.76	3391.44
405.97	3237.84
406.19	3516.36
406.40	3225.55
406.61	3381.20
406.82	3360.72
407.03	3389.39
407.25	3268.56
407.46	3377.10
407.67	3395.53
407.88	3456.97
408.09	3352.52
408.31	3413.96
408.52	3362.76
408.73	3473.36
408.94	3416.01
409.15	3444.68
409.37	3557.32
409.58	3633.10
409.79	3508.17
410.00	3624.90
410.21	3588.04
410.43	3499.98
410.64	3532.75
410.85	3526.60
411.06	3588.04
411.27	3743.69
411.48	3555.27
411.70	3665.86
411.91	3659.72
412.12	3657.67
412.33	3645.38
412.54	3686.34
412.76	3696.58
412.97	3747.78
413.18	3637.19
413.39	3702.73
413.60	3643.34
413.81	3719.11
414.03	3706.82
414.24	3672.01
414.45	3788.74
414.66	3622.86
414.87	3719.11
415.08	3708.87
415.30	3776.45
415.51	3844.04
415.72	3911.62
415.93	3827.65
416.14	3753.93
416.35	3893.19
416.56	3897.28
416.78	3817.41
416.99	3872.71
417.20	3893.19
417.41	3944.39
417.62	3911.62
417.83	4046.79
418.04	4034.50
418.26	3917.76
418.47	3919.81
418.68	3991.49
418.89	4050.88
419.10	4237.25
419.31	4050.88
419.52	4052.93
419.73	4108.23
419.95	4106.18
420.16	4063.17
420.37	4095.94
420.58	4130.75
420.79	3868.61
421.00	4140.99
421.21	4255.68
421.42	4190.14
421.63	4120.51
421.85	4177.86
422.06	4239.30
422.27	4159.42
422.48	4247.49
422.69	4294.59
422.90	4300.73
423.11	4411.32
423.32	4366.27
423.53	4556.73
423.75	4247.49
423.96	4442.04
424.17	4437.95
424.38	4509.63
424.59	4456.38
424.80	4550.59
425.01	4558.78
425.22	4427.71
425.43	4491.20
425.64	4640.70
425.85	4732.86
426.06	4485.05
426.28	4665.27
426.49	4507.58
426.70	4601.79
426.91	4544.44
427.12	4618.17
427.33	4667.32
427.54	4710.33
427.75	4739.00
427.96	4825.01
428.17	4681.66
428.38	4906.93
428.59	4951.99
428.80	4843.45
429.01	4984.76
429.23	4874.17
429.44	5062.58
429.65	4960.18
429.86	4966.32
430.07	5005.24
430.28	4915.12
430.49	4933.56
430.70	5054.39
430.91	5115.83
431.12	4845.49
431.33	5140.40
431.54	5179.31
431.75	5150.64
431.96	5218.22
432.17	5130.16
432.38	5195.70
432.59	5394.35
432.80	5423.02
433.01	5402.54
433.22	5373.87
433.43	5318.57
433.64	5246.90
433.85	5271.47
434.06	5484.46
434.27	5441.45
434.49	5463.98
434.70	5724.07
434.91	5414.83
435.12	5541.80
435.33	5593.00
435.54	5550.00
435.75	5461.93
435.96	5531.56
436.17	5416.88
436.38	5648.30
436.59	5783.46
436.80	5550.00
437.01	5812.14
437.22	5949.35
437.43	5758.89
437.64	5640.11
437.85	5762.98
438.06	5869.48
438.27	5713.83
438.48	5756.84
438.69	5949.35
438.90	5910.44
439.11	5846.95
439.32	6021.03
439.53	6090.66
439.74	6064.04
439.95	6016.93
440.16	6018.98
440.37	6039.46
440.57	5908.39
440.78	6231.97
440.99	6254.50
441.20	6125.47
441.41	5965.73
441.62	6205.35
441.83	6055.84
442.04	6258.59
442.25	6244.26
442.46	6117.28
442.67	6424.48
442.88	6690.71
443.09	6109.09
443.30	6274.98
443.51	6340.51
443.72	6549.40
443.93	6338.46
444.14	6565.79
444.35	6262.69
444.56	6434.72
444.77	6434.72
444.98	6438.81
445.19	6551.45
445.40	6504.35
445.61	6420.38
445.81	6700.95
446.02	6709.15
446.23	6659.99
446.44	6639.51
446.65	6705.05
446.86	6750.10
447.07	6741.91
447.28	6778.78
447.49	6928.28
447.70	6772.63
447.91	6821.78
448.12	6743.96
448.33	7016.34
448.54	6905.75
448.74	6856.60
448.95	7141.27
449.16	6846.36
449.37	7085.97
449.58	6959.00
449.79	6975.38
450.00	6922.13
450.21	7102.36
450.42	7286.67
450.63	7247.76
450.84	7229.33
451.05	7057.30
451.25	7122.84
451.46	7040.92
451.67	7258.00
451.88	7374.74
452.09	7397.26
452.30	7368.59
452.51	7128.98
452.72	7303.06
452.93	7747.47
453.13	7405.46
453.34	7468.94
453.55	7339.92
453.76	7456.65
453.97	7708.55
454.18	7683.98
454.39	7622.54
454.60	7735.18
454.81	7765.90
455.01	7839.62
455.22	7600.01
455.43	7919.50
455.64	7991.17
455.85	8054.66
456.06	8200.07
456.27	7942.02
456.48	7921.54
456.68	7884.68
456.89	8116.10
457.10	8091.52
457.31	8048.52
457.52	8109.96
457.73	8245.12
457.94	8179.59
458.14	8052.61
458.35	8509.31
458.56	8288.13
458.77	8212.35
458.98	8482.69
459.19	8333.18
459.39	8605.56
459.60	8630.14
459.81	8460.16
460.02	8736.63
460.23	8742.78
460.44	8738.68
460.65	8867.70
460.85	8861.56
461.06	8882.04
461.27	8603.52
461.48	8949.62
461.69	9056.12
461.89	8628.09
462.10	8957.82
462.31	8753.02
462.52	8945.53
462.73	9072.50
462.94	9467.76
463.14	9181.04
463.35	9080.69
463.56	9686.89
463.77	9377.65
463.98	9189.24
464.18	9226.10
464.39	9541.49
464.60	9645.93
464.81	9633.64
465.02	9455.47
465.23	9647.98
465.43	9840.49
465.64	9985.90
465.85	9949.03
466.06	9690.99
466.27	10233.70
466.47	9973.61
466.68	10080.10
466.89	10137.45
467.10	9934.70
467.30	9744.24
467.51	10442.59
467.72	10297.19
467.93	10014.57
468.14	10309.47
468.34	10461.02
468.55	10479.46
468.76	10555.23
468.97	10438.50
469.17	10706.78
469.38	10792.80
469.59	11079.51
469.80	10729.31
470.01	10995.54
470.21	10878.81
470.42	11075.42
470.63	11269.97
470.84	11102.04
471.04	11186.01
471.25	11302.74
471.46	11423.57
471.67	11515.73
471.87	11534.16
472.08	11605.84
472.29	11851.60
472.50	11597.65
472.70	11712.33
472.91	11730.76
473.12	11978.57
473.33	12050.25
473.53	12322.63
473.74	12224.33
473.95	12300.10
474.16	12367.68
474.36	12363.59
474.57	12717.89
474.78	12853.05
474.99	12660.54
475.19	12498.75
475.40	12969.79
475.61	13080.38
475.81	13137.72
476.02	13252.41
476.23	13096.76
476.44	13440.82
476.64	13299.51
476.85	13582.13
477.06	13653.81
477.27	13872.94
477.47	13926.19
477.68	13682.48
477.89	14241.57
478.09	14085.93
478.30	14085.93
478.51	14298.92
478.71	14317.35
478.92	14450.47
479.13	14481.19
479.34	14898.97
479.54	14874.40
479.75	14749.47
479.96	14696.22
480.16	15066.91
480.37	15099.67
480.58	15329.05
480.78	15367.96
480.99	15558.42
481.20	15699.73
481.41	15546.13
481.61	15691.54
481.82	15957.77
482.03	15714.06
482.23	16084.75
482.44	16393.99
482.65	16307.98
482.85	16295.69
483.06	16242.44
483.27	16729.86
483.47	16717.57
483.68	16606.98
483.89	16912.13
484.09	16903.93
484.30	16944.89
484.51	17243.90
484.71	17055.48
484.92	17372.92
485.13	17493.75
485.33	17696.50
485.54	17569.52
485.75	17780.46
485.95	17719.03
486.16	17997.55
486.37	18130.67
486.57	18192.11
486.78	17934.06
486.98	18126.57
487.19	18446.05
487.40	18659.04
487.60	18333.42
487.81	18792.16
488.02	18669.28
488.22	18712.29
488.43	18972.38
488.64	18966.24
488.84	18978.53
489.05	19334.87
489.25	19441.37
489.46	19486.42
489.67	19547.86
489.87	19781.33
490.08	19791.57
490.29	19941.07
490.49	20078.29
490.70	20123.34
490.90	20215.50
491.11	20125.39
491.32	20139.72
491.52	20414.15
491.73	20301.51
491.94	20557.51
492.14	20319.95
492.35	20944.58
492.55	21051.07
492.76	21020.35
492.97	21102.27
493.17	21262.01
493.38	21180.09
493.58	21718.71
493.79	21558.97
494.00	21597.88
494.20	21235.39
494.41	21542.58
494.61	21757.62
494.82	22013.62
495.02	21640.89
495.23	22017.71
495.44	22263.47
495.64	22421.16
495.85	22218.41
496.05	22480.55
496.26	22261.42
496.47	22490.79
496.67	22464.17
496.88	22910.63
497.08	22599.34
497.29	22937.25
497.49	22552.23
497.70	22961.83
497.91	23088.80
498.11	23283.36
498.32	23226.01
498.52	23154.33
498.73	23725.72
498.93	23406.23
499.14	23439.00
499.34	23555.74
499.55	23686.81
499.76	23553.69
499.96	23848.60
500.17	23709.33
500.37	23795.35
500.58	24067.73
500.78	24088.21
500.99	24168.08
501.19	24585.86
501.40	24278.67
501.60	23955.09
501.81	24430.22
502.02	24493.71
502.22	24360.59
502.43	24444.56
502.63	24805.00
502.84	24831.62
503.04	24385.16
503.25	24952.45
503.45	24911.49
503.66	24907.40
503.86	25083.52
504.07	25187.97
504.27	25048.71
504.48	25439.87
504.68	25450.11
504.89	25394.81
505.09	25390.72
505.30	25372.28
505.50	25417.34
505.71	25577.08
505.91	25298.56
506.12	25585.27
506.32	25534.07
506.53	25775.73
506.73	25532.03
506.94	26125.94
507.14	25796.21
507.35	25816.69
507.55	26025.59
507.76	25753.21
507.96	26097.27
508.17	26089.07
508.37	26320.49
508.58	25927.28
508.78	26226.29
508.99	26566.25
509.19	26218.10
509.40	26351.21
509.60	26451.56
509.81	26498.67
510.01	26404.46
510.22	26719.85
510.42	26664.55
510.63	26728.04
510.83	26658.41
511.04	26750.57
511.24	27094.63
511.44	26857.06
511.65	26873.45
511.85	26934.88
512.06	27065.96
512.26	27045.48
512.47	27115.11
512.67	27143.78
512.88	27133.54
513.08	26877.54
513.29	27493.98
513.49	27176.55
513.69	27252.32
513.90	27430.49
514.10	27625.05
514.31	27747.93
514.51	27508.32
514.72	27547.23
514.92	27668.06
515.13	27479.64
515.33	27676.25
515.53	27926.10
515.74	27870.81
515.94	27975.25
516.15	28063.32
516.35	27702.87
516.56	28005.97
516.76	27821.66
516.96	28134.99
517.17	28429.90
517.37	28261.97
517.58	28626.51
517.78	28276.30
517.99	28151.38
518.19	28550.73
518.39	28513.87
518.60	28649.03
518.80	28493.39
519.01	28636.75
519.21	28718.67
519.41	29017.67
519.62	28722.76
519.82	29322.82
520.03	29537.85
520.23	29464.13
520.43	28915.27
520.64	29470.27
520.84	29435.45
521.05	29412.93
521.25	29425.22
521.45	29836.86
521.66	29689.40
521.86	29417.02
522.07	29679.16
522.27	29892.15
522.47	29722.17
522.68	29961.78
522.88	29929.02
523.08	30244.40
523.29	29978.17
523.49	30234.16
523.70	30037.56
523.90	30535.21
524.10	30488.11
524.31	30807.59
524.51	30461.49
524.71	31188.52
524.92	30725.68
525.12	31039.01
525.33	30815.79
525.53	31141.41
525.73	31213.09
525.94	31122.98
526.14	31282.72
526.34	31516.19
526.55	31544.86
526.75	31749.66
526.95	31856.15
527.16	31774.24
527.36	31770.14
527.56	32099.86
527.77	31884.83
527.97	32161.30
528.17	31923.74
528.38	32601.61
528.58	32511.50
528.78	32439.82
528.99	32505.36
529.19	32683.53
529.39	32495.12
529.60	33054.22
529.80	32861.71
530.00	32884.23
530.21	33066.50
530.41	33125.89
530.61	33132.04
530.82	32804.36
531.02	33410.56
531.22	33570.30
531.43	33609.22
531.63	34248.18
531.83	34022.90
532.04	34178.55
532.24	34176.50
532.44	34110.97
532.64	34280.95
532.85	34635.25
533.05	34483.70
533.25	34801.13
533.46	34432.50
533.66	35200.49
533.86	34862.57
534.07	35343.84
534.27	35108.33
534.47	35163.62
534.67	35347.94
534.88	35472.87
535.08	35716.58
535.28	35790.30
535.49	35700.19
535.69	36019.67
535.89	36054.49
536.09	36031.96
536.30	36230.62
536.50	36128.22
536.70	36634.06
536.91	36574.67
537.11	36687.31
537.31	36656.59
537.51	36672.98
537.72	37184.97
537.92	37283.27
538.12	37588.42
538.32	37230.02
538.53	37494.21
538.73	36998.60
538.93	37559.75
539.13	37752.26
539.34	37569.99
539.54	37336.52
539.74	37834.17
539.94	37768.64
540.15	37955.00
540.35	38219.19
540.55	37998.01
540.75	38622.64
540.96	38448.57
541.16	38841.78
541.36	38798.77
541.56	38694.32
541.77	38999.47
541.97	38659.51
542.17	38897.07
542.37	38847.92
542.58	38940.08
542.78	38868.40
542.98	39261.61
543.18	39384.49
543.38	39835.04
543.59	39519.65
543.79	39476.65
543.99	39280.04
544.19	39871.90
544.40	39832.99
544.60	39830.94
544.80	39746.98
545.00	40244.63
545.20	39945.63
545.41	40236.44
545.61	40164.76
545.81	40459.67
546.01	40723.86
546.21	40553.88
546.42	40611.22
546.62	40600.98
546.82	40271.26
547.02	41311.63
547.22	40580.50
547.43	40881.55
547.63	40910.22
547.83	41129.36
548.03	40752.53
548.23	41239.95
548.44	41227.66
548.64	41084.30
548.84	41135.50
549.04	41659.78
549.24	41543.05
549.45	41809.28
549.65	41420.17
549.85	41567.62
550.05	41940.35
550.25	41663.88
550.45	42483.06
550.66	42030.46
550.86	41954.69
551.06	42276.22
551.26	42222.97
551.46	42603.89
551.66	42194.30
551.87	42126.72
552.07	42337.66
552.27	42136.96
552.47	42341.75
552.67	42513.78
552.87	42288.51
553.07	42632.57
553.28	42575.22
553.48	42728.82
553.68	42931.57
553.88	42978.67
554.08	42843.51
554.28	42906.99
554.48	42831.22
554.69	43136.37
554.89	42929.52
555.09	43343.21
555.29	43119.98
555.49	43554.15
555.69	43218.28
555.89	43496.81
556.10	43203.95
556.30	43318.64
556.50	43345.26
556.70	43052.40
556.90	43435.37
557.10	43265.39
557.30	43345.26
557.50	43937.12
557.70	43881.83
557.91	43722.08
558.11	43459.94
558.31	43933.03
558.51	43363.69
558.71	43154.80
558.91	43775.33
559.11	43564.39
559.31	43734.37
559.51	43787.62
559.72	43832.68
559.92	43744.61
560.12	44221.79
560.32	44031.33
560.52	44002.66
560.72	44193.12
560.92	44137.82
561.12	43930.98
561.32	44391.77
561.52	44186.97
561.72	44713.30
561.93	44422.49
562.13	44029.28
562.33	44326.24
562.53	44905.81
562.73	44305.76
562.93	44088.67
563.13	44768.60
563.33	44647.77
563.53	44715.35
563.73	44295.52
563.93	44774.74
564.13	44739.93
564.33	44160.35
564.53	44381.53
564.74	44737.88
564.94	44627.29
565.14	44524.89
565.34	44402.01
565.54	44533.08
565.74	44402.01
565.94	45151.57
566.14	44434.78
566.34	44717.40
566.54	45448.52
566.74	44504.41
566.94	44723.54
567.14	44944.72
567.34	44627.29
567.54	45065.55
567.74	45315.40
567.94	44584.28
568.14	44967.25
568.34	45407.56
568.54	44787.03
568.74	45081.94
568.94	44862.80
569.14	45141.33
569.34	45305.16
569.54	44905.81
569.75	44850.52
569.95	44957.01
570.15	45487.43
570.35	45397.32
570.55	45258.06
570.75	44922.19
570.95	45581.64
571.15	45579.59
571.35	45487.43
571.55	45684.04
571.75	45423.95
571.95	45647.18
572.15	45403.47
572.35	45477.19
572.55	45516.11
572.75	45274.45
572.95	45483.34
573.15	45944.13
573.35	45579.59
573.55	44922.19
573.75	45909.32
573.95	45847.88
574.15	45600.07
574.35	45770.05
574.55	45385.04
574.75	45585.74
574.95	45774.15
575.15	45972.80
575.34	45890.88
575.54	45991.23
575.74	46107.97
575.94	45907.27
576.14	46071.10
576.34	46173.50
576.54	46554.43
576.74	46269.76
576.94	46093.63
577.14	46366.01
577.34	46615.86
577.54	45870.40
577.74	46564.67
577.94	46155.07
578.14	46634.30
578.34	46970.16
578.54	46089.54
578.74	46540.09
578.94	46839.09
579.14	46155.07
579.34	46871.86
579.54	46980.40
579.74	46996.79
579.94	47033.65
580.13	47179.06
580.33	46849.33
580.53	46593.34
580.73	46878.00
580.93	46773.56
581.13	47181.10
581.33	47326.51
581.53	47543.59
581.73	47369.52
581.93	47504.68
582.13	47418.67
582.33	47400.24
582.53	47308.08
582.73	47502.64
582.92	47715.62
583.12	47895.85
583.32	47570.22
583.52	47617.32
583.72	48121.12
583.92	47498.54
584.12	48037.16
584.32	48160.03
584.52	47732.01
584.72	47750.44
584.92	48084.26
585.11	48092.45
585.31	48082.21
585.51	48164.13
585.71	47629.61
585.91	48387.36
586.11	48149.79
586.31	48319.77
586.51	48067.87
586.71	48039.20
586.91	48805.14
587.10	48657.69
587.30	48858.39
587.50	48647.45
587.70	48602.39
587.90	48794.90
588.10	48649.50
588.30	48923.93
588.50	49106.19
588.69	48532.76
588.89	48655.64
589.09	49081.62
589.29	49263.89
589.49	49392.91
589.69	48985.36
589.89	49194.26
590.08	49530.12
590.28	49179.92
590.48	48999.70
590.68	49161.49
590.88	49407.25
591.08	49057.04
591.28	48815.38
591.47	49378.57
591.67	49403.15
591.87	49444.11
592.07	49089.81
592.27	49233.17
592.47	49730.83
592.67	49485.07
592.86	49560.84
593.06	49724.68
593.26	49841.42
593.46	50035.97
593.66	49665.29
593.86	50220.29
594.05	50038.02
594.25	50349.31
594.45	49990.92
594.65	50470.14
594.85	49972.49
595.05	50693.37
595.24	50375.94
595.44	50560.25
595.64	50412.80
595.84	50330.88
596.04	50640.12
596.23	50431.23
596.43	50715.90
596.63	50742.52
596.83	51258.61
597.03	51064.05
597.22	51307.76
597.42	50541.82
597.62	51184.88
597.82	51199.22
598.02	51049.72
598.21	51586.28
598.41	50951.41
598.61	51813.61
598.81	51502.32
599.01	51537.13
599.20	51674.35
599.40	51295.47
599.60	51838.18
599.80	52016.36
600.00	51965.16
600.19	52382.94
600.39	51557.61
600.59	52167.91
600.79	52311.27
600.98	52323.55
601.18	52712.67
601.38	52622.56
601.58	52516.06
601.78	52511.97
601.97	52575.45
602.17	52718.81
602.37	52731.10
602.57	52831.45
602.76	53191.89
602.96	52819.16
603.16	52956.38
603.36	52987.10
603.55	53114.07
603.75	53183.70
603.95	53433.55
604.15	53425.36
604.34	53449.94
604.54	53370.07
604.74	53220.56
604.94	54006.98
605.13	53449.94
605.33	54066.38
605.53	53755.08
605.73	54129.86
605.92	53880.01
606.12	53976.26
606.32	54336.71
606.52	53863.63
606.71	54228.16
606.91	54590.66
607.11	53867.72
607.30	54652.09
607.50	54265.03
607.70	54447.30
607.90	54273.22
608.09	54359.23
608.29	54475.97
608.49	54959.29
608.68	54758.59
608.88	55080.12
609.08	54891.71
609.28	54949.05
609.47	55047.35
609.67	55387.31
609.87	55446.71
610.06	55139.51
610.26	54934.71
610.46	55596.21
610.66	54908.09
610.85	55235.77
611.05	55149.75
611.25	55096.50
611.44	54936.76
611.64	55674.03
611.84	55284.92
612.03	55336.12
612.23	55737.52
612.43	55458.99
612.62	55438.51
612.82	55798.96
613.02	55422.13
613.21	55745.71
613.41	55391.41
613.61	56026.28
613.80	55506.10
614.00	55768.24
614.20	55911.59
614.39	55784.62
614.59	56235.17
614.79	55821.48
614.98	55635.12
615.18	55651.50
615.38	55897.26
615.57	56071.34
615.77	56186.02
615.97	56052.90
616.16	55985.32
616.36	56380.58
616.56	56147.11
616.75	56091.82
616.95	55729.33
617.15	55991.47
617.34	56177.83
617.54	56009.90
617.74	56835.23
617.93	56485.03
618.13	55819.44
618.32	55944.36
618.52	55641.26
618.72	56333.48
618.91	56153.26
619.11	55874.73
619.31	55993.51
619.50	55817.39
619.70	55997.61
619.90	56456.35
620.09	56235.17
620.29	56341.67
620.48	56581.28
620.68	56716.45
620.88	56042.66
621.07	56718.49
621.27	56646.82
621.46	56022.19
621.66	56566.94
621.86	56661.15
622.05	56386.72
622.25	56859.80
622.44	56229.03
622.64	56278.18
622.84	56519.84
623.03	56603.81
623.23	56499.36
623.42	56546.47
623.62	56612.00
623.82	57115.80
624.01	56104.10
624.21	56325.28
624.40	56112.30
624.60	56593.57
624.80	56489.12
624.99	56632.48
625.19	56286.37
625.38	56485.03
625.58	56499.36
625.77	56401.06
625.97	56593.57
626.17	56562.85
626.36	56485.03
626.56	56648.86
626.75	55532.72
626.95	56919.20
627.14	56396.96
627.34	56931.48
627.54	56726.69
627.73	56857.76
627.93	56544.42
628.12	56067.24
628.32	56540.32
628.51	56265.89
628.71	56513.70
628.90	56466.59
629.10	56679.58
629.30	56949.92
629.49	56220.84
629.69	56046.76
629.88	56671.39
630.08	56833.18
630.27	57064.60
630.47	56652.96
630.66	56896.67
630.86	56888.48
631.05	56173.73
631.25	56820.89
631.44	56392.87
631.64	56587.42
631.84	56476.83
632.03	56480.93
632.23	56669.34
632.42	57195.67
632.62	56775.84
632.81	56378.53
633.01	56726.69
633.20	56829.08
633.40	57222.29
633.59	56751.26
633.79	56237.22
633.98	56648.86
634.18	56792.22
634.37	56700.06
634.57	56501.41
634.76	57115.80
634.96	56767.65
635.15	57291.93
635.35	56571.04
635.54	56409.25
635.74	57107.61
635.93	56538.27
636.13	56841.37
636.32	56845.47
636.52	56534.18
636.71	56550.56
636.91	56712.35
637.10	56886.43
637.30	57169.05
637.49	56394.92
637.69	56538.27
637.88	56992.92
638.08	56669.34
638.27	57179.29
638.46	56548.51
638.66	56257.70
638.85	56796.32
639.05	56396.96
639.24	57099.42
639.44	56478.88
639.63	56724.64
639.83	57019.55
640.02	56609.95
640.22	56489.12
640.41	57078.94
640.61	56732.83
640.80	56704.16
640.99	56605.86
641.19	56931.48
641.38	57103.51
641.58	56681.63
641.77	56712.35
641.97	56093.86
642.16	56472.74
642.36	57336.98
642.55	56843.42
642.74	56343.72
642.94	57343.12
643.13	56890.52
643.33	57285.78
643.52	57132.18
643.72	56906.91
643.91	56644.77
644.10	57103.51
644.30	56919.20
644.49	57113.75
644.69	56720.54
644.88	57052.31
645.08	56784.03
645.27	56747.17
645.46	56595.62
645.66	56732.83
645.85	56655.01
646.05	56644.77
646.24	56964.25
646.43	56482.98
646.63	56972.44
646.82	57566.35
647.02	56974.49
647.21	57001.11
647.40	56751.26
647.60	57029.79
647.79	56802.46
647.99	57101.46
648.18	56476.83
648.37	56906.91
648.57	57119.90
648.76	57126.04
648.96	56624.29
649.15	57384.08
649.34	56683.68
649.54	57103.51
649.73	56272.04
649.92	56632.48
650.12	56876.19
650.31	57167.00
650.51	57015.45
650.70	56954.01
650.89	56898.72
651.09	57433.24
651.28	56736.93
651.47	56861.85
651.67	56997.02
651.86	57435.28
652.06	56616.10
652.25	56804.51
652.44	56671.39
652.64	56464.55
652.83	56939.68
653.02	56179.88
653.22	56442.02
653.41	56319.14
653.60	56489.12
653.80	56679.58
653.99	56949.92
654.18	56366.24
654.38	56884.38
654.57	56468.64
654.76	56470.69
654.96	56294.56
655.15	56409.25
655.34	56497.31
655.54	56192.17
655.73	56286.37
655.92	56868.00
656.12	56935.58
656.31	56722.59
656.50	56595.62
656.70	56562.85
656.89	56505.51
657.08	56370.34
657.28	56392.87
657.47	56753.31
657.66	56843.42
657.86	56908.96
658.05	56779.93
658.24	57113.75
658.43	56657.06
658.63	57042.07
658.82	57074.84
659.01	56839.32
659.21	56571.04
659.40	56366.24
659.59	56118.44
659.79	57021.59
659.98	57123.99
660.17	56612.00
660.36	56730.78
660.56	56833.18
660.75	56534.18
660.94	56798.37
661.14	56558.75
661.33	56591.52
661.52	55899.31
661.71	56931.48
661.91	56542.37
662.10	56669.34
662.29	56784.03
662.49	56431.78
662.68	56159.40
662.87	56726.69
663.06	56218.79
663.26	56525.99
663.45	56786.08
663.64	56616.10
663.83	57054.36
664.03	56786.08
664.22	56343.72
664.41	56620.19
664.60	56003.75
664.80	56290.47
664.99	56427.68
665.18	56474.79
665.37	56480.93
665.57	56550.56
665.76	56499.36
665.95	56573.09
666.14	56399.01
666.34	55905.45
666.53	56249.51
666.72	56546.47
666.91	56116.39
667.11	56028.33
667.30	55950.51
667.49	56231.08
667.68	56323.24
667.87	56126.63
668.07	56333.48
668.26	56169.64
668.45	56593.57
668.64	56456.35
668.84	56358.05
669.03	56433.83
669.22	56403.11
669.41	56517.79
669.60	55946.41
669.80	55981.23
669.99	56317.09
670.18	56347.81
670.37	56165.54
670.57	56573.09
670.76	56192.17
670.95	56622.24
671.14	56302.76
671.33	56005.80
671.53	56607.90
671.72	56179.88
671.91	56388.77
672.10	55798.96
672.29	56067.24
672.48	55958.70
672.68	56558.75
672.87	55891.12
673.06	56190.12
673.25	56071.34
673.44	55876.78
673.64	55817.39
673.83	55737.52
674.02	55801.00
674.21	55776.43
674.40	56534.18
674.59	55712.94
674.79	55796.91
674.98	55655.60
675.17	55768.24
675.36	55530.67
675.55	55803.05
675.74	55702.70
675.94	55708.85
676.13	55438.51
676.32	56265.89
676.51	56136.87
676.70	56323.24
676.89	55758.00
677.08	56022.19
677.28	55631.02
677.47	56253.61
677.66	55973.03
677.85	56208.55
678.04	55999.66
678.23	56046.76
678.42	55604.40
678.62	56079.53
678.81	56308.90
679.00	55819.44
679.19	56151.21
679.38	55923.88
679.57	55958.70
679.76	56212.65
679.96	55999.66
680.15	55698.61
680.34	55776.43
680.53	55911.59
680.72	56329.38
680.91	56417.44
681.10	55651.50
681.29	55735.47
681.48	55540.91
681.68	55891.12
681.87	55639.22
682.06	56077.48
682.25	55538.86
682.44	55684.27
682.63	56288.42
682.82	55540.91
683.01	55645.36
683.20	55207.09
683.39	55481.52
683.59	55927.98
683.78	55110.84
683.97	55579.82
684.16	55510.19
684.35	55297.20
684.54	55387.31
684.73	55628.98
684.92	54928.57
685.11	55377.08
685.30	55297.20
685.49	56097.96
685.69	55329.97
685.88	55080.12
686.07	55710.89
686.26	55172.28
686.45	55653.55
686.64	55981.23
686.83	55366.84
687.02	55493.81
687.21	55899.31
687.40	55747.76
687.59	55424.18
687.78	55583.92
687.97	55801.00
688.16	55395.51
688.35	55622.83
688.54	55321.78
688.74	55403.70
688.93	55026.87
689.12	55547.06
689.31	55364.79
689.50	55772.33
689.69	55237.81
689.88	54963.39
690.07	55180.47
690.26	55311.54
690.45	55354.55
690.64	55358.64
690.83	55213.24
691.02	55162.04
691.21	55440.56
691.40	55119.03
691.59	55420.08
691.78	55243.96
691.97	55190.71
692.16	55200.95
692.35	55364.79
692.54	54910.14
692.73	55571.63
692.92	55383.22
693.11	55540.91
693.30	54936.76
693.49	55465.14
693.68	54762.68
693.87	55272.63
694.06	54711.49
694.25	55033.02
694.44	54740.16
694.63	55264.44
694.82	55088.31
695.01	55186.61
695.20	54682.81
695.39	55069.88
695.58	54607.04
695.77	54408.39
695.96	54611.13
696.15	54957.24
696.34	54983.86
696.53	54719.68
696.72	55010.49
696.91	54885.56
697.10	55180.47
697.29	54711.49
697.48	55121.08
697.67	54729.92
697.86	54668.48
698.05	54777.02
698.24	55125.17
698.43	54400.19
698.62	55022.78
698.81	54320.32
699.00	54813.88
699.19	54449.35
699.38	54959.29
699.57	54805.69
699.76	55190.71
699.95	54807.74
700.14	54494.40
700.32	54674.62
700.51	54795.45
700.70	55162.04
700.89	54971.58
701.08	54793.40
701.27	54596.80
701.46	54738.11
701.65	53890.25
701.84	54500.54
702.03	54598.85
702.22	54404.29
702.41	54336.71
702.60	54330.56
702.79	54441.15
702.98	53861.58
703.17	54410.43
703.35	54211.78
703.54	54547.65
703.73	54301.89
703.92	54392.00
704.11	54205.64
704.30	54428.87
704.49	54111.43
704.68	54029.51
704.87	53943.50
705.06	54097.09
705.25	54523.07
705.43	54088.90
705.62	54312.13
705.81	54172.87
706.00	53855.43
706.19	53867.72
706.38	53765.32
706.57	54703.29
706.76	53900.49
706.95	54027.46
707.14	54080.71
707.32	53712.08
707.51	53372.11
707.70	54113.48
707.89	54412.48
708.08	53847.24
708.27	53765.32
708.46	54641.85
708.65	53916.87
708.84	53720.27
709.02	54154.44
709.21	53677.26
709.40	53859.53
709.59	54156.49
709.78	53605.58
709.97	54179.01
710.16	54033.61
710.34	53798.09
710.53	54109.38
710.72	53650.64
710.91	53837.00
711.10	53630.16
711.29	54006.98
711.48	53683.40
711.66	53828.81
711.85	53494.99
712.04	53581.01
712.23	53908.68
712.42	53814.47
712.61	53433.55
712.80	53370.07
712.98	53408.98
713.17	52989.14
713.36	53155.03
713.55	53671.12
713.74	53585.10
713.93	53617.87
714.11	53032.15
714.30	53175.51
714.49	53392.59
714.68	53583.05
714.87	53310.67
715.06	53466.32
715.24	52759.77
715.43	52884.70
715.62	52851.93
715.81	53056.73
716.00	53159.12
716.18	53023.96
716.37	52862.17
716.56	52561.12
716.75	53146.84
716.94	53083.35
717.12	52387.04
717.31	53052.63
717.50	53015.77
717.69	53089.49
717.88	52567.26
718.06	52817.11
718.25	53163.22
718.44	52507.87
718.63	52802.78
718.82	52262.11
719.00	52655.32
719.19	52444.38
719.38	52258.02
719.57	52040.93
719.76	52124.90
719.94	52051.17
720.13	52194.53
720.32	52305.12
720.51	52425.95
720.69	51938.54
720.88	52077.80
721.07	51764.46
721.26	51373.30
721.44	51475.69
721.63	51682.54
721.82	51358.96
722.01	51258.61
722.20	51672.30
722.38	51444.98
722.57	51295.47
722.76	51166.45
722.95	51625.20
723.13	50971.89
723.32	50816.25
723.51	50924.79
723.70	50736.38
723.88	51299.57
724.07	50660.60
724.26	51150.07
724.44	50730.23
724.63	50830.58
724.82	51051.76
725.01	50844.92
725.19	51025.14
725.38	50644.22
725.57	50818.30
725.76	50941.17
725.94	50803.96
726.13	50607.36
726.32	50644.22
726.51	50672.89
726.69	51010.81
726.88	50459.90
727.07	50113.80
727.25	50107.65
727.44	50398.46
727.63	50377.98
727.82	50429.18
728.00	50441.47
728.19	50212.10
728.38	50480.38
728.56	49849.61
728.75	50638.08
728.94	50091.27
729.12	50308.35
729.31	50713.85
729.50	50248.96
729.69	50038.02
729.87	50240.77
730.06	50224.39
730.25	50175.23
730.43	50658.56
730.62	49909.00
730.81	50208.00
730.99	50613.50
731.18	50033.92
731.37	50521.34
731.55	50447.61
731.74	50324.74
731.93	49984.77
732.11	50246.91
732.30	50429.18
732.49	50228.48
732.67	50076.93
732.86	50281.73
733.05	50355.46
733.23	49980.68
733.42	50130.18
733.61	49696.01
733.79	50277.63
733.98	50697.47
734.17	50224.39
734.35	49904.90
734.54	50167.04
734.73	50035.97
734.91	49968.39
735.10	49947.91
735.29	50339.07
735.47	49415.44
735.66	49640.71
735.84	49759.50
736.03	49458.45
736.22	50296.06
736.40	49919.24
736.59	49943.81
736.78	49861.90
736.96	49653.00
737.15	49554.70
737.33	49331.47
737.52	49128.72
737.71	49218.83
737.89	49577.23
738.08	48940.31
738.27	49032.47
738.45	49706.25
738.64	49870.09
738.82	49485.07
739.01	49378.57
739.20	49108.24
739.38	49349.90
739.57	49835.27
739.75	49138.96
739.94	48856.34
740.13	49212.69
740.31	49067.28
740.50	49265.94
740.68	49128.72
740.87	49159.44
741.06	48774.42
741.24	48909.59
741.43	48854.29
741.61	48801.05
741.80	48659.74
741.99	48461.08
742.17	48504.09
742.36	48280.86
742.54	48479.52
742.73	48610.59
742.91	48706.84
743.10	48500.00
743.29	48948.50
743.47	48454.94
743.66	48289.06
743.84	48291.10
744.03	48518.43
744.21	48344.35
744.40	48538.91
744.59	48010.53
744.77	48055.59
744.96	47983.91
745.14	48282.91
745.33	48219.42
745.51	47643.94
745.70	48676.12
745.88	47856.93
746.07	47891.75
746.26	47658.28
746.44	47707.43
746.63	47756.58
746.81	47916.32
747.00	47346.99
747.18	47633.71
747.37	47897.89
747.55	47226.16
747.74	47523.11
747.92	47273.26
748.11	47549.74
748.29	47756.58
748.48	47768.87
748.66	47934.76
748.85	47215.92
749.03	47064.37
749.22	47185.20
749.41	47234.35
749.59	47355.18
749.78	47142.19
749.96	46626.10
750.15	47054.13
750.33	47068.47
750.52	47109.43
750.70	46890.29
750.89	46404.92
751.07	46896.44
751.26	46617.91
751.44	46644.54
751.63	46380.35
751.81	46554.43
752.00	46107.97
752.18	46638.39
752.37	46460.22
752.55	46114.11
752.74	45833.54
752.92	46486.84
753.10	46042.43
753.29	46392.64
753.47	46099.78
753.66	45655.37
753.84	45831.49
754.03	46323.01
754.21	45630.79
754.40	45958.47
754.58	46234.94
754.77	45593.93
754.95	45505.87
755.14	45303.12
755.32	45667.66
755.51	45380.94
755.69	45266.25
755.88	45387.08
756.06	45516.11
756.24	45317.45
756.43	44938.58
756.61	45131.09
756.80	45731.14
756.98	45157.71
757.17	45016.40
757.35	44885.33
757.54	45038.93
757.72	45077.84
757.90	44647.77
758.09	44993.87
758.27	44922.19
758.46	44705.11
758.64	44662.10
758.83	44889.43
759.01	44926.29
759.19	44961.11
759.38	44987.73
759.56	44823.89
759.75	44963.15
759.93	44631.38
760.12	44352.86
760.30	44584.28
760.48	44326.24
760.67	43726.18
760.85	44459.35
761.04	44578.14
761.22	44291.42
761.40	44184.93
761.59	43896.16
761.77	44031.33
761.96	44029.28
762.14	44180.83
762.32	44012.90
762.51	43386.22
762.69	43705.70
762.88	43734.37
763.06	43906.40
763.24	44045.66
763.43	43783.52
763.61	43490.66
763.80	43769.19
763.98	43324.78
764.16	43242.86
764.35	43187.56
764.53	42947.95
764.72	43554.15
764.90	43328.87
765.08	43445.61
765.27	43060.59
765.45	43191.66
765.63	42718.58
765.82	43322.73
766.00	42589.56
766.18	42804.59
766.37	42974.58
766.55	42642.81
766.74	42681.72
766.92	42208.64
767.10	42671.48
767.29	42487.16
767.47	42206.59
767.65	42767.73
767.84	41956.74
768.02	42468.73
768.20	41938.30
768.39	41934.21
768.57	42495.35
768.75	42065.28
768.94	42194.30
769.12	42288.51
769.30	41958.78
769.49	41708.93
769.67	41698.69
769.85	41350.54
770.04	41600.39
770.22	41389.45
770.40	41414.02
770.59	41491.85
770.77	41643.40
770.95	41553.29
771.14	41287.05
771.32	40539.54
771.50	40834.45
771.69	41254.28
771.87	41313.67
772.05	40994.19
772.24	40476.05
772.42	40781.20
772.60	40621.46
772.78	40678.80
772.97	40289.69
773.15	40846.74
773.33	40537.49
773.52	40420.76
773.70	40332.70
773.88	40856.98
774.07	40320.41
774.25	40643.99
774.43	40662.42
774.61	40744.34
774.80	40605.08
774.98	40797.59
775.16	40689.04
775.34	40816.02
775.53	40670.61
775.71	40717.71
775.89	40613.27
776.08	40596.88
776.26	40930.70
776.44	40498.58
776.62	40592.79
776.81	40211.87
776.99	40873.36
777.17	40975.76
777.35	40953.23
777.54	41000.33
777.72	40697.24
777.90	40674.71
778.08	40568.21
778.27	40779.15
778.45	41135.50
778.63	41084.30
778.81	40676.76
779.00	41223.56
779.18	41305.48
779.36	41125.26
779.54	40535.45
779.73	41076.11
779.91	41160.08
780.09	40580.50
780.27	41115.02
780.46	41244.04
780.64	41174.41
780.82	40891.79
781.00	40773.01
781.19	41373.06
781.37	41391.50
781.55	41121.16
781.73	41479.56
781.91	41139.60
782.10	41260.43
782.28	41172.36
782.46	41338.25
782.64	41434.50
782.82	41022.86
783.01	41211.28
783.19	41434.50
783.37	41526.66
783.55	40871.31
783.74	41602.44
783.92	41293.19
784.10	41956.74
784.28	41297.29
784.46	41307.53
784.64	41188.75
784.83	41350.54
785.01	41495.94
785.19	41182.60
785.37	41262.47
785.55	41309.58
785.74	41022.86
785.92	41051.53
786.10	41133.45
786.28	41178.51
786.46	40795.54
786.64	40705.43
786.83	40738.19
787.01	40869.26
787.19	41080.21
787.37	41360.78
787.55	41069.97
787.74	40707.47
787.92	40938.90
788.10	40527.25
788.28	40150.43
788.46	41069.97
788.64	40547.73
788.82	40848.78
789.01	40791.44
789.19	40641.94
789.37	40451.48
789.55	40512.92
789.73	40312.22
789.91	40140.19
790.09	40328.60
790.28	40258.97
790.46	39691.68
790.64	39712.16
790.82	39808.42
791.00	39966.11
791.18	39384.49
791.36	39587.24
791.55	39769.51
791.73	39482.79
791.91	39556.52
792.09	39277.99
792.27	39335.34
792.45	39486.89
792.63	39318.95
792.81	39198.12
793.00	38669.75
793.18	38774.19
793.36	38737.33
793.54	38575.54
793.72	38606.26
793.90	38622.64
794.08	37858.75
794.26	38608.31
794.44	38059.45
794.62	38284.73
794.81	38577.59
794.99	38409.65
795.17	38393.27
795.35	38108.60
795.53	38108.60
795.71	38249.91
795.89	37688.77
796.07	37658.05
796.25	37633.47
796.43	37453.25
796.61	37395.91
796.80	37379.53
796.98	37660.10
797.16	37006.80
797.34	37481.92
797.52	37342.66
797.70	37381.57
797.88	36937.16
798.06	36638.16
798.24	36951.50
798.42	36836.81
798.60	36976.08
798.78	36629.97
798.96	37103.05
799.14	36257.24
799.32	36920.78
799.51	36025.82
799.69	36398.55
799.87	36298.20
800.05	36599.25
800.23	36322.77
800.41	35894.75
800.59	36247.00
800.77	35784.16
800.95	35605.98
801.13	35724.77
801.31	35327.46
801.49	35714.53
801.67	35255.78
801.85	35339.75
802.03	35073.51
802.21	35597.79
802.39	35194.34
802.57	35474.91
802.75	35231.21
802.93	34817.52
803.11	34936.30
803.29	34586.10
803.47	34708.97
803.65	34794.99
803.83	34717.17
804.01	34571.76
804.19	34364.92
804.37	33967.61
804.55	34444.79
804.73	34385.40
804.91	34039.29
805.09	34147.83
805.27	34201.08
805.45	34250.23
805.63	34233.85
805.81	33902.07
805.99	33818.11
806.17	33924.60
806.35	33805.82
806.53	33797.63
806.71	33392.13
806.89	33580.54
807.07	33850.88
807.25	33697.28
807.43	33306.12
807.61	33342.98
807.79	33091.08
807.97	32943.63
808.15	32919.05
808.33	33472.00
808.51	32867.85
808.69	32736.78
808.87	32775.69
809.05	32376.34
809.23	32675.34
809.41	32261.65
809.59	32413.20
809.77	32865.80
809.95	32085.53
810.13	32661.01
810.31	32255.51
810.49	32364.05
810.67	32597.52
810.84	32331.28
811.02	32132.63
811.20	32298.52
811.38	32132.63
811.56	31667.74
811.74	31768.09
811.92	31641.12
812.10	31858.20
812.28	31800.86
812.46	31753.76
812.64	31858.20
812.82	31534.62
813.00	31510.05
813.18	31546.91
813.36	31665.69
813.53	31215.14
813.71	31364.64
813.89	31374.88
814.07	31143.46
814.25	31317.54
814.43	31172.13
814.61	30844.46
814.79	30860.84
814.97	31024.68
815.15	31032.87
815.33	30946.86
815.50	30731.82
815.68	30840.36
815.86	30848.55
816.04	30561.84
816.22	30238.26
816.40	30623.28
816.58	30305.84
816.76	30481.97
816.94	30324.27
817.11	30324.27
817.29	30500.40
817.47	30187.06
817.65	29980.21
817.83	30275.12
818.01	29789.75
818.19	30406.19
818.37	29984.31
818.54	30162.48
818.72	29642.30
818.90	29894.20
819.08	29869.62
819.26	29597.24
819.44	29843.00
819.62	29873.72
819.80	29685.31
819.97	29699.64
820.15	29388.35
820.33	29169.22
820.51	29533.76
820.69	29302.34
820.87	29230.66
821.05	29736.51
821.22	29230.66
821.40	29222.47
821.58	29044.29
821.76	29324.86
821.94	29341.25
822.12	29044.29
822.29	28980.81
822.47	28937.80
822.65	29310.53
822.83	28776.01
823.01	28874.31
823.19	28851.78
823.36	28495.44
823.54	28507.72
823.72	28790.34
823.90	28608.08
824.08	28388.94
824.25	28599.88
824.43	28620.36
824.61	28575.31
824.79	28651.08
824.97	28296.78
825.15	28571.21
825.32	28460.62
825.50	28120.66
825.68	28366.42
825.86	28573.26
826.04	28276.30
826.21	28339.79
826.39	28147.28
826.57	27950.68
826.75	28073.56
826.93	27893.33
827.10	28010.07
827.28	28130.90
827.46	28069.46
827.64	27981.40
827.81	27659.87
827.99	27776.60
828.17	27850.33
828.35	27518.56
828.53	27717.21
828.70	27725.40
828.88	27840.09
829.06	27862.61
829.24	27778.65
829.41	27731.54
829.59	27663.96
829.77	27547.23
829.95	27414.11
830.12	27659.87
830.30	27367.01
830.48	27860.57
830.66	27528.80
830.84	27680.35
831.01	27291.23
831.19	27172.45
831.37	27141.73
831.55	27270.75
831.72	27178.59
831.90	27678.30
832.08	27031.14
832.25	26861.16
832.43	27006.56
832.61	27078.24
832.79	26840.68
832.96	26984.04
833.14	26836.58
833.32	26893.93
833.50	26809.96
833.67	26994.28
833.85	26732.14
834.03	26521.20
834.20	26986.08
834.38	26975.84
834.56	26766.95
834.74	26779.24
834.91	26881.64
835.09	26797.67
835.27	26191.47
835.44	26257.01
835.62	26035.83
835.80	26291.82
835.98	26515.05
836.15	26189.42
836.33	26312.30
836.51	26566.25
836.68	26304.11
836.86	26283.63
837.04	26605.16
837.21	26412.65
837.39	26343.02
837.57	26465.90
837.75	26369.65
837.92	26058.35
838.10	25955.96
838.28	25833.08
838.45	26226.29
838.63	25900.66
838.81	25925.24
838.98	25695.86
839.16	25552.51
839.34	25597.56
839.51	25880.18
839.69	25509.50
839.87	25939.57
840.04	25611.90
840.22	25761.40
840.40	25792.12
840.57	25460.35
840.75	25644.66
840.93	25151.10
841.10	25857.65
841.28	25671.29
841.46	25095.81
841.63	25912.95
841.81	25261.69
841.98	25480.83
842.16	25495.16
842.34	25417.34
842.51	24931.97
842.69	25374.33
842.87	25304.70
843.04	24950.40
843.22	25128.58
843.40	24837.76
843.57	25009.79
843.75	25151.10
843.92	25370.24
844.10	25081.47
844.28	24950.40
844.45	25067.14
844.63	25190.02
844.81	24934.02
844.98	24983.17
845.16	25087.62
845.33	24864.39
845.51	24936.07
845.69	25020.03
845.86	24966.79
846.04	24573.58
846.21	24917.64
846.39	24718.98
846.57	24630.92
846.74	24583.82
846.92	24563.34
847.09	24592.01
847.27	24413.84
847.45	24735.37
847.62	24419.98
847.80	24567.43
847.97	24413.84
848.15	24352.40
848.32	24290.96
848.50	24645.26
848.68	24057.49
848.85	24344.20
849.03	23922.32
849.20	24354.44
849.38	24172.18
849.56	24303.25
849.73	24026.77
849.91	24024.72
850.08	24323.72
850.26	23938.71
850.43	24272.53
850.61	23889.56
850.78	23942.80
850.96	23957.14
851.14	23963.28
851.31	23957.14
851.49	23821.97
851.66	23971.47
851.84	23936.66
852.01	23692.95
852.19	23686.81
852.36	23565.98
852.54	23680.66
852.71	23688.85
852.89	23590.55
853.07	23500.44
853.24	23819.92
853.42	23547.54
853.59	23875.22
853.77	23434.91
853.94	23535.26
854.12	23619.22
854.29	23441.05
854.47	23428.76
854.64	23297.69
854.82	23516.83
854.99	23555.74
855.17	23510.68
855.34	23312.03
855.52	23363.23
855.69	23350.94
855.87	23135.90
856.04	22920.87
856.22	23068.32
856.39	22988.45
856.57	22890.15
856.74	22924.96
856.92	23178.91
857.09	22656.68
857.27	23094.94
857.44	23205.53
857.62	23031.46
857.79	23060.13
857.97	22908.58
858.14	22894.24
858.32	22929.06
858.49	22675.11
858.67	22683.30
858.84	22568.62
859.02	22779.56
859.19	22523.56
859.37	22466.22
859.54	22521.51
859.72	22662.82
859.89	22701.73
860.06	22503.08
860.24	22628.01
860.41	22650.53
860.59	22464.17
860.76	22746.79
860.94	22304.43
861.11	22511.27
861.29	22486.70
861.46	22582.95
861.64	22095.53
861.81	22216.36
861.98	22159.02
862.16	21845.68
862.33	22089.39
862.51	22085.30
862.68	22161.07
862.86	21882.55
863.03	21696.18
863.21	21829.30
863.38	21888.69
863.55	21804.72
863.73	21661.37
863.90	21667.51
864.08	21747.38
864.25	21718.71
864.43	21702.32
864.60	21595.83
864.77	21669.56
864.95	21581.49
865.12	21255.87
865.30	21698.23
865.47	21610.17
865.64	21929.65
865.82	21687.99
865.99	21675.70
866.17	21257.92
866.34	21554.87
866.51	21143.23
866.69	21534.39
866.86	21237.44
867.04	21206.72
867.21	21173.95
867.38	21180.09
867.56	20874.95
867.73	21145.28
867.91	20907.71
868.08	21176.00
868.25	21032.64
868.43	20940.48
868.60	21044.93
868.78	20805.31
868.95	21221.05
869.12	20817.60
869.30	20752.07
869.47	20698.82
869.64	20618.95
869.82	20817.60
869.99	20592.33
870.16	20967.10
870.34	20530.89
870.51	20653.76
870.69	20424.39
870.86	20483.78
871.03	20618.95
871.21	20500.17
871.38	20539.08
871.55	20340.43
871.73	20434.63
871.90	20268.75
872.07	20231.88
872.25	19863.25
872.42	20295.37
872.59	20156.11
872.77	20164.30
872.94	20096.72
873.11	20090.57
873.29	20266.70
873.46	19904.21
873.63	20066.00
873.81	20090.57
873.98	19703.51
874.15	19644.12
874.33	19607.25
874.50	19455.70
874.67	19611.35
874.85	19302.11
875.02	19384.02
875.19	19547.86
875.37	19400.41
875.54	19455.70
875.71	19461.85
875.88	19144.41
876.06	19414.74
876.23	19162.84
876.40	19248.86
876.58	18980.57
876.75	19052.25
876.92	19019.49
877.10	19218.14
877.27	18935.52
877.44	19074.78
877.61	19005.15
877.79	18900.70
877.96	18843.36
878.13	19001.05
878.31	18718.43
878.48	18644.71
878.65	18685.67
878.82	18489.06
879.00	18814.69
879.17	18527.97
879.34	18564.84
879.51	18722.53
879.69	18403.05
879.86	18593.51
880.03	18429.67
880.21	18360.04
880.38	18513.64
880.55	18409.19
880.72	18038.51
880.90	18145.00
881.07	18102.00
881.24	18523.88
881.41	18425.57
881.59	18177.77
881.76	18030.32
881.93	18108.14
882.10	17839.86
882.28	18130.67
882.45	18132.72
882.62	17788.66
882.79	18181.87
882.96	17661.68
883.14	17817.33
883.31	17936.11
883.48	17852.14
883.65	17860.34
883.83	17878.77
884.00	17651.44
884.17	17794.80
884.34	17688.31
884.51	17737.46
884.69	17741.55
884.86	17538.80
885.03	17661.68
885.20	17334.01
885.38	17643.25
885.55	17313.53
885.72	17485.56
885.89	17331.96
886.06	17313.53
886.24	17399.54
886.41	17374.97
886.58	17499.89
886.75	17542.90
886.92	17174.27
887.10	17188.60
887.27	17024.76
887.44	17067.77
887.61	17151.74
887.78	17473.27
887.95	17168.12
888.13	17016.57
888.30	17028.86
888.47	17035.00
888.64	17157.88
888.81	17192.70
888.99	17051.39
889.16	16914.17
889.33	16813.82
889.50	16852.73
889.67	16987.90
889.84	16822.02
890.01	16738.05
890.19	16910.08
890.36	16912.13
890.53	16555.78
890.70	16779.01
890.87	16582.40
891.04	16713.47
891.22	16692.99
891.39	16471.81
891.56	16566.02
891.73	16613.12
891.90	16398.09
892.07	16377.61
892.24	16553.73
892.42	16357.13
892.59	16062.22
892.76	16025.36
892.93	16008.97
893.10	16312.07
893.27	16264.97
893.44	16121.61
893.61	16097.03
893.79	16172.81
893.96	16287.50
894.13	16228.10
894.30	16322.31
894.47	16092.94
894.64	16090.89
894.81	16064.27
894.98	16238.34
895.15	16219.91
895.33	16051.98
895.50	15961.87
895.67	16062.22
895.84	16393.99
896.01	16119.56
896.18	16035.60
896.35	16117.51
896.52	15933.20
896.69	16060.17
896.86	16076.55
897.04	16140.04
897.21	15968.01
897.38	16170.76
897.55	15726.35
897.72	15851.28
897.89	15865.61
898.06	15976.20
898.23	15824.65
898.40	15806.22
898.57	15951.63
898.74	16084.75
898.91	15671.06
899.08	16056.08
899.26	15791.89
899.43	15935.24
899.60	15904.53
899.77	15810.32
899.94	15714.06
900.11	15722.26
900.28	15609.62
900.45	15413.01
900.62	15634.19
900.79	15982.35
900.96	15843.09
901.13	15838.99
901.30	15468.31
901.47	15687.44
901.64	15742.74
901.81	15949.58
901.98	15378.20
902.15	15849.23
902.32	15701.78
902.49	15714.06
902.66	15628.05
902.83	15587.09
903.01	15679.25
903.18	15585.04
903.35	15658.77
903.52	15648.53
903.69	15689.49
903.86	15673.10
904.03	15726.35
904.20	15539.99
904.37	15752.98
904.54	15441.68
904.71	15351.57
904.88	15605.52
905.05	15593.23
905.22	15470.36
905.39	15511.32
905.56	15488.79
905.73	15621.91
905.90	15574.80
906.07	15492.88
906.24	15656.72
906.41	15363.86
906.58	15638.29
906.75	15335.19
906.92	15496.98
907.09	15351.57
907.26	15736.59
907.43	15441.68
907.60	15462.16
907.77	15539.99
907.93	15343.38
908.10	15480.60
908.27	15283.99
908.44	15339.29
908.61	15185.69
908.78	15415.06
908.95	15269.66
909.12	15243.03
909.29	15288.09
909.46	15361.81
909.63	15472.40
909.80	15390.49
909.97	15367.96
910.14	15202.07
910.31	15245.08
910.48	15232.79
910.65	15453.97
910.82	15095.58
910.99	15251.22
911.16	14993.18
911.33	15103.77
911.50	15159.06
911.66	15144.73
911.83	14864.16
912.00	15025.95
912.17	15075.10
912.34	15114.01
912.51	14888.73
912.68	14802.72
912.85	15142.68
913.02	14948.12
913.19	14835.49
913.36	14878.49
913.53	14872.35
913.70	14554.91
913.86	14655.26
914.03	14593.83
914.20	14704.42
914.37	14898.97
914.54	14665.50
914.71	14690.08
914.88	14610.21
915.05	14610.21
915.22	14489.38
915.39	14460.71
915.55	14432.04
915.72	14538.53
915.89	14397.22
916.06	14327.59
916.23	14151.46
916.40	14243.62
916.57	14135.08
916.74	13971.24
916.91	14067.50
917.07	13895.47
917.24	14063.40
917.41	14001.96
917.58	14143.27
917.75	13997.87
917.92	13737.77
918.09	13737.77
918.26	13801.26
918.42	13854.51
918.59	13846.32
918.76	13797.17
918.93	13600.56
919.10	13713.20
919.27	13510.45
919.44	13639.47
919.60	13512.50
919.77	13616.94
919.94	13463.35
920.11	13414.20
920.28	13389.62
920.45	13360.95
920.61	13006.65
920.78	13227.83
920.95	13176.63
921.12	13109.05
921.29	13059.90
921.46	13094.71
921.62	12900.16
921.79	12906.30
921.96	12818.24
922.13	12816.19
922.30	12623.68
922.47	12758.85
922.63	12719.93
922.80	12656.45
922.97	12656.45
923.14	12652.35
923.31	12635.97
923.47	12511.04
923.64	12549.95
923.81	12570.43
923.98	12732.22
924.15	12154.69
924.32	12234.57
924.48	12427.07
924.65	12298.05
924.82	12177.22
924.99	11943.75
925.15	11994.95
925.32	12009.29
925.49	11755.34
925.66	12160.84
925.83	11749.20
925.99	11763.53
926.16	11741.00
926.33	11894.60
926.50	11568.98
926.67	11747.15
926.83	11396.95
927.00	11523.92
927.17	11534.16
927.34	11198.29
927.50	11263.83
927.67	11466.58
927.84	11196.25
928.01	11355.99
928.17	11040.60
928.34	11337.56
928.51	11235.16
928.68	11218.77
928.84	11136.85
929.01	10848.09
929.18	10856.28
929.35	10897.24
929.51	10862.43
929.68	10809.18
929.85	10635.10
930.02	10880.86
930.18	10725.21
930.35	10655.58
930.52	10538.85
930.69	10602.33
930.85	10544.99
931.02	10311.52
931.19	10415.97
931.36	10237.80
931.52	10270.56
931.69	10196.84
931.86	10022.76
932.02	10202.98
932.19	10116.97
932.36	9893.74
932.53	10043.24
932.69	9846.63
932.86	9998.18
933.03	9916.26
933.19	9719.66
933.36	9901.93
933.53	9924.46
933.70	9645.93
933.86	9461.62
934.03	9518.96
934.20	9424.75
934.36	9439.09
934.53	9205.62
934.70	9258.87
934.86	9232.24
935.03	8986.49
935.20	9199.48
935.36	9103.22
935.53	8902.52
935.70	9072.50
935.86	8822.65
936.03	8707.96
936.20	8744.83
936.36	8619.90
936.53	8472.45
936.70	8574.85
936.86	8705.92
937.03	8312.71
937.20	8173.44
937.36	8380.29
937.53	8011.65
937.70	7954.31
937.86	7862.15
938.03	7935.88
938.20	7923.59
938.36	7683.98
938.53	7677.83
938.70	7348.11
938.86	7417.74
939.03	7462.80
939.20	7196.56
939.36	7182.23
939.53	7098.26
939.70	7360.40
939.86	7024.53
940.03	6969.24
940.19	6942.61
940.36	6637.47
940.53	6690.71
940.69	6500.25
940.86	6502.30
941.03	6569.88
941.19	6360.99
941.36	6254.50
941.52	6369.18
941.69	6107.04
941.86	6274.98
942.02	6041.51
942.19	6053.80
942.35	6080.42
942.52	5951.40
942.69	6023.08
942.85	5859.24
943.02	5896.10
943.18	5959.59
943.35	5832.62
943.52	5689.26
943.68	5631.91
943.85	5754.79
944.01	5664.68
944.18	5607.34
944.35	5556.14
944.51	5484.46
944.68	5449.64
944.84	5384.11
945.01	5492.65
945.17	5414.83
945.34	5371.82
945.51	5425.07
945.67	5310.38
945.84	5390.25
946.00	5392.30
946.17	5328.81
946.33	5365.68
946.50	5441.45
946.67	5347.25
946.83	5322.67
947.00	5318.57
947.16	5257.14
947.33	5234.61
947.49	5277.62
947.66	5142.45
947.82	5359.53
947.99	5343.15
948.16	5279.66
948.32	5353.39
948.49	5377.97
948.65	5250.99
948.82	5050.29
948.98	5140.40
949.15	5189.55
949.31	5218.22
949.48	5306.29
949.64	5185.46
949.81	5201.84
949.97	5271.47
950.14	5367.73
950.30	5218.22
950.47	5341.10
950.63	5234.61
950.80	5316.53
950.96	5156.79
951.13	5330.86
951.30	5283.76
951.46	5212.08
951.63	5410.73
951.79	5410.73
951.96	5341.10
952.12	5369.77
952.29	5300.14
952.45	5271.47
952.62	5324.72
952.78	5345.20
952.94	5242.80
953.11	5287.86
953.27	5296.05
953.44	5431.21
953.60	5447.60
953.77	5453.74
953.93	5468.08
954.10	5285.81
954.26	5439.40
954.43	5269.42
954.59	5418.93
954.76	5506.99
954.92	5416.88
955.09	5388.21
955.25	5304.24
955.42	5451.69
955.58	5531.56
955.75	5502.89
955.91	5347.25
956.07	5396.40
956.24	5351.34
956.40	5361.58
956.57	5515.18
956.73	5418.93
956.90	5302.19
957.06	5326.77
957.23	5382.06
957.39	5433.26
957.56	5322.67
957.72	5193.65
957.88	5408.69
958.05	5500.84
958.21	5445.55
958.38	5341.10
958.54	5463.98
958.71	5554.09
958.87	5414.83
959.03	5429.17
959.20	5296.05
959.36	5341.10
959.53	5367.73
959.69	5451.69
959.85	5394.35
960.02	5242.80
960.18	5390.25
960.35	5326.77
960.51	5629.87
960.68	5332.91
960.84	5506.99
961.00	5222.32
961.17	5437.36
961.33	5459.88
961.50	5449.64
961.66	5418.93
961.82	5443.50
961.99	5459.88
962.15	5330.86
962.31	5418.93
962.48	5527.47
962.64	5377.97
962.81	5404.59
962.97	5353.39
963.13	5459.88
963.30	5271.47
963.46	5175.22
963.62	5238.70
963.79	5404.59
963.95	5263.28
964.12	5205.94
964.28	5304.24
964.44	5167.03
964.61	5377.97
964.77	5265.33
964.93	5445.55
965.10	5310.38
965.26	5228.46
965.42	5183.41
965.59	5300.14
965.75	5130.16
965.92	5212.08
966.08	5283.76
966.24	5388.21
966.41	5222.32
966.57	5302.19
966.73	5240.75
966.90	5351.34
967.06	5115.83
967.22	5169.07
967.39	5142.45
967.55	5267.38
967.71	5164.98
967.88	5150.64
968.04	5144.50
968.20	5064.63
968.37	5038.00
968.53	5099.44
968.69	5066.67
968.85	5060.53
969.02	5271.47
969.18	5142.45
969.34	5072.82
969.51	5087.15
969.67	5152.69
969.83	4997.04
970.00	5142.45
970.16	5140.40
970.32	4894.65
970.48	5189.55
970.65	5099.44
970.81	4941.75
970.97	5038.00
971.14	4941.75
971.30	5210.03
971.46	5087.15
971.63	4980.66
971.79	5042.10
971.95	4898.74
972.11	4958.13
972.28	4886.45
972.44	5025.72
972.60	4833.21
972.76	4921.27
972.93	4865.97
973.09	5019.57
973.25	4970.42
973.42	4825.01
973.58	4863.93
973.74	4964.28
973.90	4857.78
974.07	4736.95
974.23	4759.48
974.39	4853.69
974.55	4779.96
974.72	4786.10
974.88	4753.34
975.04	4835.25
975.20	4616.12
975.37	4710.33
975.53	4679.61
975.69	4843.45
975.85	4757.43
976.01	4671.42
976.18	4652.98
976.34	4714.42
976.50	4716.47
976.66	4857.78
976.83	4585.40
976.99	4704.18
977.15	4628.41
977.31	4626.36
977.47	4718.52
977.64	4493.24
977.80	4544.44
977.96	4550.59
978.12	4505.53
978.29	4444.09
978.45	4536.25
978.61	4493.24
978.77	4569.02
978.93	4501.44
979.10	4569.02
979.26	4448.19
979.42	4566.97
979.58	4331.45
979.74	4396.99
979.91	4394.94
980.07	4489.15
980.23	4419.52
980.39	4317.12
980.55	4460.48
980.71	4261.82
980.88	4384.70
981.04	4259.78
981.20	4300.73
981.36	4433.85
981.52	4353.98
981.68	4237.25
981.85	4343.74
982.01	4300.73
982.17	4247.49
982.33	4300.73
982.49	4442.04
982.65	4198.34
982.82	4227.01
982.98	4341.69
983.14	4241.34
983.30	4261.82
983.46	4310.97
983.62	4319.17
983.79	4173.76
983.95	4097.99
984.11	4122.56
984.27	4167.62
984.43	4186.05
984.59	4155.33
984.75	4128.70
984.91	4128.70
985.08	4173.76
985.24	4093.89
985.40	4034.50
985.56	4136.90
985.72	4175.81
985.88	3977.16
986.04	3846.09
986.20	4071.36
986.37	3977.16
986.53	3985.35
986.69	4069.31
986.85	4005.83
987.01	4061.12
987.17	3966.92
987.33	3944.39
987.49	3993.54
987.65	4014.02
987.82	3923.91
987.98	3860.42
988.14	3948.48
988.30	3919.81
988.46	3954.63
988.62	3893.19
988.78	3891.14
988.94	3821.51
989.10	3905.48
989.26	3889.09
989.42	3786.69
989.59	3753.93
989.75	3844.04
989.91	3829.70
990.07	3616.71
990.23	3815.37
990.39	3731.40
990.55	3870.66
990.71	3739.59
990.87	3727.30
991.03	3864.52
991.19	3723.21
991.35	3598.28
991.51	3729.35
991.67	3712.97
991.83	3690.44
992.00	3727.30
992.16	3712.97
992.32	3737.54
992.48	3737.54
992.64	3651.53
992.80	3538.89
992.96	3708.87
993.12	3645.38
993.28	3706.82
993.44	3608.52
993.60	3624.90
993.76	3571.66
993.92	3629.00
994.08	3665.86
994.24	3549.13
994.40	3600.33
994.56	3604.42
994.72	3493.83
994.88	3436.49
995.04	3499.98
995.20	3598.28
995.36	3506.12
995.52	3553.23
995.68	3532.75
995.84	3485.64
996.00	3674.06
996.16	3520.46
996.32	3346.38
996.48	3336.14
996.64	3532.75
996.80	3436.49
996.96	3424.20
997.12	3536.84
997.28	3313.61
997.44	3395.53
997.60	3399.63
997.76	3370.96
997.92	3424.20
998.08	3344.33
998.24	3196.88
998.40	3356.62
998.56	3354.57
998.72	3225.55
998.88	3352.52
999.04	3256.27
999.20	3368.91
999.36	3143.63
999.52	3416.01
999.68	3280.85
999.84	3303.37
1000.00	3332.05
1000.16	3370.96
1000.32	3186.64
1000.48	3303.37
1000.64	3203.02
1000.80	3141.58
1000.95	3182.54
1001.11	3229.65
1001.27	3092.43
1001.43	3125.20
1001.59	3190.74
1001.75	3149.78
1001.91	3147.73
1002.07	3086.29
1002.23	3164.11
1002.39	3127.25
1002.55	3213.26
1002.71	3112.91
1002.87	3133.39
1003.03	3012.56
1003.19	3114.96
1003.34	3092.43
1003.50	2961.36
1003.66	3258.32
1003.82	3069.91
1003.98	3125.20
1004.14	3108.82
1004.30	3051.47
1004.46	2985.94
1004.62	3090.38
1004.78	2969.55
1004.94	2922.45
1005.09	3117.01
1005.25	2893.78
1005.41	3016.66
1005.57	2930.64
1005.73	2953.17
1005.89	2906.07
1006.05	2971.60
1006.21	3033.04
1006.37	2914.26
1006.52	3035.09
1006.68	2850.77
1006.84	2998.23
1007.00	2901.97
1007.16	2973.65
1007.32	2918.36
1007.48	2916.31
1007.64	2850.77
1007.79	2912.21
1007.95	2740.18
1008.11	2963.41
1008.27	2881.49
1008.43	2850.77
1008.59	2836.44
1008.75	2856.92
1008.91	2899.92
1009.06	2836.44
1009.22	2789.33
1009.38	2867.16
1009.54	2787.29
1009.70	2781.14
1009.86	2783.19
1010.01	2789.33
1010.17	2768.85
1010.33	2822.10
1010.49	2818.00
1010.65	2760.66
1010.81	2701.27
1010.96	2783.19
1011.12	2600.92
1011.28	2740.18
1011.44	2738.13
1011.60	2664.41
1011.76	2678.74
1011.91	2772.95
1012.07	2709.46
1012.23	2617.30
1012.39	2648.02
1012.55	2691.03
1012.71	2676.70
1012.86	2633.69
1013.02	2609.11
1013.18	2693.08
1013.34	2672.60
1013.50	2580.44
1013.65	2613.21
1013.81	2588.63
1013.97	2559.96
1014.13	2650.07
1014.29	2588.63
1014.44	2674.65
1014.60	2580.44
1014.76	2607.06
1014.92	2596.82
1015.07	2598.87
1015.23	2678.74
1015.39	2457.56
1015.55	2539.48
1015.71	2564.06
1015.86	2547.67
1016.02	2437.08
1016.18	2392.03
1016.34	2590.68
1016.49	2467.80
1016.65	2631.64
1016.81	2584.54
1016.97	2508.76
1017.12	2557.91
1017.28	2363.36
1017.44	2498.52
1017.60	2461.66
1017.75	2545.63
1017.91	2490.33
1018.07	2432.99
1018.23	2459.61
1018.38	2447.32
1018.54	2441.18
1018.70	2439.13
1018.86	2396.12
1019.01	2377.69
1019.17	2404.32
1019.33	2373.60
1019.49	2426.84
1019.64	2435.03
1019.80	2439.13
1019.96	2443.23
1020.12	2387.93
1020.27	2332.64
1020.43	2248.67
1020.59	2424.80
1020.74	2322.40
1020.90	2379.74
1021.06	2297.82
1021.22	2299.87
1021.37	2344.92
1021.53	2306.01
1021.69	2346.97
1021.84	2271.20
1022.00	2295.77
1022.16	2273.25
1022.31	2324.44
1022.47	2328.54
1022.63	2312.16
1022.79	2133.98
1022.94	2254.81
1023.10	2404.32
1023.26	2306.01
1023.41	2285.53
1023.57	2281.44
1023.73	2357.21
1023.88	2273.25
1024.04	2265.05
1024.20	2146.27
1024.35	2306.01
1024.51	2211.81
1024.67	2197.47
1024.82	2351.07
1024.98	2256.86
1025.14	2269.15
1025.29	2234.33
1025.45	2207.71
1025.61	2174.94
1025.76	2207.71
1025.92	2217.95
1026.08	2181.09
1026.23	2246.62
1026.39	2215.90
1026.55	2207.71
1026.70	2164.70
1026.86	2131.94
1027.02	2252.77
1027.17	2164.70
1027.33	2197.47
1027.48	2203.61
1027.64	2183.13
1027.80	2111.46
1027.95	2187.23
1028.11	1961.95
1028.27	2211.81
1028.42	2228.19
1028.58	2148.32
1028.73	2056.16
1028.89	2058.21
1029.05	2217.95
1029.20	2213.85
>>>>>End Processed Spectral Data<<<<<
