SpectraSuite Data File
++++++++++++++++++++++++++++++++++++
Date: Fri Jun 02 14:52:23 CEST 2017
User: INFO_000
Dark Spectrum Present: No
Reference Spectrum Present: No
Number of Sampled Component Spectra: 1
Spectrometers: USB4H00879
Integration Time (usec): 80000 (USB4H00879)
Spectra Averaged: 1 (USB4H00879)
Boxcar Smoothing: 0 (USB4H00879)
Correct for Electrical Dark: No (USB4H00879)
Strobe/Lamp Enabled: No (USB4H00879)
Correct for Detector Non-linearity: No (USB4H00879)
Correct for Stray Light: No (USB4H00879)
Number of Pixels in Processed Spectrum: 3648
>>>>>Begin Processed Spectral Data<<<<<
345.13	1189.87
345.34	1189.87
345.56	1189.87
345.78	1247.21
345.99	1267.69
346.21	1734.63
346.42	1687.53
346.64	1597.42
346.86	1769.44
347.07	1593.32
347.29	1753.06
347.50	1634.28
347.72	1626.09
347.94	1787.88
348.15	1560.55
348.37	1597.42
348.59	1675.24
348.80	1673.19
349.02	1761.25
349.23	1871.84
349.45	1812.45
349.67	1851.36
349.88	1705.96
350.10	1941.47
350.31	1839.08
350.53	1708.01
350.75	1933.28
350.96	1753.06
351.18	1777.64
351.39	1857.51
351.61	1761.25
351.82	1837.03
352.04	1851.36
352.26	1796.07
352.47	1777.64
352.69	1845.22
352.90	1755.11
353.12	1777.64
353.34	1869.80
353.55	1888.23
353.77	1865.70
353.98	1839.08
354.20	1765.35
354.41	1888.23
354.63	1912.80
354.85	1988.58
355.06	1914.85
355.28	1712.10
355.49	1814.50
355.71	1871.84
355.92	1841.12
356.14	1920.99
356.35	1765.35
356.57	1757.16
356.79	1916.90
357.00	1861.60
357.22	1961.95
357.43	1748.97
357.65	1890.28
357.86	1806.31
358.08	1843.17
358.29	1945.57
358.51	1888.23
358.72	1896.42
358.94	1904.61
359.16	1892.32
359.37	1992.67
359.59	2013.15
359.80	1929.19
360.02	1906.66
360.23	1937.38
360.45	2033.63
360.66	1908.71
360.88	1859.56
361.09	1884.13
361.31	1931.23
361.52	1875.94
361.74	2060.26
361.95	2017.25
362.17	1920.99
362.38	1961.95
362.60	1988.58
362.81	2011.11
363.03	1920.99
363.24	1998.82
363.46	2043.87
363.67	1959.91
363.89	1892.32
364.10	1939.43
364.32	1902.56
364.53	2060.26
364.75	1923.04
364.96	1982.43
365.18	1968.10
365.39	1853.41
365.61	2011.11
365.82	2115.55
366.04	2015.20
366.25	1986.53
366.47	2019.30
366.68	2027.49
366.90	1966.05
367.11	1994.72
367.33	2035.68
367.54	2097.12
367.76	2056.16
367.97	2121.70
368.19	2002.91
368.40	2080.74
368.62	1920.99
368.83	1884.13
369.05	1953.76
369.26	2011.11
369.48	1953.76
369.69	1968.10
369.91	1998.82
370.12	2009.06
370.33	2070.50
370.55	1888.23
370.76	2019.30
370.98	2054.11
371.19	2062.30
371.41	2035.68
371.62	2084.83
371.84	2000.87
372.05	2117.60
372.27	2043.87
372.48	2082.78
372.69	2029.54
372.91	2084.83
373.12	2142.18
373.34	2025.44
373.55	2076.64
373.77	2242.53
373.98	2111.46
374.20	2179.04
374.41	2303.96
374.62	2054.11
374.84	2226.14
375.05	2160.61
375.27	2197.47
375.48	2228.19
375.70	2273.25
375.91	2166.75
376.12	2336.73
376.34	2121.70
376.55	2203.61
376.77	2240.48
376.98	2183.13
377.19	2164.70
377.41	2183.13
377.62	2154.46
377.84	2332.64
378.05	2359.26
378.27	2222.05
378.48	2359.26
378.69	2404.32
378.91	2324.44
379.12	2236.38
379.34	2281.44
379.55	2299.87
379.76	2338.78
379.98	2238.43
380.19	2271.20
380.41	2260.96
380.62	2310.11
380.83	2238.43
381.05	2185.18
381.26	2398.17
381.47	2205.66
381.69	2242.53
381.90	2412.51
382.12	2293.72
382.33	2293.72
382.54	2314.20
382.76	2383.84
382.97	2344.92
383.19	2199.52
383.40	2361.31
383.61	2396.12
383.83	2285.53
384.04	2361.31
384.25	2279.39
384.47	2361.31
384.68	2435.03
384.89	2387.93
385.11	2400.22
385.32	2377.69
385.54	2439.13
385.75	2410.46
385.96	2465.75
386.18	2533.34
386.39	2303.96
386.60	2381.79
386.82	2408.41
387.03	2418.65
387.24	2430.94
387.46	2453.47
387.67	2541.53
387.88	2531.29
388.10	2559.96
388.31	2418.65
388.52	2607.06
388.74	2633.69
388.95	2514.91
389.16	2408.41
389.38	2525.15
389.59	2572.25
389.80	2701.27
390.02	2486.23
390.23	2594.78
390.44	2621.40
390.66	2578.39
390.87	2510.81
391.08	2623.45
391.30	2693.08
391.51	2697.17
391.72	2619.35
391.94	2693.08
392.15	2574.30
392.36	2717.65
392.58	2727.89
392.79	2639.83
393.00	2723.80
393.22	2721.75
393.43	2781.14
393.64	2852.82
393.85	2777.05
394.07	2731.99
394.28	2805.72
394.49	2848.72
394.71	2797.53
394.92	2975.70
395.13	2705.37
395.35	2691.03
395.56	2744.28
395.77	2863.06
395.98	2863.06
396.20	2940.88
396.41	2877.40
396.62	2944.98
396.84	2883.54
397.05	2840.53
397.26	2871.25
397.47	2973.65
397.69	2781.14
397.90	2957.27
398.11	2934.74
398.32	2924.50
398.54	2889.68
398.75	2891.73
398.96	2940.88
399.18	3160.02
399.39	2912.21
399.60	3051.47
399.81	2932.69
400.03	2971.60
400.24	3321.81
400.45	2967.51
400.66	3133.39
400.88	3100.62
401.09	3264.46
401.30	3121.10
401.51	3170.26
401.73	3098.58
401.94	3153.87
402.15	3180.50
402.36	3311.57
402.58	3268.56
402.79	3170.26
403.00	3155.92
403.21	3258.32
403.43	3307.47
403.64	3301.33
403.85	3141.58
404.06	3246.03
404.27	3086.29
404.49	3278.80
404.70	3149.78
404.91	3227.60
405.12	3276.75
405.34	3264.46
405.55	3344.33
405.76	3221.45
405.97	3233.74
406.19	3444.68
406.40	3319.76
406.61	3241.93
406.82	3360.72
407.03	3379.15
407.25	3311.57
407.46	3411.92
407.67	3465.16
407.88	3444.68
408.09	3338.19
408.31	3448.78
408.52	3338.19
408.73	3422.16
408.94	3432.40
409.15	3465.16
409.37	3434.44
409.58	3524.55
409.79	3563.47
410.00	3489.74
410.21	3477.45
410.43	3571.66
410.64	3508.17
410.85	3590.09
411.06	3512.27
411.27	3557.32
411.48	3581.90
411.70	3571.66
411.91	3567.56
412.12	3657.67
412.33	3612.62
412.54	3698.63
412.76	3721.16
412.97	3704.78
413.18	3577.80
413.39	3606.47
413.60	3733.45
413.81	3629.00
414.03	3590.09
414.24	3655.62
414.45	3766.21
414.66	3790.79
414.87	3889.09
415.08	3745.73
415.30	3794.89
415.51	3807.17
415.72	3672.01
415.93	3850.18
416.14	3866.56
416.35	3790.79
416.56	3821.51
416.78	3854.28
416.99	3956.68
417.20	3755.97
417.41	3897.28
417.62	3960.77
417.83	3973.06
418.04	3903.43
418.26	4081.60
418.47	4079.55
418.68	4016.07
418.89	4048.83
419.10	4116.42
419.31	4085.70
419.52	4169.66
419.73	3989.44
419.95	4140.99
420.16	4196.29
420.37	3944.39
420.58	4157.38
420.79	4024.26
421.00	3880.90
421.21	4198.34
421.42	4198.34
421.63	4192.19
421.85	4116.42
422.06	4306.88
422.27	4304.83
422.48	4173.76
422.69	4274.11
422.90	4425.66
423.11	4413.37
423.32	4261.82
423.53	4390.84
423.75	4396.99
423.96	4448.19
424.17	4433.85
424.38	4405.18
424.59	4339.65
424.80	4595.64
425.01	4503.48
425.22	4515.77
425.43	4470.72
425.64	4722.62
425.85	4751.29
426.06	4573.11
426.28	4579.26
426.49	4624.31
426.70	4693.94
426.91	4663.22
427.12	4704.18
427.33	4732.86
427.54	4614.07
427.75	4980.66
427.96	4853.69
428.17	4908.98
428.38	4886.45
428.59	4933.56
428.80	4779.96
429.01	4902.84
429.23	5005.24
429.44	5085.11
429.65	5019.57
429.86	5070.77
430.07	4995.00
430.28	4999.09
430.49	4892.60
430.70	5169.07
430.91	5066.67
431.12	5177.26
431.33	5207.98
431.54	5285.81
431.75	5232.56
431.96	5091.25
432.17	5201.84
432.38	5287.86
432.59	5371.82
432.80	5506.99
433.01	5392.30
433.22	5400.49
433.43	5306.29
433.64	5398.45
433.85	5285.81
434.06	5453.74
434.27	5320.62
434.49	5410.73
434.70	5519.28
434.91	5582.76
435.12	5607.34
435.33	5455.79
435.54	5570.48
435.75	5578.67
435.96	5629.87
436.17	5447.60
436.38	5658.54
436.59	5812.14
436.80	5547.95
437.01	5662.63
437.22	5773.22
437.43	5740.46
437.64	5523.37
437.85	5935.01
438.06	5767.08
438.27	5748.65
438.48	5836.71
438.69	5963.68
438.90	5775.27
439.11	5939.11
439.32	5992.36
439.53	5980.07
439.74	5906.34
439.95	6080.42
440.16	6049.70
440.37	6098.85
440.57	5937.06
440.78	6012.84
440.99	6066.08
441.20	6111.14
441.41	5967.78
441.62	6080.42
441.83	5961.64
442.04	6066.08
442.25	6084.52
442.46	6156.19
442.67	6322.08
442.88	6639.51
443.09	6119.33
443.30	6201.25
443.51	6195.11
443.72	6582.17
443.93	6324.13
444.14	6653.85
444.35	6291.36
444.56	6379.42
444.77	6447.01
444.98	6498.20
445.19	6477.73
445.40	6608.80
445.61	6500.25
445.81	6629.27
446.02	6604.70
446.23	6549.40
446.44	6418.33
446.65	6582.17
446.86	6582.17
447.07	6774.68
447.28	6850.46
447.49	6741.91
447.70	6715.29
447.91	6754.20
448.12	6793.11
448.33	6905.75
448.54	6836.12
448.74	6784.92
448.95	7004.05
449.16	6877.08
449.37	7229.33
449.58	6813.59
449.79	7206.80
450.00	6844.31
450.21	7141.27
450.42	7180.18
450.63	7028.63
450.84	6985.62
451.05	7290.77
451.25	7188.37
451.46	7034.77
451.67	7319.44
451.88	7206.80
452.09	7378.83
452.30	7274.38
452.51	7276.43
452.72	7450.51
452.93	7645.07
453.13	7274.38
453.34	7243.67
453.55	7382.93
453.76	7462.80
453.97	7761.80
454.18	7686.03
454.39	7726.99
454.60	7473.04
454.81	7610.25
455.01	7726.99
455.22	7403.41
455.43	7708.55
455.64	7866.25
455.85	7825.29
456.06	7997.32
456.27	7927.69
456.48	7870.34
456.68	7972.74
456.89	7972.74
457.10	8212.35
457.31	8142.72
457.52	8091.52
457.73	8148.87
457.94	8294.27
458.14	8001.41
458.35	8548.22
458.56	8343.42
458.77	8286.08
458.98	8382.34
459.19	8390.53
459.39	8576.89
459.60	8597.37
459.81	8290.18
460.02	8490.88
460.23	8607.61
460.44	8836.99
460.65	8847.22
460.85	8757.11
461.06	8871.80
461.27	8808.31
461.48	9025.40
461.69	9152.37
461.89	8753.02
462.10	9000.82
462.31	8879.99
462.52	8939.38
462.73	9209.72
462.94	9434.99
463.14	9179.00
463.35	9037.69
463.56	9637.74
463.77	9424.75
463.98	9361.27
464.18	9398.13
464.39	9584.49
464.60	9686.89
464.81	9613.17
465.02	9678.70
465.23	10030.95
465.43	9719.66
465.64	9883.50
465.85	9883.50
466.06	9846.63
466.27	10133.35
466.47	10108.77
466.68	10256.23
466.89	10098.53
467.10	10106.73
467.30	10108.77
467.51	10428.26
467.72	10680.16
467.93	10094.44
468.14	10671.97
468.34	10676.06
468.55	10807.13
468.76	10585.95
468.97	10557.28
469.17	10938.20
469.38	11001.69
469.59	10946.39
469.80	10887.00
470.01	11028.31
470.21	11143.00
470.42	11171.67
470.63	11380.56
470.84	11124.57
471.04	11280.21
471.25	11667.28
471.46	11388.75
471.67	11847.50
471.87	11521.87
472.08	11763.53
472.29	11976.52
472.50	11659.09
472.70	11792.20
472.91	11962.19
473.12	12308.29
473.33	12166.98
473.53	12222.28
473.74	12197.70
473.95	12504.90
474.16	12609.34
474.36	12500.80
474.57	12758.85
474.78	12832.57
474.99	12787.52
475.19	12820.28
475.40	13182.77
475.61	13272.89
475.81	13293.37
476.02	13623.09
476.23	13262.65
476.44	13393.72
476.64	13588.27
476.85	13666.10
477.06	13727.53
477.27	14063.40
477.47	13909.80
477.68	14024.49
477.89	14315.30
478.09	14104.36
478.30	14290.73
478.51	14356.26
478.71	14685.98
478.92	14565.15
479.13	14937.88
479.34	14772.00
479.54	14989.08
479.75	14821.15
479.96	14655.26
480.16	15091.48
480.37	15240.98
480.58	15453.97
480.78	15601.43
480.99	15392.53
481.20	15705.87
481.41	15836.94
481.61	15910.67
481.82	16002.83
482.03	15886.09
482.23	15855.37
482.44	16293.64
482.65	16439.05
482.85	16553.73
483.06	16357.13
483.27	16453.38
483.47	16652.03
483.68	16801.54
483.89	16627.46
484.09	16942.85
484.30	16731.90
484.51	17065.72
484.71	17209.08
484.92	17475.32
485.13	17483.51
485.33	17473.27
485.54	17383.16
485.75	17764.08
485.95	17702.64
486.16	17739.51
486.37	17966.83
486.57	17979.12
486.78	17977.07
486.98	18202.35
487.19	18364.14
487.40	18339.56
487.60	18228.97
487.81	18450.15
488.02	18527.97
488.22	18646.76
488.43	18839.26
488.64	18749.15
488.84	19091.16
489.05	18947.81
489.25	19101.40
489.46	19281.63
489.67	18980.57
489.87	19504.85
490.08	19605.20
490.29	19318.49
490.49	19930.83
490.70	19857.10
490.90	20123.34
491.11	19859.15
491.32	20188.88
491.52	20115.15
491.73	20188.88
491.94	20287.18
492.14	20004.56
492.35	20438.73
492.55	20735.68
492.76	20815.55
492.97	20747.97
493.17	20960.96
493.38	20942.53
493.58	21096.13
493.79	21030.59
494.00	21079.74
494.20	21122.75
494.41	21591.73
494.61	21259.96
494.82	21440.18
495.02	21569.21
495.23	21700.28
495.44	21597.88
495.64	21821.11
495.85	21640.89
496.05	21829.30
496.26	21839.54
496.47	21952.18
496.67	21995.18
496.88	22337.20
497.08	22124.21
497.29	22421.16
497.49	22314.67
497.70	22630.05
497.91	22675.11
498.11	22931.11
498.32	22865.57
498.52	22920.87
498.73	22924.96
498.93	22884.00
499.14	23168.67
499.34	23154.33
499.55	23443.10
499.76	23140.00
499.96	23191.20
500.17	23568.02
500.37	23391.90
500.58	23502.49
500.78	24055.44
500.99	23932.56
501.19	24094.35
501.40	24010.39
501.60	23547.54
501.81	23879.32
502.02	23979.67
502.22	24075.92
502.43	24450.70
502.63	24399.50
502.84	24428.17
503.04	24301.20
503.25	24336.01
503.45	24426.12
503.66	24573.58
503.86	24723.08
504.07	25101.95
504.27	25243.26
504.48	25005.70
504.68	25114.24
504.89	25081.47
505.09	25351.81
505.30	24911.49
505.50	25063.04
505.71	25310.85
505.91	25153.15
506.12	25409.15
506.32	25511.55
506.53	25497.21
506.73	25609.85
506.94	25484.92
507.14	25734.78
507.35	26238.58
507.55	25792.12
507.76	26125.94
507.96	25790.07
508.17	25912.95
508.37	25810.55
508.58	26093.17
508.78	26263.15
508.99	26611.31
509.19	26424.94
509.40	26244.72
509.60	26320.49
509.81	26490.48
510.01	26340.97
510.22	26725.99
510.42	26922.60
510.63	26742.38
510.83	26498.67
511.04	26576.49
511.24	26951.27
511.44	26941.03
511.65	27113.06
511.85	26879.59
512.06	26848.87
512.26	27493.98
512.47	27256.42
512.67	26971.75
512.88	27620.95
513.08	27068.00
513.29	27336.29
513.49	27395.68
513.69	27827.80
513.90	27405.92
514.10	27817.56
514.31	27831.90
514.51	27833.94
514.72	27745.88
514.92	27897.43
515.13	27899.48
515.33	27876.95
515.53	28280.40
515.74	28067.41
515.94	28409.42
516.15	28018.26
516.35	28116.56
516.56	28380.75
516.76	28522.06
516.96	28460.62
517.17	28687.95
517.37	28513.87
517.58	28685.90
517.78	28890.70
517.99	29083.20
518.19	29072.96
518.39	29439.55
518.60	28839.50
518.80	29230.66
519.01	29066.82
519.21	29097.54
519.41	29314.62
519.62	29331.01
519.82	29488.70
520.03	29726.27
520.23	29595.20
520.43	29693.50
520.64	30047.80
520.84	29945.40
521.05	30002.74
521.25	30279.22
521.45	29949.50
521.66	30193.20
521.86	30248.50
522.07	30029.37
522.27	30719.53
522.47	30375.47
522.68	30752.30
522.88	30576.17
523.08	30645.80
523.29	30885.42
523.49	30545.45
523.70	31014.44
523.90	31129.12
524.10	30979.62
524.31	31366.69
524.51	30948.90
524.71	31555.10
524.92	31612.45
525.12	31432.22
525.33	31663.64
525.53	32081.43
525.73	32028.18
525.94	31915.54
526.14	31725.08
526.34	31968.79
526.55	32218.64
526.75	32075.29
526.95	32335.38
527.16	32110.10
527.36	32183.83
527.56	32327.19
527.77	32808.46
527.97	32794.12
528.17	32620.05
528.38	32945.67
528.58	33318.40
528.78	32798.22
528.99	33148.42
529.19	33058.31
529.39	33000.97
529.60	33584.64
529.80	33248.77
530.00	33308.16
530.21	33754.62
530.41	33641.98
530.61	33584.64
530.82	33986.04
531.02	33918.46
531.22	34059.77
531.43	33730.05
531.63	34254.33
531.83	34653.68
532.04	34903.53
532.24	34440.69
532.44	34905.58
532.64	35030.51
532.85	34991.59
533.05	35325.41
533.25	34887.15
533.46	35161.58
533.66	35349.99
533.86	35247.59
534.07	35333.60
534.27	35130.86
534.47	35685.86
534.67	35624.42
534.88	35589.60
535.08	35753.44
535.28	35735.01
535.49	35556.83
535.69	36287.96
535.89	36361.69
536.09	36376.02
536.30	36552.15
536.50	36373.97
536.70	36623.83
536.91	36238.81
537.11	36570.58
537.31	36699.60
537.51	36789.71
537.72	37475.78
537.92	37084.62
538.12	37690.82
538.32	37168.58
538.53	37156.30
538.73	36984.27
538.93	37426.63
539.13	37369.29
539.34	37477.83
539.54	37217.74
539.74	37635.52
539.94	37604.80
540.15	37598.66
540.35	37903.81
540.55	37942.72
540.75	38241.72
540.96	38086.07
541.16	38104.51
541.36	38010.30
541.56	38294.97
541.77	38610.35
541.97	38315.45
542.17	38718.90
542.37	38616.50
542.58	38589.88
542.78	38757.81
542.98	38387.13
543.18	38759.86
543.38	39531.94
543.59	38935.98
543.79	38700.47
543.99	39075.24
544.19	39089.58
544.40	38956.46
544.60	39230.89
544.80	39407.01
545.00	39130.54
545.20	39441.83
545.41	39589.28
545.61	39566.76
545.81	39615.91
546.01	39945.63
546.21	39757.22
546.42	39400.87
546.62	39806.37
546.82	39654.82
547.02	40002.97
547.22	40252.83
547.43	39806.37
547.63	40203.67
547.83	40103.32
548.03	40056.22
548.23	40306.07
548.44	40263.07
548.64	40537.49
548.84	40625.56
549.04	40474.01
549.24	40689.04
549.45	40797.59
549.65	40441.24
549.85	40717.71
550.05	40918.42
550.25	40773.01
550.45	41414.02
550.66	40959.38
550.86	40877.46
551.06	41162.12
551.26	41227.66
551.46	41031.05
551.66	41160.08
551.87	40967.57
552.07	41158.03
552.27	41723.27
552.47	41624.96
552.67	41653.64
552.87	41256.33
553.07	41307.53
553.28	41624.96
553.48	41643.40
553.68	41629.06
553.88	42382.71
554.08	41807.23
554.28	41612.68
554.48	41575.81
554.69	41790.85
554.89	41811.33
555.09	42182.01
555.29	41928.06
555.49	41710.98
555.69	42118.53
555.89	41903.49
556.10	42040.70
556.30	41989.50
556.50	42472.82
556.70	42272.12
556.90	42603.89
557.10	42362.23
557.30	42302.84
557.50	42724.72
557.70	42651.00
557.91	42624.37
558.11	42861.94
558.31	42876.27
558.51	42583.41
558.71	43111.79
558.91	43140.46
559.11	42702.20
559.31	43224.43
559.51	42835.31
559.72	42810.74
559.92	43402.60
560.12	42990.96
560.32	43009.39
560.52	43130.22
560.72	43195.76
560.92	43621.73
561.12	43341.16
561.32	43662.69
561.52	43099.50
561.72	43789.67
561.93	43392.36
562.13	43474.28
562.33	43144.56
562.53	43959.65
562.73	43531.62
562.93	43545.96
563.13	43908.45
563.33	43380.07
563.53	44098.91
563.73	43474.28
563.93	43871.59
564.13	44481.88
564.33	44232.03
564.53	43998.56
564.74	44176.73
564.94	43844.96
565.14	44438.87
565.34	43832.68
565.54	44399.96
565.74	44291.42
565.94	44784.98
566.14	44219.74
566.34	44066.14
566.54	44883.28
566.74	43818.34
566.94	44279.13
567.14	44602.71
567.34	44647.77
567.54	44735.83
567.74	44528.98
567.94	44651.86
568.14	44762.45
568.34	44914.00
568.54	45256.01
568.74	45065.55
568.94	45043.02
569.14	45096.27
569.34	45346.12
569.54	45110.61
569.75	44946.77
569.95	44930.39
570.15	45630.79
570.35	45505.87
570.55	45411.66
570.75	45323.60
570.95	45528.39
571.15	45303.12
571.35	45376.84
571.55	46015.81
571.75	45528.39
571.95	45755.72
572.15	45827.40
572.35	45747.53
572.55	45921.60
572.75	46245.18
572.95	45753.67
573.15	46095.68
573.35	45833.54
573.55	45784.39
573.75	45980.99
573.95	46019.91
574.15	45886.79
574.35	46191.94
574.55	46249.28
574.75	46189.89
574.95	46431.55
575.15	46179.65
575.34	46746.93
575.54	46847.29
575.74	46767.41
575.94	46503.23
576.14	46347.58
576.34	46968.12
576.54	47207.73
576.74	46882.10
576.94	46722.36
577.14	47093.04
577.34	47303.98
577.54	46998.83
577.74	47639.85
577.94	47273.26
578.14	47574.31
578.34	47666.47
578.54	47416.62
578.74	47441.20
578.94	47758.63
579.14	47451.44
579.34	47531.31
579.54	47766.82
579.74	48264.48
579.94	47990.05
580.13	47930.66
580.33	48049.44
580.53	48172.32
580.73	48168.22
580.93	47768.87
581.13	48020.77
581.33	48362.78
581.53	48522.52
581.73	48325.92
581.93	48747.80
582.13	48887.06
582.33	48612.63
582.53	48710.94
582.73	49108.24
582.92	49050.90
583.12	48657.69
583.32	49026.32
583.52	48989.46
583.72	49177.87
583.92	49063.19
584.12	49415.44
584.32	49304.85
584.52	49112.34
584.72	49048.85
584.92	49030.42
585.11	49554.70
585.31	49417.49
585.51	49569.04
585.71	49773.83
585.91	49730.83
586.11	49091.86
586.31	49165.59
586.51	49235.22
586.71	49505.55
586.91	50169.09
587.10	49657.10
587.30	49937.67
587.50	49952.01
587.70	49779.98
587.90	50261.25
588.10	49999.11
588.30	50132.23
588.50	50236.67
588.69	50124.04
588.89	50222.34
589.09	50730.23
589.29	50431.23
589.49	50902.26
589.69	50244.87
589.89	50539.77
590.08	50472.19
590.28	50625.79
590.48	50210.05
590.68	50576.64
590.88	50445.57
591.08	50355.46
591.28	50324.74
591.47	51205.36
591.67	50519.29
591.87	50750.71
592.07	50812.15
592.27	50580.73
592.47	51209.46
592.67	50896.12
592.86	50738.43
593.06	50728.19
593.26	51193.07
593.46	51291.38
593.66	51229.94
593.86	51201.27
594.05	51373.30
594.25	51967.21
594.45	50803.96
594.65	51410.16
594.85	50779.39
595.05	51514.61
595.24	51408.11
595.44	51473.65
595.64	51721.45
595.84	51524.85
596.04	51762.41
596.23	51397.87
596.43	52034.79
596.63	51778.79
596.83	51442.93
597.03	52077.80
597.22	52249.83
597.42	51592.43
597.62	51918.06
597.82	52288.74
598.02	51950.82
598.21	51981.54
598.41	51983.59
598.61	51983.59
598.81	51926.25
599.01	51717.35
599.20	52366.56
599.40	52296.93
599.60	52460.77
599.80	52722.91
600.00	52782.30
600.19	52823.26
600.39	52200.68
600.59	52993.24
600.79	52686.04
600.98	52813.02
601.18	53261.52
601.38	53021.91
601.58	52618.46
601.78	53105.88
601.97	52737.24
602.17	53423.31
602.37	53312.72
602.57	53089.49
602.76	53056.73
602.96	53056.73
603.16	53195.99
603.36	53365.97
603.55	53404.88
603.75	53228.76
603.95	53497.04
604.15	53509.33
604.34	53738.70
604.54	53949.64
604.74	54029.51
604.94	53787.85
605.13	53816.52
605.33	53806.28
605.53	53595.34
605.73	53791.95
605.92	53433.55
606.12	53929.16
606.32	54297.80
606.52	53767.37
606.71	53667.02
606.91	53865.67
607.11	53998.79
607.30	54119.62
607.50	54179.01
607.70	54166.73
607.90	53785.80
608.09	54047.94
608.29	54541.50
608.49	53947.59
608.68	54187.21
608.88	54416.58
609.08	54426.82
609.28	54248.64
609.47	54162.63
609.67	54961.34
609.87	54813.88
610.06	54627.52
610.26	54340.80
610.46	54514.88
610.66	54484.16
610.85	54459.58
611.05	54572.22
611.25	54594.75
611.44	54369.47
611.64	54650.05
611.84	54455.49
612.03	54170.82
612.23	54811.84
612.43	54676.67
612.62	54320.32
612.82	54813.88
613.02	54799.55
613.21	54920.38
613.41	54105.29
613.61	54897.85
613.80	54312.13
614.00	54934.71
614.20	55153.85
614.39	54774.97
614.59	54793.40
614.79	55178.42
614.98	54820.03
615.18	54486.21
615.38	55069.88
615.57	54541.50
615.77	54865.08
615.97	55133.37
616.16	54674.62
616.36	54588.61
616.56	55227.57
616.75	54768.83
616.95	54586.56
617.15	54793.40
617.34	54604.99
617.54	54641.85
617.74	55170.23
617.93	55262.39
618.13	54463.68
618.32	54654.14
618.52	54944.95
618.72	55047.35
618.91	55014.58
619.11	54639.81
619.31	54639.81
619.50	54828.22
619.70	54858.94
619.90	54906.04
620.09	54932.67
620.29	54453.44
620.48	54619.33
620.68	55067.83
620.88	54244.55
621.07	54803.64
621.27	54858.94
621.46	54373.57
621.66	54707.39
621.86	55053.50
622.05	54648.00
622.25	55098.55
622.44	55016.63
622.64	54746.30
622.84	55112.89
623.03	54944.95
623.23	55125.17
623.42	55065.78
623.62	55014.58
623.82	54969.53
624.01	55174.33
624.21	55063.74
624.40	54817.98
624.60	55071.93
624.80	54621.37
624.99	54799.55
625.19	54359.23
625.38	54748.35
625.58	54600.89
625.77	54752.44
625.97	54961.34
626.17	54805.69
626.36	55178.42
626.56	55207.09
626.75	54334.66
626.95	55401.65
627.14	54817.98
627.34	55628.98
627.54	54826.17
627.73	54949.05
627.93	55051.45
628.12	54817.98
628.32	55235.77
628.51	55069.88
628.71	54764.73
628.90	55071.93
629.10	54637.76
629.30	54850.75
629.49	55286.96
629.69	55307.44
629.88	55157.94
630.08	55162.04
630.27	55219.38
630.47	54990.01
630.66	54766.78
630.86	55176.37
631.05	54809.79
631.25	55387.31
631.44	55100.60
631.64	55192.76
631.84	54944.95
632.03	55411.89
632.23	54975.67
632.42	55669.93
632.62	55229.62
632.81	55051.45
633.01	55418.03
633.20	55526.58
633.40	55741.61
633.59	55147.70
633.79	55022.78
633.98	55616.69
634.18	55747.76
634.37	55528.62
634.57	55456.95
634.76	55909.55
634.96	55506.10
635.15	55508.14
635.35	55463.09
635.54	55336.12
635.74	55684.27
635.93	55440.56
636.13	55606.45
636.32	56040.62
636.52	55219.38
636.71	55565.49
636.91	55798.96
637.10	55882.92
637.30	55905.45
637.49	55502.00
637.69	55712.94
637.88	56282.28
638.08	55733.42
638.27	56272.04
638.46	56102.06
638.66	55665.84
638.85	55579.82
639.05	55473.33
639.24	56018.09
639.44	55295.16
639.63	56458.40
639.83	56456.35
640.02	55938.22
640.22	55835.82
640.41	56038.57
640.61	55368.88
640.80	56110.25
640.99	55936.17
641.19	56706.21
641.38	56315.04
641.58	55973.03
641.77	55942.31
641.97	56220.84
642.16	56538.27
642.36	56536.23
642.55	56540.32
642.74	56247.46
642.94	56743.07
643.13	56255.65
643.33	56581.28
643.52	56777.89
643.72	56769.69
643.91	56712.35
644.10	56280.23
644.30	56700.06
644.49	56306.85
644.69	56706.21
644.88	56728.73
645.08	56431.78
645.27	56558.75
645.46	56341.67
645.66	56550.56
645.85	56519.84
646.05	56747.17
646.24	56956.06
646.43	56482.98
646.63	56861.85
646.82	57500.82
647.02	56677.54
647.21	56857.76
647.40	56986.78
647.60	57439.38
647.79	56831.13
647.99	56784.03
648.18	57105.56
648.37	57640.08
648.57	57242.77
648.76	57242.77
648.96	56997.02
649.15	57431.19
649.34	57472.15
649.54	57713.81
649.73	56784.03
649.92	57375.89
650.12	57087.13
650.31	57468.05
650.51	57662.61
650.70	57304.21
650.89	57218.20
651.09	58225.80
651.28	57357.46
651.47	57660.56
651.67	57365.65
651.86	57640.08
652.06	57138.33
652.25	57664.66
652.44	57388.18
652.64	57144.47
652.83	57474.20
653.02	57189.53
653.22	57865.36
653.41	57287.83
653.60	57001.11
653.80	57623.70
653.99	57488.53
654.18	57037.98
654.38	57492.63
654.57	57316.50
654.76	57349.27
654.96	57468.05
655.15	57443.48
655.34	57259.16
655.54	57062.55
655.73	57824.40
655.92	57664.66
656.12	57519.25
656.31	57681.04
656.50	57334.93
656.70	57439.38
656.89	57396.37
657.08	57846.93
657.28	57844.88
657.47	57832.59
657.66	58088.59
657.86	57742.48
658.05	57947.28
658.24	58057.87
658.43	57658.51
658.63	57928.84
658.82	58004.62
659.01	58213.51
659.21	58102.92
659.40	58119.31
659.59	57554.07
659.79	58072.20
659.98	58131.59
660.17	58045.58
660.36	58182.79
660.56	57930.89
660.75	57808.01
660.94	57973.90
661.14	57836.69
661.33	57848.97
661.52	57396.37
661.71	57963.66
661.91	57574.55
662.10	57459.86
662.29	58410.12
662.49	57891.98
662.68	58240.14
662.87	58076.30
663.06	58176.65
663.26	58100.87
663.45	57914.51
663.64	57644.18
663.83	58365.06
664.03	58238.09
664.22	58299.53
664.41	58367.11
664.60	57918.60
664.80	58332.29
664.99	58074.25
665.18	57955.47
665.37	57779.34
665.57	57816.21
665.76	57918.60
665.95	57783.44
666.14	57611.41
666.34	57664.66
666.53	57975.95
666.72	57736.34
666.91	57490.58
667.11	57558.16
667.30	57631.89
667.49	57461.91
667.68	57795.73
667.87	57511.06
668.07	57715.86
668.26	57978.00
668.45	57744.53
668.64	57474.20
668.84	58334.34
669.03	58086.54
669.22	57969.80
669.41	57826.45
669.60	57685.14
669.80	57668.75
669.99	58170.50
670.18	57885.84
670.37	57832.59
670.57	58016.91
670.76	57541.78
670.95	58078.35
671.14	57822.35
671.33	57212.06
671.53	58266.76
671.72	58055.82
671.91	58043.53
672.10	57562.26
672.29	57595.03
672.48	57588.88
672.68	58338.44
672.87	57664.66
673.06	57726.10
673.25	57093.27
673.44	57429.14
673.64	57160.86
673.83	57050.27
674.02	56886.43
674.21	56947.87
674.40	57623.70
674.59	57253.01
674.79	56964.25
674.98	57185.43
675.17	57007.26
675.36	57099.42
675.55	57218.20
675.74	56923.29
675.94	57046.17
676.13	57228.44
676.32	57599.12
676.51	57566.35
676.70	57748.62
676.89	57115.80
677.08	57334.93
677.28	56894.62
677.47	57343.12
677.66	57443.48
677.85	56798.37
678.04	56767.65
678.23	57263.25
678.42	57164.95
678.62	56566.94
678.81	57277.59
679.00	57021.59
679.19	57486.48
679.38	56960.15
679.57	56980.63
679.76	56847.52
679.96	57480.34
680.15	56915.10
680.34	57146.52
680.53	56992.92
680.72	57269.40
680.91	57015.45
681.10	57044.12
681.29	57119.90
681.48	56751.26
681.68	57001.11
681.87	56609.95
682.06	56747.17
682.25	56226.98
682.44	56382.63
682.63	56951.96
682.82	56278.18
683.01	56745.12
683.20	55919.79
683.39	56599.71
683.59	56206.50
683.78	56300.71
683.97	55950.51
684.16	56343.72
684.35	55792.81
684.54	56396.96
684.73	56390.82
684.92	55639.22
685.11	56087.72
685.30	55850.16
685.49	56489.12
685.69	55997.61
685.88	55981.23
686.07	55997.61
686.26	56024.23
686.45	56466.59
686.64	56399.01
686.83	56130.73
687.02	56218.79
687.21	56194.21
687.40	56153.26
687.59	55583.92
687.78	56003.75
687.97	56011.95
688.16	55952.55
688.35	55760.05
688.54	55534.77
688.74	55801.00
688.93	55780.52
689.12	55729.33
689.31	55626.93
689.50	55743.66
689.69	55082.17
689.88	54885.56
690.07	55813.29
690.26	55350.45
690.45	55837.87
690.64	55510.19
690.83	55555.25
691.02	55370.93
691.21	55213.24
691.40	55266.48
691.59	55811.24
691.78	55186.61
691.97	55612.59
692.16	54957.24
692.35	56020.14
692.54	55301.30
692.73	55137.46
692.92	55229.62
693.11	55051.45
693.30	55022.78
693.49	55319.73
693.68	55141.56
693.87	55196.85
694.06	54781.12
694.25	54912.19
694.44	54885.56
694.63	54865.08
694.82	54662.33
695.01	54854.84
695.20	54641.85
695.39	54799.55
695.58	55096.50
695.77	54109.38
695.96	54752.44
696.15	54543.55
696.34	54226.12
696.53	54891.71
696.72	54621.37
696.91	54529.22
697.10	55045.30
697.29	54582.46
697.48	54920.38
697.67	54592.70
697.86	54432.96
698.05	54203.59
698.24	54523.07
698.43	53920.97
698.62	54209.73
698.81	54355.14
699.00	54367.43
699.19	54029.51
699.38	54068.42
699.57	53869.77
699.76	54461.63
699.95	54131.91
700.14	53791.95
700.32	53851.34
700.51	53830.86
700.70	54207.68
700.89	53959.88
701.08	54299.84
701.27	53841.10
701.46	54645.95
701.65	54047.94
701.84	53769.42
702.03	53853.39
702.22	53542.10
702.41	54310.08
702.60	53941.45
702.79	53732.56
702.98	53370.07
703.17	53400.79
703.35	53583.05
703.54	53458.13
703.73	53472.46
703.92	53566.67
704.11	53583.05
704.30	53114.07
704.49	53279.96
704.68	53228.76
704.87	53075.16
705.06	53101.78
705.25	53023.96
705.43	53337.30
705.62	53441.74
705.81	53386.45
706.00	52976.86
706.19	52847.83
706.38	53144.79
706.57	53273.81
706.76	52624.60
706.95	53015.77
707.14	52600.03
707.32	52896.98
707.51	52866.27
707.70	52585.69
707.89	53220.56
708.08	53224.66
708.27	52823.26
708.46	53556.43
708.65	53015.77
708.84	52888.79
709.02	53345.49
709.21	53042.39
709.40	52878.55
709.59	53044.44
709.78	52405.47
709.97	52892.89
710.16	52319.46
710.34	52561.12
710.53	52595.93
710.72	52188.39
710.91	52436.19
711.10	52888.79
711.29	52626.65
711.48	52817.11
711.66	52135.14
711.85	52143.33
712.04	52307.17
712.23	52626.65
712.42	52337.89
712.61	52286.69
712.80	52532.45
712.98	52337.89
713.17	52327.65
713.36	52632.80
713.55	52665.56
713.74	52057.32
713.93	52106.47
714.11	51803.37
714.30	51852.52
714.49	51834.09
714.68	52081.89
714.87	52182.24
715.06	52618.46
715.24	52028.65
715.43	51852.52
715.62	51633.39
715.81	51504.37
716.00	51762.41
716.18	51188.98
716.37	51369.20
716.56	51297.52
716.75	51551.47
716.94	51500.27
717.12	51330.29
717.31	51760.36
717.50	51475.69
717.69	51424.50
717.88	51698.92
718.06	51944.68
718.25	51688.68
718.44	51084.53
718.63	51238.13
718.82	51100.92
719.00	51510.51
719.19	50971.89
719.38	51545.33
719.57	50711.80
719.76	50545.92
719.94	50609.40
720.13	50500.86
720.32	50695.42
720.51	50574.59
720.69	50908.41
720.88	50787.58
721.07	50695.42
721.26	50355.46
721.44	50449.66
721.63	50607.36
721.82	50181.38
722.01	50371.84
722.20	50683.13
722.38	50590.97
722.57	49956.10
722.76	50244.87
722.95	50312.45
723.13	49976.58
723.32	50021.64
723.51	49673.48
723.70	49691.91
723.88	49921.29
724.07	49356.05
724.26	49732.87
724.44	49845.51
724.63	50316.54
724.82	49491.21
725.01	49708.30
725.19	49927.43
725.38	49784.07
725.57	49792.26
725.76	50142.47
725.94	49538.32
726.13	49372.43
726.32	48917.78
726.51	49825.03
726.69	49585.42
726.88	49829.13
727.07	49579.28
727.25	49231.12
727.44	49497.36
727.63	49222.93
727.82	49394.96
728.00	49386.77
728.19	49251.60
728.38	49687.82
728.56	48958.74
728.75	49677.58
728.94	49155.35
729.12	49730.83
729.31	49562.89
729.50	49589.52
729.69	49792.26
729.87	49216.78
730.06	49544.46
730.25	49198.35
730.43	49855.75
730.62	49231.12
730.81	49526.03
730.99	49411.34
731.18	49009.94
731.37	49472.78
731.55	49749.26
731.74	49675.53
731.93	49308.94
732.11	49597.71
732.30	49341.71
732.49	49257.74
732.67	49052.95
732.86	49399.05
733.05	49544.46
733.23	49001.75
733.42	49085.72
733.61	49095.95
733.79	49231.12
733.98	49427.73
734.17	49276.18
734.35	49351.95
734.54	48989.46
734.73	49452.30
734.91	48905.49
735.10	48563.48
735.29	49280.27
735.47	48581.91
735.66	49290.51
735.84	48774.42
736.03	49179.92
736.22	49325.33
736.40	48786.71
736.59	49536.27
736.78	48835.86
736.96	49108.24
737.15	48676.12
737.33	48639.26
737.52	48704.79
737.71	48790.81
737.89	48549.15
738.08	48624.92
738.27	48583.96
738.45	49259.79
738.64	49282.32
738.82	48522.52
739.01	48706.84
739.20	48395.55
739.38	48792.86
739.57	49356.05
739.75	49417.49
739.94	48637.21
740.13	48719.13
740.31	48581.91
740.50	48643.35
740.68	48321.82
740.87	48512.28
741.06	48903.45
741.24	47994.15
741.43	48020.77
741.61	48727.32
741.80	47844.65
741.99	48395.55
742.17	48463.13
742.36	47928.61
742.54	48405.79
742.73	48332.06
742.91	48262.43
743.10	48055.59
743.29	48219.42
743.47	48170.27
743.66	48477.47
743.84	47914.28
744.03	47936.80
744.21	48071.97
744.40	48618.78
744.59	48252.19
744.77	47754.54
744.96	48172.32
745.14	48207.14
745.33	47936.80
745.51	48170.27
745.70	48057.63
745.88	47922.47
746.07	47789.35
746.26	47443.24
746.44	47764.78
746.63	47592.75
746.81	47617.32
747.00	47732.01
747.18	47742.25
747.37	47478.06
747.55	47645.99
747.74	47398.19
747.92	47793.45
748.11	47576.36
748.29	47617.32
748.48	47803.69
748.66	47336.75
748.85	47330.61
749.03	47484.20
749.22	47502.64
749.41	47150.38
749.59	47521.07
749.78	46929.20
749.96	46714.17
750.15	46697.78
750.33	47375.66
750.52	47191.34
750.70	47174.96
750.89	46677.30
751.07	46892.34
751.26	46880.05
751.44	46753.08
751.63	46552.38
751.81	46454.08
752.00	46691.64
752.18	46865.72
752.37	46527.80
752.55	46265.66
752.74	46495.03
752.92	46556.47
753.10	46245.18
753.29	46660.92
753.47	45858.12
753.66	46052.67
753.84	46478.65
754.03	46017.86
754.21	46150.98
754.40	45925.70
754.58	46081.34
754.77	45755.72
754.95	45477.19
755.14	45684.04
755.32	45923.65
755.51	45903.17
755.69	45737.29
755.88	45950.27
756.06	45505.87
756.24	45626.70
756.43	45454.67
756.61	45763.91
756.80	45563.21
756.98	45135.18
757.17	45313.36
757.35	45571.40
757.54	45241.68
757.72	45499.72
757.90	45258.06
758.09	45196.62
758.27	45323.60
758.46	44885.33
758.64	45133.14
758.83	45360.46
759.01	45264.21
759.19	44952.91
759.38	45352.27
759.56	45772.10
759.75	45008.21
759.93	45192.53
760.12	45061.46
760.30	45088.08
760.48	44815.70
760.67	44756.31
760.85	44821.84
761.04	44817.75
761.22	44789.08
761.40	44600.66
761.59	44991.83
761.77	44815.70
761.96	44234.08
762.14	44465.50
762.32	44238.17
762.51	44279.13
762.69	44217.69
762.88	44066.14
763.06	44326.24
763.24	44250.46
763.43	44242.27
763.61	43988.32
763.80	44094.82
763.98	43781.48
764.16	44328.28
764.35	44127.58
764.53	43466.09
764.72	43890.02
764.90	43558.25
765.08	43937.12
765.27	43775.33
765.45	43447.66
765.63	43435.37
765.82	43959.65
766.00	43124.08
766.18	43603.30
766.37	43496.81
766.55	43070.83
766.74	43591.01
766.92	43253.10
767.10	43023.73
767.29	43054.45
767.47	42968.43
767.65	43418.99
767.84	42667.38
768.02	42896.75
768.20	42249.60
768.39	42853.75
768.57	42603.89
768.75	43009.39
768.94	42542.45
769.12	42960.24
769.30	42347.90
769.49	42646.90
769.67	42098.05
769.85	42198.40
770.04	42179.96
770.22	42130.81
770.40	42030.46
770.59	42188.16
770.77	42706.29
770.95	41940.35
771.14	41569.67
771.32	41837.95
771.50	41612.68
771.69	41432.46
771.87	41827.71
772.05	41794.95
772.24	41266.57
772.42	41538.95
772.60	41323.91
772.78	41346.44
772.97	41297.29
773.15	41563.53
773.33	40990.09
773.52	41057.68
773.70	41463.18
773.88	41657.73
774.07	41368.97
774.25	40811.92
774.43	41571.72
774.61	41250.19
774.80	41528.71
774.98	41037.20
775.16	41502.09
775.34	41358.73
775.53	41448.84
775.71	41330.06
775.89	41375.11
776.08	41268.62
776.26	41305.48
776.44	41424.26
776.62	41338.25
776.81	40801.68
776.99	41403.78
777.17	41145.74
777.35	41672.07
777.54	41663.88
777.72	41395.59
777.90	41411.98
778.08	41930.11
778.27	41043.34
778.45	41751.94
778.63	41782.66
778.81	41665.92
779.00	41885.06
779.18	41489.80
779.36	42065.28
779.54	41366.92
779.73	41692.55
779.91	41735.56
780.09	41506.18
780.27	42028.41
780.46	41360.78
780.64	42042.75
780.82	41403.78
781.00	41696.64
781.19	41885.06
781.37	41979.26
781.55	41809.28
781.73	41899.39
781.91	41753.99
782.10	41454.98
782.28	41852.29
782.46	41923.97
782.64	41938.30
782.82	42188.16
783.01	41952.64
783.19	41962.88
783.37	42110.33
783.55	42024.32
783.74	42319.23
783.92	41590.15
784.10	42628.47
784.28	42128.77
784.46	41579.91
784.64	41721.22
784.83	41821.57
785.01	42163.58
785.19	41864.58
785.37	41930.11
785.55	42145.15
785.74	41612.68
785.92	41289.10
786.10	42145.15
786.28	41958.78
786.46	41571.72
786.64	41588.10
786.83	41837.95
787.01	41352.58
787.19	41663.88
787.37	41244.04
787.55	41817.47
787.74	41221.52
787.92	41411.98
788.10	41115.02
788.28	40996.24
788.46	41319.82
788.64	41016.72
788.82	41491.85
789.01	40947.09
789.19	41276.81
789.37	40779.15
789.55	40797.59
789.73	40326.55
789.91	40695.19
790.09	40549.78
790.28	40795.54
790.46	40449.43
790.64	40828.30
790.82	40455.57
791.00	40310.17
791.18	40273.31
791.36	40306.07
791.55	40441.24
791.73	40101.28
791.91	39837.09
792.09	39941.53
792.27	39712.16
792.45	39935.39
792.63	39730.59
792.81	39706.02
793.00	39851.42
793.18	39249.32
793.36	39140.78
793.54	39441.83
793.72	39364.01
793.90	39310.76
794.08	38874.54
794.26	39060.91
794.44	38655.41
794.62	39038.38
794.81	38747.57
794.99	38843.82
795.17	38512.05
795.35	38657.46
795.53	38944.17
795.71	38641.07
795.89	38313.40
796.07	38098.36
796.25	37920.19
796.43	37930.43
796.61	37914.05
796.80	37625.28
796.98	37889.47
797.16	37592.51
797.34	38073.79
797.52	37350.85
797.70	37631.43
797.88	37637.57
798.06	37178.82
798.24	37561.79
798.42	37084.62
798.60	36984.27
798.78	37223.88
798.96	36877.77
799.14	36580.82
799.32	36881.87
799.51	36488.66
799.69	37043.66
799.87	36537.81
800.05	36462.04
800.23	36478.42
800.41	36416.98
800.59	36365.78
800.77	35659.23
800.95	35931.61
801.13	36242.90
801.31	35769.82
801.49	35921.37
801.67	35605.98
801.85	35761.63
802.03	35591.65
802.21	35472.87
802.39	35468.77
802.57	35153.38
802.75	35345.89
802.93	35302.89
803.11	35300.84
803.29	35212.77
803.47	35020.27
803.65	34950.63
803.83	34760.17
804.01	34964.97
804.19	34479.60
804.37	34620.91
804.55	34670.06
804.73	34680.30
804.91	34135.54
805.09	34272.76
805.27	34495.99
805.45	34393.59
805.63	34487.79
805.81	33988.09
805.99	34145.78
806.17	34086.39
806.35	34371.06
806.53	33957.37
806.71	33805.82
806.89	33854.97
807.07	33629.69
807.25	33764.86
807.43	33572.35
807.61	33631.74
807.79	33453.57
807.97	33297.92
808.15	33152.52
808.33	33005.06
808.51	33068.55
808.69	33117.70
808.87	32931.34
809.05	32626.19
809.23	32921.10
809.41	32683.53
809.59	32374.29
809.77	32728.59
809.95	32390.67
810.13	32970.25
810.31	32157.21
810.49	32312.85
810.67	32382.48
810.84	32376.34
811.02	32378.39
811.20	32067.09
811.38	32378.39
811.56	31792.67
811.74	31950.36
811.92	31817.24
812.10	31890.97
812.28	32063.00
812.46	32028.18
812.64	32067.09
812.82	31563.29
813.00	31551.01
813.18	31845.91
813.36	31356.45
813.53	31249.96
813.71	31610.40
813.89	31174.18
814.07	30975.53
814.25	31546.91
814.43	31137.32
814.61	31221.28
814.79	30903.85
814.97	30815.79
815.15	31053.35
815.33	30901.80
815.50	30354.99
815.68	31012.39
815.86	30864.94
816.04	30322.23
816.22	30418.48
816.40	30905.90
816.58	30258.74
816.76	30185.01
816.94	30338.61
817.11	30385.71
817.29	30238.26
817.47	30221.87
817.65	29912.63
817.83	30434.86
818.01	30045.75
818.19	29922.87
818.37	30117.43
818.54	30045.75
818.72	29871.67
818.90	29738.55
819.08	29554.24
819.26	29685.31
819.44	29904.44
819.62	29474.37
819.80	29998.65
819.97	29476.41
820.15	29118.02
820.33	29425.22
820.51	29486.65
820.69	29367.87
820.87	29249.09
821.05	29435.45
821.22	29218.37
821.40	29267.52
821.58	28929.61
821.76	29068.87
821.94	28982.85
822.12	29111.88
822.29	29230.66
822.47	28956.23
822.65	28937.80
822.83	29175.36
823.01	29111.88
823.19	28667.47
823.36	28743.24
823.54	28470.86
823.72	28591.69
823.90	29003.33
824.08	28388.94
824.25	28745.29
824.43	28503.63
824.61	28460.62
824.79	28603.98
824.97	28114.52
825.15	28665.42
825.32	28038.74
825.50	28153.43
825.68	28094.04
825.86	28212.82
826.04	28288.59
826.21	28335.70
826.39	28266.06
826.57	27960.92
826.75	27835.99
826.93	27778.65
827.10	28192.34
827.28	28032.60
827.46	28100.18
827.64	28028.50
827.81	27711.07
827.99	27872.85
828.17	27688.54
828.35	27528.80
828.53	27641.43
828.70	27424.35
828.88	27512.41
829.06	27518.56
829.24	27637.34
829.41	27514.46
829.59	27651.67
829.77	27557.47
829.95	27266.66
830.12	27147.87
830.30	27618.91
830.48	27133.54
830.66	27338.33
830.84	27369.05
831.01	27280.99
831.19	27051.62
831.37	27088.48
831.55	27000.42
831.72	27221.60
831.90	26828.39
832.08	27199.07
832.25	27014.76
832.43	26951.27
832.61	26631.79
832.79	26863.21
832.96	26914.41
833.14	26895.97
833.32	26994.28
833.50	26654.31
833.67	26689.13
833.85	26809.96
834.03	26431.08
834.20	26388.08
834.38	26752.62
834.56	26664.55
834.74	26414.70
834.91	26363.50
835.09	26398.32
835.27	26293.87
835.44	26332.78
835.62	25964.15
835.80	26111.60
835.98	26173.04
836.15	26287.73
836.33	26023.54
836.51	26283.63
836.68	26293.87
836.86	26066.55
837.04	26355.31
837.21	26031.73
837.39	26070.64
837.57	26218.10
837.75	26232.43
837.92	26011.25
838.10	25665.14
838.28	25554.55
838.45	25865.85
838.63	25605.75
838.81	25804.41
838.98	25423.48
839.16	25368.19
839.34	25630.33
839.51	25671.29
839.69	25364.09
839.87	25482.88
840.04	25306.75
840.22	25661.05
840.40	25280.13
840.57	25286.27
840.75	25409.15
840.93	25308.80
841.10	25337.47
841.28	25781.88
841.46	25247.36
841.63	25468.54
841.81	25362.04
841.98	25443.96
842.16	24934.02
842.34	25372.28
842.51	25077.38
842.69	25378.43
842.87	24929.92
843.04	25288.32
843.22	25042.56
843.40	24749.70
843.57	24686.22
843.75	24952.45
843.92	24899.20
844.10	24979.07
844.28	24807.05
844.45	25042.56
844.63	24772.23
844.81	24659.59
844.98	24749.70
845.16	24905.35
845.33	24692.36
845.51	24868.48
845.69	24569.48
845.86	24534.67
846.04	24438.41
846.21	24501.90
846.39	24657.54
846.57	24161.94
846.74	24563.34
846.92	24059.54
847.09	24327.82
847.27	24051.34
847.45	24290.96
847.62	24471.18
847.80	24114.83
847.97	24045.20
848.15	24112.78
848.32	23895.70
848.50	24098.45
848.68	23830.16
848.85	24002.19
849.03	23989.91
849.20	23774.87
849.38	23942.80
849.56	23944.85
849.73	23793.30
849.91	23867.03
850.08	23787.16
850.26	23690.90
850.43	23922.32
850.61	24067.73
850.78	23303.84
850.96	23557.78
851.14	23783.06
851.31	23932.56
851.49	23389.85
851.66	23860.88
851.84	23828.12
852.01	23396.00
852.19	23539.35
852.36	23482.01
852.54	23273.12
852.71	23420.57
852.89	23621.27
853.07	23385.76
853.24	23664.28
853.42	23488.15
853.59	23135.90
853.77	23283.36
853.94	23586.46
854.12	23770.77
854.29	23262.88
854.47	23090.85
854.64	23049.89
854.82	22916.77
854.99	23183.01
855.17	23127.71
855.34	22996.64
855.52	22922.91
855.69	23142.05
855.87	22953.63
856.04	22826.66
856.22	23056.03
856.39	22736.55
856.57	22752.93
856.74	22881.95
856.92	22681.25
857.09	22574.76
857.27	23006.88
857.44	22697.64
857.62	22703.78
857.79	22797.99
857.97	22785.70
858.14	22515.37
858.32	22566.57
858.49	22451.88
858.67	22462.12
858.84	22369.96
859.02	22574.76
859.19	22386.35
859.37	22242.99
859.54	22210.22
859.72	22613.67
859.89	22361.77
860.06	22415.02
860.24	22316.72
860.41	22423.21
860.59	21878.45
860.76	22068.91
860.94	21794.48
861.11	22390.44
861.29	22171.31
861.46	22073.01
861.64	21911.22
861.81	21903.03
861.98	21733.04
862.16	21790.39
862.33	21649.08
862.51	21788.34
862.68	21960.37
862.86	21919.41
863.03	21644.98
863.21	21792.44
863.38	21599.93
863.55	21833.39
863.73	21726.90
863.90	21642.93
864.08	21839.54
864.25	21661.37
864.43	21491.38
864.60	21737.14
864.77	21401.27
864.95	21487.29
865.12	21468.86
865.30	21515.96
865.47	21651.13
865.64	21352.12
865.82	21536.44
865.99	21313.21
866.17	20936.38
866.34	21249.72
866.51	21202.62
866.69	21466.81
866.86	21376.70
867.04	21176.00
867.21	21116.61
867.38	21233.34
867.56	20831.94
867.73	20661.96
867.91	20721.35
868.08	20782.79
868.25	21075.65
868.43	20625.09
868.60	20555.46
868.78	20700.87
868.95	20860.61
869.12	20623.05
869.30	20373.19
869.47	20545.22
869.64	20399.82
869.82	20438.73
869.99	20389.58
870.16	20688.58
870.34	20604.61
870.51	20551.37
870.69	20369.10
870.86	20149.96
871.03	20385.48
871.21	20215.50
871.38	20369.10
871.55	20102.86
871.73	19953.36
871.90	19961.55
872.07	20098.77
872.25	19601.11
872.42	20004.56
872.59	19754.71
872.77	20170.44
872.94	19805.91
873.11	20008.65
873.29	19963.60
873.46	19871.44
873.63	19623.64
873.81	19836.63
873.98	19437.27
874.15	19578.58
874.33	19603.16
874.50	19246.81
874.67	19599.06
874.85	19431.13
875.02	19484.37
875.19	19429.08
875.37	19236.57
875.54	19136.22
875.71	19228.38
875.88	19220.19
876.06	19138.27
876.23	19252.95
876.40	18980.57
876.58	18945.76
876.75	18757.35
876.92	18839.26
877.10	18900.70
877.27	18908.90
877.44	18708.19
877.61	18450.15
877.79	18775.78
877.96	18626.28
878.13	18851.55
878.31	18429.67
878.48	18282.22
878.65	18134.76
878.82	18235.11
879.00	18613.99
879.17	18247.40
879.34	18450.15
879.51	18353.90
879.69	18259.69
879.86	18155.24
880.03	18278.12
880.21	18042.60
880.38	18384.62
880.55	18128.62
880.72	18155.24
880.90	17913.58
881.07	17903.34
881.24	18022.12
881.41	17874.67
881.59	17889.01
881.76	18050.80
881.93	17884.91
882.10	17811.18
882.28	17895.15
882.45	17854.19
882.62	17682.16
882.79	17778.42
882.96	17481.46
883.14	17661.68
883.31	17850.10
883.48	17503.99
883.65	17790.70
883.83	17829.62
884.00	17291.00
884.17	17471.22
884.34	17618.68
884.51	17534.71
884.69	17536.76
884.86	17772.27
885.03	17426.17
885.20	17061.63
885.38	17432.31
885.55	17258.23
885.72	17274.62
885.89	17096.44
886.06	17348.34
886.24	17305.34
886.41	17131.26
886.58	17288.95
886.75	17227.51
886.92	17006.33
887.10	17188.60
887.27	16858.88
887.44	16903.93
887.61	16975.61
887.78	17188.60
887.95	17227.51
888.13	16793.34
888.30	16989.95
888.47	16852.73
888.64	16916.22
888.81	16938.75
888.99	16918.27
889.16	16764.67
889.33	16658.18
889.50	16688.90
889.67	16525.06
889.84	16824.06
890.01	16654.08
890.19	16555.78
890.36	16629.51
890.53	16746.24
890.70	16465.67
890.87	16490.24
891.04	16582.40
891.22	16557.83
891.39	16518.92
891.56	16404.23
891.73	16187.14
891.90	16074.51
892.07	16187.14
892.24	16432.90
892.42	15965.96
892.59	16293.64
892.76	16084.75
892.93	16008.97
893.10	16068.36
893.27	16027.40
893.44	16027.40
893.61	16015.12
893.79	16045.84
893.96	15965.96
894.13	16181.00
894.30	16146.19
894.47	15931.15
894.64	16191.24
894.81	15904.53
894.98	16084.75
895.15	15900.43
895.33	15959.82
895.50	15935.24
895.67	15763.22
895.84	15804.17
896.01	15916.81
896.18	15826.70
896.35	15959.82
896.52	15752.98
896.69	15730.45
896.86	15965.96
897.04	15865.61
897.21	15722.26
897.38	15484.69
897.55	15683.34
897.72	15894.29
897.89	15685.39
898.06	15558.42
898.23	15662.86
898.40	15804.17
898.57	15683.34
898.74	15707.92
898.91	15761.17
899.08	15853.33
899.26	15869.71
899.43	15804.17
899.60	15580.95
899.77	15675.15
899.94	15580.95
900.11	15367.96
900.28	15685.39
900.45	15470.36
900.62	15587.09
900.79	15482.64
900.96	15816.46
901.13	15519.51
901.30	15617.81
901.47	15339.29
901.64	15374.10
901.81	15605.52
901.98	15460.12
902.15	15552.27
902.32	15410.96
902.49	15509.27
902.66	15587.09
902.83	15476.50
903.01	15372.05
903.18	15617.81
903.35	15431.44
903.52	15327.00
903.69	15699.73
903.86	15349.53
904.03	15554.32
904.20	15339.29
904.37	15781.65
904.54	15453.97
904.71	15370.01
904.88	15472.40
905.05	15443.73
905.22	15333.14
905.39	15277.85
905.56	15333.14
905.73	15251.22
905.90	15396.63
906.07	15382.29
906.24	15593.23
906.41	15523.60
906.58	15486.74
906.75	15363.86
906.92	15468.31
907.09	15208.22
907.26	15580.95
907.43	15224.60
907.60	15150.87
907.77	15529.75
907.93	15341.33
908.10	15300.37
908.27	15453.97
908.44	15150.87
908.61	14880.54
908.78	14944.03
908.95	15431.44
909.12	15056.67
909.29	15265.56
909.46	15118.11
909.63	15150.87
909.80	15109.91
909.97	14972.70
910.14	15202.07
910.31	15376.15
910.48	15171.35
910.65	14970.65
910.82	15050.52
910.99	15107.87
911.16	15124.25
911.33	14896.92
911.50	15038.23
911.66	15050.52
911.83	15079.19
912.00	14765.85
912.17	14870.30
912.34	14788.38
912.51	14941.98
912.68	14688.03
912.85	14804.77
913.02	14864.16
913.19	14698.27
913.36	14821.15
913.53	14616.35
913.70	14542.63
913.86	14970.65
914.03	14702.37
914.20	14466.85
914.37	14638.88
914.54	14528.29
914.71	14595.87
914.88	14620.45
915.05	14473.00
915.22	14579.49
915.39	14425.89
915.55	14434.08
915.72	14360.36
915.89	14339.88
916.06	14339.88
916.23	14204.71
916.40	14217.00
916.57	14014.25
916.74	14280.49
916.91	14268.20
917.07	13872.94
917.24	13623.09
917.41	13954.86
917.58	13899.56
917.75	13793.07
917.92	13719.34
918.09	13934.38
918.26	13573.94
918.42	13616.94
918.59	13690.67
918.76	13446.96
918.93	13588.27
919.10	13334.32
919.27	13438.77
919.44	13545.27
919.60	13459.25
919.77	13319.99
919.94	13274.93
920.11	13383.48
920.28	13195.06
920.45	13209.40
920.61	13150.01
920.78	13291.32
920.95	13078.33
921.12	13215.54
921.29	12887.87
921.46	12924.73
921.62	12834.62
921.79	12754.75
921.96	12955.45
922.13	12844.86
922.30	12578.62
922.47	12640.06
922.63	12519.23
922.80	12668.73
922.97	12603.20
923.14	12357.44
923.31	12552.00
923.47	12330.82
923.64	12283.72
923.81	12465.99
923.98	12363.59
924.15	12177.22
924.32	12269.38
924.48	12201.80
924.65	12160.84
924.82	12193.61
924.99	11843.40
925.15	11847.50
925.32	12050.25
925.49	11734.86
925.66	11865.93
925.83	12111.69
925.99	11521.87
926.16	11910.99
926.33	11943.75
926.50	11603.79
926.67	11761.48
926.83	11544.40
927.00	11431.76
927.17	11413.33
927.34	11286.36
927.50	11272.02
927.67	11343.70
927.84	11267.92
928.01	11163.48
928.17	11073.37
928.34	11290.45
928.51	11132.76
928.68	11013.98
928.84	10815.32
929.01	10837.85
929.18	10882.91
929.35	10821.47
929.51	10735.45
929.68	10837.85
929.85	10688.35
930.02	10731.36
930.18	10534.75
930.35	10829.66
930.52	10585.95
930.69	10477.41
930.85	10471.26
931.02	10248.04
931.19	10413.92
931.36	10135.40
931.52	10233.70
931.69	10385.25
931.86	10159.97
932.02	10037.09
932.19	10094.44
932.36	10008.42
932.53	10145.64
932.69	9695.08
932.86	10008.42
933.03	9764.72
933.19	9793.39
933.36	9740.14
933.53	9840.49
933.70	9633.64
933.86	9637.74
934.03	9545.58
934.20	9414.51
934.36	9478.00
934.53	9334.64
934.70	9203.57
934.86	9252.72
935.03	9088.89
935.20	9164.66
935.36	9015.16
935.53	8914.81
935.70	8804.22
935.86	9041.78
936.03	8632.19
936.20	8689.53
936.36	8675.20
936.53	8492.93
936.70	8546.17
936.86	8603.52
937.03	8331.14
937.20	8185.73
937.36	8146.82
937.53	8036.23
937.70	8025.99
937.86	7907.21
938.03	7880.58
938.20	7948.17
938.36	7593.87
938.53	7745.42
938.70	7509.90
938.86	7505.81
939.03	7389.07
939.20	7268.24
939.36	7315.34
939.53	7247.76
939.70	7470.99
939.86	6805.40
940.03	6944.66
940.19	6713.24
940.36	6768.54
940.53	6743.96
940.69	6608.80
940.86	6588.32
941.03	6559.64
941.19	6416.29
941.36	6410.14
941.52	6340.51
941.69	6162.34
941.86	6252.45
942.02	6168.48
942.19	6170.53
942.35	6111.14
942.52	5853.09
942.69	5912.49
942.85	5998.50
943.02	5930.92
943.18	5820.33
943.35	5808.04
943.52	5742.50
943.68	5711.78
943.85	5814.18
944.01	5713.83
944.18	5519.28
944.35	5717.93
944.51	5642.15
944.68	5521.32
944.84	5466.03
945.01	5371.82
945.17	5539.76
945.34	5461.93
945.51	5437.36
945.67	5375.92
945.84	5388.21
946.00	5408.69
946.17	5420.97
946.33	5343.15
946.50	5302.19
946.67	5334.96
946.83	5408.69
947.00	5455.79
947.16	5269.42
947.33	5271.47
947.49	5191.60
947.66	5156.79
947.82	5330.86
947.99	5261.23
948.16	5234.61
948.32	5332.91
948.49	5343.15
948.65	5392.30
948.82	5312.43
948.98	5193.65
949.15	5148.59
949.31	5207.98
949.48	5269.42
949.64	5281.71
949.81	5304.24
949.97	5246.90
950.14	5390.25
950.30	5136.31
950.47	5220.27
950.63	5287.86
950.80	5302.19
950.96	5291.95
951.13	5287.86
951.30	5337.01
951.46	5357.49
951.63	5279.66
951.79	5294.00
951.96	5439.40
952.12	5429.17
952.29	5404.59
952.45	5318.57
952.62	5316.53
952.78	5406.64
952.94	5359.53
953.11	5244.85
953.27	5308.34
953.44	5517.23
953.60	5337.01
953.77	5390.25
953.93	5359.53
954.10	5384.11
954.26	5441.45
954.43	5332.91
954.59	5398.45
954.76	5545.90
954.92	5416.88
955.09	5396.40
955.25	5300.14
955.42	5365.68
955.58	5576.62
955.75	5425.07
955.91	5332.91
956.07	5455.79
956.24	5439.40
956.40	5431.21
956.57	5566.38
956.73	5220.27
956.90	5562.28
957.06	5398.45
957.23	5375.92
957.39	5343.15
957.56	5406.64
957.72	5253.04
957.88	5296.05
958.05	5455.79
958.21	5531.56
958.38	5328.81
958.54	5463.98
958.71	5484.46
958.87	5537.71
959.03	5390.25
959.20	5377.97
959.36	5363.63
959.53	5492.65
959.69	5377.97
959.85	5347.25
960.02	5435.31
960.18	5461.93
960.35	5445.55
960.51	5388.21
960.68	5384.11
960.84	5394.35
961.00	5371.82
961.17	5455.79
961.33	5382.06
961.50	5535.66
961.66	5472.17
961.82	5406.64
961.99	5480.36
962.15	5414.83
962.31	5306.29
962.48	5441.45
962.64	5443.50
962.81	5420.97
962.97	5431.21
963.13	5359.53
963.30	5269.42
963.46	5269.42
963.62	5386.16
963.79	5337.01
963.95	5345.20
964.12	5334.96
964.28	5271.47
964.44	5255.09
964.61	5423.02
964.77	5339.05
964.93	5558.19
965.10	5410.73
965.26	5380.01
965.42	5279.66
965.59	5275.57
965.75	5312.43
965.92	5296.05
966.08	5300.14
966.24	5296.05
966.41	5105.59
966.57	5257.14
966.73	5306.29
966.90	5361.58
967.06	5224.37
967.22	5228.46
967.39	5386.16
967.55	5240.75
967.71	5267.38
967.88	5236.66
968.04	5246.90
968.20	5218.22
968.37	5205.94
968.53	5038.00
968.69	5154.74
968.85	5101.49
969.02	5242.80
969.18	5144.50
969.34	5111.73
969.51	5193.65
969.67	5103.54
969.83	5029.81
970.00	5050.29
970.16	5160.88
970.32	5167.03
970.48	5189.55
970.65	4900.79
970.81	4855.73
970.97	5081.01
971.14	4980.66
971.30	5007.28
971.46	5005.24
971.63	4999.09
971.79	5074.87
971.95	4951.99
972.11	4800.44
972.28	5001.14
972.44	4954.04
972.60	4997.04
972.76	4876.21
972.93	4917.17
973.09	4960.18
973.25	4923.32
973.42	4818.87
973.58	4927.41
973.74	4968.37
973.90	4990.90
974.07	4777.91
974.23	4808.63
974.39	4935.60
974.55	4782.01
974.72	4736.95
974.88	4767.67
975.04	4749.24
975.20	4800.44
975.37	4849.59
975.53	4814.77
975.69	4784.06
975.85	4661.18
976.01	4665.27
976.18	4540.35
976.34	4841.40
976.50	4757.43
976.66	4806.58
976.83	4657.08
976.99	4691.90
977.15	4714.42
977.31	4618.17
977.47	4771.77
977.64	4550.59
977.80	4581.31
977.96	4591.55
978.12	4542.39
978.29	4503.48
978.45	4476.86
978.61	4575.16
978.77	4595.64
978.93	4509.63
979.10	4614.07
979.26	4526.01
979.42	4620.22
979.58	4405.18
979.74	4534.20
979.91	4421.56
980.07	4446.14
980.23	4476.86
980.39	4444.09
980.55	4366.27
980.71	4517.82
980.88	4495.29
981.04	4440.00
981.20	4399.04
981.36	4442.04
981.52	4450.24
981.68	4317.12
981.85	4272.06
982.01	4401.08
982.17	4321.21
982.33	4327.36
982.49	4413.37
982.65	4313.02
982.82	4333.50
982.98	4306.88
983.14	4192.19
983.30	4368.32
983.46	4343.74
983.62	4286.40
983.79	4280.25
983.95	4210.62
984.11	4190.14
984.27	4190.14
984.43	4132.80
984.59	4110.27
984.75	4132.80
984.91	4212.67
985.08	4331.45
985.24	4073.41
985.40	4063.17
985.56	4167.62
985.72	4265.92
985.88	4229.06
986.04	4165.57
986.20	4044.74
986.37	4224.96
986.53	4038.59
986.69	3938.24
986.85	4050.88
987.01	4083.65
987.17	4157.38
987.33	3948.48
987.49	3932.10
987.65	4083.65
987.82	3919.81
987.98	3983.30
988.14	4059.07
988.30	3925.96
988.46	3887.04
988.62	3950.53
988.78	3903.43
988.94	3928.00
989.10	3940.29
989.26	3866.56
989.42	3829.70
989.59	3813.32
989.75	3821.51
989.91	3895.24
990.07	3723.21
990.23	3682.25
990.39	3835.85
990.55	3817.41
990.71	3780.55
990.87	3772.36
991.03	3925.96
991.19	3729.35
991.35	3774.41
991.51	3780.55
991.67	3870.66
991.83	3723.21
992.00	3717.06
992.16	3770.31
992.32	3885.00
992.48	3704.78
992.64	3622.86
992.80	3704.78
992.96	3743.69
993.12	3667.91
993.28	3678.15
993.44	3504.07
993.60	3686.34
993.76	3612.62
993.92	3657.67
994.08	3698.63
994.24	3530.70
994.40	3612.62
994.56	3649.48
994.72	3551.18
994.88	3526.60
995.04	3567.56
995.20	3479.50
995.36	3510.22
995.52	3528.65
995.68	3577.80
995.84	3405.77
996.00	3706.82
996.16	3502.03
996.32	3397.58
996.48	3403.72
996.64	3549.13
996.80	3434.44
996.96	3469.26
997.12	3397.58
997.28	3387.34
997.44	3387.34
997.60	3389.39
997.76	3454.92
997.92	3413.96
998.08	3336.14
998.24	3327.95
998.40	3448.78
998.56	3438.54
998.72	3344.33
998.88	3270.61
999.04	3358.67
999.20	3360.72
999.36	3354.57
999.52	3362.76
999.68	3330.00
999.84	3350.48
1000.00	3307.47
1000.16	3377.10
1000.32	3205.07
1000.48	3358.67
1000.64	3268.56
1000.80	3196.88
1000.95	3160.02
1001.11	3258.32
1001.27	3250.13
1001.43	3278.80
1001.59	3149.78
1001.75	3221.45
1001.91	3172.30
1002.07	3182.54
1002.23	3092.43
1002.39	3221.45
1002.55	3114.96
1002.71	3182.54
1002.87	3162.06
1003.03	3092.43
1003.19	3117.01
1003.34	3205.07
1003.50	3129.30
1003.66	3203.02
1003.82	3133.39
1003.98	3094.48
1004.14	3131.34
1004.30	3043.28
1004.46	3063.76
1004.62	3094.48
1004.78	3026.90
1004.94	2981.84
1005.09	3016.66
1005.25	3051.47
1005.41	2947.03
1005.57	3041.23
1005.73	3033.04
1005.89	2953.17
1006.05	3024.85
1006.21	2994.13
1006.37	2985.94
1006.52	3055.57
1006.68	2924.50
1006.84	2996.18
1007.00	2867.16
1007.16	3039.19
1007.32	2981.84
1007.48	2863.06
1007.64	2869.20
1007.79	2826.20
1007.95	2844.63
1008.11	2973.65
1008.27	2955.22
1008.43	2924.50
1008.59	2899.92
1008.75	2975.70
1008.91	2736.09
1009.06	2910.16
1009.22	2834.39
1009.38	2906.07
1009.54	2932.69
1009.70	2801.62
1009.86	2848.72
1010.01	2871.25
1010.17	2752.47
1010.33	2738.13
1010.49	2815.96
1010.65	2906.07
1010.81	2658.26
1010.96	2830.29
1011.12	2803.67
1011.28	2639.83
1011.44	2826.20
1011.60	2754.52
1011.76	2756.57
1011.91	2834.39
1012.07	2750.42
1012.23	2678.74
1012.39	2633.69
1012.55	2777.05
1012.71	2627.54
1012.86	2691.03
1013.02	2734.04
1013.18	2664.41
1013.34	2727.89
1013.50	2736.09
1013.65	2656.22
1013.81	2588.63
1013.97	2523.10
1014.13	2613.21
1014.29	2588.63
1014.44	2666.46
1014.60	2635.74
1014.76	2576.34
1014.92	2605.02
1015.07	2709.46
1015.23	2605.02
1015.39	2609.11
1015.55	2568.15
1015.71	2527.19
1015.86	2537.43
1016.02	2508.76
1016.18	2469.85
1016.34	2596.82
1016.49	2525.15
1016.65	2627.54
1016.81	2469.85
1016.97	2523.10
1017.12	2643.93
1017.28	2424.80
1017.44	2465.75
1017.60	2545.63
1017.75	2609.11
1017.91	2412.51
1018.07	2478.04
1018.23	2445.27
1018.38	2443.23
1018.54	2488.28
1018.70	2453.47
1018.86	2439.13
1019.01	2484.19
1019.17	2346.97
1019.33	2475.99
1019.49	2297.82
1019.64	2402.27
1019.80	2422.75
1019.96	2377.69
1020.12	2508.76
1020.27	2359.26
1020.43	2404.32
1020.59	2373.60
1020.74	2363.36
1020.90	2385.88
1021.06	2277.34
1021.22	2387.93
1021.37	2426.84
1021.53	2281.44
1021.69	2349.02
1021.84	2263.01
1022.00	2336.73
1022.16	2287.58
1022.31	2320.35
1022.47	2404.32
1022.63	2310.11
1022.79	2232.29
1022.94	2293.72
1023.10	2328.54
1023.26	2293.72
1023.41	2193.37
1023.57	2240.48
1023.73	2277.34
1023.88	2318.30
1024.04	2234.33
1024.20	2267.10
1024.35	2371.55
1024.51	2306.01
1024.67	2275.29
1024.82	2308.06
1024.98	2107.36
1025.14	2338.78
1025.29	2189.28
1025.45	2273.25
1025.61	2166.75
1025.76	2185.18
1025.92	2195.42
1026.08	2263.01
1026.23	2199.52
1026.39	2297.82
1026.55	2160.61
1026.70	2160.61
1026.86	2133.98
1027.02	2187.23
1027.17	2215.90
1027.33	2131.94
1027.48	2170.85
1027.64	2117.60
1027.80	2129.89
1027.95	2179.04
1028.11	2047.97
1028.27	2133.98
1028.42	2164.70
1028.58	2082.78
1028.73	2033.63
1028.89	2074.59
1029.05	2189.28
1029.20	2142.18
>>>>>End Processed Spectral Data<<<<<
