SpectraSuite Data File
++++++++++++++++++++++++++++++++++++
Date: Fri Jun 02 14:52:28 CEST 2017
User: INFO_000
Dark Spectrum Present: No
Reference Spectrum Present: No
Number of Sampled Component Spectra: 1
Spectrometers: USB4H00879
Integration Time (usec): 80000 (USB4H00879)
Spectra Averaged: 1 (USB4H00879)
Boxcar Smoothing: 0 (USB4H00879)
Correct for Electrical Dark: No (USB4H00879)
Strobe/Lamp Enabled: No (USB4H00879)
Correct for Detector Non-linearity: No (USB4H00879)
Correct for Stray Light: No (USB4H00879)
Number of Pixels in Processed Spectrum: 3648
>>>>>Begin Processed Spectral Data<<<<<
345.13	1191.92
345.34	1191.92
345.56	1191.92
345.78	1226.73
345.99	1322.99
346.21	1671.14
346.42	1710.05
346.64	1662.95
346.86	1806.31
347.07	1679.33
347.29	1712.10
347.50	1611.75
347.72	1695.72
347.94	1695.72
348.15	1593.32
348.37	1609.70
348.59	1724.39
348.80	1671.14
349.02	1851.36
349.23	1865.70
349.45	1855.46
349.67	1896.42
349.88	1843.17
350.10	1955.81
350.31	1832.93
350.53	1689.57
350.75	1964.00
350.96	1798.12
351.18	1828.84
351.39	1884.13
351.61	1824.74
351.82	1945.57
352.04	1931.23
352.26	1853.41
352.47	1886.18
352.69	1933.28
352.90	1726.44
353.12	1875.94
353.34	1814.50
353.55	1945.57
353.77	1892.32
353.98	1916.90
354.20	1834.98
354.41	1912.80
354.63	1970.15
354.85	1955.81
355.06	1894.37
355.28	1812.45
355.49	1894.37
355.71	1947.62
355.92	1886.18
356.14	1849.32
356.35	1859.56
356.57	1873.89
356.79	1927.14
357.00	1890.28
357.22	2019.30
357.43	1880.04
357.65	1931.23
357.86	1931.23
358.08	1912.80
358.29	1869.80
358.51	1941.47
358.72	2039.78
358.94	1931.23
359.16	1953.76
359.37	1951.71
359.59	1867.75
359.80	2009.06
360.02	1984.48
360.23	1986.53
360.45	1943.52
360.66	1906.66
360.88	1890.28
361.09	1927.14
361.31	1998.82
361.52	1884.13
361.74	2066.40
361.95	2007.01
362.17	1888.23
362.38	2088.93
362.60	1968.10
362.81	1880.04
363.03	1970.15
363.24	1990.63
363.46	2111.46
363.67	1972.19
363.89	1990.63
364.10	2043.87
364.32	2033.63
364.53	2035.68
364.75	1923.04
364.96	2011.11
365.18	1994.72
365.39	2029.54
365.61	1904.61
365.82	2174.94
366.04	1970.15
366.25	1976.29
366.47	2142.18
366.68	2115.55
366.90	1964.00
367.11	2052.06
367.33	2125.79
367.54	2093.02
367.76	2047.97
367.97	2136.03
368.19	2033.63
368.40	2011.11
368.62	1916.90
368.83	1953.76
369.05	2080.74
369.26	2029.54
369.48	1990.63
369.69	2007.01
369.91	2021.35
370.12	2029.54
370.33	2125.79
370.55	1986.53
370.76	2068.45
370.98	2109.41
371.19	2060.26
371.41	2076.64
371.62	2074.59
371.84	2099.17
372.05	2199.52
372.27	2121.70
372.48	2068.45
372.69	2154.46
372.91	2211.81
373.12	2174.94
373.34	2158.56
373.55	2121.70
373.77	2203.61
373.98	2138.08
374.20	2152.42
374.41	2258.91
374.62	2232.29
374.84	2142.18
375.05	2146.27
375.27	2220.00
375.48	2166.75
375.70	2201.57
375.91	2289.63
376.12	2357.21
376.34	2142.18
376.55	2250.72
376.77	2174.94
376.98	2123.74
377.19	2119.65
377.41	2205.66
377.62	2168.80
377.84	2215.90
378.05	2432.99
378.27	2209.76
378.48	2285.53
378.69	2389.98
378.91	2334.68
379.12	2238.43
379.34	2269.15
379.55	2279.39
379.76	2252.77
379.98	2260.96
380.19	2258.91
380.41	2238.43
380.62	2301.92
380.83	2203.61
381.05	2240.48
381.26	2422.75
381.47	2246.62
381.69	2273.25
381.90	2371.55
382.12	2351.07
382.33	2361.31
382.54	2269.15
382.76	2363.36
382.97	2293.72
383.19	2328.54
383.40	2420.70
383.61	2299.87
383.83	2328.54
384.04	2332.64
384.25	2322.40
384.47	2430.94
384.68	2349.02
384.89	2344.92
385.11	2422.75
385.32	2351.07
385.54	2377.69
385.75	2424.80
385.96	2443.23
386.18	2406.36
386.39	2404.32
386.60	2478.04
386.82	2334.68
387.03	2373.60
387.24	2545.63
387.46	2590.68
387.67	2400.22
387.88	2502.62
388.10	2463.71
388.31	2492.38
388.52	2623.45
388.74	2539.48
388.95	2531.29
389.16	2516.95
389.38	2451.42
389.59	2621.40
389.80	2686.94
390.02	2547.67
390.23	2648.02
390.44	2543.58
390.66	2478.04
390.87	2441.18
391.08	2611.16
391.30	2740.18
391.51	2656.22
391.72	2660.31
391.94	2672.60
392.15	2658.26
392.36	2570.20
392.58	2639.83
392.79	2625.50
393.00	2729.94
393.22	2721.75
393.43	2752.47
393.64	2803.67
393.85	2772.95
394.07	2609.11
394.28	2826.20
394.49	2768.85
394.71	2807.77
394.92	2942.93
395.13	2764.76
395.35	2772.95
395.56	2742.23
395.77	2815.96
395.98	2838.48
396.20	2912.21
396.41	2797.53
396.62	2916.31
396.84	2904.02
397.05	2836.44
397.26	3010.51
397.47	2992.08
397.69	2865.11
397.90	3000.27
398.11	2975.70
398.32	2918.36
398.54	2910.16
398.75	2914.26
398.96	2846.68
399.18	3076.05
399.39	2932.69
399.60	3114.96
399.81	3059.67
400.03	2973.65
400.24	3258.32
400.45	3059.67
400.66	3092.43
400.88	3039.19
401.09	3196.88
401.30	3020.75
401.51	3194.83
401.73	3145.68
401.94	3112.91
402.15	3069.91
402.36	3170.26
402.58	3252.17
402.79	3250.13
403.00	3264.46
403.21	3186.64
403.43	3268.56
403.64	3340.24
403.85	3090.38
404.06	3205.07
404.27	3129.30
404.49	3309.52
404.70	3151.82
404.91	3196.88
405.12	3276.75
405.34	3313.61
405.55	3448.78
405.76	3174.35
405.97	3338.19
406.19	3473.36
406.40	3315.66
406.61	3424.20
406.82	3379.15
407.03	3389.39
407.25	3256.27
407.46	3506.12
407.67	3588.04
407.88	3530.70
408.09	3229.65
408.31	3497.93
408.52	3545.03
408.73	3389.39
408.94	3579.85
409.15	3428.30
409.37	3596.23
409.58	3567.56
409.79	3430.35
410.00	3596.23
410.21	3469.26
410.43	3600.33
410.64	3432.40
410.85	3514.31
411.06	3688.39
411.27	3694.54
411.48	3624.90
411.70	3608.52
411.91	3733.45
412.12	3768.26
412.33	3659.72
412.54	3753.93
412.76	3841.99
412.97	3719.11
413.18	3538.89
413.39	3749.83
413.60	3850.18
413.81	3792.84
414.03	3694.54
414.24	3706.82
414.45	3928.00
414.66	3690.44
414.87	3770.31
415.08	3833.80
415.30	3878.85
415.51	3876.80
415.72	3749.83
415.93	3880.90
416.14	3952.58
416.35	3921.86
416.56	3841.99
416.78	3950.53
416.99	3925.96
417.20	3835.85
417.41	4067.27
417.62	4089.79
417.83	3954.63
418.04	4040.64
418.26	3923.91
418.47	3960.77
418.68	4040.64
418.89	4009.92
419.10	4190.14
419.31	4067.27
419.52	4114.37
419.73	4151.23
419.95	4155.33
420.16	4067.27
420.37	4116.42
420.58	4163.52
420.79	3950.53
421.00	4181.95
421.21	4251.58
421.42	4071.36
421.63	4319.17
421.85	4114.37
422.06	4337.60
422.27	4214.72
422.48	4229.06
422.69	4315.07
422.90	4259.78
423.11	4218.82
423.32	4317.12
423.53	4384.70
423.75	4425.66
423.96	4491.20
424.17	4460.48
424.38	4693.94
424.59	4478.91
424.80	4665.27
425.01	4577.21
425.22	4491.20
425.43	4501.44
425.64	4798.39
425.85	4726.71
426.06	4513.72
426.28	4626.36
426.49	4493.24
426.70	4632.51
426.91	4638.65
427.12	4786.10
427.33	4734.90
427.54	4505.53
427.75	4853.69
427.96	4956.08
428.17	4870.07
428.38	4757.43
428.59	4825.01
428.80	4865.97
429.01	4816.82
429.23	4878.26
429.44	5052.34
429.65	5031.86
429.86	5066.67
430.07	4898.74
430.28	4812.73
430.49	5023.67
430.70	5027.76
430.91	5158.83
431.12	5050.29
431.33	5083.06
431.54	5097.39
431.75	5144.50
431.96	5220.27
432.17	5169.07
432.38	5189.55
432.59	5332.91
432.80	5357.49
433.01	5328.81
433.22	5326.77
433.43	5390.25
433.64	5328.81
433.85	5318.57
434.06	5373.87
434.27	5392.30
434.49	5367.73
434.70	5451.69
434.91	5625.77
435.12	5588.91
435.33	5494.70
435.54	5502.89
435.75	5320.62
435.96	5537.71
436.17	5504.94
436.38	5707.69
436.59	5732.26
436.80	5595.05
437.01	5883.81
437.22	5830.57
437.43	5722.02
437.64	5625.77
437.85	5732.26
438.06	5812.14
438.27	5719.98
438.48	5646.25
438.69	5965.73
438.90	5937.06
439.11	5834.66
439.32	5949.35
439.53	5777.32
439.74	5937.06
439.95	5836.71
440.16	6014.88
440.37	5914.53
440.57	5738.41
440.78	5967.78
440.99	6023.08
441.20	6041.51
441.41	6072.23
441.62	6057.89
441.83	5967.78
442.04	6113.19
442.25	6201.25
442.46	6193.06
442.67	6160.29
442.88	6707.10
443.09	6057.89
443.30	6186.91
443.51	6277.02
443.72	6586.27
443.93	6393.76
444.14	6465.44
444.35	6164.39
444.56	6371.23
444.77	6498.20
444.98	6328.22
445.19	6285.22
445.40	6565.79
445.61	6514.59
445.81	6528.92
446.02	6653.85
446.23	6510.49
446.44	6533.02
446.65	6629.27
446.86	6754.20
447.07	6649.75
447.28	6875.03
447.49	6811.54
447.70	6616.99
447.91	6840.22
448.12	6676.38
448.33	6934.42
448.54	6852.50
448.74	6770.58
448.95	6846.36
449.16	6735.77
449.37	7270.29
449.58	6963.09
449.79	7221.14
450.00	6717.34
450.21	7212.95
450.42	7243.67
450.63	7120.79
450.84	7186.32
451.05	7143.32
451.25	7180.18
451.46	7206.80
451.67	7356.30
451.88	7440.27
452.09	7540.62
452.30	7337.87
452.51	7341.97
452.72	7534.48
452.93	7663.50
453.13	7344.02
453.34	7368.59
453.55	7546.76
453.76	7432.08
453.97	7819.14
454.18	7647.12
454.39	7634.83
454.60	7651.21
454.81	7604.11
455.01	7839.62
455.22	7538.57
455.43	7917.45
455.64	8124.29
455.85	8134.53
456.06	8050.57
456.27	7829.38
456.48	7991.17
456.68	8095.62
456.89	8097.67
457.10	8318.85
457.31	8099.72
457.52	8071.04
457.73	8370.05
457.94	8425.34
458.14	8333.18
458.35	8677.24
458.56	8454.02
458.77	8324.99
458.98	8574.85
459.19	8374.14
459.39	8537.98
459.60	8873.85
459.81	8693.63
460.02	8857.46
460.23	8662.91
460.44	8939.38
460.65	9078.65
460.85	8963.96
461.06	9133.94
461.27	8828.79
461.48	9140.08
461.69	9211.76
461.89	8830.84
462.10	9234.29
462.31	8906.62
462.52	9080.69
462.73	9133.94
462.94	9441.14
463.14	9316.21
463.35	9297.78
463.56	9971.56
463.77	9787.24
463.98	9510.77
464.18	9529.20
464.39	9629.55
464.60	10010.47
464.81	9707.37
465.02	9750.38
465.23	10086.25
465.43	9834.35
465.64	10225.51
465.85	9906.02
466.06	10125.16
466.27	10272.61
466.47	10258.28
466.68	10321.76
466.89	10221.41
467.10	10540.90
467.30	10278.76
467.51	10528.61
467.72	10714.97
467.93	10432.35
468.14	10608.48
468.34	10710.88
468.55	10823.51
468.76	10682.20
468.97	10790.75
469.17	11020.12
469.38	10985.30
469.59	11104.09
469.80	10768.22
470.01	11095.89
470.21	11085.65
470.42	11214.68
470.63	11626.32
470.84	11382.61
471.04	11618.13
471.25	11480.91
471.46	11325.27
471.67	11802.44
471.87	11763.53
472.08	11855.69
472.29	12242.76
472.50	11796.30
472.70	11837.26
472.91	12035.91
473.12	12257.09
473.33	12216.13
473.53	12515.14
473.74	12269.38
473.95	12404.55
474.16	12615.49
474.36	12664.64
474.57	12834.62
474.78	13117.24
474.99	12664.64
475.19	12656.45
475.40	12977.98
475.61	13111.10
475.81	13489.97
476.02	13342.52
476.23	13236.02
476.44	13494.07
476.64	13553.46
476.85	14001.96
477.06	13702.96
477.27	13897.52
477.47	13975.34
477.68	13944.62
477.89	14077.74
478.09	14108.46
478.30	14178.09
478.51	14438.18
478.71	14518.05
478.92	14667.55
479.13	14657.31
479.34	14675.74
479.54	14724.90
479.75	14825.25
479.96	14931.74
480.16	15222.55
480.37	15062.81
480.58	15410.96
480.78	15269.66
480.99	15503.12
481.20	15544.08
481.41	15851.28
481.61	15810.32
481.82	15791.89
482.03	15953.68
482.23	15691.54
482.44	16105.23
482.65	16238.34
482.85	16236.30
483.06	16455.43
483.27	16359.17
483.47	16441.09
483.68	16445.19
483.89	16891.65
484.09	16641.79
484.30	16965.37
484.51	17118.97
484.71	16914.17
484.92	17037.05
485.13	17346.30
485.33	17291.00
485.54	17407.73
485.75	17911.53
485.95	17716.98
486.16	17637.11
486.37	17708.79
486.57	17788.66
486.78	17889.01
486.98	17829.62
487.19	18095.85
487.40	18380.52
487.60	18355.94
487.81	18673.38
488.02	18206.44
488.22	18394.86
488.43	18869.98
488.64	18816.74
488.84	18773.73
489.05	18939.62
489.25	19072.73
489.46	19316.44
489.67	19228.38
489.87	19252.95
490.08	19517.14
490.29	19422.94
490.49	19840.72
490.70	19488.47
490.90	19803.86
491.11	19945.17
491.32	19939.02
491.52	19947.22
491.73	19885.78
491.94	20293.32
492.14	20041.42
492.35	20195.02
492.55	20530.89
492.76	20766.40
492.97	20727.49
493.17	20637.38
493.38	20762.31
493.58	20913.86
493.79	20856.51
494.00	21075.65
494.20	21034.69
494.41	21407.42
494.61	21165.76
494.82	21784.24
495.02	21360.31
495.23	21733.04
495.44	21745.33
495.64	22189.74
495.85	21761.72
496.05	22038.19
496.26	22005.42
496.47	22480.55
496.67	22044.34
496.88	22498.98
497.08	22169.26
497.29	22439.59
497.49	22406.83
497.70	22472.36
497.91	22605.48
498.11	22943.39
498.32	22650.53
498.52	23008.93
498.73	23529.11
498.93	22957.73
499.14	23350.94
499.34	22937.25
499.55	23447.19
499.76	23221.92
499.96	23621.27
500.17	23594.65
500.37	23432.86
500.58	23729.81
500.78	23838.36
500.99	23518.87
501.19	24213.13
501.40	23930.51
501.60	23856.79
501.81	24030.87
502.02	24037.01
502.22	24223.37
502.43	24280.72
502.63	24290.96
502.84	24692.36
503.04	24532.62
503.25	24432.27
503.45	24462.99
503.66	24514.19
503.86	24776.33
504.07	24927.88
504.27	24675.98
504.48	25362.04
504.68	25167.49
504.89	25671.29
505.09	25609.85
505.30	25245.31
505.50	25364.09
505.71	25312.89
505.91	25450.11
506.12	25599.61
506.32	25568.89
506.53	25548.41
506.73	25638.52
506.94	25904.76
507.14	25636.47
507.35	26197.62
507.55	26048.11
507.76	26238.58
507.96	26170.99
508.17	26183.28
508.37	26422.89
508.58	26340.97
508.78	26056.31
508.99	26742.38
509.19	26685.03
509.40	26613.35
509.60	26711.66
509.81	26719.85
510.01	26746.47
510.22	26852.97
510.42	27205.22
510.63	27111.01
510.83	26879.59
511.04	27180.64
511.24	27356.77
511.44	27555.42
511.65	27381.34
511.85	27252.32
512.06	27530.84
512.26	27600.47
512.47	27577.95
512.67	27522.65
512.88	27700.83
513.08	27262.56
513.29	28278.35
513.49	28010.07
513.69	27825.75
513.90	27895.38
514.10	28091.99
514.31	28163.67
514.51	28278.35
514.72	27950.68
514.92	28069.46
515.13	28378.70
515.33	28304.98
515.53	28257.87
515.74	28632.65
515.94	28538.44
516.15	28313.17
516.35	28294.74
516.56	28499.53
516.76	28657.23
516.96	28821.06
517.17	28927.56
517.37	28751.43
517.58	28868.17
517.78	29070.92
517.99	28751.43
518.19	29345.34
518.39	29122.12
518.60	29419.07
518.80	29302.34
519.01	29537.85
519.21	29404.74
519.41	29580.86
519.62	29544.00
519.82	29736.51
520.03	29904.44
520.23	29716.03
520.43	29806.14
520.64	30068.28
520.84	30017.08
521.05	30187.06
521.25	30570.03
521.45	30264.88
521.66	30449.20
521.86	30416.43
522.07	30578.22
522.27	30717.48
522.47	30273.07
522.68	30797.35
522.88	30670.38
523.08	30866.98
523.29	30912.04
523.49	31026.73
523.70	31571.49
523.90	30744.11
524.10	31335.97
524.31	31581.73
524.51	31335.97
524.71	32013.85
524.92	31426.08
525.12	31675.93
525.33	31172.13
525.53	31936.02
525.73	32042.52
525.94	32155.16
526.14	31890.97
526.34	32306.71
526.55	32534.03
526.75	31950.36
526.95	32759.31
527.16	32200.21
527.36	32513.55
527.56	32767.50
527.77	32929.29
527.97	32949.77
528.17	32701.96
528.38	32970.25
528.58	33039.88
528.78	33070.60
528.99	33269.25
529.19	33793.53
529.39	32747.02
529.60	33607.17
529.80	33394.18
530.00	33668.61
530.21	33603.07
530.41	33779.20
530.61	33742.33
530.82	34379.25
531.02	34084.34
531.22	34471.41
531.43	34000.38
531.63	34221.56
531.83	34528.75
532.04	34770.41
532.24	34401.78
532.44	34858.48
532.64	34858.48
532.85	35118.57
533.05	35096.04
533.25	34928.11
533.46	35016.17
533.66	35681.76
533.86	35276.26
534.07	35501.54
534.27	35540.45
534.47	35610.08
534.67	35984.86
534.88	35577.31
535.08	35683.81
535.28	36072.92
535.49	36365.78
535.69	36355.54
535.89	36228.57
536.09	36779.47
536.30	36722.13
536.50	36701.65
536.70	36652.50
536.91	36705.74
537.11	37168.58
537.31	36791.76
537.51	36834.77
537.72	36976.08
537.92	37389.77
538.12	37494.21
538.32	37313.99
538.53	37731.78
538.73	37213.64
538.93	37828.03
539.13	37268.94
539.34	37543.36
539.54	37637.57
539.74	38038.97
539.94	38192.57
540.15	37879.23
540.35	37866.94
540.55	37928.38
540.75	38479.28
540.96	38342.07
541.16	38309.30
541.36	38403.51
541.56	38581.68
541.77	38530.48
541.97	38540.72
542.17	38862.26
542.37	38700.47
542.58	38944.17
542.78	38776.24
542.98	38940.08
543.18	39097.77
543.38	39337.38
543.59	39517.60
543.79	38944.17
543.99	39439.78
544.19	39220.65
544.40	38854.06
544.60	39679.39
544.80	39603.62
545.00	39564.71
545.20	39933.34
545.41	39777.70
545.61	39345.58
545.81	39945.63
546.01	40263.07
546.21	39837.09
546.42	39646.63
546.62	40250.78
546.82	40195.48
547.02	40625.56
547.22	40271.26
547.43	40232.35
547.63	40465.81
547.83	40322.46
548.03	39953.82
548.23	40586.64
548.44	40445.33
548.64	40838.54
548.84	40848.78
549.04	40863.12
549.24	40801.68
549.45	41098.64
549.65	40689.04
549.85	41098.64
550.05	41391.50
550.25	41246.09
550.45	41534.85
550.66	41026.96
550.86	41305.48
551.06	41545.09
551.26	41579.91
551.46	41713.03
551.66	41631.11
551.87	41430.41
552.07	42071.42
552.27	41334.15
552.47	42014.08
552.67	41835.91
552.87	41995.65
553.07	41903.49
553.28	41739.65
553.48	42202.49
553.68	42042.75
553.88	42196.35
554.08	42171.77
554.28	42055.04
554.48	41665.92
554.69	42134.91
554.89	42179.96
555.09	42196.35
555.29	42194.30
555.49	42374.52
555.69	42356.09
555.89	42349.95
556.10	42687.86
556.30	42433.91
556.50	42669.43
556.70	42808.69
556.90	42550.65
557.10	42607.99
557.30	42450.30
557.50	42980.72
557.70	43165.04
557.91	43343.21
558.11	43017.58
558.31	43013.49
558.51	43095.41
558.71	43355.50
558.91	43373.93
559.11	43165.04
559.31	42976.62
559.51	42866.03
559.72	43349.35
559.92	43060.59
560.12	42917.23
560.32	43603.30
560.52	43404.65
560.72	43810.15
560.92	43380.07
561.12	43425.13
561.32	43621.73
561.52	43398.51
561.72	43844.96
561.93	43396.46
562.13	44037.47
562.33	43898.21
562.53	44041.57
562.73	43574.63
562.93	43799.91
563.13	43627.88
563.33	43777.38
563.53	43984.22
563.73	43636.07
563.93	43867.49
564.13	44348.76
564.33	44160.35
564.53	43783.52
564.74	44889.43
564.94	44203.36
565.14	44195.17
565.34	43980.13
565.54	44514.65
565.74	44373.34
565.94	45063.50
566.14	44123.49
566.34	44504.41
566.54	44805.46
566.74	44594.52
566.94	45032.78
567.14	45088.08
567.34	44365.15
567.54	44989.78
567.74	44625.24
567.94	44959.06
568.14	44852.56
568.34	45122.90
568.54	44633.43
568.74	44770.64
568.94	44735.83
569.14	45126.99
569.34	45088.08
569.54	44989.78
569.75	44778.84
569.95	45028.69
570.15	45460.81
570.35	45172.05
570.55	45200.72
570.75	45225.29
570.95	45741.38
571.15	45106.51
571.35	45395.28
571.55	45753.67
571.75	45626.70
571.95	45352.27
572.15	45569.35
572.35	45856.07
572.55	45589.83
572.75	45569.35
572.95	45780.29
573.15	45616.46
573.35	45665.61
573.55	45780.29
573.75	46054.72
573.95	46308.67
574.15	45970.75
574.35	45843.78
574.55	45940.04
574.75	46116.16
574.95	46296.38
575.15	46286.14
575.34	45985.09
575.54	46228.80
575.74	46660.92
575.94	46327.10
576.14	46765.37
576.34	46751.03
576.54	46943.54
576.74	47072.56
576.94	46810.42
577.14	47004.98
577.34	47158.58
577.54	46714.17
577.74	46767.41
577.94	47166.77
578.14	46828.85
578.34	47357.23
578.54	46980.40
578.74	46861.62
578.94	47166.77
579.14	47076.66
579.34	47039.79
579.54	47568.17
579.74	47732.01
579.94	47189.30
580.13	47990.05
580.33	47840.55
580.53	47666.47
580.73	47627.56
580.93	47963.43
581.13	47725.86
581.33	48342.30
581.53	48274.72
581.73	48018.72
581.93	48225.57
582.13	48137.51
582.33	48192.80
582.53	48162.08
582.73	48571.67
582.92	48418.08
583.12	48303.39
583.32	48274.72
583.52	48477.47
583.72	48747.80
583.92	48600.35
584.12	48706.84
584.32	49247.50
584.52	48561.44
584.72	48946.45
584.92	49091.86
585.11	49478.92
585.31	49075.48
585.51	49323.28
585.71	49042.71
585.91	49401.10
586.11	49218.83
586.31	48860.44
586.51	49110.29
586.71	49591.56
586.91	49480.97
587.10	49798.41
587.30	50029.83
587.50	49673.48
587.70	49362.19
587.90	49943.81
588.10	50105.60
588.30	49665.29
588.50	50353.41
588.69	49949.96
588.89	49702.15
589.09	50074.88
589.29	50105.60
589.49	50617.60
589.69	49724.68
589.89	50302.21
590.08	49941.77
590.28	50351.36
590.48	49886.47
590.68	50406.65
590.88	50402.56
591.08	50316.54
591.28	49650.95
591.47	50779.39
591.67	50781.43
591.87	50578.68
592.07	50795.77
592.27	51016.95
592.47	50640.12
592.67	51152.12
592.86	50838.78
593.06	50820.34
593.26	51039.48
593.46	50744.57
593.66	51016.95
593.86	51315.95
594.05	51225.84
594.25	51184.88
594.45	50812.15
594.65	51592.43
594.85	50894.07
595.05	51520.75
595.24	51752.17
595.44	51621.10
595.64	51422.45
595.84	51610.86
596.04	51989.73
596.23	51324.14
596.43	51916.01
596.63	51541.23
596.83	51690.73
597.03	52055.27
597.22	52178.15
597.42	52018.41
597.62	52782.30
597.82	52262.11
598.02	51946.73
598.21	52436.19
598.41	52137.19
598.61	52471.01
598.81	52176.10
599.01	52249.83
599.20	52364.51
599.40	52184.29
599.60	52802.78
599.80	52724.96
600.00	52798.68
600.19	53046.49
600.39	52798.68
600.59	53159.12
600.79	53138.65
600.98	52716.76
601.18	52925.66
601.38	53294.29
601.58	53144.79
601.78	53337.30
601.97	53073.11
602.17	53869.77
602.37	53243.09
602.57	53679.31
602.76	53339.35
602.96	53388.50
603.16	54090.95
603.36	53239.00
603.55	53916.87
603.75	53597.39
603.95	53974.22
604.15	53785.80
604.34	53849.29
604.54	54217.92
604.74	54027.46
604.94	54174.92
605.13	54068.42
605.33	54162.63
605.53	54322.37
605.73	54854.84
605.92	54203.59
606.12	54518.98
606.32	54400.19
606.52	54121.67
606.71	54109.38
606.91	54512.83
607.11	54408.39
607.30	54637.76
607.50	54951.10
607.70	54879.42
607.90	54858.94
608.09	54197.44
608.29	54734.01
608.49	54840.51
608.68	55086.26
608.88	55051.45
609.08	54822.08
609.28	55186.61
609.47	55121.08
609.67	55456.95
609.87	55403.70
610.06	55291.06
610.26	55471.28
610.46	55205.05
610.66	55004.34
610.85	55276.72
611.05	55252.15
611.25	55538.86
611.44	55094.46
611.64	55411.89
611.84	55456.95
612.03	55526.58
612.23	55778.48
612.43	55676.08
612.62	55389.36
612.82	55616.69
613.02	55506.10
613.21	56042.66
613.41	55182.52
613.61	55633.07
613.80	55194.81
614.00	55532.72
614.20	55618.74
614.39	55739.57
614.59	56063.14
614.79	55776.43
614.98	55686.32
615.18	55598.26
615.38	55479.47
615.57	55475.38
615.77	56061.10
615.97	56028.33
616.16	55612.59
616.36	55575.73
616.56	56165.54
616.75	55409.84
616.95	55784.62
617.15	56116.39
617.34	55813.29
617.54	55854.25
617.74	55966.89
617.93	55887.02
618.13	55786.67
618.32	55995.56
618.52	55633.07
618.72	55946.41
618.91	55819.44
619.11	55510.19
619.31	56259.75
619.50	55622.83
619.70	55362.74
619.90	55571.63
620.09	56284.33
620.29	55637.17
620.48	55620.78
620.68	55917.74
620.88	55454.90
621.07	55737.52
621.27	55628.98
621.46	55571.63
621.66	55772.33
621.86	55706.80
622.05	55903.40
622.25	55997.61
622.44	55874.73
622.64	55538.86
622.84	55913.64
623.03	55438.51
623.23	55741.61
623.42	55852.20
623.62	56067.24
623.82	55956.65
624.01	55823.53
624.21	56007.85
624.40	55731.37
624.60	55993.51
624.80	55391.41
624.99	56151.21
625.19	55307.44
625.38	55930.03
625.58	55764.14
625.77	55575.73
625.97	55794.86
626.17	55325.88
626.36	55788.72
626.56	55637.17
626.75	55444.66
626.95	56399.01
627.14	55964.84
627.34	55776.43
627.54	55880.88
627.73	55733.42
627.93	55909.55
628.12	55913.64
628.32	55659.69
628.51	55475.38
628.71	55784.62
628.90	55737.52
629.10	55624.88
629.30	55596.21
629.49	55995.56
629.69	55758.00
629.88	55768.24
630.08	56310.95
630.27	55815.34
630.47	56472.74
630.66	55483.57
630.86	55930.03
631.05	55493.81
631.25	56390.82
631.44	56169.64
631.64	55434.42
631.84	56218.79
632.03	56571.04
632.23	56351.91
632.42	56231.08
632.62	56095.91
632.81	55846.06
633.01	55710.89
633.20	56186.02
633.40	56186.02
633.59	56419.49
633.79	55583.92
633.98	56079.53
634.18	56020.14
634.37	56272.04
634.57	56456.35
634.76	56358.05
634.96	56163.50
635.15	56319.14
635.35	56243.37
635.54	56050.86
635.74	56581.28
635.93	55884.97
636.13	56323.24
636.32	55895.21
636.52	55798.96
636.71	56161.45
636.91	55903.40
637.10	56114.34
637.30	56204.45
637.49	56448.16
637.69	56589.47
637.88	55991.47
638.08	56136.87
638.27	55743.66
638.46	56421.54
638.66	56118.44
638.85	56257.70
639.05	56214.69
639.24	55987.37
639.44	55854.25
639.63	56308.90
639.83	56837.28
640.02	56558.75
640.22	56401.06
640.41	56796.32
640.61	55932.07
640.80	56171.69
640.99	56001.71
641.19	56865.95
641.38	56259.75
641.58	56296.61
641.77	56491.17
641.97	55948.46
642.16	56474.79
642.36	56628.38
642.55	56939.68
642.74	56177.83
642.94	57296.02
643.13	56538.27
643.33	56460.45
643.52	56751.26
643.72	56855.71
643.91	56579.23
644.10	56857.76
644.30	56968.35
644.49	56614.05
644.69	57023.64
644.88	56577.18
645.08	56380.58
645.27	56239.27
645.46	56171.69
645.66	57181.34
645.85	56579.23
646.05	56681.63
646.24	56546.47
646.43	56808.61
646.63	57177.24
646.82	56972.44
647.02	56849.56
647.21	56661.15
647.40	56564.90
647.60	57248.92
647.79	56927.39
647.99	57169.05
648.18	56568.99
648.37	57271.45
648.57	57328.79
648.76	57025.69
648.96	56470.69
649.15	56882.33
649.34	57005.21
649.54	57054.36
649.73	56677.54
649.92	56984.73
650.12	56968.35
650.31	57336.98
650.51	57259.16
650.70	56988.83
650.89	56771.74
651.09	57453.72
651.28	57316.50
651.47	57683.09
651.67	57011.35
651.86	57425.04
652.06	56499.36
652.25	56968.35
652.44	57013.40
652.64	57054.36
652.83	57423.00
653.02	57064.60
653.22	57695.38
653.41	57128.09
653.60	56730.78
653.80	56831.13
653.99	57093.27
654.18	56894.62
654.38	57083.03
654.57	57201.82
654.76	57463.96
654.96	56988.83
655.15	57152.66
655.34	57111.70
655.54	56884.38
655.73	57541.78
655.92	57349.27
656.12	57218.20
656.31	57064.60
656.50	57767.05
656.70	57126.04
656.89	56958.11
657.08	57037.98
657.28	57244.82
657.47	57257.11
657.66	57758.86
657.86	57480.34
658.05	57425.04
658.24	57787.53
658.43	57330.84
658.63	57281.69
658.82	57531.54
659.01	57375.89
659.21	57341.08
659.40	57406.61
659.59	57085.08
659.79	57590.93
659.98	57316.50
660.17	57509.01
660.36	57445.52
660.56	57914.51
660.75	57160.86
660.94	57388.18
661.14	57427.09
661.33	57590.93
661.52	57062.55
661.71	57638.03
661.91	56927.39
662.10	56954.01
662.29	57762.96
662.49	57250.97
662.68	57271.45
662.87	57595.03
663.06	57431.19
663.26	57588.88
663.45	57689.23
663.64	57590.93
663.83	57982.09
664.03	57267.35
664.22	57896.08
664.41	57998.48
664.60	57175.19
664.80	57064.60
664.99	57304.21
665.18	57457.81
665.37	57365.65
665.57	57439.38
665.76	56859.80
665.95	57629.84
666.14	57488.53
666.34	57160.86
666.53	57423.00
666.72	57253.01
666.91	57173.14
667.11	57080.98
667.30	57351.32
667.49	57257.11
667.68	57509.01
667.87	56958.11
668.07	57568.40
668.26	57336.98
668.45	57283.73
668.64	56863.90
668.84	57885.84
669.03	57263.25
669.22	57412.76
669.41	57740.43
669.60	57250.97
669.80	56941.72
669.99	57740.43
670.18	57373.84
670.37	57072.79
670.57	57975.95
670.76	57328.79
670.95	57619.60
671.14	57449.62
671.33	57044.12
671.53	57793.68
671.72	57500.82
671.91	57629.84
672.10	57560.21
672.29	57105.56
672.48	57048.22
672.68	57605.26
672.87	57197.72
673.06	56837.28
673.25	56855.71
673.44	57107.61
673.64	56982.68
673.83	57175.19
674.02	57031.83
674.21	56759.45
674.40	57324.69
674.59	56786.08
674.79	56839.32
674.98	56642.72
675.17	56915.10
675.36	57029.79
675.55	57277.59
675.74	57300.12
675.94	56812.70
676.13	56767.65
676.32	57173.14
676.51	57410.71
676.70	56968.35
676.89	57259.16
677.08	57293.97
677.28	57025.69
677.47	57562.26
677.66	57199.77
677.85	57060.51
678.04	57224.34
678.23	57490.58
678.42	56841.37
678.62	57062.55
678.81	57328.79
679.00	57007.26
679.19	57291.93
679.38	57052.31
679.57	56364.20
679.76	56943.77
679.96	57218.20
680.15	56525.99
680.34	57121.94
680.53	57197.72
680.72	56859.80
680.91	56798.37
681.10	56485.03
681.29	56687.78
681.48	56425.64
681.68	56798.37
681.87	56571.04
682.06	56900.76
682.25	56431.78
682.44	56448.16
682.63	56665.25
682.82	56515.75
683.01	56435.87
683.20	56439.97
683.39	56722.59
683.59	55960.75
683.78	56208.55
683.97	56538.27
684.16	56370.34
684.35	56206.50
684.54	56046.76
684.73	56323.24
684.92	56376.48
685.11	56634.53
685.30	55997.61
685.49	56472.74
685.69	56161.45
685.88	56097.96
686.07	55909.55
686.26	56063.14
686.45	56317.09
686.64	56255.65
686.83	56370.34
687.02	56208.55
687.21	56233.13
687.40	56317.09
687.59	56308.90
687.78	56276.13
687.97	56407.20
688.16	55993.51
688.35	56231.08
688.54	55895.21
688.74	55741.61
688.93	56112.30
689.12	56183.97
689.31	55612.59
689.50	56116.39
689.69	55526.58
689.88	55215.29
690.07	55907.50
690.26	55837.87
690.45	55856.30
690.64	55428.27
690.83	55491.76
691.02	55598.26
691.21	55440.56
691.40	55520.43
691.59	55469.23
691.78	55325.88
691.97	55813.29
692.16	55327.92
692.35	55878.83
692.54	55579.82
692.73	55854.25
692.92	55784.62
693.11	55432.37
693.30	55329.97
693.49	55760.05
693.68	55243.96
693.87	55258.29
694.06	55090.36
694.25	55426.23
694.44	54817.98
694.63	55213.24
694.82	55381.17
695.01	55088.31
695.20	55555.25
695.39	55329.97
695.58	55506.10
695.77	54901.95
695.96	55080.12
696.15	54953.15
696.34	55063.74
696.53	55067.83
696.72	55424.18
696.91	54985.91
697.10	55059.64
697.29	54963.39
697.48	55211.19
697.67	54273.22
697.86	54164.68
698.05	54400.19
698.24	54983.86
698.43	54154.44
698.62	55018.68
698.81	54277.32
699.00	54836.41
699.19	54490.30
699.38	54793.40
699.57	54328.52
699.76	54871.23
699.95	54471.87
700.14	54588.61
700.32	54867.13
700.51	54203.59
700.70	55045.30
700.89	54910.14
701.08	54785.21
701.27	54303.94
701.46	54934.71
701.65	53630.16
701.84	54328.52
702.03	54252.74
702.22	54246.60
702.41	53920.97
702.60	54232.26
702.79	54097.09
702.98	53435.60
703.17	54320.32
703.35	54148.29
703.54	53863.63
703.73	54369.47
703.92	54232.26
704.11	53787.85
704.30	53365.97
704.49	53460.18
704.68	53832.91
704.87	53908.68
705.06	53855.43
705.25	53589.20
705.43	53824.71
705.62	53957.83
705.81	53636.30
706.00	53796.04
706.19	53474.51
706.38	53439.70
706.57	53535.95
706.76	53306.58
706.95	53945.54
707.14	53222.61
707.32	53458.13
707.51	53314.77
707.70	53345.49
707.89	53613.77
708.08	53165.27
708.27	53597.39
708.46	53474.51
708.65	53335.25
708.84	53263.57
709.02	53476.56
709.21	53486.80
709.40	52929.75
709.59	53318.87
709.78	52604.13
709.97	53318.87
710.16	52819.16
710.34	53046.49
710.53	53032.15
710.72	52393.18
710.91	53021.91
711.10	53023.96
711.29	53224.66
711.48	52946.14
711.66	53095.64
711.85	52925.66
712.04	52661.47
712.23	52944.09
712.42	52538.59
712.61	52804.83
712.80	52395.23
712.98	52458.72
713.17	52405.47
713.36	52073.70
713.55	52700.38
713.74	52804.83
713.93	52376.80
714.11	52526.30
714.30	52337.89
714.49	52389.09
714.68	52583.65
714.87	52085.99
715.06	52585.69
715.24	52387.04
715.43	52444.38
715.62	52172.00
715.81	52294.88
716.00	52198.63
716.18	52204.77
716.37	51752.17
716.56	51754.22
716.75	52518.11
716.94	51969.26
717.12	51588.33
717.31	51934.44
717.50	51899.62
717.69	51395.82
717.88	51934.44
718.06	52018.41
718.25	52090.09
718.44	51334.38
718.63	51873.00
718.82	51148.02
719.00	51879.14
719.19	51068.15
719.38	51148.02
719.57	50949.37
719.76	50826.49
719.94	50883.83
720.13	51102.96
720.32	51211.51
720.51	51019.00
720.69	50982.13
720.88	50408.70
721.07	51397.87
721.26	50552.06
721.44	50652.41
721.63	50402.56
721.82	50214.15
722.01	50447.61
722.20	51033.33
722.38	50574.59
722.57	50175.23
722.76	50468.09
722.95	50164.99
723.13	50111.75
723.32	50015.49
723.51	50074.88
723.70	49734.92
723.88	50255.11
724.07	50052.36
724.26	50148.61
724.44	49554.70
724.63	50078.98
724.82	50046.21
725.01	49868.04
725.19	50197.76
725.38	49413.39
725.57	49622.28
725.76	50048.26
725.94	49433.87
726.13	49771.78
726.32	49718.54
726.51	49388.81
726.69	49935.62
726.88	49628.43
727.07	49753.35
727.25	49276.18
727.44	49544.46
727.63	49706.25
727.82	49489.16
728.00	49548.56
728.19	49222.93
728.38	49753.35
728.56	48999.70
728.75	49599.76
728.94	49052.95
729.12	49753.35
729.31	49380.62
729.50	49239.31
729.69	49640.71
729.87	48897.30
730.06	49347.86
730.25	49267.98
730.43	49620.23
730.62	49270.03
730.81	49526.03
730.99	49585.42
731.18	49452.30
731.37	49134.87
731.55	49820.94
731.74	49650.95
731.93	49292.56
732.11	49534.22
732.30	49370.38
732.49	49276.18
732.67	49626.38
732.86	49016.08
733.05	49513.74
733.23	48962.84
733.42	48747.80
733.61	49356.05
733.79	49485.07
733.98	49632.52
734.17	49231.12
734.35	49407.25
734.54	49120.53
734.73	49173.78
734.91	49603.85
735.10	49296.66
735.29	49900.81
735.47	49046.80
735.66	49233.17
735.84	49394.96
736.03	49110.29
736.22	49265.94
736.40	48598.30
736.59	49112.34
736.78	49165.59
736.96	48608.54
737.15	48989.46
737.33	48647.45
737.52	48485.66
737.71	48514.33
737.89	48856.34
738.08	48502.04
738.27	48325.92
738.45	49306.90
738.64	48739.61
738.82	48852.25
739.01	48387.36
739.20	48407.84
739.38	48952.60
739.57	48600.35
739.75	49423.63
739.94	48639.26
740.13	48512.28
740.31	48516.38
740.50	48616.73
740.68	48868.63
740.87	48469.28
741.06	48532.76
741.24	48346.40
741.43	48579.87
741.61	48375.07
741.80	48106.79
741.99	47947.04
742.17	48119.07
742.36	48600.35
742.54	48104.74
742.73	48264.48
742.91	48590.11
743.10	47988.00
743.29	48442.65
743.47	47981.86
743.66	47965.48
743.84	48157.99
744.03	48041.25
744.21	47578.41
744.40	48594.20
744.59	47936.80
744.77	48000.29
744.96	47707.43
745.14	48164.13
745.33	47832.36
745.51	47940.90
745.70	47791.40
745.88	47365.42
746.07	47707.43
746.26	47596.84
746.44	47715.62
746.63	47754.54
746.81	47559.98
747.00	47097.14
747.18	47854.89
747.37	47478.06
747.55	47461.68
747.74	47510.83
747.92	47191.34
748.11	47463.72
748.29	47588.65
748.48	47576.36
748.66	47103.28
748.85	47267.12
749.03	47439.15
749.22	47177.01
749.41	47297.84
749.59	47457.58
749.78	47129.90
749.96	46519.61
750.15	46734.65
750.33	47238.45
750.52	46708.02
750.70	47099.19
750.89	46327.10
751.07	46828.85
751.26	46822.71
751.44	47093.04
751.63	47039.79
751.81	46429.50
752.00	46359.87
752.18	46781.75
752.37	46898.48
752.55	46388.54
752.74	46314.81
752.92	46402.88
753.10	46394.68
753.29	46687.54
753.47	46175.55
753.66	45731.14
753.84	46415.16
754.03	46146.88
754.21	46153.02
754.40	46300.48
754.58	46130.50
754.77	45909.32
754.95	45806.92
755.14	45985.09
755.32	46218.56
755.51	45966.66
755.69	46054.72
755.88	45788.49
756.06	45665.61
756.24	46234.94
756.43	45565.26
756.61	45643.08
756.80	45464.91
756.98	45270.35
757.17	45600.07
757.35	45739.33
757.54	45309.26
757.72	45354.32
757.90	45708.61
758.09	45118.80
758.27	45716.81
758.46	45227.34
758.64	45307.21
758.83	45497.67
759.01	45522.25
759.19	45581.64
759.38	45307.21
759.56	45491.53
759.75	45227.34
759.93	45409.61
760.12	45280.59
760.30	45153.62
760.48	44971.35
760.67	45143.38
760.85	45030.74
761.04	45282.64
761.22	45024.59
761.40	44481.88
761.59	44717.40
761.77	44832.08
761.96	44737.88
762.14	44860.76
762.32	44549.46
762.51	44569.94
762.69	44748.12
762.88	44510.55
763.06	44836.18
763.24	44850.52
763.43	44504.41
763.61	44832.08
763.80	44430.68
763.98	44098.91
764.16	44531.03
764.35	43982.18
764.53	43943.27
764.72	44227.93
764.90	44254.56
765.08	43937.12
765.27	43912.55
765.45	43804.00
765.63	43431.27
765.82	44096.86
766.00	43498.86
766.18	43584.87
766.37	43744.61
766.55	43505.00
766.74	43517.29
766.92	43488.62
767.10	43292.01
767.29	43568.49
767.47	43046.26
767.65	43763.04
767.84	43289.96
768.02	43326.83
768.20	42737.01
768.39	43431.27
768.57	43480.42
768.75	43126.13
768.94	43169.13
769.12	43083.12
769.30	42741.11
769.49	42694.00
769.67	42438.01
769.85	42515.83
770.04	42810.74
770.22	42362.23
770.40	42562.93
770.59	42302.84
770.77	42878.32
770.95	42941.81
771.14	42268.03
771.32	41969.02
771.50	42128.77
771.69	42071.42
771.87	42118.53
772.05	42130.81
772.24	42130.81
772.42	41903.49
772.60	41995.65
772.78	41770.37
772.97	41819.52
773.15	42007.94
773.33	41840.00
773.52	41809.28
773.70	41987.46
773.88	42159.48
774.07	41639.30
774.25	41835.91
774.43	41991.55
774.61	41944.45
774.80	41600.39
774.98	41584.01
775.16	41805.19
775.34	41932.16
775.53	41723.27
775.71	41958.78
775.89	41657.73
776.08	41631.11
776.26	42046.85
776.44	41829.76
776.62	42128.77
776.81	41684.36
776.99	41895.30
777.17	42351.99
777.35	41964.93
777.54	42161.53
777.72	41862.53
777.90	41819.52
778.08	41938.30
778.27	41549.19
778.45	42071.42
778.63	42343.80
778.81	41915.78
779.00	42671.48
779.18	42149.24
779.36	42308.99
779.54	42134.91
779.73	42190.20
779.91	42485.11
780.09	42399.10
780.27	42786.16
780.46	42390.91
780.64	43031.92
780.82	42409.34
781.00	42417.53
781.19	42657.14
781.37	42931.57
781.55	42683.76
781.73	43128.17
781.91	42587.51
782.10	42739.06
782.28	42524.02
782.46	42304.89
782.64	42673.52
782.82	42145.15
783.01	42673.52
783.19	42876.27
783.37	42853.75
783.55	42511.74
783.74	42616.18
783.92	42382.71
784.10	43019.63
784.28	42792.31
784.46	42366.33
784.64	42376.57
784.83	42620.28
785.01	42636.66
785.19	42769.78
785.37	42726.77
785.55	42243.45
785.74	42173.82
785.92	42292.60
786.10	42595.70
786.28	42538.36
786.46	42206.59
786.64	42163.58
786.83	42005.89
787.01	42530.17
787.19	42149.24
787.37	42491.26
787.55	42321.27
787.74	41741.70
787.92	41903.49
788.10	41780.61
788.28	42057.09
788.46	42126.72
788.64	41538.95
788.82	42278.27
789.01	41809.28
789.19	41999.74
789.37	41727.36
789.55	41438.60
789.73	41362.82
789.91	41518.47
790.09	41545.09
790.28	41358.73
790.46	41194.89
790.64	41670.02
790.82	41024.91
791.00	41227.66
791.18	41024.91
791.36	41467.27
791.55	41143.69
791.73	41188.75
791.91	40494.49
792.09	40945.04
792.27	41096.59
792.45	40525.21
792.63	40451.48
792.81	40449.43
793.00	40433.05
793.18	40086.94
793.36	40050.08
793.54	40201.63
793.72	40127.90
793.90	39882.14
794.08	40105.37
794.26	39982.49
794.44	39673.25
794.62	39335.34
794.81	39753.12
794.99	39499.17
795.17	39368.10
795.35	39366.06
795.53	39450.02
795.71	39548.32
795.89	38829.49
796.07	38722.99
796.25	39091.63
796.43	38499.76
796.61	38309.30
796.80	38864.30
796.98	38399.41
797.16	38090.17
797.34	38596.02
797.52	38340.02
797.70	38073.79
797.88	37791.17
798.06	38004.16
798.24	38059.45
798.42	38086.07
798.60	37961.15
798.78	38176.19
798.96	37881.28
799.14	37348.81
799.32	37443.01
799.51	37377.48
799.69	37531.08
799.87	37445.06
800.05	37471.68
800.23	37209.54
800.41	37006.80
800.59	36926.92
800.77	36824.53
800.95	36431.32
801.13	36195.80
801.31	36462.04
801.49	36552.15
801.67	36595.15
801.85	36492.76
802.03	36072.92
802.21	35962.33
802.39	36091.35
802.57	35888.60
802.75	36034.01
802.93	36038.11
803.11	35800.54
803.29	35653.09
803.47	35507.68
803.65	35886.56
803.83	35608.03
804.01	35771.87
804.19	35100.14
804.37	35206.63
804.55	35393.00
804.73	35196.39
804.91	35184.10
805.09	35151.34
805.27	34670.06
805.45	34969.07
805.63	34743.79
805.81	34440.69
805.99	34518.51
806.17	34438.64
806.35	34555.38
806.53	34153.97
806.71	34340.34
806.89	34315.76
807.07	34567.66
807.25	34547.18
807.43	33959.42
807.61	34096.63
807.79	34080.25
807.97	33433.09
808.15	33668.61
808.33	33814.01
808.51	33584.64
808.69	33349.12
808.87	33433.09
809.05	33240.58
809.23	33271.30
809.41	33283.59
809.59	32906.76
809.77	33218.05
809.95	32960.01
810.13	33326.60
810.31	32689.68
810.49	32843.27
810.67	32976.39
810.84	32992.78
811.02	33062.41
811.20	32609.81
811.38	32640.53
811.56	32531.98
811.74	32251.41
811.92	32200.21
812.10	32306.71
812.28	32454.16
812.46	32052.76
812.64	32165.40
812.82	31725.08
813.00	32257.56
813.18	31909.40
813.36	31907.35
813.53	31487.52
813.71	31630.88
813.89	31317.54
814.07	31782.43
814.25	31845.91
814.43	31530.53
814.61	31258.15
814.79	31303.20
814.97	31188.52
815.15	31196.71
815.33	30682.67
815.50	30987.82
815.68	31084.07
815.86	31145.51
816.04	30604.84
816.22	30752.30
816.40	31215.14
816.58	30572.08
816.76	30588.46
816.94	30887.46
817.11	30817.83
817.29	30875.18
817.47	30498.35
817.65	30504.49
817.83	30461.49
818.01	30203.44
818.19	30369.33
818.37	30170.68
818.54	30012.98
818.72	29976.12
818.90	30127.67
819.08	30156.34
819.26	29806.14
819.44	30375.47
819.62	29869.62
819.80	29568.57
819.97	29630.01
820.15	29724.22
820.33	29636.16
820.51	29920.82
820.69	29617.72
820.87	29636.16
821.05	29709.88
821.22	29193.79
821.40	29713.98
821.58	29359.68
821.76	29181.51
821.94	29158.98
822.12	29234.75
822.29	29142.60
822.47	29029.96
822.65	29085.25
822.83	28900.94
823.01	28927.56
823.19	29126.21
823.36	28999.24
823.54	28153.43
823.72	28589.64
823.90	28702.28
824.08	28235.35
824.25	28575.31
824.43	28352.08
824.61	28550.73
824.79	28384.85
824.97	28417.61
825.15	28464.72
825.32	28227.15
825.50	28489.29
825.68	28104.28
825.86	28481.10
826.04	28104.28
826.21	28186.19
826.39	28317.26
826.57	27772.50
826.75	27776.60
826.93	27962.97
827.10	27778.65
827.28	28227.15
827.46	28032.60
827.64	28038.74
827.81	27625.05
827.99	28034.64
828.17	27661.91
828.35	27682.39
828.53	27782.74
828.70	27612.76
828.88	27463.26
829.06	27475.55
829.24	27483.74
829.41	27580.00
829.59	27604.57
829.77	27237.98
829.95	27188.83
830.12	27137.63
830.30	26924.65
830.48	27160.16
830.66	26867.30
830.84	27432.54
831.01	27192.93
831.19	27465.31
831.37	27043.43
831.55	26879.59
831.72	26996.32
831.90	26658.41
832.08	26736.23
832.25	26756.71
832.43	26711.66
832.61	26672.74
832.79	26541.68
832.96	26463.85
833.14	26564.20
833.32	26519.15
833.50	26924.65
833.67	26531.44
833.85	26373.74
834.03	25810.55
834.20	26498.67
834.38	26637.93
834.56	26635.88
834.74	26371.69
834.91	26142.32
835.09	26261.10
835.27	25751.16
835.44	25888.37
835.62	25708.15
835.80	26097.27
835.98	26214.00
836.15	25798.26
836.33	25968.24
836.51	25896.56
836.68	25646.71
836.86	25755.26
837.04	26023.54
837.21	25921.14
837.39	25802.36
837.57	25695.86
837.75	25812.60
837.92	25556.60
838.10	25558.65
838.28	25255.55
838.45	25575.03
838.63	25259.65
838.81	25468.54
838.98	25308.80
839.16	24987.27
839.34	24661.64
839.51	25521.79
839.69	24997.51
839.87	25034.37
840.04	25142.91
840.22	25364.09
840.40	25108.10
840.57	24641.16
840.75	25013.89
840.93	24780.42
841.10	25095.81
841.28	25392.76
841.46	24979.07
841.63	25190.02
841.81	25028.23
841.98	24921.73
842.16	25054.85
842.34	24673.93
842.51	24659.59
842.69	24866.44
842.87	24462.99
843.04	24555.15
843.22	24444.56
843.40	24307.34
843.57	24393.36
843.75	24635.02
843.92	24585.86
844.10	24284.81
844.28	24583.82
844.45	24381.07
844.63	24561.29
844.81	24385.16
844.98	24678.02
845.16	24532.62
845.33	24241.81
845.51	24319.63
845.69	24518.28
845.86	24153.74
846.04	23709.33
846.21	24120.98
846.39	24045.20
846.57	23842.45
846.74	24071.82
846.92	23768.73
847.09	23748.25
847.27	23676.57
847.45	23887.51
847.62	23604.89
847.80	23815.83
847.97	23695.00
848.15	24239.76
848.32	23686.81
848.50	23592.60
848.68	23467.67
848.85	23479.96
849.03	23326.36
849.20	23563.93
849.38	23379.61
849.56	23586.46
849.73	23053.98
849.91	23299.74
850.08	23670.42
850.26	23385.76
850.43	23088.80
850.61	23166.62
850.78	22554.28
850.96	22851.24
851.14	22802.08
851.31	23127.71
851.49	22986.40
851.66	23193.25
851.84	23203.49
852.01	23248.54
852.19	22853.28
852.36	22851.24
852.54	22832.80
852.71	22896.29
852.89	23129.76
853.07	22873.76
853.24	22841.00
853.42	22974.11
853.59	23021.22
853.77	22814.37
853.94	22814.37
854.12	22970.02
854.29	22556.33
854.47	23039.65
854.64	22832.80
854.82	22558.38
854.99	22476.46
855.17	22806.18
855.34	22345.39
855.52	22693.54
855.69	22671.01
855.87	22421.16
856.04	22271.66
856.22	22079.15
856.39	22015.66
856.57	22173.36
856.74	22122.16
856.92	22103.73
857.09	22154.93
857.27	22021.81
857.44	22359.72
857.62	22034.10
857.79	22152.88
857.97	21937.84
858.14	22148.78
858.32	21794.48
858.49	21925.55
858.67	21880.50
858.84	21796.53
859.02	21903.03
859.19	21890.74
859.37	21571.25
859.54	21698.23
859.72	21892.79
859.89	21683.89
860.06	21704.37
860.24	21548.73
860.41	22052.53
860.59	21528.25
860.76	21900.98
860.94	21425.85
861.11	21714.61
861.29	21868.21
861.46	21569.21
861.64	21481.14
861.81	21270.20
861.98	21214.91
862.16	21262.01
862.33	21227.20
862.51	21165.76
862.68	21399.23
862.86	21186.24
863.03	21278.40
863.21	21120.70
863.38	20975.30
863.55	20901.57
863.73	20922.05
863.90	21210.81
864.08	20895.43
864.25	20993.73
864.43	20942.53
864.60	20924.10
864.77	20625.09
864.95	20772.55
865.12	20565.70
865.30	20821.70
865.47	20776.64
865.64	20879.04
865.82	20799.17
865.99	20852.42
866.17	20623.05
866.34	20981.44
866.51	20436.68
866.69	20661.96
866.86	20463.30
867.04	20610.76
867.21	20627.14
867.38	20598.47
867.56	20453.06
867.73	20375.24
867.91	20244.17
868.08	20473.54
868.25	20121.29
868.43	20389.58
868.60	19988.18
868.78	20119.24
868.95	20475.59
869.12	20086.48
869.30	19883.73
869.47	20078.29
869.64	19908.30
869.82	19971.79
869.99	19873.49
870.16	20022.99
870.34	19789.52
870.51	20166.35
870.69	19887.82
870.86	19844.82
871.03	19775.19
871.21	19764.95
871.38	19857.10
871.55	19764.95
871.73	19494.61
871.90	19529.43
872.07	19554.01
872.25	19341.02
872.42	19224.28
872.59	19334.87
872.77	19586.77
872.94	19338.97
873.11	19568.34
873.29	19631.83
873.46	19197.66
873.63	19326.68
873.81	19316.44
873.98	18980.57
874.15	19035.87
874.33	18958.05
874.50	18798.31
874.67	19279.58
874.85	18939.62
875.02	18992.86
875.19	18992.86
875.37	19060.45
875.54	18593.51
875.71	18810.59
875.88	18839.26
876.06	18734.82
876.23	18806.50
876.40	18271.98
876.58	18630.37
876.75	18814.69
876.92	18597.60
877.10	18616.04
877.27	18433.77
877.44	18423.53
877.61	18355.94
877.79	18337.51
877.96	18163.43
878.13	18210.54
878.31	18204.39
878.48	17915.63
878.65	18145.00
878.82	18009.84
879.00	18093.80
879.17	17911.53
879.34	17991.41
879.51	17972.97
879.69	17837.81
879.86	17796.85
880.03	18044.65
880.21	17891.06
880.38	17956.59
880.55	18042.60
880.72	17673.97
880.90	17745.65
881.07	17739.51
881.24	17747.70
881.41	17727.22
881.59	17448.69
881.76	17598.20
881.93	17624.82
882.10	17323.77
882.28	17565.43
882.45	17747.70
882.62	17604.34
882.79	17465.08
882.96	17305.34
883.14	17465.08
883.31	17471.22
883.48	17503.99
883.65	17180.41
883.83	17510.13
884.00	17139.45
884.17	17213.18
884.34	17288.95
884.51	17012.48
884.69	17252.09
884.86	17123.07
885.03	17274.62
885.20	17049.34
885.38	17078.01
885.55	16975.61
885.72	16899.84
885.89	16881.41
886.06	16940.80
886.24	16891.65
886.41	16692.99
886.58	17039.10
886.75	17028.86
886.92	16682.75
887.10	17049.34
887.27	16799.49
887.44	17032.96
887.61	17180.41
887.78	16690.95
887.95	16844.54
888.13	16903.93
888.30	16566.02
888.47	16727.81
888.64	16854.78
888.81	16803.58
888.99	16654.08
889.16	16523.01
889.33	16418.57
889.50	16488.20
889.67	16592.64
889.84	16256.78
890.01	16523.01
890.19	16346.89
890.36	16465.67
890.53	16617.22
890.70	16406.28
890.87	16193.29
891.04	16267.02
891.22	16209.67
891.39	16201.48
891.56	16146.19
891.73	16111.37
891.90	15955.72
892.07	16185.10
892.24	16142.09
892.42	15912.72
892.59	15990.54
892.76	15974.16
892.93	16004.88
893.10	15965.96
893.27	15804.17
893.44	15736.59
893.61	15615.76
893.79	15818.51
893.96	15920.91
894.13	15853.33
894.30	15955.72
894.47	15675.15
894.64	16041.74
894.81	15855.37
894.98	15957.77
895.15	16037.64
895.33	15746.83
895.50	15779.60
895.67	15861.52
895.84	15787.79
896.01	16031.50
896.18	15654.67
896.35	15955.72
896.52	15636.24
896.69	15671.06
896.86	15793.94
897.04	15546.13
897.21	15632.15
897.38	15642.39
897.55	15636.24
897.72	15865.61
897.89	15709.97
898.06	15681.30
898.23	15628.05
898.40	15716.11
898.57	15748.88
898.74	15703.82
898.91	15458.07
899.08	15574.80
899.26	15595.28
899.43	15419.16
899.60	15482.64
899.77	15650.58
899.94	15542.03
900.11	15417.11
900.28	15644.43
900.45	15468.31
900.62	15566.61
900.79	15816.46
900.96	15605.52
901.13	15585.04
901.30	15494.93
901.47	15597.33
901.64	15249.18
901.81	15576.85
901.98	15515.41
902.15	15587.09
902.32	15562.51
902.49	15621.91
902.66	15587.09
902.83	15566.61
903.01	15660.82
903.18	15630.10
903.35	15402.77
903.52	15417.11
903.69	15685.39
903.86	15656.72
904.03	15476.50
904.20	15884.05
904.37	15644.43
904.54	15628.05
904.71	15527.70
904.88	15582.99
905.05	15335.19
905.22	15523.60
905.39	15447.83
905.56	15574.80
905.73	15410.96
905.90	15605.52
906.07	15437.59
906.24	15468.31
906.41	15605.52
906.58	15722.26
906.75	15636.24
906.92	15429.40
907.09	15527.70
907.26	15589.14
907.43	15494.93
907.60	15406.87
907.77	15675.15
907.93	15355.67
908.10	15458.07
908.27	15683.34
908.44	15286.04
908.61	15247.13
908.78	15245.08
908.95	15535.89
909.12	15355.67
909.29	15374.10
909.46	15564.56
909.63	15580.95
909.80	15374.10
909.97	15269.66
910.14	15073.05
910.31	15226.65
910.48	15232.79
910.65	15144.73
910.82	15255.32
910.99	15271.70
911.16	15179.54
911.33	15210.26
911.50	15370.01
911.66	15089.43
911.83	15329.05
912.00	15193.88
912.17	14829.34
912.34	15134.49
912.51	15054.62
912.68	15032.09
912.85	15214.36
913.02	15093.53
913.19	15058.71
913.36	14825.25
913.53	14997.28
913.70	14878.49
913.86	14958.36
914.03	14743.33
914.20	14767.90
914.37	14935.84
914.54	14743.33
914.71	14886.68
914.88	14671.65
915.05	14497.57
915.22	14649.12
915.39	14694.18
915.55	14427.94
915.72	14714.66
915.89	14608.16
916.06	14221.10
916.23	14479.14
916.40	14604.07
916.57	14350.12
916.74	14319.40
916.91	14303.01
917.07	14114.60
917.24	14122.79
917.41	14241.57
917.58	14110.50
917.75	14028.59
917.92	13750.06
918.09	14069.55
918.26	14051.11
918.42	13993.77
918.59	14044.97
918.76	13922.09
918.93	13795.12
919.10	13664.05
919.27	13813.55
919.44	13827.88
919.60	13862.70
919.77	13457.20
919.94	13387.57
920.11	13514.55
920.28	13705.01
920.45	13473.59
920.61	13291.32
920.78	13532.98
920.95	13455.15
921.12	13371.19
921.29	13367.09
921.46	13209.40
921.62	13166.39
921.79	13219.64
921.96	13240.12
922.13	13209.40
922.30	13008.70
922.47	12986.17
922.63	12934.97
922.80	12969.79
922.97	12705.60
923.14	12699.45
923.31	12928.83
923.47	12558.14
923.64	13033.27
923.81	12623.68
923.98	12513.09
924.15	12566.34
924.32	12402.50
924.48	12529.47
924.65	12420.93
924.82	12382.02
924.99	12431.17
925.15	12121.93
925.32	12189.51
925.49	12216.13
925.66	12113.74
925.83	11941.71
925.99	12017.48
926.16	12072.78
926.33	11939.66
926.50	11822.92
926.67	11970.38
926.83	11814.73
927.00	11818.83
927.17	11681.61
927.34	11718.48
927.50	11503.44
927.67	11712.33
927.84	11511.63
928.01	11603.79
928.17	11521.87
928.34	11349.84
928.51	11310.93
928.68	11312.98
928.84	11380.56
929.01	11126.61
929.18	11153.24
929.35	11056.98
929.51	11138.90
929.68	10956.63
929.85	10878.81
930.02	11042.65
930.18	10843.99
930.35	10768.22
930.52	10829.66
930.69	10813.28
930.85	10809.18
931.02	10508.13
931.19	10717.02
931.36	10516.32
931.52	10792.80
931.69	10526.56
931.86	10454.88
932.02	10389.35
932.19	10289.00
932.36	10375.01
932.53	10444.64
932.69	10020.71
932.86	10194.79
933.03	10149.73
933.19	10045.29
933.36	10104.68
933.53	9998.18
933.70	9924.46
933.86	10188.64
934.03	9973.61
934.20	9717.61
934.36	9895.78
934.53	9547.63
934.70	9432.94
934.86	9645.93
935.03	9494.38
935.20	9318.26
935.36	9461.62
935.53	9099.13
935.70	9119.60
935.86	9181.04
936.03	9150.32
936.20	8933.24
936.36	8771.45
936.53	8769.40
936.70	8830.84
936.86	8859.51
937.03	8521.60
937.20	8583.04
937.36	8705.92
937.53	8136.58
937.70	8331.14
937.86	8032.13
938.03	8044.42
938.20	8152.96
938.36	8023.94
938.53	8107.91
938.70	7626.64
938.86	7696.27
939.03	7612.30
939.20	7663.50
939.36	7694.22
939.53	7427.98
939.70	7561.10
939.86	7085.97
940.03	7303.06
940.19	7104.40
940.36	7032.72
940.53	6963.09
940.69	6993.81
940.86	6754.20
941.03	6598.56
941.19	6535.07
941.36	6643.61
941.52	6614.94
941.69	6447.01
941.86	6438.81
942.02	6449.05
942.19	6274.98
942.35	6072.23
942.52	6166.43
942.69	6369.18
942.85	6031.27
943.02	5955.49
943.18	6145.95
943.35	6025.12
943.52	5879.72
943.68	5826.47
943.85	5873.57
944.01	5861.29
944.18	5820.33
944.35	5824.42
944.51	5697.45
944.68	5566.38
944.84	5676.97
945.01	5439.40
945.17	5719.98
945.34	5662.63
945.51	5586.86
945.67	5560.24
945.84	5513.13
946.00	5392.30
946.17	5486.51
946.33	5496.75
946.50	5539.76
946.67	5525.42
946.83	5443.50
947.00	5562.28
947.16	5488.56
947.33	5521.32
947.49	5312.43
947.66	5420.97
947.82	5449.64
947.99	5388.21
948.16	5273.52
948.32	5449.64
948.49	5554.09
948.65	5453.74
948.82	5541.80
948.98	5468.08
949.15	5439.40
949.31	5586.86
949.48	5406.64
949.64	5461.93
949.81	5435.31
949.97	5361.58
950.14	5500.84
950.30	5365.68
950.47	5543.85
950.63	5535.66
950.80	5429.17
950.96	5513.13
951.13	5361.58
951.30	5531.56
951.46	5531.56
951.63	5631.91
951.79	5392.30
951.96	5486.51
952.12	5554.09
952.29	5652.39
952.45	5562.28
952.62	5590.95
952.78	5640.11
952.94	5482.41
953.11	5410.73
953.27	5347.25
953.44	5719.98
953.60	5521.32
953.77	5623.72
953.93	5502.89
954.10	5574.57
954.26	5572.52
954.43	5584.81
954.59	5644.20
954.76	5672.87
954.92	5568.43
955.09	5527.47
955.25	5560.24
955.42	5603.24
955.58	5570.48
955.75	5564.33
955.91	5584.81
956.07	5562.28
956.24	5621.67
956.40	5531.56
956.57	5576.62
956.73	5468.08
956.90	5664.68
957.06	5644.20
957.23	5529.52
957.39	5554.09
957.56	5701.54
957.72	5554.09
957.88	5572.52
958.05	5636.01
958.21	5812.14
958.38	5550.00
958.54	5607.34
958.71	5638.06
958.87	5656.49
959.03	5605.29
959.20	5578.67
959.36	5574.57
959.53	5504.94
959.69	5687.21
959.85	5722.02
960.02	5427.12
960.18	5691.31
960.35	5609.39
960.51	5728.17
960.68	5529.52
960.84	5525.42
961.00	5463.98
961.17	5638.06
961.33	5586.86
961.50	5656.49
961.66	5623.72
961.82	5506.99
961.99	5760.94
962.15	5537.71
962.31	5537.71
962.48	5699.50
962.64	5674.92
962.81	5605.29
962.97	5459.88
963.13	5638.06
963.30	5554.09
963.46	5498.80
963.62	5613.48
963.79	5466.03
963.95	5558.19
964.12	5558.19
964.28	5556.14
964.44	5410.73
964.61	5443.50
964.77	5517.23
964.93	5711.78
965.10	5412.78
965.26	5408.69
965.42	5429.17
965.59	5492.65
965.75	5420.97
965.92	5463.98
966.08	5455.79
966.24	5363.63
966.41	5390.25
966.57	5388.21
966.73	5423.02
966.90	5359.53
967.06	5345.20
967.22	5433.26
967.39	5351.34
967.55	5236.66
967.71	5373.87
967.88	5468.08
968.04	5238.70
968.20	5302.19
968.37	5312.43
968.53	5279.66
968.69	5449.64
968.85	5298.10
969.02	5349.29
969.18	5369.77
969.34	5298.10
969.51	5312.43
969.67	5210.03
969.83	5119.92
970.00	5296.05
970.16	5234.61
970.32	5210.03
970.48	5228.46
970.65	5222.32
970.81	5060.53
970.97	5107.63
971.14	4945.84
971.30	5124.02
971.46	5099.44
971.63	5193.65
971.79	5095.35
971.95	5033.91
972.11	4999.09
972.28	5128.11
972.44	5179.31
972.60	4945.84
972.76	5072.82
972.93	5050.29
973.09	4999.09
973.25	5013.43
973.42	5074.87
973.58	5138.35
973.74	4958.13
973.90	5015.48
974.07	4949.94
974.23	5015.48
974.39	5027.76
974.55	4972.47
974.72	4872.12
974.88	4908.98
975.04	4927.41
975.20	4843.45
975.37	5035.96
975.53	4851.64
975.69	4984.76
975.85	4865.97
976.01	4870.07
976.18	4857.78
976.34	4972.47
976.50	4790.20
976.66	4999.09
976.83	4849.59
976.99	4698.04
977.15	4820.92
977.31	4673.46
977.47	4831.16
977.64	4812.73
977.80	4779.96
977.96	4808.63
978.12	4757.43
978.29	4665.27
978.45	4599.74
978.61	4695.99
978.77	4810.68
978.93	4624.31
979.10	4675.51
979.26	4730.81
979.42	4685.75
979.58	4511.68
979.74	4566.97
979.91	4624.31
980.07	4650.94
980.23	4429.76
980.39	4460.48
980.55	4485.05
980.71	4593.59
980.88	4442.04
981.04	4472.76
981.20	4521.92
981.36	4575.16
981.52	4509.63
981.68	4474.81
981.85	4519.87
982.01	4460.48
982.17	4435.90
982.33	4429.76
982.49	4456.38
982.65	4392.89
982.82	4396.99
982.98	4444.09
983.14	4298.69
983.30	4513.72
983.46	4460.48
983.62	4435.90
983.79	4265.92
983.95	4302.78
984.11	4175.81
984.27	4243.39
984.43	4415.42
984.59	4278.21
984.75	4296.64
984.91	4124.61
985.08	4413.37
985.24	4063.17
985.40	4057.03
985.56	4302.78
985.72	4278.21
985.88	4255.68
986.04	4235.20
986.20	4124.61
986.37	4161.47
986.53	4095.94
986.69	4321.21
986.85	4120.51
987.01	4079.55
987.17	4140.99
987.33	4067.27
987.49	4112.32
987.65	4007.87
987.82	4042.69
987.98	3911.62
988.14	4083.65
988.30	4018.11
988.46	3913.67
988.62	3934.15
988.78	4020.16
988.94	4030.40
989.10	3885.00
989.26	3895.24
989.42	3942.34
989.59	3856.33
989.75	3844.04
989.91	3966.92
990.07	3841.99
990.23	3856.33
990.39	3866.56
990.55	3821.51
990.71	3852.23
990.87	3766.21
991.03	3848.13
991.19	3868.61
991.35	3928.00
991.51	3790.79
991.67	3889.09
991.83	3856.33
992.00	3870.66
992.16	3772.36
992.32	3950.53
992.48	3758.02
992.64	3766.21
992.80	3858.37
992.96	3614.66
993.12	3694.54
993.28	3686.34
993.44	3649.48
993.60	3731.40
993.76	3741.64
993.92	3672.01
994.08	3768.26
994.24	3686.34
994.40	3696.58
994.56	3649.48
994.72	3575.75
994.88	3559.37
995.04	3667.91
995.20	3612.62
995.36	3559.37
995.52	3633.10
995.68	3594.19
995.84	3418.06
996.00	3708.87
996.16	3518.41
996.32	3545.03
996.48	3483.59
996.64	3663.82
996.80	3493.83
996.96	3624.90
997.12	3456.97
997.28	3385.29
997.44	3395.53
997.60	3475.40
997.76	3418.06
997.92	3434.44
998.08	3420.11
998.24	3409.87
998.40	3459.02
998.56	3426.25
998.72	3299.28
998.88	3307.47
999.04	3487.69
999.20	3461.07
999.36	3336.14
999.52	3385.29
999.68	3280.85
999.84	3416.01
1000.00	3303.37
1000.16	3309.52
1000.32	3264.46
1000.48	3434.44
1000.64	3184.59
1000.80	3178.45
1000.95	3143.63
1001.11	3260.37
1001.27	3237.84
1001.43	3264.46
1001.59	3196.88
1001.75	3164.11
1001.91	3235.79
1002.07	3248.08
1002.23	3239.89
1002.39	3205.07
1002.55	3182.54
1002.71	3114.96
1002.87	3196.88
1003.03	3147.73
1003.19	3030.99
1003.34	3272.65
1003.50	3174.35
1003.66	3059.67
1003.82	3119.06
1003.98	3155.92
1004.14	3051.47
1004.30	3088.34
1004.46	3151.82
1004.62	2983.89
1004.78	2996.18
1004.94	3106.77
1005.09	3143.63
1005.25	3026.90
1005.41	3004.37
1005.57	2928.60
1005.73	3071.95
1005.89	2963.41
1006.05	2967.51
1006.21	3086.29
1006.37	2932.69
1006.52	2936.79
1006.68	2908.12
1006.84	3033.04
1007.00	2846.68
1007.16	3006.42
1007.32	2908.12
1007.48	2961.36
1007.64	2934.74
1007.79	2912.21
1007.95	2818.00
1008.11	2908.12
1008.27	2899.92
1008.43	2863.06
1008.59	2879.44
1008.75	2920.40
1008.91	2885.59
1009.06	2811.86
1009.22	2856.92
1009.38	2877.40
1009.54	2815.96
1009.70	2781.14
1009.86	2856.92
1010.01	2797.53
1010.17	2828.24
1010.33	2797.53
1010.49	2891.73
1010.65	2852.82
1010.81	2672.60
1010.96	2754.52
1011.12	2797.53
1011.28	2775.00
1011.44	2795.48
1011.60	2736.09
1011.76	2764.76
1011.91	2770.90
1012.07	2711.51
1012.23	2586.58
1012.39	2553.82
1012.55	2652.12
1012.71	2531.29
1012.86	2631.64
1013.02	2693.08
1013.18	2656.22
1013.34	2686.94
1013.50	2639.83
1013.65	2748.37
1013.81	2592.73
1013.97	2613.21
1014.13	2586.58
1014.29	2566.10
1014.44	2713.56
1014.60	2633.69
1014.76	2582.49
1014.92	2555.86
1015.07	2717.65
1015.23	2568.15
1015.39	2508.76
1015.55	2533.34
1015.71	2533.34
1015.86	2523.10
1016.02	2496.47
1016.18	2457.56
1016.34	2502.62
1016.49	2480.09
1016.65	2570.20
1016.81	2529.24
1016.97	2523.10
1017.12	2557.91
1017.28	2498.52
1017.44	2400.22
1017.60	2355.16
1017.75	2478.04
1017.91	2475.99
1018.07	2574.30
1018.23	2459.61
1018.38	2471.90
1018.54	2459.61
1018.70	2486.23
1018.86	2451.42
1019.01	2289.63
1019.17	2437.08
1019.33	2453.47
1019.49	2453.47
1019.64	2338.78
1019.80	2435.03
1019.96	2435.03
1020.12	2398.17
1020.27	2306.01
1020.43	2453.47
1020.59	2455.51
1020.74	2398.17
1020.90	2383.84
1021.06	2295.77
1021.22	2400.22
1021.37	2377.69
1021.53	2234.33
1021.69	2355.16
1021.84	2293.72
1022.00	2412.51
1022.16	2301.92
1022.31	2291.68
1022.47	2424.80
1022.63	2330.59
1022.79	2209.76
1022.94	2240.48
1023.10	2344.92
1023.26	2287.58
1023.41	2269.15
1023.57	2191.33
1023.73	2236.38
1023.88	2265.05
1024.04	2154.46
1024.20	2156.51
1024.35	2213.85
1024.51	2314.20
1024.67	2224.09
1024.82	2254.81
1024.98	2277.34
1025.14	2324.44
1025.29	2172.89
1025.45	2314.20
1025.61	2228.19
1025.76	2215.90
1025.92	2230.24
1026.08	2246.62
1026.23	2205.66
1026.39	2230.24
1026.55	2166.75
1026.70	2093.02
1026.86	2224.09
1027.02	2250.72
1027.17	2164.70
1027.33	2246.62
1027.48	2164.70
1027.64	2174.94
1027.80	2074.59
1027.95	2211.81
1028.11	2017.25
1028.27	2187.23
1028.42	2226.14
1028.58	2129.89
1028.73	2060.26
1028.89	2150.37
1029.05	2205.66
1029.20	2168.80
>>>>>End Processed Spectral Data<<<<<
