SpectraSuite Data File
++++++++++++++++++++++++++++++++++++
Date: Fri Jun 02 14:52:25 CEST 2017
User: INFO_000
Dark Spectrum Present: No
Reference Spectrum Present: No
Number of Sampled Component Spectra: 1
Spectrometers: USB4H00879
Integration Time (usec): 80000 (USB4H00879)
Spectra Averaged: 1 (USB4H00879)
Boxcar Smoothing: 0 (USB4H00879)
Correct for Electrical Dark: No (USB4H00879)
Strobe/Lamp Enabled: No (USB4H00879)
Correct for Detector Non-linearity: No (USB4H00879)
Correct for Stray Light: No (USB4H00879)
Number of Pixels in Processed Spectrum: 3648
>>>>>Begin Processed Spectral Data<<<<<
345.13	1273.84
345.34	1273.84
345.56	1273.84
345.78	1249.26
345.99	1218.54
346.21	1742.82
346.42	1699.81
346.64	1630.18
346.86	1820.64
347.07	1740.77
347.29	1673.19
347.50	1679.33
347.72	1710.05
347.94	1738.73
348.15	1583.08
348.37	1535.98
348.59	1650.66
348.80	1660.90
349.02	1822.69
349.23	1873.89
349.45	1783.78
349.67	1863.65
349.88	1847.27
350.10	1994.72
350.31	1884.13
350.53	1841.12
350.75	1945.57
350.96	1869.80
351.18	1837.03
351.39	1951.71
351.61	1775.59
351.82	1890.28
352.04	1916.90
352.26	1875.94
352.47	1900.52
352.69	1863.65
352.90	1794.02
353.12	1875.94
353.34	1894.37
353.55	1880.04
353.77	1877.99
353.98	1845.22
354.20	1867.75
354.41	1892.32
354.63	1982.43
354.85	2041.82
355.06	1916.90
355.28	1810.40
355.49	1953.76
355.71	1865.70
355.92	1888.23
356.14	1910.75
356.35	1890.28
356.57	1841.12
356.79	1865.70
357.00	1886.18
357.22	1929.19
357.43	1902.56
357.65	2011.11
357.86	1898.47
358.08	1894.37
358.29	1937.38
358.51	1941.47
358.72	2027.49
358.94	1943.52
359.16	1916.90
359.37	1923.04
359.59	1945.57
359.80	1990.63
360.02	1941.47
360.23	1976.29
360.45	2037.73
360.66	1929.19
360.88	1892.32
361.09	1914.85
361.31	2041.82
361.52	2019.30
361.74	2052.06
361.95	2074.59
362.17	1964.00
362.38	2072.54
362.60	1986.53
362.81	1988.58
363.03	2029.54
363.24	2031.58
363.46	1996.77
363.67	1943.52
363.89	1974.24
364.10	1949.67
364.32	1982.43
364.53	2029.54
364.75	1949.67
364.96	2002.91
365.18	2035.68
365.39	1986.53
365.61	1964.00
365.82	2172.89
366.04	2058.21
366.25	2023.39
366.47	2062.30
366.68	2033.63
366.90	2000.87
367.11	2041.82
367.33	2058.21
367.54	2037.73
367.76	2035.68
367.97	2123.74
368.19	2052.06
368.40	2125.79
368.62	2039.78
368.83	2021.35
369.05	2058.21
369.26	1906.66
369.48	1986.53
369.69	2025.44
369.91	2035.68
370.12	2004.96
370.33	2058.21
370.55	2013.15
370.76	2050.02
370.98	2101.22
371.19	2117.60
371.41	2023.39
371.62	2066.40
371.84	2011.11
372.05	2297.82
372.27	2027.49
372.48	2101.22
372.69	2047.97
372.91	2105.31
373.12	2240.48
373.34	2138.08
373.55	2152.42
373.77	2215.90
373.98	2136.03
374.20	2244.57
374.41	2275.29
374.62	2189.28
374.84	2199.52
375.05	2183.13
375.27	2174.94
375.48	2156.51
375.70	2174.94
375.91	2273.25
376.12	2418.65
376.34	2150.37
376.55	2140.13
376.77	2205.66
376.98	2209.76
377.19	2209.76
377.41	2174.94
377.62	2213.85
377.84	2306.01
378.05	2338.78
378.27	2185.18
378.48	2258.91
378.69	2412.51
378.91	2363.36
379.12	2252.77
379.34	2273.25
379.55	2330.59
379.76	2346.97
379.98	2275.29
380.19	2324.44
380.41	2260.96
380.62	2334.68
380.83	2342.88
381.05	2201.57
381.26	2400.22
381.47	2203.61
381.69	2351.07
381.90	2418.65
382.12	2228.19
382.33	2240.48
382.54	2336.73
382.76	2330.59
382.97	2248.67
383.19	2299.87
383.40	2373.60
383.61	2322.40
383.83	2334.68
384.04	2346.97
384.25	2453.47
384.47	2402.27
384.68	2428.89
384.89	2344.92
385.11	2371.55
385.32	2371.55
385.54	2326.49
385.75	2492.38
385.96	2375.64
386.18	2402.27
386.39	2424.80
386.60	2392.03
386.82	2502.62
387.03	2383.84
387.24	2437.08
387.46	2435.03
387.67	2627.54
387.88	2568.15
388.10	2463.71
388.31	2512.86
388.52	2588.63
388.74	2510.81
388.95	2611.16
389.16	2488.28
389.38	2543.58
389.59	2564.06
389.80	2547.67
390.02	2533.34
390.23	2693.08
390.44	2523.10
390.66	2551.77
390.87	2496.47
391.08	2611.16
391.30	2641.88
391.51	2686.94
391.72	2633.69
391.94	2768.85
392.15	2658.26
392.36	2664.41
392.58	2600.92
392.79	2668.50
393.00	2699.22
393.22	2844.63
393.43	2725.85
393.64	2805.72
393.85	2813.91
394.07	2699.22
394.28	2723.80
394.49	2768.85
394.71	2826.20
394.92	2861.01
395.13	2668.50
395.35	2709.46
395.56	2772.95
395.77	2791.38
395.98	2869.20
396.20	2768.85
396.41	2858.96
396.62	2963.41
396.84	2813.91
397.05	2805.72
397.26	2844.63
397.47	2920.40
397.69	2887.64
397.90	3170.26
398.11	2940.88
398.32	2938.84
398.54	2920.40
398.75	2963.41
398.96	2930.64
399.18	3076.05
399.39	3002.32
399.60	3059.67
399.81	2932.69
400.03	3022.80
400.24	3291.09
400.45	2957.27
400.66	3098.58
400.88	3147.73
401.09	3289.04
401.30	3055.57
401.51	3160.02
401.73	3119.06
401.94	3180.50
402.15	3090.38
402.36	3139.54
402.58	3166.16
402.79	3223.50
403.00	3221.45
403.21	3162.06
403.43	3188.69
403.64	3258.32
403.85	3155.92
404.06	3237.84
404.27	3196.88
404.49	3196.88
404.70	3157.97
404.91	3305.42
405.12	3364.81
405.34	3246.03
405.55	3434.44
405.76	3217.36
405.97	3297.23
406.19	3399.63
406.40	3229.65
406.61	3491.79
406.82	3440.59
407.03	3338.19
407.25	3360.72
407.46	3510.22
407.67	3530.70
407.88	3569.61
408.09	3397.58
408.31	3352.52
408.52	3401.68
408.73	3493.83
408.94	3504.07
409.15	3502.03
409.37	3604.42
409.58	3409.87
409.79	3659.72
410.00	3643.34
410.21	3368.91
410.43	3622.86
410.64	3428.30
410.85	3583.95
411.06	3518.41
411.27	3538.89
411.48	3596.23
411.70	3555.27
411.91	3688.39
412.12	3659.72
412.33	3620.81
412.54	3645.38
412.76	3749.83
412.97	3721.16
413.18	3581.90
413.39	3772.36
413.60	3813.32
413.81	3606.47
414.03	3659.72
414.24	3647.43
414.45	3860.42
414.66	3528.65
414.87	3729.35
415.08	3854.28
415.30	3690.44
415.51	3870.66
415.72	3829.70
415.93	3809.22
416.14	3919.81
416.35	3860.42
416.56	3891.14
416.78	3895.24
416.99	3786.69
417.20	3903.43
417.41	3964.87
417.62	4003.78
417.83	3997.64
418.04	3868.61
418.26	3925.96
418.47	4001.73
418.68	4147.14
418.89	4091.84
419.10	4233.15
419.31	4081.60
419.52	4214.72
419.73	4128.70
419.95	4081.60
420.16	4075.46
420.37	4100.03
420.58	4231.10
420.79	4011.97
421.00	4149.18
421.21	4317.12
421.42	4095.94
421.63	4358.08
421.85	4036.55
422.06	4253.63
422.27	4245.44
422.48	4243.39
422.69	4351.93
422.90	4368.32
423.11	4317.12
423.32	4403.13
423.53	4464.57
423.75	4347.84
423.96	4497.34
424.17	4497.34
424.38	4634.55
424.59	4485.05
424.80	4675.51
425.01	4548.54
425.22	4509.63
425.43	4554.68
425.64	4673.46
425.85	4687.80
426.06	4681.66
426.28	4657.08
426.49	4546.49
426.70	4698.04
426.91	4648.89
427.12	4677.56
427.33	4771.77
427.54	4579.26
427.75	4796.34
427.96	4949.94
428.17	4904.89
428.38	4829.11
428.59	5011.38
428.80	4784.06
429.01	4849.59
429.23	4919.22
429.44	5162.93
429.65	5027.76
429.86	5050.29
430.07	4927.41
430.28	5027.76
430.49	5103.54
430.70	5203.89
430.91	5138.35
431.12	5142.45
431.33	5222.32
431.54	5291.95
431.75	5224.37
431.96	5115.83
432.17	5152.69
432.38	5121.97
432.59	5427.12
432.80	5250.99
433.01	5279.66
433.22	5437.36
433.43	5412.78
433.64	5332.91
433.85	5359.53
434.06	5486.51
434.27	5377.97
434.49	5521.32
434.70	5545.90
434.91	5556.14
435.12	5650.35
435.33	5443.50
435.54	5515.18
435.75	5449.64
435.96	5564.33
436.17	5474.22
436.38	5578.67
436.59	5666.73
436.80	5666.73
437.01	5840.81
437.22	5828.52
437.43	5693.35
437.64	5662.63
437.85	5752.74
438.06	5805.99
438.27	5865.38
438.48	5762.98
438.69	5971.88
438.90	5779.37
439.11	5844.90
439.32	6000.55
439.53	5871.53
439.74	5994.40
439.95	6070.18
440.16	5971.88
440.37	5834.66
440.57	5867.43
440.78	5928.87
440.99	5990.31
441.20	6047.65
441.41	5826.47
441.62	6127.52
441.83	5957.54
442.04	6115.23
442.25	6090.66
442.46	5926.82
442.67	6293.41
442.88	6612.89
443.09	6129.57
443.30	6150.05
443.51	6129.57
443.72	6467.49
443.93	6186.91
444.14	6520.73
444.35	6377.37
444.56	6360.99
444.77	6490.01
444.98	6285.22
445.19	6582.17
445.40	6401.95
445.61	6348.70
445.81	6555.55
446.02	6539.16
446.23	6498.20
446.44	6416.29
446.65	6645.66
446.86	6604.70
447.07	6723.48
447.28	6762.39
447.49	6760.34
447.70	6686.62
447.91	6739.87
448.12	6780.82
448.33	6758.30
448.54	6987.67
448.74	6786.97
448.95	6739.87
449.16	6694.81
449.37	7104.40
449.58	6881.18
449.79	7102.36
450.00	6815.64
450.21	7069.59
450.42	7169.94
450.63	7229.33
450.84	6985.62
451.05	6963.09
451.25	7128.98
451.46	7073.68
451.67	7296.91
451.88	7284.62
452.09	7448.46
452.30	7171.99
452.51	7208.85
452.72	7493.52
452.93	7776.14
453.13	7333.78
453.34	7346.06
453.55	7468.94
453.76	7419.79
453.97	7858.06
454.18	7536.52
454.39	7829.38
454.60	7522.19
454.81	7731.08
455.01	7870.34
455.22	7530.38
455.43	7808.90
455.64	8206.21
455.85	8101.76
456.06	8089.48
456.27	7794.57
456.48	7866.25
456.68	8038.28
456.89	8013.70
457.10	8130.44
457.31	8191.88
457.52	8044.42
457.73	8122.24
457.94	8353.66
458.14	8159.11
458.35	8703.87
458.56	8359.81
458.77	8347.52
458.98	8396.67
459.19	8353.66
459.39	8402.82
459.60	8802.17
459.81	8470.40
460.02	8654.72
460.23	8652.67
460.44	8683.39
460.65	8779.64
460.85	9029.49
461.06	8863.61
461.27	8703.87
461.48	9074.55
461.69	9242.48
461.89	8879.99
462.10	9179.00
462.31	9123.70
462.52	9074.55
462.73	8992.63
462.94	9502.58
463.14	9346.93
463.35	9158.52
463.56	9699.18
463.77	9668.46
463.98	9353.07
464.18	9449.33
464.39	9762.67
464.60	9828.20
464.81	9910.12
465.02	9957.22
465.23	10182.50
465.43	9863.02
465.64	10108.77
465.85	10033.00
466.06	10002.28
466.27	10366.82
466.47	10280.80
466.68	10438.50
466.89	10217.32
467.10	10477.41
467.30	10319.71
467.51	10585.95
467.72	10725.21
467.93	10356.58
468.14	10770.27
468.34	10868.57
468.55	10815.32
468.76	10843.99
468.97	10930.01
469.17	10987.35
469.38	10936.15
469.59	11224.92
469.80	11202.39
470.01	11130.71
470.21	11087.70
470.42	11382.61
470.63	11491.15
470.84	11386.71
471.04	11503.44
471.25	11573.07
471.46	11626.32
471.67	11997.00
471.87	11636.56
472.08	11921.23
472.29	12236.61
472.50	11990.86
472.70	11902.79
472.91	12142.41
473.12	12289.86
473.33	12416.83
473.53	12615.49
473.74	12566.34
473.95	12570.43
474.16	12654.40
474.36	12728.13
474.57	12871.48
474.78	13068.09
474.99	12767.04
475.19	12951.35
475.40	13055.80
475.61	13481.78
475.81	13297.46
476.02	13612.85
476.23	13463.35
476.44	13356.85
476.64	13848.36
476.85	13793.07
477.06	13758.25
477.27	14135.08
477.47	14100.26
477.68	14145.32
477.89	14526.24
478.09	14274.34
478.30	14276.39
478.51	14352.16
478.71	14659.36
478.92	14669.60
479.13	14624.54
479.34	14964.51
479.54	14798.62
479.75	14855.97
479.96	14796.57
480.16	15169.30
480.37	15075.10
480.58	15210.26
480.78	15410.96
480.99	15642.39
481.20	15599.38
481.41	15718.16
481.61	15742.74
481.82	15972.11
482.03	15759.12
482.23	15832.85
482.44	16297.74
482.65	16338.69
482.85	16363.27
483.06	16178.95
483.27	16406.28
483.47	16262.92
483.68	16760.58
483.89	16842.50
484.09	16756.48
484.30	16852.73
484.51	17172.22
484.71	17221.37
484.92	17331.96
485.13	17268.47
485.33	17452.79
485.54	17510.13
485.75	17913.58
485.95	17647.35
486.16	17739.51
486.37	17798.90
486.57	17698.55
486.78	17905.39
486.98	18102.00
487.19	18122.48
487.40	18374.38
487.60	18206.44
487.81	18364.14
488.02	18368.23
488.22	18456.29
488.43	18767.59
488.64	18812.64
488.84	18921.18
489.05	18976.48
489.25	18788.07
489.46	19255.00
489.67	19191.52
489.87	19508.95
490.08	19463.90
490.29	19298.01
490.49	19494.61
490.70	19695.32
490.90	19957.46
491.11	19693.27
491.32	20084.43
491.52	19838.67
491.73	20047.57
491.94	20018.89
492.14	20111.05
492.35	20565.70
492.55	20485.83
492.76	20793.03
492.97	20635.33
493.17	20598.47
493.38	20893.38
493.58	20876.99
493.79	21042.88
494.00	21188.28
494.20	20856.51
494.41	21296.83
494.61	21323.45
494.82	21563.06
495.02	21378.75
495.23	21743.28
495.44	21538.49
495.64	21853.87
495.85	21835.44
496.05	22085.30
496.26	21778.10
496.47	21896.88
496.67	22009.52
496.88	22398.63
497.08	22103.73
497.29	22240.94
497.49	22277.80
497.70	22341.29
497.91	22595.24
498.11	22859.43
498.32	22726.31
498.52	22863.52
498.73	22802.08
498.93	23082.66
499.14	23119.52
499.34	23273.12
499.55	23461.53
499.76	23260.83
499.96	23408.28
500.17	23578.26
500.37	23715.48
500.58	23475.87
500.78	23731.86
500.99	23643.80
501.19	24000.15
501.40	24151.70
501.60	23676.57
501.81	23834.26
502.02	24153.74
502.22	23926.42
502.43	24174.22
502.63	24053.39
502.84	24510.09
503.04	24270.48
503.25	24499.85
503.45	24317.58
503.66	24755.85
503.86	24632.97
504.07	25030.27
504.27	24540.81
504.48	24931.97
504.68	24917.64
504.89	25253.50
505.09	25210.50
505.30	24907.40
505.50	25278.08
505.71	25384.57
505.91	25720.44
506.12	25425.53
506.32	25335.42
506.53	25624.18
506.73	25550.46
506.94	25783.93
507.14	25663.10
507.35	25704.06
507.55	26003.06
507.76	26261.10
507.96	25769.59
508.17	26064.50
508.37	26275.44
508.58	26330.73
508.78	26201.71
508.99	26418.80
509.19	26523.24
509.40	26523.24
509.60	26519.15
509.81	26695.27
510.01	26699.37
510.22	26728.04
510.42	26519.15
510.63	26926.69
510.83	26787.43
511.04	26967.65
511.24	27037.28
511.44	26844.77
511.65	27262.56
511.85	27051.62
512.06	27190.88
512.26	27457.12
512.47	27651.67
512.67	27283.04
512.88	27610.71
513.08	27186.79
513.29	27393.63
513.49	27493.98
513.69	27686.49
513.90	27938.39
514.10	27815.51
514.31	28065.36
514.51	28059.22
514.72	27799.13
514.92	28321.36
515.13	28171.86
515.33	28321.36
515.53	28087.89
515.74	28534.35
515.94	28431.95
516.15	28563.02
516.35	28698.19
516.56	28921.41
516.76	28509.77
516.96	28896.84
517.17	28599.88
517.37	28644.94
517.58	28948.04
517.78	29249.09
517.99	29087.30
518.19	29417.02
518.39	29353.54
518.60	29154.88
518.80	29189.70
519.01	29566.52
519.21	29519.42
519.41	29333.06
519.62	29785.66
519.82	29507.13
520.03	30111.28
520.23	29980.21
520.43	30019.13
520.64	30203.44
520.84	30131.76
521.05	30268.98
521.25	30258.74
521.45	30232.11
521.66	30682.67
521.86	30199.35
522.07	30729.77
522.27	30471.73
522.47	30512.69
522.68	30711.34
522.88	30684.72
523.08	31170.08
523.29	30643.76
523.49	30985.77
523.70	30891.56
523.90	31190.56
524.10	31546.91
524.31	31424.03
524.51	30967.34
524.71	31680.03
524.92	31757.85
525.12	31780.38
525.33	31694.36
525.53	31907.35
525.73	32292.37
525.94	32298.52
526.14	32108.05
526.34	32306.71
526.55	32654.86
526.75	32433.68
526.95	32708.11
527.16	32486.93
527.36	32603.66
527.56	32652.81
527.77	33062.41
527.97	33093.13
528.17	33179.14
528.38	33148.42
528.58	33078.79
528.78	33766.91
528.99	33388.03
529.19	33637.89
529.39	33508.86
529.60	33713.66
529.80	33336.84
530.00	33842.68
530.21	33678.85
530.41	34117.11
530.61	33936.89
530.82	34211.32
531.02	34108.92
531.22	34323.96
531.43	34551.28
531.63	34436.59
531.83	34778.61
532.04	34997.74
532.24	34465.27
532.44	35276.26
532.64	35235.30
532.85	34817.52
533.05	35243.49
533.25	35382.76
533.46	35206.63
533.66	35620.32
533.86	35231.21
534.07	35988.95
534.27	35845.60
534.47	36275.67
534.67	36173.27
534.88	36111.83
535.08	36056.54
535.28	36083.16
535.49	36279.77
535.69	36570.58
535.89	36728.27
536.09	36769.23
536.30	36910.54
536.50	36838.86
536.70	37215.69
536.91	36812.24
537.11	36756.94
537.31	37088.71
537.51	37133.77
537.72	37514.69
537.92	37266.89
538.12	37842.37
538.32	37780.93
538.53	37926.33
538.73	37440.96
538.93	37490.12
539.13	37692.86
539.34	37580.23
539.54	37862.85
539.74	38299.06
539.94	38104.51
540.15	38245.82
540.35	38458.81
540.55	38208.95
540.75	38288.82
540.96	38518.20
541.16	38659.51
541.36	38831.54
541.56	38718.90
541.77	38813.10
541.97	38624.69
542.17	38993.32
542.37	38761.90
542.58	38751.66
542.78	39189.93
542.98	39040.43
543.18	39392.68
543.38	39720.35
543.59	39548.32
543.79	39382.44
543.99	39316.90
544.19	39523.75
544.40	39568.80
544.60	39753.12
544.80	39548.32
545.00	39755.17
545.20	39916.96
545.41	40033.69
545.61	39886.24
545.81	40160.67
546.01	40453.53
546.21	40091.04
546.42	39818.66
546.62	40189.34
546.82	40009.12
547.02	40039.84
547.22	40281.50
547.43	40408.47
547.63	40605.08
547.83	40392.09
548.03	40168.86
548.23	40568.21
548.44	40625.56
548.64	41020.81
548.84	40848.78
549.04	40842.64
549.24	41067.92
549.45	41069.97
549.65	40775.06
549.85	41065.87
550.05	41385.35
550.25	41037.20
550.45	41911.68
550.66	41131.40
550.86	41162.12
551.06	41467.27
551.26	41252.23
551.46	41289.10
551.66	41258.38
551.87	41479.56
552.07	41549.19
552.27	41799.04
552.47	41768.32
552.67	41461.13
552.87	41375.11
553.07	42001.79
553.28	41825.67
553.48	42225.02
553.68	41915.78
553.88	42329.47
554.08	42300.79
554.28	41950.59
554.48	42132.86
554.69	41674.12
554.89	42194.30
555.09	42153.34
555.29	42046.85
555.49	42265.98
555.69	42325.37
555.89	42325.37
556.10	42714.48
556.30	42225.02
556.50	42581.37
556.70	42413.43
556.90	43027.82
557.10	42616.18
557.30	42399.10
557.50	42829.17
557.70	42777.97
557.91	42931.57
558.11	42540.41
558.31	42861.94
558.51	42646.90
558.71	43013.49
558.91	42913.14
559.11	43062.64
559.31	42964.34
559.51	42710.39
559.72	43324.78
559.92	42923.38
560.12	42870.13
560.32	43359.59
560.52	43150.70
560.72	43179.37
560.92	43502.95
561.12	43177.33
561.32	43611.49
561.52	43087.21
561.72	43642.21
561.93	43218.28
562.13	43255.15
562.33	43042.16
562.53	43658.60
562.73	43396.46
562.93	43806.05
563.13	43677.03
563.33	43183.47
563.53	43568.49
563.73	43390.31
563.93	43826.53
564.13	43871.59
564.33	43801.96
564.53	43443.56
564.74	44186.97
564.94	43992.42
565.14	44047.71
565.34	43838.82
565.54	43914.59
565.74	44193.12
565.94	44475.74
566.14	44268.89
566.34	43990.37
566.54	44229.98
566.74	43980.13
566.94	44229.98
567.14	44103.01
567.34	43965.79
567.54	44520.79
567.74	44103.01
567.94	44252.51
568.14	44645.72
568.34	44242.27
568.54	44643.67
568.74	44516.70
568.94	44594.52
569.14	44895.57
569.34	45124.94
569.54	45055.31
569.75	44502.36
569.95	44639.57
570.15	44729.69
570.35	44817.75
570.55	44789.08
570.75	44719.45
570.95	44719.45
571.15	45135.18
571.35	45069.65
571.55	45464.91
571.75	44893.52
571.95	45407.56
572.15	45317.45
572.35	45397.32
572.55	45520.20
572.75	45450.57
572.95	45782.34
573.15	45690.18
573.35	45618.50
573.55	44858.71
573.75	45241.68
573.95	45722.95
574.15	45755.72
574.35	45561.16
574.55	45661.51
574.75	45628.74
574.95	46163.26
575.15	45335.88
575.34	45626.70
575.54	45888.84
575.74	45897.03
575.94	46064.96
576.14	46298.43
576.34	46191.94
576.54	46396.73
576.74	46474.55
576.94	46259.52
577.14	46505.27
577.34	46951.73
577.54	46572.86
577.74	46656.82
577.94	46863.67
578.14	46943.54
578.34	47371.57
578.54	46470.46
578.74	46914.87
578.94	47306.03
579.14	46814.52
579.34	46851.38
579.54	47289.65
579.74	47244.59
579.94	47299.89
580.13	47375.66
580.33	47725.86
580.53	47480.11
580.73	47279.41
580.93	47609.13
581.13	47899.94
581.33	47572.27
581.53	47592.75
581.73	48393.50
581.93	48444.70
582.13	48004.39
582.33	48198.94
582.53	47705.38
582.73	48362.78
582.92	48258.34
583.12	48543.00
583.32	48178.46
583.52	48121.12
583.72	48391.45
583.92	48551.20
584.12	48528.67
584.32	48899.35
584.52	48649.50
584.72	48971.03
584.92	48547.10
585.11	49116.43
585.31	49177.87
585.51	49265.94
585.71	48807.19
585.91	49317.14
586.11	49065.24
586.31	48739.61
586.51	49081.62
586.71	49157.39
586.91	49757.45
587.10	49868.04
587.30	49333.52
587.50	49444.11
587.70	49444.11
587.90	49519.88
588.10	49784.07
588.30	49825.03
588.50	49853.70
588.69	49790.22
588.89	49587.47
589.09	50085.12
589.29	49771.78
589.49	50308.35
589.69	50285.82
589.89	50394.37
590.08	50449.66
590.28	49999.11
590.48	49966.34
590.68	50197.76
590.88	50253.06
591.08	50300.16
591.28	50369.79
591.47	50900.22
591.67	50627.84
591.87	50978.04
592.07	50597.12
592.27	50699.51
592.47	50781.43
592.67	50599.16
592.86	50658.56
593.06	50719.99
593.26	51166.45
593.46	51377.39
593.66	51154.16
593.86	51373.30
594.05	51033.33
594.25	51608.81
594.45	51608.81
594.65	51078.39
594.85	50793.72
595.05	51485.93
595.24	51807.47
595.44	51373.30
595.64	51158.26
595.84	51557.61
596.04	51510.51
596.23	51893.48
596.43	52057.32
596.63	51733.74
596.83	51801.32
597.03	52235.49
597.22	52294.88
597.42	52364.51
597.62	52454.62
597.82	52516.06
598.02	52436.19
598.21	52571.36
598.41	52045.03
598.61	52780.25
598.81	52321.51
599.01	52417.76
599.20	52845.79
599.40	52645.08
599.60	53155.03
599.80	52952.28
600.00	53079.25
600.19	53105.88
600.39	52765.91
600.59	53210.32
600.79	53241.04
600.98	52722.91
601.18	53572.81
601.38	53337.30
601.58	53433.55
601.78	53372.11
601.97	53771.47
602.17	54144.20
602.37	53644.49
602.57	53892.30
602.76	54021.32
602.96	53603.53
603.16	54148.29
603.36	53933.26
603.55	54148.29
603.75	54025.42
603.95	54074.57
604.15	54625.47
604.34	54289.60
604.54	54588.61
604.74	54863.03
604.94	54584.51
605.13	54826.17
605.33	54314.18
605.53	54574.27
605.73	54518.98
605.92	54723.77
606.12	54899.90
606.32	54834.36
606.52	54699.20
606.71	55018.68
606.91	55313.59
607.11	55252.15
607.30	54682.81
607.50	55438.51
607.70	55243.96
607.90	55545.01
608.09	55278.77
608.29	55284.92
608.49	55084.22
608.68	55655.60
608.88	55772.33
609.08	55071.93
609.28	55678.13
609.47	55514.29
609.67	55893.16
609.87	55811.24
610.06	55778.48
610.26	55706.80
610.46	55674.03
610.66	55895.21
610.85	55481.52
611.05	55893.16
611.25	56079.53
611.44	55631.02
611.64	56073.38
611.84	55624.88
612.03	55686.32
612.23	56417.44
612.43	56253.61
612.62	55647.41
612.82	56143.02
613.02	55788.72
613.21	56136.87
613.41	56202.41
613.61	56288.42
613.80	56022.19
614.00	55905.45
614.20	56005.80
614.39	55860.40
614.59	56673.44
614.79	56087.72
614.98	56368.29
615.18	56222.89
615.38	55731.37
615.57	55940.27
615.77	56540.32
615.97	56005.80
616.16	55649.45
616.36	55934.12
616.56	56435.87
616.75	56171.69
616.95	55950.51
617.15	56018.09
617.34	56245.41
617.54	56550.56
617.74	56620.19
617.93	56568.99
618.13	56061.10
618.32	56306.85
618.52	56218.79
618.72	56284.33
618.91	56390.82
619.11	55893.16
619.31	56278.18
619.50	56226.98
619.70	56042.66
619.90	55932.07
620.09	56362.15
620.29	56104.10
620.48	56165.54
620.68	56638.62
620.88	55919.79
621.07	56335.52
621.27	56550.56
621.46	55960.75
621.66	56173.73
621.86	56157.35
622.05	56175.78
622.25	56315.04
622.44	56366.24
622.64	56124.58
622.84	55997.61
623.03	56390.82
623.23	56351.91
623.42	56077.48
623.62	56100.01
623.82	56241.32
624.01	56163.50
624.21	56636.58
624.40	55993.51
624.60	56431.78
624.80	56149.16
624.99	55780.52
625.19	55424.18
625.38	56296.61
625.58	56491.17
625.77	55950.51
625.97	56333.48
626.17	56132.78
626.36	56179.88
626.56	56243.37
626.75	55481.52
626.95	56329.38
627.14	55897.26
627.34	56384.68
627.54	56337.57
627.73	56183.97
627.93	55944.36
628.12	55755.95
628.32	55723.18
628.51	56194.21
628.71	56259.75
628.90	56057.00
629.10	56116.39
629.30	55749.81
629.49	55925.93
629.69	56435.87
629.88	55977.13
630.08	56388.77
630.27	56208.55
630.47	56177.83
630.66	56028.33
630.86	56013.99
631.05	55841.96
631.25	56767.65
631.44	56030.38
631.64	55549.10
631.84	56128.68
632.03	56384.68
632.23	55985.32
632.42	56413.35
632.62	56202.41
632.81	55989.42
633.01	56079.53
633.20	56276.13
633.40	56403.11
633.59	56157.35
633.79	55944.36
633.98	56470.69
634.18	55901.36
634.37	56249.51
634.57	56009.90
634.76	56339.62
634.96	55866.54
635.15	56523.94
635.35	56102.06
635.54	56042.66
635.74	56452.26
635.93	55891.12
636.13	56599.71
636.32	56040.62
636.52	56226.98
636.71	56073.38
636.91	56427.68
637.10	56548.51
637.30	56202.41
637.49	56116.39
637.69	56186.02
637.88	56222.89
638.08	55475.38
638.27	56431.78
638.46	56104.10
638.66	55811.24
638.85	56005.80
639.05	55813.29
639.24	56540.32
639.44	55833.77
639.63	56304.80
639.83	56421.54
640.02	56032.42
640.22	55678.13
640.41	56585.38
640.61	55774.38
640.80	56235.17
640.99	55975.08
641.19	56372.39
641.38	56016.04
641.58	55934.12
641.77	55989.42
641.97	56235.17
642.16	56079.53
642.36	56411.30
642.55	56095.91
642.74	55966.89
642.94	56794.27
643.13	56153.26
643.33	56800.41
643.52	56745.12
643.72	56202.41
643.91	56396.96
644.10	56243.37
644.30	56306.85
644.49	56616.10
644.69	56132.78
644.88	56095.91
645.08	56288.42
645.27	56132.78
645.46	56016.04
645.66	56546.47
645.85	55987.37
646.05	56571.04
646.24	56269.99
646.43	56456.35
646.63	56571.04
646.82	56636.58
647.02	56022.19
647.21	56495.27
647.40	56413.35
647.60	56976.54
647.79	56485.03
647.99	56902.81
648.18	56468.64
648.37	57005.21
648.57	56394.92
648.76	56104.10
648.96	56616.10
649.15	56489.12
649.34	56566.94
649.54	56728.73
649.73	56325.28
649.92	56734.88
650.12	56732.83
650.31	56601.76
650.51	56685.73
650.70	57244.82
650.89	56439.97
651.09	57128.09
651.28	57033.88
651.47	56698.01
651.67	56505.51
651.86	57029.79
652.06	55995.56
652.25	56728.73
652.44	56370.34
652.64	56595.62
652.83	56423.59
653.02	56278.18
653.22	56685.73
653.41	56259.75
653.60	56829.08
653.80	56599.71
653.99	57078.94
654.18	56452.26
654.38	56702.11
654.57	56564.90
654.76	56536.23
654.96	56634.53
655.15	56710.30
655.34	56448.16
655.54	56186.02
655.73	56515.75
655.92	56702.11
656.12	56593.57
656.31	56415.40
656.50	56530.08
656.70	56820.89
656.89	56837.28
657.08	56882.33
657.28	56489.12
657.47	56941.72
657.66	56612.00
657.86	56472.74
658.05	56784.03
658.24	56317.09
658.43	56224.93
658.63	56655.01
658.82	57107.61
659.01	57033.88
659.21	56878.24
659.40	56702.11
659.59	56280.23
659.79	56902.81
659.98	56933.53
660.17	57072.79
660.36	56663.20
660.56	56913.05
660.75	56779.93
660.94	56640.67
661.14	56917.15
661.33	56886.43
661.52	56411.30
661.71	56997.02
661.91	56849.56
662.10	56331.43
662.29	56444.07
662.49	56771.74
662.68	56589.47
662.87	57005.21
663.06	56751.26
663.26	56186.02
663.45	57046.17
663.64	56503.46
663.83	57558.16
664.03	56808.61
664.22	56845.47
664.41	57070.75
664.60	56698.01
664.80	56943.77
664.99	56628.38
665.18	56681.63
665.37	57066.65
665.57	57152.66
665.76	56439.97
665.95	56847.52
666.14	56302.76
666.34	57056.41
666.53	56685.73
666.72	56759.45
666.91	56513.70
667.11	56599.71
667.30	56896.67
667.49	56583.33
667.68	56347.81
667.87	56882.33
668.07	56657.06
668.26	57021.59
668.45	56595.62
668.64	56431.78
668.84	57445.52
669.03	56882.33
669.22	56566.94
669.41	57074.84
669.60	56818.84
669.80	56564.90
669.99	57244.82
670.18	56560.80
670.37	56726.69
670.57	56784.03
670.76	56597.66
670.95	57027.74
671.14	56921.24
671.33	56554.66
671.53	56788.13
671.72	57005.21
671.91	56808.61
672.10	56405.16
672.29	56872.09
672.48	56704.16
672.68	56951.96
672.87	56698.01
673.06	56681.63
673.25	56390.82
673.44	56525.99
673.64	56534.18
673.83	56296.61
674.02	56515.75
674.21	56210.60
674.40	56609.95
674.59	56339.62
674.79	56200.36
674.98	56288.42
675.17	56894.62
675.36	56462.50
675.55	56513.70
675.74	56415.40
675.94	56493.22
676.13	56886.43
676.32	56861.85
676.51	56898.72
676.70	56470.69
676.89	56677.54
677.08	56943.77
677.28	56224.93
677.47	56878.24
677.66	56730.78
677.85	56470.69
678.04	56749.21
678.23	56767.65
678.42	56775.84
678.62	56155.30
678.81	56870.04
679.00	56988.83
679.19	56927.39
679.38	56534.18
679.57	56241.32
679.76	56595.62
679.96	56743.07
680.15	56708.25
680.34	56356.00
680.53	56296.61
680.72	56861.85
680.91	56984.73
681.10	56562.85
681.29	56822.94
681.48	56431.78
681.68	56423.59
681.87	56186.02
682.06	56505.51
682.25	56136.87
682.44	56249.51
682.63	56339.62
682.82	56022.19
683.01	56509.60
683.20	56063.14
683.39	56499.36
683.59	56126.63
683.78	56198.31
683.97	55829.68
684.16	56151.21
684.35	55776.43
684.54	55796.91
684.73	56337.57
684.92	56333.48
685.11	56415.40
685.30	55688.37
685.49	56282.28
685.69	55776.43
685.88	56491.17
686.07	56020.14
686.26	56147.11
686.45	56523.94
686.64	55917.74
686.83	56112.30
687.02	56216.74
687.21	56384.68
687.40	55911.59
687.59	56093.86
687.78	56325.28
687.97	56360.10
688.16	55676.08
688.35	56063.14
688.54	55925.93
688.74	56085.67
688.93	55956.65
689.12	55958.70
689.31	55889.07
689.50	55839.92
689.69	55680.17
689.88	55592.11
690.07	55954.60
690.26	55528.62
690.45	56173.73
690.64	55893.16
690.83	55770.28
691.02	55405.75
691.21	55063.74
691.40	55495.86
691.59	55545.01
691.78	55370.93
691.97	55663.79
692.16	55301.30
692.35	55790.76
692.54	55626.93
692.73	55735.47
692.92	55379.12
693.11	55725.23
693.30	55477.43
693.49	55813.29
693.68	55428.27
693.87	55479.47
694.06	55164.09
694.25	55540.91
694.44	55397.55
694.63	55602.35
694.82	55970.99
695.01	55375.03
695.20	55569.58
695.39	55360.69
695.58	55397.55
695.77	55440.56
695.96	55301.30
696.15	55184.57
696.34	55475.38
696.53	55026.87
696.72	55532.72
696.91	55420.08
697.10	55332.02
697.29	54983.86
697.48	55370.93
697.67	55043.26
697.86	55084.22
698.05	55000.25
698.24	55174.33
698.43	55229.62
698.62	55090.36
698.81	54559.94
699.00	55702.70
699.19	55155.89
699.38	55168.18
699.57	54686.91
699.76	55864.49
699.95	54879.42
700.14	55196.85
700.32	55088.31
700.51	54643.90
700.70	55162.04
700.89	55233.72
701.08	55008.44
701.27	55039.16
701.46	55127.22
701.65	54518.98
701.84	54916.28
702.03	54842.56
702.22	54478.02
702.41	54787.26
702.60	54736.06
702.79	54174.92
702.98	54598.85
703.17	54318.28
703.35	54238.40
703.54	54527.17
703.73	55022.78
703.92	54734.01
704.11	54056.14
704.30	54127.81
704.49	54641.85
704.68	53984.46
704.87	54004.94
705.06	54217.92
705.25	54469.82
705.43	54424.77
705.62	54889.66
705.81	54113.48
706.00	53970.12
706.19	54205.64
706.38	54252.74
706.57	54303.94
706.76	53990.60
706.95	54224.07
707.14	53607.63
707.32	54093.00
707.51	54031.56
707.70	54293.70
707.89	54310.08
708.08	53732.56
708.27	54039.75
708.46	54283.46
708.65	53828.81
708.84	54086.85
709.02	54111.43
709.21	53515.47
709.40	53904.59
709.59	54183.11
709.78	53720.27
709.97	53925.07
710.16	53343.44
710.34	53718.22
710.53	53644.49
710.72	53277.91
710.91	53695.69
711.10	53750.99
711.29	53740.75
711.48	53509.33
711.66	53304.53
711.85	53419.22
712.04	53978.31
712.23	53329.11
712.42	53236.95
712.61	53384.40
712.80	53720.27
712.98	53773.52
713.17	53114.07
713.36	53179.60
713.55	53329.11
713.74	53050.58
713.93	53077.21
714.11	53228.76
714.30	53089.49
714.49	53089.49
714.68	52913.37
714.87	53040.34
715.06	53089.49
715.24	53093.59
715.43	53343.44
715.62	52602.08
715.81	53064.92
716.00	52866.27
716.18	52880.60
716.37	52313.31
716.56	52419.81
716.75	52843.74
716.94	52741.34
717.12	52772.06
717.31	52776.15
717.50	52761.82
717.69	52530.40
717.88	52315.36
718.06	52593.89
718.25	53017.82
718.44	52096.23
718.63	52565.21
718.82	51946.73
719.00	52507.87
719.19	52053.22
719.38	52358.37
719.57	51877.10
719.76	51504.37
719.94	51793.13
720.13	51735.79
720.32	52075.75
720.51	52057.32
720.69	51492.08
720.88	51746.03
721.07	51621.10
721.26	51242.23
721.44	51045.62
721.63	51244.27
721.82	50803.96
722.01	51670.25
722.20	51490.03
722.38	51242.23
722.57	50828.54
722.76	50984.18
722.95	51432.69
723.13	50484.48
723.32	50840.82
723.51	50713.85
723.70	50337.02
723.88	50928.89
724.07	51012.85
724.26	51078.39
724.44	49786.12
724.63	50961.65
724.82	50500.86
725.01	50763.00
725.19	50681.08
725.38	50599.16
725.57	50271.49
725.76	50140.42
725.94	50369.79
726.13	50400.51
726.32	50115.84
726.51	49870.09
726.69	50695.42
726.88	50296.06
727.07	50089.22
727.25	50177.28
727.44	50298.11
727.63	50091.27
727.82	50410.75
728.00	50013.44
728.19	49851.66
728.38	50167.04
728.56	50124.04
728.75	50355.46
728.94	49849.61
729.12	50248.96
729.31	49892.61
729.50	49958.15
729.69	50205.95
729.87	50035.97
730.06	50169.09
730.25	50359.55
730.43	50373.89
730.62	49978.63
730.81	50595.07
730.99	50181.38
731.18	49667.34
731.37	50189.57
731.55	50251.01
731.74	50334.98
731.93	49941.77
732.11	50218.24
732.30	50068.74
732.49	49765.64
732.67	49890.57
732.86	49775.88
733.05	49917.19
733.23	49657.10
733.42	49931.53
733.61	49732.87
733.79	49642.76
733.98	50158.85
734.17	50126.08
734.35	49779.98
734.54	49726.73
734.73	49698.06
734.91	49775.88
735.10	49743.11
735.29	49935.62
735.47	49480.97
735.66	49526.03
735.84	49462.54
736.03	49495.31
736.22	50103.56
736.40	49429.77
736.59	49603.85
736.78	49454.35
736.96	49411.34
737.15	49022.23
737.33	49263.89
737.52	49315.09
737.71	49071.38
737.89	48923.93
738.08	49122.58
738.27	49124.63
738.45	49653.00
738.64	49038.61
738.82	49192.21
739.01	49388.81
739.20	48819.48
739.38	49069.33
739.57	49083.67
739.75	49091.86
739.94	48852.25
740.13	48971.03
740.31	48772.38
740.50	49132.82
740.68	48762.14
740.87	49130.77
741.06	49259.79
741.24	48704.79
741.43	48577.82
741.61	48780.57
741.80	48422.17
741.99	48575.77
742.17	48882.97
742.36	48831.77
742.54	48289.06
742.73	48330.01
742.91	48520.48
743.10	48575.77
743.29	48831.77
743.47	48432.41
743.66	48459.04
743.84	48704.79
744.03	48350.49
744.21	48452.89
744.40	48416.03
744.59	48399.65
744.77	48141.60
744.96	48014.63
745.14	48557.34
745.33	48387.36
745.51	48117.03
745.70	48137.51
745.88	47879.46
746.07	47998.24
746.26	47789.35
746.44	48121.12
746.63	47627.56
746.81	47815.97
747.00	47390.00
747.18	47521.07
747.37	47713.58
747.55	47621.42
747.74	48186.66
747.92	47582.51
748.11	47385.90
748.29	47492.40
748.48	47570.22
748.66	47559.98
748.85	47439.15
749.03	47605.03
749.22	47009.07
749.41	47224.11
749.59	47621.42
749.78	47052.08
749.96	46996.79
750.15	46957.88
750.33	47039.79
750.52	46921.01
750.70	47134.00
750.89	46284.09
751.07	46599.48
751.26	46646.58
751.44	46677.30
751.63	47060.27
751.81	47009.07
752.00	46392.64
752.18	46832.95
752.37	46566.71
752.55	46116.16
752.74	46609.72
752.92	45964.61
753.10	45993.28
753.29	46517.56
753.47	46454.08
753.66	46433.60
753.84	46763.32
754.03	46146.88
754.21	46058.82
754.40	46327.10
754.58	46261.57
754.77	46060.87
754.95	45800.77
755.14	46021.95
755.32	45772.10
755.51	45512.01
755.69	46007.62
755.88	45888.84
756.06	46105.92
756.24	45538.63
756.43	45450.57
756.61	45466.95
756.80	45397.32
756.98	45206.86
757.17	45862.21
757.35	45352.27
757.54	45446.47
757.72	45755.72
757.90	45413.71
758.09	44889.43
758.27	45385.04
758.46	45010.26
758.64	45337.93
758.83	44971.35
759.01	45229.39
759.19	45458.76
759.38	45276.49
759.56	45126.99
759.75	45151.57
759.93	45552.97
760.12	45077.84
760.30	45419.85
760.48	44412.25
760.67	44623.19
760.85	44854.61
761.04	45143.38
761.22	44672.34
761.40	44547.42
761.59	44805.46
761.77	44356.96
761.96	44289.37
762.14	44731.73
762.32	44176.73
762.51	44283.23
762.69	44240.22
762.88	44160.35
763.06	44430.68
763.24	44293.47
763.43	44301.66
763.61	43849.06
763.80	44135.77
763.98	43896.16
764.16	44193.12
764.35	43851.11
764.53	43865.44
764.72	43660.65
764.90	43648.36
765.08	43722.08
765.27	43474.28
765.45	43863.39
765.63	43398.51
765.82	43642.21
766.00	43476.33
766.18	43410.79
766.37	43717.99
766.55	43310.44
766.74	43341.16
766.92	43187.56
767.10	42970.48
767.29	43033.97
767.47	42896.75
767.65	43314.54
767.84	42399.10
768.02	43150.70
768.20	42835.31
768.39	42947.95
768.57	42562.93
768.75	42675.57
768.94	42980.72
769.12	43105.65
769.30	42521.98
769.49	42251.64
769.67	42052.99
769.85	41971.07
770.04	42540.41
770.22	42024.32
770.40	42098.05
770.59	42083.71
770.77	42294.65
770.95	41866.63
771.14	41477.51
771.32	41526.66
771.50	41309.58
771.69	41567.62
771.87	41827.71
772.05	41629.06
772.24	41289.10
772.42	41670.02
772.60	41665.92
772.78	41524.61
772.97	41178.51
773.15	41559.43
773.33	41100.68
773.52	41143.69
773.70	41256.33
773.88	41399.69
774.07	41026.96
774.25	41510.28
774.43	41352.58
774.61	41127.31
774.80	41321.87
774.98	41381.26
775.16	41233.80
775.34	41459.08
775.53	41221.52
775.71	41393.54
775.89	41342.35
776.08	41590.15
776.26	41246.09
776.44	41450.89
776.62	41362.82
776.81	41217.42
776.99	41670.02
777.17	41461.13
777.35	41495.94
777.54	42048.89
777.72	41233.80
777.90	41317.77
778.08	41692.55
778.27	41295.24
778.45	41270.67
778.63	41465.22
778.81	41319.82
779.00	42009.98
779.18	41586.05
779.36	41774.47
779.54	41383.30
779.73	41403.78
779.91	41913.73
780.09	41807.23
780.27	41837.95
780.46	41713.03
780.64	41999.74
780.82	41803.14
781.00	41508.23
781.19	41747.84
781.37	41725.32
781.55	41786.75
781.73	42564.98
781.91	42005.89
782.10	41960.83
782.28	42044.80
782.46	42048.89
782.64	42044.80
782.82	41731.46
783.01	41889.15
783.19	42149.24
783.37	42089.85
783.55	41917.82
783.74	42159.48
783.92	41661.83
784.10	42311.03
784.28	42239.36
784.46	41899.39
784.64	41688.45
784.83	41979.26
785.01	42139.00
785.19	42198.40
785.37	41813.38
785.55	42085.76
785.74	41680.26
785.92	41696.64
786.10	41850.24
786.28	42104.19
786.46	41833.86
786.64	41442.70
786.83	41270.67
787.01	41448.84
787.19	41541.00
787.37	41395.59
787.55	41624.96
787.74	41526.66
787.92	41608.58
788.10	41395.59
788.28	41112.97
788.46	41221.52
788.64	41162.12
788.82	41862.53
789.01	41041.29
789.19	41190.80
789.37	41215.37
789.55	41080.21
789.73	40734.10
789.91	40441.24
790.09	40828.30
790.28	40304.02
790.46	40566.16
790.64	40719.76
790.82	40979.85
791.00	40605.08
791.18	40326.55
791.36	40478.10
791.55	40437.14
791.73	40369.56
791.91	39716.26
792.09	39908.77
792.27	39949.73
792.45	39712.16
792.63	40023.45
792.81	39572.90
793.00	39765.41
793.18	39548.32
793.36	39488.93
793.54	39337.38
793.72	39376.30
793.90	39460.26
794.08	39114.16
794.26	39452.07
794.44	39005.61
794.62	38542.77
794.81	39079.34
794.99	38981.04
795.17	38546.87
795.35	38993.32
795.53	39042.48
795.71	39046.57
795.89	38516.15
796.07	38354.36
796.25	38348.21
796.43	38233.53
796.61	37946.81
796.80	37868.99
796.98	38086.07
797.16	37877.18
797.34	37807.55
797.52	37610.95
797.70	37809.60
797.88	37410.25
798.06	37246.41
798.24	37651.91
798.42	37483.97
798.60	37307.85
798.78	37412.29
798.96	37539.27
799.14	36918.73
799.32	36857.29
799.51	36079.07
799.69	36865.49
799.87	36695.50
800.05	36304.34
800.23	36486.61
800.41	36347.35
800.59	36367.83
800.77	36066.78
800.95	35886.56
801.13	36302.29
801.31	35861.98
801.49	36154.84
801.67	35386.85
801.85	35751.39
802.03	35778.01
802.21	35614.18
802.39	35538.40
802.57	35395.04
802.75	35198.44
802.93	34915.82
803.11	35495.39
803.29	35091.94
803.47	35167.72
803.65	34774.51
803.83	34946.54
804.01	34838.00
804.19	34147.83
804.37	34575.86
804.55	34538.99
804.73	34917.87
804.91	34467.31
805.09	34799.08
805.27	34127.35
805.45	33975.80
805.63	34313.72
805.81	34266.61
805.99	33797.63
806.17	34567.66
806.35	33785.34
806.53	33867.26
806.71	33983.99
806.89	33764.86
807.07	33701.37
807.25	33822.20
807.43	33564.16
807.61	33637.89
807.79	33361.41
807.97	33359.36
808.15	33213.96
808.33	33132.04
808.51	32998.92
808.69	33207.81
808.87	33140.23
809.05	32753.16
809.23	32865.80
809.41	32851.47
809.59	32583.18
809.77	32851.47
809.95	32546.32
810.13	32466.45
810.31	32572.94
810.49	32542.22
810.67	32192.02
810.84	32157.21
811.02	32515.60
811.20	31704.60
811.38	32001.56
811.56	31966.74
811.74	32095.77
811.92	32015.90
812.10	32112.15
812.28	31880.73
812.46	32073.24
812.64	31905.31
812.82	31518.24
813.00	31919.64
813.18	31757.85
813.36	31757.85
813.53	31471.14
813.71	31632.93
813.89	31462.94
814.07	31747.61
814.25	31385.12
814.43	31284.77
814.61	31362.59
814.79	31149.60
814.97	30909.99
815.15	30756.39
815.33	30815.79
815.50	30586.41
815.68	30780.97
815.86	30746.15
816.04	30514.73
816.22	30619.18
816.40	30578.22
816.58	30033.46
816.76	30594.61
816.94	30332.47
817.11	30193.20
817.29	30465.58
817.47	30234.16
817.65	30260.79
817.83	30078.52
818.01	29722.17
818.19	30017.08
818.37	30350.90
818.54	29603.39
818.72	29705.79
818.90	30099.00
819.08	29765.18
819.26	29410.88
819.44	29609.53
819.62	29453.89
819.80	29728.31
819.97	29847.10
820.15	29478.46
820.33	29294.14
820.51	29298.24
820.69	28878.41
820.87	29490.75
821.05	29240.90
821.22	29441.60
821.40	29201.99
821.58	28970.57
821.76	29185.60
821.94	28950.09
822.12	29081.16
822.29	28915.27
822.47	28757.58
822.65	29152.84
822.83	29158.98
823.01	28825.16
823.19	28823.11
823.36	28528.20
823.54	28458.57
823.72	28685.90
823.90	28311.12
824.08	28515.92
824.25	28556.88
824.43	28169.81
824.61	28397.13
824.79	28411.47
824.97	28116.56
825.15	28438.09
825.32	28108.37
825.50	28165.71
825.68	27825.75
825.86	28343.89
826.04	28300.88
826.21	27960.92
826.39	27854.42
826.57	28036.69
826.75	27743.83
826.93	27498.08
827.10	27618.91
827.28	27485.79
827.46	27657.82
827.64	27608.67
827.81	27758.17
827.99	27606.62
828.17	27663.96
828.35	27698.78
828.53	27270.75
828.70	27350.62
828.88	27235.94
829.06	27588.19
829.24	27297.38
829.41	27190.88
829.59	27850.33
829.77	27362.91
829.95	27442.78
830.12	27113.06
830.30	27100.77
830.48	27444.83
830.66	27010.66
830.84	27143.78
831.01	26963.56
831.19	27211.36
831.37	27059.81
831.55	26977.89
831.72	26611.31
831.90	26834.53
832.08	26797.67
832.25	26938.98
832.43	26642.03
832.61	26539.63
832.79	26416.75
832.96	26523.24
833.14	26553.96
833.32	26719.85
833.50	26740.33
833.67	26515.05
833.85	26840.68
834.03	26039.92
834.20	26543.72
834.38	26244.72
834.56	26467.95
834.74	26340.97
834.91	26443.37
835.09	26162.80
835.27	25853.56
835.44	25685.62
835.62	25996.92
835.80	25974.39
835.98	25761.40
836.15	25724.54
836.33	25806.45
836.51	26123.89
836.68	25749.11
836.86	25978.48
837.04	25908.85
837.21	25929.33
837.39	25763.45
837.57	26017.40
837.75	26087.03
837.92	25542.27
838.10	25650.81
838.28	25437.82
838.45	25542.27
838.63	25407.10
838.81	25284.22
838.98	25267.84
839.16	25308.80
839.34	25171.58
839.51	25208.45
839.69	25226.88
839.87	25362.04
840.04	25267.84
840.22	25454.20
840.40	25020.03
840.57	24581.77
840.75	25114.24
840.93	25003.65
841.10	25056.90
841.28	25323.13
841.46	25179.78
841.63	25443.96
841.81	25120.38
841.98	25024.13
842.16	24964.74
842.34	25147.01
842.51	24745.61
842.69	24936.07
842.87	24823.43
843.04	25003.65
843.22	24518.28
843.40	24376.97
843.57	24645.26
843.75	24610.44
843.92	24596.10
844.10	24446.60
844.28	24673.93
844.45	24520.33
844.63	24575.62
844.81	24127.12
844.98	24512.14
845.16	24520.33
845.33	24594.06
845.51	24536.71
845.69	24469.13
845.86	24114.83
846.04	24069.78
846.21	24127.12
846.39	23867.03
846.57	24055.44
846.74	24018.58
846.92	24141.46
847.09	23758.49
847.27	23879.32
847.45	24057.49
847.62	24153.74
847.80	24161.94
847.97	24125.07
848.15	23785.11
848.32	23551.64
848.50	23879.32
848.68	23869.08
848.85	23887.51
849.03	23432.86
849.20	23725.72
849.38	23662.23
849.56	23570.07
849.73	23647.90
849.91	23539.35
850.08	23862.93
850.26	23420.57
850.43	23463.58
850.61	23457.43
850.78	23209.63
850.96	23383.71
851.14	23355.04
851.31	23471.77
851.49	23426.71
851.66	23455.39
851.84	23469.72
852.01	23166.62
852.19	23352.99
852.36	22965.92
852.54	23350.94
852.71	23135.90
852.89	23592.60
853.07	23180.96
853.24	23197.34
853.42	22984.35
853.59	23203.49
853.77	22851.24
853.94	23027.36
854.12	23037.60
854.29	22988.45
854.47	22998.69
854.64	22906.53
854.82	22797.99
854.99	22761.12
855.17	22732.45
855.34	22625.96
855.52	22877.86
855.69	22734.50
855.87	22695.59
856.04	22363.82
856.22	22507.18
856.39	22249.13
856.57	22345.39
856.74	22562.47
856.92	22576.81
857.09	22347.44
857.27	22415.02
857.44	22691.49
857.62	22503.08
857.79	22537.90
857.97	22300.33
858.14	22455.98
858.32	22054.58
858.49	22271.66
858.67	22378.15
858.84	21989.04
859.02	22433.45
859.19	22003.38
859.37	21866.16
859.54	22173.36
859.72	22032.05
859.89	21915.31
860.06	22232.75
860.24	21954.22
860.41	22376.11
860.59	21667.51
860.76	22173.36
860.94	21831.35
861.11	21915.31
861.29	21798.58
861.46	21835.44
861.64	21503.67
861.81	21706.42
861.98	21788.34
862.16	21440.18
862.33	21229.24
862.51	21374.65
862.68	21452.47
862.86	21544.63
863.03	21540.54
863.21	21497.53
863.38	21268.16
863.55	21329.59
863.73	21407.42
863.90	21319.35
864.08	21487.29
864.25	21518.01
864.43	21411.51
864.60	21509.82
864.77	21024.45
864.95	21100.22
865.12	20631.24
865.30	21212.86
865.47	21100.22
865.64	21075.65
865.82	21153.47
865.99	20858.56
866.17	20883.14
866.34	21071.55
866.51	20797.12
866.69	20958.91
866.86	21001.92
867.04	20856.51
867.21	21092.03
867.38	20868.80
867.56	20467.40
867.73	20606.66
867.91	20520.65
868.08	20367.05
868.25	20661.96
868.43	20154.06
868.60	20438.73
868.78	20346.57
868.95	20582.09
869.12	20405.96
869.30	20350.67
869.47	20219.60
869.64	20129.48
869.82	20436.68
869.99	20043.47
870.16	20276.94
870.34	20528.84
870.51	20469.45
870.69	20078.29
870.86	19955.41
871.03	20401.86
871.21	20025.04
871.38	20289.23
871.55	20096.72
871.73	19914.45
871.90	19988.18
872.07	19840.72
872.25	19822.29
872.42	20033.23
872.59	20025.04
872.77	19584.73
872.94	19771.09
873.11	19586.77
873.29	19855.06
873.46	19719.89
873.63	19533.53
873.81	19498.71
873.98	19490.52
874.15	19334.87
874.33	19263.19
874.50	19343.06
874.67	19324.63
874.85	19187.42
875.02	19203.80
875.19	19214.04
875.37	19037.92
875.54	18917.09
875.71	19078.88
875.88	18800.35
876.06	18886.37
876.23	18863.84
876.40	18851.55
876.58	18865.89
876.75	18697.95
876.92	18888.42
877.10	18786.02
877.27	18747.11
877.44	18808.54
877.61	18712.29
877.79	18355.94
877.96	18560.74
878.13	18657.00
878.31	18319.08
878.48	18507.49
878.65	18282.22
878.82	18122.48
879.00	18241.26
879.17	18384.62
879.34	18372.33
879.51	18253.55
879.69	18278.12
879.86	18282.22
880.03	18138.86
880.21	18011.89
880.38	18188.01
880.55	18128.62
880.72	17839.86
880.90	18102.00
881.07	17762.03
881.24	17968.88
881.41	18048.75
881.59	18050.80
881.76	17864.43
881.93	17764.08
882.10	17616.63
882.28	17590.00
882.45	17755.89
882.62	17946.35
882.79	17745.65
882.96	17469.17
883.14	17880.82
883.31	17663.73
883.48	17522.42
883.65	17397.49
883.83	17633.01
884.00	17553.14
884.17	17510.13
884.34	17303.29
884.51	17452.79
884.69	17516.28
884.86	17329.91
885.03	17352.44
885.20	17532.66
885.38	17372.92
885.55	17420.02
885.72	17377.01
885.89	17082.11
886.06	17280.76
886.24	17233.66
886.41	17106.68
886.58	17274.62
886.75	17540.85
886.92	16834.30
887.10	17571.57
887.27	17108.73
887.44	17016.57
887.61	17301.24
887.78	17030.91
887.95	17172.22
888.13	17172.22
888.30	17123.07
888.47	16850.69
888.64	16944.89
888.81	17178.36
888.99	16957.18
889.16	16797.44
889.33	16754.43
889.50	16682.75
889.67	16770.82
889.84	16639.75
890.01	16809.73
890.19	16686.85
890.36	16768.77
890.53	16738.05
890.70	16686.85
890.87	16641.79
891.04	16410.37
891.22	16574.21
891.39	16709.38
891.56	16514.82
891.73	16359.17
891.90	16424.71
892.07	16154.38
892.24	16232.20
892.42	16146.19
892.59	16400.13
892.76	16295.69
892.93	16328.45
893.10	16103.18
893.27	16080.65
893.44	16072.46
893.61	16191.24
893.79	16338.69
893.96	16269.06
894.13	16424.71
894.30	16246.54
894.47	16156.43
894.64	16168.71
894.81	16051.98
894.98	16213.77
895.15	16166.67
895.33	16209.67
895.50	16148.23
895.67	15939.34
895.84	15996.68
896.01	15990.54
896.18	15945.48
896.35	16178.95
896.52	15908.62
896.69	15701.78
896.86	15861.52
897.04	15972.11
897.21	15941.39
897.38	16092.94
897.55	15826.70
897.72	15898.38
897.89	15970.06
898.06	15963.92
898.23	16133.90
898.40	15968.01
898.57	16133.90
898.74	15963.92
898.91	15806.22
899.08	15834.89
899.26	15970.06
899.43	15916.81
899.60	15972.11
899.77	15826.70
899.94	15795.98
900.11	15824.65
900.28	15890.19
900.45	15855.37
900.62	15957.77
900.79	15988.49
900.96	15824.65
901.13	15810.32
901.30	15890.19
901.47	15732.50
901.64	15687.44
901.81	15763.22
901.98	15761.17
902.15	15808.27
902.32	15740.69
902.49	15877.90
902.66	15787.79
902.83	15777.55
903.01	15789.84
903.18	15767.31
903.35	15810.32
903.52	15894.29
903.69	15732.50
903.86	15705.87
904.03	15777.55
904.20	15847.18
904.37	15841.04
904.54	15750.93
904.71	15345.43
904.88	15664.91
905.05	15585.04
905.22	15781.65
905.39	15763.22
905.56	15626.00
905.73	15818.51
905.90	15791.89
906.07	15607.57
906.24	15863.57
906.41	15619.86
906.58	15693.58
906.75	15820.56
906.92	15613.71
907.09	15746.83
907.26	15742.74
907.43	15486.74
907.60	15535.89
907.77	15695.63
907.93	15673.10
908.10	15595.28
908.27	15734.54
908.44	15415.06
908.61	15560.47
908.78	15679.25
908.95	15642.39
909.12	15451.92
909.29	15566.61
909.46	15529.75
909.63	15857.42
909.80	15580.95
909.97	15853.33
910.14	15599.38
910.31	15546.13
910.48	15697.68
910.65	15466.26
910.82	15216.41
910.99	15210.26
911.16	15490.84
911.33	15314.71
911.50	15562.51
911.66	15312.66
911.83	15429.40
912.00	15257.37
912.17	15167.26
912.34	14950.17
912.51	15144.73
912.68	15120.15
912.85	15126.30
913.02	15279.89
913.19	14984.99
913.36	15003.42
913.53	15236.89
913.70	15046.43
913.86	15214.36
914.03	15087.39
914.20	15060.76
914.37	14929.69
914.54	14960.41
914.71	15005.47
914.88	14917.40
915.05	14948.12
915.22	14780.19
915.39	15071.00
915.55	14923.55
915.72	14589.73
915.89	14825.25
916.06	14552.87
916.23	14567.20
916.40	14569.25
916.57	14360.36
916.74	14518.05
916.91	14511.91
917.07	14221.10
917.24	14384.93
917.41	14411.56
917.58	14276.39
917.75	14120.74
917.92	14016.30
918.09	14210.86
918.26	14317.35
918.42	14053.16
918.59	14094.12
918.76	13766.45
918.93	13754.16
919.10	13719.34
919.27	13758.25
919.44	13963.05
919.60	13907.76
919.77	13774.64
919.94	13455.15
920.11	13676.34
920.28	13821.74
920.45	13754.16
920.61	13602.61
920.78	13602.61
920.95	13518.64
921.12	13406.00
921.29	13328.18
921.46	13371.19
921.62	13141.82
921.79	13303.60
921.96	13000.51
922.13	13121.34
922.30	13207.35
922.47	13023.03
922.63	12988.22
922.80	12926.78
922.97	12816.19
923.14	12816.19
923.31	12953.40
923.47	12609.34
923.64	13002.55
923.81	12789.56
923.98	12631.87
924.15	12676.93
924.32	12556.10
924.48	12681.02
924.65	12615.49
924.82	12390.21
924.99	12367.68
925.15	12222.28
925.32	12289.86
925.49	12267.33
925.66	12158.79
925.83	12076.87
925.99	12361.54
926.16	12242.76
926.33	12046.15
926.50	11784.01
926.67	11994.95
926.83	11927.37
927.00	11945.80
927.17	11816.78
927.34	11548.50
927.50	11728.72
927.67	11673.42
927.84	11566.93
928.01	11509.58
928.17	11493.20
928.34	11358.03
928.51	11294.55
928.68	11376.47
928.84	11325.27
929.01	11317.08
929.18	11196.25
929.35	11312.98
929.51	11130.71
929.68	10833.75
929.85	11071.32
930.02	11091.80
930.18	10915.67
930.35	10999.64
930.52	10880.86
930.69	10835.80
930.85	10751.84
931.02	10723.16
931.19	10399.59
931.36	10784.60
931.52	10800.99
931.69	10520.42
931.86	10358.63
932.02	10651.49
932.19	10356.58
932.36	10346.34
932.53	10364.77
932.69	10272.61
932.86	10440.54
933.03	10102.63
933.19	9852.78
933.36	10139.49
933.53	9963.37
933.70	10035.05
933.86	9953.13
934.03	9711.47
934.20	9822.06
934.36	9770.86
934.53	9410.42
934.70	9525.10
934.86	9623.41
935.03	9494.38
935.20	9404.27
935.36	9379.70
935.53	9115.51
935.70	9095.03
935.86	9193.33
936.03	9021.30
936.20	9037.69
936.36	8767.35
936.53	8859.51
936.70	8994.68
936.86	8826.75
937.03	8585.08
937.20	8380.29
937.36	8642.43
937.53	8255.36
937.70	8148.87
937.86	8122.24
938.03	8157.06
938.20	8241.03
938.36	7896.97
938.53	7970.69
938.70	7579.53
938.86	7718.79
939.03	7712.65
939.20	7575.44
939.36	7462.80
939.53	7309.20
939.70	7450.51
939.86	7229.33
940.03	7145.36
940.19	7057.30
940.36	7059.35
940.53	6999.96
940.69	6885.27
940.86	6782.87
941.03	6727.58
941.19	6682.52
941.36	6522.78
941.52	6678.43
941.69	6389.66
941.86	6342.56
942.02	6416.29
942.19	6348.70
942.35	6166.43
942.52	6148.00
942.69	6201.25
942.85	5959.59
943.02	6000.55
943.18	6109.09
943.35	6066.08
943.52	5982.12
943.68	5869.48
943.85	5744.55
944.01	5752.74
944.18	5769.13
944.35	5728.17
944.51	5689.26
944.68	5732.26
944.84	5646.25
945.01	5607.34
945.17	5613.48
945.34	5679.02
945.51	5670.83
945.67	5509.04
945.84	5521.32
946.00	5392.30
946.17	5588.91
946.33	5259.18
946.50	5457.84
946.67	5435.31
946.83	5429.17
947.00	5472.17
947.16	5494.70
947.33	5427.12
947.49	5535.66
947.66	5334.96
947.82	5345.20
947.99	5433.26
948.16	5554.09
948.32	5320.62
948.49	5326.77
948.65	5433.26
948.82	5337.01
948.98	5349.29
949.15	5394.35
949.31	5414.83
949.48	5539.76
949.64	5361.58
949.81	5320.62
949.97	5367.73
950.14	5349.29
950.30	5250.99
950.47	5541.80
950.63	5361.58
950.80	5494.70
950.96	5502.89
951.13	5355.44
951.30	5517.23
951.46	5375.92
951.63	5588.91
951.79	5396.40
951.96	5470.12
952.12	5554.09
952.29	5482.41
952.45	5390.25
952.62	5689.26
952.78	5640.11
952.94	5482.41
953.11	5441.45
953.27	5476.27
953.44	5633.96
953.60	5408.69
953.77	5539.76
953.93	5445.55
954.10	5498.80
954.26	5519.28
954.43	5603.24
954.59	5668.78
954.76	5609.39
954.92	5623.72
955.09	5595.05
955.25	5490.60
955.42	5556.14
955.58	5590.95
955.75	5502.89
955.91	5541.80
956.07	5683.11
956.24	5513.13
956.40	5511.08
956.57	5500.84
956.73	5701.54
956.90	5517.23
957.06	5550.00
957.23	5509.04
957.39	5482.41
957.56	5527.47
957.72	5418.93
957.88	5476.27
958.05	5607.34
958.21	5582.76
958.38	5566.38
958.54	5480.36
958.71	5679.02
958.87	5488.56
959.03	5535.66
959.20	5595.05
959.36	5572.52
959.53	5541.80
959.69	5509.04
959.85	5521.32
960.02	5533.61
960.18	5492.65
960.35	5654.44
960.51	5613.48
960.68	5584.81
960.84	5607.34
961.00	5459.88
961.17	5511.08
961.33	5580.71
961.50	5533.61
961.66	5668.78
961.82	5547.95
961.99	5474.22
962.15	5615.53
962.31	5490.60
962.48	5441.45
962.64	5615.53
962.81	5654.44
962.97	5652.39
963.13	5535.66
963.30	5474.22
963.46	5472.17
963.62	5519.28
963.79	5556.14
963.95	5662.63
964.12	5408.69
964.28	5550.00
964.44	5343.15
964.61	5541.80
964.77	5511.08
964.93	5566.38
965.10	5392.30
965.26	5687.21
965.42	5375.92
965.59	5437.36
965.75	5390.25
965.92	5390.25
966.08	5488.56
966.24	5437.36
966.41	5392.30
966.57	5367.73
966.73	5447.60
966.90	5447.60
967.06	5316.53
967.22	5246.90
967.39	5289.90
967.55	5439.40
967.71	5220.27
967.88	5269.42
968.04	5353.39
968.20	5289.90
968.37	5330.86
968.53	5281.71
968.69	5337.01
968.85	5289.90
969.02	5236.66
969.18	5318.57
969.34	5087.15
969.51	5291.95
969.67	5156.79
969.83	5050.29
970.00	5181.36
970.16	5205.94
970.32	5136.31
970.48	5236.66
970.65	5042.10
970.81	5091.25
970.97	5183.41
971.14	5132.21
971.30	5226.42
971.46	5060.53
971.63	5078.96
971.79	5089.20
971.95	5083.06
972.11	5042.10
972.28	5015.48
972.44	5056.43
972.60	4911.03
972.76	5040.05
972.93	4962.23
973.09	5099.44
973.25	4992.95
973.42	4927.41
973.58	5017.52
973.74	5056.43
973.90	4890.55
974.07	4870.07
974.23	5097.39
974.39	4820.92
974.55	4874.17
974.72	4925.36
974.88	4751.29
975.04	5050.29
975.20	4745.14
975.37	4839.35
975.53	4837.30
975.69	4822.97
975.85	4646.84
976.01	4769.72
976.18	4786.10
976.34	4767.67
976.50	4779.96
976.66	4794.29
976.83	4802.49
976.99	4655.03
977.15	4616.12
977.31	4644.79
977.47	4775.86
977.64	4763.58
977.80	4702.14
977.96	4722.62
978.12	4624.31
978.29	4560.83
978.45	4587.45
978.61	4620.22
978.77	4747.19
978.93	4444.09
979.10	4581.31
979.26	4601.79
979.42	4562.87
979.58	4370.37
979.74	4571.07
979.91	4493.24
980.07	4495.29
980.23	4593.59
980.39	4468.67
980.55	4534.20
980.71	4353.98
980.88	4417.47
981.04	4429.76
981.20	4485.05
981.36	4419.52
981.52	4480.96
981.68	4353.98
981.85	4403.13
982.01	4491.20
982.17	4390.84
982.33	4327.36
982.49	4321.21
982.65	4315.07
982.82	4327.36
982.98	4347.84
983.14	4284.35
983.30	4382.65
983.46	4386.75
983.62	4337.60
983.79	4282.30
983.95	4343.74
984.11	4196.29
984.27	4263.87
984.43	4231.10
984.59	4261.82
984.75	4255.68
984.91	4067.27
985.08	4347.84
985.24	4132.80
985.40	4102.08
985.56	4190.14
985.72	4204.48
985.88	4100.03
986.04	4106.18
986.20	3921.86
986.37	4114.37
986.53	3948.48
986.69	4202.43
986.85	3973.06
987.01	4054.98
987.17	4134.85
987.33	4057.03
987.49	4005.83
987.65	4089.79
987.82	3885.00
987.98	3989.44
988.14	4005.83
988.30	4069.31
988.46	3952.58
988.62	4050.88
988.78	3874.76
988.94	3872.71
989.10	3960.77
989.26	3784.65
989.42	3829.70
989.59	3909.57
989.75	3803.08
989.91	3792.84
990.07	3661.77
990.23	3768.26
990.39	3764.17
990.55	3704.78
990.71	3841.99
990.87	3829.70
991.03	3764.17
991.19	3796.93
991.35	3909.57
991.51	3674.06
991.67	3815.37
991.83	3760.07
992.00	3733.45
992.16	3768.26
992.32	3635.14
992.48	3774.41
992.64	3530.70
992.80	3620.81
992.96	3702.73
993.12	3674.06
993.28	3710.92
993.44	3665.86
993.60	3692.49
993.76	3682.25
993.92	3686.34
994.08	3659.72
994.24	3622.86
994.40	3559.37
994.56	3583.95
994.72	3495.88
994.88	3481.55
995.04	3639.24
995.20	3592.14
995.36	3512.27
995.52	3551.18
995.68	3516.36
995.84	3510.22
996.00	3608.52
996.16	3549.13
996.32	3411.92
996.48	3469.26
996.64	3577.80
996.80	3473.36
996.96	3469.26
997.12	3434.44
997.28	3368.91
997.44	3383.24
997.60	3391.44
997.76	3493.83
997.92	3360.72
998.08	3432.40
998.24	3256.27
998.40	3426.25
998.56	3383.24
998.72	3198.93
998.88	3342.28
999.04	3252.17
999.20	3418.06
999.36	3289.04
999.52	3370.96
999.68	3254.22
999.84	3395.53
1000.00	3235.79
1000.16	3336.14
1000.32	3305.42
1000.48	3362.76
1000.64	3170.26
1000.80	3258.32
1000.95	3121.10
1001.11	3227.60
1001.27	3205.07
1001.43	3303.37
1001.59	3108.82
1001.75	3137.49
1001.91	3219.41
1002.07	3082.19
1002.23	3024.85
1002.39	3123.15
1002.55	3112.91
1002.71	3160.02
1002.87	3129.30
1003.03	3063.76
1003.19	3074.00
1003.34	3155.92
1003.50	3059.67
1003.66	3198.93
1003.82	3084.24
1003.98	3049.43
1004.14	3047.38
1004.30	3043.28
1004.46	2977.75
1004.62	3067.86
1004.78	2969.55
1004.94	3078.10
1005.09	2977.75
1005.25	3125.20
1005.41	3125.20
1005.57	2994.13
1005.73	2969.55
1005.89	2959.31
1006.05	3084.24
1006.21	3055.57
1006.37	2969.55
1006.52	2914.26
1006.68	2887.64
1006.84	2971.60
1007.00	2840.53
1007.16	3016.66
1007.32	2824.15
1007.48	2914.26
1007.64	2992.08
1007.79	2846.68
1007.95	2873.30
1008.11	2951.12
1008.27	2959.31
1008.43	2799.57
1008.59	2785.24
1008.75	2936.79
1008.91	2938.84
1009.06	2723.80
1009.22	2987.99
1009.38	2803.67
1009.54	2822.10
1009.70	2844.63
1009.86	2813.91
1010.01	2795.48
1010.17	2717.65
1010.33	2842.58
1010.49	2834.39
1010.65	2901.97
1010.81	2666.46
1010.96	2842.58
1011.12	2697.17
1011.28	2639.83
1011.44	2740.18
1011.60	2664.41
1011.76	2639.83
1011.91	2775.00
1012.07	2686.94
1012.23	2627.54
1012.39	2598.87
1012.55	2686.94
1012.71	2609.11
1012.86	2643.93
1013.02	2674.65
1013.18	2607.06
1013.34	2539.48
1013.50	2611.16
1013.65	2557.91
1013.81	2652.12
1013.97	2582.49
1014.13	2559.96
1014.29	2539.48
1014.44	2637.78
1014.60	2605.02
1014.76	2527.19
1014.92	2553.82
1015.07	2523.10
1015.23	2584.54
1015.39	2527.19
1015.55	2514.91
1015.71	2527.19
1015.86	2516.95
1016.02	2519.00
1016.18	2506.71
1016.34	2531.29
1016.49	2512.86
1016.65	2576.34
1016.81	2447.32
1016.97	2441.18
1017.12	2469.85
1017.28	2471.90
1017.44	2496.47
1017.60	2396.12
1017.75	2418.65
1017.91	2492.38
1018.07	2471.90
1018.23	2486.23
1018.38	2494.43
1018.54	2422.75
1018.70	2424.80
1018.86	2428.89
1019.01	2385.88
1019.17	2455.51
1019.33	2459.61
1019.49	2396.12
1019.64	2432.99
1019.80	2367.45
1019.96	2389.98
1020.12	2447.32
1020.27	2387.93
1020.43	2363.36
1020.59	2406.36
1020.74	2291.68
1020.90	2475.99
1021.06	2271.20
1021.22	2398.17
1021.37	2410.46
1021.53	2291.68
1021.69	2289.63
1021.84	2174.94
1022.00	2424.80
1022.16	2316.25
1022.31	2381.79
1022.47	2310.11
1022.63	2428.89
1022.79	2289.63
1022.94	2207.71
1023.10	2373.60
1023.26	2164.70
1023.41	2275.29
1023.57	2283.49
1023.73	2289.63
1023.88	2250.72
1024.04	2150.37
1024.20	2203.61
1024.35	2199.52
1024.51	2281.44
1024.67	2197.47
1024.82	2246.62
1024.98	2254.81
1025.14	2248.67
1025.29	2203.61
1025.45	2299.87
1025.61	2205.66
1025.76	2168.80
1025.92	2158.56
1026.08	2254.81
1026.23	2191.33
1026.39	2191.33
1026.55	2144.22
1026.70	2189.28
1026.86	2146.27
1027.02	2168.80
1027.17	2230.24
1027.33	2199.52
1027.48	2129.89
1027.64	2099.17
1027.80	2123.74
1027.95	2215.90
1028.11	2121.70
1028.27	2109.41
1028.42	2140.13
1028.58	2146.27
1028.73	2066.40
1028.89	2017.25
1029.05	2181.09
1029.20	2146.27
>>>>>End Processed Spectral Data<<<<<
