SpectraSuite Data File
++++++++++++++++++++++++++++++++++++
Date: Fri Jun 02 14:52:23 CEST 2017
User: INFO_000
Dark Spectrum Present: No
Reference Spectrum Present: No
Number of Sampled Component Spectra: 1
Spectrometers: USB4H00879
Integration Time (usec): 80000 (USB4H00879)
Spectra Averaged: 1 (USB4H00879)
Boxcar Smoothing: 0 (USB4H00879)
Correct for Electrical Dark: No (USB4H00879)
Strobe/Lamp Enabled: No (USB4H00879)
Correct for Detector Non-linearity: No (USB4H00879)
Correct for Stray Light: No (USB4H00879)
Number of Pixels in Processed Spectrum: 3648
>>>>>Begin Processed Spectral Data<<<<<
345.13	1288.17
345.34	1288.17
345.56	1288.17
345.78	1288.17
345.99	1306.60
346.21	1708.01
346.42	1738.73
346.64	1624.04
346.86	1775.59
347.07	1603.56
347.29	1730.53
347.50	1628.14
347.72	1599.46
347.94	1808.36
348.15	1630.18
348.37	1615.85
348.59	1681.38
348.80	1650.66
349.02	1730.53
349.23	1726.44
349.45	1732.58
349.67	1748.97
349.88	1720.29
350.10	1855.46
350.31	1757.16
350.53	1683.43
350.75	1843.17
350.96	1646.57
351.18	1746.92
351.39	1714.15
351.61	1687.53
351.82	1791.97
352.04	1777.64
352.26	1697.77
352.47	1800.16
352.69	1757.16
352.90	1642.47
353.12	1687.53
353.34	1691.62
353.55	1841.12
353.77	1722.34
353.98	1701.86
354.20	1681.38
354.41	1744.87
354.63	1802.21
354.85	1900.52
355.06	1746.92
355.28	1595.37
355.49	1781.73
355.71	1703.91
355.92	1699.81
356.14	1816.55
356.35	1695.72
356.57	1652.71
356.79	1757.16
357.00	1675.24
357.22	1822.69
357.43	1630.18
357.65	1763.30
357.86	1677.29
358.08	1712.10
358.29	1826.79
358.51	1791.97
358.72	1832.93
358.94	1738.73
359.16	1726.44
359.37	1734.63
359.59	1748.97
359.80	1720.29
360.02	1789.92
360.23	1748.97
360.45	1820.64
360.66	1761.25
360.88	1638.38
361.09	1765.35
361.31	1703.91
361.52	1716.20
361.74	1763.30
361.95	1884.13
362.17	1736.68
362.38	1832.93
362.60	1769.44
362.81	1769.44
363.03	1699.81
363.24	1724.39
363.46	1834.98
363.67	1820.64
363.89	1755.11
364.10	1761.25
364.32	1732.58
364.53	1767.40
364.75	1716.20
364.96	1810.40
365.18	1787.88
365.39	1683.43
365.61	1679.33
365.82	1818.60
366.04	1728.49
366.25	1740.77
366.47	1781.73
366.68	1710.05
366.90	1693.67
367.11	1726.44
367.33	1812.45
367.54	1724.39
367.76	1683.43
367.97	1808.36
368.19	1771.49
368.40	1767.40
368.62	1621.99
368.83	1656.81
369.05	1683.43
369.26	1699.81
369.48	1662.95
369.69	1660.90
369.91	1677.29
370.12	1662.95
370.33	1865.70
370.55	1751.01
370.76	1710.05
370.98	1765.35
371.19	1748.97
371.41	1734.63
371.62	1722.34
371.84	1687.53
372.05	1816.55
372.27	1771.49
372.48	1761.25
372.69	1667.05
372.91	1822.69
373.12	1851.36
373.34	1775.59
373.55	1781.73
373.77	1839.08
373.98	1712.10
374.20	1818.60
374.41	1939.43
374.62	1691.62
374.84	1763.30
375.05	1771.49
375.27	1765.35
375.48	1775.59
375.70	1816.55
375.91	1761.25
376.12	1898.47
376.34	1667.05
376.55	1695.72
376.77	1748.97
376.98	1613.80
377.19	1699.81
377.41	1658.85
377.62	1746.92
377.84	1757.16
378.05	1927.14
378.27	1771.49
378.48	1888.23
378.69	1855.46
378.91	1875.94
379.12	1814.50
379.34	1689.57
379.55	1798.12
379.76	1800.16
379.98	1673.19
380.19	1763.30
380.41	1834.98
380.62	1769.44
380.83	1718.25
381.05	1685.48
381.26	1896.42
381.47	1783.78
381.69	1732.58
381.90	1853.41
382.12	1732.58
382.33	1712.10
382.54	1832.93
382.76	1824.74
382.97	1716.20
383.19	1759.21
383.40	1775.59
383.61	1753.06
383.83	1703.91
384.04	1796.07
384.25	1744.87
384.47	1863.65
384.68	1789.92
384.89	1740.77
385.11	1732.58
385.32	1724.39
385.54	1724.39
385.75	1757.16
385.96	1791.97
386.18	1736.68
386.39	1771.49
386.60	1724.39
386.82	1761.25
387.03	1816.55
387.24	1802.21
387.46	1751.01
387.67	1812.45
387.88	1851.36
388.10	1769.44
388.31	1763.30
388.52	1857.51
388.74	1839.08
388.95	1814.50
389.16	1785.83
389.38	1716.20
389.59	1789.92
389.80	1968.10
390.02	1927.14
390.23	1935.33
390.44	1828.84
390.66	1789.92
390.87	1742.82
391.08	1785.83
391.30	1916.90
391.51	1894.37
391.72	1871.84
391.94	1884.13
392.15	1902.56
392.36	1755.11
392.58	1857.51
392.79	1837.03
393.00	1830.88
393.22	1920.99
393.43	1847.27
393.64	1920.99
393.85	1968.10
394.07	1867.75
394.28	1845.22
394.49	1875.94
394.71	1945.57
394.92	1939.43
395.13	1781.73
395.35	1773.54
395.56	1757.16
395.77	1988.58
395.98	1900.52
396.20	1937.38
396.41	1925.09
396.62	1937.38
396.84	1980.39
397.05	1761.25
397.26	1845.22
397.47	2047.97
397.69	1929.19
397.90	1916.90
398.11	1933.28
398.32	1832.93
398.54	1888.23
398.75	1961.95
398.96	1849.32
399.18	2074.59
399.39	1923.04
399.60	1925.09
399.81	1894.37
400.03	1826.79
400.24	2052.06
400.45	1980.39
400.66	1992.67
400.88	1830.88
401.09	2154.46
401.30	1912.80
401.51	2142.18
401.73	1912.80
401.94	2078.69
402.15	2097.12
402.36	2140.13
402.58	2011.11
402.79	2248.67
403.00	2000.87
403.21	2097.12
403.43	2117.60
403.64	2088.93
403.85	2170.85
404.06	2127.84
404.27	1910.75
404.49	2039.78
404.70	2097.12
404.91	2047.97
405.12	1939.43
405.34	2045.92
405.55	2103.26
405.76	2060.26
405.97	2072.54
406.19	2377.69
406.40	1929.19
406.61	2220.00
406.82	2084.83
407.03	2070.50
407.25	2050.02
407.46	2269.15
407.67	2074.59
407.88	2287.58
408.09	2133.98
408.31	2068.45
408.52	2222.05
408.73	2185.18
408.94	2103.26
409.15	2152.42
409.37	2203.61
409.58	2170.85
409.79	2146.27
410.00	2250.72
410.21	2035.68
410.43	2295.77
410.64	1957.86
410.85	2084.83
411.06	2373.60
411.27	2303.96
411.48	2234.33
411.70	2314.20
411.91	2359.26
412.12	2392.03
412.33	2475.99
412.54	2166.75
412.76	2349.02
412.97	2322.40
413.18	2168.80
413.39	2189.28
413.60	2426.84
413.81	2330.59
414.03	2250.72
414.24	2181.09
414.45	2576.34
414.66	2338.78
414.87	2562.01
415.08	2238.43
415.30	2297.82
415.51	2369.50
415.72	2252.77
415.93	2594.78
416.14	2320.35
416.35	2263.01
416.56	2510.81
416.78	2371.55
416.99	2535.39
417.20	2346.97
417.41	2772.95
417.62	2445.27
417.83	2430.94
418.04	2367.45
418.26	2705.37
418.47	2432.99
418.68	2619.35
418.89	2500.57
419.10	2912.21
419.31	2607.06
419.52	2510.81
419.73	2410.46
419.95	2924.50
420.16	2385.88
420.37	2525.15
420.58	2385.88
420.79	2402.27
421.00	2432.99
421.21	2387.93
421.42	2639.83
421.63	2633.69
421.85	2705.37
422.06	2602.97
422.27	2637.78
422.48	2637.78
422.69	2621.40
422.90	2738.13
423.11	2643.93
423.32	2932.69
423.53	2906.07
423.75	2756.57
423.96	2861.01
424.17	2899.92
424.38	3061.71
424.59	2899.92
424.80	3002.32
425.01	2996.18
425.22	2856.92
425.43	2928.60
425.64	3004.37
425.85	3438.54
426.06	3370.96
426.28	3110.86
426.49	2641.88
426.70	3002.32
426.91	2987.99
427.12	3198.93
427.33	3440.59
427.54	3311.57
427.75	3354.57
427.96	3375.05
428.17	3416.01
428.38	3198.93
428.59	3313.61
428.80	3196.88
429.01	3379.15
429.23	3180.50
429.44	3215.31
429.65	3340.24
429.86	3502.03
430.07	3782.60
430.28	3493.83
430.49	3565.51
430.70	3196.88
430.91	3723.21
431.12	3760.07
431.33	3487.69
431.54	3979.20
431.75	3641.29
431.96	3504.07
432.17	3686.34
432.38	3751.88
432.59	3792.84
432.80	3870.66
433.01	3870.66
433.22	3622.86
433.43	3745.73
433.64	4116.42
433.85	3645.38
434.06	3901.38
434.27	3766.21
434.49	3801.03
434.70	4046.79
434.91	3997.64
435.12	4190.14
435.33	3887.04
435.54	4026.31
435.75	3612.62
435.96	3811.27
436.17	4044.74
436.38	4044.74
436.59	4200.38
436.80	3997.64
437.01	4188.10
437.22	4308.93
437.43	4120.51
437.64	3921.86
437.85	4362.17
438.06	4487.10
438.27	3833.80
438.48	4259.78
438.69	4181.95
438.90	4444.09
439.11	4532.15
439.32	4726.71
439.53	4386.75
439.74	4362.17
439.95	4601.79
440.16	4229.06
440.37	4292.54
440.57	4462.52
440.78	4616.12
440.99	4853.69
441.20	4325.31
441.41	4521.92
441.62	4335.55
441.83	4614.07
442.04	4681.66
442.25	4667.32
442.46	4718.52
442.67	4833.21
442.88	5044.15
443.09	4528.06
443.30	4376.51
443.51	4569.02
443.72	5078.96
443.93	4804.53
444.14	5298.10
444.35	4546.49
444.56	4845.49
444.77	4888.50
444.98	5476.27
445.19	5353.39
445.40	4771.77
445.61	5146.55
445.81	5115.83
446.02	5189.55
446.23	5054.39
446.44	4829.11
446.65	5318.57
446.86	5414.83
447.07	5697.45
447.28	5220.27
447.49	5248.94
447.70	5523.37
447.91	5511.08
448.12	5179.31
448.33	5652.39
448.54	5431.21
448.74	5253.04
448.95	5511.08
449.16	5408.69
449.37	5617.58
449.58	5662.63
449.79	5754.79
450.00	5345.20
450.21	5695.40
450.42	5910.44
450.63	5953.45
450.84	5611.43
451.05	5826.47
451.25	5689.26
451.46	5707.69
451.67	5908.39
451.88	6246.30
452.09	5869.48
452.30	5679.02
452.51	5900.20
452.72	5879.72
452.93	6485.92
453.13	5615.53
453.34	5797.80
453.55	6315.94
453.76	6076.32
453.97	6369.18
454.18	5849.00
454.39	6025.12
454.60	6107.04
454.81	6158.24
455.01	6246.30
455.22	5832.62
455.43	6371.23
455.64	6834.07
455.85	6424.48
456.06	6895.51
456.27	6551.45
456.48	6414.24
456.68	6834.07
456.89	6856.60
457.10	6754.20
457.31	6557.60
457.52	6393.76
457.73	6782.87
457.94	6995.86
458.14	6766.49
458.35	7485.33
458.56	6803.35
458.77	6942.61
458.98	7210.90
459.19	7176.08
459.39	7376.78
459.60	7546.76
459.81	7088.02
460.02	7614.35
460.23	7454.61
460.44	7618.44
460.65	7350.16
460.85	7436.17
461.06	7667.60
461.27	7616.40
461.48	7741.32
461.69	7776.14
461.89	7483.28
462.10	7710.60
462.31	7430.03
462.52	7690.12
462.73	8052.61
462.94	8112.00
463.14	8177.54
463.35	7989.13
463.56	8685.44
463.77	8279.94
463.98	8120.20
464.18	7862.15
464.39	8585.08
464.60	8800.12
464.81	8472.45
465.02	8726.39
465.23	8877.94
465.43	8744.83
465.64	9006.97
465.85	8601.47
466.06	8687.48
466.27	9301.87
466.47	9338.74
466.68	9109.36
466.89	8998.77
467.10	9275.25
467.30	8931.19
467.51	9742.19
467.72	9656.17
467.93	9027.45
468.14	9408.37
468.34	9762.67
468.55	9478.00
468.76	9684.84
468.97	9455.47
469.17	10012.52
469.38	9541.49
469.59	10153.83
469.80	9537.39
470.01	10233.70
470.21	9826.15
470.42	10530.66
470.63	10354.53
470.84	10426.21
471.04	10444.64
471.25	10694.49
471.46	10473.31
471.67	11024.22
471.87	10786.65
472.08	10792.80
472.29	10719.07
472.50	10645.34
472.70	11167.57
472.91	10932.06
473.12	11272.02
473.33	11298.64
473.53	11403.09
473.74	11519.82
473.95	11716.43
474.16	11724.62
474.36	11628.37
474.57	11773.77
474.78	12097.35
474.99	12087.11
475.19	11558.74
475.40	12248.90
475.61	12437.31
475.81	12085.06
476.02	12627.78
476.23	12382.02
476.44	12664.64
476.64	12951.35
476.85	13014.84
477.06	12859.20
477.27	13223.73
477.47	13313.84
477.68	13262.65
477.89	13178.68
478.09	13190.97
478.30	13188.92
478.51	13332.28
478.71	13481.78
478.92	13887.28
479.13	13776.69
479.34	14075.69
479.54	14198.57
479.75	14245.67
479.96	14219.05
480.16	14135.08
480.37	14389.03
480.58	14538.53
480.78	14808.86
480.99	14667.55
481.20	14980.89
481.41	14827.29
481.61	14960.41
481.82	15374.10
482.03	15288.09
482.23	15023.90
482.44	15646.48
482.65	15654.67
482.85	15714.06
483.06	15732.50
483.27	15922.96
483.47	15693.58
483.68	15937.29
483.89	15955.72
484.09	16025.36
484.30	16238.34
484.51	16404.23
484.71	16559.88
484.92	16467.72
485.13	16881.41
485.33	16719.62
485.54	16703.23
485.75	17026.81
485.95	16975.61
486.16	17184.51
486.37	17186.55
486.57	17194.75
486.78	17219.32
486.98	17606.39
487.19	17481.46
487.40	17757.94
487.60	17516.28
487.81	17659.63
488.02	17817.33
488.22	17925.87
488.43	18177.77
488.64	17942.25
488.84	18339.56
489.05	18390.76
489.25	18335.46
489.46	18722.53
489.67	18560.74
489.87	18708.19
490.08	18697.95
490.29	18781.92
490.49	19197.66
490.70	19259.10
490.90	19316.44
491.11	19377.88
491.32	19404.50
491.52	19521.24
491.73	19625.68
491.94	19672.79
492.14	19504.85
492.35	19791.57
492.55	19986.13
492.76	20139.72
492.97	20219.60
493.17	20129.48
493.38	20326.09
493.58	20428.49
493.79	20506.31
494.00	20389.58
494.20	20729.54
494.41	20782.79
494.61	20967.10
494.82	20854.47
495.02	21008.06
495.23	21204.67
495.44	21077.69
495.64	21350.07
495.85	21526.20
496.05	21665.46
496.26	21429.94
496.47	21728.95
496.67	21718.71
496.88	21776.05
497.08	21690.04
497.29	22142.64
497.49	21857.97
497.70	22105.77
497.91	22083.25
498.11	22324.91
498.32	22443.69
498.52	22458.03
498.73	22701.73
498.93	22617.77
499.14	22791.84
499.34	22822.56
499.55	22711.97
499.76	22738.60
499.96	22929.06
500.17	23017.12
500.37	23086.75
500.58	23359.13
500.78	23248.54
500.99	23551.64
501.19	23445.15
501.40	23936.66
501.60	23295.64
501.81	23674.52
502.02	23774.87
502.22	23484.06
502.43	23781.01
502.63	24041.11
502.84	24200.85
503.04	24393.36
503.25	24153.74
503.45	24084.11
503.66	24344.20
503.86	23971.47
504.07	24325.77
504.27	24256.14
504.48	24813.19
504.68	24512.14
504.89	24927.88
505.09	24647.30
505.30	24913.54
505.50	24805.00
505.71	24686.22
505.91	25171.58
506.12	24925.83
506.32	24868.48
506.53	24999.55
506.73	25351.81
506.94	25329.28
507.14	25257.60
507.35	25644.66
507.55	25572.99
507.76	25609.85
507.96	25542.27
508.17	25495.16
508.37	25964.15
508.58	25925.24
508.78	25794.17
508.99	26185.33
509.19	26078.83
509.40	25833.08
509.60	26062.45
509.81	26312.30
510.01	26273.39
510.22	26119.79
510.42	26035.83
510.63	26556.01
510.83	26281.58
511.04	26308.21
511.24	26461.80
511.44	26439.28
511.65	26289.77
511.85	26588.78
512.06	26480.24
512.26	26930.79
512.47	26973.80
512.67	26812.01
512.88	26881.64
513.08	26859.11
513.29	27164.26
513.49	26986.08
513.69	26955.36
513.90	26924.65
514.10	27135.59
514.31	27416.16
514.51	27436.64
514.72	27383.39
514.92	27510.36
515.13	27393.63
515.33	27450.97
515.53	27643.48
515.74	27727.45
515.94	27567.71
516.15	27870.81
516.35	27692.63
516.56	28190.29
516.76	27831.90
516.96	28126.80
517.17	28040.79
517.37	28032.60
517.58	28354.13
517.78	28079.70
517.99	28452.43
518.19	28540.49
518.39	28534.35
518.60	29025.86
518.80	28593.74
519.01	28567.12
519.21	28372.56
519.41	28735.05
519.62	28687.95
519.82	29029.96
520.03	28915.27
520.23	29316.67
520.43	29093.44
520.64	29326.91
520.84	29431.36
521.05	29201.99
521.25	29244.99
521.45	29429.31
521.66	29455.93
521.86	29609.53
522.07	29546.05
522.27	29566.52
522.47	29726.27
522.68	29969.97
522.88	30012.98
523.08	30318.13
523.29	30342.70
523.49	30049.85
523.70	30027.32
523.90	30719.53
524.10	30352.94
524.31	30455.34
524.51	30404.14
524.71	30760.49
524.92	30545.45
525.12	30721.58
525.33	31243.81
525.53	31165.99
525.73	31127.08
525.94	31204.90
526.14	31178.28
526.34	31061.54
526.55	31448.61
526.75	31303.20
526.95	31622.69
527.16	31708.70
527.36	31512.10
527.56	31788.57
527.77	32202.26
527.97	32067.09
528.17	31931.93
528.38	31999.51
528.58	32384.53
528.78	32314.90
528.99	32316.95
529.19	32286.23
529.39	32155.16
529.60	32685.58
529.80	32613.90
530.00	32822.80
530.21	32568.85
530.41	32931.34
530.61	32601.61
530.82	33097.22
531.02	33048.07
531.22	33277.44
531.43	32972.30
531.63	33582.59
531.83	33515.01
532.04	33922.55
532.24	33535.49
532.44	33805.82
532.64	33992.19
532.85	34280.95
533.05	34156.02
533.25	34270.71
533.46	34172.41
533.66	34522.61
533.86	34504.18
534.07	34356.72
534.27	34645.49
534.47	34907.63
534.67	34950.63
534.88	34702.83
535.08	34754.03
535.28	35089.90
535.49	35298.79
535.69	35573.22
535.89	35587.55
536.09	35761.63
536.30	35610.08
536.50	35491.30
536.70	35843.55
536.91	35708.38
537.11	35984.86
537.31	36281.81
537.51	36292.05
537.72	36580.82
537.92	36402.64
538.12	36543.95
538.32	36165.08
538.53	36468.18
538.73	36603.35
538.93	36931.02
539.13	36687.31
539.34	36988.36
539.54	36738.51
539.74	37082.57
539.94	36634.06
540.15	36740.56
540.35	37275.08
540.55	37092.81
540.75	37383.62
540.96	37211.59
541.16	37651.91
541.36	37455.30
541.56	37522.88
541.77	38327.74
541.97	37549.51
542.17	37590.47
542.37	37776.83
542.58	37946.81
542.78	37912.00
542.98	37879.23
543.18	38120.89
543.38	38497.72
543.59	38579.64
543.79	37873.09
543.99	38143.42
544.19	38708.66
544.40	38430.13
544.60	39077.29
544.80	38544.82
545.00	38917.55
545.20	39329.19
545.41	38968.75
545.61	38604.21
545.81	39511.46
546.01	39087.53
546.21	39148.97
546.42	39185.83
546.62	39226.79
546.82	39191.98
547.02	39468.45
547.22	39828.90
547.43	39470.50
547.63	39863.71
547.83	39779.74
548.03	39654.82
548.23	39902.62
548.44	39665.06
548.64	40136.09
548.84	39687.59
549.04	39720.35
549.24	40105.37
549.45	39867.81
549.65	40002.97
549.85	40594.84
550.05	40660.37
550.25	40394.14
550.45	40789.39
550.66	40484.25
550.86	40263.07
551.06	40385.94
551.26	40904.08
551.46	40785.30
551.66	40646.04
551.87	40748.43
552.07	40662.42
552.27	40705.43
552.47	40893.84
552.67	41080.21
552.87	40897.94
553.07	41198.99
553.28	41268.62
553.48	41430.41
553.68	41129.36
553.88	41336.20
554.08	41424.26
554.28	41321.87
554.48	41147.79
554.69	41411.98
554.89	41368.97
555.09	41627.01
555.29	41555.33
555.49	41672.07
555.69	41622.92
555.89	41579.91
556.10	42143.10
556.30	41581.96
556.50	41860.48
556.70	41805.19
556.90	41989.50
557.10	42360.19
557.30	42036.61
557.50	42370.43
557.70	42104.19
557.91	42489.21
558.11	42380.67
558.31	42212.73
558.51	42302.84
558.71	42141.05
558.91	42710.39
559.11	41999.74
559.31	42423.67
559.51	42378.62
559.72	42671.48
559.92	42526.07
560.12	42628.47
560.32	42743.16
560.52	42636.66
560.72	42810.74
560.92	42800.50
561.12	42790.26
561.32	42997.10
561.52	42632.57
561.72	43122.03
561.93	42825.07
562.13	42941.81
562.33	42634.61
562.53	43418.99
562.73	42644.85
562.93	42997.10
563.13	43027.82
563.33	42966.38
563.53	43414.89
563.73	43169.13
563.93	43421.03
564.13	44045.66
564.33	43341.16
564.53	43253.10
564.74	43674.98
564.94	43593.06
565.14	43509.10
565.34	43267.44
565.54	43699.56
565.74	43963.75
565.94	44227.93
566.14	43691.37
566.34	43738.47
566.54	43496.81
566.74	43916.64
566.94	44070.24
567.14	44447.07
567.34	43971.94
567.54	44483.93
567.74	43412.84
567.94	44025.18
568.14	44019.04
568.34	44254.56
568.54	43988.32
568.74	44373.34
568.94	44373.34
569.14	44186.97
569.34	44496.22
569.54	44432.73
569.75	43795.81
569.95	44488.03
570.15	45204.81
570.35	44907.86
570.55	44293.47
570.75	44997.97
570.95	44610.90
571.15	44629.34
571.35	45028.69
571.55	45389.13
571.75	44914.00
571.95	45114.70
572.15	44932.43
572.35	45045.07
572.55	45028.69
572.75	45102.42
572.95	44963.15
573.15	45049.17
573.35	45374.80
573.55	45161.81
573.75	45235.53
573.95	45378.89
574.15	45616.46
574.35	45389.13
574.55	45434.19
574.75	45417.80
574.95	45575.50
575.15	45086.03
575.34	45391.18
575.54	46005.57
575.74	46069.06
575.94	45968.71
576.14	45712.71
576.34	46085.44
576.54	46005.57
576.74	46132.54
576.94	45759.81
577.14	46392.64
577.34	46466.36
577.54	45450.57
577.74	46208.32
577.94	46220.61
578.14	46368.06
578.34	46249.28
578.54	46292.29
578.74	46327.10
578.94	46783.80
579.14	46079.30
579.34	46179.65
579.54	46478.65
579.74	46454.08
579.94	46114.11
580.13	47437.10
580.33	46880.05
580.53	47166.77
580.73	46957.88
580.93	46402.88
581.13	47134.00
581.33	46822.71
581.53	47236.40
581.73	47330.61
581.93	47494.44
582.13	47228.21
582.33	47502.64
582.53	47117.62
582.73	47314.22
582.92	47670.57
583.12	47392.04
583.32	47412.52
583.52	47351.09
583.72	47768.87
583.92	47187.25
584.12	47996.20
584.32	48100.64
584.52	48041.25
584.72	47707.43
584.92	48010.53
585.11	48387.36
585.31	48039.20
585.51	48200.99
585.71	47932.71
585.91	48688.41
586.11	48080.16
586.31	48139.55
586.51	48514.33
586.71	48559.39
586.91	48635.16
587.10	48479.52
587.30	48674.07
587.50	48571.67
587.70	48493.85
587.90	48960.79
588.10	49009.94
588.30	48854.29
588.50	48897.30
588.69	48651.55
588.89	48635.16
589.09	48993.56
589.29	48837.91
589.49	49321.23
589.69	48694.55
589.89	49315.09
590.08	49032.47
590.28	49476.88
590.48	49132.82
590.68	49384.72
590.88	49110.29
591.08	49329.42
591.28	48928.02
591.47	50181.38
591.67	49265.94
591.87	49632.52
592.07	49747.21
592.27	49779.98
592.47	49638.67
592.67	49814.79
592.86	49493.26
593.06	49704.20
593.26	49894.66
593.46	50146.56
593.66	49628.43
593.86	50341.12
594.05	50240.77
594.25	50332.93
594.45	49704.20
594.65	50228.48
594.85	49927.43
595.05	50156.80
595.24	50492.67
595.44	50197.76
595.64	50410.75
595.84	50423.04
596.04	50664.70
596.23	50500.86
596.43	50414.85
596.63	50599.16
596.83	51150.07
597.03	50777.34
597.22	50683.13
597.42	50674.94
597.62	51225.84
597.82	51246.32
598.02	50867.45
598.21	50957.56
598.41	50855.16
598.61	50967.80
598.81	51049.72
599.01	51553.52
599.20	51324.14
599.40	51260.66
599.60	51256.56
599.80	51217.65
600.00	51743.98
600.19	51870.95
600.39	51322.10
600.59	51391.73
600.79	52067.56
600.98	51494.13
601.18	52008.17
601.38	51879.14
601.58	52194.53
601.78	52079.85
601.97	52280.55
602.17	52425.95
602.37	52331.75
602.57	51842.28
602.76	52432.10
602.96	52249.83
603.16	52415.71
603.36	52071.65
603.55	52901.08
603.75	52370.66
603.95	52669.66
604.15	52688.09
604.34	52548.83
604.54	52860.12
604.74	52245.73
604.94	52618.46
605.13	53079.25
605.33	52708.57
605.53	52444.38
605.73	52845.79
605.92	52999.38
606.12	53423.31
606.32	53140.69
606.52	52958.42
606.71	53304.53
606.91	53318.87
607.11	53159.12
607.30	53263.57
607.50	53490.90
607.70	53699.79
607.90	53112.02
608.09	53656.78
608.29	53972.17
608.49	53820.62
608.68	53789.90
608.88	53658.83
609.08	53656.78
609.28	54133.96
609.47	53466.32
609.67	53820.62
609.87	53990.60
610.06	53599.44
610.26	53888.20
610.46	54285.51
610.66	53675.21
610.85	54136.01
611.05	53970.12
611.25	53998.79
611.44	53816.52
611.64	53902.54
611.84	53771.47
612.03	54033.61
612.23	53982.41
612.43	53818.57
612.62	53896.39
612.82	53941.45
613.02	54297.80
613.21	54807.74
613.41	54123.72
613.61	54031.56
613.80	53896.39
614.00	54408.39
614.20	53912.78
614.39	54697.15
614.59	54269.12
614.79	54232.26
614.98	54367.43
615.18	54273.22
615.38	54846.65
615.57	54586.56
615.77	54639.81
615.97	54666.43
616.16	54066.38
616.36	54432.96
616.56	54619.33
616.75	54432.96
616.95	54303.94
617.15	54271.17
617.34	54535.36
617.54	54625.47
617.74	54842.56
617.93	54588.61
618.13	54437.06
618.32	54588.61
618.52	54506.69
618.72	54101.19
618.91	54731.96
619.11	54420.67
619.31	54529.22
619.50	54903.99
619.70	54357.19
619.90	54510.78
620.09	54543.55
620.29	54656.19
620.48	54537.41
620.68	54811.84
620.88	54258.88
621.07	54119.62
621.27	54400.19
621.46	54457.54
621.66	54508.74
621.86	54435.01
622.05	54387.91
622.25	54695.10
622.44	53925.07
622.64	54641.85
622.84	54645.95
623.03	54312.13
623.23	54590.66
623.42	54543.55
623.62	54961.34
623.82	54869.18
624.01	54523.07
624.21	54740.16
624.40	54303.94
624.60	54592.70
624.80	54260.93
624.99	54492.35
625.19	54140.10
625.38	54621.37
625.58	54244.55
625.77	54777.02
625.97	54920.38
626.17	54408.39
626.36	54371.52
626.56	54506.69
626.75	54203.59
626.95	54404.29
627.14	54535.36
627.34	54813.88
627.54	54359.23
627.73	54424.77
627.93	54836.41
628.12	53912.78
628.32	54633.66
628.51	54394.05
628.71	54604.99
628.90	54488.26
629.10	54351.04
629.30	54783.16
629.49	54557.89
629.69	54285.51
629.88	54744.25
630.08	54924.47
630.27	54463.68
630.47	54760.64
630.66	54011.08
630.86	54346.95
631.05	54004.94
631.25	54969.53
631.44	54553.79
631.64	54160.58
631.84	54680.77
632.03	55135.41
632.23	54404.29
632.42	54752.44
632.62	54752.44
632.81	54572.22
633.01	54600.89
633.20	55026.87
633.40	54906.04
633.59	54858.94
633.79	54400.19
633.98	54723.77
634.18	54795.45
634.37	54973.63
634.57	55223.48
634.76	55071.93
634.96	55286.96
635.15	54990.01
635.35	54572.22
635.54	54482.11
635.74	54957.24
635.93	54400.19
636.13	54887.61
636.32	55131.32
636.52	54435.01
636.71	54756.54
636.91	54918.33
637.10	54815.93
637.30	54871.23
637.49	54703.29
637.69	54672.57
637.88	55135.41
638.08	54830.27
638.27	55471.28
638.46	55184.57
638.66	54736.06
638.85	54762.68
639.05	55123.13
639.24	55055.54
639.44	54834.36
639.63	55135.41
639.83	55065.78
640.02	54815.93
640.22	55313.59
640.41	55147.70
640.61	54424.77
640.80	54912.19
640.99	54981.82
641.19	55149.75
641.38	55252.15
641.58	54967.48
641.77	55071.93
641.97	54772.92
642.16	55348.40
642.36	55217.33
642.55	55323.83
642.74	54883.51
642.94	55833.77
643.13	55141.56
643.33	55340.21
643.52	55542.96
643.72	55426.23
643.91	55166.13
644.10	55241.91
644.30	55352.50
644.49	54830.27
644.69	55432.37
644.88	55106.74
645.08	54924.47
645.27	55153.85
645.46	54715.58
645.66	55710.89
645.85	55272.63
646.05	55432.37
646.24	55524.53
646.43	55463.09
646.63	55786.67
646.82	55774.38
647.02	55342.26
647.21	55686.32
647.40	55655.60
647.60	55698.61
647.79	55657.65
647.99	55497.91
648.18	55438.51
648.37	55981.23
648.57	55817.39
648.76	55616.69
648.96	55475.38
649.15	55637.17
649.34	55911.59
649.54	55809.20
649.73	55536.82
649.92	55989.42
650.12	55891.12
650.31	55786.67
650.51	56095.91
650.70	56122.54
650.89	55817.39
651.09	56392.87
651.28	56143.02
651.47	56128.68
651.67	56138.92
651.86	56198.31
652.06	55958.70
652.25	55979.18
652.44	56329.38
652.64	55968.94
652.83	55620.78
653.02	55612.59
653.22	55899.31
653.41	55780.52
653.60	55262.39
653.80	55917.74
653.99	56401.06
654.18	55751.85
654.38	55880.88
654.57	55936.17
654.76	55727.28
654.96	55733.42
655.15	56075.43
655.34	55794.86
655.54	55643.31
655.73	56366.24
655.92	55977.13
656.12	56310.95
656.31	56450.21
656.50	56145.06
656.70	56009.90
656.89	56126.63
657.08	56194.21
657.28	55921.83
657.47	56022.19
657.66	56095.91
657.86	56009.90
658.05	56214.69
658.24	56364.20
658.43	55610.54
658.63	56286.37
658.82	55981.23
659.01	56370.34
659.21	56226.98
659.40	56292.52
659.59	55760.05
659.79	56431.78
659.98	56741.02
660.17	56718.49
660.36	56253.61
660.56	56394.92
660.75	56341.67
660.94	56370.34
661.14	56382.63
661.33	55940.27
661.52	56138.92
661.71	56399.01
661.91	56095.91
662.10	55891.12
662.29	56816.80
662.49	56194.21
662.68	56435.87
662.87	56388.77
663.06	56523.94
663.26	56202.41
663.45	56521.89
663.64	56435.87
663.83	56921.24
664.03	56710.30
664.22	56403.11
664.41	56898.72
664.60	55923.88
664.80	56505.51
664.99	56290.47
665.18	56210.60
665.37	56986.78
665.57	56593.57
665.76	56325.28
665.95	56487.07
666.14	56509.60
666.34	56095.91
666.53	56259.75
666.72	56530.08
666.91	56167.59
667.11	56278.18
667.30	56546.47
667.49	56259.75
667.68	56337.57
667.87	56405.16
668.07	56333.48
668.26	56446.11
668.45	56437.92
668.64	56341.67
668.84	56767.65
669.03	56605.86
669.22	56448.16
669.41	56894.62
669.60	56364.20
669.80	56364.20
669.99	56896.67
670.18	56566.94
670.37	56439.97
670.57	56798.37
670.76	56292.52
670.95	56700.06
671.14	56786.08
671.33	55989.42
671.53	56624.29
671.72	56333.48
671.91	56558.75
672.10	56292.52
672.29	56300.71
672.48	56421.54
672.68	57167.00
672.87	56485.03
673.06	56267.94
673.25	56151.21
673.44	56050.86
673.64	56065.19
673.83	56016.04
674.02	56265.89
674.21	56022.19
674.40	56472.74
674.59	55993.51
674.79	56253.61
674.98	55833.77
675.17	56169.64
675.36	55647.41
675.55	55835.82
675.74	55989.42
675.94	55815.34
676.13	56284.33
676.32	56493.22
676.51	56632.48
676.70	56100.01
676.89	56218.79
677.08	56337.57
677.28	56536.23
677.47	56317.09
677.66	56304.80
677.85	56194.21
678.04	56554.66
678.23	56642.72
678.42	56407.20
678.62	56126.63
678.81	56562.85
679.00	56151.21
679.19	56319.14
679.38	56087.72
679.57	56196.26
679.76	55835.82
679.96	56431.78
680.15	55751.85
680.34	56102.06
680.53	55856.30
680.72	56534.18
680.91	56659.10
681.10	56112.30
681.29	55936.17
681.48	56130.73
681.68	55927.98
681.87	56411.30
682.06	56190.12
682.25	55567.54
682.44	56079.53
682.63	56063.14
682.82	55743.66
683.01	56120.49
683.20	55329.97
683.39	55801.00
683.59	55348.40
683.78	55733.42
683.97	55721.13
684.16	55659.69
684.35	55178.42
684.54	55526.58
684.73	55772.33
684.92	55209.14
685.11	55147.70
685.30	55469.23
685.49	56042.66
685.69	55813.29
685.88	55635.12
686.07	55592.11
686.26	55452.85
686.45	55798.96
686.64	55663.79
686.83	55209.14
687.02	55422.13
687.21	55526.58
687.40	55780.52
687.59	55162.04
687.78	55366.84
687.97	55520.43
688.16	55446.71
688.35	54967.48
688.54	54912.19
688.74	55377.08
688.93	55284.92
689.12	55151.80
689.31	55669.93
689.50	55319.73
689.69	54891.71
689.88	54629.57
690.07	55354.55
690.26	54873.27
690.45	55710.89
690.64	55631.02
690.83	54752.44
691.02	54502.59
691.21	55071.93
691.40	55139.51
691.59	55069.88
691.78	55059.64
691.97	54957.24
692.16	54793.40
692.35	55334.07
692.54	55129.27
692.73	55180.47
692.92	54852.80
693.11	54648.00
693.30	54660.29
693.49	55010.49
693.68	54998.20
693.87	54928.57
694.06	54457.54
694.25	54402.24
694.44	54723.77
694.63	54586.56
694.82	54766.78
695.01	54484.16
695.20	54514.88
695.39	54564.03
695.58	54787.26
695.77	54215.88
695.96	53943.50
696.15	54523.07
696.34	54279.36
696.53	54367.43
696.72	54318.28
696.91	54736.06
697.10	54346.95
697.29	54228.16
697.48	54740.16
697.67	54185.16
697.86	54023.37
698.05	54232.26
698.24	54449.35
698.43	53607.63
698.62	54154.44
698.81	53671.12
699.00	53970.12
699.19	53583.05
699.38	53961.93
699.57	53638.35
699.76	54531.26
699.95	53789.90
700.14	53576.91
700.32	54230.21
700.51	53685.45
700.70	53785.80
700.89	54222.02
701.08	53994.70
701.27	53775.56
701.46	54049.99
701.65	53748.94
701.84	53621.97
702.03	53937.35
702.22	53540.05
702.41	53765.32
702.60	53949.64
702.79	53451.98
702.98	53142.74
703.17	53212.37
703.35	53071.06
703.54	52991.19
703.73	53441.74
703.92	53241.04
704.11	53122.26
704.30	53310.67
704.49	53048.53
704.68	52825.31
704.87	53327.06
705.06	53230.80
705.25	52749.53
705.43	52939.99
705.62	53064.92
705.81	52806.87
706.00	52878.55
706.19	52714.72
706.38	52544.73
706.57	52815.07
706.76	52573.41
706.95	52786.39
707.14	52782.30
707.32	52036.84
707.51	52794.59
707.70	52862.17
707.89	52442.34
708.08	52522.21
708.27	52438.24
708.46	52841.69
708.65	52667.61
708.84	53083.35
709.02	52688.09
709.21	52460.77
709.40	52552.93
709.59	52428.00
709.78	52212.96
709.97	52495.58
710.16	52210.92
710.34	52085.99
710.53	52276.45
710.72	52053.22
710.91	52241.63
711.10	52468.96
711.29	52067.56
711.48	52319.46
711.66	52413.66
711.85	51913.96
712.04	51854.57
712.23	51645.68
712.42	51825.90
712.61	52042.98
712.80	51596.52
712.98	51946.73
713.17	51895.53
713.36	51053.81
713.55	51721.45
713.74	51645.68
713.93	52083.94
714.11	51731.69
714.30	51434.74
714.49	51289.33
714.68	51999.97
714.87	51559.66
715.06	51592.43
715.24	51324.14
715.43	51129.59
715.62	51256.56
715.81	51119.35
716.00	51492.08
716.18	50928.89
716.37	50849.02
716.56	50873.59
716.75	51453.17
716.94	50969.85
717.12	50814.20
717.31	50973.94
717.50	51074.29
717.69	50697.47
717.88	50994.42
718.06	50984.18
718.25	50932.98
718.44	50693.37
718.63	51148.02
718.82	50117.89
719.00	50138.37
719.19	50593.02
719.38	50330.88
719.57	49816.84
719.76	49601.80
719.94	49878.28
720.13	50267.39
720.32	50169.09
720.51	49927.43
720.69	49960.20
720.88	50035.97
721.07	50007.30
721.26	49792.26
721.44	49497.36
721.63	49710.35
721.82	49433.87
722.01	49462.54
722.20	49743.11
722.38	48999.70
722.57	49487.12
722.76	49444.11
722.95	48960.79
723.13	48997.65
723.32	49345.81
723.51	48796.95
723.70	49003.80
723.88	49216.78
724.07	49224.98
724.26	49022.23
724.44	48248.10
724.63	48737.56
724.82	49175.83
725.01	49085.72
725.19	48739.61
725.38	48500.00
725.57	48411.93
725.76	48706.84
725.94	48512.28
726.13	48469.28
726.32	48325.92
726.51	48397.60
726.69	48854.29
726.88	48567.58
727.07	48889.11
727.25	48256.29
727.44	48667.93
727.63	48346.40
727.82	48268.58
728.00	48471.32
728.19	48215.33
728.38	48416.03
728.56	47926.56
728.75	48467.23
728.94	47979.81
729.12	48031.01
729.31	48387.36
729.50	48086.31
729.69	48514.33
729.87	47850.79
730.06	48317.73
730.25	48506.14
730.43	48301.34
730.62	48192.80
730.81	48006.44
730.99	48196.90
731.18	48225.57
731.37	48084.26
731.55	47912.23
731.74	48309.53
731.93	48307.49
732.11	48239.90
732.30	48074.02
732.49	48014.63
732.67	48510.24
732.86	48280.86
733.05	48387.36
733.23	47689.00
733.42	48278.82
733.61	47799.59
733.79	48211.23
733.98	48305.44
734.17	47742.25
734.35	47617.32
734.54	48076.07
734.73	48454.94
734.91	47707.43
735.10	48078.11
735.29	47949.09
735.47	47381.80
735.66	47748.39
735.84	47697.19
736.03	47760.68
736.22	48166.18
736.40	47928.61
736.59	47785.25
736.78	47787.30
736.96	47453.48
737.15	47535.40
737.33	47531.31
737.52	47609.13
737.71	47578.41
737.89	47510.83
738.08	47476.01
738.27	47177.01
738.45	47607.08
738.64	47332.65
738.82	47379.76
739.01	47111.47
739.20	47039.79
739.38	47177.01
739.57	47514.92
739.75	47263.02
739.94	46931.25
740.13	47580.46
740.31	47287.60
740.50	46822.71
740.68	47113.52
740.87	47377.71
741.06	46980.40
741.24	46736.69
741.43	46665.02
741.61	47068.47
741.80	46812.47
741.99	47058.23
742.17	46665.02
742.36	46593.34
742.54	46619.96
742.73	46761.27
742.91	46845.24
743.10	46683.45
743.29	46800.18
743.47	46937.40
743.66	47142.19
743.84	46566.71
744.03	46495.03
744.21	46970.16
744.40	46617.91
744.59	46431.55
744.77	46110.02
744.96	46556.47
745.14	46406.97
745.33	46320.96
745.51	46292.29
745.70	46200.13
745.88	46036.29
746.07	46392.64
746.26	46183.74
746.44	46239.04
746.63	46280.00
746.81	46177.60
747.00	46187.84
747.18	46660.92
747.37	46179.65
747.55	45796.68
747.74	46126.40
747.92	45995.33
748.11	45704.52
748.29	45985.09
748.48	45942.08
748.66	45817.16
748.85	45688.13
749.03	45321.55
749.22	46081.34
749.41	45624.65
749.59	46132.54
749.78	45110.61
749.96	45798.73
750.15	45858.12
750.33	45264.21
750.52	45575.50
750.70	45585.74
750.89	45372.75
751.07	45368.65
751.26	45819.20
751.44	45356.36
751.63	45428.04
751.81	45088.08
752.00	45030.74
752.18	45307.21
752.37	44965.20
752.55	44666.20
752.74	44588.38
752.92	44948.82
753.10	44762.45
753.29	44938.58
753.47	44414.30
753.66	44318.04
753.84	44860.76
754.03	44694.87
754.21	44651.86
754.40	45000.02
754.58	44963.15
754.77	44627.29
754.95	44424.54
755.14	44615.00
755.32	44684.63
755.51	44377.43
755.69	44533.08
755.88	44387.67
756.06	44600.66
756.24	44375.39
756.43	44115.29
756.61	44332.38
756.80	44547.42
756.98	44254.56
757.17	44213.60
757.35	43998.56
757.54	44373.34
757.72	43971.94
757.90	43982.18
758.09	43861.35
758.27	44352.86
758.46	43881.83
758.64	43787.62
758.83	44094.82
759.01	43971.94
759.19	43918.69
759.38	43967.84
759.56	44424.54
759.75	44068.19
759.93	44055.90
760.12	43763.04
760.30	43814.24
760.48	43566.44
760.67	43720.04
760.85	43625.83
761.04	43607.40
761.22	44043.62
761.40	43621.73
761.59	43636.07
761.77	43105.65
761.96	43615.59
762.14	42913.14
762.32	43095.41
762.51	43277.68
762.69	42956.14
762.88	43003.25
763.06	43173.23
763.24	43283.82
763.43	43343.21
763.61	42796.40
763.80	42906.99
763.98	42845.55
764.16	43044.21
764.35	42796.40
764.53	42278.27
764.72	42759.54
764.90	42661.24
765.08	43009.39
765.27	42491.26
765.45	42059.13
765.63	41809.28
765.82	42370.43
766.00	42296.70
766.18	42392.95
766.37	42866.03
766.55	41942.40
766.74	42478.97
766.92	42083.71
767.10	42200.44
767.29	42466.68
767.47	41784.71
767.65	42001.79
767.84	41753.99
768.02	42161.53
768.20	41561.48
768.39	41944.45
768.57	42116.48
768.75	42036.61
768.94	41883.01
769.12	41715.08
769.30	41532.81
769.49	41379.21
769.67	41096.59
769.85	41295.24
770.04	41547.14
770.22	40996.24
770.40	41248.14
770.59	41442.70
770.77	41246.09
770.95	41467.27
771.14	41121.16
771.32	41129.36
771.50	40660.37
771.69	41280.91
771.87	41029.01
772.05	40902.03
772.24	40578.45
772.42	40531.35
772.60	40832.40
772.78	40586.64
772.97	40527.25
773.15	41098.64
773.33	40310.17
773.52	40357.27
773.70	40568.21
773.88	40809.87
774.07	40781.20
774.25	40449.43
774.43	40701.33
774.61	40510.87
774.80	40469.91
774.98	40543.64
775.16	40865.17
775.34	41010.57
775.53	40574.36
775.71	41219.47
775.89	40758.67
776.08	40639.89
776.26	40955.28
776.44	40508.82
776.62	40768.91
776.81	40867.22
776.99	40820.11
777.17	40748.43
777.35	40875.41
777.54	40932.75
777.72	41201.04
777.90	41029.01
778.08	41031.05
778.27	40998.29
778.45	41325.96
778.63	41323.91
778.81	40842.64
779.00	41782.66
779.18	40799.63
779.36	41598.34
779.54	41170.32
779.73	41061.77
779.91	41110.92
780.09	41512.33
780.27	41411.98
780.46	41575.81
780.64	41198.99
780.82	41342.35
781.00	40998.29
781.19	41373.06
781.37	41534.85
781.55	41741.70
781.73	41919.87
781.91	41053.58
782.10	41276.81
782.28	41303.43
782.46	41661.83
782.64	41500.04
782.82	41209.23
783.01	41549.19
783.19	41657.73
783.37	41573.77
783.55	41244.04
783.74	41823.62
783.92	41151.88
784.10	41708.93
784.28	42044.80
784.46	41596.29
784.64	41297.29
784.83	41635.20
785.01	41956.74
785.19	41719.17
785.37	41563.53
785.55	41684.36
785.74	40844.69
785.92	41500.04
786.10	41350.54
786.28	41182.60
786.46	41293.19
786.64	41342.35
786.83	41147.79
787.01	41428.36
787.19	41180.56
787.37	41377.16
787.55	40965.52
787.74	41047.44
787.92	41325.96
788.10	40938.90
788.28	40826.26
788.46	40875.41
788.64	41153.93
788.82	41201.04
789.01	41047.44
789.19	40979.85
789.37	40605.08
789.55	40736.15
789.73	40314.26
789.91	40406.42
790.09	40760.72
790.28	40261.02
790.46	40033.69
790.64	40781.20
790.82	40494.49
791.00	40183.19
791.18	40387.99
791.36	40121.76
791.55	39857.57
791.73	39683.49
791.91	39826.85
792.09	39921.05
792.27	39753.12
792.45	39927.20
792.63	39714.21
792.81	39165.35
793.00	39142.83
793.18	39306.66
793.36	39181.74
793.54	39124.40
793.72	38831.54
793.90	39314.86
794.08	39116.20
794.26	38579.64
794.44	38436.28
794.62	38819.25
794.81	39112.11
794.99	38256.06
795.17	38880.69
795.35	38561.20
795.53	38557.11
795.71	38901.17
795.89	38415.80
796.07	38204.86
796.25	37686.72
796.43	38270.39
796.61	37987.77
796.80	37764.54
796.98	37692.86
797.16	37535.17
797.34	37682.62
797.52	37168.58
797.70	38059.45
797.88	37156.30
798.06	36879.82
798.24	37154.25
798.42	37062.09
798.60	37195.21
798.78	36754.90
798.96	37062.09
799.14	36806.09
799.32	37135.82
799.51	36589.01
799.69	36892.11
799.87	36568.53
800.05	36500.95
800.23	36249.05
800.41	36152.79
800.59	36158.94
800.77	36095.45
800.95	35712.48
801.13	36181.46
801.31	35653.09
801.49	35900.89
801.67	35628.51
801.85	35655.14
802.03	35753.44
802.21	35044.84
802.39	34999.79
802.57	35462.63
802.75	35177.96
802.93	35272.17
803.11	34924.01
803.29	34842.09
803.47	34860.52
803.65	34950.63
803.83	35165.67
804.01	34625.01
804.19	34463.22
804.37	34407.92
804.55	34504.18
804.73	34590.19
804.91	34059.77
805.09	34561.52
805.27	34469.36
805.45	34776.56
805.63	33953.27
805.81	34143.74
805.99	33943.03
806.17	34266.61
806.35	34178.55
806.53	33734.14
806.71	33797.63
806.89	33553.92
807.07	33746.43
807.25	33555.97
807.43	33420.80
807.61	33904.12
807.79	33711.61
807.97	33422.85
808.15	33263.11
808.33	33330.69
808.51	33035.78
808.69	33005.06
808.87	32792.08
809.05	32599.57
809.23	32400.91
809.41	32529.94
809.59	32460.30
809.77	33187.33
809.95	32132.63
810.13	32757.26
810.31	32245.27
810.49	32337.43
810.67	32374.29
810.84	32380.43
811.02	31991.32
811.20	32030.23
811.38	31938.07
811.56	31776.28
811.74	31604.25
811.92	31858.20
812.10	31946.26
812.28	32140.82
812.46	31534.62
812.64	31745.56
812.82	31411.74
813.00	31553.05
813.18	31776.28
813.36	31442.46
813.53	30975.53
813.71	31305.25
813.89	31262.24
814.07	31204.90
814.25	31133.22
814.43	31051.30
814.61	30797.35
814.79	31157.80
814.97	31061.54
815.15	30967.34
815.33	30608.94
815.50	30400.05
815.68	30756.39
815.86	31122.98
816.04	30725.68
816.22	30361.14
816.40	30379.57
816.58	30156.34
816.76	30234.16
816.94	30258.74
817.11	30084.66
817.29	30385.71
817.47	30242.35
817.65	29947.45
817.83	30117.43
818.01	29752.89
818.19	29537.85
818.37	30361.14
818.54	29593.15
818.72	29406.78
818.90	29742.65
819.08	29500.99
819.26	29769.27
819.44	29611.58
819.62	29343.30
819.80	29492.80
819.97	29339.20
820.15	29365.82
820.33	29204.03
820.51	29423.17
820.69	28876.36
820.87	29154.88
821.05	29578.81
821.22	29011.53
821.40	29060.68
821.58	29081.16
821.76	28999.24
821.94	28958.28
822.12	28651.08
822.29	29007.43
822.47	28589.64
822.65	29005.38
822.83	28552.78
823.01	28434.00
823.19	28444.24
823.36	28153.43
823.54	28505.68
823.72	28536.40
823.90	28694.09
824.08	28071.51
824.25	28384.85
824.43	28008.02
824.61	28694.09
824.79	28347.98
824.97	27754.07
825.15	28376.66
825.32	28192.34
825.50	27958.87
825.68	27780.70
825.86	27893.33
826.04	28112.47
826.21	28042.84
826.39	27889.24
826.57	27657.82
826.75	27741.78
826.93	27506.27
827.10	27434.59
827.28	27444.83
827.46	27582.04
827.64	27573.85
827.81	27641.43
827.99	27414.11
828.17	27418.21
828.35	27242.08
828.53	27092.58
828.70	27272.80
828.88	27391.58
829.06	27115.11
829.24	27295.33
829.41	26771.05
829.59	27252.32
829.77	27076.19
829.95	26807.91
830.12	26769.00
830.30	26791.53
830.48	26887.78
830.66	27156.07
830.84	26613.35
831.01	26611.31
831.19	27176.55
831.37	26666.60
831.55	26494.57
831.72	26613.35
831.90	26488.43
832.08	26345.07
832.25	26510.96
832.43	26355.31
832.61	26369.65
832.79	26220.14
832.96	26148.46
833.14	26214.00
833.32	26279.54
833.50	26549.87
833.67	26465.90
833.85	26142.32
834.03	26046.07
834.20	26359.41
834.38	26220.14
834.56	26238.58
834.74	25828.98
834.91	25955.96
835.09	25790.07
835.27	25689.72
835.44	25810.55
835.62	25425.53
835.80	25622.14
835.98	25724.54
836.15	25814.65
836.33	25493.12
836.51	25859.70
836.68	25417.34
836.86	25345.66
837.04	25644.66
837.21	25265.79
837.39	25605.75
837.57	25349.76
837.75	25511.55
837.92	25302.65
838.10	25499.26
838.28	24899.20
838.45	24907.40
838.63	25228.93
838.81	25181.82
838.98	25087.62
839.16	25151.10
839.34	25028.23
839.51	24833.67
839.69	24753.80
839.87	24768.13
840.04	25017.99
840.22	24860.29
840.40	25093.76
840.57	24598.15
840.75	24983.17
840.93	24446.60
841.10	24532.62
841.28	24802.95
841.46	24764.04
841.63	24911.49
841.81	24915.59
841.98	24403.60
842.16	24727.17
842.34	24481.42
842.51	24503.95
842.69	24749.70
842.87	24262.29
843.04	24311.44
843.22	24176.27
843.40	24338.06
843.57	24166.03
843.75	24250.00
843.92	24030.87
844.10	24247.95
844.28	24374.92
844.45	24155.79
844.63	24389.26
844.81	24139.41
844.98	24178.32
845.16	23858.84
845.33	24069.78
845.51	24166.03
845.69	23922.32
845.86	23815.83
846.04	23713.43
846.21	23750.29
846.39	23666.33
846.57	23746.20
846.74	23801.49
846.92	23596.70
847.09	23539.35
847.27	23428.76
847.45	23645.85
847.62	23627.42
847.80	23565.98
847.97	23582.36
848.15	23320.22
848.32	23264.92
848.50	23254.69
848.68	23246.49
848.85	23342.75
849.03	23006.88
849.20	23398.04
849.38	23422.62
849.56	23242.40
849.73	23064.22
849.91	22816.42
850.08	23099.04
850.26	23023.26
850.43	23402.14
850.61	22961.83
850.78	22775.46
850.96	22871.72
851.14	22795.94
851.31	23013.02
851.49	22695.59
851.66	22793.89
851.84	22750.88
852.01	23090.85
852.19	22912.67
852.36	22703.78
852.54	22478.50
852.71	22761.12
852.89	22591.14
853.07	22730.41
853.24	22802.08
853.42	22855.33
853.59	22503.08
853.77	22857.38
853.94	22836.90
854.12	22611.62
854.29	22345.39
854.47	22288.04
854.64	22302.38
854.82	22195.89
854.99	22470.31
855.17	22378.15
855.34	22210.22
855.52	22298.28
855.69	22390.44
855.87	22199.98
856.04	22124.21
856.22	22159.02
856.39	22097.58
856.57	22261.42
856.74	21796.53
856.92	22144.69
857.09	21634.74
857.27	21991.09
857.44	22062.77
857.62	21870.26
857.79	21952.18
857.97	21743.28
858.14	21411.51
858.32	21669.56
858.49	21630.65
858.67	21905.07
858.84	21708.47
859.02	21814.96
859.19	21728.95
859.37	21436.09
859.54	21214.91
859.72	21634.74
859.89	21415.61
860.06	21448.38
860.24	21515.96
860.41	21561.02
860.59	21337.79
860.76	21475.00
860.94	21264.06
861.11	21364.41
861.29	21286.59
861.46	21089.98
861.64	20991.68
861.81	20844.23
861.98	21061.31
862.16	20440.78
862.33	20659.91
862.51	20639.43
862.68	20887.23
862.86	21081.79
863.03	20750.02
863.21	20817.60
863.38	20956.86
863.55	20655.81
863.73	20840.13
863.90	20788.93
864.08	20876.99
864.25	20776.64
864.43	20741.83
864.60	20358.86
864.77	20414.15
864.95	20537.03
865.12	20397.77
865.30	20614.85
865.47	20321.99
865.64	20141.77
865.82	20375.24
865.99	20668.10
866.17	20635.33
866.34	20604.61
866.51	20319.95
866.69	20502.22
866.86	20350.67
867.04	20293.32
867.21	20289.23
867.38	19896.02
867.56	19896.02
867.73	20098.77
867.91	20031.18
868.08	19924.69
868.25	19783.38
868.43	19756.75
868.60	19824.34
868.78	19787.47
868.95	20061.90
869.12	19367.64
869.30	19500.76
869.47	19576.53
869.64	19592.92
869.82	19695.32
869.99	19685.08
870.16	19873.49
870.34	19789.52
870.51	19752.66
870.69	19420.89
870.86	19334.87
871.03	19435.22
871.21	19439.32
871.38	19564.25
871.55	19291.87
871.73	19138.27
871.90	19154.65
872.07	19058.40
872.25	18847.46
872.42	18884.32
872.59	19107.55
872.77	18964.19
872.94	19152.60
873.11	19214.04
873.29	18988.77
873.46	19046.11
873.63	19209.95
873.81	18695.91
873.98	19005.15
874.15	18751.20
874.33	18417.38
874.50	18429.67
874.67	18650.85
874.85	18538.21
875.02	18431.72
875.19	18423.53
875.37	18466.53
875.54	18396.90
875.71	18351.85
875.88	18204.39
876.06	18298.60
876.23	18102.00
876.40	18226.92
876.58	18208.49
876.75	17987.31
876.92	17936.11
877.10	18011.89
877.27	17841.90
877.44	17891.06
877.61	17819.38
877.79	18089.71
877.96	17682.16
878.13	17966.83
878.31	17557.24
878.48	17528.56
878.65	17682.16
878.82	17465.08
879.00	17637.11
879.17	17366.78
879.34	17417.97
879.51	17153.79
879.69	17172.22
879.86	17501.94
880.03	17303.29
880.21	17481.46
880.38	17704.69
880.55	17434.36
880.72	17118.97
880.90	17381.11
881.07	17057.53
881.24	17213.18
881.41	17401.59
881.59	17133.31
881.76	17032.96
881.93	17028.86
882.10	16754.43
882.28	16535.30
882.45	16852.73
882.62	16822.02
882.79	17182.46
882.96	16641.79
883.14	16809.73
883.31	16668.42
883.48	16932.61
883.65	16606.98
883.83	16834.30
884.00	16926.46
884.17	16539.40
884.34	16893.69
884.51	16756.48
884.69	16791.30
884.86	16764.67
885.03	16672.51
885.20	16428.81
885.38	16520.96
885.55	16363.27
885.72	16768.77
885.89	16393.99
886.06	16590.59
886.24	16303.88
886.41	16264.97
886.58	16654.08
886.75	16652.03
886.92	16277.26
887.10	16557.83
887.27	16140.04
887.44	16604.93
887.61	16441.09
887.78	16303.88
887.95	16146.19
888.13	15873.81
888.30	15771.41
888.47	16109.32
888.64	16211.72
888.81	16160.52
888.99	16119.56
889.16	15832.85
889.33	15746.83
889.50	15927.05
889.67	15892.24
889.84	15875.85
890.01	15789.84
890.19	15900.43
890.36	15978.25
890.53	15810.32
890.70	15673.10
890.87	15873.81
891.04	15808.27
891.22	15499.03
891.39	15437.59
891.56	15503.12
891.73	15757.07
891.90	15363.86
892.07	15134.49
892.24	15427.35
892.42	15247.13
892.59	15339.29
892.76	15312.66
892.93	15097.63
893.10	15251.22
893.27	15107.87
893.44	15339.29
893.61	15128.35
893.79	15558.42
893.96	14984.99
894.13	15027.99
894.30	15324.95
894.47	15294.23
894.64	15329.05
894.81	15071.00
894.98	15286.04
895.15	15202.07
895.33	15238.94
895.50	15111.96
895.67	15427.35
895.84	14962.46
896.01	15181.59
896.18	14941.98
896.35	15294.23
896.52	14939.93
896.69	14931.74
896.86	15064.86
897.04	15193.88
897.21	15177.50
897.38	15148.82
897.55	14974.75
897.72	15044.38
897.89	14767.90
898.06	15247.13
898.23	14933.79
898.40	15175.45
898.57	14960.41
898.74	14743.33
898.91	15095.58
899.08	15009.56
899.26	14999.32
899.43	15056.67
899.60	14583.59
899.77	15007.52
899.94	14923.55
900.11	14704.42
900.28	14903.07
900.45	14778.14
900.62	14724.90
900.79	15001.37
900.96	15091.48
901.13	14831.39
901.30	14618.40
901.47	14714.66
901.64	14829.34
901.81	14841.63
901.98	14735.14
902.15	14923.55
902.32	14632.74
902.49	14724.90
902.66	14851.87
902.83	14901.02
903.01	14675.74
903.18	14827.29
903.35	14694.18
903.52	14847.77
903.69	14823.20
903.86	14710.56
904.03	14728.99
904.20	14681.89
904.37	15107.87
904.54	14597.92
904.71	14769.95
904.88	14524.19
905.05	14626.59
905.22	15011.61
905.39	14536.48
905.56	14720.80
905.73	14749.47
905.90	14800.67
906.07	14559.01
906.24	14837.53
906.41	14833.44
906.58	14849.82
906.75	14882.59
906.92	14860.06
907.09	14767.90
907.26	14767.90
907.43	14501.67
907.60	14479.14
907.77	14843.68
907.93	14653.22
908.10	14831.39
908.27	14610.21
908.44	14696.22
908.61	14352.16
908.78	14495.52
908.95	14696.22
909.12	14485.28
909.29	14640.93
909.46	14468.90
909.63	14847.77
909.80	14911.26
909.97	14620.45
910.14	14493.47
910.31	14507.81
910.48	14485.28
910.65	14493.47
910.82	14556.96
910.99	14673.70
911.16	14380.84
911.33	14274.34
911.50	14239.53
911.66	14221.10
911.83	14552.87
912.00	14212.90
912.17	13993.77
912.34	14079.79
912.51	14020.39
912.68	14055.21
912.85	14548.77
913.02	14229.29
913.19	14184.23
913.36	14022.44
913.53	13999.91
913.70	13770.54
913.86	14157.61
914.03	13930.28
914.20	13883.18
914.37	14135.08
914.54	13905.71
914.71	14053.16
914.88	13856.56
915.05	13864.75
915.22	13606.70
915.39	13918.00
915.55	13766.45
915.72	13823.79
915.89	13397.81
916.06	13496.11
916.23	13627.18
916.40	13502.26
916.57	13299.51
916.74	13387.57
916.91	13018.94
917.07	13104.95
917.24	13033.27
917.41	13281.08
917.58	13381.43
917.75	13000.51
917.92	13041.46
918.09	12998.46
918.26	12945.21
918.42	13078.33
918.59	13139.77
918.76	12799.80
918.93	12504.90
919.10	12926.78
919.27	12822.33
919.44	12570.43
919.60	13176.63
919.77	12728.13
919.94	12539.71
920.11	12707.65
920.28	12597.06
920.45	12726.08
920.61	12568.38
920.78	12447.55
920.95	12580.67
921.12	12367.68
921.29	12353.35
921.46	12035.91
921.62	12064.58
921.79	12130.12
921.96	12089.16
922.13	11956.04
922.30	11974.47
922.47	11960.14
922.63	11757.39
922.80	11806.54
922.97	11851.60
923.14	11581.26
923.31	11620.17
923.47	11560.78
923.64	12164.93
923.81	11554.64
923.98	11704.14
924.15	11581.26
924.32	11472.72
924.48	11372.37
924.65	11378.51
924.82	11210.58
924.99	11054.94
925.15	11085.65
925.32	11396.95
925.49	11048.79
925.66	11345.75
925.83	10997.59
925.99	10602.33
926.16	11323.22
926.33	10817.37
926.50	10432.35
926.67	10751.84
926.83	10684.25
927.00	10753.88
927.17	10522.46
927.34	10434.40
927.50	10497.89
927.67	10391.39
927.84	10575.71
928.01	10585.95
928.17	10207.08
928.34	10233.70
928.51	10135.40
928.68	10020.71
928.84	9944.94
929.01	9928.55
929.18	9897.83
929.35	9983.85
929.51	9889.64
929.68	9607.02
929.85	9578.35
930.02	9809.77
930.18	9750.38
930.35	9594.73
930.52	9617.26
930.69	9310.07
930.85	9383.79
931.02	9318.26
931.19	9529.20
931.36	9363.31
931.52	9238.39
931.69	9445.23
931.86	9314.16
932.02	9092.98
932.19	8890.23
932.36	9058.17
932.53	8941.43
932.69	8806.27
932.86	8726.39
933.03	8841.08
933.19	8742.78
933.36	8662.91
933.53	8750.97
933.70	8869.75
933.86	8466.30
934.03	8697.72
934.20	8343.42
934.36	8488.83
934.53	8054.66
934.70	8071.04
934.86	8329.09
935.03	7950.21
935.20	8167.30
935.36	8146.82
935.53	7618.44
935.70	7620.49
935.86	7858.06
936.03	7497.61
936.20	7090.07
936.36	7282.58
936.53	7356.30
936.70	7483.28
936.86	7516.05
937.03	7321.49
937.20	7051.16
937.36	7309.20
937.53	6549.40
937.70	6930.33
937.86	6399.90
938.03	6616.99
938.20	7253.91
938.36	6535.07
938.53	6367.13
938.70	5781.42
938.86	6346.66
939.03	5990.31
939.20	6129.57
939.36	5928.87
939.53	5732.26
939.70	5697.45
939.86	5662.63
940.03	5629.87
940.19	5603.24
940.36	5357.49
940.53	5402.54
940.69	4976.56
940.86	5306.29
941.03	5130.16
941.19	4820.92
941.36	5040.05
941.52	4861.88
941.69	4693.94
941.86	4915.12
942.02	5033.91
942.19	4712.38
942.35	4530.11
942.52	4370.37
942.69	4321.21
942.85	4089.79
943.02	4296.64
943.18	4198.34
943.35	4452.28
943.52	4091.84
943.68	4241.34
943.85	4192.19
944.01	4349.89
944.18	3977.16
944.35	4157.38
944.51	4026.31
944.68	3813.32
944.84	3479.50
945.01	4009.92
945.17	3993.54
945.34	3981.25
945.51	3895.24
945.67	3825.61
945.84	3626.95
946.00	3440.59
946.17	3803.08
946.33	3444.68
946.50	3958.72
946.67	3696.58
946.83	3768.26
947.00	3852.23
947.16	3801.03
947.33	3618.76
947.49	4052.93
947.66	3522.51
947.82	3637.19
947.99	3657.67
948.16	4153.28
948.32	3596.23
948.49	3850.18
948.65	4038.59
948.82	3557.32
948.98	3461.07
949.15	3215.31
949.31	3538.89
949.48	3588.04
949.64	3629.00
949.81	3608.52
949.97	3592.14
950.14	3735.50
950.30	3522.51
950.47	3960.77
950.63	3549.13
950.80	3727.30
950.96	3895.24
951.13	3784.65
951.30	3932.10
951.46	3553.23
951.63	3923.91
951.79	3825.61
951.96	4118.47
952.12	3655.62
952.29	3956.68
952.45	3393.48
952.62	4014.02
952.78	3741.64
952.94	3770.31
953.11	3811.27
953.27	3600.33
953.44	3999.68
953.60	4075.46
953.77	3727.30
953.93	3860.42
954.10	3702.73
954.26	3776.45
954.43	3893.19
954.59	4028.35
954.76	4112.32
954.92	3940.29
955.09	3768.26
955.25	3805.13
955.42	3805.13
955.58	4212.67
955.75	3866.56
955.91	3698.63
956.07	3751.88
956.24	3868.61
956.40	3657.67
956.57	3696.58
956.73	3669.96
956.90	4038.59
957.06	3704.78
957.23	3764.17
957.39	3786.69
957.56	4186.05
957.72	3807.17
957.88	3569.61
958.05	3944.39
958.21	3958.72
958.38	3899.33
958.54	3837.89
958.71	3944.39
958.87	3885.00
959.03	3723.21
959.20	3753.93
959.36	3567.56
959.53	3719.11
959.69	3684.30
959.85	4011.97
960.02	3725.26
960.18	3899.33
960.35	3991.49
960.51	3846.09
960.68	3956.68
960.84	3860.42
961.00	3592.14
961.17	3780.55
961.33	3647.43
961.50	3821.51
961.66	3882.95
961.82	3674.06
961.99	3798.98
962.15	3805.13
962.31	3708.87
962.48	3905.48
962.64	3676.10
962.81	3858.37
962.97	3590.09
963.13	4116.42
963.30	3923.91
963.46	3686.34
963.62	3489.74
963.79	3653.58
963.95	3844.04
964.12	3565.51
964.28	3866.56
964.44	3643.34
964.61	3770.31
964.77	3764.17
964.93	3954.63
965.10	3575.75
965.26	3721.16
965.42	3428.30
965.59	3364.81
965.75	3592.14
965.92	3538.89
966.08	3493.83
966.24	3751.88
966.41	3649.48
966.57	3706.82
966.73	3680.20
966.90	3542.99
967.06	3958.72
967.22	3403.72
967.39	3622.86
967.55	3561.42
967.71	3461.07
967.88	3497.93
968.04	3661.77
968.20	3551.18
968.37	3614.66
968.53	3377.10
968.69	3465.16
968.85	3704.78
969.02	3487.69
969.18	3510.22
969.34	3270.61
969.51	3682.25
969.67	3594.19
969.83	3164.11
970.00	3889.09
970.16	3547.08
970.32	3614.66
970.48	3880.90
970.65	3321.81
970.81	3465.16
970.97	3608.52
971.14	3080.14
971.30	3680.20
971.46	3309.52
971.63	3645.38
971.79	3284.94
971.95	3678.15
972.11	3403.72
972.28	3336.14
972.44	3295.18
972.60	3268.56
972.76	3229.65
972.93	3270.61
973.09	3399.63
973.25	3413.96
973.42	3157.97
973.58	3540.94
973.74	3301.33
973.90	3305.42
974.07	3049.43
974.23	3383.24
974.39	3286.99
974.55	3327.95
974.72	3182.54
974.88	3303.37
975.04	3270.61
975.20	3381.20
975.37	3043.28
975.53	3272.65
975.69	3325.90
975.85	3309.52
976.01	2904.02
976.18	2981.84
976.34	2967.51
976.50	3074.00
976.66	3284.94
976.83	3182.54
976.99	3022.80
977.15	3211.22
977.31	2731.99
977.47	3133.39
977.64	3125.20
977.80	3033.04
977.96	2838.48
978.12	3045.33
978.29	2863.06
978.45	3006.42
978.61	2924.50
978.77	2848.72
978.93	2899.92
979.10	2875.35
979.26	2891.73
979.42	3030.99
979.58	2721.75
979.74	2787.29
979.91	2838.48
980.07	2838.48
980.23	2519.00
980.39	2842.58
980.55	2707.41
980.71	2824.15
980.88	2844.63
981.04	2822.10
981.20	2656.22
981.36	2625.50
981.52	2754.52
981.68	2531.29
981.85	3188.69
982.01	2623.45
982.17	2590.68
982.33	2557.91
982.49	2996.18
982.65	2877.40
982.82	2680.79
982.98	2639.83
983.14	2705.37
983.30	2596.82
983.46	2633.69
983.62	2850.77
983.79	2629.59
983.95	2564.06
984.11	2467.80
984.27	2623.45
984.43	2551.77
984.59	2772.95
984.75	2672.60
984.91	2510.81
985.08	2543.58
985.24	2500.57
985.40	2361.31
985.56	2605.02
985.72	2645.98
985.88	2672.60
986.04	2641.88
986.20	2523.10
986.37	2559.96
986.53	2475.99
986.69	2648.02
986.85	2580.44
987.01	2328.54
987.17	2652.12
987.33	2338.78
987.49	2324.44
987.65	2404.32
987.82	2375.64
987.98	2269.15
988.14	2449.37
988.30	2482.14
988.46	2430.94
988.62	2465.75
988.78	2246.62
988.94	2301.92
989.10	2334.68
989.26	2332.64
989.42	2355.16
989.59	2349.02
989.75	2367.45
989.91	2367.45
990.07	2095.07
990.23	2379.74
990.39	2297.82
990.55	2306.01
990.71	2160.61
990.87	2400.22
991.03	2486.23
991.19	2191.33
991.35	2207.71
991.51	2279.39
991.67	2502.62
991.83	2224.09
992.00	2189.28
992.16	2285.53
992.32	2183.13
992.48	2236.38
992.64	2215.90
992.80	2185.18
992.96	2222.05
993.12	2324.44
993.28	2287.58
993.44	2090.98
993.60	2211.81
993.76	2142.18
993.92	2207.71
994.08	2340.83
994.24	1990.63
994.40	2301.92
994.56	2201.57
994.72	2021.35
994.88	2150.37
995.04	2066.40
995.20	2224.09
995.36	2154.46
995.52	2226.14
995.68	2220.00
995.84	2025.44
996.00	2267.10
996.16	2013.15
996.32	2095.07
996.48	2095.07
996.64	2338.78
996.80	2211.81
996.96	2086.88
997.12	2097.12
997.28	1974.24
997.44	1912.80
997.60	2101.22
997.76	2074.59
997.92	2107.36
998.08	2144.22
998.24	1925.09
998.40	2033.63
998.56	2054.11
998.72	1953.76
998.88	2070.50
999.04	1998.82
999.20	2031.58
999.36	1892.32
999.52	2045.92
999.68	2021.35
999.84	2070.50
1000.00	1978.34
1000.16	2121.70
1000.32	1841.12
1000.48	1994.72
1000.64	1947.62
1000.80	1839.08
1000.95	1783.78
1001.11	2070.50
1001.27	1943.52
1001.43	2027.49
1001.59	1951.71
1001.75	1875.94
1001.91	2011.11
1002.07	1941.47
1002.23	1875.94
1002.39	1857.51
1002.55	1865.70
1002.71	1794.02
1002.87	2019.30
1003.03	1867.75
1003.19	1957.86
1003.34	2127.84
1003.50	1822.69
1003.66	2033.63
1003.82	1884.13
1003.98	1853.41
1004.14	2144.22
1004.30	1841.12
1004.46	1869.80
1004.62	2017.25
1004.78	1869.80
1004.94	1863.65
1005.09	1912.80
1005.25	1861.60
1005.41	1927.14
1005.57	1791.97
1005.73	1806.31
1005.89	1773.54
1006.05	1855.46
1006.21	1925.09
1006.37	1826.79
1006.52	1791.97
1006.68	1769.44
1006.84	1896.42
1007.00	1834.98
1007.16	1861.60
1007.32	1769.44
1007.48	1863.65
1007.64	1818.60
1007.79	1769.44
1007.95	1740.77
1008.11	1931.23
1008.27	1783.78
1008.43	1798.12
1008.59	1904.61
1008.75	1847.27
1008.91	1875.94
1009.06	1789.92
1009.22	1824.74
1009.38	1892.32
1009.54	1763.30
1009.70	1810.40
1009.86	1822.69
1010.01	1851.36
1010.17	1708.01
1010.33	1826.79
1010.49	1820.64
1010.65	1984.48
1010.81	1660.90
1010.96	1759.21
1011.12	1691.62
1011.28	1660.90
1011.44	2002.91
1011.60	1771.49
1011.76	1681.38
1011.91	1787.88
1012.07	1685.48
1012.23	1660.90
1012.39	1728.49
1012.55	1765.35
1012.71	1806.31
1012.86	1742.82
1013.02	1781.73
1013.18	1744.87
1013.34	1781.73
1013.50	1822.69
1013.65	1773.54
1013.81	1773.54
1013.97	1755.11
1014.13	1675.24
1014.29	1740.77
1014.44	1880.04
1014.60	1728.49
1014.76	1697.77
1014.92	1751.01
1015.07	1796.07
1015.23	1781.73
1015.39	1708.01
1015.55	1740.77
1015.71	1718.25
1015.86	1662.95
1016.02	1675.24
1016.18	1697.77
1016.34	1714.15
1016.49	1736.68
1016.65	1830.88
1016.81	1681.38
1016.97	1773.54
1017.12	1757.16
1017.28	1732.58
1017.44	1658.85
1017.60	1697.77
1017.75	1718.25
1017.91	1746.92
1018.07	1642.47
1018.23	1773.54
1018.38	1654.76
1018.54	1626.09
1018.70	1742.82
1018.86	1722.34
1019.01	1757.16
1019.17	1738.73
1019.33	1822.69
1019.49	1748.97
1019.64	1767.40
1019.80	1689.57
1019.96	1748.97
1020.12	1748.97
1020.27	1581.03
1020.43	1712.10
1020.59	1677.29
1020.74	1736.68
1020.90	1712.10
1021.06	1654.76
1021.22	1634.28
1021.37	1708.01
1021.53	1691.62
1021.69	1757.16
1021.84	1683.43
1022.00	1759.21
1022.16	1718.25
1022.31	1724.39
1022.47	1724.39
1022.63	1732.58
1022.79	1673.19
1022.94	1724.39
1023.10	1736.68
1023.26	1656.81
1023.41	1699.81
1023.57	1716.20
1023.73	1716.20
1023.88	1716.20
1024.04	1609.70
1024.20	1636.33
1024.35	1722.34
1024.51	1679.33
1024.67	1673.19
1024.82	1771.49
1024.98	1585.13
1025.14	1716.20
1025.29	1605.61
1025.45	1710.05
1025.61	1644.52
1025.76	1705.96
1025.92	1667.05
1026.08	1667.05
1026.23	1667.05
1026.39	1701.86
1026.55	1738.73
1026.70	1634.28
1026.86	1640.42
1027.02	1714.15
1027.17	1689.57
1027.33	1648.61
1027.48	1638.38
1027.64	1650.66
1027.80	1671.14
1027.95	1681.38
1028.11	1617.90
1028.27	1714.15
1028.42	1759.21
1028.58	1640.42
1028.73	1607.66
1028.89	1564.65
1029.05	1742.82
1029.20	1724.39
>>>>>End Processed Spectral Data<<<<<
