SpectraSuite Data File
++++++++++++++++++++++++++++++++++++
Date: Fri Jun 02 14:52:26 CEST 2017
User: INFO_000
Dark Spectrum Present: No
Reference Spectrum Present: No
Number of Sampled Component Spectra: 1
Spectrometers: USB4H00879
Integration Time (usec): 80000 (USB4H00879)
Spectra Averaged: 1 (USB4H00879)
Boxcar Smoothing: 0 (USB4H00879)
Correct for Electrical Dark: No (USB4H00879)
Strobe/Lamp Enabled: No (USB4H00879)
Correct for Detector Non-linearity: No (USB4H00879)
Correct for Stray Light: No (USB4H00879)
Number of Pixels in Processed Spectrum: 3648
>>>>>Begin Processed Spectral Data<<<<<
345.13	1320.94
345.34	1320.94
345.56	1320.94
345.78	1308.65
345.99	1239.02
346.21	1665.00
346.42	1708.01
346.64	1626.09
346.86	1734.63
347.07	1572.84
347.29	1699.81
347.50	1621.99
347.72	1667.05
347.94	1716.20
348.15	1593.32
348.37	1671.14
348.59	1701.86
348.80	1593.32
349.02	1853.41
349.23	1904.61
349.45	1802.21
349.67	1849.32
349.88	1798.12
350.10	1925.09
350.31	1847.27
350.53	1826.79
350.75	1974.24
350.96	1808.36
351.18	1888.23
351.39	1961.95
351.61	1816.55
351.82	1847.27
352.04	1957.86
352.26	1873.89
352.47	1974.24
352.69	1843.17
352.90	1847.27
353.12	1902.56
353.34	1894.37
353.55	2007.01
353.77	1830.88
353.98	1877.99
354.20	1863.65
354.41	1886.18
354.63	1939.43
354.85	1929.19
355.06	1898.47
355.28	1818.60
355.49	1939.43
355.71	1916.90
355.92	1798.12
356.14	2009.06
356.35	1920.99
356.57	1886.18
356.79	1949.67
357.00	1877.99
357.22	1988.58
357.43	1861.60
357.65	1955.81
357.86	1869.80
358.08	1957.86
358.29	1910.75
358.51	2035.68
358.72	2025.44
358.94	1951.71
359.16	1978.34
359.37	1920.99
359.59	2025.44
359.80	2072.54
360.02	1972.19
360.23	2050.02
360.45	1976.29
360.66	1974.24
360.88	1869.80
361.09	1951.71
361.31	2054.11
361.52	2015.20
361.74	2009.06
361.95	2054.11
362.17	1980.39
362.38	2078.69
362.60	2000.87
362.81	2031.58
363.03	1931.23
363.24	1984.48
363.46	2066.40
363.67	2093.02
363.89	2000.87
364.10	2023.39
364.32	1929.19
364.53	2050.02
364.75	1920.99
364.96	2052.06
365.18	1968.10
365.39	1976.29
365.61	2015.20
365.82	2138.08
366.04	2017.25
366.25	2027.49
366.47	2017.25
366.68	2125.79
366.90	2011.11
367.11	2156.51
367.33	2125.79
367.54	2064.35
367.76	1968.10
367.97	2138.08
368.19	2099.17
368.40	2105.31
368.62	1976.29
368.83	1943.52
369.05	2113.50
369.26	1968.10
369.48	1951.71
369.69	2025.44
369.91	2119.65
370.12	2095.07
370.33	2070.50
370.55	1964.00
370.76	2060.26
370.98	2142.18
371.19	2097.12
371.41	1953.76
371.62	2099.17
371.84	1959.91
372.05	2228.19
372.27	2084.83
372.48	2117.60
372.69	2082.78
372.91	2176.99
373.12	2140.13
373.34	2056.16
373.55	2113.50
373.77	2193.37
373.98	2072.54
374.20	2248.67
374.41	2285.53
374.62	2164.70
374.84	2156.51
375.05	2277.34
375.27	2162.66
375.48	2203.61
375.70	2156.51
375.91	2179.04
376.12	2238.43
376.34	2107.36
376.55	2164.70
376.77	2195.42
376.98	2187.23
377.19	2211.81
377.41	2191.33
377.62	2133.98
377.84	2248.67
378.05	2349.02
378.27	2183.13
378.48	2281.44
378.69	2437.08
378.91	2379.74
379.12	2170.85
379.34	2197.47
379.55	2324.44
379.76	2220.00
379.98	2222.05
380.19	2318.30
380.41	2252.77
380.62	2342.88
380.83	2238.43
381.05	2256.86
381.26	2410.46
381.47	2183.13
381.69	2308.06
381.90	2353.12
382.12	2256.86
382.33	2336.73
382.54	2318.30
382.76	2324.44
382.97	2314.20
383.19	2224.09
383.40	2422.75
383.61	2359.26
383.83	2324.44
384.04	2383.84
384.25	2389.98
384.47	2420.70
384.68	2404.32
384.89	2338.78
385.11	2289.63
385.32	2291.68
385.54	2422.75
385.75	2314.20
385.96	2443.23
386.18	2473.95
386.39	2332.64
386.60	2396.12
386.82	2449.37
387.03	2467.80
387.24	2443.23
387.46	2465.75
387.67	2510.81
387.88	2496.47
388.10	2426.84
388.31	2527.19
388.52	2650.07
388.74	2508.76
388.95	2541.53
389.16	2607.06
389.38	2568.15
389.59	2584.54
389.80	2678.74
390.02	2598.87
390.23	2594.78
390.44	2574.30
390.66	2559.96
390.87	2607.06
391.08	2611.16
391.30	2746.33
391.51	2748.37
391.72	2584.54
391.94	2723.80
392.15	2719.70
392.36	2650.07
392.58	2693.08
392.79	2807.77
393.00	2775.00
393.22	2799.57
393.43	2762.71
393.64	2842.58
393.85	2863.06
394.07	2670.55
394.28	2740.18
394.49	2826.20
394.71	2789.33
394.92	2852.82
395.13	2725.85
395.35	2748.37
395.56	2772.95
395.77	2867.16
395.98	2944.98
396.20	2959.31
396.41	2842.58
396.62	2877.40
396.84	2820.05
397.05	2897.88
397.26	2901.97
397.47	3002.32
397.69	2869.20
397.90	3110.86
398.11	2926.55
398.32	2883.54
398.54	2942.93
398.75	2963.41
398.96	2985.94
399.18	3172.30
399.39	3117.01
399.60	3131.34
399.81	2961.36
400.03	2981.84
400.24	3321.81
400.45	3022.80
400.66	3063.76
400.88	3045.33
401.09	3268.56
401.30	3037.14
401.51	3217.36
401.73	3274.70
401.94	3172.30
402.15	3241.93
402.36	3182.54
402.58	3248.08
402.79	3291.09
403.00	3198.93
403.21	3217.36
403.43	3233.74
403.64	3289.04
403.85	3229.65
404.06	3393.48
404.27	3088.34
404.49	3153.87
404.70	3258.32
404.91	3338.19
405.12	3385.29
405.34	3276.75
405.55	3489.74
405.76	3313.61
405.97	3383.24
406.19	3442.64
406.40	3297.23
406.61	3479.50
406.82	3336.14
407.03	3317.71
407.25	3344.33
407.46	3436.49
407.67	3430.35
407.88	3497.93
408.09	3356.62
408.31	3459.02
408.52	3450.83
408.73	3450.83
408.94	3420.11
409.15	3436.49
409.37	3579.85
409.58	3506.12
409.79	3594.19
410.00	3610.57
410.21	3553.23
410.43	3514.31
410.64	3463.12
410.85	3672.01
411.06	3594.19
411.27	3641.29
411.48	3665.86
411.70	3588.04
411.91	3510.22
412.12	3686.34
412.33	3653.58
412.54	3790.79
412.76	3725.26
412.97	3710.92
413.18	3477.45
413.39	3637.19
413.60	3786.69
413.81	3788.74
414.03	3766.21
414.24	3712.97
414.45	3807.17
414.66	3557.32
414.87	3899.33
415.08	3938.24
415.30	3747.78
415.51	3796.93
415.72	3700.68
415.93	3784.65
416.14	3796.93
416.35	3850.18
416.56	3946.44
416.78	3885.00
416.99	3958.72
417.20	3794.89
417.41	3864.52
417.62	3848.13
417.83	3962.82
418.04	3827.65
418.26	3934.15
418.47	3899.33
418.68	3950.53
418.89	3860.42
419.10	4198.34
419.31	4067.27
419.52	3987.40
419.73	4122.56
419.95	4067.27
420.16	3934.15
420.37	4083.65
420.58	4190.14
420.79	3925.96
421.00	4245.44
421.21	4081.60
421.42	4093.89
421.63	4100.03
421.85	4048.83
422.06	4157.38
422.27	4255.68
422.48	4126.66
422.69	4394.94
422.90	4165.57
423.11	4249.54
423.32	4270.01
423.53	4480.96
423.75	4276.16
423.96	4534.20
424.17	4429.76
424.38	4460.48
424.59	4519.87
424.80	4562.87
425.01	4495.29
425.22	4370.37
425.43	4493.24
425.64	4663.22
425.85	4622.27
426.06	4667.32
426.28	4587.45
426.49	4460.48
426.70	4620.22
426.91	4693.94
427.12	4671.42
427.33	4724.66
427.54	4753.34
427.75	4779.96
427.96	4951.99
428.17	4777.91
428.38	4896.69
428.59	5056.43
428.80	4829.11
429.01	4859.83
429.23	4921.27
429.44	5009.33
429.65	4945.84
429.86	5056.43
430.07	4949.94
430.28	4992.95
430.49	5101.49
430.70	5183.41
430.91	5138.35
431.12	5070.77
431.33	5240.75
431.54	5148.59
431.75	5267.38
431.96	5132.21
432.17	5263.28
432.38	5400.49
432.59	5361.58
432.80	5416.88
433.01	5298.10
433.22	5418.93
433.43	5492.65
433.64	5351.34
433.85	5451.69
434.06	5482.41
434.27	5273.52
434.49	5527.47
434.70	5621.67
434.91	5498.80
435.12	5595.05
435.33	5627.82
435.54	5672.87
435.75	5513.13
435.96	5689.26
436.17	5490.60
436.38	5822.38
436.59	5742.50
436.80	5576.62
437.01	5754.79
437.22	5926.82
437.43	5820.33
437.64	5726.12
437.85	5945.25
438.06	5945.25
438.27	5932.97
438.48	5726.12
438.69	5969.83
438.90	5894.05
439.11	5808.04
439.32	5994.40
439.53	6109.09
439.74	6053.80
439.95	6143.91
440.16	6006.69
440.37	6104.99
440.57	5945.25
440.78	6041.51
440.99	6205.35
441.20	6113.19
441.41	6037.41
441.62	6156.19
441.83	6082.47
442.04	6334.37
442.25	6213.54
442.46	6211.49
442.67	6334.37
442.88	6680.47
443.09	6195.11
443.30	6426.53
443.51	6385.57
443.72	6662.04
443.93	6301.60
444.14	6565.79
444.35	6346.66
444.56	6629.27
444.77	6567.84
444.98	6506.40
445.19	6762.39
445.40	6547.36
445.61	6586.27
445.81	6561.69
446.02	6694.81
446.23	6588.32
446.44	6582.17
446.65	6678.43
446.86	6727.58
447.07	6709.15
447.28	6817.69
447.49	6924.18
447.70	6766.49
447.91	6762.39
448.12	6915.99
448.33	6956.95
448.54	6977.43
448.74	6854.55
448.95	6971.29
449.16	6981.53
449.37	7284.62
449.58	6946.71
449.79	7104.40
450.00	6956.95
450.21	7221.14
450.42	7305.10
450.63	7171.99
450.84	7237.52
451.05	7249.81
451.25	7116.69
451.46	7092.12
451.67	7225.23
451.88	7397.26
452.09	7434.13
452.30	7155.60
452.51	7415.69
452.72	7397.26
452.93	7671.69
453.13	7434.13
453.34	7399.31
453.55	7507.85
453.76	7483.28
453.97	7878.54
454.18	7659.40
454.39	7630.73
454.60	7567.24
454.81	7581.58
455.01	7821.19
455.22	7507.85
455.43	7729.03
455.64	7962.50
455.85	7901.06
456.06	8136.58
456.27	7974.79
456.48	7772.04
456.68	7841.67
456.89	8046.47
457.10	8013.70
457.31	8130.44
457.52	7989.13
457.73	8314.75
457.94	8300.42
458.14	8071.04
458.35	8386.43
458.56	8253.31
458.77	8249.22
458.98	8284.03
459.19	8247.17
459.39	8322.94
459.60	8595.32
459.81	8281.99
460.02	8648.57
460.23	8566.65
460.44	8714.11
460.65	8691.58
460.85	8642.43
461.06	8900.47
461.27	8630.14
461.48	8947.58
461.69	8988.53
461.89	8664.96
462.10	8886.14
462.31	8755.07
462.52	8839.03
462.73	8949.62
462.94	9238.39
463.14	9398.13
463.35	9056.12
463.56	9697.13
463.77	9396.08
463.98	9258.87
464.18	9428.85
464.39	9553.77
464.60	9809.77
464.81	9379.70
465.02	9410.42
465.23	9629.55
465.43	9598.83
465.64	9852.78
465.85	9693.04
466.06	9699.18
466.27	10114.92
466.47	9908.07
466.68	10049.38
466.89	10084.20
467.10	10301.28
467.30	10051.43
467.51	10448.74
467.72	10407.78
467.93	10176.36
468.14	10297.19
468.34	10395.49
468.55	10559.33
468.76	10407.78
468.97	10248.04
469.17	10706.78
469.38	10778.46
469.59	10911.58
469.80	10741.60
470.01	10837.85
470.21	11036.50
470.42	10999.64
470.63	11138.90
470.84	11042.65
471.04	11241.30
471.25	11290.45
471.46	11169.62
471.67	11665.23
471.87	11505.49
472.08	11810.64
472.29	11845.45
472.50	11595.60
472.70	11667.28
472.91	11712.33
473.12	11992.90
473.33	12021.58
473.53	12037.96
473.74	11919.18
473.95	12328.77
474.16	12552.00
474.36	12480.32
474.57	12502.85
474.78	12758.85
474.99	12439.36
475.19	12726.08
475.40	12971.83
475.61	13244.21
475.81	13113.14
476.02	13444.91
476.23	13090.62
476.44	13354.80
476.64	13561.65
476.85	13788.97
477.06	13582.13
477.27	13762.35
477.47	13850.41
477.68	13813.55
477.89	14087.98
478.09	14239.53
478.30	14038.83
478.51	14178.09
478.71	14444.32
478.92	14501.67
479.13	14884.64
479.34	14774.05
479.54	14825.25
479.75	14776.09
479.96	15148.82
480.16	14780.19
480.37	15214.36
480.58	15331.09
480.78	15560.47
480.99	15466.26
481.20	15529.75
481.41	16017.16
481.61	16045.84
481.82	15882.00
482.03	15783.70
482.23	15779.60
482.44	16189.19
482.65	16381.70
482.85	16529.16
483.06	16412.42
483.27	16568.07
483.47	16617.22
483.68	16707.33
483.89	16965.37
484.09	17229.56
484.30	17016.57
484.51	17389.30
484.71	17282.81
484.92	17395.45
485.13	17458.93
485.33	17647.35
485.54	17825.52
485.75	18439.91
485.95	17985.26
486.16	18044.65
486.37	18247.40
486.57	18245.35
486.78	18306.79
486.98	18351.85
487.19	18458.34
487.40	18648.80
487.60	18603.75
487.81	19050.21
488.02	18716.39
488.22	19013.34
488.43	19164.89
488.64	19285.72
488.84	19347.16
489.05	19482.33
489.25	19156.70
489.46	19572.44
489.67	19674.84
489.87	19828.43
490.08	19850.96
490.29	19953.36
490.49	20383.43
490.70	20346.57
490.90	20608.71
491.11	20252.36
491.32	20729.54
491.52	20588.23
491.73	20502.22
491.94	20561.61
492.14	20770.50
492.35	20958.91
492.55	21223.10
492.76	21255.87
492.97	21436.09
493.17	21407.42
493.38	21481.14
493.58	21759.67
493.79	21466.81
494.00	21597.88
494.20	21849.78
494.41	21937.84
494.61	22372.01
494.82	22197.93
495.02	22101.68
495.23	22249.13
495.44	22228.65
495.64	22335.15
495.85	22681.25
496.05	22580.90
496.26	22603.43
496.47	23086.75
496.67	22554.28
496.88	23367.32
497.08	22779.56
497.29	23277.21
497.49	22982.31
497.70	23447.19
497.91	23092.90
498.11	23375.52
498.32	23389.85
498.52	23688.85
498.73	24082.06
498.93	23406.23
499.14	23926.42
499.34	23987.86
499.55	23942.80
499.76	24014.48
499.96	23940.75
500.17	24247.95
500.37	24030.87
500.58	24290.96
500.78	23940.75
500.99	24342.16
501.19	24575.62
501.40	24264.33
501.60	24419.98
501.81	24637.06
502.02	24710.79
502.22	24632.97
502.43	24888.96
502.63	24977.03
502.84	25007.75
503.04	25054.85
503.25	25259.65
503.45	25097.86
503.66	25060.99
503.86	25241.21
504.07	25386.62
504.27	25511.55
504.48	25497.21
504.68	25192.06
504.89	25783.93
505.09	25456.25
505.30	25241.21
505.50	25632.38
505.71	25833.08
505.91	25925.24
506.12	25540.22
506.32	25699.96
506.53	25863.80
506.73	26130.03
506.94	26103.41
507.14	26197.62
507.35	26375.79
507.55	25923.19
507.76	26211.95
507.96	26160.75
508.17	26455.66
508.37	26238.58
508.58	26367.60
508.78	26584.68
508.99	26779.24
509.19	26666.60
509.40	26410.60
509.60	26513.00
509.81	26918.50
510.01	26713.70
510.22	26590.83
510.42	26785.38
510.63	27076.19
510.83	27037.28
511.04	27108.96
511.24	26883.69
511.44	27022.95
511.65	27211.36
511.85	26879.59
512.06	27295.33
512.26	27539.04
512.47	27827.80
512.67	27217.50
512.88	27471.45
513.08	27344.48
513.29	27455.07
513.49	27362.91
513.69	27514.46
513.90	27489.88
514.10	27772.50
514.31	27518.56
514.51	27960.92
514.72	27856.47
514.92	27835.99
515.13	27842.14
515.33	27879.00
515.53	27956.82
515.74	28147.28
515.94	28053.08
516.15	28012.12
516.35	27608.67
516.56	28114.52
516.76	28063.32
516.96	28122.71
517.17	28347.98
517.37	28278.35
517.58	28153.43
517.78	28243.54
517.99	28167.76
518.19	28685.90
518.39	28866.12
518.60	28786.25
518.80	28784.20
519.01	28585.55
519.21	28720.71
519.41	28610.12
519.62	28909.13
519.82	29134.40
520.03	29062.72
520.23	28945.99
520.43	28954.18
520.64	29263.43
520.84	29550.14
521.05	29263.43
521.25	29517.37
521.45	29445.69
521.66	29449.79
521.86	29683.26
522.07	29892.15
522.27	29894.20
522.47	29597.24
522.68	30103.09
522.88	29472.32
523.08	30248.50
523.29	30131.76
523.49	30408.24
523.70	30082.61
523.90	30479.92
524.10	30422.58
524.31	30481.97
524.51	30248.50
524.71	30725.68
524.92	30987.82
525.12	30434.86
525.33	30592.56
525.53	30918.18
525.73	31368.74
525.94	31151.65
526.14	30899.75
526.34	31260.20
526.55	31202.85
526.75	31274.53
526.95	31428.13
527.16	30985.77
527.36	31594.01
527.56	31561.25
527.77	31895.07
527.97	32177.68
528.17	31770.14
528.38	31976.98
528.58	32073.24
528.78	32220.69
528.99	32181.78
529.19	32804.36
529.39	31952.41
529.60	32886.28
529.80	32368.15
530.00	32437.78
530.21	32775.69
530.41	32861.71
530.61	33111.56
530.82	33035.78
531.02	33021.45
531.22	33218.05
531.43	33549.82
531.63	33441.28
531.83	33879.55
532.04	34002.43
532.24	34090.49
532.44	33646.08
532.64	34399.73
532.85	34039.29
533.05	34141.69
533.25	34422.26
533.46	34287.09
533.66	34242.04
533.86	34383.35
534.07	34846.19
534.27	34682.35
534.47	34661.87
534.67	34928.11
534.88	34799.08
535.08	35306.98
535.28	35309.03
535.49	35380.71
535.69	35374.56
535.89	35626.46
536.09	35747.29
536.30	36189.66
536.50	36038.11
536.70	35993.05
536.91	35833.31
537.11	36496.85
537.31	36404.69
537.51	36163.03
537.72	36623.83
537.92	36292.05
538.12	36992.46
538.32	36828.62
538.53	37178.82
538.73	36832.72
538.93	37148.11
539.13	37371.33
539.34	37309.89
539.54	37201.35
539.74	37643.71
539.94	37576.13
540.15	37412.29
540.35	38020.54
540.55	37854.65
540.75	38249.91
540.96	38004.16
541.16	38051.26
541.36	38249.91
541.56	38163.90
541.77	38495.67
541.97	38256.06
542.17	38475.19
542.37	38307.26
542.58	38589.88
542.78	38876.59
542.98	38718.90
543.18	39126.44
543.38	39308.71
543.59	39396.77
543.79	39333.29
543.99	39306.66
544.19	39445.93
544.40	39118.25
544.60	39730.59
544.80	39959.97
545.00	39390.63
545.20	40011.17
545.41	39892.38
545.61	39929.25
545.81	39986.59
546.01	40162.72
546.21	40316.31
546.42	40261.02
546.62	40172.96
546.82	40488.34
547.02	40381.85
547.22	40648.08
547.43	40469.91
547.63	40852.88
547.83	41375.11
548.03	40756.63
548.23	40693.14
548.44	40928.66
548.64	41317.77
548.84	41190.80
549.04	41168.27
549.24	41241.99
549.45	41475.46
549.65	41661.83
549.85	41837.95
550.05	41876.86
550.25	41721.22
550.45	42280.31
550.66	41952.64
550.86	41796.99
551.06	42222.97
551.26	42333.56
551.46	42163.58
551.66	42319.23
551.87	42446.20
552.07	42132.86
552.27	42358.14
552.47	42784.12
552.67	42634.61
552.87	42986.86
553.07	43064.69
553.28	42630.52
553.48	43117.93
553.68	43085.17
553.88	43122.03
554.08	42982.77
554.28	43203.95
554.48	42839.41
554.69	43189.61
554.89	43543.91
555.09	43169.13
555.29	42972.53
555.49	43388.27
555.69	43529.58
555.89	43343.21
556.10	43638.12
556.30	43474.28
556.50	43730.28
556.70	43289.96
556.90	43945.31
557.10	43795.81
557.30	43486.57
557.50	44012.90
557.70	44078.43
557.91	44287.32
558.11	43916.64
558.31	44090.72
558.51	44291.42
558.71	44354.91
558.91	44809.56
559.11	44287.32
559.31	44352.86
559.51	44242.27
559.72	44635.48
559.92	44496.22
560.12	44176.73
560.32	44834.13
560.52	44238.17
560.72	44705.11
560.92	45030.74
561.12	44703.06
561.32	44813.65
561.52	44666.20
561.72	45499.72
561.93	45016.40
562.13	45022.54
562.33	44701.01
562.53	45847.88
562.73	44651.86
562.93	45352.27
563.13	45323.60
563.33	45256.01
563.53	45270.35
563.73	45028.69
563.93	45528.39
564.13	45464.91
564.33	45681.99
564.53	45579.59
564.74	45669.70
564.94	45675.85
565.14	45751.62
565.34	45182.29
565.54	45405.52
565.74	45659.46
565.94	45923.65
566.14	45507.91
566.34	45380.94
566.54	46013.76
566.74	45579.59
566.94	46095.68
567.14	45854.02
567.34	45708.61
567.54	46267.71
567.74	45942.08
567.94	46138.69
568.14	46398.78
568.34	46454.08
568.54	46030.15
568.74	46284.09
568.94	46167.36
569.14	46161.22
569.34	46380.35
569.54	46417.21
569.75	45897.03
569.95	46372.16
570.15	46327.10
570.35	46439.74
570.55	46406.97
570.75	46427.45
570.95	46607.67
571.15	46521.66
571.35	46402.88
571.55	46609.72
571.75	46710.07
571.95	46718.26
572.15	46478.65
572.35	46824.76
572.55	47023.41
572.75	46581.05
572.95	46777.65
573.15	47101.23
573.35	46517.56
573.55	46763.32
573.75	46912.82
573.95	46912.82
574.15	46531.90
574.35	47246.64
574.55	46880.05
574.75	46658.87
574.95	47052.08
575.15	46955.83
575.34	47004.98
575.54	47324.46
575.74	47097.14
575.94	47510.83
576.14	47134.00
576.34	47488.30
576.54	47770.92
576.74	47453.48
576.94	47007.03
577.14	47619.37
577.34	47729.96
577.54	47562.03
577.74	47306.03
577.94	47547.69
578.14	47895.85
578.34	47779.11
578.54	47207.73
578.74	47871.27
578.94	47891.75
579.14	47949.09
579.34	47901.99
579.54	47901.99
579.74	47875.37
579.94	47994.15
580.13	47889.70
580.33	47854.89
580.53	47846.69
580.73	48239.90
580.93	48016.68
581.13	47985.96
581.33	48280.86
581.53	48395.55
581.73	48389.41
581.93	48590.11
582.13	48250.14
582.33	48098.59
582.53	48428.32
582.73	48391.45
582.92	48315.68
583.12	48520.48
583.32	48854.29
583.52	48211.23
583.72	48667.93
583.92	48481.56
584.12	48334.11
584.32	49028.37
584.52	48502.04
584.72	48837.91
584.92	49075.48
585.11	49351.95
585.31	48796.95
585.51	48934.17
585.71	48811.29
585.91	49378.57
586.11	48817.43
586.31	48575.77
586.51	49087.76
586.71	48942.36
586.91	49493.26
587.10	48842.01
587.30	48919.83
587.50	48919.83
587.70	49376.53
587.90	49358.09
588.10	49493.26
588.30	49218.83
588.50	49302.80
588.69	49528.08
588.89	49220.88
589.09	49769.74
589.29	49483.02
589.49	49222.93
589.69	49628.43
589.89	49446.16
590.08	49685.77
590.28	49644.81
590.48	49458.45
590.68	49401.10
590.88	49663.24
591.08	49796.36
591.28	49112.34
591.47	49743.11
591.67	50070.79
591.87	49480.97
592.07	49671.43
592.27	49997.06
592.47	49861.90
592.67	50009.35
592.86	49788.17
593.06	49884.42
593.26	50070.79
593.46	50289.92
593.66	50101.51
593.86	50201.86
594.05	50083.08
594.25	50429.18
594.45	49890.57
594.65	50083.08
594.85	49878.28
595.05	50631.93
595.24	50193.67
595.44	50140.42
595.64	50269.44
595.84	50164.99
596.04	50212.10
596.23	50294.02
596.43	50941.17
596.63	50461.95
596.83	50629.88
597.03	51107.06
597.22	51092.72
597.42	50660.60
597.62	50783.48
597.82	51260.66
598.02	50959.61
598.21	50902.26
598.41	50853.11
598.61	51051.76
598.81	50961.65
599.01	51342.58
599.20	51141.88
599.40	50767.10
599.60	51129.59
599.80	50998.52
600.00	51076.34
600.19	51336.43
600.39	51115.25
600.59	51690.73
600.79	51776.75
600.98	51737.83
601.18	51733.74
601.38	51602.67
601.58	51649.77
601.78	51752.17
601.97	52112.61
602.17	52487.39
602.37	51905.77
602.57	51944.68
602.76	52266.21
602.96	51526.89
603.16	52366.56
603.36	52026.60
603.55	52450.53
603.75	52264.16
603.95	52446.43
604.15	52354.27
604.34	52358.37
604.54	52745.44
604.74	52563.17
604.94	52317.41
605.13	52557.02
605.33	52999.38
605.53	52530.40
605.73	52595.93
605.92	53185.75
606.12	52821.21
606.32	52731.10
606.52	52782.30
606.71	53284.05
606.91	52939.99
607.11	53099.73
607.30	52882.65
607.50	53365.97
607.70	53329.11
607.90	52862.17
608.09	53370.07
608.29	53566.67
608.49	53400.79
608.68	53408.98
608.88	53470.42
609.08	53634.25
609.28	53927.11
609.47	53169.36
609.67	53615.82
609.87	53392.59
610.06	53517.52
610.26	53785.80
610.46	53712.08
610.66	53544.14
610.85	54049.99
611.05	53597.39
611.25	53445.84
611.44	53482.70
611.64	53892.30
611.84	53609.68
612.03	53923.02
612.23	53828.81
612.43	53957.83
612.62	53765.32
612.82	54224.07
613.02	54273.22
613.21	53826.76
613.41	54031.56
613.61	54275.27
613.80	53925.07
614.00	54267.08
614.20	54310.08
614.39	54344.90
614.59	54557.89
614.79	54416.58
614.98	54060.23
615.18	54824.12
615.38	54158.53
615.57	54480.06
615.77	54514.88
615.97	54525.12
616.16	54363.33
616.36	54441.15
616.56	54934.71
616.75	54920.38
616.95	54432.96
617.15	54631.61
617.34	54602.94
617.54	54484.16
617.74	55159.99
617.93	55055.54
618.13	54258.88
618.32	54545.60
618.52	54912.19
618.72	54537.41
618.91	55289.01
619.11	54815.93
619.31	54957.24
619.50	54547.65
619.70	54277.32
619.90	54883.51
620.09	54820.03
620.29	54746.30
620.48	54865.08
620.68	55248.05
620.88	54465.73
621.07	55123.13
621.27	55239.86
621.46	54711.49
621.66	54910.14
621.86	55370.93
622.05	54336.71
622.25	55293.11
622.44	54922.43
622.64	55116.98
622.84	55631.02
623.03	55051.45
623.23	55385.27
623.42	55215.29
623.62	55209.14
623.82	55925.93
624.01	55092.41
624.21	55465.14
624.40	55358.64
624.60	55225.53
624.80	54703.29
624.99	55252.15
625.19	54813.88
625.38	55637.17
625.58	55225.53
625.77	55694.51
625.97	55508.14
626.17	55260.34
626.36	55383.22
626.56	55831.72
626.75	54834.36
626.95	55657.65
627.14	55405.75
627.34	55952.55
627.54	55127.22
627.73	55844.01
627.93	55665.84
628.12	55299.25
628.32	55413.94
628.51	55602.35
628.71	55184.57
628.90	55868.59
629.10	55682.22
629.30	55530.67
629.49	55887.02
629.69	55985.32
629.88	55753.90
630.08	55452.85
630.27	55786.67
630.47	55942.31
630.66	56392.87
630.86	55774.38
631.05	55456.95
631.25	56519.84
631.44	56155.30
631.64	55975.08
631.84	56448.16
632.03	56597.66
632.23	56206.50
632.42	56153.26
632.62	56280.23
632.81	56140.97
633.01	56399.01
633.20	56698.01
633.40	56775.84
633.59	56722.59
633.79	55923.88
633.98	56376.48
634.18	56337.57
634.37	56624.29
634.57	56759.45
634.76	56851.61
634.96	56841.37
635.15	56718.49
635.35	56083.62
635.54	56421.54
635.74	56501.41
635.93	56675.49
636.13	56677.54
636.32	56839.32
636.52	56685.73
636.71	57095.32
636.91	56763.55
637.10	57031.83
637.30	57025.69
637.49	56722.59
637.69	57046.17
637.88	56792.22
638.08	56933.53
638.27	57361.56
638.46	56575.14
638.66	56718.49
638.85	56874.14
639.05	57078.94
639.24	57269.40
639.44	56571.04
639.63	56751.26
639.83	57283.73
640.02	57318.55
640.22	57169.05
640.41	57441.43
640.61	57123.99
640.80	57498.77
640.99	56566.94
641.19	57842.83
641.38	57468.05
641.58	57054.36
641.77	57402.52
641.97	57361.56
642.16	57308.31
642.36	57742.48
642.55	57971.85
642.74	57271.45
642.94	57656.46
643.13	57443.48
643.33	57869.45
643.52	57715.86
643.72	57775.25
643.91	57652.37
644.10	57783.44
644.30	58025.10
644.49	57640.08
644.69	57851.02
644.88	57808.01
645.08	57218.20
645.27	57900.17
645.46	57334.93
645.66	57894.03
645.85	57984.14
646.05	57719.95
646.24	57992.33
646.43	57973.90
646.63	58373.25
646.82	58027.15
647.02	58225.80
647.21	58295.43
647.40	57758.86
647.60	58438.79
647.79	58440.84
647.99	58012.81
648.18	58002.57
648.37	58895.49
648.57	58442.88
648.76	58596.48
648.96	58125.45
649.15	58872.96
649.34	58823.81
649.54	58877.05
649.73	58014.86
649.92	58553.47
650.12	58303.62
650.31	58647.68
650.51	58358.92
650.70	58580.10
650.89	58399.88
651.09	59303.03
651.28	58631.30
651.47	59094.14
651.67	58674.30
651.86	58981.50
652.06	58023.05
652.25	58954.88
652.44	59122.81
652.64	58477.70
652.83	58395.78
653.02	58532.99
653.22	58655.87
653.41	58403.97
653.60	58107.02
653.80	58229.90
653.99	58922.11
654.18	58840.19
654.38	58655.87
654.57	59024.51
654.76	58905.73
654.96	58416.26
655.15	58797.18
655.34	58768.51
655.54	58651.78
655.73	58666.11
655.92	58881.15
656.12	58819.71
656.31	58696.83
656.50	58756.22
656.70	58557.57
656.89	58487.94
657.08	58893.44
657.28	59036.80
657.47	58934.40
657.66	58924.16
657.86	58821.76
658.05	58975.36
658.24	59296.89
658.43	58731.65
658.63	59237.50
658.82	59079.80
659.01	58922.11
659.21	59055.23
659.40	59032.70
659.59	58655.87
659.79	59200.63
659.98	58799.23
660.17	58889.34
660.36	58619.01
660.56	58582.15
660.75	58823.81
660.94	58963.07
661.14	58584.19
661.33	58727.55
661.52	58088.59
661.71	59202.68
661.91	58797.18
662.10	59065.47
662.29	59438.20
662.49	58987.64
662.68	58926.20
662.87	58811.52
663.06	58926.20
663.26	59253.88
663.45	58999.93
663.64	58283.14
663.83	59425.91
664.03	59141.24
664.22	59028.60
664.41	58840.19
664.60	58879.10
664.80	58754.18
664.99	58506.37
665.18	58651.78
665.37	59018.36
665.57	59065.47
665.76	58834.05
665.95	58936.44
666.14	58588.29
666.34	58655.87
666.53	58864.77
666.72	58369.16
666.91	58678.40
667.11	58573.95
667.30	58176.65
667.49	58373.25
667.68	58664.06
667.87	58127.50
668.07	58662.02
668.26	58438.79
668.45	58788.99
668.64	58104.97
668.84	58860.67
669.03	58637.44
669.22	58367.11
669.41	58594.43
669.60	58217.61
669.80	58299.53
669.99	58348.68
670.18	58152.07
670.37	58500.23
670.57	58596.48
670.76	58348.68
670.95	58510.47
671.14	58164.36
671.33	57717.90
671.53	59178.10
671.72	58363.01
671.91	58164.36
672.10	57803.92
672.29	58016.91
672.48	58123.40
672.68	58150.02
672.87	58137.74
673.06	57619.60
673.25	58330.25
673.44	58066.06
673.64	57455.76
673.83	57924.75
674.02	57564.31
674.21	57386.13
674.40	58094.73
674.59	57791.63
674.79	57672.85
674.98	57480.34
675.17	57832.59
675.36	57486.48
675.55	58037.39
675.74	57369.75
675.94	57414.80
676.13	57502.87
676.32	57717.90
676.51	58137.74
676.70	57621.65
676.89	57705.62
677.08	57238.68
677.28	57382.04
677.47	58160.26
677.66	57998.48
677.85	57631.89
678.04	57662.61
678.23	57758.86
678.42	57623.70
678.62	57455.76
678.81	57934.99
679.00	57275.54
679.19	58131.59
679.38	57318.55
679.57	57390.23
679.76	57552.02
679.96	57586.83
680.15	57248.92
680.34	57449.62
680.53	57324.69
680.72	57261.21
680.91	57533.59
681.10	56964.25
681.29	57369.75
681.48	57064.60
681.68	57412.76
681.87	57001.11
682.06	56786.08
682.25	56612.00
682.44	56665.25
682.63	57119.90
682.82	56257.70
683.01	56399.01
683.20	56241.32
683.39	57007.26
683.59	56607.90
683.78	56564.90
683.97	56089.77
684.16	56755.36
684.35	56519.84
684.54	56331.43
684.73	56202.41
684.92	56067.24
685.11	56347.81
685.30	56321.19
685.49	56427.68
685.69	55858.35
685.88	56304.80
686.07	56126.63
686.26	55676.08
686.45	55923.88
686.64	56112.30
686.83	55981.23
687.02	55813.29
687.21	56120.49
687.40	56052.90
687.59	55878.83
687.78	55952.55
687.97	55776.43
688.16	55481.52
688.35	55780.52
688.54	55604.40
688.74	55827.63
688.93	55833.77
689.12	55393.46
689.31	55907.50
689.50	55854.25
689.69	55284.92
689.88	54901.95
690.07	55442.61
690.26	55114.94
690.45	56308.90
690.64	55375.03
690.83	55037.11
691.02	55612.59
691.21	55076.02
691.40	54969.53
691.59	55200.95
691.78	54895.80
691.97	55577.78
692.16	55071.93
692.35	55354.55
692.54	54883.51
692.73	55162.04
692.92	54754.49
693.11	55045.30
693.30	54695.10
693.49	54387.91
693.68	54465.73
693.87	55016.63
694.06	54707.39
694.25	54228.16
694.44	54334.66
694.63	54607.04
694.82	54574.27
695.01	54373.57
695.20	54648.00
695.39	54598.85
695.58	54410.43
695.77	54551.74
695.96	54420.67
696.15	54719.68
696.34	54170.82
696.53	54545.60
696.72	54373.57
696.91	54086.85
697.10	54539.46
697.29	53990.60
697.48	54482.11
697.67	53986.50
697.86	53785.80
698.05	53925.07
698.24	54308.04
698.43	53841.10
698.62	53916.87
698.81	53679.31
699.00	54246.60
699.19	53314.77
699.38	54033.61
699.57	53593.29
699.76	54559.94
699.95	53890.25
700.14	53318.87
700.32	53566.67
700.51	53384.40
700.70	53961.93
700.89	53728.46
701.08	53535.95
701.27	53542.10
701.46	53497.04
701.65	53011.67
701.84	53138.65
702.03	53505.23
702.22	53097.69
702.41	53300.43
702.60	53279.96
702.79	53003.48
702.98	52651.23
703.17	52843.74
703.35	52788.44
703.54	52704.48
703.73	53263.57
703.92	52671.71
704.11	52462.82
704.30	52724.96
704.49	52378.85
704.68	52505.82
704.87	52786.39
705.06	52360.42
705.25	52966.62
705.43	52557.02
705.62	53064.92
705.81	52559.07
706.00	52249.83
706.19	52172.00
706.38	52290.79
706.57	52296.93
706.76	52296.93
706.95	52546.78
707.14	52161.76
707.32	52790.49
707.51	51950.82
707.70	52323.55
707.89	52122.85
708.08	52290.79
708.27	52344.03
708.46	52468.96
708.65	52026.60
708.84	52049.13
709.02	52344.03
709.21	52557.02
709.40	51627.24
709.59	52188.39
709.78	51809.51
709.97	52036.84
710.16	51739.88
710.34	51614.96
710.53	51852.52
710.72	51774.70
710.91	51889.38
711.10	51657.96
711.29	51733.74
711.48	51967.21
711.66	51995.88
711.85	51320.05
712.04	51574.00
712.23	51836.14
712.42	51205.36
712.61	51195.12
712.80	51533.04
712.98	51387.63
713.17	50873.59
713.36	51545.33
713.55	51461.36
713.74	51129.59
713.93	51340.53
714.11	51152.12
714.30	51125.49
714.49	50787.58
714.68	51102.96
714.87	51301.62
715.06	51182.84
715.24	51231.99
715.43	51234.03
715.62	50902.26
715.81	50832.63
716.00	51096.82
716.18	50803.96
716.37	50396.42
716.56	50621.69
716.75	50679.03
716.94	50644.22
717.12	50633.98
717.31	50769.15
717.50	50726.14
717.69	50294.02
717.88	50750.71
718.06	50660.60
718.25	51131.64
718.44	50429.18
718.63	50586.88
718.82	50132.23
719.00	50418.94
719.19	50441.47
719.38	50189.57
719.57	49575.18
719.76	49552.65
719.94	49276.18
720.13	50107.65
720.32	49712.39
720.51	49759.50
720.69	49730.83
720.88	49526.03
721.07	49894.66
721.26	49513.74
721.44	49773.83
721.63	49304.85
721.82	49278.22
722.01	49063.19
722.20	50050.31
722.38	49001.75
722.57	48651.55
722.76	49335.57
722.95	49388.81
723.13	48964.88
723.32	49042.71
723.51	49028.37
723.70	48729.37
723.88	48987.41
724.07	48487.71
724.26	48807.19
724.44	48076.07
724.63	49026.32
724.82	48874.77
725.01	48780.57
725.19	48958.74
725.38	48526.62
725.57	48338.21
725.76	48854.29
725.94	48356.64
726.13	48403.74
726.32	48510.24
726.51	48252.19
726.69	48829.72
726.88	48596.25
727.07	48528.67
727.25	48387.36
727.44	48575.77
727.63	48252.19
727.82	48356.64
728.00	48534.81
728.19	48444.70
728.38	48538.91
728.56	48127.27
728.75	48708.89
728.94	48397.60
729.12	48667.93
729.31	48368.93
729.50	48104.74
729.69	48366.88
729.87	48360.73
730.06	48246.05
730.25	48456.99
730.43	48725.27
730.62	47910.18
730.81	48364.83
730.99	48282.91
731.18	48436.51
731.37	48276.77
731.55	49079.57
731.74	48743.70
731.93	48520.48
732.11	48336.16
732.30	48317.73
732.49	48391.45
732.67	48866.58
732.86	48381.21
733.05	48133.41
733.23	47914.28
733.42	48096.55
733.61	48446.75
733.79	48893.21
733.98	48448.80
734.17	48311.58
734.35	48549.15
734.54	48153.89
734.73	48348.45
734.91	48344.35
735.10	48170.27
735.29	48741.66
735.47	48035.11
735.66	48155.94
735.84	48434.46
736.03	48547.10
736.22	48424.22
736.40	48291.10
736.59	48045.35
736.78	48098.59
736.96	47904.04
737.15	48092.45
737.33	48348.45
737.52	48268.58
737.71	47713.58
737.89	47893.80
738.08	47826.21
738.27	47613.23
738.45	48260.38
738.64	48129.31
738.82	47818.02
739.01	48211.23
739.20	47850.79
739.38	48166.18
739.57	48342.30
739.75	48053.54
739.94	47865.13
740.13	47963.43
740.31	47748.39
740.50	47895.85
740.68	48000.29
740.87	47777.06
741.06	47873.32
741.24	47576.36
741.43	47719.72
741.61	48000.29
741.80	47815.97
741.99	47353.13
742.17	47363.37
742.36	47809.83
742.54	47600.94
742.73	47525.16
742.91	47963.43
743.10	47605.03
743.29	48192.80
743.47	47744.30
743.66	47570.22
743.84	47570.22
744.03	47721.77
744.21	47113.52
744.40	47795.49
744.59	47164.72
744.77	47473.96
744.96	47445.29
745.14	47846.69
745.33	48043.30
745.51	47471.92
745.70	47318.32
745.88	47236.40
746.07	48006.44
746.26	47248.69
746.44	47559.98
746.63	47195.44
746.81	47652.14
747.00	47080.75
747.18	47699.24
747.37	47267.12
747.55	47916.32
747.74	47437.10
747.92	46941.49
748.11	47215.92
748.29	46986.55
748.48	47211.82
748.66	47160.62
748.85	47019.31
749.03	46994.74
749.22	47076.66
749.41	47195.44
749.59	47101.23
749.78	47043.89
749.96	46478.65
750.15	46947.64
750.33	47138.10
750.52	47052.08
750.70	46888.24
750.89	46683.45
751.07	46925.11
751.26	46775.61
751.44	46716.22
751.63	47013.17
751.81	46648.63
752.00	46546.23
752.18	46861.62
752.37	46617.91
752.55	46253.37
752.74	46290.24
752.92	46849.33
753.10	46060.87
753.29	46523.71
753.47	46316.86
753.66	46163.26
753.84	46259.52
754.03	46302.53
754.21	45997.38
754.40	46394.68
754.58	46083.39
754.77	45833.54
754.95	46226.75
755.14	46402.88
755.32	46470.46
755.51	45577.54
755.69	45784.39
755.88	46003.52
756.06	46230.85
756.24	46161.22
756.43	45542.73
756.61	46210.37
756.80	45759.81
756.98	45620.55
757.17	45708.61
757.35	46239.04
757.54	45882.69
757.72	45753.67
757.90	46032.19
758.09	45356.36
758.27	45845.83
758.46	45518.15
758.64	45552.97
758.83	45759.81
759.01	45583.69
759.19	45608.26
759.38	45550.92
759.56	45546.82
759.75	45944.13
759.93	45421.90
760.12	45395.28
760.30	45759.81
760.48	45208.91
760.67	45118.80
760.85	45278.54
761.04	45165.90
761.22	45483.34
761.40	45196.62
761.59	45186.38
761.77	44813.65
761.96	45208.91
762.14	45063.50
762.32	45233.49
762.51	44717.40
762.69	44971.35
762.88	44758.36
763.06	45167.95
763.24	44928.34
763.43	44866.90
763.61	44821.84
763.80	44950.87
763.98	44621.14
764.16	44760.40
764.35	44791.12
764.53	44498.26
764.72	44666.20
764.90	44746.07
765.08	44539.22
765.27	44520.79
765.45	44234.08
765.63	43998.56
765.82	44627.29
766.00	44088.67
766.18	44651.86
766.37	44668.25
766.55	44195.17
766.74	44426.59
766.92	44244.32
767.10	44363.10
767.29	44021.09
767.47	43523.43
767.65	44170.59
767.84	43685.22
768.02	44127.58
768.20	43847.01
768.39	44029.28
768.57	43775.33
768.75	43742.56
768.94	43804.00
769.12	43418.99
769.30	43455.85
769.49	43830.63
769.67	43343.21
769.85	43287.92
770.04	43312.49
770.22	43142.51
770.40	42827.12
770.59	42728.82
770.77	43378.03
770.95	43410.79
771.14	42630.52
771.32	42542.45
771.50	42847.60
771.69	42622.33
771.87	43074.93
772.05	42784.12
772.24	42542.45
772.42	42585.46
772.60	42769.78
772.78	42562.93
772.97	42581.37
773.15	42898.80
773.33	42567.03
773.52	42444.15
773.70	42696.05
773.88	42718.58
774.07	42351.99
774.25	42978.67
774.43	42489.21
774.61	42814.83
774.80	42702.20
774.98	42521.98
775.16	43013.49
775.34	42751.35
775.53	42556.79
775.71	42722.68
775.89	42571.13
776.08	42315.13
776.26	43177.33
776.44	42919.28
776.62	42855.79
776.81	42845.55
776.99	43050.35
777.17	43140.46
777.35	42968.43
777.54	43181.42
777.72	42804.59
777.90	42972.53
778.08	43345.26
778.27	43142.51
778.45	43165.04
778.63	43511.14
778.81	42884.47
779.00	43644.26
779.18	42898.80
779.36	43085.17
779.54	43220.33
779.73	42802.55
779.91	43257.20
780.09	43199.85
780.27	43341.16
780.46	43193.71
780.64	43453.80
780.82	43345.26
781.00	42913.14
781.19	43648.36
781.37	43642.21
781.55	43421.03
781.73	43552.10
781.91	43887.97
782.10	43748.71
782.28	43459.94
782.46	43304.30
782.64	43693.41
782.82	43494.76
783.01	43386.22
783.19	43820.39
783.37	43689.32
783.55	43351.40
783.74	43910.50
783.92	43687.27
784.10	43722.08
784.28	43572.58
784.46	43433.32
784.64	43603.30
784.83	43797.86
785.01	44004.70
785.19	43672.93
785.37	44053.86
785.55	43957.60
785.74	43271.53
785.92	43369.83
786.10	43435.37
786.28	43246.96
786.46	43251.05
786.64	43124.08
786.83	43459.94
787.01	43179.37
787.19	42997.10
787.37	43580.78
787.55	43509.10
787.74	42997.10
787.92	43349.35
788.10	43025.78
788.28	42599.80
788.46	43228.52
788.64	42702.20
788.82	43027.82
789.01	42726.77
789.19	42780.02
789.37	42356.09
789.55	43119.98
789.73	42360.19
789.91	42505.59
790.09	42579.32
790.28	42368.38
790.46	41948.54
790.64	42481.02
790.82	42265.98
791.00	41971.07
791.18	42052.99
791.36	41887.10
791.55	41819.52
791.73	41420.17
791.91	41745.80
792.09	41297.29
792.27	41641.35
792.45	41721.22
792.63	41362.82
792.81	41430.41
793.00	41465.22
793.18	40859.02
793.36	41280.91
793.54	40977.81
793.72	40957.33
793.90	40863.12
794.08	40682.90
794.26	40899.98
794.44	40144.28
794.62	40471.96
794.81	40609.17
794.99	40322.46
795.17	40443.29
795.35	40517.01
795.53	40697.24
795.71	40295.83
795.89	39851.42
796.07	39931.29
796.25	39497.13
796.43	39740.83
796.61	39431.59
796.80	39222.70
796.98	39572.90
797.16	39210.41
797.34	39105.96
797.52	38954.41
797.70	39351.72
797.88	38964.65
798.06	38679.99
798.24	38710.71
798.42	38735.28
798.60	38540.72
798.78	38593.97
798.96	38774.19
799.14	38550.96
799.32	38385.08
799.51	38114.75
799.69	38084.03
799.87	38231.48
800.05	37633.47
800.23	37764.54
800.41	37686.72
800.59	37680.58
800.77	37371.33
800.95	37617.09
801.13	37604.80
801.31	37430.72
801.49	37324.23
801.67	37430.72
801.85	36980.17
802.03	36722.13
802.21	36861.39
802.39	36632.02
802.57	36611.54
802.75	36947.40
802.93	36251.09
803.11	36492.76
803.29	36201.94
803.47	36072.92
803.65	36095.45
803.83	36367.83
804.01	36036.06
804.19	35851.74
804.37	35659.23
804.55	35165.67
804.73	35792.35
804.91	35546.59
805.09	35544.55
805.27	35280.36
805.45	35755.49
805.63	35345.89
805.81	35233.25
805.99	35530.21
806.17	35622.37
806.35	35259.88
806.53	35038.70
806.71	34954.73
806.89	35134.95
807.07	34557.42
807.25	34950.63
807.43	34745.84
807.61	34756.08
807.79	34450.93
807.97	34428.40
808.15	34170.36
808.33	33990.14
808.51	34244.09
808.69	34051.58
808.87	33807.87
809.05	33715.71
809.23	33824.25
809.41	33861.12
809.59	33633.79
809.77	34002.43
809.95	33457.67
810.13	33695.23
810.31	33697.28
810.49	33390.08
810.67	33529.34
810.84	33197.57
811.02	33474.05
811.20	32718.35
811.38	33095.18
811.56	32837.13
811.74	32929.29
811.92	32525.84
812.10	32755.21
812.28	33113.61
812.46	32992.78
812.64	32873.99
812.82	32482.83
813.00	32478.74
813.18	32374.29
813.36	32024.09
813.53	32347.67
813.71	32142.87
813.89	32230.93
814.07	32302.61
814.25	32431.63
814.43	31954.46
814.61	31825.43
814.79	31778.33
814.97	31841.82
815.15	32175.64
815.33	31346.21
815.50	31266.34
815.68	31483.42
815.86	31417.89
816.04	31313.44
816.22	31317.54
816.40	31229.48
816.58	31211.04
816.76	30926.38
816.94	30764.59
817.11	31055.40
817.29	30817.83
817.47	30692.91
817.65	30725.68
817.83	31174.18
818.01	30750.25
818.19	30524.97
818.37	30563.89
818.54	30350.90
818.72	30021.17
818.90	30363.18
819.08	30432.82
819.26	30303.79
819.44	30172.72
819.62	30361.14
819.80	30285.36
819.97	30340.66
820.15	29945.40
820.33	29539.90
820.51	29992.50
820.69	29642.30
820.87	29699.64
821.05	29627.96
821.22	29724.22
821.40	29693.50
821.58	29423.17
821.76	29195.84
821.94	29476.41
822.12	29636.16
822.29	29136.45
822.47	29265.47
822.65	29724.22
822.83	29349.44
823.01	29105.73
823.19	28943.94
823.36	28970.57
823.54	29120.07
823.72	28976.71
823.90	28769.86
824.08	28632.65
824.25	29046.34
824.43	28560.97
824.61	29019.72
824.79	28962.37
824.97	28812.87
825.15	28569.16
825.32	28388.94
825.50	28460.62
825.68	28114.52
825.86	28747.34
826.04	28194.39
826.21	28071.51
826.39	28569.16
826.57	28153.43
826.75	28225.11
826.93	28075.60
827.10	28042.84
827.28	28184.15
827.46	28022.36
827.64	27833.94
827.81	27780.70
827.99	27739.74
828.17	27858.52
828.35	27534.94
828.53	27500.12
828.70	27563.61
828.88	27387.49
829.06	27414.11
829.24	27483.74
829.41	27407.97
829.59	27367.01
829.77	27280.99
829.95	27348.57
830.12	27276.90
830.30	26938.98
830.48	27217.50
830.66	27160.16
830.84	27332.19
831.01	27027.04
831.19	27035.24
831.37	27102.82
831.55	26566.25
831.72	26961.51
831.90	26891.88
832.08	26996.32
832.25	26676.84
832.43	26637.93
832.61	26601.07
832.79	26621.55
832.96	26355.31
833.14	26490.48
833.32	26938.98
833.50	26386.03
833.67	26558.06
833.85	26322.54
834.03	26523.24
834.20	26730.09
834.38	26470.00
834.56	26648.17
834.74	26074.74
834.91	26220.14
835.09	26130.03
835.27	25996.92
835.44	26031.73
835.62	25773.69
835.80	25624.18
835.98	26009.20
836.15	25874.04
836.33	25628.28
836.51	25939.57
836.68	25474.68
836.86	25859.70
837.04	25548.41
837.21	25544.31
837.39	25890.42
837.57	25749.11
837.75	25542.27
837.92	25351.81
838.10	25271.93
838.28	25327.23
838.45	25149.06
838.63	25128.58
838.81	25132.67
838.98	24974.98
839.16	24927.88
839.34	25273.98
839.51	25267.84
839.69	24815.24
839.87	24874.63
840.04	25009.79
840.22	25249.41
840.40	24811.14
840.57	24870.53
840.75	24798.85
840.93	24637.06
841.10	24942.21
841.28	25058.95
841.46	24876.68
841.63	24997.51
841.81	24477.32
841.98	24665.74
842.16	24532.62
842.34	24729.22
842.51	24344.20
842.69	24594.06
842.87	24286.86
843.04	24647.30
843.22	24084.11
843.40	24401.55
843.57	24241.81
843.75	24626.82
843.92	24268.43
844.10	24589.96
844.28	24323.72
844.45	24501.90
844.63	24241.81
844.81	24202.89
844.98	24250.00
845.16	24272.53
845.33	23977.62
845.51	23864.98
845.69	23719.57
845.86	23840.40
846.04	23590.55
846.21	23637.66
846.39	23506.59
846.57	23522.97
846.74	23482.01
846.92	23692.95
847.09	23592.60
847.27	23418.52
847.45	23682.71
847.62	23748.25
847.80	23729.81
847.97	23713.43
848.15	23336.60
848.32	23455.39
848.50	23418.52
848.68	23066.27
848.85	23338.65
849.03	23099.04
849.20	23191.20
849.38	22986.40
849.56	23309.98
849.73	23037.60
849.91	22890.15
850.08	23408.28
850.26	23006.88
850.43	23105.18
850.61	22890.15
850.78	22804.13
850.96	22959.78
851.14	22703.78
851.31	22795.94
851.49	22828.71
851.66	22838.95
851.84	22771.36
852.01	22779.56
852.19	22716.07
852.36	22658.73
852.54	22722.21
852.71	22765.22
852.89	22628.01
853.07	22541.99
853.24	22785.70
853.42	22730.41
853.59	22503.08
853.77	22654.63
853.94	22335.15
854.12	22490.79
854.29	22023.86
854.47	22564.52
854.64	22322.86
854.82	22357.67
854.99	22165.17
855.17	22007.47
855.34	21978.80
855.52	21982.90
855.69	22212.27
855.87	21935.79
856.04	21974.70
856.22	22130.35
856.39	21841.59
856.57	21802.68
856.74	21753.52
856.92	21870.26
857.09	21610.17
857.27	21774.00
857.44	21796.53
857.62	21798.58
857.79	21986.99
857.97	21890.74
858.14	21776.05
858.32	21681.85
858.49	21522.10
858.67	21325.50
858.84	21384.89
859.02	21370.55
859.19	21395.13
859.37	21290.68
859.54	21370.55
859.72	21571.25
859.89	21632.69
860.06	21608.12
860.24	21161.66
860.41	21585.59
860.59	21194.43
860.76	21178.04
860.94	21216.96
861.11	21366.46
861.29	21139.13
861.46	21139.13
861.64	21286.59
861.81	20979.39
861.98	21046.97
862.16	21055.17
862.33	20922.05
862.51	20985.54
862.68	20743.88
862.86	20887.23
863.03	20735.68
863.21	20586.18
863.38	20508.36
863.55	20758.21
863.73	20979.39
863.90	20629.19
864.08	20778.69
864.25	20664.00
864.43	20588.23
864.60	20414.15
864.77	20451.02
864.95	20371.15
865.12	20477.64
865.30	20395.72
865.47	20002.51
865.64	20383.43
865.82	20303.56
865.99	20483.78
866.17	20483.78
866.34	20338.38
866.51	20256.46
866.69	20262.60
866.86	20264.65
867.04	19939.02
867.21	19840.72
867.38	19971.79
867.56	19816.15
867.73	19908.30
867.91	20156.11
868.08	19726.04
868.25	19875.54
868.43	19584.73
868.60	19461.85
868.78	19719.89
868.95	19758.80
869.12	19752.66
869.30	19521.24
869.47	19670.74
869.64	19453.66
869.82	19586.77
869.99	19402.46
870.16	19732.18
870.34	19726.04
870.51	19711.70
870.69	19478.23
870.86	19330.78
871.03	19744.47
871.21	19422.94
871.38	19361.50
871.55	19132.12
871.73	19240.67
871.90	19199.71
872.07	19039.97
872.25	19228.38
872.42	18863.84
872.59	19050.21
872.77	18980.57
872.94	19109.60
873.11	19089.12
873.29	18988.77
873.46	18851.55
873.63	19050.21
873.81	18808.54
873.98	18747.11
874.15	18511.59
874.33	18499.30
874.50	18616.04
874.67	18431.72
874.85	18589.41
875.02	18345.70
875.19	18480.87
875.37	18687.71
875.54	18171.63
875.71	18527.97
875.88	18044.65
876.06	18362.09
876.23	18325.22
876.40	18120.43
876.58	18269.93
876.75	18081.52
876.92	17991.41
877.10	18284.26
877.27	18112.24
877.44	18169.58
877.61	17899.25
877.79	17868.53
877.96	18003.69
878.13	17895.15
878.31	17510.13
878.48	17682.16
878.65	17635.06
878.82	17678.07
879.00	17405.69
879.17	17792.75
879.34	17856.24
879.51	17538.80
879.69	17581.81
879.86	17424.12
880.03	17528.56
880.21	17493.75
880.38	17512.18
880.55	17374.97
880.72	17399.54
880.90	17288.95
881.07	17250.04
881.24	17495.80
881.41	17604.34
881.59	17172.22
881.76	17237.75
881.93	17264.38
882.10	17159.93
882.28	17297.14
882.45	17309.43
882.62	17114.87
882.79	16998.14
882.96	16805.63
883.14	16916.22
883.31	17258.23
883.48	16920.32
883.65	16989.95
883.83	17020.67
884.00	17059.58
884.17	16809.73
884.34	17045.24
884.51	16893.69
884.69	16789.25
884.86	16674.56
885.03	16543.49
885.20	16766.72
885.38	16809.73
885.55	16883.45
885.72	16768.77
885.89	16690.95
886.06	16654.08
886.24	16537.35
886.41	16742.14
886.58	16738.05
886.75	16566.02
886.92	16518.92
887.10	16678.66
887.27	16723.71
887.44	16785.15
887.61	16570.12
887.78	16613.12
887.95	16568.07
888.13	16230.15
888.30	16269.06
888.47	16361.22
888.64	16281.35
888.81	16346.89
888.99	16326.41
889.16	16101.13
889.33	16191.24
889.50	16113.42
889.67	16273.16
889.84	16166.67
890.01	16148.23
890.19	15933.20
890.36	16377.61
890.53	15931.15
890.70	15898.38
890.87	16035.60
891.04	15707.92
891.22	15986.44
891.39	15834.89
891.56	15904.53
891.73	15818.51
891.90	15566.61
892.07	15705.87
892.24	15935.24
892.42	15683.34
892.59	15875.85
892.76	15574.80
892.93	15929.10
893.10	15824.65
893.27	15644.43
893.44	15484.69
893.61	15474.45
893.79	15884.05
893.96	15697.68
894.13	15404.82
894.30	15507.22
894.47	15552.27
894.64	15576.85
894.81	15400.72
894.98	15603.47
895.15	15630.10
895.33	15513.36
895.50	15255.32
895.67	15560.47
895.84	15738.64
896.01	15367.96
896.18	15621.91
896.35	15544.08
896.52	15662.86
896.69	15324.95
896.86	15486.74
897.04	15435.54
897.21	15279.89
897.38	15527.70
897.55	15429.40
897.72	15421.20
897.89	15122.20
898.06	15363.86
898.23	15550.23
898.40	15386.39
898.57	15603.47
898.74	15437.59
898.91	15447.83
899.08	15423.25
899.26	15374.10
899.43	15574.80
899.60	15318.81
899.77	15329.05
899.94	15298.33
900.11	15197.98
900.28	15208.22
900.45	15265.56
900.62	15372.05
900.79	15292.18
900.96	15333.14
901.13	15476.50
901.30	15122.20
901.47	15200.02
901.64	15208.22
901.81	15482.64
901.98	15056.67
902.15	15456.02
902.32	15161.11
902.49	15331.09
902.66	15355.67
902.83	15302.42
903.01	15443.73
903.18	15337.24
903.35	15433.49
903.52	15380.25
903.69	15107.87
903.86	15603.47
904.03	15247.13
904.20	15599.38
904.37	15611.67
904.54	15245.08
904.71	15159.06
904.88	15283.99
905.05	15193.88
905.22	15308.57
905.39	15245.08
905.56	15183.64
905.73	15263.51
905.90	15177.50
906.07	15308.57
906.24	15212.31
906.41	15306.52
906.58	15097.63
906.75	15324.95
906.92	15314.71
907.09	15380.25
907.26	15249.18
907.43	15245.08
907.60	15140.63
907.77	15202.07
907.93	15269.66
908.10	15027.99
908.27	15417.11
908.44	14991.13
908.61	15025.95
908.78	15116.06
908.95	15365.91
909.12	15429.40
909.29	15347.48
909.46	15202.07
909.63	15214.36
909.80	15060.76
909.97	15253.27
910.14	15197.98
910.31	15071.00
910.48	15226.65
910.65	15003.42
910.82	15208.22
910.99	14933.79
911.16	15050.52
911.33	14991.13
911.50	14987.04
911.66	15027.99
911.83	14987.04
912.00	14909.21
912.17	14849.82
912.34	14829.34
912.51	14792.48
912.68	14784.29
912.85	14978.84
913.02	15017.75
913.19	14823.20
913.36	14825.25
913.53	14866.21
913.70	14739.23
913.86	14804.77
914.03	14518.05
914.20	14522.15
914.37	14831.39
914.54	14935.84
914.71	14651.17
914.88	14479.14
915.05	14655.26
915.22	14634.78
915.39	14618.40
915.55	14835.49
915.72	14245.67
915.89	14411.56
916.06	14329.64
916.23	14235.43
916.40	14329.64
916.57	14337.83
916.74	14266.15
916.91	14126.89
917.07	13995.82
917.24	14126.89
917.41	14004.01
917.58	13909.80
917.75	13887.28
917.92	13766.45
918.09	13827.88
918.26	13977.39
918.42	13737.77
918.59	13819.69
918.76	13694.77
918.93	13686.58
919.10	13666.10
919.27	13559.60
919.44	13834.03
919.60	13756.21
919.77	13604.66
919.94	13555.51
920.11	13289.27
920.28	13596.46
920.45	13201.21
920.61	13479.73
920.78	13453.11
920.95	13262.65
921.12	13020.99
921.29	13221.69
921.46	13209.40
921.62	13170.49
921.79	13250.36
921.96	13113.14
922.13	13029.18
922.30	13080.38
922.47	13023.03
922.63	13141.82
922.80	12924.73
922.97	12742.46
923.14	12668.73
923.31	12713.79
923.47	12441.41
923.64	12906.30
923.81	12662.59
923.98	12476.23
924.15	12541.76
924.32	12504.90
924.48	12371.78
924.65	12359.49
924.82	12230.47
924.99	12359.49
925.15	12105.54
925.32	12281.67
925.49	12042.06
925.66	12103.50
925.83	11915.08
925.99	12013.38
926.16	11951.95
926.33	12083.02
926.50	11755.34
926.67	12015.43
926.83	11718.48
927.00	11741.00
927.17	11939.66
927.34	11599.70
927.50	11568.98
927.67	11736.91
927.84	11544.40
928.01	11323.22
928.17	11489.10
928.34	11454.29
928.51	11423.57
928.68	11220.82
928.84	11267.92
929.01	11020.12
929.18	11116.37
929.35	11052.89
929.51	11005.78
929.68	10911.58
929.85	10913.63
930.02	10753.88
930.18	10919.77
930.35	10903.39
930.52	10911.58
930.69	10655.58
930.85	10631.01
931.02	10628.96
931.19	10608.48
931.36	10596.19
931.52	10452.83
931.69	10645.34
931.86	10463.07
932.02	10395.49
932.19	10397.54
932.36	10237.80
932.53	10170.21
932.69	10055.53
932.86	10362.72
933.03	10141.54
933.19	9951.08
933.36	10004.33
933.53	10022.76
933.70	9906.02
933.86	10069.86
934.03	10053.48
934.20	9795.43
934.36	9711.47
934.53	9709.42
934.70	9426.80
934.86	9838.44
935.03	9547.63
935.20	9406.32
935.36	9334.64
935.53	9199.48
935.70	9127.80
935.86	8990.58
936.03	9039.73
936.20	8812.41
936.36	8771.45
936.53	9029.49
936.70	8558.46
936.86	8826.75
937.03	8578.94
937.20	8619.90
937.36	8669.05
937.53	8228.74
937.70	8132.48
937.86	8038.28
938.03	8220.55
938.20	8169.35
938.36	7798.66
938.53	8050.57
938.70	7690.12
938.86	7851.91
939.03	7688.07
939.20	7626.64
939.36	7380.88
939.53	7477.13
939.70	7495.57
939.86	7227.28
940.03	7096.21
940.19	7032.72
940.36	7014.29
940.53	7028.63
940.69	6934.42
940.86	6834.07
941.03	6758.30
941.19	6555.55
941.36	6573.98
941.52	6784.92
941.69	6397.85
941.86	6494.11
942.02	6469.53
942.19	6313.89
942.35	6317.98
942.52	6342.56
942.69	6061.99
942.85	6135.71
943.02	6213.54
943.18	5984.16
943.35	6053.80
943.52	6045.60
943.68	5816.23
943.85	5926.82
944.01	5734.31
944.18	5785.51
944.35	5851.05
944.51	5783.46
944.68	5697.45
944.84	5613.48
945.01	5558.19
945.17	5693.35
945.34	5748.65
945.51	5668.78
945.67	5676.97
945.84	5722.02
946.00	5410.73
946.17	5545.90
946.33	5478.32
946.50	5529.52
946.67	5529.52
946.83	5490.60
947.00	5603.24
947.16	5447.60
947.33	5408.69
947.49	5392.30
947.66	5349.29
947.82	5644.20
947.99	5468.08
948.16	5623.72
948.32	5486.51
948.49	5451.69
948.65	5547.95
948.82	5263.28
948.98	5492.65
949.15	5375.92
949.31	5498.80
949.48	5398.45
949.64	5482.41
949.81	5363.63
949.97	5439.40
950.14	5562.28
950.30	5390.25
950.47	5593.00
950.63	5435.31
950.80	5545.90
950.96	5375.92
951.13	5554.09
951.30	5519.28
951.46	5470.12
951.63	5523.37
951.79	5558.19
951.96	5570.48
952.12	5459.88
952.29	5543.85
952.45	5461.93
952.62	5480.36
952.78	5576.62
952.94	5466.03
953.11	5470.12
953.27	5386.16
953.44	5531.56
953.60	5601.19
953.77	5474.22
953.93	5590.95
954.10	5552.04
954.26	5603.24
954.43	5666.73
954.59	5605.29
954.76	5730.22
954.92	5547.95
955.09	5685.16
955.25	5509.04
955.42	5709.74
955.58	5730.22
955.75	5683.11
955.91	5566.38
956.07	5670.83
956.24	5781.42
956.40	5670.83
956.57	5648.30
956.73	5681.07
956.90	5754.79
957.06	5670.83
957.23	5652.39
957.39	5521.32
957.56	5525.42
957.72	5500.84
957.88	5611.43
958.05	5793.70
958.21	5851.05
958.38	5697.45
958.54	5564.33
958.71	5803.94
958.87	5642.15
959.03	5627.82
959.20	5728.17
959.36	5500.84
959.53	5629.87
959.69	5564.33
959.85	5660.59
960.02	5584.81
960.18	5711.78
960.35	5523.37
960.51	5685.16
960.68	5545.90
960.84	5603.24
961.00	5615.53
961.17	5681.07
961.33	5724.07
961.50	5742.50
961.66	5769.13
961.82	5545.90
961.99	5636.01
962.15	5613.48
962.31	5713.83
962.48	5676.97
962.64	5736.36
962.81	5617.58
962.97	5642.15
963.13	5513.13
963.30	5533.61
963.46	5545.90
963.62	5496.75
963.79	5674.92
963.95	5582.76
964.12	5527.47
964.28	5644.20
964.44	5574.57
964.61	5666.73
964.77	5613.48
964.93	5676.97
965.10	5603.24
965.26	5384.11
965.42	5500.84
965.59	5408.69
965.75	5351.34
965.92	5459.88
966.08	5597.10
966.24	5576.62
966.41	5539.76
966.57	5463.98
966.73	5547.95
966.90	5468.08
967.06	5480.36
967.22	5625.77
967.39	5474.22
967.55	5377.97
967.71	5230.51
967.88	5408.69
968.04	5369.77
968.20	5474.22
968.37	5427.12
968.53	5408.69
968.69	5308.34
968.85	5337.01
969.02	5316.53
969.18	5390.25
969.34	5216.18
969.51	5457.84
969.67	5380.01
969.83	5312.43
970.00	5377.97
970.16	5253.04
970.32	5355.44
970.48	5425.07
970.65	5212.08
970.81	5273.52
970.97	5160.88
971.14	5130.16
971.30	5236.66
971.46	5248.94
971.63	5167.03
971.79	5449.64
971.95	5212.08
972.11	5044.15
972.28	5087.15
972.44	5207.98
972.60	4890.55
972.76	5070.77
972.93	5103.54
973.09	5132.21
973.25	5177.26
973.42	5017.52
973.58	5142.45
973.74	5205.94
973.90	5109.68
974.07	5070.77
974.23	5111.73
974.39	5076.91
974.55	4943.80
974.72	4951.99
974.88	4978.61
975.04	4931.51
975.20	4847.54
975.37	4939.70
975.53	4947.89
975.69	5031.86
975.85	4951.99
976.01	4923.32
976.18	4898.74
976.34	4900.79
976.50	5017.52
976.66	5040.05
976.83	4802.49
976.99	4825.01
977.15	4806.58
977.31	4730.81
977.47	4771.77
977.64	4616.12
977.80	4753.34
977.96	4732.86
978.12	4777.91
978.29	4753.34
978.45	4765.62
978.61	4679.61
978.77	4698.04
978.93	4632.51
979.10	4736.95
979.26	4673.46
979.42	4736.95
979.58	4646.84
979.74	4630.46
979.91	4722.62
980.07	4505.53
980.23	4560.83
980.39	4526.01
980.55	4605.88
980.71	4763.58
980.88	4579.26
981.04	4499.39
981.20	4548.54
981.36	4517.82
981.52	4427.71
981.68	4433.85
981.85	4485.05
982.01	4507.58
982.17	4507.58
982.33	4530.11
982.49	4386.75
982.65	4419.52
982.82	4507.58
982.98	4483.00
983.14	4366.27
983.30	4458.43
983.46	4478.91
983.62	4446.14
983.79	4304.83
983.95	4296.64
984.11	4294.59
984.27	4360.13
984.43	4425.66
984.59	4337.60
984.75	4407.23
984.91	4313.02
985.08	4263.87
985.24	4212.67
985.40	4235.20
985.56	4220.86
985.72	4372.41
985.88	4325.31
986.04	4136.90
986.20	4081.60
986.37	4122.56
986.53	4151.23
986.69	4100.03
986.85	4065.22
987.01	4120.51
987.17	4181.95
987.33	4061.12
987.49	4198.34
987.65	4190.14
987.82	4100.03
987.98	4009.92
988.14	4073.41
988.30	4175.81
988.46	3960.77
988.62	3993.54
988.78	4091.84
988.94	4048.83
989.10	3962.82
989.26	3962.82
989.42	3985.35
989.59	3821.51
989.75	3825.61
989.91	3846.09
990.07	3860.42
990.23	3887.04
990.39	3878.85
990.55	3932.10
990.71	3827.65
990.87	3952.58
991.03	3960.77
991.19	3805.13
991.35	3807.17
991.51	3811.27
991.67	3794.89
991.83	3887.04
992.00	3852.23
992.16	3811.27
992.32	3899.33
992.48	3817.41
992.64	3661.77
992.80	3895.24
992.96	3770.31
993.12	3743.69
993.28	3764.17
993.44	3862.47
993.60	3715.02
993.76	3647.43
993.92	3682.25
994.08	3801.03
994.24	3801.03
994.40	3723.21
994.56	3694.54
994.72	3657.67
994.88	3518.41
995.04	3608.52
995.20	3674.06
995.36	3649.48
995.52	3616.71
995.68	3518.41
995.84	3612.62
996.00	3735.50
996.16	3526.60
996.32	3495.88
996.48	3600.33
996.64	3571.66
996.80	3467.21
996.96	3495.88
997.12	3477.45
997.28	3495.88
997.44	3530.70
997.60	3565.51
997.76	3514.31
997.92	3520.46
998.08	3530.70
998.24	3350.48
998.40	3493.83
998.56	3471.31
998.72	3362.76
998.88	3356.62
999.04	3397.58
999.20	3344.33
999.36	3321.81
999.52	3436.49
999.68	3469.26
999.84	3502.03
1000.00	3465.16
1000.16	3360.72
1000.32	3313.61
1000.48	3393.48
1000.64	3225.55
1000.80	3354.57
1000.95	3246.03
1001.11	3338.19
1001.27	3250.13
1001.43	3278.80
1001.59	3213.26
1001.75	3246.03
1001.91	3325.90
1002.07	3211.22
1002.23	3196.88
1002.39	3241.93
1002.55	3137.49
1002.71	3131.34
1002.87	3141.58
1003.03	3123.15
1003.19	3205.07
1003.34	3248.08
1003.50	3203.02
1003.66	3235.79
1003.82	3223.50
1003.98	3149.78
1004.14	3125.20
1004.30	3026.90
1004.46	3102.67
1004.62	3041.23
1004.78	3094.48
1004.94	3037.14
1005.09	3164.11
1005.25	3139.54
1005.41	3008.47
1005.57	3155.92
1005.73	3018.71
1005.89	3006.42
1006.05	3082.19
1006.21	3035.09
1006.37	2940.88
1006.52	2910.16
1006.68	2818.00
1006.84	3080.14
1007.00	2904.02
1007.16	3020.75
1007.32	2992.08
1007.48	2938.84
1007.64	3002.32
1007.79	2836.44
1007.95	2850.77
1008.11	2932.69
1008.27	2838.48
1008.43	2942.93
1008.59	2881.49
1008.75	2926.55
1008.91	2934.74
1009.06	2820.05
1009.22	2963.41
1009.38	2834.39
1009.54	2760.66
1009.70	2879.44
1009.86	2809.81
1010.01	2887.64
1010.17	2746.33
1010.33	2846.68
1010.49	2785.24
1010.65	2848.72
1010.81	2697.17
1010.96	2713.56
1011.12	2680.79
1011.28	2676.70
1011.44	2811.86
1011.60	2727.89
1011.76	2691.03
1011.91	2871.25
1012.07	2625.50
1012.23	2758.61
1012.39	2611.16
1012.55	2779.09
1012.71	2662.36
1012.86	2652.12
1013.02	2639.83
1013.18	2723.80
1013.34	2662.36
1013.50	2736.09
1013.65	2658.26
1013.81	2527.19
1013.97	2678.74
1014.13	2695.13
1014.29	2629.59
1014.44	2701.27
1014.60	2512.86
1014.76	2588.63
1014.92	2658.26
1015.07	2652.12
1015.23	2656.22
1015.39	2541.53
1015.55	2631.64
1015.71	2631.64
1015.86	2547.67
1016.02	2420.70
1016.18	2502.62
1016.34	2584.54
1016.49	2535.39
1016.65	2635.74
1016.81	2516.95
1016.97	2559.96
1017.12	2609.11
1017.28	2498.52
1017.44	2414.56
1017.60	2455.51
1017.75	2416.60
1017.91	2500.57
1018.07	2516.95
1018.23	2467.80
1018.38	2432.99
1018.54	2531.29
1018.70	2353.12
1018.86	2410.46
1019.01	2435.03
1019.17	2461.66
1019.33	2430.94
1019.49	2435.03
1019.64	2289.63
1019.80	2447.32
1019.96	2424.80
1020.12	2459.61
1020.27	2406.36
1020.43	2320.35
1020.59	2420.70
1020.74	2351.07
1020.90	2465.75
1021.06	2320.35
1021.22	2306.01
1021.37	2357.21
1021.53	2367.45
1021.69	2369.50
1021.84	2303.96
1022.00	2330.59
1022.16	2293.72
1022.31	2258.91
1022.47	2320.35
1022.63	2250.72
1022.79	2232.29
1022.94	2303.96
1023.10	2435.03
1023.26	2371.55
1023.41	2308.06
1023.57	2328.54
1023.73	2328.54
1023.88	2263.01
1024.04	2158.56
1024.20	2242.53
1024.35	2303.96
1024.51	2248.67
1024.67	2238.43
1024.82	2306.01
1024.98	2142.18
1025.14	2193.37
1025.29	2246.62
1025.45	2291.68
1025.61	2191.33
1025.76	2183.13
1025.92	2211.81
1026.08	2181.09
1026.23	2254.81
1026.39	2244.57
1026.55	2199.52
1026.70	2152.42
1026.86	2166.75
1027.02	2277.34
1027.17	2199.52
1027.33	2146.27
1027.48	2172.89
1027.64	2107.36
1027.80	2095.07
1027.95	2080.74
1028.11	2037.73
1028.27	2144.22
1028.42	2197.47
1028.58	2082.78
1028.73	2148.32
1028.89	2093.02
1029.05	2211.81
1029.20	2097.12
>>>>>End Processed Spectral Data<<<<<
