SpectraSuite Data File
++++++++++++++++++++++++++++++++++++
Date: Fri Jun 02 14:52:29 CEST 2017
User: INFO_000
Dark Spectrum Present: No
Reference Spectrum Present: No
Number of Sampled Component Spectra: 1
Spectrometers: USB4H00879
Integration Time (usec): 80000 (USB4H00879)
Spectra Averaged: 1 (USB4H00879)
Boxcar Smoothing: 0 (USB4H00879)
Correct for Electrical Dark: No (USB4H00879)
Strobe/Lamp Enabled: No (USB4H00879)
Correct for Detector Non-linearity: No (USB4H00879)
Correct for Stray Light: No (USB4H00879)
Number of Pixels in Processed Spectrum: 3648
>>>>>Begin Processed Spectral Data<<<<<
345.13	1261.55
345.34	1261.55
345.56	1261.55
345.78	1267.69
345.99	1239.02
346.21	1695.72
346.42	1720.29
346.64	1701.86
346.86	1746.92
347.07	1607.66
347.29	1652.71
347.50	1687.53
347.72	1638.38
347.94	1738.73
348.15	1593.32
348.37	1646.57
348.59	1712.10
348.80	1646.57
349.02	1746.92
349.23	1955.81
349.45	1871.84
349.67	1910.75
349.88	1816.55
350.10	1957.86
350.31	1855.46
350.53	1785.83
350.75	1939.43
350.96	1843.17
351.18	1851.36
351.39	1855.46
351.61	1822.69
351.82	1894.37
352.04	1970.15
352.26	1771.49
352.47	1947.62
352.69	1935.33
352.90	1759.21
353.12	1863.65
353.34	1855.46
353.55	1998.82
353.77	1888.23
353.98	1841.12
354.20	1822.69
354.41	1968.10
354.63	1892.32
354.85	2080.74
355.06	1886.18
355.28	1796.07
355.49	1916.90
355.71	1820.64
355.92	1863.65
356.14	1839.08
356.35	1845.22
356.57	1798.12
356.79	1982.43
357.00	1853.41
357.22	1918.95
357.43	1847.27
357.65	1988.58
357.86	1877.99
358.08	1908.71
358.29	1904.61
358.51	2021.35
358.72	2037.73
358.94	1912.80
359.16	1959.91
359.37	1943.52
359.59	1877.99
359.80	1988.58
360.02	1933.28
360.23	2021.35
360.45	2023.39
360.66	1988.58
360.88	1849.32
361.09	1943.52
361.31	2017.25
361.52	1984.48
361.74	2101.22
361.95	2113.50
362.17	1972.19
362.38	2084.83
362.60	2086.88
362.81	1994.72
363.03	2029.54
363.24	1955.81
363.46	2093.02
363.67	2072.54
363.89	1992.67
364.10	2107.36
364.32	1982.43
364.53	2039.78
364.75	1894.37
364.96	2066.40
365.18	1978.34
365.39	1980.39
365.61	1953.76
365.82	2164.70
366.04	2004.96
366.25	1990.63
366.47	2052.06
366.68	2052.06
366.90	1978.34
367.11	2074.59
367.33	2103.26
367.54	2150.37
367.76	2043.87
367.97	2203.61
368.19	2052.06
368.40	2103.26
368.62	1937.38
368.83	2031.58
369.05	2150.37
369.26	1959.91
369.48	1972.19
369.69	1961.95
369.91	2074.59
370.12	2025.44
370.33	2187.23
370.55	2033.63
370.76	1982.43
370.98	2125.79
371.19	2103.26
371.41	2035.68
371.62	2054.11
371.84	2105.31
372.05	2265.05
372.27	2101.22
372.48	2170.85
372.69	2013.15
372.91	2318.30
373.12	2189.28
373.34	2222.05
373.55	2164.70
373.77	2099.17
373.98	2078.69
374.20	2217.95
374.41	2252.77
374.62	2113.50
374.84	2189.28
375.05	2234.33
375.27	2181.09
375.48	2160.61
375.70	2179.04
375.91	2228.19
376.12	2324.44
376.34	2144.22
376.55	2179.04
376.77	2267.10
376.98	2103.26
377.19	2074.59
377.41	2176.99
377.62	2195.42
377.84	2312.16
378.05	2355.16
378.27	2205.66
378.48	2338.78
378.69	2396.12
378.91	2359.26
379.12	2269.15
379.34	2232.29
379.55	2314.20
379.76	2324.44
379.98	2217.95
380.19	2187.23
380.41	2197.47
380.62	2359.26
380.83	2234.33
381.05	2164.70
381.26	2402.27
381.47	2283.49
381.69	2355.16
381.90	2379.74
382.12	2330.59
382.33	2344.92
382.54	2226.14
382.76	2273.25
382.97	2318.30
383.19	2236.38
383.40	2412.51
383.61	2342.88
383.83	2312.16
384.04	2344.92
384.25	2404.32
384.47	2381.79
384.68	2471.90
384.89	2428.89
385.11	2271.20
385.32	2340.83
385.54	2387.93
385.75	2289.63
385.96	2461.66
386.18	2422.75
386.39	2447.32
386.60	2312.16
386.82	2447.32
387.03	2480.09
387.24	2559.96
387.46	2475.99
387.67	2469.85
387.88	2533.34
388.10	2445.27
388.31	2463.71
388.52	2596.82
388.74	2473.95
388.95	2496.47
389.16	2545.63
389.38	2516.95
389.59	2588.63
389.80	2684.89
390.02	2533.34
390.23	2572.25
390.44	2621.40
390.66	2564.06
390.87	2543.58
391.08	2670.55
391.30	2793.43
391.51	2570.20
391.72	2752.47
391.94	2697.17
392.15	2637.78
392.36	2682.84
392.58	2633.69
392.79	2707.41
393.00	2693.08
393.22	2731.99
393.43	2838.48
393.64	2770.90
393.85	2805.72
394.07	2723.80
394.28	2852.82
394.49	2762.71
394.71	2789.33
394.92	2797.53
395.13	2811.86
395.35	2797.53
395.56	2793.43
395.77	2875.35
395.98	2846.68
396.20	2828.24
396.41	2858.96
396.62	3033.04
396.84	2795.48
397.05	2846.68
397.26	2918.36
397.47	2940.88
397.69	2846.68
397.90	2996.18
398.11	2992.08
398.32	2955.22
398.54	2918.36
398.75	2936.79
398.96	2940.88
399.18	3082.19
399.39	3035.09
399.60	3112.91
399.81	3045.33
400.03	2955.22
400.24	3323.85
400.45	3041.23
400.66	3196.88
400.88	3035.09
401.09	3262.41
401.30	3043.28
401.51	3172.30
401.73	3112.91
401.94	3026.90
402.15	3174.35
402.36	3125.20
402.58	3194.83
402.79	3207.12
403.00	3256.27
403.21	3311.57
403.43	3289.04
403.64	3280.85
403.85	3184.59
404.06	3336.14
404.27	3188.69
404.49	3219.41
404.70	3260.37
404.91	3346.38
405.12	3297.23
405.34	3338.19
405.55	3510.22
405.76	3299.28
405.97	3227.60
406.19	3381.20
406.40	3313.61
406.61	3360.72
406.82	3448.78
407.03	3407.82
407.25	3338.19
407.46	3542.99
407.67	3532.75
407.88	3565.51
408.09	3413.96
408.31	3448.78
408.52	3522.51
408.73	3401.68
408.94	3444.68
409.15	3438.54
409.37	3571.66
409.58	3616.71
409.79	3555.27
410.00	3606.47
410.21	3475.40
410.43	3542.99
410.64	3542.99
410.85	3547.08
411.06	3647.43
411.27	3557.32
411.48	3624.90
411.70	3485.64
411.91	3637.19
412.12	3680.20
412.33	3528.65
412.54	3631.05
412.76	3727.30
412.97	3743.69
413.18	3534.79
413.39	3768.26
413.60	3610.57
413.81	3770.31
414.03	3694.54
414.24	3674.06
414.45	3880.90
414.66	3649.48
414.87	3872.71
415.08	3821.51
415.30	3821.51
415.51	3899.33
415.72	3745.73
415.93	3735.50
416.14	3772.36
416.35	3852.23
416.56	3930.05
416.78	3885.00
416.99	3923.91
417.20	3815.37
417.41	3981.25
417.62	3979.20
417.83	4014.02
418.04	3878.85
418.26	3964.87
418.47	3876.80
418.68	4044.74
418.89	4065.22
419.10	4044.74
419.31	3952.58
419.52	4136.90
419.73	4050.88
419.95	4163.52
420.16	3985.35
420.37	3991.49
420.58	4247.49
420.79	3993.54
421.00	4143.04
421.21	4091.84
421.42	4048.83
421.63	4102.08
421.85	4091.84
422.06	4136.90
422.27	4124.61
422.48	4280.25
422.69	4196.29
422.90	4399.04
423.11	4437.95
423.32	4388.80
423.53	4448.19
423.75	4296.64
423.96	4597.69
424.17	4472.76
424.38	4509.63
424.59	4433.85
424.80	4640.70
425.01	4523.96
425.22	4437.95
425.43	4515.77
425.64	4628.41
425.85	4681.66
426.06	4575.16
426.28	4644.79
426.49	4499.39
426.70	4540.35
426.91	4652.98
427.12	4720.57
427.33	4618.17
427.54	4544.44
427.75	4759.48
427.96	4810.68
428.17	4665.27
428.38	4782.01
428.59	4999.09
428.80	4734.90
429.01	4906.93
429.23	4771.77
429.44	4990.90
429.65	4974.52
429.86	5089.20
430.07	4886.45
430.28	4878.26
430.49	4958.13
430.70	5220.27
430.91	5097.39
431.12	5044.15
431.33	5113.78
431.54	5271.47
431.75	5216.18
431.96	5162.93
432.17	5031.86
432.38	5187.50
432.59	5371.82
432.80	5394.35
433.01	5349.29
433.22	5437.36
433.43	5318.57
433.64	5304.24
433.85	5187.50
434.06	5332.91
434.27	5244.85
434.49	5377.97
434.70	5541.80
434.91	5517.23
435.12	5607.34
435.33	5576.62
435.54	5711.78
435.75	5322.67
435.96	5662.63
436.17	5537.71
436.38	5617.58
436.59	5861.29
436.80	5603.24
437.01	5818.28
437.22	5785.51
437.43	5785.51
437.64	5597.10
437.85	5810.09
438.06	5865.38
438.27	5777.32
438.48	5758.89
438.69	6088.61
438.90	5853.09
439.11	5873.57
439.32	5945.25
439.53	5924.77
439.74	5998.50
439.95	6031.27
440.16	5941.16
440.37	5975.97
440.57	5935.01
440.78	6027.17
440.99	6154.15
441.20	5990.31
441.41	6137.76
441.62	6217.63
441.83	6047.65
442.04	6064.04
442.25	6180.77
442.46	6268.83
442.67	6221.73
442.88	6756.25
443.09	6186.91
443.30	6311.84
443.51	6227.87
443.72	6705.05
443.93	6168.48
444.14	6602.65
444.35	6311.84
444.56	6487.96
444.77	6438.81
444.98	6533.02
445.19	6553.50
445.40	6672.28
445.61	6580.12
445.81	6770.58
446.02	6760.34
446.23	6541.21
446.44	6490.01
446.65	6793.11
446.86	6700.95
447.07	6823.83
447.28	6872.98
447.49	6918.04
447.70	6741.91
447.91	6760.34
448.12	6821.78
448.33	6858.65
448.54	6905.75
448.74	6795.16
448.95	6989.72
449.16	6815.64
449.37	7348.11
449.58	7036.82
449.79	7214.99
450.00	6987.67
450.21	7008.15
450.42	7237.52
450.63	7202.71
450.84	7169.94
451.05	7180.18
451.25	7075.73
451.46	7145.36
451.67	7364.50
451.88	7409.55
452.09	7473.04
452.30	7354.26
452.51	7405.46
452.72	7554.96
452.93	7813.00
453.13	7356.30
453.34	7487.37
453.55	7620.49
453.76	7618.44
453.97	7939.97
454.18	7540.62
454.39	7823.24
454.60	7696.27
454.81	7772.04
455.01	7868.30
455.22	7587.72
455.43	7858.06
455.64	7835.53
455.85	8126.34
456.06	8214.40
456.27	7982.98
456.48	8023.94
456.68	8032.13
456.89	7989.13
457.10	8204.16
457.31	8054.66
457.52	8056.71
457.73	8318.85
457.94	8462.21
458.14	8236.93
458.35	8603.52
458.56	8331.14
458.77	8400.77
458.98	8619.90
459.19	8398.72
459.39	8523.65
459.60	8703.87
459.81	8519.55
460.02	8667.00
460.23	8765.31
460.44	9035.64
460.65	8781.69
460.85	8816.51
461.06	8910.71
461.27	8779.64
461.48	9072.50
461.69	9185.14
461.89	8970.10
462.10	8879.99
462.31	8816.51
462.52	9123.70
462.73	9080.69
462.94	9523.05
463.14	9330.55
463.35	9234.29
463.56	9721.71
463.77	9531.25
463.98	9252.72
464.18	9486.19
464.39	9572.21
464.60	9797.48
464.81	9588.59
465.02	9512.81
465.23	10006.38
465.43	9701.23
465.64	10125.16
465.85	9865.07
466.06	9877.35
466.27	10194.79
466.47	10108.77
466.68	10022.76
466.89	10045.29
467.10	10303.33
467.30	9992.04
467.51	10444.64
467.72	10542.94
467.93	10225.51
468.14	10555.23
468.34	10405.73
468.55	10620.77
468.76	10663.77
468.97	10501.98
469.17	10835.80
469.38	10874.71
469.59	10876.76
469.80	10766.17
470.01	11099.99
470.21	11050.84
470.42	11036.50
470.63	11302.74
470.84	11122.52
471.04	11298.64
471.25	11345.75
471.46	11384.66
471.67	11654.99
471.87	11587.41
472.08	11829.07
472.29	11837.26
472.50	11511.63
472.70	11700.05
472.91	11661.13
473.12	11870.03
473.33	12152.65
473.53	12431.17
473.74	11917.13
473.95	12160.84
474.16	12537.66
474.36	12332.87
474.57	12369.73
474.78	12791.61
474.99	12838.72
475.19	12662.59
475.40	12797.76
475.61	12937.02
475.81	13051.70
476.02	13209.40
476.23	12879.68
476.44	13221.69
476.64	13492.02
476.85	13444.91
477.06	13614.90
477.27	13887.28
477.47	13805.36
477.68	13784.88
477.89	13971.24
478.09	13938.48
478.30	13995.82
478.51	14034.73
478.71	14186.28
478.92	14458.66
479.13	14597.92
479.34	14577.44
479.54	14534.43
479.75	14663.46
479.96	14741.28
480.16	14980.89
480.37	14997.28
480.58	15163.16
480.78	15191.83
480.99	15273.75
481.20	15589.14
481.41	15413.01
481.61	15615.76
481.82	15554.32
482.03	15685.39
482.23	15472.40
482.44	15824.65
482.65	16068.36
482.85	16176.91
483.06	16269.06
483.27	16178.95
483.47	16361.22
483.68	16275.21
483.89	16484.10
484.09	16627.46
484.30	16375.56
484.51	16883.45
484.71	17186.55
484.92	16994.04
485.13	17231.61
485.33	17112.83
485.54	17063.68
485.75	17528.56
485.95	17551.09
486.16	17790.70
486.37	17809.14
486.57	17618.68
486.78	17966.83
486.98	18228.97
487.19	18073.32
487.40	18173.67
487.60	18300.65
487.81	18509.54
488.02	18274.03
488.22	18347.75
488.43	18636.52
488.64	18845.41
488.84	18839.26
489.05	19164.89
489.25	18861.79
489.46	19236.57
489.67	19060.45
489.87	19341.02
490.08	19451.61
490.29	19410.65
490.49	20068.05
490.70	19758.80
490.90	20010.70
491.11	19685.08
491.32	19930.83
491.52	20094.67
491.73	20264.65
491.94	20299.47
492.14	20262.60
492.35	20483.78
492.55	20383.43
492.76	20838.08
492.97	20711.11
493.17	20790.98
493.38	21022.40
493.58	21350.07
493.79	21298.88
494.00	21126.85
494.20	21167.80
494.41	21571.25
494.61	21462.71
494.82	21481.14
495.02	21565.11
495.23	21776.05
495.44	22091.44
495.64	21915.31
495.85	22007.47
496.05	22339.24
496.26	22066.86
496.47	22449.83
496.67	22079.15
496.88	22652.58
497.08	22267.56
497.29	22976.16
497.49	22460.07
497.70	22894.24
497.91	22918.82
498.11	22894.24
498.32	22947.49
498.52	23398.04
498.73	23545.50
498.93	23226.01
499.14	23568.02
499.34	23408.28
499.55	23733.91
499.76	23449.24
499.96	23944.85
500.17	23746.20
500.37	24061.58
500.58	23920.28
500.78	24096.40
500.99	24127.12
501.19	24675.98
501.40	24145.55
501.60	24143.50
501.81	24428.17
502.02	24682.12
502.22	24299.15
502.43	24745.61
502.63	24974.98
502.84	24792.71
503.04	25022.08
503.25	25202.30
503.45	25196.16
503.66	25190.02
503.86	25353.85
504.07	25685.62
504.27	25210.50
504.48	25687.67
504.68	25575.03
504.89	25886.32
505.09	25736.82
505.30	25659.00
505.50	25945.72
505.71	25826.93
505.91	25968.24
506.12	26216.05
506.32	26205.81
506.53	26295.92
506.73	26216.05
506.94	26351.21
507.14	26121.84
507.35	26416.75
507.55	26398.32
507.76	26740.33
507.96	26414.70
508.17	26668.65
508.37	26553.96
508.58	26695.27
508.78	26613.35
508.99	26969.70
509.19	27111.01
509.40	26943.08
509.60	27293.28
509.81	27285.09
510.01	27119.20
510.22	27321.95
510.42	27051.62
510.63	27674.20
510.83	27369.05
511.04	27375.20
511.24	27561.56
511.44	27635.29
511.65	27768.41
511.85	27534.94
512.06	27696.73
512.26	27842.14
512.47	27829.85
512.67	27917.91
512.88	27672.15
513.08	27776.60
513.29	28143.19
513.49	27852.38
513.69	28106.32
513.90	28157.52
514.10	28522.06
514.31	28268.11
514.51	28468.81
514.72	28223.06
514.92	28261.97
515.13	28382.80
515.33	28608.08
515.53	28507.72
515.74	28593.74
515.94	28702.28
516.15	28974.66
516.35	28669.51
516.56	29101.64
516.76	28810.82
516.96	28989.00
517.17	29036.10
517.37	29183.55
517.58	29156.93
517.78	29335.10
517.99	29546.05
518.19	29331.01
518.39	29494.85
518.60	29767.23
518.80	29134.40
519.01	29666.88
519.21	29535.81
519.41	29660.73
519.62	29879.86
519.82	29791.80
520.03	29713.98
520.23	29898.30
520.43	29795.90
520.64	30066.23
520.84	30043.70
521.05	29969.97
521.25	29912.63
521.45	30475.82
521.66	30481.97
521.86	30514.73
522.07	30533.17
522.27	30586.41
522.47	30524.97
522.68	30991.91
522.88	30764.59
523.08	31147.56
523.29	30885.42
523.49	30950.95
523.70	30346.80
523.90	31106.60
524.10	30996.01
524.31	31151.65
524.51	30932.52
524.71	31471.14
524.92	31254.05
525.12	31249.96
525.33	31614.49
525.53	31827.48
525.73	32280.08
525.94	31493.66
526.14	31723.04
526.34	32122.39
526.55	31983.13
526.75	31999.51
526.95	31893.02
527.16	32200.21
527.36	32355.86
527.56	32333.33
527.77	32714.25
527.97	32620.05
528.17	32661.01
528.38	32556.56
528.58	32521.74
528.78	32683.53
528.99	32472.59
529.19	33064.46
529.39	32685.58
529.60	32994.82
529.80	33035.78
530.00	32873.99
530.21	33091.08
530.41	33617.41
530.61	33185.29
530.82	33687.04
531.02	33764.86
531.22	33541.63
531.43	33496.58
531.63	34006.52
531.83	34289.14
532.04	34235.89
532.24	33947.13
532.44	34743.79
532.64	34266.61
532.85	34616.82
533.05	34510.32
533.25	34321.91
533.46	34348.53
533.66	34696.69
533.86	34723.31
534.07	34971.11
534.27	34536.94
534.47	35270.12
534.67	35382.76
534.88	34936.30
535.08	35216.87
535.28	35427.81
535.49	35356.13
535.69	35655.14
535.89	35558.88
536.09	35706.34
536.30	36120.02
536.50	35839.45
536.70	36013.53
536.91	36376.02
537.11	35972.57
537.31	36312.53
537.51	36242.90
537.72	36879.82
537.92	36423.12
538.12	36904.40
538.32	36693.46
538.53	36906.44
538.73	36339.16
538.93	36804.05
539.13	37027.28
539.34	36900.30
539.54	36709.84
539.74	37191.11
539.94	36967.88
540.15	36908.49
540.35	37406.15
540.55	37311.94
540.75	37471.68
540.96	37526.98
541.16	37473.73
541.36	37680.58
541.56	37725.63
541.77	37864.89
541.97	37850.56
542.17	37791.17
542.37	38167.99
542.58	38049.21
542.78	37782.98
542.98	38266.30
543.18	38354.36
543.38	38397.37
543.59	38426.04
543.79	38229.43
543.99	38063.55
544.19	38811.06
544.40	38704.56
544.60	39124.40
544.80	38872.49
545.00	38829.49
545.20	39112.11
545.41	39024.04
545.61	38966.70
545.81	39138.73
546.01	39249.32
546.21	39034.28
546.42	39269.80
546.62	39050.67
546.82	39067.05
547.02	39353.77
547.22	39689.63
547.43	39343.53
547.63	40019.36
547.83	39654.82
548.03	39499.17
548.23	39562.66
548.44	39855.52
548.64	40191.39
548.84	39824.80
549.04	39980.45
549.24	40043.93
549.45	40127.90
549.65	40066.46
549.85	40152.48
550.05	40529.30
550.25	40111.52
550.45	40730.00
550.66	40768.91
550.86	40318.36
551.06	40805.78
551.26	40865.17
551.46	40738.19
551.66	40867.22
551.87	40801.68
552.07	40869.26
552.27	40781.20
552.47	41000.33
552.67	41342.35
552.87	41225.61
553.07	41219.47
553.28	41264.52
553.48	41440.65
553.68	41383.30
553.88	41371.02
554.08	41282.95
554.28	41420.17
554.48	41483.66
554.69	41420.17
554.89	41391.50
555.09	41518.47
555.29	41379.21
555.49	41866.63
555.69	41936.26
555.89	42173.82
556.10	41905.54
556.30	41467.27
556.50	42071.42
556.70	42278.27
556.90	41940.35
557.10	42407.29
557.30	41948.54
557.50	42417.53
557.70	42237.31
557.91	43128.17
558.11	42823.03
558.31	42558.84
558.51	42257.79
558.71	42775.92
558.91	42849.65
559.11	42714.48
559.31	42771.83
559.51	42732.92
559.72	43025.78
559.92	42898.80
560.12	42909.04
560.32	43316.59
560.52	43085.17
560.72	43423.08
560.92	43758.95
561.12	43560.30
561.32	43498.86
561.52	42890.61
561.72	43748.71
561.93	43087.21
562.13	43523.43
562.33	43353.45
562.53	44051.81
562.73	43003.25
562.93	43662.69
563.13	43730.28
563.33	43552.10
563.53	44094.82
563.73	43541.86
563.93	43935.07
564.13	44270.94
564.33	43615.59
564.53	43849.06
564.74	44272.99
564.94	44088.67
565.14	44330.33
565.34	43875.68
565.54	44615.00
565.74	44289.37
565.94	44653.91
566.14	44571.99
566.34	44576.09
566.54	44918.10
566.74	44625.24
566.94	44688.73
567.14	44897.62
567.34	44383.58
567.54	44926.29
567.74	44813.65
567.94	44930.39
568.14	45026.64
568.34	45083.98
568.54	45155.66
568.74	45491.53
568.94	45243.73
569.14	45630.79
569.34	45532.49
569.54	45456.71
569.75	45153.62
569.95	45219.15
570.15	45780.29
570.35	45561.16
570.55	45477.19
570.75	45567.30
570.95	45172.05
571.15	45851.97
571.35	45727.05
571.55	46144.83
571.75	46122.30
571.95	45923.65
572.15	46136.64
572.35	46146.88
572.55	46036.29
572.75	46232.89
572.95	45716.81
573.15	46302.53
573.35	46150.98
573.55	46282.05
573.75	46478.65
573.95	46433.60
574.15	46374.20
574.35	46632.25
574.55	47054.13
574.75	46394.68
574.95	46900.53
575.15	46499.13
575.34	47107.38
575.54	47023.41
575.74	46921.01
575.94	46857.52
576.14	46943.54
576.34	47465.77
576.54	47805.73
576.74	47525.16
576.94	47314.22
577.14	47590.70
577.34	48207.14
577.54	47439.15
577.74	47850.79
577.94	47449.39
578.14	47840.55
578.34	47930.66
578.54	47660.33
578.74	47691.05
578.94	48055.59
579.14	47729.96
579.34	48069.92
579.54	48276.77
579.74	48233.76
579.94	48321.82
580.13	48766.23
580.33	48506.14
580.53	48667.93
580.73	48952.60
580.93	48395.55
581.13	48440.60
581.33	49081.62
581.53	48977.17
581.73	49011.99
581.93	48868.63
582.13	49138.96
582.33	49091.86
582.53	48950.55
582.73	49280.27
582.92	49554.70
583.12	49581.32
583.32	49184.02
583.52	49323.28
583.72	49286.42
583.92	49581.32
584.12	49569.04
584.32	50031.88
584.52	49308.94
584.72	49548.56
584.92	49644.81
585.11	50248.96
585.31	50033.92
585.51	50310.40
585.71	50019.59
585.91	50099.46
586.11	49909.00
586.31	50234.63
586.51	49958.15
586.71	50011.40
586.91	50820.34
587.10	50357.50
587.30	50967.80
587.50	50738.43
587.70	51137.78
587.90	50607.36
588.10	50769.15
588.30	50808.06
588.50	50992.37
588.69	50629.88
588.89	50543.87
589.09	51074.29
589.29	51008.76
589.49	51238.13
589.69	51000.57
589.89	51365.10
590.08	51158.26
590.28	51467.50
590.48	51309.81
590.68	51117.30
590.88	51082.48
591.08	51250.42
591.28	51369.20
591.47	51485.93
591.67	51539.18
591.87	51655.92
592.07	51283.19
592.27	51455.21
592.47	51254.51
592.67	51942.63
592.86	51428.59
593.06	51827.95
593.26	51574.00
593.46	51918.06
593.66	51813.61
593.86	51950.82
594.05	52094.18
594.25	52098.28
594.45	52141.28
594.65	52069.61
594.85	51776.75
595.05	52395.23
595.24	52387.04
595.44	52264.16
595.64	52288.74
595.84	52126.95
596.04	52274.40
596.23	52554.97
596.43	52630.75
596.63	52679.90
596.83	52184.29
597.03	52536.54
597.22	52847.83
597.42	52438.24
597.62	53222.61
597.82	52917.46
598.02	52952.28
598.21	53173.46
598.41	52690.14
598.61	52935.90
598.81	53216.47
599.01	53245.14
599.20	52876.51
599.40	53310.67
599.60	53097.69
599.80	53091.54
600.00	53408.98
600.19	53716.17
600.39	53191.89
600.59	53085.40
600.79	53525.71
600.98	53292.24
601.18	53556.43
601.38	53613.77
601.58	53927.11
601.78	53910.73
601.97	53787.85
602.17	53970.12
602.37	53925.07
602.57	53812.43
602.76	54312.13
602.96	53621.97
603.16	54121.67
603.36	54015.18
603.55	54097.09
603.75	54045.90
603.95	54101.19
604.15	54600.89
604.34	53953.74
604.54	54387.91
604.74	54537.41
604.94	54545.60
605.13	54179.01
605.33	54924.47
605.53	54187.21
605.73	54682.81
605.92	54209.73
606.12	55149.75
606.32	54801.60
606.52	54768.83
606.71	55116.98
606.91	54860.99
607.11	54637.76
607.30	54885.56
607.50	54727.87
607.70	55211.19
607.90	54662.33
608.09	54940.86
608.29	54834.36
608.49	55024.82
608.68	54824.12
608.88	55043.26
609.08	55200.95
609.28	55121.08
609.47	54858.94
609.67	55313.59
609.87	55368.88
610.06	55258.29
610.26	55035.06
610.46	55659.69
610.66	54985.91
610.85	55209.14
611.05	54770.88
611.25	55567.54
611.44	55411.89
611.64	54885.56
611.84	55248.05
612.03	54893.75
612.23	55409.84
612.43	55465.14
612.62	54969.53
612.82	55334.07
613.02	55678.13
613.21	55356.60
613.41	54807.74
613.61	55624.88
613.80	54938.81
614.00	55432.37
614.20	55309.49
614.39	55547.06
614.59	55270.58
614.79	55456.95
614.98	54953.15
615.18	55090.36
615.38	55063.74
615.57	55018.68
615.77	55340.21
615.97	55671.98
616.16	55237.81
616.36	55377.08
616.56	55166.13
616.75	55395.51
616.95	55379.12
617.15	55137.46
617.34	55305.40
617.54	55405.75
617.74	55528.62
617.93	55514.29
618.13	54813.88
618.32	55506.10
618.52	54836.41
618.72	55188.66
618.91	55370.93
619.11	55223.48
619.31	54838.46
619.50	55190.71
619.70	54709.44
619.90	55071.93
620.09	55024.82
620.29	54951.10
620.48	54428.87
620.68	55391.41
620.88	54815.93
621.07	54756.54
621.27	55196.85
621.46	54754.49
621.66	55043.26
621.86	54826.17
622.05	54715.58
622.25	55346.36
622.44	54910.14
622.64	54527.17
622.84	55088.31
623.03	54740.16
623.23	54789.31
623.42	54648.00
623.62	54996.15
623.82	54703.29
624.01	55205.05
624.21	54992.06
624.40	54801.60
624.60	54860.99
624.80	54621.37
624.99	54602.94
625.19	54408.39
625.38	55069.88
625.58	54570.18
625.77	54578.37
625.97	54828.22
626.17	54322.37
626.36	54484.16
626.56	55360.69
626.75	54148.29
626.95	55022.78
627.14	54674.62
627.34	55246.00
627.54	54637.76
627.73	54506.69
627.93	54973.63
628.12	54817.98
628.32	54717.63
628.51	54940.86
628.71	54394.05
628.90	54615.23
629.10	54461.63
629.30	54756.54
629.49	54652.09
629.69	54631.61
629.88	54473.92
630.08	54744.25
630.27	54584.51
630.47	54543.55
630.66	54324.42
630.86	54650.05
631.05	53925.07
631.25	54707.39
631.44	54537.41
631.64	54746.30
631.84	54598.85
632.03	55026.87
632.23	54252.74
632.42	54842.56
632.62	54727.87
632.81	54193.35
633.01	54478.02
633.20	54672.57
633.40	54891.71
633.59	54762.68
633.79	54541.50
633.98	54719.68
634.18	54592.70
634.37	54664.38
634.57	54465.73
634.76	54672.57
634.96	54867.13
635.15	54785.21
635.35	54127.81
635.54	54561.98
635.74	54801.60
635.93	54201.54
636.13	54752.44
636.32	54822.08
636.52	54734.01
636.71	54656.19
636.91	54521.02
637.10	54510.78
637.30	54449.35
637.49	54482.11
637.69	54650.05
637.88	54838.46
638.08	54727.87
638.27	54680.77
638.46	54572.22
638.66	54504.64
638.85	54541.50
639.05	54973.63
639.24	54963.39
639.44	54688.96
639.63	54887.61
639.83	54959.29
640.02	55047.35
640.22	54402.24
640.41	54910.14
640.61	53966.02
640.80	54662.33
640.99	54797.50
641.19	55141.56
641.38	55018.68
641.58	54641.85
641.77	54949.05
641.97	54774.97
642.16	54709.44
642.36	55522.48
642.55	54793.40
642.74	54850.75
642.94	55375.03
643.13	54877.37
643.33	55387.31
643.52	54910.14
643.72	55063.74
643.91	55256.24
644.10	55211.19
644.30	55362.74
644.49	54981.82
644.69	55395.51
644.88	55030.97
645.08	55268.53
645.27	55110.84
645.46	54768.83
645.66	55477.43
645.85	54850.75
646.05	55256.24
646.24	55274.68
646.43	55762.09
646.63	55524.53
646.82	55483.57
647.02	55737.52
647.21	55706.80
647.40	55540.91
647.60	55622.83
647.79	55811.24
647.99	55758.00
648.18	55547.06
648.37	55940.27
648.57	56065.19
648.76	55778.48
648.96	55758.00
649.15	56100.01
649.34	56300.71
649.54	55815.34
649.73	55592.11
649.92	55952.55
650.12	55772.33
650.31	56095.91
650.51	56206.50
650.70	56054.95
650.89	55780.52
651.09	56425.64
651.28	56220.84
651.47	56257.70
651.67	55995.56
651.86	56505.51
652.06	55839.92
652.25	55811.24
652.44	55989.42
652.64	55964.84
652.83	56050.86
653.02	55801.00
653.22	56071.34
653.41	56112.30
653.60	55702.70
653.80	55841.96
653.99	56147.11
654.18	56482.98
654.38	56382.63
654.57	56339.62
654.76	56349.86
654.96	56143.02
655.15	55966.89
655.34	56104.10
655.54	55940.27
655.73	56188.07
655.92	56642.72
656.12	56399.01
656.31	56331.43
656.50	56382.63
656.70	56437.92
656.89	56495.27
657.08	56542.37
657.28	56616.10
657.47	56525.99
657.66	56859.80
657.86	56480.93
658.05	56616.10
658.24	56734.88
658.43	56599.71
658.63	56380.58
658.82	56485.03
659.01	56822.94
659.21	56906.91
659.40	56958.11
659.59	56779.93
659.79	57103.51
659.98	57107.61
660.17	56927.39
660.36	56915.10
660.56	56777.89
660.75	56984.73
660.94	56820.89
661.14	56900.76
661.33	56302.76
661.52	56550.56
661.71	57123.99
661.91	56206.50
662.10	57019.55
662.29	56994.97
662.49	56769.69
662.68	56968.35
662.87	57017.50
663.06	57013.40
663.26	56478.88
663.45	57136.28
663.64	56636.58
663.83	57435.28
664.03	57328.79
664.22	56874.14
664.41	57554.07
664.60	57083.03
664.80	57283.73
664.99	56947.87
665.18	57099.42
665.37	57210.01
665.57	57644.18
665.76	57214.10
665.95	57314.45
666.14	57152.66
666.34	56939.68
666.53	56923.29
666.72	57222.29
666.91	57056.41
667.11	57371.80
667.30	57148.57
667.49	57222.29
667.68	56935.58
667.87	56886.43
668.07	57240.73
668.26	57121.94
668.45	57021.59
668.64	56966.30
668.84	58004.62
669.03	57515.15
669.22	57713.81
669.41	57879.69
669.60	57322.65
669.80	57177.24
669.99	57410.71
670.18	57214.10
670.37	57502.87
670.57	57902.22
670.76	57603.22
670.95	57805.97
671.14	57441.43
671.33	57343.12
671.53	57377.94
671.72	57572.50
671.91	57765.01
672.10	57474.20
672.29	57527.44
672.48	57672.85
672.68	57646.22
672.87	57390.23
673.06	57341.08
673.25	57439.38
673.44	57480.34
673.64	57318.55
673.83	57009.31
674.02	57693.33
674.21	57058.46
674.40	57803.92
674.59	57201.82
674.79	56894.62
674.98	57502.87
675.17	57402.52
675.36	57468.05
675.55	58031.24
675.74	57336.98
675.94	57341.08
676.13	57603.22
676.32	57857.17
676.51	58139.78
676.70	57566.35
676.89	57898.12
677.08	57760.91
677.28	57023.64
677.47	57943.18
677.66	57832.59
677.85	57709.71
678.04	57986.19
678.23	58158.22
678.42	57894.03
678.62	57363.60
678.81	57765.01
679.00	57457.81
679.19	58055.82
679.38	57773.20
679.57	57666.70
679.76	57441.43
679.96	57627.79
680.15	57394.32
680.34	57572.50
680.53	57922.70
680.72	57570.45
680.91	58324.10
681.10	57750.67
681.29	58004.62
681.48	57701.52
681.68	57592.98
681.87	57291.93
682.06	57648.27
682.25	57054.36
682.44	57742.48
682.63	57791.63
682.82	57189.53
683.01	57390.23
683.20	57021.59
683.39	57734.29
683.59	57306.26
683.78	57423.00
683.97	56943.77
684.16	57744.53
684.35	57246.87
684.54	57259.16
684.73	57162.90
684.92	56874.14
685.11	57242.77
685.30	56962.20
685.49	57810.06
685.69	57402.52
685.88	57298.07
686.07	57418.90
686.26	57234.58
686.45	57791.63
686.64	57529.49
686.83	57365.65
687.02	57769.10
687.21	57717.90
687.40	57476.24
687.59	57570.45
687.78	57423.00
687.97	57810.06
688.16	57660.56
688.35	57318.55
688.54	57525.39
688.74	57392.28
688.93	57250.97
689.12	57441.43
689.31	57279.64
689.50	56937.63
689.69	56812.70
689.88	56849.56
690.07	57156.76
690.26	56792.22
690.45	57554.07
690.64	56970.39
690.83	57089.18
691.02	56904.86
691.21	57091.22
691.40	57121.94
691.59	57060.51
691.78	56853.66
691.97	57242.77
692.16	57027.74
692.35	57195.67
692.54	56941.72
692.73	56958.11
692.92	56687.78
693.11	57019.55
693.30	57181.34
693.49	57144.47
693.68	56761.50
693.87	56935.58
694.06	56304.80
694.25	56876.19
694.44	56609.95
694.63	56685.73
694.82	56927.39
695.01	56759.45
695.20	56667.30
695.39	56489.12
695.58	56771.74
695.77	56525.99
695.96	56140.97
696.15	56493.22
696.34	56476.83
696.53	56775.84
696.72	56460.45
696.91	56519.84
697.10	56861.85
697.29	56556.70
697.48	56718.49
697.67	56630.43
697.86	56024.23
698.05	56384.68
698.24	56648.86
698.43	56288.42
698.62	56573.09
698.81	56018.09
699.00	56624.29
699.19	56034.47
699.38	56417.44
699.57	55719.09
699.76	56521.89
699.95	56009.90
700.14	56040.62
700.32	55829.68
700.51	56100.01
700.70	55958.70
700.89	56120.49
701.08	55946.41
701.27	55735.47
701.46	56136.87
701.65	55315.64
701.84	55964.84
702.03	55801.00
702.22	55235.77
702.41	55612.59
702.60	55999.66
702.79	55932.07
702.98	55493.81
703.17	55839.92
703.35	55149.75
703.54	55665.84
703.73	55983.27
703.92	55362.74
704.11	55438.51
704.30	55168.18
704.49	55149.75
704.68	55071.93
704.87	55653.55
705.06	55246.00
705.25	55014.58
705.43	55258.29
705.62	55499.95
705.81	55155.89
706.00	55321.78
706.19	54793.40
706.38	54973.63
706.57	54701.25
706.76	54817.98
706.95	55235.77
707.14	54475.97
707.32	54623.42
707.51	54254.79
707.70	54664.38
707.89	55049.40
708.08	54760.64
708.27	54961.34
708.46	54947.00
708.65	54985.91
708.84	54965.43
709.02	54871.23
709.21	54811.84
709.40	54691.01
709.59	54492.35
709.78	54379.71
709.97	54834.36
710.16	53847.24
710.34	54170.82
710.53	54312.13
710.72	54111.43
710.91	54355.14
711.10	54521.02
711.29	54521.02
711.48	54260.93
711.66	54258.88
711.85	54199.49
712.04	54201.54
712.23	54521.02
712.42	53900.49
712.61	54154.44
712.80	53646.54
712.98	53853.39
713.17	53322.96
713.36	53765.32
713.55	53935.30
713.74	54461.63
713.93	53806.28
714.11	53755.08
714.30	53800.14
714.49	53681.36
714.68	53316.82
714.87	53714.12
715.06	53724.36
715.24	53441.74
715.43	53316.82
715.62	52944.09
715.81	53433.55
716.00	53816.52
716.18	53298.39
716.37	53036.25
716.56	52630.75
716.75	53695.69
716.94	52659.42
717.12	53056.73
717.31	53382.35
717.50	53447.89
717.69	52727.00
717.88	52833.50
718.06	52729.05
718.25	52839.64
718.44	52354.27
718.63	52815.07
718.82	52864.22
719.00	52810.97
719.19	52462.82
719.38	52303.07
719.57	52063.46
719.76	52067.56
719.94	51762.41
720.13	52161.76
720.32	52272.35
720.51	52276.45
720.69	52004.07
720.88	51993.83
721.07	51862.76
721.26	51172.60
721.44	52198.63
721.63	51703.02
721.82	50992.37
722.01	51320.05
722.20	51471.60
722.38	51277.04
722.57	51037.43
722.76	51205.36
722.95	51242.23
723.13	50703.61
723.32	51037.43
723.51	50679.03
723.70	50672.89
723.88	50769.15
724.07	51008.76
724.26	50863.35
724.44	50246.91
724.63	50674.94
724.82	50945.27
725.01	50328.83
725.19	50042.12
725.38	50208.00
725.57	50019.59
725.76	50496.77
725.94	49708.30
726.13	49933.57
726.32	50130.18
726.51	49845.51
726.69	50398.46
726.88	49880.33
727.07	50011.40
727.25	50134.28
727.44	50205.95
727.63	50195.71
727.82	49718.54
728.00	50294.02
728.19	49714.44
728.38	50076.93
728.56	49599.76
728.75	49532.17
728.94	49874.18
729.12	49616.14
729.31	49927.43
729.50	49558.80
729.69	49859.85
729.87	49476.88
730.06	49411.34
730.25	49886.47
730.43	49952.01
730.62	49184.02
730.81	50013.44
730.99	49509.64
731.18	49173.78
731.37	49513.74
731.55	49593.61
731.74	49470.73
731.93	50017.54
732.11	49810.70
732.30	49249.55
732.49	49108.24
732.67	49130.77
732.86	49450.25
733.05	49454.35
733.23	48426.27
733.42	49014.04
733.61	48688.41
733.79	49501.45
733.98	49419.53
734.17	49270.03
734.35	49370.38
734.54	49573.13
734.73	49403.15
734.91	48809.24
735.10	48936.21
735.29	48678.17
735.47	48690.46
735.66	49083.67
735.84	49128.72
736.03	48725.27
736.22	49388.81
736.40	48629.02
736.59	48897.30
736.78	48993.56
736.96	48786.71
737.15	48588.06
737.33	48317.73
737.52	48616.73
737.71	48352.54
737.89	48135.46
738.08	47940.90
738.27	47899.94
738.45	48622.87
738.64	48557.34
738.82	48129.31
739.01	48403.74
739.20	48157.99
739.38	48317.73
739.57	48325.92
739.75	48493.85
739.94	48381.21
740.13	48043.30
740.31	48264.48
740.50	48080.16
740.68	48018.72
740.87	48426.27
741.06	48088.35
741.24	47822.12
741.43	47506.73
741.61	47811.88
741.80	47605.03
741.99	47717.67
742.17	47285.55
742.36	47412.52
742.54	47426.86
742.73	47297.84
742.91	47435.05
743.10	47422.76
743.29	47500.59
743.47	47484.20
743.66	47422.76
743.84	47248.69
744.03	47265.07
744.21	47148.34
744.40	47473.96
744.59	47371.57
744.77	46675.26
744.96	47058.23
745.14	47342.89
745.33	47494.44
745.51	47457.58
745.70	47193.39
745.88	47029.55
746.07	47037.75
746.26	46742.84
746.44	46773.56
746.63	47172.91
746.81	46787.89
747.00	46660.92
747.18	46857.52
747.37	46662.97
747.55	46814.52
747.74	46718.26
747.92	46531.90
748.11	46333.24
748.29	46695.74
748.48	46513.47
748.66	46112.06
748.85	46599.48
749.03	46384.44
749.22	46234.94
749.41	46171.46
749.59	46249.28
749.78	46028.10
749.96	45954.37
750.15	45798.73
750.33	45819.20
750.52	45821.25
750.70	46300.48
750.89	46001.47
751.07	45772.10
751.26	46134.59
751.44	45606.22
751.63	45679.94
751.81	45069.65
752.00	45774.15
752.18	45606.22
752.37	45391.18
752.55	45172.05
752.74	45000.02
752.92	45583.69
753.10	44899.67
753.29	45247.82
753.47	45229.39
753.66	44477.79
753.84	45004.11
754.03	44940.63
754.21	44709.21
754.40	45045.07
754.58	44688.73
754.77	45159.76
754.95	44715.35
755.14	44758.36
755.32	44531.03
755.51	44133.73
755.69	44498.26
755.88	44418.39
756.06	44524.89
756.24	44377.43
756.43	44176.73
756.61	44031.33
756.80	44178.78
756.98	44053.86
757.17	44365.15
757.35	44776.79
757.54	43980.13
757.72	44375.39
757.90	44322.14
758.09	44019.04
758.27	44105.06
758.46	44072.29
758.64	44129.63
758.83	44451.16
759.01	44074.34
759.19	43756.90
759.38	43879.78
759.56	44414.30
759.75	43890.02
759.93	44080.48
760.12	43621.73
760.30	43566.44
760.48	43699.56
760.67	43922.79
760.85	43541.86
761.04	43562.34
761.22	43670.89
761.40	43922.79
761.59	43189.61
761.77	43013.49
761.96	43535.72
762.14	43171.18
762.32	43171.18
762.51	43179.37
762.69	43167.09
762.88	43105.65
763.06	43191.66
763.24	43062.64
763.43	42976.62
763.61	42759.54
763.80	42931.57
763.98	42741.11
764.16	42571.13
764.35	42751.35
764.53	42247.55
764.72	42540.41
764.90	42376.57
765.08	42294.65
765.27	42497.40
765.45	42689.91
765.63	41825.67
765.82	42567.03
766.00	42022.27
766.18	42349.95
766.37	42368.38
766.55	42071.42
766.74	42399.10
766.92	41883.01
767.10	41964.93
767.29	41749.89
767.47	41432.46
767.65	41774.47
767.84	41473.42
768.02	42136.96
768.20	41207.18
768.39	41753.99
768.57	41600.39
768.75	41749.89
768.94	41721.22
769.12	41287.05
769.30	41368.97
769.49	41328.01
769.67	40936.85
769.85	41133.45
770.04	41022.86
770.22	40951.18
770.40	40916.37
770.59	41139.60
770.77	41102.73
770.95	40867.22
771.14	40486.29
771.32	40762.77
771.50	40521.11
771.69	40570.26
771.87	41006.48
772.05	40605.08
772.24	40482.20
772.42	40594.84
772.60	40146.33
772.78	40586.64
772.97	39998.88
773.15	40615.32
773.33	40304.02
773.52	40193.43
773.70	40347.03
773.88	40629.65
774.07	40365.46
774.25	40437.14
774.43	40551.83
774.61	40301.98
774.80	40232.35
774.98	40377.75
775.16	40568.21
775.34	40334.74
775.53	40392.09
775.71	40375.70
775.89	40441.24
776.08	40390.04
776.26	40572.31
776.44	40482.20
776.62	40076.70
776.81	40261.02
776.99	40222.11
777.17	40451.48
777.35	40363.42
777.54	40615.32
777.72	40496.53
777.90	40635.80
778.08	40621.46
778.27	40813.97
778.45	40568.21
778.63	40795.54
778.81	40752.53
779.00	41184.65
779.18	40527.25
779.36	40963.47
779.54	41047.44
779.73	40508.82
779.91	40727.95
780.09	41373.06
780.27	41094.54
780.46	40752.53
780.64	41188.75
780.82	40887.70
781.00	40641.94
781.19	41010.57
781.37	41063.82
781.55	41094.54
781.73	41391.50
781.91	40957.33
782.10	41076.11
782.28	40899.98
782.46	41223.56
782.64	41031.05
782.82	40957.33
783.01	41205.13
783.19	41201.04
783.37	40969.61
783.55	41358.73
783.74	41518.47
783.92	40895.89
784.10	41667.97
784.28	41340.30
784.46	40891.79
784.64	41211.28
784.83	41338.25
785.01	41174.41
785.19	41244.04
785.37	41039.25
785.55	40973.71
785.74	41043.34
785.92	41149.84
786.10	40934.80
786.28	41063.82
786.46	40760.72
786.64	40623.51
786.83	40875.41
787.01	40840.59
787.19	41127.31
787.37	41213.32
787.55	40902.03
787.74	40609.17
787.92	41153.93
788.10	40865.17
788.28	40373.66
788.46	40533.40
788.64	40457.62
788.82	40830.35
789.01	40826.26
789.19	41002.38
789.37	40193.43
789.55	40576.40
789.73	40252.83
789.91	40240.54
790.09	40031.65
790.28	39878.05
790.46	39847.33
790.64	40072.60
790.82	40162.72
791.00	39673.25
791.18	39546.28
791.36	39794.08
791.55	39974.30
791.73	39710.11
791.91	39493.03
792.09	39609.76
792.27	39617.96
792.45	39306.66
792.63	39153.07
792.81	39175.59
793.00	39058.86
793.18	39101.87
793.36	39294.38
793.54	38876.59
793.72	38751.66
793.90	38950.32
794.08	38802.86
794.26	38700.47
794.44	38483.38
794.62	38397.37
794.81	38501.81
794.99	38776.24
795.17	38450.61
795.35	38716.85
795.53	38335.93
795.71	38518.20
795.89	38206.90
796.07	38112.70
796.25	37721.54
796.43	37737.92
796.61	37285.32
796.80	37633.47
796.98	37537.22
797.16	37694.91
797.34	37318.09
797.52	37404.10
797.70	37625.28
797.88	37088.71
798.06	37047.75
798.24	37023.18
798.42	37074.38
798.60	36685.26
798.78	36826.57
798.96	37000.65
799.14	36472.28
799.32	36742.61
799.51	36748.75
799.69	36609.49
799.87	36707.79
800.05	36261.33
800.23	36238.81
800.41	36046.30
800.59	36345.30
800.77	36208.09
800.95	35698.14
801.13	35767.77
801.31	35937.76
801.49	36029.91
801.67	35579.36
801.85	35620.32
802.03	35446.24
802.21	35448.29
802.39	35481.06
802.57	35171.82
802.75	35476.96
802.93	35120.62
803.11	35167.72
803.29	34975.21
803.47	34692.59
803.65	34844.14
803.83	34913.77
804.01	34862.57
804.19	34749.93
804.37	34352.63
804.55	34778.61
804.73	34563.57
804.91	34328.05
805.09	34469.36
805.27	34180.60
805.45	34432.50
805.63	34373.11
805.81	34217.46
805.99	34344.44
806.17	34170.36
806.35	34299.38
806.53	33715.71
806.71	33594.88
806.89	33828.35
807.07	33818.11
807.25	33773.05
807.43	33551.87
807.61	34053.62
807.79	33461.76
807.97	33447.43
808.15	33066.50
808.33	33177.09
808.51	33316.36
808.69	33267.20
808.87	32945.67
809.05	32996.87
809.23	32843.27
809.41	32505.36
809.59	32661.01
809.77	32947.72
809.95	32667.15
810.13	32894.47
810.31	32540.18
810.49	32990.73
810.67	32454.16
810.84	32523.79
811.02	32394.77
811.20	32159.25
811.38	32468.50
811.56	32230.93
811.74	31917.59
811.92	32069.14
812.10	31976.98
812.28	32198.16
812.46	32157.21
812.64	31800.86
812.82	31929.88
813.00	31753.76
813.18	31614.49
813.36	31800.86
813.53	31383.07
813.71	31540.77
813.89	31835.67
814.07	31614.49
814.25	31888.92
814.43	31079.97
814.61	30924.33
814.79	30981.67
814.97	31192.61
815.15	31528.48
815.33	30750.25
815.50	30760.49
815.68	31045.16
815.86	31022.63
816.04	30883.37
816.22	30723.63
816.40	30957.10
816.58	30987.82
816.76	30639.66
816.94	30273.07
817.11	30443.06
817.29	30783.02
817.47	30492.21
817.65	30170.68
817.83	30340.66
818.01	30287.41
818.19	30096.95
818.37	30285.36
818.54	30350.90
818.72	30103.09
818.90	30242.35
819.08	30217.78
819.26	30324.27
819.44	30166.58
819.62	29988.41
819.80	30164.53
819.97	30234.16
820.15	29724.22
820.33	29754.94
820.51	29589.05
820.69	29783.61
820.87	30105.14
821.05	29535.81
821.22	29677.12
821.40	29494.85
821.58	29500.99
821.76	29382.21
821.94	29308.48
822.12	29326.91
822.29	29226.56
822.47	29406.78
822.65	29363.78
822.83	29449.79
823.01	29414.98
823.19	29216.32
823.36	29070.92
823.54	29308.48
823.72	28958.28
823.90	29238.85
824.08	28857.93
824.25	28606.03
824.43	28216.91
824.61	28421.71
824.79	28849.74
824.97	28376.66
825.15	28507.72
825.32	28612.17
825.50	28526.16
825.68	28692.04
825.86	28745.29
826.04	28534.35
826.21	28257.87
826.39	28436.05
826.57	28399.18
826.75	28350.03
826.93	28167.76
827.10	27946.58
827.28	28202.58
827.46	28190.29
827.64	28165.71
827.81	27944.53
827.99	28208.72
828.17	28026.45
828.35	28139.09
828.53	27924.05
828.70	27743.83
828.88	28149.33
829.06	28034.64
829.24	28110.42
829.41	27952.73
829.59	27848.28
829.77	27461.21
829.95	27975.25
830.12	27514.46
830.30	27797.08
830.48	27809.37
830.66	27721.30
830.84	27174.50
831.01	27268.70
831.19	27244.13
831.37	27410.01
831.55	27491.93
831.72	27252.32
831.90	27344.48
832.08	27377.25
832.25	27162.21
832.43	27328.10
832.61	27362.91
832.79	27117.15
832.96	27287.14
833.14	27205.22
833.32	27268.70
833.50	27164.26
833.67	27106.91
833.85	26949.22
834.03	26564.20
834.20	27002.47
834.38	27088.48
834.56	26824.29
834.74	26670.70
834.91	26961.51
835.09	26818.15
835.27	26568.30
835.44	26676.84
835.62	26191.47
835.80	26383.98
835.98	26523.24
836.15	26676.84
836.33	26437.23
836.51	26447.47
836.68	26326.64
836.86	26437.23
837.04	26682.98
837.21	26453.61
837.39	26302.06
837.57	26470.00
837.75	26412.65
837.92	25890.42
838.10	26144.37
838.28	25984.63
838.45	26248.82
838.63	25824.89
838.81	26232.43
838.98	25783.93
839.16	25820.79
839.34	25927.28
839.51	25863.80
839.69	25894.52
839.87	26033.78
840.04	25597.56
840.22	25810.55
840.40	25278.08
840.57	25503.35
840.75	25560.70
840.93	25636.47
841.10	25515.64
841.28	25955.96
841.46	25736.82
841.63	25558.65
841.81	25609.85
841.98	25470.59
842.16	25314.94
842.34	25267.84
842.51	25161.34
842.69	25480.83
842.87	25069.19
843.04	25699.96
843.22	25200.26
843.40	25112.19
843.57	24809.09
843.75	25206.40
843.92	25214.59
844.10	25216.64
844.28	25228.93
844.45	25015.94
844.63	25259.65
844.81	25020.03
844.98	25331.33
845.16	24948.36
845.33	25030.27
845.51	25022.08
845.69	24874.63
845.86	24592.01
846.04	24780.42
846.21	24944.26
846.39	24659.59
846.57	24663.69
846.74	24659.59
846.92	24690.31
847.09	24712.84
847.27	24166.03
847.45	24784.52
847.62	24895.11
847.80	24616.58
847.97	24708.74
848.15	24649.35
848.32	24643.21
848.50	24417.93
848.68	24256.14
848.85	24389.26
849.03	24385.16
849.20	24077.97
849.38	24229.52
849.56	24360.59
849.73	24245.90
849.91	24352.40
850.08	24483.47
850.26	24049.30
850.43	23938.71
850.61	24196.75
850.78	23674.52
850.96	24071.82
851.14	23754.39
851.31	24069.78
851.49	23795.35
851.66	23740.05
851.84	23756.44
852.01	23985.81
852.19	23719.57
852.36	23762.58
852.54	23365.28
852.71	23651.99
852.89	23733.91
853.07	23766.68
853.24	23922.32
853.42	23672.47
853.59	23682.71
853.77	23819.92
853.94	23436.95
854.12	23985.81
854.29	23258.78
854.47	23520.92
854.64	23238.30
854.82	23555.74
854.99	23533.21
855.17	23377.56
855.34	23180.96
855.52	23332.51
855.69	23778.97
855.87	23213.73
856.04	23078.56
856.22	23064.22
856.39	22986.40
856.57	23037.60
856.74	23162.53
856.92	23076.51
857.09	22789.80
857.27	22628.01
857.44	23150.24
857.62	22924.96
857.79	23273.12
857.97	22779.56
858.14	22904.48
858.32	23010.98
858.49	22685.35
858.67	22736.55
858.84	22781.60
859.02	22843.04
859.19	22582.95
859.37	22308.52
859.54	22607.53
859.72	22560.42
859.89	22650.53
860.06	22732.45
860.24	22191.79
860.41	22687.40
860.59	22410.92
860.76	22832.80
860.94	22300.33
861.11	22617.77
861.29	22472.36
861.46	22245.04
861.64	22298.28
861.81	22279.85
861.98	22085.30
862.16	22236.84
862.33	22017.71
862.51	21917.36
862.68	22191.79
862.86	22265.52
863.03	22081.20
863.21	22107.82
863.38	21911.22
863.55	21708.47
863.73	22032.05
863.90	21882.55
864.08	21999.28
864.25	21841.59
864.43	21778.10
864.60	21534.39
864.77	21694.13
864.95	21747.38
865.12	21360.31
865.30	21812.92
865.47	21700.28
865.64	21733.04
865.82	21505.72
865.99	21673.65
866.17	21528.25
866.34	21434.04
866.51	21200.57
866.69	21505.72
866.86	21200.57
867.04	21345.98
867.21	21028.54
867.38	21032.64
867.56	21225.15
867.73	20989.63
867.91	20936.38
868.08	21309.11
868.25	20971.20
868.43	20963.01
868.60	20766.40
868.78	20719.30
868.95	20956.86
869.12	20944.58
869.30	20545.22
869.47	20901.57
869.64	20504.26
869.82	20897.47
869.99	20934.34
870.16	20928.19
870.34	20666.05
870.51	20770.50
870.69	20567.75
870.86	20477.64
871.03	20500.17
871.21	20260.55
871.38	20592.33
871.55	20381.38
871.73	20231.88
871.90	20393.67
872.07	20192.97
872.25	19955.41
872.42	20125.39
872.59	20235.98
872.77	20176.59
872.94	20125.39
873.11	19975.89
873.29	20207.31
873.46	20178.64
873.63	20074.19
873.81	19695.32
873.98	19629.78
874.15	19939.02
874.33	19402.46
874.50	19719.89
874.67	19625.68
874.85	19812.05
875.02	19488.47
875.19	19242.71
875.37	19554.01
875.54	19183.32
875.71	19269.34
875.88	19363.54
876.06	19531.48
876.23	19295.96
876.40	19341.02
876.58	19113.69
876.75	19199.71
876.92	18970.33
877.10	19242.71
877.27	18994.91
877.44	18876.13
877.61	18837.22
877.79	18679.52
877.96	19027.68
878.13	18863.84
878.31	18648.80
878.48	18695.91
878.65	18648.80
878.82	18534.12
879.00	18634.47
879.17	18579.17
879.34	18657.00
879.51	18364.14
879.69	18495.21
879.86	18120.43
880.03	18151.15
880.21	18376.42
880.38	18394.86
880.55	18669.28
880.72	18198.25
880.90	18620.13
881.07	18173.67
881.24	18386.66
881.41	18048.75
881.59	18067.18
881.76	18396.90
881.93	18147.05
882.10	17891.06
882.28	17796.85
882.45	18241.26
882.62	17950.45
882.79	18056.94
882.96	17716.98
883.14	18276.07
883.31	17972.97
883.48	17925.87
883.65	17772.27
883.83	17901.29
884.00	17598.20
884.17	17786.61
884.34	17907.44
884.51	17686.26
884.69	17780.46
884.86	17581.81
885.03	17530.61
885.20	17800.94
885.38	17489.65
885.55	17610.48
885.72	17665.78
885.89	17399.54
886.06	17495.80
886.24	17487.61
886.41	17172.22
886.58	17823.47
886.75	17520.37
886.92	17327.86
887.10	17590.00
887.27	17137.40
887.44	17385.21
887.61	17542.90
887.78	17340.15
887.95	17245.94
888.13	17266.42
888.30	16813.82
888.47	16994.04
888.64	17131.26
888.81	17311.48
888.99	16987.90
889.16	16688.90
889.33	17006.33
889.50	16903.93
889.67	16811.78
889.84	16871.17
890.01	16824.06
890.19	16910.08
890.36	16869.12
890.53	16740.10
890.70	16721.66
890.87	16576.26
891.04	16731.90
891.22	16697.09
891.39	16623.36
891.56	16617.22
891.73	16469.76
891.90	16430.85
892.07	16115.47
892.24	16545.54
892.42	16555.78
892.59	16350.98
892.76	16443.14
892.93	16293.64
893.10	16391.94
893.27	16334.60
893.44	16289.54
893.61	16047.88
893.79	16314.12
893.96	16355.08
894.13	15945.48
894.30	16187.14
894.47	16320.26
894.64	16387.85
894.81	16154.38
894.98	16152.33
895.15	16350.98
895.33	16170.76
895.50	16166.67
895.67	16201.48
895.84	16355.08
896.01	16135.95
896.18	16006.92
896.35	16346.89
896.52	16205.58
896.69	16146.19
896.86	16023.31
897.04	16125.71
897.21	15836.94
897.38	15808.27
897.55	15791.89
897.72	16027.40
897.89	15910.67
898.06	16148.23
898.23	16035.60
898.40	15890.19
898.57	15959.82
898.74	15996.68
898.91	15763.22
899.08	16037.64
899.26	16094.99
899.43	16068.36
899.60	16078.60
899.77	15890.19
899.94	16013.07
900.11	15628.05
900.28	15955.72
900.45	16062.22
900.62	15554.32
900.79	16002.83
900.96	15777.55
901.13	15800.08
901.30	15716.11
901.47	15679.25
901.64	15769.36
901.81	15882.00
901.98	15648.53
902.15	16103.18
902.32	15642.39
902.49	15722.26
902.66	15582.99
902.83	15673.10
903.01	15628.05
903.18	15738.64
903.35	15838.99
903.52	15802.13
903.69	15994.64
903.86	15914.77
904.03	15738.64
904.20	15755.02
904.37	15857.42
904.54	15644.43
904.71	15673.10
904.88	15623.95
905.05	15810.32
905.22	15515.41
905.39	15623.95
905.56	15867.66
905.73	15619.86
905.90	15521.56
906.07	15646.48
906.24	15666.96
906.41	15478.55
906.58	15851.28
906.75	15605.52
906.92	15603.47
907.09	15427.35
907.26	15636.24
907.43	15492.88
907.60	15572.75
907.77	15697.68
907.93	15828.75
908.10	15548.18
908.27	15765.26
908.44	15439.64
908.61	15488.79
908.78	15542.03
908.95	15265.56
909.12	15316.76
909.29	15447.83
909.46	15593.23
909.63	15562.51
909.80	15476.50
909.97	15353.62
910.14	15447.83
910.31	15429.40
910.48	15214.36
910.65	15228.70
910.82	15410.96
910.99	15226.65
911.16	15351.57
911.33	15230.74
911.50	15124.25
911.66	15019.80
911.83	15173.40
912.00	15152.92
912.17	15021.85
912.34	15122.20
912.51	14913.31
912.68	14935.84
912.85	14993.18
913.02	15124.25
913.19	15169.30
913.36	15095.58
913.53	15081.24
913.70	14851.87
913.86	14984.99
914.03	14747.42
914.20	14894.88
914.37	14804.77
914.54	14825.25
914.71	14911.26
914.88	14542.63
915.05	14604.07
915.22	14696.22
915.39	14806.81
915.55	14618.40
915.72	14782.24
915.89	14556.96
916.06	14577.44
916.23	14405.41
916.40	14284.58
916.57	14339.88
916.74	14319.40
916.91	14112.55
917.07	14239.53
917.24	14143.27
917.41	14065.45
917.58	14051.11
917.75	14006.06
917.92	13813.55
918.09	14198.57
918.26	13864.75
918.42	13860.65
918.59	13965.10
918.76	13758.25
918.93	13801.26
919.10	13766.45
919.27	13672.24
919.44	13705.01
919.60	13659.95
919.77	13770.54
919.94	13485.87
920.11	13754.16
920.28	13406.00
920.45	13469.49
920.61	13436.72
920.78	13225.78
920.95	13311.80
921.12	13158.20
921.29	13195.06
921.46	13080.38
921.62	13158.20
921.79	13111.10
921.96	12820.28
922.13	13037.37
922.30	12857.15
922.47	12812.09
922.63	12681.02
922.80	12607.30
922.97	12738.37
923.14	12627.78
923.31	12879.68
923.47	12857.15
923.64	12805.95
923.81	12676.93
923.98	12238.66
924.15	12394.31
924.32	12328.77
924.48	12291.91
924.65	12470.08
924.82	12205.89
924.99	12312.39
925.15	12193.61
925.32	12373.83
925.49	12042.06
925.66	11931.47
925.83	11814.73
925.99	12011.34
926.16	11892.55
926.33	11867.98
926.50	11546.45
926.67	11925.32
926.83	11528.02
927.00	11683.66
927.17	11595.60
927.34	11620.17
927.50	11546.45
927.67	11675.47
927.84	11323.22
928.01	11355.99
928.17	11366.23
928.34	11263.83
928.51	11206.48
928.68	11278.16
928.84	11104.09
929.01	11294.55
929.18	11077.46
929.35	10970.97
929.51	10850.14
929.68	10846.04
929.85	10776.41
930.02	10993.50
930.18	10717.02
930.35	10712.92
930.52	10702.68
930.69	10696.54
930.85	10839.90
931.02	10510.18
931.19	10696.54
931.36	10325.86
931.52	10506.08
931.69	10475.36
931.86	10221.41
932.02	10329.95
932.19	10297.19
932.36	10231.65
932.53	10137.45
932.69	9887.59
932.86	10065.77
933.03	10055.53
933.19	10016.62
933.36	9979.75
933.53	10047.33
933.70	9600.88
933.86	9654.12
934.03	9779.05
934.20	9455.47
934.36	9547.63
934.53	9584.49
934.70	9277.30
934.86	9404.27
935.03	9258.87
935.20	9203.57
935.36	8972.15
935.53	9125.75
935.70	9060.21
935.86	8890.23
936.03	8753.02
936.20	8640.38
936.36	8695.68
936.53	8738.68
936.70	8710.01
936.86	8640.38
937.03	8523.65
937.20	8349.57
937.36	8271.75
937.53	8228.74
937.70	8152.96
937.86	8025.99
938.03	7933.83
938.20	7974.79
938.36	7716.75
938.53	7882.63
938.70	7528.33
938.86	7632.78
939.03	7405.46
939.20	7395.22
939.36	7327.63
939.53	7374.74
939.70	7450.51
939.86	6991.77
940.03	6969.24
940.19	6930.33
940.36	6885.27
940.53	6887.32
940.69	6561.69
940.86	6694.81
941.03	6539.16
941.19	6588.32
941.36	6447.01
941.52	6451.10
941.69	6311.84
941.86	6418.33
942.02	6209.44
942.19	6186.91
942.35	6111.14
942.52	6092.71
942.69	6004.64
942.85	6072.23
943.02	5922.73
943.18	5875.62
943.35	5924.77
943.52	5791.66
943.68	5824.42
943.85	5838.76
944.01	5654.44
944.18	5631.91
944.35	5701.54
944.51	5566.38
944.68	5537.71
944.84	5588.91
945.01	5396.40
945.17	5597.10
945.34	5588.91
945.51	5398.45
945.67	5539.76
945.84	5429.17
946.00	5314.48
946.17	5441.45
946.33	5486.51
946.50	5437.36
946.67	5318.57
946.83	5398.45
947.00	5390.25
947.16	5361.58
947.33	5373.87
947.49	5310.38
947.66	5250.99
947.82	5353.39
947.99	5271.47
948.16	5361.58
948.32	5212.08
948.49	5484.46
948.65	5363.63
948.82	5398.45
948.98	5289.90
949.15	5261.23
949.31	5283.76
949.48	5312.43
949.64	5253.04
949.81	5302.19
949.97	5279.66
950.14	5334.96
950.30	5277.62
950.47	5410.73
950.63	5220.27
950.80	5343.15
950.96	5337.01
951.13	5302.19
951.30	5345.20
951.46	5296.05
951.63	5541.80
951.79	5334.96
951.96	5355.44
952.12	5363.63
952.29	5388.21
952.45	5277.62
952.62	5480.36
952.78	5425.07
952.94	5275.57
953.11	5275.57
953.27	5253.04
953.44	5492.65
953.60	5451.69
953.77	5353.39
953.93	5414.83
954.10	5351.34
954.26	5402.54
954.43	5406.64
954.59	5550.00
954.76	5556.14
954.92	5511.08
955.09	5488.56
955.25	5459.88
955.42	5326.77
955.58	5527.47
955.75	5523.37
955.91	5355.44
956.07	5437.36
956.24	5552.04
956.40	5474.22
956.57	5447.60
956.73	5289.90
956.90	5439.40
957.06	5466.03
957.23	5357.49
957.39	5474.22
957.56	5541.80
957.72	5474.22
957.88	5357.49
958.05	5509.04
958.21	5615.53
958.38	5611.43
958.54	5463.98
958.71	5646.25
958.87	5416.88
959.03	5425.07
959.20	5556.14
959.36	5361.58
959.53	5416.88
959.69	5443.50
959.85	5478.32
960.02	5273.52
960.18	5468.08
960.35	5439.40
960.51	5599.15
960.68	5441.45
960.84	5472.17
961.00	5445.55
961.17	5271.47
961.33	5347.25
961.50	5463.98
961.66	5443.50
961.82	5484.46
961.99	5382.06
962.15	5302.19
962.31	5304.24
962.48	5439.40
962.64	5406.64
962.81	5431.21
962.97	5474.22
963.13	5474.22
963.30	5373.87
963.46	5330.86
963.62	5330.86
963.79	5474.22
963.95	5394.35
964.12	5296.05
964.28	5382.06
964.44	5312.43
964.61	5451.69
964.77	5341.10
964.93	5388.21
965.10	5355.44
965.26	5205.94
965.42	5294.00
965.59	5222.32
965.75	5410.73
965.92	5365.68
966.08	5423.02
966.24	5302.19
966.41	5283.76
966.57	5289.90
966.73	5253.04
966.90	5357.49
967.06	5195.70
967.22	5271.47
967.39	5148.59
967.55	5195.70
967.71	5162.93
967.88	5205.94
968.04	5113.78
968.20	5224.37
968.37	5089.20
968.53	5189.55
968.69	5119.92
968.85	5179.31
969.02	5107.63
969.18	5177.26
969.34	5103.54
969.51	4997.04
969.67	5195.70
969.83	4992.95
970.00	5244.85
970.16	5029.81
970.32	4999.09
970.48	5218.22
970.65	4999.09
970.81	5042.10
970.97	5017.52
971.14	4951.99
971.30	5013.43
971.46	4941.75
971.63	4855.73
971.79	5029.81
971.95	4919.22
972.11	4853.69
972.28	4913.08
972.44	4941.75
972.60	4906.93
972.76	4906.93
972.93	5005.24
973.09	4886.45
973.25	4835.25
973.42	4814.77
973.58	4845.49
973.74	4927.41
973.90	4865.97
974.07	4837.30
974.23	4845.49
974.39	4859.83
974.55	4812.73
974.72	4775.86
974.88	4634.55
975.04	4794.29
975.20	4655.03
975.37	4822.97
975.53	4689.85
975.69	4663.22
975.85	4687.80
976.01	4751.29
976.18	4595.64
976.34	4675.51
976.50	4726.71
976.66	4749.24
976.83	4528.06
976.99	4546.49
977.15	4628.41
977.31	4546.49
977.47	4616.12
977.64	4540.35
977.80	4595.64
977.96	4558.78
978.12	4546.49
978.29	4566.97
978.45	4411.32
978.61	4607.93
978.77	4612.03
978.93	4446.14
979.10	4636.60
979.26	4448.19
979.42	4444.09
979.58	4485.05
979.74	4333.50
979.91	4491.20
980.07	4362.17
980.23	4401.08
980.39	4343.74
980.55	4300.73
980.71	4337.60
980.88	4345.79
981.04	4358.08
981.20	4427.71
981.36	4341.69
981.52	4392.89
981.68	4237.25
981.85	4325.31
982.01	4321.21
982.17	4308.93
982.33	4272.06
982.49	4345.79
982.65	4286.40
982.82	4343.74
982.98	4239.30
983.14	4138.94
983.30	4315.07
983.46	4313.02
983.62	4280.25
983.79	4224.96
983.95	4159.42
984.11	4151.23
984.27	4243.39
984.43	4134.85
984.59	4247.49
984.75	4249.54
984.91	4104.13
985.08	4194.24
985.24	4177.86
985.40	4046.79
985.56	4120.51
985.72	4153.28
985.88	4151.23
986.04	4083.65
986.20	4095.94
986.37	3968.96
986.53	3948.48
986.69	3895.24
986.85	3973.06
987.01	3993.54
987.17	4100.03
987.33	3975.11
987.49	3975.11
987.65	4042.69
987.82	4014.02
987.98	3950.53
988.14	3930.05
988.30	3858.37
988.46	3907.52
988.62	3975.11
988.78	3903.43
988.94	3868.61
989.10	3846.09
989.26	3801.03
989.42	3780.55
989.59	3805.13
989.75	3831.75
989.91	3868.61
990.07	3700.68
990.23	3657.67
990.39	3680.20
990.55	3798.98
990.71	3588.04
990.87	3784.65
991.03	3735.50
991.19	3604.42
991.35	3782.60
991.51	3723.21
991.67	3772.36
991.83	3727.30
992.00	3569.61
992.16	3719.11
992.32	3661.77
992.48	3694.54
992.64	3682.25
992.80	3624.90
992.96	3579.85
993.12	3669.96
993.28	3672.01
993.44	3661.77
993.60	3575.75
993.76	3672.01
993.92	3657.67
994.08	3600.33
994.24	3608.52
994.40	3565.51
994.56	3563.47
994.72	3563.47
994.88	3524.55
995.04	3575.75
995.20	3629.00
995.36	3444.68
995.52	3528.65
995.68	3448.78
995.84	3454.92
996.00	3567.56
996.16	3360.72
996.32	3477.45
996.48	3379.15
996.64	3567.56
996.80	3481.55
996.96	3364.81
997.12	3366.86
997.28	3379.15
997.44	3428.30
997.60	3362.76
997.76	3344.33
997.92	3473.36
998.08	3389.39
998.24	3467.21
998.40	3385.29
998.56	3493.83
998.72	3151.82
998.88	3301.33
999.04	3213.26
999.20	3416.01
999.36	3264.46
999.52	3403.72
999.68	3176.40
999.84	3348.43
1000.00	3305.42
1000.16	3297.23
1000.32	3198.93
1000.48	3373.00
1000.64	3141.58
1000.80	3151.82
1000.95	3080.14
1001.11	3155.92
1001.27	3170.26
1001.43	3176.40
1001.59	3096.53
1001.75	3170.26
1001.91	3178.45
1002.07	3176.40
1002.23	3071.95
1002.39	3020.75
1002.55	3078.10
1002.71	3078.10
1002.87	3063.76
1003.03	3100.62
1003.19	3008.47
1003.34	3082.19
1003.50	3088.34
1003.66	3149.78
1003.82	3080.14
1003.98	3182.54
1004.14	3076.05
1004.30	2967.51
1004.46	3035.09
1004.62	2908.12
1004.78	2906.07
1004.94	3039.19
1005.09	2992.08
1005.25	2953.17
1005.41	3000.27
1005.57	2965.46
1005.73	2901.97
1005.89	2858.96
1006.05	3039.19
1006.21	3067.86
1006.37	2908.12
1006.52	2848.72
1006.68	2936.79
1006.84	2951.12
1007.00	2891.73
1007.16	2813.91
1007.32	2799.57
1007.48	2877.40
1007.64	2930.64
1007.79	2721.75
1007.95	2826.20
1008.11	2955.22
1008.27	2828.24
1008.43	2770.90
1008.59	2856.92
1008.75	2856.92
1008.91	2779.09
1009.06	2822.10
1009.22	2758.61
1009.38	2754.52
1009.54	2795.48
1009.70	2822.10
1009.86	2904.02
1010.01	2691.03
1010.17	2752.47
1010.33	2813.91
1010.49	2715.61
1010.65	2918.36
1010.81	2611.16
1010.96	2684.89
1011.12	2727.89
1011.28	2635.74
1011.44	2670.55
1011.60	2775.00
1011.76	2586.58
1011.91	2674.65
1012.07	2568.15
1012.23	2662.36
1012.39	2533.34
1012.55	2740.18
1012.71	2695.13
1012.86	2670.55
1013.02	2605.02
1013.18	2494.43
1013.34	2627.54
1013.50	2674.65
1013.65	2668.50
1013.81	2541.53
1013.97	2564.06
1014.13	2656.22
1014.29	2523.10
1014.44	2693.08
1014.60	2570.20
1014.76	2482.14
1014.92	2580.44
1015.07	2547.67
1015.23	2564.06
1015.39	2494.43
1015.55	2541.53
1015.71	2588.63
1015.86	2443.23
1016.02	2480.09
1016.18	2441.18
1016.34	2469.85
1016.49	2471.90
1016.65	2387.93
1016.81	2437.08
1016.97	2484.19
1017.12	2580.44
1017.28	2467.80
1017.44	2398.17
1017.60	2510.81
1017.75	2506.71
1017.91	2400.22
1018.07	2482.14
1018.23	2457.56
1018.38	2418.65
1018.54	2371.55
1018.70	2420.70
1018.86	2320.35
1019.01	2361.31
1019.17	2443.23
1019.33	2484.19
1019.49	2422.75
1019.64	2529.24
1019.80	2420.70
1019.96	2455.51
1020.12	2367.45
1020.27	2351.07
1020.43	2277.34
1020.59	2387.93
1020.74	2367.45
1020.90	2359.26
1021.06	2308.06
1021.22	2334.68
1021.37	2471.90
1021.53	2273.25
1021.69	2375.64
1021.84	2273.25
1022.00	2275.29
1022.16	2299.87
1022.31	2252.77
1022.47	2299.87
1022.63	2353.12
1022.79	2281.44
1022.94	2256.86
1023.10	2322.40
1023.26	2314.20
1023.41	2297.82
1023.57	2187.23
1023.73	2258.91
1023.88	2236.38
1024.04	2220.00
1024.20	2201.57
1024.35	2213.85
1024.51	2310.11
1024.67	2211.81
1024.82	2236.38
1024.98	2158.56
1025.14	2205.66
1025.29	2207.71
1025.45	2242.53
1025.61	2144.22
1025.76	2203.61
1025.92	2162.66
1026.08	2295.77
1026.23	2164.70
1026.39	2215.90
1026.55	2242.53
1026.70	2115.55
1026.86	2164.70
1027.02	2205.66
1027.17	2103.26
1027.33	2174.94
1027.48	2140.13
1027.64	2172.89
1027.80	2140.13
1027.95	2148.32
1028.11	1966.05
1028.27	2183.13
1028.42	2117.60
1028.58	2107.36
1028.73	2007.01
1028.89	2131.94
1029.05	2185.18
1029.20	2115.55
>>>>>End Processed Spectral Data<<<<<
