SpectraSuite Data File
++++++++++++++++++++++++++++++++++++
Date: Fri Jun 02 14:52:29 CEST 2017
User: INFO_000
Dark Spectrum Present: No
Reference Spectrum Present: No
Number of Sampled Component Spectra: 1
Spectrometers: USB4H00879
Integration Time (usec): 80000 (USB4H00879)
Spectra Averaged: 1 (USB4H00879)
Boxcar Smoothing: 0 (USB4H00879)
Correct for Electrical Dark: No (USB4H00879)
Strobe/Lamp Enabled: No (USB4H00879)
Correct for Detector Non-linearity: No (USB4H00879)
Correct for Stray Light: No (USB4H00879)
Number of Pixels in Processed Spectrum: 3648
>>>>>Begin Processed Spectral Data<<<<<
345.13	1308.65
345.34	1308.65
345.56	1308.65
345.78	1247.21
345.99	1277.93
346.21	1642.47
346.42	1658.85
346.64	1720.29
346.86	1742.82
347.07	1738.73
347.29	1753.06
347.50	1669.09
347.72	1644.52
347.94	1753.06
348.15	1583.08
348.37	1583.08
348.59	1650.66
348.80	1656.81
349.02	1789.92
349.23	1841.12
349.45	1843.17
349.67	1888.23
349.88	1777.64
350.10	1986.53
350.31	1843.17
350.53	1843.17
350.75	1910.75
350.96	1769.44
351.18	1880.04
351.39	1834.98
351.61	1744.87
351.82	1865.70
352.04	1966.05
352.26	1789.92
352.47	1912.80
352.69	1900.52
352.90	1720.29
353.12	1834.98
353.34	1892.32
353.55	1955.81
353.77	1910.75
353.98	1853.41
354.20	1816.55
354.41	1978.34
354.63	1986.53
354.85	2035.68
355.06	1953.76
355.28	1794.02
355.49	1894.37
355.71	1945.57
355.92	1808.36
356.14	1972.19
356.35	1953.76
356.57	1757.16
356.79	1953.76
357.00	1888.23
357.22	1996.77
357.43	1814.50
357.65	1945.57
357.86	1898.47
358.08	1873.89
358.29	1986.53
358.51	2056.16
358.72	1949.67
358.94	1941.47
359.16	1875.94
359.37	1920.99
359.59	1912.80
359.80	1992.67
360.02	1972.19
360.23	1951.71
360.45	1994.72
360.66	1945.57
360.88	1847.27
361.09	1908.71
361.31	1957.86
361.52	2002.91
361.74	2072.54
361.95	2138.08
362.17	1935.33
362.38	2133.98
362.60	2070.50
362.81	2025.44
363.03	1959.91
363.24	1920.99
363.46	2125.79
363.67	2031.58
363.89	1953.76
364.10	2007.01
364.32	1978.34
364.53	2103.26
364.75	1929.19
364.96	2066.40
365.18	1918.95
365.39	2009.06
365.61	1978.34
365.82	2103.26
366.04	1996.77
366.25	2015.20
366.47	2039.78
366.68	2031.58
366.90	2074.59
367.11	2050.02
367.33	2090.98
367.54	2009.06
367.76	1986.53
367.97	2101.22
368.19	1980.39
368.40	2115.55
368.62	2007.01
368.83	2029.54
369.05	2095.07
369.26	2015.20
369.48	2037.73
369.69	1943.52
369.91	1978.34
370.12	2054.11
370.33	2097.12
370.55	2011.11
370.76	2056.16
370.98	2142.18
371.19	2076.64
371.41	2013.15
371.62	2054.11
371.84	1964.00
372.05	2162.66
372.27	2021.35
372.48	2133.98
372.69	2125.79
372.91	2160.61
373.12	2193.37
373.34	2113.50
373.55	2185.18
373.77	2170.85
373.98	2158.56
374.20	2213.85
374.41	2334.68
374.62	2191.33
374.84	2203.61
375.05	2185.18
375.27	2191.33
375.48	2234.33
375.70	2142.18
375.91	2199.52
376.12	2215.90
376.34	2156.51
376.55	2197.47
376.77	2191.33
376.98	2144.22
377.19	2125.79
377.41	2144.22
377.62	2265.05
377.84	2260.96
378.05	2340.83
378.27	2164.70
378.48	2320.35
378.69	2404.32
378.91	2363.36
379.12	2312.16
379.34	2224.09
379.55	2340.83
379.76	2256.86
379.98	2250.72
380.19	2197.47
380.41	2267.10
380.62	2424.80
380.83	2256.86
381.05	2215.90
381.26	2381.79
381.47	2281.44
381.69	2211.81
381.90	2445.27
382.12	2260.96
382.33	2432.99
382.54	2244.57
382.76	2265.05
382.97	2451.42
383.19	2312.16
383.40	2435.03
383.61	2293.72
383.83	2287.58
384.04	2283.49
384.25	2338.78
384.47	2346.97
384.68	2424.80
384.89	2359.26
385.11	2252.77
385.32	2422.75
385.54	2383.84
385.75	2371.55
385.96	2469.85
386.18	2441.18
386.39	2394.08
386.60	2359.26
386.82	2437.08
387.03	2445.27
387.24	2539.48
387.46	2498.52
387.67	2467.80
387.88	2531.29
388.10	2457.56
388.31	2500.57
388.52	2598.87
388.74	2621.40
388.95	2465.75
389.16	2492.38
389.38	2461.66
389.59	2562.01
389.80	2570.20
390.02	2586.58
390.23	2594.78
390.44	2492.38
390.66	2508.76
390.87	2525.15
391.08	2617.30
391.30	2801.62
391.51	2615.26
391.72	2688.98
391.94	2582.49
392.15	2748.37
392.36	2605.02
392.58	2574.30
392.79	2658.26
393.00	2697.17
393.22	2701.27
393.43	2801.62
393.64	2660.31
393.85	2664.41
394.07	2703.32
394.28	2744.28
394.49	2772.95
394.71	2809.81
394.92	2910.16
395.13	2748.37
395.35	2787.29
395.56	2779.09
395.77	2822.10
395.98	2795.48
396.20	3110.86
396.41	2906.07
396.62	2932.69
396.84	2844.63
397.05	2887.64
397.26	2850.77
397.47	2891.73
397.69	2861.01
397.90	3002.32
398.11	3053.52
398.32	2987.99
398.54	2879.44
398.75	2944.98
398.96	3033.04
399.18	3090.38
399.39	3078.10
399.60	3035.09
399.81	3076.05
400.03	2998.23
400.24	3205.07
400.45	2977.75
400.66	3139.54
400.88	3065.81
401.09	3317.71
401.30	3071.95
401.51	3289.04
401.73	3192.78
401.94	3135.44
402.15	3186.64
402.36	3180.50
402.58	3117.01
402.79	3282.89
403.00	3289.04
403.21	3284.94
403.43	3276.75
403.64	3256.27
403.85	3123.15
404.06	3336.14
404.27	3268.56
404.49	3321.81
404.70	3305.42
404.91	3315.66
405.12	3330.00
405.34	3297.23
405.55	3565.51
405.76	3215.31
405.97	3284.94
406.19	3416.01
406.40	3264.46
406.61	3350.48
406.82	3481.55
407.03	3354.57
407.25	3430.35
407.46	3493.83
407.67	3545.03
407.88	3526.60
408.09	3325.90
408.31	3405.77
408.52	3631.05
408.73	3387.34
408.94	3473.36
409.15	3573.71
409.37	3555.27
409.58	3459.02
409.79	3598.28
410.00	3526.60
410.21	3514.31
410.43	3504.07
410.64	3452.88
410.85	3624.90
411.06	3547.08
411.27	3559.37
411.48	3637.19
411.70	3678.15
411.91	3547.08
412.12	3715.02
412.33	3614.66
412.54	3696.58
412.76	3659.72
412.97	3719.11
413.18	3477.45
413.39	3629.00
413.60	3782.60
413.81	3639.24
414.03	3616.71
414.24	3678.15
414.45	3764.17
414.66	3600.33
414.87	3770.31
415.08	3784.65
415.30	3745.73
415.51	3796.93
415.72	3856.33
415.93	3860.42
416.14	3798.98
416.35	3919.81
416.56	3796.93
416.78	3827.65
416.99	3870.66
417.20	3895.24
417.41	3878.85
417.62	3948.48
417.83	4042.69
418.04	3907.52
418.26	3964.87
418.47	3948.48
418.68	4124.61
418.89	4104.13
419.10	4089.79
419.31	4026.31
419.52	4120.51
419.73	3968.96
419.95	4143.04
420.16	3997.64
420.37	4057.03
420.58	4130.75
420.79	4132.80
421.00	4046.79
421.21	4206.53
421.42	4048.83
421.63	4153.28
421.85	4040.64
422.06	4237.25
422.27	4235.20
422.48	4147.14
422.69	4351.93
422.90	4224.96
423.11	4313.02
423.32	4347.84
423.53	4407.23
423.75	4427.71
423.96	4466.62
424.17	4423.61
424.38	4511.68
424.59	4470.72
424.80	4480.96
425.01	4513.72
425.22	4437.95
425.43	4380.61
425.64	4657.08
425.85	4734.90
426.06	4609.98
426.28	4624.31
426.49	4595.64
426.70	4661.18
426.91	4706.23
427.12	4767.67
427.33	4650.94
427.54	4540.35
427.75	4636.60
427.96	4855.73
428.17	4804.53
428.38	4790.20
428.59	4853.69
428.80	4695.99
429.01	4921.27
429.23	4865.97
429.44	4937.65
429.65	4964.28
429.86	4992.95
430.07	4970.42
430.28	5007.28
430.49	4982.71
430.70	5390.25
430.91	5167.03
431.12	5058.48
431.33	5074.87
431.54	5195.70
431.75	5167.03
431.96	5070.77
432.17	5199.79
432.38	5181.36
432.59	5529.52
432.80	5328.81
433.01	5324.72
433.22	5371.82
433.43	5212.08
433.64	5189.55
433.85	5334.96
434.06	5363.63
434.27	5400.49
434.49	5337.01
434.70	5468.08
434.91	5455.79
435.12	5406.64
435.33	5429.17
435.54	5586.86
435.75	5390.25
435.96	5433.26
436.17	5351.34
436.38	5656.49
436.59	5603.24
436.80	5525.42
437.01	5805.99
437.22	5902.25
437.43	5873.57
437.64	5631.91
437.85	5949.35
438.06	5767.08
438.27	5656.49
438.48	5783.46
438.69	5961.64
438.90	5887.91
439.11	5797.80
439.32	6061.99
439.53	5810.09
439.74	6092.71
439.95	5857.19
440.16	5965.73
440.37	6037.41
440.57	5904.29
440.78	6188.96
440.99	6023.08
441.20	6033.32
441.41	6016.93
441.62	6170.53
441.83	6070.18
442.04	6178.72
442.25	6143.91
442.46	6246.30
442.67	6293.41
442.88	6696.86
443.09	6168.48
443.30	6211.49
443.51	6262.69
443.72	6537.12
443.93	6240.16
444.14	6492.06
444.35	6387.61
444.56	6485.92
444.77	6442.91
444.98	6707.10
445.19	6696.86
445.40	6442.91
445.61	6518.68
445.81	6754.20
446.02	6655.90
446.23	6717.34
446.44	6383.52
446.65	6598.56
446.86	6655.90
447.07	6895.51
447.28	6770.58
447.49	6803.35
447.70	6655.90
447.91	7012.24
448.12	6985.62
448.33	6936.47
448.54	6897.56
448.74	6887.32
448.95	7077.78
449.16	6850.46
449.37	7110.55
449.58	6852.50
449.79	7346.06
450.00	7045.01
450.21	7098.26
450.42	7270.29
450.63	7317.39
450.84	7282.58
451.05	7276.43
451.25	7208.85
451.46	7145.36
451.67	7393.17
451.88	7417.74
452.09	7407.50
452.30	7364.50
452.51	7264.15
452.72	7514.00
452.93	7890.82
453.13	7450.51
453.34	7509.90
453.55	7505.81
453.76	7585.68
453.97	7956.36
454.18	7661.45
454.39	7794.57
454.60	7743.37
454.81	7647.12
455.01	7933.83
455.22	7569.29
455.43	7925.64
455.64	8011.65
455.85	8038.28
456.06	8204.16
456.27	7997.32
456.48	7886.73
456.68	7956.36
456.89	8036.23
457.10	8296.32
457.31	8165.25
457.52	8128.39
457.73	8259.46
457.94	8376.19
458.14	8220.55
458.35	8761.21
458.56	8449.92
458.77	8365.95
458.98	8617.85
459.19	8636.28
459.39	8552.32
459.60	8859.51
459.81	8556.41
460.02	8814.46
460.23	8736.63
460.44	8914.81
460.65	8988.53
460.85	9009.01
461.06	8992.63
461.27	8710.01
461.48	9148.28
461.69	9215.86
461.89	8687.48
462.10	9131.89
462.31	9129.84
462.52	9084.79
462.73	9152.37
462.94	9273.20
463.14	9283.44
463.35	9240.44
463.56	9865.07
463.77	9527.15
463.98	9426.80
464.18	9523.05
464.39	9559.92
464.60	9607.02
464.81	9768.81
465.02	9686.89
465.23	9912.17
465.43	9701.23
465.64	10080.10
465.85	10022.76
466.06	9901.93
466.27	10116.97
466.47	10141.54
466.68	9977.70
466.89	10334.05
467.10	10405.73
467.30	10061.67
467.51	10059.62
467.72	10612.57
467.93	10182.50
468.14	10364.77
468.34	10692.44
468.55	10463.07
468.76	10520.42
468.97	10653.53
469.17	10895.19
469.38	10870.62
469.59	10960.73
469.80	10983.26
470.01	10872.67
470.21	11054.94
470.42	11421.52
470.63	11138.90
470.84	11206.48
471.04	11263.83
471.25	11288.40
471.46	11235.16
471.67	11595.60
471.87	11599.70
472.08	11831.12
472.29	11790.16
472.50	11824.97
472.70	11679.57
472.91	11755.34
473.12	11908.94
473.33	12185.41
473.53	12402.50
473.74	12189.51
473.95	12455.75
474.16	12316.48
474.36	12214.09
474.57	12492.61
474.78	12611.39
474.99	12531.52
475.19	12615.49
475.40	12902.20
475.61	12808.00
475.81	13193.01
476.02	13262.65
476.23	13164.34
476.44	13045.56
476.64	13307.70
476.85	13686.58
477.06	13618.99
477.27	13838.12
477.47	13879.08
477.68	13662.00
477.89	13881.13
478.09	14016.30
478.30	14077.74
478.51	14327.59
478.71	14290.73
478.92	14417.70
479.13	14475.04
479.34	14606.11
479.54	14692.13
479.75	14720.80
479.96	14673.70
480.16	14937.88
480.37	14939.93
480.58	15142.68
480.78	15433.49
480.99	15322.90
481.20	15324.95
481.41	15544.08
481.61	15496.98
481.82	15496.98
482.03	15574.80
482.23	15582.99
482.44	16244.49
482.65	15998.73
482.85	16074.51
483.06	16060.17
483.27	16174.86
483.47	16344.84
483.68	16545.54
483.89	16367.37
484.09	16510.72
484.30	16774.91
484.51	16869.12
484.71	16865.02
484.92	16961.28
485.13	17096.44
485.33	17186.55
485.54	17039.10
485.75	17512.18
485.95	17444.60
486.16	17780.46
486.37	17622.77
486.57	17665.78
486.78	17882.86
486.98	17682.16
487.19	18388.71
487.40	18116.33
487.60	18040.56
487.81	18521.83
488.02	18652.90
488.22	18351.85
488.43	18884.32
488.64	18849.50
488.84	18691.81
489.05	18988.77
489.25	18824.93
489.46	19181.28
489.67	19080.92
489.87	19338.97
490.08	19357.40
490.29	19300.06
490.49	19660.50
490.70	19746.51
490.90	20164.30
491.11	20192.97
491.32	19871.44
491.52	20006.61
491.73	20229.84
491.94	20336.33
492.14	20270.79
492.35	20321.99
492.55	20487.88
492.76	20971.20
492.97	20917.95
493.17	20844.23
493.38	21055.17
493.58	21253.82
493.79	20944.58
494.00	20840.13
494.20	21046.97
494.41	21380.79
494.61	21599.93
494.82	21544.63
495.02	21593.78
495.23	21698.23
495.44	21831.35
495.64	21976.75
495.85	22068.91
496.05	22191.79
496.26	22003.38
496.47	22714.02
496.67	22347.44
496.88	22675.11
497.08	22001.33
497.29	22736.55
497.49	22515.37
497.70	22939.30
497.91	22931.11
498.11	23008.93
498.32	23015.07
498.52	23127.71
498.73	23484.06
498.93	23316.12
499.14	23658.14
499.34	23541.40
499.55	23727.77
499.76	23582.36
499.96	23733.91
500.17	23744.15
500.37	24057.49
500.58	24258.19
500.78	24172.18
500.99	23803.54
501.19	24448.65
501.40	24112.78
501.60	23977.62
501.81	24477.32
502.02	24643.21
502.22	24391.31
502.43	24641.16
502.63	24688.26
502.84	24925.83
503.04	24792.71
503.25	25022.08
503.45	25056.90
503.66	25206.40
503.86	24954.50
504.07	25462.40
504.27	24858.24
504.48	25659.00
504.68	25638.52
504.89	25947.76
505.09	26070.64
505.30	25431.68
505.50	25865.85
505.71	26214.00
505.91	25996.92
506.12	26105.46
506.32	26052.21
506.53	26097.27
506.73	26394.22
506.94	26406.51
507.14	26476.14
507.35	26541.68
507.55	26580.59
507.76	26336.88
507.96	26400.37
508.17	26754.66
508.37	26463.85
508.58	26881.64
508.78	26666.60
508.99	27139.68
509.19	27117.15
509.40	26908.26
509.60	26881.64
509.81	27412.06
510.01	27270.75
510.22	27192.93
510.42	27356.77
510.63	27749.98
510.83	27305.57
511.04	27469.40
511.24	27864.66
511.44	27668.06
511.65	27760.22
511.85	27717.21
512.06	27821.66
512.26	27950.68
512.47	28055.12
512.67	27827.80
512.88	27840.09
513.08	27879.00
513.29	28493.39
513.49	27883.09
513.69	27938.39
513.90	28329.55
514.10	28446.29
514.31	28706.38
514.51	28376.66
514.72	28667.47
514.92	28522.06
515.13	28554.83
515.33	28491.34
515.53	28644.94
515.74	28853.83
515.94	28767.82
516.15	28894.79
516.35	28425.81
516.56	28915.27
516.76	29105.73
516.96	28902.98
517.17	29351.49
517.37	29335.10
517.58	29126.21
517.78	29220.42
517.99	29189.70
518.19	29259.33
518.39	29650.49
518.60	29558.33
518.80	29615.68
519.01	29879.86
519.21	29619.77
519.41	29845.05
519.62	29550.14
519.82	29883.96
520.03	30287.41
520.23	29877.82
520.43	29881.91
520.64	30545.45
520.84	30684.72
521.05	30354.99
521.25	30328.37
521.45	30537.26
521.66	30621.23
521.86	30490.16
522.07	30445.10
522.27	30592.56
522.47	30441.01
522.68	31014.44
522.88	30866.98
523.08	31030.82
523.29	31106.60
523.49	30889.51
523.70	31106.60
523.90	31254.05
524.10	31153.70
524.31	31395.36
524.51	31122.98
524.71	31528.48
524.92	31909.40
525.12	31534.62
525.33	31854.11
525.53	31620.64
525.73	31948.31
525.94	32063.00
526.14	31958.55
526.34	31909.40
526.55	32019.99
526.75	31622.69
526.95	32296.47
527.16	32239.12
527.36	32292.37
527.56	32613.90
527.77	32593.42
527.97	32638.48
528.17	32550.42
528.38	32742.92
528.58	32661.01
528.78	32935.43
528.99	32796.17
529.19	32906.76
529.39	32650.77
529.60	33076.74
529.80	33216.01
530.00	33297.92
530.21	33584.64
530.41	33519.10
530.61	33633.79
530.82	33484.29
531.02	33777.15
531.22	33797.63
531.43	33873.40
531.63	33592.83
531.83	34033.14
532.04	34137.59
532.24	34309.62
532.44	34674.16
532.64	34618.86
532.85	34604.53
533.05	34760.17
533.25	34573.81
533.46	34416.11
533.66	34862.57
533.86	34887.15
534.07	35012.07
534.27	34915.82
534.47	35120.62
534.67	35229.16
534.88	35347.94
535.08	35452.39
535.28	35423.72
535.49	35532.26
535.69	35841.50
535.89	35835.36
536.09	36138.46
536.30	36103.64
536.50	36001.24
536.70	36054.49
536.91	36189.66
537.11	36122.07
537.31	36511.19
537.51	35886.56
537.72	36681.17
537.92	36892.11
538.12	36818.38
538.32	36214.23
538.53	37150.15
538.73	36779.47
538.93	36734.42
539.13	36892.11
539.34	36965.84
539.54	36941.26
539.74	36888.01
539.94	37137.87
540.15	37174.73
540.35	37553.60
540.55	37332.42
540.75	37324.23
540.96	37385.67
541.16	37576.13
541.36	37744.06
541.56	38026.68
541.77	38649.27
541.97	37887.42
542.17	38061.50
542.37	38098.36
542.58	38108.60
542.78	37948.86
542.98	38120.89
543.18	38094.27
543.38	38665.65
543.59	38389.17
543.79	37959.10
543.99	38473.14
544.19	38491.57
544.40	38784.43
544.60	38952.37
544.80	38448.57
545.00	38786.48
545.20	39296.42
545.41	38618.55
545.61	39204.27
545.81	39417.25
546.01	39108.01
546.21	39081.39
546.42	38981.04
546.62	39624.10
546.82	39089.58
547.02	39069.10
547.22	39912.86
547.43	39830.94
547.63	39683.49
547.83	39581.09
548.03	38938.03
548.23	39927.20
548.44	39376.30
548.64	39656.87
548.84	40125.85
549.04	39732.64
549.24	39986.59
549.45	40199.58
549.65	40086.94
549.85	40254.87
550.05	40514.97
550.25	40304.02
550.45	40818.07
550.66	40494.49
550.86	40326.55
551.06	40428.95
551.26	40549.78
551.46	40502.68
551.66	40881.55
551.87	40674.71
552.07	40840.59
552.27	40816.02
552.47	41069.97
552.67	41057.68
552.87	40887.70
553.07	41059.73
553.28	41065.87
553.48	41239.95
553.68	41166.22
553.88	41899.39
554.08	41340.30
554.28	41344.39
554.48	41346.44
554.69	42007.94
554.89	41448.84
555.09	41506.18
555.29	41430.41
555.49	41512.33
555.69	41805.19
555.89	41397.64
556.10	41860.48
556.30	41899.39
556.50	42159.48
556.70	41721.22
556.90	42476.92
557.10	42290.55
557.30	41612.68
557.50	42401.14
557.70	42386.81
557.91	42546.55
558.11	42395.00
558.31	42820.98
558.51	42225.02
558.71	42255.74
558.91	41981.31
559.11	42640.76
559.31	42646.90
559.51	42403.19
559.72	42898.80
559.92	42831.22
560.12	42581.37
560.32	42829.17
560.52	42612.09
560.72	43132.27
560.92	43298.16
561.12	42941.81
561.32	43726.18
561.52	42708.34
561.72	43513.19
561.93	42980.72
562.13	43265.39
562.33	42771.83
562.53	43742.56
562.73	43402.60
562.93	43427.18
563.13	43795.81
563.33	43699.56
563.53	44045.66
563.73	43562.34
563.93	43998.56
564.13	44107.10
564.33	44092.77
564.53	43963.75
564.74	44094.82
564.94	43844.96
565.14	44367.20
565.34	44068.19
565.54	44135.77
565.74	43869.54
565.94	44209.50
566.14	44119.39
566.34	44268.89
566.54	44692.82
566.74	44248.41
566.94	44694.87
567.14	44494.17
567.34	44348.76
567.54	44809.56
567.74	44717.40
567.94	45036.88
568.14	45014.35
568.34	45131.09
568.54	45045.07
568.74	45385.04
568.94	44399.96
569.14	45430.09
569.34	45040.98
569.54	45518.15
569.75	44967.25
569.95	45198.67
570.15	45698.37
570.35	45364.56
570.55	45354.32
570.75	45841.73
570.95	46224.70
571.15	45653.32
571.35	45528.39
571.55	45989.19
571.75	45612.36
571.95	45581.64
572.15	45919.56
572.35	46206.27
572.55	46163.26
572.75	45751.62
572.95	46163.26
573.15	46052.67
573.35	45954.37
573.55	46097.73
573.75	46390.59
573.95	46120.26
574.15	46753.08
574.35	46855.48
574.55	46472.51
574.75	46472.51
574.95	47148.34
575.15	46593.34
575.34	46603.58
575.54	46781.75
575.74	47174.96
575.94	47275.31
576.14	47220.02
576.34	47168.82
576.54	47414.57
576.74	47213.87
576.94	47269.17
577.14	47805.73
577.34	47570.22
577.54	47428.91
577.74	47465.77
577.94	47381.80
578.14	47889.70
578.34	47795.49
578.54	47572.27
578.74	47531.31
578.94	48299.30
579.14	47387.95
579.34	47981.86
579.54	48018.72
579.74	48252.19
579.94	48274.72
580.13	48555.29
580.33	48403.74
580.53	48348.45
580.73	48332.06
580.93	48536.86
581.13	48680.22
581.33	48735.51
581.53	48776.47
581.73	49063.19
581.93	49296.66
582.13	49392.91
582.33	49143.06
582.53	48958.74
582.73	48932.12
582.92	48864.53
583.12	49466.64
583.32	49300.75
583.52	49317.14
583.72	49399.05
583.92	49583.37
584.12	49648.91
584.32	50050.31
584.52	49861.90
584.72	49720.59
584.92	50222.34
585.11	50488.57
585.31	49890.57
585.51	50361.60
585.71	50056.45
585.91	50588.92
586.11	50101.51
586.31	50001.16
586.51	50224.39
586.71	50416.89
586.91	50826.49
587.10	50717.95
587.30	50629.88
587.50	50797.82
587.70	50853.11
587.90	50943.22
588.10	50689.27
588.30	50844.92
588.50	51049.72
588.69	51213.55
588.89	50586.88
589.09	50998.52
589.29	51234.03
589.49	51676.40
589.69	51254.51
589.89	51453.17
590.08	51125.49
590.28	51281.14
590.48	51440.88
590.68	51391.73
590.88	51371.25
591.08	51330.29
591.28	50945.27
591.47	51918.06
591.67	51649.77
591.87	51590.38
592.07	51885.29
592.27	51748.07
592.47	51487.98
592.67	51954.92
592.86	51375.34
593.06	51903.72
593.26	51848.42
593.46	51717.35
593.66	51846.38
593.86	52366.56
594.05	52036.84
594.25	52223.20
594.45	51864.81
594.65	52262.11
594.85	52204.77
595.05	52630.75
595.24	52262.11
595.44	52526.30
595.64	52169.96
595.84	52471.01
596.04	52679.90
596.23	52702.43
596.43	52997.34
596.63	52798.68
596.83	52657.37
597.03	52909.27
597.22	52927.70
597.42	53081.30
597.62	53060.82
597.82	52597.98
598.02	52856.03
598.21	53255.38
598.41	52925.66
598.61	53277.91
598.81	53118.17
599.01	53392.59
599.20	53130.45
599.40	53417.17
599.60	53744.84
599.80	53042.39
600.00	53787.85
600.19	53941.45
600.39	53222.61
600.59	53847.24
600.79	53920.97
600.98	53314.77
601.18	53978.31
601.38	54215.88
601.58	53957.83
601.78	53892.30
601.97	53812.43
602.17	54516.93
602.37	54146.25
602.57	54078.66
602.76	54383.81
602.96	53685.45
603.16	54262.98
603.36	54117.57
603.55	54887.61
603.75	54338.75
603.95	54981.82
604.15	54441.15
604.34	54561.98
604.54	54545.60
604.74	54445.25
604.94	54623.42
605.13	55004.34
605.33	54621.37
605.53	54312.13
605.73	54441.15
605.92	54641.85
606.12	54934.71
606.32	55069.88
606.52	55008.44
606.71	55018.68
606.91	55102.65
607.11	54992.06
607.30	55041.21
607.50	55030.97
607.70	55243.96
607.90	55440.56
608.09	55102.65
608.29	55391.41
608.49	55485.62
608.68	55059.64
608.88	55393.46
609.08	55379.12
609.28	55334.07
609.47	55069.88
609.67	56089.77
609.87	55665.84
610.06	55712.94
610.26	55268.53
610.46	55356.60
610.66	55381.17
610.85	55358.64
611.05	55225.53
611.25	55702.70
611.44	55203.00
611.64	55604.40
611.84	55645.36
612.03	55483.57
612.23	55633.07
612.43	55682.22
612.62	55479.47
612.82	55671.98
613.02	55448.75
613.21	55456.95
613.41	55272.63
613.61	55841.96
613.80	55352.50
614.00	55604.40
614.20	55495.86
614.39	55465.14
614.59	55764.14
614.79	55196.85
614.98	55260.34
615.18	55893.16
615.38	55801.00
615.57	55260.34
615.77	55393.46
615.97	55399.60
616.16	55702.70
616.36	55671.98
616.56	55338.16
616.75	55475.38
616.95	55178.42
617.15	56016.04
617.34	55493.81
617.54	55334.07
617.74	55997.61
617.93	55583.92
618.13	54809.79
618.32	55094.46
618.52	55684.27
618.72	55438.51
618.91	55084.22
619.11	55223.48
619.31	55491.76
619.50	55833.77
619.70	54863.03
619.90	55254.20
620.09	55434.42
620.29	55231.67
620.48	54852.80
620.68	55571.63
620.88	55047.35
621.07	55078.07
621.27	55205.05
621.46	54822.08
621.66	55067.83
621.86	55024.82
622.05	55076.02
622.25	55579.82
622.44	54783.16
622.64	54797.50
622.84	55588.02
623.03	54924.47
623.23	54981.82
623.42	54908.09
623.62	55717.04
623.82	55293.11
624.01	54785.21
624.21	54973.63
624.40	55028.92
624.60	54846.65
624.80	54985.91
624.99	55069.88
625.19	54455.49
625.38	55256.24
625.58	54801.60
625.77	55116.98
625.97	54670.53
626.17	54596.80
626.36	54719.68
626.56	55049.40
626.75	54297.80
626.95	54973.63
627.14	54742.20
627.34	55243.96
627.54	54826.17
627.73	54908.09
627.93	54674.62
628.12	54308.04
628.32	54746.30
628.51	54940.86
628.71	54813.88
628.90	54684.86
629.10	54293.70
629.30	54576.32
629.49	54533.31
629.69	54287.56
629.88	54629.57
630.08	55129.27
630.27	54928.57
630.47	54555.84
630.66	54527.17
630.86	54809.79
631.05	54400.19
631.25	55172.28
631.44	54658.24
631.64	54768.83
631.84	54807.74
632.03	54932.67
632.23	54973.63
632.42	54877.37
632.62	54494.40
632.81	54207.68
633.01	54693.05
633.20	55106.74
633.40	54277.32
633.59	55184.57
633.79	54580.42
633.98	54586.56
634.18	54967.48
634.37	54455.49
634.57	54594.75
634.76	55219.38
634.96	54869.18
635.15	54516.93
635.35	54441.15
635.54	54672.57
635.74	54969.53
635.93	54545.60
636.13	54938.81
636.32	54951.10
636.52	54416.58
636.71	54719.68
636.91	54514.88
637.10	54990.01
637.30	55073.98
637.49	54777.02
637.69	54521.02
637.88	55264.44
638.08	54242.50
638.27	54740.16
638.46	54947.00
638.66	54490.30
638.85	54568.13
639.05	54529.22
639.24	54863.03
639.44	54232.26
639.63	54666.43
639.83	55131.32
640.02	54848.70
640.22	54832.32
640.41	55061.69
640.61	54437.06
640.80	54869.18
640.99	54674.62
641.19	55137.46
641.38	54621.37
641.58	54834.36
641.77	54439.11
641.97	54709.44
642.16	55067.83
642.36	55325.88
642.55	55413.94
642.74	54496.45
642.94	55061.69
643.13	55116.98
643.33	55162.04
643.52	55211.19
643.72	54928.57
643.91	55280.82
644.10	54998.20
644.30	54983.86
644.49	55088.31
644.69	55063.74
644.88	55082.17
645.08	55235.77
645.27	54885.56
645.46	54949.05
645.66	55411.89
645.85	55006.39
646.05	55352.50
646.24	55094.46
646.43	55235.77
646.63	55690.41
646.82	55473.33
647.02	55383.22
647.21	55655.60
647.40	55493.81
647.60	55561.39
647.79	55641.26
647.99	55600.30
648.18	55332.02
648.37	56089.77
648.57	55809.20
648.76	55706.80
648.96	55282.87
649.15	55667.89
649.34	56210.60
649.54	55397.55
649.73	55043.26
649.92	55940.27
650.12	55925.93
650.31	55864.49
650.51	56032.42
650.70	56138.92
650.89	55592.11
651.09	56546.47
651.28	56102.06
651.47	56087.72
651.67	55835.82
651.86	56497.31
652.06	55565.49
652.25	55887.02
652.44	55612.59
652.64	56190.12
652.83	55880.88
653.02	55497.91
653.22	56059.05
653.41	55504.05
653.60	55747.76
653.80	55708.85
653.99	56444.07
654.18	56157.35
654.38	56063.14
654.57	55784.62
654.76	56077.48
654.96	56112.30
655.15	55641.26
655.34	56122.54
655.54	55676.08
655.73	56114.34
655.92	56413.35
656.12	56280.23
656.31	56192.17
656.50	56104.10
656.70	56214.69
656.89	56345.76
657.08	56100.01
657.28	56210.60
657.47	56427.68
657.66	55936.17
657.86	56038.57
658.05	56507.55
658.24	56159.40
658.43	55987.37
658.63	56456.35
658.82	56382.63
659.01	56884.38
659.21	56472.74
659.40	56722.59
659.59	56349.86
659.79	56446.11
659.98	56568.99
660.17	56540.32
660.36	56356.00
660.56	56263.85
660.75	56231.08
660.94	56861.85
661.14	56429.73
661.33	56984.73
661.52	56089.77
661.71	56548.51
661.91	56136.87
662.10	56333.48
662.29	56820.89
662.49	56954.01
662.68	57060.51
662.87	57027.74
663.06	56552.61
663.26	56321.19
663.45	57128.09
663.64	56564.90
663.83	56933.53
664.03	57060.51
664.22	57269.40
664.41	57050.27
664.60	56583.33
664.80	56919.20
664.99	56517.79
665.18	56605.86
665.37	57154.71
665.57	57488.53
665.76	56425.64
665.95	57328.79
666.14	56755.36
666.34	56923.29
666.53	56755.36
666.72	56779.93
666.91	56669.34
667.11	56585.38
667.30	57007.26
667.49	56595.62
667.68	56908.96
667.87	56409.25
668.07	57164.95
668.26	56743.07
668.45	57017.50
668.64	56915.10
668.84	57371.80
669.03	57570.45
669.22	57021.59
669.41	57293.97
669.60	57660.56
669.80	56652.96
669.99	57623.70
670.18	57447.57
670.37	57382.04
670.57	57341.08
670.76	57615.50
670.95	57169.05
671.14	57199.77
671.33	57019.55
671.53	57808.01
671.72	57259.16
671.91	57449.62
672.10	56990.87
672.29	57529.49
672.48	57494.67
672.68	57334.93
672.87	57359.51
673.06	57498.77
673.25	57541.78
673.44	56941.72
673.64	56562.85
673.83	57119.90
674.02	56755.36
674.21	56698.01
674.40	57488.53
674.59	57248.92
674.79	57474.20
674.98	56872.09
675.17	57107.61
675.36	56988.83
675.55	57513.11
675.74	57144.47
675.94	56980.63
676.13	57373.84
676.32	57265.30
676.51	57836.69
676.70	57437.33
676.89	57566.35
677.08	57715.86
677.28	57386.13
677.47	57533.59
677.66	57971.85
677.85	57595.03
678.04	58033.29
678.23	57750.67
678.42	57554.07
678.62	57517.20
678.81	57867.40
679.00	57529.49
679.19	57939.08
679.38	57312.41
679.57	57699.47
679.76	57328.79
679.96	57877.64
680.15	57554.07
680.34	57214.10
680.53	57423.00
680.72	57930.89
680.91	57427.09
681.10	57226.39
681.29	57572.50
681.48	57269.40
681.68	57566.35
681.87	57398.42
682.06	57265.30
682.25	57021.59
682.44	56898.72
682.63	57629.84
682.82	57420.95
683.01	57652.37
683.20	56999.07
683.39	57386.13
683.59	57351.32
683.78	57021.59
683.97	57433.24
684.16	57449.62
684.35	57275.54
684.54	57253.01
684.73	57035.93
684.92	56855.71
685.11	57029.79
685.30	57267.35
685.49	57302.17
685.69	57332.89
685.88	57375.89
686.07	57312.41
686.26	57261.21
686.45	57365.65
686.64	57107.61
686.83	57222.29
687.02	57248.92
687.21	57463.96
687.40	57670.80
687.59	57320.60
687.78	56970.39
687.97	57578.64
688.16	57396.37
688.35	57283.73
688.54	56988.83
688.74	57343.12
688.93	56800.41
689.12	57191.58
689.31	57195.67
689.50	57474.20
689.69	56911.00
689.88	56433.83
690.07	57224.34
690.26	57177.24
690.45	57308.31
690.64	57095.32
690.83	57066.65
691.02	56507.55
691.21	56954.01
691.40	56876.19
691.59	57111.70
691.78	57091.22
691.97	57210.01
692.16	57046.17
692.35	56915.10
692.54	56738.97
692.73	56763.55
692.92	56655.01
693.11	56964.25
693.30	56822.94
693.49	57353.36
693.68	56917.15
693.87	56628.38
694.06	56554.66
694.25	56667.30
694.44	56351.91
694.63	56698.01
694.82	56851.61
695.01	56677.54
695.20	56681.63
695.39	56538.27
695.58	56698.01
695.77	56648.86
695.96	56300.71
696.15	56183.97
696.34	56257.70
696.53	56446.11
696.72	57046.17
696.91	56532.13
697.10	56659.10
697.29	56054.95
697.48	56304.80
697.67	56108.20
697.86	56108.20
698.05	56149.16
698.24	56726.69
698.43	55948.46
698.62	56585.38
698.81	55862.44
699.00	56562.85
699.19	55878.83
699.38	56212.65
699.57	55844.01
699.76	56474.79
699.95	55940.27
700.14	55573.68
700.32	56005.80
700.51	56325.28
700.70	56655.01
700.89	56628.38
701.08	56179.88
701.27	55723.18
701.46	56446.11
701.65	55506.10
701.84	55792.81
702.03	56013.99
702.22	55571.63
702.41	55289.01
702.60	55803.05
702.79	55817.39
702.98	55841.96
703.17	55415.99
703.35	55516.34
703.54	55743.66
703.73	55942.31
703.92	55733.42
704.11	55209.14
704.30	55114.94
704.49	55520.43
704.68	55112.89
704.87	55637.17
705.06	55538.86
705.25	55088.31
705.43	54971.58
705.62	55706.80
705.81	55325.88
706.00	55565.49
706.19	55112.89
706.38	54654.14
706.57	54721.72
706.76	54885.56
706.95	54754.49
707.14	55143.61
707.32	54734.01
707.51	54787.26
707.70	54854.84
707.89	55137.46
708.08	54983.86
708.27	55020.73
708.46	55354.55
708.65	54777.02
708.84	55145.65
709.02	55076.02
709.21	55162.04
709.40	54555.84
709.59	54541.50
709.78	54531.26
709.97	54895.80
710.16	54045.90
710.34	54699.20
710.53	54742.20
710.72	54627.52
710.91	54232.26
711.10	54574.27
711.29	54424.77
711.48	54269.12
711.66	54172.87
711.85	54117.57
712.04	54252.74
712.23	54457.54
712.42	54428.87
712.61	54295.75
712.80	53851.34
712.98	54287.56
713.17	53947.59
713.36	53873.87
713.55	53984.46
713.74	53949.64
713.93	54021.32
714.11	53914.83
714.30	53544.14
714.49	53671.12
714.68	53810.38
714.87	53902.54
715.06	53935.30
715.24	53023.96
715.43	53382.35
715.62	53402.83
715.81	53368.02
716.00	53822.67
716.18	53005.53
716.37	53374.16
716.56	53085.40
716.75	53294.29
716.94	53212.37
717.12	53064.92
717.31	53212.37
717.50	52921.56
717.69	53152.98
717.88	52884.70
718.06	53109.97
718.25	53257.43
718.44	52200.68
718.63	52958.42
718.82	52356.32
719.00	52827.35
719.19	52382.94
719.38	52423.90
719.57	52258.02
719.76	52147.43
719.94	51715.31
720.13	51752.17
720.32	51768.55
720.51	51875.05
720.69	52090.09
720.88	52067.56
721.07	52378.85
721.26	51471.60
721.44	51602.67
721.63	51549.42
721.82	51545.33
722.01	51135.73
722.20	51422.45
722.38	51358.96
722.57	51062.00
722.76	51178.74
722.95	51186.93
723.13	50844.92
723.32	50840.82
723.51	51205.36
723.70	50461.95
723.88	51295.47
724.07	50818.30
724.26	50793.72
724.44	50562.30
724.63	50789.62
724.82	50611.45
725.01	50517.25
725.19	50853.11
725.38	50308.35
725.57	50179.33
725.76	50717.95
725.94	50029.83
726.13	50304.26
726.32	50132.23
726.51	49935.62
726.69	50560.25
726.88	50320.64
727.07	50754.81
727.25	49931.53
727.44	49937.67
727.63	50212.10
727.82	50148.61
728.00	50308.35
728.19	49779.98
728.38	50304.26
728.56	49642.76
728.75	50076.93
728.94	49644.81
729.12	50328.83
729.31	50167.04
729.50	49648.91
729.69	49796.36
729.87	49964.29
730.06	49739.02
730.25	49704.20
730.43	50164.99
730.62	49835.27
730.81	49655.05
730.99	49945.86
731.18	49730.83
731.37	49782.02
731.55	49693.96
731.74	49825.03
731.93	49921.29
732.11	49857.80
732.30	49659.15
732.49	49562.89
732.67	49503.50
732.86	49478.92
733.05	49419.53
733.23	49739.02
733.42	49534.22
733.61	49198.35
733.79	49634.57
733.98	49949.96
734.17	49714.44
734.35	49356.05
734.54	49202.45
734.73	49859.85
734.91	49648.91
735.10	49177.87
735.29	49646.86
735.47	48895.25
735.66	49595.66
735.84	49077.52
736.03	49100.05
736.22	49394.96
736.40	49095.95
736.59	49071.38
736.78	48870.68
736.96	49116.43
737.15	48645.40
737.33	48899.35
737.52	48629.02
737.71	48430.36
737.89	48731.42
738.08	48407.84
738.27	47994.15
738.45	48272.67
738.64	48698.65
738.82	48452.89
739.01	48639.26
739.20	48430.36
739.38	48049.44
739.57	48739.61
739.75	48678.17
739.94	48022.82
740.13	48102.69
740.31	48162.08
740.50	48325.92
740.68	48082.21
740.87	48471.32
741.06	48452.89
741.24	48293.15
741.43	47478.06
741.61	48211.23
741.80	47672.62
741.99	47910.18
742.17	47627.56
742.36	48043.30
742.54	47619.37
742.73	47760.68
742.91	47914.28
743.10	47254.83
743.29	47506.73
743.47	47793.45
743.66	47564.07
743.84	47551.79
744.03	47473.96
744.21	47471.92
744.40	47463.72
744.59	47148.34
744.77	47271.21
744.96	47291.69
745.14	47557.93
745.33	47222.06
745.51	47191.34
745.70	47127.86
745.88	47299.89
746.07	47363.37
746.26	46605.62
746.44	47154.48
746.63	46763.32
746.81	47013.17
747.00	46515.51
747.18	46765.37
747.37	46685.50
747.55	46544.19
747.74	46947.64
747.92	46404.92
748.11	46515.51
748.29	46835.00
748.48	46908.72
748.66	46478.65
748.85	46333.24
749.03	46705.98
749.22	46611.77
749.41	46380.35
749.59	46679.35
749.78	46200.13
749.96	45643.08
750.15	46228.80
750.33	46173.50
750.52	45888.84
750.70	46312.77
750.89	45641.03
751.07	45794.63
751.26	45638.98
751.44	45913.41
751.63	45806.92
751.81	45624.65
752.00	45921.60
752.18	45819.20
752.37	45854.02
752.55	45290.83
752.74	45182.29
752.92	45442.38
753.10	45094.22
753.29	45196.62
753.47	45147.47
753.66	44741.97
753.84	46077.25
754.03	45083.98
754.21	44612.95
754.40	45497.67
754.58	45526.35
754.77	45043.02
754.95	44950.87
755.14	45006.16
755.32	44789.08
755.51	44774.74
755.69	44860.76
755.88	44684.63
756.06	44725.59
756.24	44731.73
756.43	44184.93
756.61	44692.82
756.80	44467.55
756.98	44389.72
757.17	44576.09
757.35	44524.89
757.54	44197.21
757.72	44598.62
757.90	44201.31
758.09	44279.13
758.27	44129.63
758.46	43910.50
758.64	44250.46
758.83	44209.50
759.01	44143.97
759.19	43951.46
759.38	44250.46
759.56	44039.52
759.75	44129.63
759.93	43982.18
760.12	43851.11
760.30	43859.30
760.48	43367.79
760.67	43761.00
760.85	43869.54
761.04	43568.49
761.22	43300.20
761.40	43773.28
761.59	43308.40
761.77	43361.64
761.96	43066.73
762.14	43296.11
762.32	43122.03
762.51	42947.95
762.69	43044.21
762.88	43074.93
763.06	43314.54
763.24	43208.04
763.43	43103.60
763.61	42651.00
763.80	42941.81
763.98	42978.67
764.16	43220.33
764.35	42734.96
764.53	42012.03
764.72	42632.57
764.90	42562.93
765.08	42464.63
765.27	42337.66
765.45	42100.09
765.63	42192.25
765.82	42651.00
766.00	42268.03
766.18	42681.72
766.37	42722.68
766.55	41991.55
766.74	42378.62
766.92	41993.60
767.10	42034.56
767.29	41721.22
767.47	41952.64
767.65	41950.59
767.84	41670.02
768.02	41866.63
768.20	41690.50
768.39	41874.82
768.57	41647.49
768.75	41422.22
768.94	41452.94
769.12	41459.08
769.30	41332.11
769.49	41391.50
769.67	41096.59
769.85	40834.45
770.04	41072.01
770.22	40953.23
770.40	41137.55
770.59	41231.75
770.77	41153.93
770.95	41088.40
771.14	40981.90
771.32	40383.90
771.50	40580.50
771.69	40594.84
771.87	41006.48
772.05	40494.49
772.24	40310.17
772.42	40484.25
772.60	40215.96
772.78	40222.11
772.97	40263.07
773.15	40719.76
773.33	40136.09
773.52	40334.74
773.70	40263.07
773.88	40320.41
774.07	39830.94
774.25	40312.22
774.43	40723.86
774.61	40359.32
774.80	40410.52
774.98	40035.74
775.16	40646.04
775.34	40385.94
775.53	40150.43
775.71	40412.57
775.89	40353.18
776.08	40193.43
776.26	40611.22
776.44	40514.97
776.62	40719.76
776.81	40039.84
776.99	40592.79
777.17	40592.79
777.35	40324.50
777.54	40727.95
777.72	40332.70
777.90	40326.55
778.08	40756.63
778.27	40560.02
778.45	40697.24
778.63	41108.88
778.81	40273.31
779.00	41133.45
779.18	40889.74
779.36	41002.38
779.54	40713.62
779.73	40428.95
779.91	41014.67
780.09	40803.73
780.27	41235.85
780.46	40805.78
780.64	41096.59
780.82	40605.08
781.00	41127.31
781.19	40783.25
781.37	41053.58
781.55	41196.94
781.73	40705.43
781.91	40654.23
782.10	41291.15
782.28	41485.70
782.46	41110.92
782.64	41285.00
782.82	40932.75
783.01	41254.28
783.19	41186.70
783.37	41545.09
783.55	41311.63
783.74	41657.73
783.92	40584.60
784.10	41289.10
784.28	41434.50
784.46	40932.75
784.64	41031.05
784.83	41217.42
785.01	41268.62
785.19	41182.60
785.37	41342.35
785.55	41045.39
785.74	40895.89
785.92	40828.30
786.10	41137.55
786.28	41072.01
786.46	40687.00
786.64	40705.43
786.83	40824.21
787.01	41164.17
787.19	41012.62
787.37	40830.35
787.55	40750.48
787.74	40680.85
787.92	40813.97
788.10	40877.46
788.28	40379.80
788.46	40455.57
788.64	40347.03
788.82	40605.08
789.01	40672.66
789.19	40289.69
789.37	40344.98
789.55	40795.54
789.73	39880.10
789.91	40201.63
790.09	40330.65
790.28	40138.14
790.46	39884.19
790.64	39810.46
790.82	40244.63
791.00	39779.74
791.18	39644.58
791.36	39818.66
791.55	39638.44
791.73	39476.65
791.91	39038.38
792.09	39562.66
792.27	39435.69
792.45	39390.63
792.63	39089.58
792.81	39097.77
793.00	38901.17
793.18	38870.45
793.36	38989.23
793.54	38663.60
793.72	38770.10
793.90	38964.65
794.08	38856.11
794.26	38686.13
794.44	38278.58
794.62	38579.64
794.81	38407.61
794.99	38307.26
795.17	38104.51
795.35	38104.51
795.53	38321.59
795.71	38360.50
795.89	37844.41
796.07	37686.72
796.25	37848.51
796.43	38086.07
796.61	37719.49
796.80	37541.32
796.98	37447.11
797.16	37486.02
797.34	37365.19
797.52	37062.09
797.70	37422.53
797.88	37479.88
798.06	36963.79
798.24	37010.89
798.42	36836.81
798.60	36691.41
798.78	36664.78
798.96	36877.77
799.14	36406.74
799.32	36742.61
799.51	36410.84
799.69	36734.42
799.87	36795.85
800.05	36242.90
800.23	36169.18
800.41	35984.86
800.59	35958.24
800.77	36064.73
800.95	35634.66
801.13	35800.54
801.31	35900.89
801.49	35745.25
801.67	35448.29
801.85	35773.92
802.03	35194.34
802.21	35454.44
802.39	35110.38
802.57	35132.90
802.75	35157.48
802.93	34950.63
803.11	35024.36
803.29	35122.66
803.47	34745.84
803.65	34794.99
803.83	35239.40
804.01	35024.36
804.19	34307.57
804.37	34276.85
804.55	34725.36
804.73	34491.89
804.91	34194.93
805.09	34377.20
805.27	34084.34
805.45	33957.37
805.63	34215.41
805.81	33977.85
805.99	33988.09
806.17	34131.45
806.35	33996.28
806.53	33533.44
806.71	33637.89
806.89	33629.69
807.07	33431.04
807.25	33895.93
807.43	33371.65
807.61	33873.40
807.79	33426.95
807.97	33173.00
808.15	33232.39
808.33	33119.75
808.51	32775.69
808.69	33199.62
808.87	33046.02
809.05	32812.56
809.23	32671.25
809.41	32534.03
809.59	32402.96
809.77	32810.51
809.95	32634.38
810.13	32761.36
810.31	32349.71
810.49	32265.75
810.67	32605.71
810.84	32577.04
811.02	32663.05
811.20	32077.33
811.38	32359.95
811.56	32046.62
811.74	32144.92
811.92	31954.46
812.10	32087.57
812.28	31972.89
812.46	31780.38
812.64	31962.65
812.82	31471.14
813.00	31876.63
813.18	31690.27
813.36	31516.19
813.53	31399.46
813.71	31485.47
813.89	31256.10
814.07	31598.11
814.25	31520.29
814.43	31561.25
814.61	31268.39
814.79	31016.49
814.97	30977.58
815.15	31184.42
815.33	30844.46
815.50	30801.45
815.68	31028.77
815.86	31141.41
816.04	30991.91
816.22	30926.38
816.40	30740.01
816.58	30682.67
816.76	30443.06
816.94	30463.54
817.11	30600.75
817.29	30361.14
817.47	30619.18
817.65	30262.83
817.83	30322.23
818.01	30398.00
818.19	30277.17
818.37	29949.50
818.54	30223.92
818.72	29998.65
818.90	30008.89
819.08	29857.34
819.26	29963.83
819.44	29853.24
819.62	30033.46
819.80	29914.68
819.97	29498.94
820.15	29464.13
820.33	29484.61
820.51	29738.55
820.69	29267.52
820.87	29838.90
821.05	29785.66
821.22	29255.23
821.40	29546.05
821.58	29472.32
821.76	29609.53
821.94	29222.47
822.12	29351.49
822.29	29711.93
822.47	29326.91
822.65	29185.60
822.83	29296.19
823.01	29292.10
823.19	29165.12
823.36	28948.04
823.54	28864.07
823.72	28958.28
823.90	28995.14
824.08	28622.41
824.25	28874.31
824.43	28810.82
824.61	28827.21
824.79	28632.65
824.97	28477.01
825.15	28735.05
825.32	28776.01
825.50	28431.95
825.68	28579.40
825.86	28646.99
826.04	28558.92
826.21	28384.85
826.39	28646.99
826.57	28151.38
826.75	27876.95
826.93	27975.25
827.10	28321.36
827.28	28229.20
827.46	28665.42
827.64	28145.23
827.81	27891.29
827.99	28237.39
828.17	27786.84
828.35	27905.62
828.53	27942.49
828.70	27786.84
828.88	27682.39
829.06	27850.33
829.24	28057.17
829.41	27733.59
829.59	28042.84
829.77	27668.06
829.95	27901.53
830.12	27446.88
830.30	27596.38
830.48	27608.67
830.66	27643.48
830.84	27481.69
831.01	27381.34
831.19	27434.59
831.37	27633.24
831.55	27303.52
831.72	27383.39
831.90	27205.22
832.08	27293.28
832.25	26783.34
832.43	27072.10
832.61	27197.02
832.79	26779.24
832.96	27070.05
833.14	27350.62
833.32	26996.32
833.50	26949.22
833.67	27051.62
833.85	26830.44
834.03	26449.52
834.20	26834.53
834.38	27045.48
834.56	26951.27
834.74	26467.95
834.91	26789.48
835.09	26734.18
835.27	26422.89
835.44	26340.97
835.62	26113.65
835.80	26330.73
835.98	26234.48
836.15	26343.02
836.33	26453.61
836.51	26627.69
836.68	26162.80
836.86	26637.93
837.04	26572.39
837.21	26250.86
837.39	26551.91
837.57	26420.84
837.75	26420.84
837.92	26136.18
838.10	26103.41
838.28	25771.64
838.45	26351.21
838.63	25792.12
838.81	26062.45
838.98	25779.83
839.16	25601.66
839.34	25855.61
839.51	25931.38
839.69	25456.25
839.87	25810.55
840.04	25697.91
840.22	26293.87
840.40	25802.36
840.57	25581.18
840.75	25724.54
840.93	25564.79
841.10	25867.89
841.28	25755.26
841.46	25560.70
841.63	25656.95
841.81	25458.30
841.98	25702.01
842.16	25450.11
842.34	25403.00
842.51	25063.04
842.69	25423.48
842.87	25194.11
843.04	25392.76
843.22	25136.77
843.40	25106.05
843.57	24632.97
843.75	25075.33
843.92	25433.72
844.10	25042.56
844.28	25124.48
844.45	25097.86
844.63	25140.86
844.81	25001.60
844.98	25169.54
845.16	24805.00
845.33	24942.21
845.51	24882.82
845.69	24641.16
845.86	24428.17
846.04	24602.25
846.21	24757.89
846.39	24878.72
846.57	24653.45
846.74	24493.71
846.92	24321.68
847.09	24520.33
847.27	24311.44
847.45	24661.64
847.62	24655.50
847.80	24379.02
847.97	24247.95
848.15	24501.90
848.32	24391.31
848.50	24510.09
848.68	24258.19
848.85	24587.91
849.03	24403.60
849.20	23926.42
849.38	24063.63
849.56	24305.29
849.73	23725.72
849.91	24202.89
850.08	24272.53
850.26	23940.75
850.43	23953.04
850.61	24168.08
850.78	23692.95
850.96	23959.19
851.14	23492.25
851.31	23967.38
851.49	23774.87
851.66	24002.19
851.84	23848.60
852.01	23817.88
852.19	23803.54
852.36	23852.69
852.54	23881.36
852.71	23574.17
852.89	23639.70
853.07	23617.18
853.24	23643.80
853.42	23602.84
853.59	23375.52
853.77	23514.78
853.94	23801.49
854.12	23774.87
854.29	23584.41
854.47	23703.19
854.64	23396.00
854.82	23582.36
854.99	23387.80
855.17	23428.76
855.34	23400.09
855.52	23494.30
855.69	23600.79
855.87	23033.50
856.04	22998.69
856.22	23078.56
856.39	22927.01
856.57	22863.52
856.74	22974.11
856.92	23189.15
857.09	22734.50
857.27	23234.21
857.44	23275.16
857.62	22902.43
857.79	22857.38
857.97	22609.58
858.14	22783.65
858.32	22777.51
858.49	22861.48
858.67	22773.41
858.84	22718.12
859.02	22740.64
859.19	22830.76
859.37	22460.07
859.54	22361.77
859.72	22431.40
859.89	22650.53
860.06	22728.36
860.24	22611.62
860.41	22541.99
860.59	22253.23
860.76	22527.66
860.94	22111.92
861.11	22458.03
861.29	22195.89
861.46	22306.48
861.64	21802.68
861.81	22075.06
861.98	22339.24
862.16	21763.76
862.33	21894.83
862.51	22189.74
862.68	22120.11
862.86	21923.51
863.03	21939.89
863.21	21894.83
863.38	21982.90
863.55	21757.62
863.73	21882.55
863.90	21950.13
864.08	21857.97
864.25	21989.04
864.43	22052.53
864.60	21900.98
864.77	21380.79
864.95	21581.49
865.12	21388.99
865.30	21452.47
865.47	21395.13
865.64	21534.39
865.82	21640.89
865.99	21833.39
866.17	21610.17
866.34	21636.79
866.51	21198.52
866.69	21337.79
866.86	21221.05
867.04	21327.55
867.21	21196.48
867.38	21302.97
867.56	20997.82
867.73	20887.23
867.91	20932.29
868.08	21251.77
868.25	21014.21
868.43	20833.99
868.60	20776.64
868.78	20741.83
868.95	20817.60
869.12	20926.14
869.30	20719.30
869.47	20930.24
869.64	20719.30
869.82	20811.46
869.99	20719.30
870.16	20819.65
870.34	20569.80
870.51	20907.71
870.69	20491.98
870.86	20442.82
871.03	20688.58
871.21	20235.98
871.38	20719.30
871.55	20264.65
871.73	20238.03
871.90	20297.42
872.07	20106.96
872.25	19984.08
872.42	20342.47
872.59	20047.57
872.77	20160.20
872.94	19953.36
873.11	20111.05
873.29	20010.70
873.46	19871.44
873.63	19853.01
873.81	19769.04
873.98	19676.88
874.15	20014.80
874.33	19830.48
874.50	19410.65
874.67	19672.79
874.85	19783.38
875.02	19490.52
875.19	19447.51
875.37	19412.70
875.54	19285.72
875.71	19578.58
875.88	19279.58
876.06	19357.40
876.23	19271.39
876.40	19238.62
876.58	19472.09
876.75	19447.51
876.92	19406.55
877.10	19044.06
877.27	19064.54
877.44	18861.79
877.61	18884.32
877.79	18912.99
877.96	18788.07
878.13	18933.47
878.31	18876.13
878.48	18419.43
878.65	18847.46
878.82	18657.00
879.00	18945.76
879.17	18720.48
879.34	18738.91
879.51	18425.57
879.69	18378.47
879.86	18618.08
880.03	18302.70
880.21	18478.82
880.38	18466.53
880.55	18417.38
880.72	18190.06
880.90	18401.00
881.07	18200.30
881.24	18083.56
881.41	18368.23
881.59	18001.65
881.76	18208.49
881.93	17833.71
882.10	18159.34
882.28	17907.44
882.45	17962.73
882.62	18163.43
882.79	17919.73
882.96	17805.04
883.14	18020.08
883.31	18058.99
883.48	17848.05
883.65	17819.38
883.83	17956.59
884.00	17784.56
884.17	17891.06
884.34	17714.93
884.51	17620.72
884.69	17815.28
884.86	17581.81
885.03	17448.69
885.20	17503.99
885.38	17604.34
885.55	17772.27
885.72	17501.94
885.89	17424.12
886.06	17700.59
886.24	17331.96
886.41	17426.17
886.58	17639.15
886.75	17415.93
886.92	17444.60
887.10	17260.28
887.27	17065.72
887.44	17501.94
887.61	17286.90
887.78	17657.59
887.95	17182.46
888.13	17305.34
888.30	17239.80
888.47	17243.90
888.64	17567.48
888.81	17133.31
888.99	16965.37
889.16	17147.64
889.33	16957.18
889.50	16783.10
889.67	17051.39
889.84	16926.46
890.01	16811.78
890.19	17125.11
890.36	16998.14
890.53	16828.16
890.70	16639.75
890.87	17096.44
891.04	16647.94
891.22	16660.23
891.39	16584.45
891.56	16525.06
891.73	16742.14
891.90	16359.17
892.07	16406.28
892.24	16432.90
892.42	16314.12
892.59	16353.03
892.76	16496.39
892.93	16363.27
893.10	16512.77
893.27	16000.78
893.44	16051.98
893.61	16099.08
893.79	16621.31
893.96	16283.40
894.13	16213.77
894.30	16146.19
894.47	16303.88
894.64	16432.90
894.81	16273.16
894.98	16326.41
895.15	15918.86
895.33	16326.41
895.50	16215.82
895.67	16156.43
895.84	16217.86
896.01	16189.19
896.18	15841.04
896.35	16189.19
896.52	16113.42
896.69	16047.88
896.86	15875.85
897.04	16277.26
897.21	15968.01
897.38	16056.08
897.55	15933.20
897.72	16230.15
897.89	15968.01
898.06	15931.15
898.23	16082.70
898.40	15947.53
898.57	16088.84
898.74	15916.81
898.91	15740.69
899.08	16066.31
899.26	16074.51
899.43	15808.27
899.60	15820.56
899.77	15851.28
899.94	15781.65
900.11	15845.13
900.28	16058.12
900.45	15562.51
900.62	15687.44
900.79	15922.96
900.96	15779.60
901.13	15939.34
901.30	15744.78
901.47	15658.77
901.64	15845.13
901.81	15949.58
901.98	15904.53
902.15	15861.52
902.32	15648.53
902.49	15834.89
902.66	15847.18
902.83	15943.44
903.01	15916.81
903.18	15824.65
903.35	15570.71
903.52	15580.95
903.69	15742.74
903.86	16013.07
904.03	15980.30
904.20	15916.81
904.37	15793.94
904.54	15890.19
904.71	15769.36
904.88	15724.30
905.05	15877.90
905.22	15505.17
905.39	15716.11
905.56	15761.17
905.73	15611.67
905.90	15705.87
906.07	15458.07
906.24	15650.58
906.41	15671.06
906.58	15732.50
906.75	15761.17
906.92	15488.79
907.09	15640.34
907.26	15769.36
907.43	15646.48
907.60	15539.99
907.77	15853.33
907.93	15658.77
908.10	15431.44
908.27	15961.87
908.44	15535.89
908.61	15513.36
908.78	15449.88
908.95	15517.46
909.12	15589.14
909.29	15601.43
909.46	15644.43
909.63	15712.02
909.80	15607.57
909.97	15515.41
910.14	15269.66
910.31	15519.51
910.48	15435.54
910.65	15165.21
910.82	15337.24
910.99	15288.09
911.16	15400.72
911.33	15316.76
911.50	15449.88
911.66	15136.54
911.83	15265.56
912.00	15091.48
912.17	15073.05
912.34	15124.25
912.51	15159.06
912.68	15054.62
912.85	15175.45
913.02	15132.44
913.19	14892.83
913.36	15073.05
913.53	15228.70
913.70	14862.11
913.86	15343.38
914.03	14778.14
914.20	14823.20
914.37	14976.80
914.54	14780.19
914.71	14982.94
914.88	14968.60
915.05	14802.72
915.22	14880.54
915.39	14790.43
915.55	14835.49
915.72	14448.42
915.89	14663.46
916.06	14513.95
916.23	14440.23
916.40	14352.16
916.57	14280.49
916.74	14520.10
916.91	14126.89
917.07	14249.77
917.24	14116.65
917.41	14245.67
917.58	14323.49
917.75	14151.46
917.92	13977.39
918.09	14112.55
918.26	14272.29
918.42	14006.06
918.59	14001.96
918.76	13903.66
918.93	13631.28
919.10	13657.90
919.27	13760.30
919.44	13948.72
919.60	13788.97
919.77	14059.31
919.94	13756.21
920.11	13668.14
920.28	13690.67
920.45	13432.63
920.61	13475.63
920.78	13438.77
920.95	13260.60
921.12	13346.61
921.29	13399.86
921.46	13487.92
921.62	13088.57
921.79	13164.34
921.96	12869.44
922.13	12990.27
922.30	13111.10
922.47	12914.49
922.63	12654.40
922.80	12797.76
922.97	12900.16
923.14	12552.00
923.31	12857.15
923.47	12629.82
923.64	12808.00
923.81	12504.90
923.98	12660.54
924.15	12334.92
924.32	12382.02
924.48	12425.03
924.65	12603.20
924.82	12212.04
924.99	12074.82
925.15	12195.65
925.32	12298.05
925.49	12060.49
925.66	12093.26
925.83	11833.16
925.99	11980.62
926.16	12095.30
926.33	12027.72
926.50	11503.44
926.67	11810.64
926.83	11994.95
927.00	11704.14
927.17	11587.41
927.34	11429.71
927.50	11585.36
927.67	11765.58
927.84	11394.90
928.01	11661.13
928.17	11407.19
928.34	11294.55
928.51	11190.10
928.68	11186.01
928.84	11155.29
929.01	10897.24
929.18	11138.90
929.35	11108.18
929.51	11011.93
929.68	10698.59
929.85	10737.50
930.02	10907.48
930.18	10792.80
930.35	10729.31
930.52	10682.20
930.69	10739.55
930.85	10606.43
931.02	10438.50
931.19	10407.78
931.36	10600.29
931.52	10332.00
931.69	10358.63
931.86	10344.29
932.02	10555.23
932.19	10260.32
932.36	10270.56
932.53	10180.45
932.69	9865.07
932.86	10231.65
933.03	10035.05
933.19	9719.66
933.36	10063.72
933.53	10026.86
933.70	9858.92
933.86	9738.09
934.03	9828.20
934.20	9748.33
934.36	9875.31
934.53	9213.81
934.70	9199.48
934.86	9344.88
935.03	9514.86
935.20	9203.57
935.36	9240.44
935.53	8955.77
935.70	9080.69
935.86	9037.69
936.03	9041.78
936.20	8628.09
936.36	8554.37
936.53	8798.07
936.70	8527.74
936.86	8879.99
937.03	8589.18
937.20	8439.68
937.36	8310.66
937.53	8073.09
937.70	8171.40
937.86	8038.28
938.03	7884.68
938.20	8036.23
938.36	7790.47
938.53	7862.15
938.70	7374.74
938.86	7655.31
939.03	7387.02
939.20	7374.74
939.36	7319.44
939.53	7151.51
939.70	7325.58
939.86	7147.41
940.03	7112.60
940.19	6786.97
940.36	6967.19
940.53	6973.33
940.69	6614.94
940.86	6631.32
941.03	6535.07
941.19	6524.83
941.36	6352.80
941.52	6434.72
941.69	6363.04
941.86	6229.92
942.02	6360.99
942.19	6186.91
942.35	6086.56
942.52	6133.67
942.69	5975.97
942.85	6129.57
943.02	5973.92
943.18	6078.37
943.35	5892.01
943.52	5867.43
943.68	5699.50
943.85	5748.65
944.01	5750.70
944.18	5472.17
944.35	5615.53
944.51	5625.77
944.68	5502.89
944.84	5490.60
945.01	5709.74
945.17	5470.12
945.34	5523.37
945.51	5560.24
945.67	5429.17
945.84	5480.36
946.00	5310.38
946.17	5322.67
946.33	5322.67
946.50	5525.42
946.67	5384.11
946.83	5250.99
947.00	5459.88
947.16	5339.05
947.33	5349.29
947.49	5259.18
947.66	5359.53
947.82	5294.00
947.99	5429.17
948.16	5425.07
948.32	5371.82
948.49	5396.40
948.65	5410.73
948.82	5214.13
948.98	5228.46
949.15	5226.42
949.31	5414.83
949.48	5353.39
949.64	5363.63
949.81	5455.79
949.97	5285.81
950.14	5396.40
950.30	5205.94
950.47	5433.26
950.63	5248.94
950.80	5390.25
950.96	5326.77
951.13	5232.56
951.30	5455.79
951.46	5361.58
951.63	5574.57
951.79	5396.40
951.96	5431.21
952.12	5328.81
952.29	5414.83
952.45	5298.10
952.62	5353.39
952.78	5248.94
952.94	5377.97
953.11	5427.12
953.27	5431.21
953.44	5380.01
953.60	5509.04
953.77	5449.64
953.93	5363.63
954.10	5451.69
954.26	5420.97
954.43	5478.32
954.59	5476.27
954.76	5515.18
954.92	5554.09
955.09	5439.40
955.25	5504.94
955.42	5476.27
955.58	5539.76
955.75	5492.65
955.91	5445.55
956.07	5394.35
956.24	5429.17
956.40	5435.31
956.57	5519.28
956.73	5402.54
956.90	5574.57
957.06	5435.31
957.23	5396.40
957.39	5490.60
957.56	5533.61
957.72	5302.19
957.88	5402.54
958.05	5521.32
958.21	5562.28
958.38	5584.81
958.54	5492.65
958.71	5670.83
958.87	5341.10
959.03	5414.83
959.20	5412.78
959.36	5427.12
959.53	5494.70
959.69	5326.77
959.85	5535.66
960.02	5447.60
960.18	5300.14
960.35	5531.56
960.51	5451.69
960.68	5271.47
960.84	5445.55
961.00	5359.53
961.17	5529.52
961.33	5435.31
961.50	5509.04
961.66	5304.24
961.82	5380.01
961.99	5404.59
962.15	5433.26
962.31	5377.97
962.48	5496.75
962.64	5545.90
962.81	5324.72
962.97	5410.73
963.13	5373.87
963.30	5468.08
963.46	5296.05
963.62	5433.26
963.79	5367.73
963.95	5322.67
964.12	5328.81
964.28	5420.97
964.44	5253.04
964.61	5332.91
964.77	5320.62
964.93	5488.56
965.10	5193.65
965.26	5437.36
965.42	5253.04
965.59	5189.55
965.75	5271.47
965.92	5279.66
966.08	5113.78
966.24	5255.09
966.41	5152.69
966.57	5261.23
966.73	5185.46
966.90	5267.38
967.06	5291.95
967.22	5167.03
967.39	5078.96
967.55	5128.11
967.71	5156.79
967.88	5126.07
968.04	5040.05
968.20	5083.06
968.37	5144.50
968.53	5033.91
968.69	5183.41
968.85	5226.42
969.02	5228.46
969.18	5121.97
969.34	5009.33
969.51	5146.55
969.67	5203.89
969.83	4992.95
970.00	5109.68
970.16	5132.21
970.32	4982.71
970.48	5164.98
970.65	4923.32
970.81	4947.89
970.97	4992.95
971.14	4925.36
971.30	5148.59
971.46	5025.72
971.63	5001.14
971.79	4925.36
971.95	5003.19
972.11	4919.22
972.28	4857.78
972.44	4935.60
972.60	4806.58
972.76	4939.70
972.93	4870.07
973.09	4859.83
973.25	4941.75
973.42	5017.52
973.58	4870.07
973.74	4923.32
973.90	4908.98
974.07	4728.76
974.23	4802.49
974.39	4923.32
974.55	4724.66
974.72	4681.66
974.88	4741.05
975.04	4779.96
975.20	4683.70
975.37	4736.95
975.53	4749.24
975.69	4689.85
975.85	4814.77
976.01	4704.18
976.18	4636.60
976.34	4622.27
976.50	4640.70
976.66	4755.38
976.83	4526.01
976.99	4757.43
977.15	4507.58
977.31	4544.44
977.47	4634.55
977.64	4569.02
977.80	4579.26
977.96	4652.98
978.12	4638.65
978.29	4523.96
978.45	4454.33
978.61	4493.24
978.77	4593.59
978.93	4480.96
979.10	4474.81
979.26	4528.06
979.42	4349.89
979.58	4364.22
979.74	4392.89
979.91	4452.28
980.07	4394.94
980.23	4386.75
980.39	4327.36
980.55	4452.28
980.71	4382.65
980.88	4380.61
981.04	4378.56
981.20	4372.41
981.36	4329.41
981.52	4390.84
981.68	4382.65
981.85	4386.75
982.01	4483.00
982.17	4286.40
982.33	4245.44
982.49	4425.66
982.65	4175.81
982.82	4206.53
982.98	4360.13
983.14	4196.29
983.30	4300.73
983.46	4405.18
983.62	4378.56
983.79	4245.44
983.95	4126.66
984.11	4110.27
984.27	4040.64
984.43	4140.99
984.59	4102.08
984.75	4231.10
984.91	4208.58
985.08	4272.06
985.24	3964.87
985.40	4028.35
985.56	4106.18
985.72	4143.04
985.88	4171.71
986.04	4077.51
986.20	4110.27
986.37	3991.49
986.53	3968.96
986.69	3868.61
986.85	3844.04
987.01	4089.79
987.17	3958.72
987.33	3968.96
987.49	4009.92
987.65	4075.46
987.82	3950.53
987.98	3817.41
988.14	3999.68
988.30	4009.92
988.46	3770.31
988.62	3885.00
988.78	3885.00
988.94	3850.18
989.10	3794.89
989.26	3796.93
989.42	3868.61
989.59	3743.69
989.75	3749.83
989.91	3915.72
990.07	3739.59
990.23	3708.87
990.39	3811.27
990.55	3850.18
990.71	3708.87
990.87	3706.82
991.03	3776.45
991.19	3688.39
991.35	3614.66
991.51	3723.21
991.67	3764.17
991.83	3739.59
992.00	3766.21
992.16	3753.93
992.32	3686.34
992.48	3620.81
992.64	3626.95
992.80	3721.16
992.96	3553.23
993.12	3606.47
993.28	3651.53
993.44	3598.28
993.60	3661.77
993.76	3538.89
993.92	3678.15
994.08	3592.14
994.24	3583.95
994.40	3524.55
994.56	3616.71
994.72	3631.05
994.88	3497.93
995.04	3590.09
995.20	3420.11
995.36	3393.48
995.52	3473.36
995.68	3362.76
995.84	3471.31
996.00	3524.55
996.16	3313.61
996.32	3450.83
996.48	3330.00
996.64	3542.99
996.80	3436.49
996.96	3432.40
997.12	3446.73
997.28	3289.04
997.44	3370.96
997.60	3565.51
997.76	3330.00
997.92	3360.72
998.08	3348.43
998.24	3217.36
998.40	3297.23
998.56	3411.92
998.72	3243.98
998.88	3338.19
999.04	3319.76
999.20	3336.14
999.36	3198.93
999.52	3256.27
999.68	3223.50
999.84	3280.85
1000.00	3278.80
1000.16	3381.20
1000.32	3217.36
1000.48	3377.10
1000.64	3286.99
1000.80	3182.54
1000.95	3106.77
1001.11	3262.41
1001.27	3139.54
1001.43	3207.12
1001.59	3188.69
1001.75	3178.45
1001.91	3200.98
1002.07	3131.34
1002.23	3147.73
1002.39	3100.62
1002.55	3168.21
1002.71	3078.10
1002.87	3157.97
1003.03	3100.62
1003.19	3102.67
1003.34	3135.44
1003.50	3166.16
1003.66	3131.34
1003.82	3094.48
1003.98	3008.47
1004.14	3016.66
1004.30	2967.51
1004.46	2942.93
1004.62	2969.55
1004.78	2967.51
1004.94	3012.56
1005.09	3008.47
1005.25	2920.40
1005.41	2863.06
1005.57	2932.69
1005.73	2963.41
1005.89	2926.55
1006.05	2944.98
1006.21	2865.11
1006.37	2813.91
1006.52	2936.79
1006.68	2924.50
1006.84	3016.66
1007.00	2818.00
1007.16	2967.51
1007.32	2863.06
1007.48	2818.00
1007.64	2957.27
1007.79	2813.91
1007.95	2830.29
1008.11	2969.55
1008.27	2777.05
1008.43	2826.20
1008.59	2777.05
1008.75	2854.87
1008.91	2901.97
1009.06	2815.96
1009.22	2815.96
1009.38	2820.05
1009.54	2805.72
1009.70	2748.37
1009.86	2734.04
1010.01	2861.01
1010.17	2688.98
1010.33	2699.22
1010.49	2764.76
1010.65	2758.61
1010.81	2643.93
1010.96	2688.98
1011.12	2777.05
1011.28	2611.16
1011.44	2791.38
1011.60	2738.13
1011.76	2711.51
1011.91	2742.23
1012.07	2576.34
1012.23	2525.15
1012.39	2611.16
1012.55	2719.70
1012.71	2648.02
1012.86	2713.56
1013.02	2672.60
1013.18	2525.15
1013.34	2574.30
1013.50	2609.11
1013.65	2662.36
1013.81	2650.07
1013.97	2568.15
1014.13	2539.48
1014.29	2553.82
1014.44	2682.84
1014.60	2519.00
1014.76	2516.95
1014.92	2600.92
1015.07	2516.95
1015.23	2625.50
1015.39	2519.00
1015.55	2580.44
1015.71	2426.84
1015.86	2447.32
1016.02	2371.55
1016.18	2408.41
1016.34	2521.05
1016.49	2486.23
1016.65	2559.96
1016.81	2389.98
1016.97	2467.80
1017.12	2516.95
1017.28	2385.88
1017.44	2402.27
1017.60	2394.08
1017.75	2428.89
1017.91	2455.51
1018.07	2394.08
1018.23	2510.81
1018.38	2389.98
1018.54	2451.42
1018.70	2396.12
1018.86	2394.08
1019.01	2365.40
1019.17	2377.69
1019.33	2508.76
1019.49	2400.22
1019.64	2400.22
1019.80	2387.93
1019.96	2430.94
1020.12	2408.41
1020.27	2273.25
1020.43	2293.72
1020.59	2420.70
1020.74	2428.89
1020.90	2342.88
1021.06	2308.06
1021.22	2279.39
1021.37	2455.51
1021.53	2353.12
1021.69	2291.68
1021.84	2299.87
1022.00	2252.77
1022.16	2215.90
1022.31	2220.00
1022.47	2400.22
1022.63	2275.29
1022.79	2193.37
1022.94	2242.53
1023.10	2301.92
1023.26	2287.58
1023.41	2326.49
1023.57	2263.01
1023.73	2246.62
1023.88	2273.25
1024.04	2220.00
1024.20	2166.75
1024.35	2240.48
1024.51	2222.05
1024.67	2156.51
1024.82	2281.44
1024.98	2162.66
1025.14	2238.43
1025.29	2230.24
1025.45	2263.01
1025.61	2072.54
1025.76	2275.29
1025.92	2252.77
1026.08	2238.43
1026.23	2201.57
1026.39	2244.57
1026.55	2211.81
1026.70	2060.26
1026.86	2176.99
1027.02	2199.52
1027.17	2142.18
1027.33	2207.71
1027.48	2142.18
1027.64	2203.61
1027.80	2131.94
1027.95	2125.79
1028.11	2002.91
1028.27	2150.37
1028.42	2172.89
1028.58	2084.83
1028.73	2095.07
1028.89	2142.18
1029.05	2123.74
1029.20	2136.03
>>>>>End Processed Spectral Data<<<<<
