SpectraSuite Data File
++++++++++++++++++++++++++++++++++++
Date: Fri Jun 02 14:52:25 CEST 2017
User: INFO_000
Dark Spectrum Present: No
Reference Spectrum Present: No
Number of Sampled Component Spectra: 1
Spectrometers: USB4H00879
Integration Time (usec): 80000 (USB4H00879)
Spectra Averaged: 1 (USB4H00879)
Boxcar Smoothing: 0 (USB4H00879)
Correct for Electrical Dark: No (USB4H00879)
Strobe/Lamp Enabled: No (USB4H00879)
Correct for Detector Non-linearity: No (USB4H00879)
Correct for Stray Light: No (USB4H00879)
Number of Pixels in Processed Spectrum: 3648
>>>>>Begin Processed Spectral Data<<<<<
345.13	1255.40
345.34	1255.40
345.56	1255.40
345.78	1292.27
345.99	1257.45
346.21	1716.20
346.42	1667.05
346.64	1693.67
346.86	1796.07
347.07	1703.91
347.29	1646.57
347.50	1650.66
347.72	1648.61
347.94	1697.77
348.15	1578.98
348.37	1605.61
348.59	1712.10
348.80	1734.63
349.02	1812.45
349.23	1859.56
349.45	1824.74
349.67	1867.75
349.88	1755.11
350.10	1990.63
350.31	1812.45
350.53	1904.61
350.75	1966.05
350.96	1832.93
351.18	1820.64
351.39	1847.27
351.61	1763.30
351.82	1894.37
352.04	1857.51
352.26	1834.98
352.47	1906.66
352.69	1908.71
352.90	1812.45
353.12	1916.90
353.34	1920.99
353.55	1964.00
353.77	1982.43
353.98	1861.60
354.20	1845.22
354.41	1855.46
354.63	1902.56
354.85	2027.49
355.06	1873.89
355.28	1880.04
355.49	1814.50
355.71	1912.80
355.92	1873.89
356.14	1927.14
356.35	1761.25
356.57	1861.60
356.79	1904.61
357.00	1959.91
357.22	2002.91
357.43	1830.88
357.65	2041.82
357.86	1949.67
358.08	1941.47
358.29	1937.38
358.51	1970.15
358.72	1961.95
358.94	1849.32
359.16	1929.19
359.37	1906.66
359.59	1904.61
359.80	2064.35
360.02	1974.24
360.23	2031.58
360.45	1996.77
360.66	1945.57
360.88	1902.56
361.09	1978.34
361.31	1988.58
361.52	1984.48
361.74	1966.05
361.95	2107.36
362.17	1988.58
362.38	2123.74
362.60	2025.44
362.81	1933.28
363.03	1972.19
363.24	1998.82
363.46	2019.30
363.67	2088.93
363.89	2072.54
364.10	2021.35
364.32	2033.63
364.53	2033.63
364.75	1925.09
364.96	2045.92
365.18	2027.49
365.39	1943.52
365.61	2013.15
365.82	2111.46
366.04	2035.68
366.25	1984.48
366.47	2064.35
366.68	2068.45
366.90	1945.57
367.11	2103.26
367.33	2090.98
367.54	2115.55
367.76	2047.97
367.97	2115.55
368.19	2052.06
368.40	2164.70
368.62	1961.95
368.83	2007.01
369.05	2037.73
369.26	1949.67
369.48	1964.00
369.69	1968.10
369.91	2074.59
370.12	2050.02
370.33	2058.21
370.55	2009.06
370.76	2090.98
370.98	2140.13
371.19	2088.93
371.41	2037.73
371.62	2148.32
371.84	2084.83
372.05	2205.66
372.27	2062.30
372.48	2082.78
372.69	2166.75
372.91	2185.18
373.12	2142.18
373.34	2027.49
373.55	2179.04
373.77	2103.26
373.98	2045.92
374.20	2179.04
374.41	2236.38
374.62	2093.02
374.84	2183.13
375.05	2187.23
375.27	2117.60
375.48	2203.61
375.70	2207.71
375.91	2189.28
376.12	2277.34
376.34	2103.26
376.55	2158.56
376.77	2273.25
376.98	2109.41
377.19	2080.74
377.41	2195.42
377.62	2199.52
377.84	2222.05
378.05	2396.12
378.27	2273.25
378.48	2306.01
378.69	2318.30
378.91	2330.59
379.12	2252.77
379.34	2179.04
379.55	2404.32
379.76	2312.16
379.98	2258.91
380.19	2236.38
380.41	2211.81
380.62	2310.11
380.83	2330.59
381.05	2281.44
381.26	2459.61
381.47	2271.20
381.69	2299.87
381.90	2453.47
382.12	2332.64
382.33	2328.54
382.54	2359.26
382.76	2265.05
382.97	2355.16
383.19	2248.67
383.40	2383.84
383.61	2363.36
383.83	2369.50
384.04	2371.55
384.25	2328.54
384.47	2392.03
384.68	2375.64
384.89	2246.62
385.11	2322.40
385.32	2326.49
385.54	2377.69
385.75	2320.35
385.96	2379.74
386.18	2445.27
386.39	2465.75
386.60	2398.17
386.82	2437.08
387.03	2465.75
387.24	2492.38
387.46	2482.14
387.67	2559.96
387.88	2543.58
388.10	2523.10
388.31	2539.48
388.52	2535.39
388.74	2684.89
388.95	2580.44
389.16	2543.58
389.38	2574.30
389.59	2625.50
389.80	2666.46
390.02	2596.82
390.23	2643.93
390.44	2596.82
390.66	2492.38
390.87	2564.06
391.08	2686.94
391.30	2811.86
391.51	2680.79
391.72	2758.61
391.94	2668.50
392.15	2684.89
392.36	2592.73
392.58	2639.83
392.79	2658.26
393.00	2738.13
393.22	2846.68
393.43	2936.79
393.64	2752.47
393.85	2787.29
394.07	2734.04
394.28	2787.29
394.49	2805.72
394.71	2797.53
394.92	2889.68
395.13	2756.57
395.35	2754.52
395.56	2764.76
395.77	2811.86
395.98	2781.14
396.20	2920.40
396.41	2830.29
396.62	2904.02
396.84	2797.53
397.05	2854.87
397.26	2867.16
397.47	2973.65
397.69	2873.30
397.90	3071.95
398.11	2895.83
398.32	2893.78
398.54	2822.10
398.75	2861.01
398.96	2973.65
399.18	3166.16
399.39	3039.19
399.60	3074.00
399.81	3026.90
400.03	3010.51
400.24	3315.66
400.45	3022.80
400.66	3166.16
400.88	2975.70
401.09	3276.75
401.30	2996.18
401.51	3198.93
401.73	3157.97
401.94	3211.22
402.15	3225.55
402.36	3086.29
402.58	3196.88
402.79	3137.49
403.00	3192.78
403.21	3250.13
403.43	3108.82
403.64	3237.84
403.85	3225.55
404.06	3278.80
404.27	3061.71
404.49	3082.19
404.70	3233.74
404.91	3291.09
405.12	3358.67
405.34	3358.67
405.55	3373.00
405.76	3100.62
405.97	3223.50
406.19	3411.92
406.40	3180.50
406.61	3276.75
406.82	3338.19
407.03	3262.41
407.25	3280.85
407.46	3395.53
407.67	3454.92
407.88	3450.83
408.09	3360.72
408.31	3452.88
408.52	3446.73
408.73	3364.81
408.94	3368.91
409.15	3454.92
409.37	3489.74
409.58	3516.36
409.79	3465.16
410.00	3590.09
410.21	3432.40
410.43	3502.03
410.64	3465.16
410.85	3516.36
411.06	3620.81
411.27	3565.51
411.48	3606.47
411.70	3506.12
411.91	3561.42
412.12	3639.24
412.33	3581.90
412.54	3661.77
412.76	3811.27
412.97	3620.81
413.18	3569.61
413.39	3723.21
413.60	3684.30
413.81	3751.88
414.03	3717.06
414.24	3669.96
414.45	3774.41
414.66	3678.15
414.87	3792.84
415.08	3780.55
415.30	3663.82
415.51	3762.12
415.72	3794.89
415.93	3706.82
416.14	3780.55
416.35	3747.78
416.56	3899.33
416.78	3925.96
416.99	3874.76
417.20	3846.09
417.41	3887.04
417.62	3983.30
417.83	4054.98
418.04	4040.64
418.26	4042.69
418.47	3997.64
418.68	3950.53
418.89	3971.01
419.10	4145.09
419.31	4073.41
419.52	4181.95
419.73	4165.57
419.95	4173.76
420.16	3936.20
420.37	4085.70
420.58	4118.47
420.79	4073.41
421.00	4130.75
421.21	4177.86
421.42	4136.90
421.63	4222.91
421.85	4155.33
422.06	4370.37
422.27	4202.43
422.48	4300.73
422.69	4310.97
422.90	4263.87
423.11	4231.10
423.32	4306.88
423.53	4538.30
423.75	4444.09
423.96	4552.63
424.17	4394.94
424.38	4646.84
424.59	4523.96
424.80	4665.27
425.01	4521.92
425.22	4562.87
425.43	4464.57
425.64	4679.61
425.85	4702.14
426.06	4698.04
426.28	4700.09
426.49	4550.59
426.70	4640.70
426.91	4675.51
427.12	4677.56
427.33	4818.87
427.54	4720.57
427.75	4808.63
427.96	4978.61
428.17	4861.88
428.38	4827.06
428.59	5058.48
428.80	4908.98
429.01	5001.14
429.23	4960.18
429.44	5207.98
429.65	5117.87
429.86	5085.11
430.07	5054.39
430.28	4964.28
430.49	5154.74
430.70	5115.83
430.91	5267.38
431.12	5152.69
431.33	5273.52
431.54	5222.32
431.75	5164.98
431.96	5238.70
432.17	5261.23
432.38	5273.52
432.59	5480.36
432.80	5425.07
433.01	5412.78
433.22	5562.28
433.43	5216.18
433.64	5541.80
433.85	5334.96
434.06	5566.38
434.27	5320.62
434.49	5449.64
434.70	5568.43
434.91	5525.42
435.12	5560.24
435.33	5574.57
435.54	5621.67
435.75	5431.21
435.96	5423.02
436.17	5666.73
436.38	5595.05
436.59	5707.69
436.80	5640.11
437.01	5912.49
437.22	5861.29
437.43	5822.38
437.64	5523.37
437.85	5908.39
438.06	6000.55
438.27	5738.41
438.48	5777.32
438.69	5842.85
438.90	5924.77
439.11	5842.85
439.32	6115.23
439.53	5961.64
439.74	5988.26
439.95	5922.73
440.16	6031.27
440.37	6195.11
440.57	5918.63
440.78	6098.85
440.99	5924.77
441.20	6053.80
441.41	6104.99
441.62	6121.38
441.83	6047.65
442.04	6068.13
442.25	6082.47
442.46	6156.19
442.67	6203.30
442.88	6592.41
443.09	6148.00
443.30	6242.21
443.51	6180.77
443.72	6469.53
443.93	6268.83
444.14	6643.61
444.35	6111.14
444.56	6559.64
444.77	6279.07
444.98	6479.77
445.19	6506.40
445.40	6418.33
445.61	6393.76
445.81	6596.51
446.02	6530.97
446.23	6537.12
446.44	6389.66
446.65	6438.81
446.86	6549.40
447.07	6621.08
447.28	6750.10
447.49	6733.72
447.70	6549.40
447.91	6580.12
448.12	6653.85
448.33	6850.46
448.54	6858.65
448.74	6723.48
448.95	6764.44
449.16	6827.93
449.37	7085.97
449.58	6780.82
449.79	7098.26
450.00	6813.59
450.21	7006.10
450.42	7040.92
450.63	6926.23
450.84	7002.01
451.05	7133.08
451.25	7018.39
451.46	6977.43
451.67	7206.80
451.88	7229.33
452.09	7268.24
452.30	7061.40
452.51	7208.85
452.72	7208.85
452.93	7640.97
453.13	7235.47
453.34	7206.80
453.55	7374.74
453.76	7319.44
453.97	7686.03
454.18	7337.87
454.39	7733.13
454.60	7538.57
454.81	7468.94
455.01	7712.65
455.22	7333.78
455.43	7557.00
455.64	7989.13
455.85	7903.11
456.06	8066.95
456.27	7817.10
456.48	7595.92
456.68	8083.33
456.89	8056.71
457.10	8007.56
457.31	7970.69
457.52	7982.98
457.73	8195.97
457.94	8238.98
458.14	8107.91
458.35	8327.04
458.56	8107.91
458.77	8208.26
458.98	8271.75
459.19	8351.62
459.39	8417.15
459.60	8603.52
459.81	8546.17
460.02	8468.35
460.23	8548.22
460.44	8959.86
460.65	8787.83
460.85	8662.91
461.06	8939.38
461.27	8540.03
461.48	9090.93
461.69	8984.44
461.89	8583.04
462.10	9037.69
462.31	8720.25
462.52	8980.34
462.73	9039.73
462.94	9338.74
463.14	9166.71
463.35	9355.12
463.56	9623.41
463.77	9490.29
463.98	9344.88
464.18	9490.29
464.39	9756.52
464.60	9817.96
464.81	9715.56
465.02	9529.20
465.23	9920.36
465.43	9699.18
465.64	10184.55
465.85	9783.15
466.06	9875.31
466.27	10319.71
466.47	10348.39
466.68	10211.17
466.89	10383.20
467.10	10420.06
467.30	10207.08
467.51	10307.43
467.72	10536.80
467.93	10305.38
468.14	10671.97
468.34	10768.22
468.55	10739.55
468.76	10807.13
468.97	10637.15
469.17	10950.49
469.38	11075.42
469.59	11339.60
469.80	11128.66
470.01	11059.03
470.21	11042.65
470.42	11329.36
470.63	11542.35
470.84	11161.43
471.04	11472.72
471.25	11558.74
471.46	11564.88
471.67	11829.07
471.87	11763.53
472.08	11898.70
472.29	12207.94
472.50	11687.76
472.70	11812.68
472.91	12117.83
473.12	12326.72
473.33	12420.93
473.53	12332.87
473.74	12425.03
473.95	12832.57
474.16	12603.20
474.36	12687.17
474.57	13096.76
474.78	12937.02
474.99	12984.12
475.19	13012.79
475.40	13449.01
475.61	13274.93
475.81	13344.56
476.02	13559.60
476.23	13627.18
476.44	13766.45
476.64	13893.42
476.85	13901.61
477.06	14049.07
477.27	14360.36
477.47	14176.04
477.68	14323.49
477.89	14358.31
478.09	14348.07
478.30	14427.94
478.51	14282.53
478.71	14698.27
478.92	14763.81
479.13	14845.73
479.34	14995.23
479.54	14937.88
479.75	15042.33
479.96	15009.56
480.16	15304.47
480.37	15413.01
480.58	15607.57
480.78	15734.54
480.99	15568.66
481.20	15742.74
481.41	15961.87
481.61	15949.58
481.82	16068.36
482.03	15922.96
482.23	15902.48
482.44	16355.08
482.65	16346.89
482.85	16688.90
483.06	16664.32
483.27	16692.99
483.47	16555.78
483.68	16897.79
483.89	17166.07
484.09	17006.33
484.30	17245.94
484.51	17438.45
484.71	17385.21
484.92	17266.42
485.13	17503.99
485.33	17583.86
485.54	17551.09
485.75	17807.09
485.95	18151.15
486.16	17962.73
486.37	17856.24
486.57	18044.65
486.78	18251.50
486.98	18210.54
487.19	18489.06
487.40	18517.73
487.60	18478.82
487.81	18738.91
488.02	18564.84
488.22	18800.35
488.43	18843.36
488.64	19056.35
488.84	18882.27
489.05	19517.14
489.25	19101.40
489.46	19709.65
489.67	19422.94
489.87	19488.47
490.08	19635.92
490.29	19429.08
490.49	20027.09
490.70	19982.03
490.90	20123.34
491.11	19988.18
491.32	19947.22
491.52	20203.21
491.73	20242.12
491.94	20387.53
492.14	20526.79
492.35	20479.69
492.55	20936.38
492.76	20893.38
492.97	20778.69
493.17	20860.61
493.38	20987.58
493.58	21135.04
493.79	21067.45
494.00	21032.64
494.20	21378.75
494.41	21585.59
494.61	21659.32
494.82	21409.47
495.02	21434.04
495.23	21741.24
495.44	21642.93
495.64	21810.87
495.85	21700.28
496.05	21903.03
496.26	21634.74
496.47	22290.09
496.67	22271.66
496.88	22265.52
497.08	22193.84
497.29	22501.03
497.49	22392.49
497.70	22464.17
497.91	22439.59
498.11	22679.21
498.32	22775.46
498.52	22621.86
498.73	23031.46
498.93	22757.03
499.14	22996.64
499.34	23062.18
499.55	23490.20
499.76	22998.69
499.96	23133.86
500.17	23060.13
500.37	23660.18
500.58	23455.39
500.78	23641.75
500.99	23748.25
501.19	23836.31
501.40	23586.46
501.60	23662.23
501.81	23840.40
502.02	23858.84
502.22	23922.32
502.43	24053.39
502.63	24344.20
502.84	24462.99
503.04	24383.12
503.25	24413.84
503.45	24170.13
503.66	24598.15
503.86	24450.70
504.07	24745.61
504.27	24424.08
504.48	24905.35
504.68	25044.61
504.89	24983.17
505.09	25069.19
505.30	24823.43
505.50	24854.15
505.71	24974.98
505.91	25134.72
506.12	25022.08
506.32	25308.80
506.53	25237.12
506.73	25355.90
506.94	25650.81
507.14	25480.83
507.35	25480.83
507.55	25609.85
507.76	25882.23
507.96	25806.45
508.17	25740.92
508.37	25708.15
508.58	25939.57
508.78	26068.59
508.99	26078.83
509.19	26046.07
509.40	26105.46
509.60	26453.61
509.81	26353.26
510.01	26089.07
510.22	26064.50
510.42	26445.42
510.63	26465.90
510.83	26297.97
511.04	26443.37
511.24	26814.05
511.44	26691.18
511.65	26506.86
511.85	26836.58
512.06	26748.52
512.26	26736.23
512.47	27375.20
512.67	26799.72
512.88	27272.80
513.08	26855.01
513.29	27006.56
513.49	27113.06
513.69	26994.28
513.90	27321.95
514.10	27463.26
514.31	27309.66
514.51	27747.93
514.72	27444.83
514.92	27594.33
515.13	27516.51
515.33	27948.63
515.53	27819.61
515.74	27866.71
515.94	28223.06
516.15	27858.52
516.35	27928.15
516.56	28278.35
516.76	28118.61
516.96	28593.74
517.17	28376.66
517.37	28495.44
517.58	28274.26
517.78	28755.53
517.99	28448.33
518.19	28956.23
518.39	28720.71
518.60	28993.09
518.80	28776.01
519.01	28841.54
519.21	29113.92
519.41	29136.45
519.62	28929.61
519.82	29337.15
520.03	29185.60
520.23	29611.58
520.43	29097.54
520.64	29922.87
520.84	29677.12
521.05	29646.40
521.25	29703.74
521.45	29955.64
521.66	30021.17
521.86	29611.58
522.07	29867.58
522.27	30264.88
522.47	30099.00
522.68	30344.75
522.88	30336.56
523.08	30332.47
523.29	30750.25
523.49	30635.56
523.70	30590.51
523.90	31254.05
524.10	30891.56
524.31	31215.14
524.51	30940.71
524.71	31497.76
524.92	31358.50
525.12	31491.62
525.33	31430.18
525.53	31616.54
525.73	32077.33
525.94	32085.53
526.14	31645.21
526.34	31831.58
526.55	32216.60
526.75	32163.35
526.95	32335.38
527.16	32300.56
527.36	32386.58
527.56	32208.40
527.77	32755.21
527.97	32636.43
528.17	32906.76
528.38	33068.55
528.58	33076.74
528.78	33166.85
528.99	32892.43
529.19	33234.44
529.39	32787.98
529.60	33531.39
529.80	33467.91
530.00	33449.47
530.21	33947.13
530.41	33842.68
530.61	34115.06
530.82	33705.47
531.02	34096.63
531.22	34233.85
531.43	34207.22
531.63	34422.26
531.83	34792.94
532.04	35010.03
532.24	34383.35
532.44	35034.60
532.64	35032.55
532.85	35362.28
533.05	35218.92
533.25	35196.39
533.46	35227.11
533.66	35552.74
533.86	35337.70
534.07	35872.22
534.27	35857.88
534.47	36046.30
534.67	36208.09
534.88	35995.10
535.08	36306.39
535.28	36072.92
535.49	36560.34
535.69	36394.45
535.89	36466.13
536.09	36722.13
536.30	36842.96
536.50	36513.23
536.70	37305.80
536.91	37094.86
537.11	37021.13
537.31	37389.77
537.51	37279.18
537.72	37998.01
537.92	37856.70
538.12	37762.50
538.32	37848.51
538.53	38067.64
538.73	38108.60
538.93	37834.17
539.13	38061.50
539.34	38170.04
539.54	38079.93
539.74	38299.06
539.94	38354.36
540.15	38208.95
540.35	38598.07
540.55	38663.60
540.75	38725.04
540.96	39022.00
541.16	39097.77
541.36	38972.85
541.56	39300.52
541.77	39548.32
541.97	39333.29
542.17	39292.33
542.37	39527.84
542.58	39243.18
542.78	39277.99
542.98	39562.66
543.18	39533.99
543.38	40193.43
543.59	40068.51
543.79	39859.62
543.99	39744.93
544.19	40041.88
544.40	40060.32
544.60	40361.37
544.80	40310.17
545.00	40803.73
545.20	40764.82
545.41	40351.13
545.61	40238.49
545.81	40844.69
546.01	40406.42
546.21	40328.60
546.42	40795.54
546.62	40871.31
546.82	40736.15
547.02	41008.53
547.22	40998.29
547.43	41020.81
547.63	41377.16
547.83	40838.54
548.03	41207.18
548.23	41287.05
548.44	41151.88
548.64	41342.35
548.84	41606.53
549.04	41899.39
549.24	41682.31
549.45	41663.88
549.65	41246.09
549.85	41649.54
550.05	42141.05
550.25	41686.40
550.45	42014.08
550.66	42153.34
550.86	41815.43
551.06	42562.93
551.26	42149.24
551.46	42313.08
551.66	42145.15
551.87	42446.20
552.07	42098.05
552.27	42536.31
552.47	42605.94
552.67	42548.60
552.87	42558.84
553.07	42616.18
553.28	42532.22
553.48	42743.16
553.68	42798.45
553.88	42876.27
554.08	42718.58
554.28	42597.75
554.48	42493.30
554.69	43029.87
554.89	42624.37
555.09	42751.35
555.29	42470.78
555.49	42790.26
555.69	42958.19
555.89	42911.09
556.10	43267.44
556.30	42646.90
556.50	42845.55
556.70	42863.99
556.90	42974.58
557.10	43296.11
557.30	42900.85
557.50	43134.32
557.70	43488.62
557.91	43369.83
558.11	43591.01
558.31	43613.54
558.51	43328.87
558.71	43285.87
558.91	43582.82
559.11	43513.19
559.31	43507.05
559.51	43439.47
559.72	43654.50
559.92	43808.10
560.12	43902.31
560.32	43693.41
560.52	43664.74
560.72	43918.69
560.92	43810.15
561.12	43648.36
561.32	43812.20
561.52	43705.70
561.72	43873.63
561.93	43959.65
562.13	44035.42
562.33	43971.94
562.53	44651.86
562.73	43869.54
562.93	43533.67
563.13	43883.87
563.33	43740.52
563.53	43906.40
563.73	43601.25
563.93	44021.09
564.13	44270.94
564.33	43672.93
564.53	43840.87
564.74	44270.94
564.94	44436.83
565.14	44473.69
565.34	43955.55
565.54	44381.53
565.74	44451.16
565.94	44533.08
566.14	44227.93
566.34	44528.98
566.54	45018.45
566.74	44184.93
566.94	44717.40
567.14	44631.38
567.34	44440.92
567.54	44561.75
567.74	44406.11
567.94	44555.61
568.14	44473.69
568.34	44780.88
568.54	44717.40
568.74	44776.79
568.94	44729.69
569.14	45067.60
569.34	44895.57
569.54	45010.26
569.75	44750.17
569.95	44834.13
570.15	45059.41
570.35	45020.50
570.55	44647.77
570.75	45290.83
570.95	45094.22
571.15	45151.57
571.35	45065.55
571.55	45327.69
571.75	45133.14
571.95	45204.81
572.15	44520.79
572.35	45395.28
572.55	45348.17
572.75	45425.99
572.95	45317.45
573.15	45673.80
573.35	45675.85
573.55	45411.66
573.75	45210.96
573.95	45434.19
574.15	45466.95
574.35	45643.08
574.55	45759.81
574.75	45505.87
574.95	45675.85
575.15	45606.22
575.34	45731.14
575.54	45528.39
575.74	46116.16
575.94	45974.85
576.14	46038.34
576.34	46175.55
576.54	46413.12
576.74	46568.76
576.94	45835.59
577.14	45946.18
577.34	46542.14
577.54	46138.69
577.74	46599.48
577.94	46392.64
578.14	46179.65
578.34	46687.54
578.54	46026.05
578.74	45866.31
578.94	46728.50
579.14	46386.49
579.34	46155.07
579.54	46589.24
579.74	46593.34
579.94	46902.58
580.13	46863.67
580.33	46810.42
580.53	46640.44
580.73	46703.93
580.93	46888.24
581.13	47095.09
581.33	46994.74
581.53	46746.93
581.73	47152.43
581.93	47459.63
582.13	47340.85
582.33	47551.79
582.53	47617.32
582.73	47322.41
582.92	47527.21
583.12	47981.86
583.32	47316.27
583.52	47246.64
583.72	47942.95
583.92	47699.24
584.12	47650.09
584.32	48473.37
584.52	47709.48
584.72	47740.20
584.92	47873.32
585.11	48862.49
585.31	48149.79
585.51	48119.07
585.71	48035.11
585.91	49030.42
586.11	47838.50
586.31	48311.58
586.51	47992.10
586.71	48616.73
586.91	48600.35
587.10	48659.74
587.30	48373.02
587.50	48723.22
587.70	48510.24
587.90	48663.83
588.10	48932.12
588.30	48938.26
588.50	49134.87
588.69	48993.56
588.89	48788.76
589.09	49118.48
589.29	49366.29
589.49	49263.89
589.69	48745.75
589.89	49243.41
590.08	49411.34
590.28	49157.39
590.48	49347.86
590.68	49186.07
590.88	49104.15
591.08	49046.80
591.28	49306.90
591.47	49630.47
591.67	49597.71
591.87	49698.06
592.07	50011.40
592.27	49980.68
592.47	49790.22
592.67	50277.63
592.86	50152.71
593.06	49982.73
593.26	50003.20
593.46	50269.44
593.66	49902.85
593.86	50199.81
594.05	50085.12
594.25	50640.12
594.45	50015.49
594.65	50105.60
594.85	50124.04
595.05	50920.70
595.24	50898.17
595.44	50666.75
595.64	50664.70
595.84	51115.25
596.04	50515.20
596.23	50988.28
596.43	50953.46
596.63	50783.48
596.83	51119.35
597.03	51614.96
597.22	51291.38
597.42	51068.15
597.62	51389.68
597.82	51397.87
598.02	51397.87
598.21	51707.12
598.41	51442.93
598.61	51803.37
598.81	52010.21
599.01	51889.38
599.20	51703.02
599.40	51692.78
599.60	52268.26
599.80	51950.82
600.00	52077.80
600.19	52374.75
600.39	51717.35
600.59	52628.70
600.79	52155.62
600.98	52704.48
601.18	52630.75
601.38	52962.52
601.58	53087.45
601.78	52538.59
601.97	52663.52
602.17	53183.70
602.37	52684.00
602.57	53060.82
602.76	53021.91
602.96	53318.87
603.16	53503.18
603.36	53593.29
603.55	53204.18
603.75	53273.81
603.95	53538.00
604.15	53707.98
604.34	53472.46
604.54	53935.30
604.74	53523.66
604.94	53777.61
605.13	53621.97
605.33	54222.02
605.53	53843.15
605.73	53935.30
605.92	54123.72
606.12	54158.53
606.32	54656.19
606.52	54105.29
606.71	54406.34
606.91	54320.32
607.11	54136.01
607.30	54648.00
607.50	53861.58
607.70	54596.80
607.90	54959.29
608.09	54310.08
608.29	54891.71
608.49	54564.03
608.68	54869.18
608.88	55180.47
609.08	54801.60
609.28	54834.36
609.47	54719.68
609.67	55303.35
609.87	55635.12
610.06	55448.75
610.26	55264.44
610.46	55565.49
610.66	55164.09
610.85	55645.36
611.05	55260.34
611.25	55774.38
611.44	54770.88
611.64	55575.73
611.84	55418.03
612.03	55391.41
612.23	55555.25
612.43	55389.36
612.62	55262.39
612.82	55690.41
613.02	55502.00
613.21	55758.00
613.41	55737.52
613.61	56136.87
613.80	55262.39
614.00	55866.54
614.20	55887.02
614.39	56016.04
614.59	56497.31
614.79	56009.90
614.98	55731.37
615.18	55997.61
615.38	56186.02
615.57	56226.98
615.77	56306.85
615.97	55622.83
616.16	56362.15
616.36	55532.72
616.56	56267.94
616.75	56353.96
616.95	55774.38
617.15	56214.69
617.34	56464.55
617.54	55696.56
617.74	56728.73
617.93	56595.62
618.13	55973.03
618.32	56341.67
618.52	56016.04
618.72	56143.02
618.91	56448.16
619.11	56487.07
619.31	56423.59
619.50	56593.57
619.70	56239.27
619.90	56226.98
620.09	56515.75
620.29	56513.70
620.48	56263.85
620.68	56702.11
620.88	55966.89
621.07	56497.31
621.27	56659.10
621.46	56220.84
621.66	56399.01
621.86	56571.04
622.05	56644.77
622.25	57040.03
622.44	56630.43
622.64	56499.36
622.84	56665.25
623.03	56308.90
623.23	56386.72
623.42	56349.86
623.62	56315.04
623.82	56734.88
624.01	56525.99
624.21	56591.52
624.40	56439.97
624.60	56655.01
624.80	56442.02
624.99	56511.65
625.19	55919.79
625.38	56581.28
625.58	56816.80
625.77	56896.67
625.97	56628.38
626.17	56444.07
626.36	56638.62
626.56	56792.22
626.75	56409.25
626.95	56745.12
627.14	56607.90
627.34	57250.97
627.54	56970.39
627.73	56833.18
627.93	56550.56
628.12	56808.61
628.32	56974.49
628.51	56964.25
628.71	56519.84
628.90	57078.94
629.10	56618.14
629.30	56923.29
629.49	56544.42
629.69	56517.79
629.88	56775.84
630.08	56597.66
630.27	56857.76
630.47	56939.68
630.66	57009.31
630.86	56628.38
631.05	56556.70
631.25	56919.20
631.44	56947.87
631.64	56669.34
631.84	56876.19
632.03	56976.54
632.23	56360.10
632.42	56964.25
632.62	56691.87
632.81	56820.89
633.01	56972.44
633.20	56839.32
633.40	56935.58
633.59	56837.28
633.79	56384.68
633.98	56616.10
634.18	57293.97
634.37	57087.13
634.57	56960.15
634.76	57017.50
634.96	57074.84
635.15	57283.73
635.35	56507.55
635.54	56525.99
635.74	57056.41
635.93	56644.77
636.13	57437.33
636.32	57119.90
636.52	56706.21
636.71	56698.01
636.91	57134.23
637.10	57345.17
637.30	57205.91
637.49	57074.84
637.69	56482.98
637.88	56663.20
638.08	56865.95
638.27	57119.90
638.46	56956.06
638.66	56247.46
638.85	56906.91
639.05	56976.54
639.24	56841.37
639.44	56874.14
639.63	56954.01
639.83	57160.86
640.02	56964.25
640.22	56732.83
640.41	57578.64
640.61	56849.56
640.80	57449.62
640.99	57443.48
641.19	57382.04
641.38	57162.90
641.58	57189.53
641.77	56771.74
641.97	56988.83
642.16	56734.88
642.36	57480.34
642.55	57584.79
642.74	56855.71
642.94	57328.79
643.13	56597.66
643.33	57160.86
643.52	57326.74
643.72	57373.84
643.91	57064.60
644.10	57437.33
644.30	57246.87
644.49	56818.84
644.69	57318.55
644.88	56992.92
645.08	57537.68
645.27	56988.83
645.46	57269.40
645.66	57365.65
645.85	56835.23
646.05	57502.87
646.24	57603.22
646.43	56894.62
646.63	57287.83
646.82	57253.01
647.02	57646.22
647.21	57459.86
647.40	57758.86
647.60	57336.98
647.79	57582.74
647.99	57443.48
648.18	57195.67
648.37	57820.30
648.57	57443.48
648.76	57189.53
648.96	57183.38
649.15	57502.87
649.34	57308.31
649.54	57511.06
649.73	57384.08
649.92	57588.88
650.12	57316.50
650.31	57779.34
650.51	57881.74
650.70	57707.66
650.89	56800.41
651.09	57836.69
651.28	57396.37
651.47	57670.80
651.67	57332.89
651.86	58051.72
652.06	57222.29
652.25	57226.39
652.44	57373.84
652.64	57533.59
652.83	57435.28
653.02	57109.66
653.22	57187.48
653.41	57355.41
653.60	57031.83
653.80	57300.12
653.99	57498.77
654.18	57529.49
654.38	57541.78
654.57	57552.02
654.76	57382.04
654.96	57218.20
655.15	56980.63
655.34	56921.24
655.54	56988.83
655.73	57054.36
655.92	57824.40
656.12	57263.25
656.31	57545.87
656.50	57326.74
656.70	57623.70
656.89	57158.81
657.08	57089.18
657.28	57400.47
657.47	57101.46
657.66	57705.62
657.86	57138.33
658.05	57431.19
658.24	57201.82
658.43	57423.00
658.63	57203.86
658.82	57433.24
659.01	57234.58
659.21	57302.17
659.40	57240.73
659.59	57181.34
659.79	57152.66
659.98	57466.00
660.17	57406.61
660.36	57406.61
660.56	57339.03
660.75	57259.16
660.94	57611.41
661.14	57121.94
661.33	57191.58
661.52	56724.64
661.71	57316.50
661.91	56816.80
662.10	56802.46
662.29	57365.65
662.49	57435.28
662.68	57214.10
662.87	56951.96
663.06	57347.22
663.26	57072.79
663.45	57670.80
663.64	56956.06
663.83	57730.19
664.03	56784.03
664.22	57132.18
664.41	57238.68
664.60	56788.13
664.80	57275.54
664.99	56927.39
665.18	56894.62
665.37	57423.00
665.57	57261.21
665.76	57097.37
665.95	57111.70
666.14	56999.07
666.34	56726.69
666.53	56489.12
666.72	56593.57
666.91	56818.84
667.11	56603.81
667.30	56646.82
667.49	56759.45
667.68	56759.45
667.87	56546.47
668.07	56861.85
668.26	56865.95
668.45	56700.06
668.64	56724.64
668.84	57201.82
669.03	56992.92
669.22	56806.56
669.41	56749.21
669.60	56820.89
669.80	56415.40
669.99	56652.96
670.18	56687.78
670.37	56702.11
670.57	57017.50
670.76	56972.44
670.95	56808.61
671.14	56870.04
671.33	56796.32
671.53	56472.74
671.72	56734.88
671.91	56804.51
672.10	56366.24
672.29	56775.84
672.48	56124.58
672.68	56745.12
672.87	56089.77
673.06	56237.22
673.25	56612.00
673.44	56476.83
673.64	56495.27
673.83	56034.47
674.02	56562.85
674.21	55964.84
674.40	56331.43
674.59	55977.13
674.79	55960.75
674.98	56284.33
675.17	56054.95
675.36	56083.62
675.55	56202.41
675.74	55780.52
675.94	55803.05
676.13	55864.49
676.32	56376.48
676.51	56122.54
676.70	56046.76
676.89	56155.30
677.08	56073.38
677.28	55954.60
677.47	56300.71
677.66	56419.49
677.85	56581.28
678.04	56302.76
678.23	56317.09
678.42	56382.63
678.62	56247.46
678.81	56335.52
679.00	55717.04
679.19	56640.67
679.38	56073.38
679.57	56181.93
679.76	55848.11
679.96	56204.45
680.15	56179.88
680.34	55551.15
680.53	55962.79
680.72	56399.01
680.91	56175.78
681.10	55753.90
681.29	56038.57
681.48	55534.77
681.68	55450.80
681.87	55667.89
682.06	56249.51
682.25	55749.81
682.44	55585.97
682.63	55725.23
682.82	55372.98
683.01	55807.15
683.20	54826.17
683.39	55383.22
683.59	55301.30
683.78	55391.41
683.97	55366.84
684.16	55461.04
684.35	55084.22
684.54	55393.46
684.73	55280.82
684.92	55207.09
685.11	55405.75
685.30	55188.66
685.49	55325.88
685.69	55375.03
685.88	55264.44
686.07	55076.02
686.26	55338.16
686.45	55252.15
686.64	55485.62
686.83	55037.11
687.02	55237.81
687.21	55104.70
687.40	55252.15
687.59	54860.99
687.78	55211.19
687.97	55596.21
688.16	55360.69
688.35	54828.22
688.54	55174.33
688.74	54934.71
688.93	54803.64
689.12	55209.14
689.31	55006.39
689.50	55346.36
689.69	54645.95
689.88	54181.06
690.07	54844.60
690.26	55125.17
690.45	55116.98
690.64	55131.32
690.83	54938.81
691.02	54734.01
691.21	54607.04
691.40	54641.85
691.59	54824.12
691.78	54867.13
691.97	55143.61
692.16	54736.06
692.35	54934.71
692.54	54719.68
692.73	54580.42
692.92	54179.01
693.11	54832.32
693.30	54496.45
693.49	54871.23
693.68	54572.22
693.87	54631.61
694.06	54150.34
694.25	54637.76
694.44	54297.80
694.63	54662.33
694.82	54396.10
695.01	54394.05
695.20	54484.16
695.39	54011.08
695.58	54375.62
695.77	54013.13
695.96	54269.12
696.15	54525.12
696.34	54373.57
696.53	53912.78
696.72	54604.99
696.91	54332.61
697.10	54400.19
697.29	54271.17
697.48	54607.04
697.67	53923.02
697.86	53634.25
698.05	53834.95
698.24	54154.44
698.43	53945.54
698.62	54316.23
698.81	53941.45
699.00	54279.36
699.19	53976.26
699.38	53923.02
699.57	53757.13
699.76	54650.05
699.95	53265.62
700.14	53927.11
700.32	53652.69
700.51	53925.07
700.70	54219.97
700.89	53800.14
701.08	54021.32
701.27	53783.76
701.46	54240.45
701.65	53357.78
701.84	54138.05
702.03	54078.66
702.22	53312.72
702.41	53818.57
702.60	53738.70
702.79	54041.80
702.98	53564.62
703.17	53609.68
703.35	53314.77
703.54	53132.50
703.73	53658.83
703.92	53351.63
704.11	53322.96
704.30	53163.22
704.49	53259.48
704.68	53064.92
704.87	53544.14
705.06	53361.87
705.25	53040.34
705.43	53191.89
705.62	53032.15
705.81	52995.29
706.00	53421.26
706.19	52880.60
706.38	52856.03
706.57	52886.74
706.76	53058.77
706.95	53015.77
707.14	53146.84
707.32	52829.40
707.51	52833.50
707.70	53253.33
707.89	53009.62
708.08	52993.24
708.27	53130.45
708.46	53292.24
708.65	53372.11
708.84	53415.12
709.02	53159.12
709.21	53220.56
709.40	52622.56
709.59	52813.02
709.78	52610.27
709.97	52819.16
710.16	52452.58
710.34	52708.57
710.53	52868.31
710.72	52303.07
710.91	52569.31
711.10	53060.82
711.29	53116.12
711.48	52880.60
711.66	52522.21
711.85	52503.77
712.04	52620.51
712.23	52714.72
712.42	52749.53
712.61	52991.19
712.80	52514.01
712.98	52448.48
713.17	52239.59
713.36	52466.91
713.55	52311.27
713.74	52456.67
713.93	52589.79
714.11	52720.86
714.30	52036.84
714.49	52077.80
714.68	52534.49
714.87	52450.53
715.06	52045.03
715.24	52014.31
715.43	52137.19
715.62	51873.00
715.81	52163.81
716.00	51889.38
716.18	51893.48
716.37	52169.96
716.56	51780.84
716.75	52155.62
716.94	51819.75
717.12	51557.61
717.31	52002.02
717.50	51881.19
717.69	51725.55
717.88	52106.47
718.06	52290.79
718.25	52247.78
718.44	51467.50
718.63	51756.27
718.82	51614.96
719.00	51733.74
719.19	51348.72
719.38	51399.92
719.57	50967.80
719.76	51004.66
719.94	50881.78
720.13	51193.07
720.32	51053.81
720.51	51145.97
720.69	51479.79
720.88	51311.86
721.07	51447.02
721.26	50601.21
721.44	51117.30
721.63	51033.33
721.82	50572.54
722.01	50517.25
722.20	51051.76
722.38	50607.36
722.57	50083.08
722.76	50427.13
722.95	50515.20
723.13	50113.80
723.32	50111.75
723.51	50226.43
723.70	50050.31
723.88	50543.87
724.07	50263.30
724.26	50623.74
724.44	49605.90
724.63	50646.27
724.82	50461.95
725.01	50392.32
725.19	50148.61
725.38	50171.14
725.57	50439.42
725.76	50251.01
725.94	50025.73
726.13	49886.47
726.32	50109.70
726.51	49833.22
726.69	50625.79
726.88	50066.69
727.07	49972.49
727.25	49847.56
727.44	50316.54
727.63	49782.02
727.82	49906.95
728.00	50224.39
728.19	49583.37
728.38	50033.92
728.56	49636.62
728.75	49736.97
728.94	49995.01
729.12	50013.44
729.31	49779.98
729.50	49710.35
729.69	50175.23
729.87	50138.37
730.06	49409.29
730.25	50027.78
730.43	49853.70
730.62	49925.38
730.81	49618.19
730.99	50349.31
731.18	49472.78
731.37	49943.81
731.55	49949.96
731.74	49915.14
731.93	49976.58
732.11	49870.09
732.30	49911.05
732.49	49634.57
732.67	49657.10
732.86	49591.56
733.05	49749.26
733.23	49296.66
733.42	49542.41
733.61	49757.45
733.79	50040.07
733.98	50070.79
734.17	49949.96
734.35	49771.78
734.54	50033.92
734.73	49990.92
734.91	49726.73
735.10	49491.21
735.29	50074.88
735.47	49251.60
735.66	49939.72
735.84	50025.73
736.03	49523.98
736.22	49626.38
736.40	49337.62
736.59	49548.56
736.78	49526.03
736.96	49470.73
737.15	49702.15
737.33	49339.66
737.52	49173.78
737.71	49085.72
737.89	49724.68
738.08	48811.29
738.27	49050.90
738.45	49831.18
738.64	49440.01
738.82	49564.94
739.01	49173.78
739.20	49345.81
739.38	49177.87
739.57	49665.29
739.75	49526.03
739.94	48966.93
740.13	49261.84
740.31	49001.75
740.50	49358.09
740.68	49120.53
740.87	49476.88
741.06	49366.29
741.24	49116.43
741.43	48362.78
741.61	48825.62
741.80	49456.40
741.99	48715.03
742.17	48915.73
742.36	48616.73
742.54	48737.56
742.73	48942.36
742.91	48977.17
743.10	48885.01
743.29	48997.65
743.47	48819.48
743.66	48586.01
743.84	48913.69
744.03	48475.42
744.21	48829.72
744.40	49026.32
744.59	48829.72
744.77	48512.28
744.96	48874.77
745.14	48508.19
745.33	49065.24
745.51	48860.44
745.70	48409.89
745.88	48510.24
746.07	48338.21
746.26	48237.86
746.44	48637.21
746.63	48364.83
746.81	48393.50
747.00	47877.41
747.18	48272.67
747.37	47861.03
747.55	48186.66
747.74	48465.18
747.92	47985.96
748.11	48461.08
748.29	48137.51
748.48	47789.35
748.66	47750.44
748.85	48035.11
749.03	48192.80
749.22	47965.48
749.41	47629.61
749.59	47723.82
749.78	47420.72
749.96	47385.90
750.15	47633.71
750.33	47936.80
750.52	47508.78
750.70	47772.97
750.89	47445.29
751.07	47641.90
751.26	47346.99
751.44	47441.20
751.63	47596.84
751.81	47185.20
752.00	47445.29
752.18	47437.10
752.37	47230.26
752.55	46998.83
752.74	47164.72
752.92	46927.16
753.10	46703.93
753.29	47277.36
753.47	47277.36
753.66	46589.24
753.84	46927.16
754.03	46904.63
754.21	46511.42
754.40	47193.39
754.58	46619.96
754.77	46716.22
754.95	46662.97
755.14	46636.34
755.32	46765.37
755.51	46179.65
755.69	46708.02
755.88	46247.23
756.06	46445.88
756.24	46216.51
756.43	46024.00
756.61	46085.44
756.80	46146.88
756.98	45765.96
757.17	46241.09
757.35	46183.74
757.54	46316.86
757.72	46214.46
757.90	46026.05
758.09	45987.14
758.27	46030.15
758.46	45819.20
758.64	45626.70
758.83	46028.10
759.01	46290.24
759.19	46230.85
759.38	46073.15
759.56	46228.80
759.75	45768.01
759.93	45604.17
760.12	45915.46
760.30	45466.95
760.48	45442.38
760.67	45397.32
760.85	45528.39
761.04	45856.07
761.22	45659.46
761.40	45389.13
761.59	45380.94
761.77	44893.52
761.96	45327.69
762.14	44864.85
762.32	44701.01
762.51	44993.87
762.69	44764.50
762.88	44975.44
763.06	45159.76
763.24	45360.46
763.43	45206.86
763.61	44848.47
763.80	44791.12
763.98	44893.52
764.16	45131.09
764.35	44678.49
764.53	44236.12
764.72	44465.50
764.90	44698.97
765.08	44463.45
765.27	44303.71
765.45	44088.67
765.63	44123.49
765.82	44361.05
766.00	43808.10
766.18	44062.05
766.37	44500.31
766.55	44227.93
766.74	43668.84
766.92	43752.80
767.10	44232.03
767.29	44078.43
767.47	43214.19
767.65	43701.61
767.84	43488.62
768.02	43711.84
768.20	43005.30
768.39	43361.64
768.57	43453.80
768.75	43496.81
768.94	43177.33
769.12	43464.04
769.30	43427.18
769.49	43267.44
769.67	42931.57
769.85	43167.09
770.04	43085.17
770.22	42833.27
770.40	42966.38
770.59	42691.96
770.77	42849.65
770.95	42659.19
771.14	42173.82
771.32	42423.67
771.50	42659.19
771.69	42481.02
771.87	43095.41
772.05	42083.71
772.24	42292.60
772.42	42511.74
772.60	42315.13
772.78	41809.28
772.97	41811.33
773.15	42253.69
773.33	42061.18
773.52	42057.09
773.70	42083.71
773.88	42313.08
774.07	42169.72
774.25	42022.27
774.43	42206.59
774.61	41639.30
774.80	41997.70
774.98	41745.80
775.16	41997.70
775.34	41989.50
775.53	41874.82
775.71	42190.20
775.89	42321.27
776.08	41600.39
776.26	42325.37
776.44	42116.48
776.62	42077.57
776.81	41694.60
776.99	42190.20
777.17	42096.00
777.35	42296.70
777.54	42349.95
777.72	41907.58
777.90	42288.51
778.08	42528.12
778.27	42116.48
778.45	42517.88
778.63	42360.19
778.81	42188.16
779.00	42726.77
779.18	42229.12
779.36	42796.40
779.54	42464.63
779.73	41899.39
779.91	42276.22
780.09	42323.32
780.27	42403.19
780.46	42636.66
780.64	42466.68
780.82	42313.08
781.00	42190.20
781.19	42849.65
781.37	42616.18
781.55	42257.79
781.73	42782.07
781.91	42515.83
782.10	42935.66
782.28	42741.11
782.46	42556.79
782.64	42622.33
782.82	42235.26
783.01	42724.72
783.19	42747.25
783.37	42390.91
783.55	42308.99
783.74	43005.30
783.92	42620.28
784.10	43119.98
784.28	42790.26
784.46	42323.32
784.64	42235.26
784.83	42540.41
785.01	43089.26
785.19	42474.87
785.37	43070.83
785.55	42440.06
785.74	41997.70
785.92	42292.60
786.10	42341.75
786.28	42339.71
786.46	42462.58
786.64	41805.19
786.83	42130.81
787.01	42341.75
787.19	42255.74
787.37	41751.94
787.55	41825.67
787.74	42034.56
787.92	42067.33
788.10	41575.81
788.28	41627.01
788.46	41987.46
788.64	41753.99
788.82	41962.88
789.01	41575.81
789.19	42104.19
789.37	41500.04
789.55	41723.27
789.73	41465.22
789.91	41309.58
790.09	41203.08
790.28	41389.45
790.46	41024.91
790.64	41135.50
790.82	41151.88
791.00	41266.57
791.18	40959.38
791.36	40832.40
791.55	40828.30
791.73	40758.67
791.91	40541.59
792.09	40418.71
792.27	40471.96
792.45	40433.05
792.63	40351.13
792.81	40125.85
793.00	39988.64
793.18	39656.87
793.36	39722.40
793.54	39873.95
793.72	39921.05
793.90	39808.42
794.08	39538.08
794.26	39701.92
794.44	39314.86
794.62	39220.65
794.81	39146.92
794.99	39185.83
795.17	39036.33
795.35	39085.48
795.53	39091.63
795.71	38856.11
795.89	38788.53
796.07	38452.66
796.25	38639.03
796.43	38796.72
796.61	38409.65
796.80	37750.21
796.98	38639.03
797.16	37819.84
797.34	38178.23
797.52	37807.55
797.70	38335.93
797.88	38172.09
798.06	37475.78
798.24	37995.96
798.42	37651.91
798.60	37537.22
798.78	37381.57
798.96	37746.11
799.14	37082.57
799.32	37166.54
799.51	36978.12
799.69	37371.33
799.87	37209.54
800.05	36496.85
800.23	36699.60
800.41	36746.70
800.59	36670.93
800.77	36376.02
800.95	36566.48
801.13	36312.53
801.31	36009.43
801.49	36656.59
801.67	35980.76
801.85	35984.86
802.03	35970.52
802.21	35831.26
802.39	35648.99
802.57	35921.37
802.75	35628.51
802.93	35790.30
803.11	35302.89
803.29	35159.53
803.47	35145.19
803.65	35063.27
803.83	34915.82
804.01	34747.89
804.19	34672.11
804.37	34964.97
804.55	34592.24
804.73	34672.11
804.91	34668.02
805.09	34758.13
805.27	34426.35
805.45	34686.45
805.63	34831.85
805.81	33906.17
805.99	34180.60
806.17	34178.55
806.35	34051.58
806.53	33957.37
806.71	34196.98
806.89	34002.43
807.07	33773.05
807.25	33789.44
807.43	33414.66
807.61	33857.02
807.79	33586.69
807.97	33422.85
808.15	33496.58
808.33	33472.00
808.51	33177.09
808.69	33195.53
808.87	32861.71
809.05	32798.22
809.23	32921.10
809.41	32505.36
809.59	32675.34
809.77	32824.84
809.95	32505.36
810.13	32757.26
810.31	32603.66
810.49	32386.58
810.67	32402.96
810.84	32458.26
811.02	32329.23
811.20	31915.54
811.38	32226.84
811.56	31661.60
811.74	31845.91
811.92	31663.64
812.10	32044.57
812.28	31897.11
812.46	31772.19
812.64	32009.75
812.82	31755.80
813.00	31389.22
813.18	31714.84
813.36	31673.88
813.53	31260.20
813.71	31153.70
813.89	31145.51
814.07	31188.52
814.25	31376.93
814.43	30848.55
814.61	30932.52
814.79	30535.21
814.97	30891.56
815.15	30883.37
815.33	30664.24
815.50	30357.04
815.68	30797.35
815.86	30578.22
816.04	30588.46
816.22	30428.72
816.40	30445.10
816.58	30053.94
816.76	30090.80
816.94	30367.28
817.11	30023.22
817.29	30576.17
817.47	30047.80
817.65	29883.96
817.83	30252.59
818.01	29795.90
818.19	29808.19
818.37	29679.16
818.54	29756.99
818.72	29580.86
818.90	29412.93
819.08	29636.16
819.26	29472.32
819.44	29300.29
819.62	29521.47
819.80	29421.12
819.97	29513.28
820.15	29201.99
820.33	29130.31
820.51	29331.01
820.69	29240.90
820.87	29183.55
821.05	29300.29
821.22	29013.57
821.40	28972.61
821.58	28837.45
821.76	28622.41
821.94	28603.98
822.12	28509.77
822.29	28739.15
822.47	28603.98
822.65	29050.44
822.83	28821.06
823.01	28481.10
823.19	28184.15
823.36	28053.08
823.54	28370.51
823.72	28313.17
823.90	28241.49
824.08	27887.19
824.25	28231.25
824.43	28182.10
824.61	28153.43
824.79	28067.41
824.97	27887.19
825.15	28063.32
825.32	27977.30
825.50	27905.62
825.68	27659.87
825.86	27883.09
826.04	27997.78
826.21	27668.06
826.39	27645.53
826.57	27639.39
826.75	27473.50
826.93	27213.41
827.10	27344.48
827.28	27250.27
827.46	27377.25
827.64	27235.94
827.81	27407.97
827.99	27399.77
828.17	27268.70
828.35	27022.95
828.53	26998.37
828.70	26981.99
828.88	27254.37
829.06	27158.11
829.24	27078.24
829.41	27190.88
829.59	27295.33
829.77	26689.13
829.95	26941.03
830.12	26703.46
830.30	26924.65
830.48	26846.82
830.66	26975.84
830.84	26769.00
831.01	26693.22
831.19	26533.48
831.37	26715.75
831.55	26386.03
831.72	26488.43
831.90	26736.23
832.08	26304.11
832.25	26400.37
832.43	26052.21
832.61	26291.82
832.79	26334.83
832.96	26011.25
833.14	26123.89
833.32	26236.53
833.50	26011.25
833.67	26041.97
833.85	25828.98
834.03	26070.64
834.20	26005.11
834.38	25908.85
834.56	26009.20
834.74	25689.72
834.91	25745.02
835.09	25843.32
835.27	25353.85
835.44	25622.14
835.62	25255.55
835.80	25411.20
835.98	25599.61
836.15	25515.64
836.33	25728.63
836.51	25917.04
836.68	25396.86
836.86	25413.24
837.04	25499.26
837.21	25486.97
837.39	25429.63
837.57	25355.90
837.75	25349.76
837.92	25132.67
838.10	25267.84
838.28	24991.36
838.45	25155.20
838.63	24909.44
838.81	25028.23
838.98	25124.48
839.16	25220.74
839.34	24934.02
839.51	24819.33
839.69	24805.00
839.87	24827.53
840.04	24602.25
840.22	24737.41
840.40	24897.16
840.57	24364.68
840.75	24698.50
840.93	24690.31
841.10	24686.22
841.28	24766.09
841.46	24323.72
841.63	24848.00
841.81	24422.03
841.98	24264.33
842.16	24440.46
842.34	24540.81
842.51	24262.29
842.69	24415.88
842.87	24260.24
843.04	24399.50
843.22	24215.18
843.40	24311.44
843.57	23965.33
843.75	24544.91
843.92	24381.07
844.10	24247.95
844.28	24192.65
844.45	24286.86
844.63	24163.98
844.81	24196.75
844.98	24184.46
845.16	24024.72
845.33	23844.50
845.51	23807.64
845.69	23907.99
845.86	23844.50
846.04	23891.60
846.21	23686.81
846.39	23867.03
846.57	23604.89
846.74	23608.98
846.92	23416.47
847.09	23760.53
847.27	23469.72
847.45	23498.39
847.62	23508.63
847.80	23705.24
847.97	23330.46
848.15	23443.10
848.32	23580.31
848.50	23307.93
848.68	23096.99
848.85	23504.54
849.03	23060.13
849.20	23099.04
849.38	23324.32
849.56	23176.86
849.73	23109.28
849.91	23027.36
850.08	23418.52
850.26	23008.93
850.43	23023.26
850.61	23215.77
850.78	22838.95
850.96	22912.67
851.14	22666.92
851.31	23013.02
851.49	22939.30
851.66	23336.60
851.84	22896.29
852.01	22843.04
852.19	22955.68
852.36	22707.88
852.54	22834.85
852.71	22998.69
852.89	22763.17
853.07	22326.96
853.24	22658.73
853.42	22488.74
853.59	22417.07
853.77	22466.22
853.94	22582.95
854.12	22652.58
854.29	22541.99
854.47	22468.27
854.64	22824.61
854.82	22486.70
854.99	22621.86
855.17	22126.25
855.34	22312.62
855.52	22355.63
855.69	22394.54
855.87	22048.43
856.04	22140.59
856.22	22048.43
856.39	21843.63
856.57	22087.34
856.74	21911.22
856.92	22073.01
857.09	21937.84
857.27	22079.15
857.44	22087.34
857.62	21952.18
857.79	21980.85
857.97	22148.78
858.14	22021.81
858.32	21921.46
858.49	21679.80
858.67	21800.63
858.84	21747.38
859.02	21962.42
859.19	21814.96
859.37	21616.31
859.54	21780.15
859.72	21503.67
859.89	21538.49
860.06	21534.39
860.24	21632.69
860.41	21276.35
860.59	21395.13
860.76	21442.23
860.94	21167.80
861.11	21305.02
861.29	21319.35
861.46	21733.04
861.64	21071.55
861.81	21122.75
861.98	21180.09
862.16	21188.28
862.33	20909.76
862.51	21366.46
862.68	21511.86
862.86	21221.05
863.03	21067.45
863.21	21169.85
863.38	21290.68
863.55	20963.01
863.73	20881.09
863.90	20737.73
864.08	20801.22
864.25	20973.25
864.43	21003.97
864.60	20737.73
864.77	20678.34
864.95	21020.35
865.12	20598.47
865.30	20858.56
865.47	20838.08
865.64	20758.21
865.82	20709.06
865.99	20909.76
866.17	20848.32
866.34	20926.14
866.51	20346.57
866.69	20557.51
866.86	20559.56
867.04	20666.05
867.21	20676.29
867.38	20430.54
867.56	20575.94
867.73	20418.25
867.91	20197.07
868.08	20389.58
868.25	20436.68
868.43	20299.47
868.60	20238.03
868.78	20201.16
868.95	20133.58
869.12	19814.10
869.30	20072.14
869.47	19607.25
869.64	19793.62
869.82	20129.48
869.99	19752.66
870.16	19871.44
870.34	19836.63
870.51	20293.32
870.69	19766.99
870.86	19896.02
871.03	19791.57
871.21	19920.59
871.38	19683.03
871.55	19668.69
871.73	19652.31
871.90	19500.76
872.07	19689.17
872.25	19416.79
872.42	19211.99
872.59	19554.01
872.77	19625.68
872.94	19467.99
873.11	19443.42
873.29	19685.08
873.46	19097.31
873.63	19238.62
873.81	19363.54
873.98	19035.87
874.15	19177.18
874.33	19113.69
874.50	18964.19
874.67	19113.69
874.85	18951.90
875.02	18896.61
875.19	18923.23
875.37	18945.76
875.54	18829.02
875.71	18880.22
875.88	18718.43
876.06	18808.54
876.23	18898.66
876.40	18657.00
876.58	18495.21
876.75	18697.95
876.92	18738.91
877.10	18724.58
877.27	18454.25
877.44	18353.90
877.61	18298.60
877.79	18472.68
877.96	18333.42
878.13	18284.26
878.31	18202.35
878.48	18034.41
878.65	18437.86
878.82	18028.27
879.00	18357.99
879.17	18077.42
879.34	18061.04
879.51	18265.83
879.69	17899.25
879.86	17995.50
880.03	18022.12
880.21	17872.62
880.38	18155.24
880.55	17901.29
880.72	17706.74
880.90	17794.80
881.07	17712.88
881.24	17633.01
881.41	17874.67
881.59	17633.01
881.76	17780.46
881.93	17352.44
882.10	17377.01
882.28	17362.68
882.45	17669.87
882.62	17460.98
882.79	17327.86
882.96	17307.38
883.14	17501.94
883.31	17450.74
883.48	17272.57
883.65	17524.47
883.83	17585.91
884.00	17338.10
884.17	17243.90
884.34	17323.77
884.51	17352.44
884.69	17395.45
884.86	17219.32
885.03	17209.08
885.20	17006.33
885.38	17362.68
885.55	17223.42
885.72	17202.94
885.89	17096.44
886.06	17207.03
886.24	17030.91
886.41	17280.76
886.58	17188.60
886.75	16912.13
886.92	16948.99
887.10	17041.15
887.27	16858.88
887.44	17051.39
887.61	17309.43
887.78	17037.05
887.95	17121.02
888.13	16649.99
888.30	16852.73
888.47	16877.31
888.64	16539.40
888.81	16756.48
888.99	16473.86
889.16	16746.24
889.33	16518.92
889.50	16535.30
889.67	16721.66
889.84	16633.60
890.01	16461.57
890.19	16594.69
890.36	16492.29
890.53	16330.50
890.70	16324.36
890.87	16518.92
891.04	16377.61
891.22	16473.86
891.39	16291.59
891.56	16461.57
891.73	16262.92
891.90	16264.97
892.07	15951.63
892.24	16021.26
892.42	16090.89
892.59	16011.02
892.76	16160.52
892.93	15955.72
893.10	16207.62
893.27	16080.65
893.44	15943.44
893.61	15927.05
893.79	16252.68
893.96	16060.17
894.13	16056.08
894.30	16002.83
894.47	15963.92
894.64	16221.96
894.81	15982.35
894.98	16107.27
895.15	16119.56
895.33	15929.10
895.50	16008.97
895.67	15984.40
895.84	15740.69
896.01	16045.84
896.18	15900.43
896.35	15838.99
896.52	15662.86
896.69	15652.63
896.86	15922.96
897.04	15970.06
897.21	15935.24
897.38	15865.61
897.55	16123.66
897.72	16054.03
897.89	15945.48
898.06	15847.18
898.23	15845.13
898.40	15994.64
898.57	16013.07
898.74	15836.94
898.91	16099.08
899.08	15761.17
899.26	15814.41
899.43	15830.80
899.60	15644.43
899.77	15824.65
899.94	15634.19
900.11	15650.58
900.28	15744.78
900.45	15720.21
900.62	15507.22
900.79	15771.41
900.96	15838.99
901.13	15734.54
901.30	15623.95
901.47	15648.53
901.64	15687.44
901.81	15941.39
901.98	15550.23
902.15	15810.32
902.32	15539.99
902.49	15896.33
902.66	15474.45
902.83	15730.45
903.01	15601.43
903.18	15755.02
903.35	15783.70
903.52	15640.34
903.69	15748.88
903.86	15877.90
904.03	15447.83
904.20	16056.08
904.37	15732.50
904.54	15439.64
904.71	15406.87
904.88	15691.54
905.05	15611.67
905.22	15746.83
905.39	15603.47
905.56	15759.12
905.73	15556.37
905.90	15535.89
906.07	15703.82
906.24	15838.99
906.41	15793.94
906.58	15542.03
906.75	15752.98
906.92	15566.61
907.09	15615.76
907.26	15767.31
907.43	15402.77
907.60	15453.97
907.77	15830.80
907.93	15593.23
908.10	15384.34
908.27	15597.33
908.44	15509.27
908.61	15267.61
908.78	15527.70
908.95	15744.78
909.12	15535.89
909.29	15441.68
909.46	15607.57
909.63	15861.52
909.80	15605.52
909.97	15466.26
910.14	15312.66
910.31	15466.26
910.48	15511.32
910.65	15666.96
910.82	15286.04
910.99	15408.92
911.16	15578.90
911.33	15341.33
911.50	15314.71
911.66	15365.91
911.83	15312.66
912.00	15159.06
912.17	15009.56
912.34	15167.26
912.51	15212.31
912.68	15111.96
912.85	15185.69
913.02	15363.86
913.19	15109.91
913.36	15146.78
913.53	15187.74
913.70	14999.32
913.86	14995.23
914.03	15079.19
914.20	14921.50
914.37	14956.32
914.54	14786.33
914.71	14909.21
914.88	14978.84
915.05	15019.80
915.22	14767.90
915.39	15159.06
915.55	14913.31
915.72	14735.14
915.89	14776.09
916.06	14540.58
916.23	14839.58
916.40	14624.54
916.57	14692.13
916.74	14370.60
916.91	14556.96
917.07	14487.33
917.24	14415.65
917.41	14335.78
917.58	14534.43
917.75	14155.56
917.92	14237.48
918.09	14233.38
918.26	14245.67
918.42	14165.80
918.59	14305.06
918.76	13754.16
918.93	14190.38
919.10	13862.70
919.27	14116.65
919.44	13909.80
919.60	14184.23
919.77	13901.61
919.94	13657.90
920.11	13590.32
920.28	13809.45
920.45	13596.46
920.61	13711.15
920.78	13610.80
920.95	13504.31
921.12	13487.92
921.29	13602.61
921.46	13385.52
921.62	13303.60
921.79	13473.59
921.96	13223.73
922.13	13229.88
922.30	13092.66
922.47	13086.52
922.63	13254.45
922.80	13332.28
922.97	13172.54
923.14	12902.20
923.31	12928.83
923.47	12924.73
923.64	13031.23
923.81	12889.92
923.98	12816.19
924.15	12738.37
924.32	12562.24
924.48	12730.17
924.65	12842.81
924.82	12511.04
924.99	12537.66
925.15	12382.02
925.32	12558.14
925.49	12132.17
925.66	12379.97
925.83	12330.82
925.99	11900.75
926.16	12052.30
926.33	12166.98
926.50	11906.89
926.67	12089.16
926.83	12023.62
927.00	11804.49
927.17	11771.72
927.34	11657.04
927.50	11804.49
927.67	11794.25
927.84	11794.25
928.01	11704.14
928.17	11695.95
928.34	11528.02
928.51	11554.64
928.68	11460.43
928.84	11450.19
929.01	11267.92
929.18	11358.03
929.35	11269.97
929.51	11366.23
929.68	10907.48
929.85	11087.70
930.02	10923.87
930.18	11124.57
930.35	11001.69
930.52	11001.69
930.69	10925.91
930.85	10823.51
931.02	10927.96
931.19	10805.08
931.36	10620.77
931.52	10745.69
931.69	10739.55
931.86	10835.80
932.02	10553.18
932.19	10516.32
932.36	10342.24
932.53	10512.22
932.69	10401.63
932.86	10340.19
933.03	10149.73
933.19	10145.64
933.36	10155.88
933.53	10297.19
933.70	10159.97
933.86	9955.18
934.03	9840.49
934.20	9946.98
934.36	10002.28
934.53	9727.85
934.70	9594.73
934.86	9592.69
935.03	9365.36
935.20	9576.30
935.36	9398.13
935.53	9391.98
935.70	9123.70
935.86	9066.36
936.03	9265.01
936.20	8902.52
936.36	9009.01
936.53	8906.62
936.70	8793.98
936.86	8961.91
937.03	8947.58
937.20	8542.08
937.36	8687.48
937.53	8427.39
937.70	8320.90
937.86	8007.56
938.03	8091.52
938.20	7970.69
938.36	7962.50
938.53	7989.13
938.70	7886.73
938.86	7769.99
939.03	7669.64
939.20	7690.12
939.36	7708.55
939.53	7473.04
939.70	7608.20
939.86	7321.49
940.03	7206.80
940.19	7022.48
940.36	7042.96
940.53	7180.18
940.69	7047.06
940.86	6952.85
941.03	6815.64
941.19	6748.06
941.36	6692.76
941.52	6555.55
941.69	6471.58
941.86	6508.44
942.02	6516.64
942.19	6383.52
942.35	6291.36
942.52	6127.52
942.69	6170.53
942.85	6107.04
943.02	6074.28
943.18	6104.99
943.35	6021.03
943.52	6090.66
943.68	5748.65
943.85	5957.54
944.01	5752.74
944.18	5943.21
944.35	5857.19
944.51	5808.04
944.68	5697.45
944.84	5738.41
945.01	5523.37
945.17	5687.21
945.34	5586.86
945.51	5619.63
945.67	5554.09
945.84	5662.63
946.00	5625.77
946.17	5574.57
946.33	5521.32
946.50	5627.82
946.67	5453.74
946.83	5490.60
947.00	5537.71
947.16	5506.99
947.33	5611.43
947.49	5367.73
947.66	5480.36
947.82	5547.95
947.99	5242.80
948.16	5498.80
948.32	5578.67
948.49	5558.19
948.65	5461.93
948.82	5547.95
948.98	5425.07
949.15	5382.06
949.31	5453.74
949.48	5404.59
949.64	5537.71
949.81	5445.55
949.97	5500.84
950.14	5476.27
950.30	5347.25
950.47	5576.62
950.63	5572.52
950.80	5494.70
950.96	5463.98
951.13	5392.30
951.30	5543.85
951.46	5621.67
951.63	5730.22
951.79	5515.18
951.96	5619.63
952.12	5554.09
952.29	5590.95
952.45	5552.04
952.62	5466.03
952.78	5687.21
952.94	5537.71
953.11	5539.76
953.27	5361.58
953.44	5668.78
953.60	5429.17
953.77	5494.70
953.93	5605.29
954.10	5621.67
954.26	5556.14
954.43	5588.91
954.59	5517.23
954.76	5719.98
954.92	5480.36
955.09	5724.07
955.25	5435.31
955.42	5406.64
955.58	5699.50
955.75	5679.02
955.91	5525.42
956.07	5656.49
956.24	5601.19
956.40	5699.50
956.57	5767.08
956.73	5554.09
956.90	5660.59
957.06	5588.91
957.23	5550.00
957.39	5531.56
957.56	5574.57
957.72	5455.79
957.88	5445.55
958.05	5672.87
958.21	5746.60
958.38	5560.24
958.54	5539.76
958.71	5676.97
958.87	5562.28
959.03	5779.37
959.20	5580.71
959.36	5676.97
959.53	5580.71
959.69	5533.61
959.85	5640.11
960.02	5556.14
960.18	5552.04
960.35	5607.34
960.51	5736.36
960.68	5488.56
960.84	5558.19
961.00	5441.45
961.17	5613.48
961.33	5623.72
961.50	5617.58
961.66	5697.45
961.82	5691.31
961.99	5717.93
962.15	5664.68
962.31	5621.67
962.48	5613.48
962.64	5599.15
962.81	5529.52
962.97	5572.52
963.13	5593.00
963.30	5648.30
963.46	5504.94
963.62	5451.69
963.79	5509.04
963.95	5636.01
964.12	5533.61
964.28	5648.30
964.44	5590.95
964.61	5521.32
964.77	5603.24
964.93	5584.81
965.10	5513.13
965.26	5468.08
965.42	5498.80
965.59	5427.12
965.75	5480.36
965.92	5459.88
966.08	5515.18
966.24	5441.45
966.41	5423.02
966.57	5396.40
966.73	5382.06
966.90	5463.98
967.06	5455.79
967.22	5359.53
967.39	5367.73
967.55	5300.14
967.71	5169.07
967.88	5375.92
968.04	5298.10
968.20	5394.35
968.37	5279.66
968.53	5212.08
968.69	5281.71
968.85	5187.50
969.02	5351.34
969.18	5285.81
969.34	5150.64
969.51	5326.77
969.67	5197.74
969.83	5054.39
970.00	5349.29
970.16	5218.22
970.32	5263.28
970.48	5382.06
970.65	5158.83
970.81	5056.43
970.97	5185.46
971.14	5152.69
971.30	5304.24
971.46	5148.59
971.63	5136.31
971.79	5216.18
971.95	5023.67
972.11	4894.65
972.28	4995.00
972.44	5072.82
972.60	4992.95
972.76	5009.33
972.93	5001.14
973.09	5228.46
973.25	5083.06
973.42	5040.05
973.58	5113.78
973.74	5148.59
973.90	5044.15
974.07	4851.64
974.23	4990.90
974.39	4999.09
974.55	4933.56
974.72	4788.15
974.88	4810.68
975.04	4923.32
975.20	4968.37
975.37	4917.17
975.53	4734.90
975.69	4933.56
975.85	4749.24
976.01	4837.30
976.18	4796.34
976.34	4767.67
976.50	4841.40
976.66	4949.94
976.83	4816.82
976.99	4771.77
977.15	4714.42
977.31	4589.50
977.47	4761.53
977.64	4671.42
977.80	4808.63
977.96	4720.57
978.12	4698.04
978.29	4583.35
978.45	4603.83
978.61	4470.72
978.77	4681.66
978.93	4560.83
979.10	4569.02
979.26	4712.38
979.42	4648.89
979.58	4491.20
979.74	4540.35
979.91	4591.55
980.07	4446.14
980.23	4591.55
980.39	4429.76
980.55	4562.87
980.71	4564.92
980.88	4347.84
981.04	4425.66
981.20	4460.48
981.36	4530.11
981.52	4550.59
981.68	4351.93
981.85	4452.28
982.01	4425.66
982.17	4384.70
982.33	4411.32
982.49	4442.04
982.65	4331.45
982.82	4399.04
982.98	4464.57
983.14	4267.97
983.30	4331.45
983.46	4310.97
983.62	4298.69
983.79	4296.64
983.95	4335.55
984.11	4175.81
984.27	4335.55
984.43	4331.45
984.59	4186.05
984.75	4315.07
984.91	4165.57
985.08	4356.03
985.24	4204.48
985.40	4132.80
985.56	4181.95
985.72	4300.73
985.88	4097.99
986.04	4143.04
986.20	4085.70
986.37	4198.34
986.53	4018.11
986.69	4065.22
986.85	4011.97
987.01	4116.42
987.17	4140.99
987.33	4081.60
987.49	4110.27
987.65	4009.92
987.82	4136.90
987.98	3911.62
988.14	4022.21
988.30	4038.59
988.46	4024.26
988.62	3981.25
988.78	3940.29
988.94	3958.72
989.10	3887.04
989.26	3788.74
989.42	3928.00
989.59	3784.65
989.75	3848.13
989.91	4050.88
990.07	3737.54
990.23	3780.55
990.39	3768.26
990.55	3862.47
990.71	3850.18
990.87	3811.27
991.03	3993.54
991.19	3737.54
991.35	3858.37
991.51	3766.21
991.67	3704.78
991.83	3796.93
992.00	3768.26
992.16	3827.65
992.32	3745.73
992.48	3819.46
992.64	3760.07
992.80	3887.04
992.96	3721.16
993.12	3731.40
993.28	3631.05
993.44	3610.57
993.60	3700.68
993.76	3723.21
993.92	3725.26
994.08	3733.45
994.24	3764.17
994.40	3596.23
994.56	3676.10
994.72	3522.51
994.88	3477.45
995.04	3637.19
995.20	3571.66
995.36	3563.47
995.52	3469.26
995.68	3450.83
995.84	3508.17
996.00	3588.04
996.16	3491.79
996.32	3420.11
996.48	3348.43
996.64	3649.48
996.80	3495.88
996.96	3489.74
997.12	3450.83
997.28	3524.55
997.44	3295.18
997.60	3399.63
997.76	3416.01
997.92	3502.03
998.08	3370.96
998.24	3348.43
998.40	3332.05
998.56	3479.50
998.72	3270.61
998.88	3307.47
999.04	3368.91
999.20	3411.92
999.36	3219.41
999.52	3409.87
999.68	3420.11
999.84	3305.42
1000.00	3305.42
1000.16	3350.48
1000.32	3166.16
1000.48	3373.00
1000.64	3272.65
1000.80	3133.39
1000.95	3108.82
1001.11	3321.81
1001.27	3188.69
1001.43	3268.56
1001.59	3196.88
1001.75	3215.31
1001.91	3192.78
1002.07	3178.45
1002.23	3160.02
1002.39	3223.50
1002.55	3223.50
1002.71	3035.09
1002.87	3213.26
1003.03	3127.25
1003.19	3149.78
1003.34	3180.50
1003.50	3192.78
1003.66	3217.36
1003.82	3147.73
1003.98	3004.37
1004.14	2977.75
1004.30	3053.52
1004.46	3074.00
1004.62	3041.23
1004.78	3018.71
1004.94	3051.47
1005.09	3086.29
1005.25	3008.47
1005.41	3055.57
1005.57	2990.03
1005.73	3049.43
1005.89	2967.51
1006.05	3076.05
1006.21	2981.84
1006.37	2875.35
1006.52	2932.69
1006.68	2883.54
1006.84	3067.86
1007.00	2883.54
1007.16	3006.42
1007.32	2949.08
1007.48	2879.44
1007.64	2930.64
1007.79	2912.21
1007.95	2828.24
1008.11	2879.44
1008.27	2908.12
1008.43	2861.01
1008.59	2836.44
1008.75	2912.21
1008.91	2916.31
1009.06	2764.76
1009.22	2916.31
1009.38	2795.48
1009.54	2881.49
1009.70	2787.29
1009.86	2754.52
1010.01	2803.67
1010.17	2777.05
1010.33	2781.14
1010.49	2746.33
1010.65	2893.78
1010.81	2658.26
1010.96	2779.09
1011.12	2746.33
1011.28	2715.61
1011.44	2801.62
1011.60	2744.28
1011.76	2715.61
1011.91	2762.71
1012.07	2664.41
1012.23	2680.79
1012.39	2609.11
1012.55	2652.12
1012.71	2723.80
1012.86	2654.17
1013.02	2635.74
1013.18	2639.83
1013.34	2672.60
1013.50	2680.79
1013.65	2662.36
1013.81	2645.98
1013.97	2492.38
1014.13	2605.02
1014.29	2551.77
1014.44	2682.84
1014.60	2562.01
1014.76	2664.41
1014.92	2564.06
1015.07	2668.50
1015.23	2619.35
1015.39	2594.78
1015.55	2439.13
1015.71	2568.15
1015.86	2508.76
1016.02	2441.18
1016.18	2498.52
1016.34	2416.60
1016.49	2506.71
1016.65	2541.53
1016.81	2506.71
1016.97	2486.23
1017.12	2467.80
1017.28	2527.19
1017.44	2435.03
1017.60	2494.43
1017.75	2443.23
1017.91	2400.22
1018.07	2496.47
1018.23	2420.70
1018.38	2379.74
1018.54	2453.47
1018.70	2473.95
1018.86	2416.60
1019.01	2441.18
1019.17	2428.89
1019.33	2465.75
1019.49	2414.56
1019.64	2469.85
1019.80	2363.36
1019.96	2453.47
1020.12	2351.07
1020.27	2375.64
1020.43	2312.16
1020.59	2385.88
1020.74	2420.70
1020.90	2344.92
1021.06	2299.87
1021.22	2418.65
1021.37	2383.84
1021.53	2238.43
1021.69	2389.98
1021.84	2342.88
1022.00	2314.20
1022.16	2275.29
1022.31	2359.26
1022.47	2379.74
1022.63	2334.68
1022.79	2330.59
1022.94	2297.82
1023.10	2377.69
1023.26	2263.01
1023.41	2185.18
1023.57	2326.49
1023.73	2330.59
1023.88	2320.35
1024.04	2281.44
1024.20	2158.56
1024.35	2269.15
1024.51	2320.35
1024.67	2224.09
1024.82	2301.92
1024.98	2172.89
1025.14	2191.33
1025.29	2207.71
1025.45	2289.63
1025.61	2150.37
1025.76	2158.56
1025.92	2248.67
1026.08	2195.42
1026.23	2228.19
1026.39	2285.53
1026.55	2185.18
1026.70	2125.79
1026.86	2213.85
1027.02	2297.82
1027.17	2238.43
1027.33	2271.20
1027.48	2250.72
1027.64	2187.23
1027.80	2199.52
1027.95	2154.46
1028.11	2031.58
1028.27	2148.32
1028.42	2166.75
1028.58	2117.60
1028.73	2056.16
1028.89	2015.20
1029.05	2238.43
1029.20	2148.32
>>>>>End Processed Spectral Data<<<<<
