SpectraSuite Data File
++++++++++++++++++++++++++++++++++++
Date: Fri Jun 02 14:52:30 CEST 2017
User: INFO_000
Dark Spectrum Present: No
Reference Spectrum Present: No
Number of Sampled Component Spectra: 1
Spectrometers: USB4H00879
Integration Time (usec): 80000 (USB4H00879)
Spectra Averaged: 1 (USB4H00879)
Boxcar Smoothing: 0 (USB4H00879)
Correct for Electrical Dark: No (USB4H00879)
Strobe/Lamp Enabled: No (USB4H00879)
Correct for Detector Non-linearity: No (USB4H00879)
Correct for Stray Light: No (USB4H00879)
Number of Pixels in Processed Spectrum: 3648
>>>>>Begin Processed Spectral Data<<<<<
345.13	1275.88
345.34	1275.88
345.56	1275.88
345.78	1202.16
345.99	1253.36
346.21	1697.77
346.42	1736.68
346.64	1705.96
346.86	1740.77
347.07	1673.19
347.29	1695.72
347.50	1646.57
347.72	1671.14
347.94	1806.31
348.15	1585.13
348.37	1619.94
348.59	1652.71
348.80	1611.75
349.02	1783.78
349.23	1892.32
349.45	1822.69
349.67	1888.23
349.88	1714.15
350.10	1910.75
350.31	1806.31
350.53	1863.65
350.75	1898.47
350.96	1789.92
351.18	1851.36
351.39	1824.74
351.61	1880.04
351.82	1898.47
352.04	1859.56
352.26	1783.78
352.47	1986.53
352.69	1918.95
352.90	1769.44
353.12	1841.12
353.34	1951.71
353.55	1888.23
353.77	1859.56
353.98	1826.79
354.20	1837.03
354.41	1976.29
354.63	1894.37
354.85	1984.48
355.06	1927.14
355.28	1757.16
355.49	1869.80
355.71	1810.40
355.92	1869.80
356.14	1920.99
356.35	1824.74
356.57	1892.32
356.79	1974.24
357.00	1857.51
357.22	2011.11
357.43	1849.32
357.65	1941.47
357.86	1841.12
358.08	1906.66
358.29	1941.47
358.51	2074.59
358.72	1998.82
358.94	1886.18
359.16	1978.34
359.37	1857.51
359.59	1914.85
359.80	1988.58
360.02	1982.43
360.23	2033.63
360.45	1992.67
360.66	1894.37
360.88	1847.27
361.09	1929.19
361.31	1984.48
361.52	1916.90
361.74	2043.87
361.95	2027.49
362.17	1920.99
362.38	2056.16
362.60	1998.82
362.81	1925.09
363.03	1916.90
363.24	1927.14
363.46	2074.59
363.67	2062.30
363.89	1992.67
364.10	1978.34
364.32	2002.91
364.53	2111.46
364.75	1886.18
364.96	2084.83
365.18	1976.29
365.39	1974.24
365.61	2004.96
365.82	2109.41
366.04	2009.06
366.25	1955.81
366.47	2093.02
366.68	2072.54
366.90	1908.71
367.11	2121.70
367.33	2023.39
367.54	2099.17
367.76	2052.06
367.97	2068.45
368.19	2007.01
368.40	2154.46
368.62	1968.10
368.83	1996.77
369.05	2025.44
369.26	2033.63
369.48	1961.95
369.69	1976.29
369.91	2025.44
370.12	2043.87
370.33	2072.54
370.55	1992.67
370.76	1982.43
370.98	2093.02
371.19	2062.30
371.41	2064.35
371.62	2050.02
371.84	1875.94
372.05	2119.65
372.27	2064.35
372.48	2058.21
372.69	2107.36
372.91	2191.33
373.12	2191.33
373.34	2093.02
373.55	2170.85
373.77	2125.79
373.98	2064.35
374.20	2164.70
374.41	2197.47
374.62	2129.89
374.84	2129.89
375.05	2207.71
375.27	2176.99
375.48	2250.72
375.70	2166.75
375.91	2138.08
376.12	2291.68
376.34	2193.37
376.55	2148.32
376.77	2224.09
376.98	2082.78
377.19	2215.90
377.41	2154.46
377.62	2185.18
377.84	2338.78
378.05	2336.73
378.27	2158.56
378.48	2357.21
378.69	2322.40
378.91	2297.82
379.12	2222.05
379.34	2179.04
379.55	2265.05
379.76	2293.72
379.98	2142.18
380.19	2228.19
380.41	2338.78
380.62	2244.57
380.83	2303.96
381.05	2240.48
381.26	2346.97
381.47	2209.76
381.69	2260.96
381.90	2455.51
382.12	2269.15
382.33	2285.53
382.54	2281.44
382.76	2328.54
382.97	2353.12
383.19	2254.81
383.40	2410.46
383.61	2365.40
383.83	2193.37
384.04	2246.62
384.25	2367.45
384.47	2320.35
384.68	2344.92
384.89	2381.79
385.11	2265.05
385.32	2371.55
385.54	2381.79
385.75	2316.25
385.96	2418.65
386.18	2473.95
386.39	2471.90
386.60	2400.22
386.82	2410.46
387.03	2404.32
387.24	2488.28
387.46	2410.46
387.67	2451.42
387.88	2564.06
388.10	2498.52
388.31	2500.57
388.52	2578.39
388.74	2467.80
388.95	2404.32
389.16	2494.43
389.38	2523.10
389.59	2424.80
389.80	2586.58
390.02	2545.63
390.23	2697.17
390.44	2602.97
390.66	2615.26
390.87	2437.08
391.08	2600.92
391.30	2572.25
391.51	2600.92
391.72	2613.21
391.94	2645.98
392.15	2588.63
392.36	2641.88
392.58	2613.21
392.79	2678.74
393.00	2701.27
393.22	2701.27
393.43	2662.36
393.64	2787.29
393.85	2795.48
394.07	2586.58
394.28	2623.45
394.49	2652.12
394.71	2746.33
394.92	2762.71
395.13	2756.57
395.35	2664.41
395.56	2770.90
395.77	2764.76
395.98	2848.72
396.20	2901.97
396.41	2805.72
396.62	2908.12
396.84	2797.53
397.05	2777.05
397.26	2770.90
397.47	2906.07
397.69	2826.20
397.90	3004.37
398.11	2953.17
398.32	2838.48
398.54	2777.05
398.75	2987.99
398.96	2949.08
399.18	3067.86
399.39	2963.41
399.60	3041.23
399.81	3016.66
400.03	2936.79
400.24	3237.84
400.45	2961.36
400.66	3117.01
400.88	3000.27
401.09	3090.38
401.30	2969.55
401.51	3131.34
401.73	3117.01
401.94	3090.38
402.15	3149.78
402.36	3041.23
402.58	3106.77
402.79	3231.69
403.00	3246.03
403.21	3121.10
403.43	3233.74
403.64	3231.69
403.85	3121.10
404.06	3213.26
404.27	3090.38
404.49	3172.30
404.70	3102.67
404.91	3266.51
405.12	3293.13
405.34	3313.61
405.55	3373.00
405.76	3170.26
405.97	3192.78
406.19	3368.91
406.40	3160.02
406.61	3303.37
406.82	3278.80
407.03	3295.18
407.25	3297.23
407.46	3491.79
407.67	3256.27
407.88	3393.48
408.09	3438.54
408.31	3223.50
408.52	3344.33
408.73	3325.90
408.94	3391.44
409.15	3405.77
409.37	3426.25
409.58	3420.11
409.79	3577.80
410.00	3502.03
410.21	3356.62
410.43	3444.68
410.64	3379.15
410.85	3459.02
411.06	3432.40
411.27	3553.23
411.48	3520.46
411.70	3553.23
411.91	3581.90
412.12	3637.19
412.33	3561.42
412.54	3526.60
412.76	3696.58
412.97	3657.67
413.18	3506.12
413.39	3581.90
413.60	3618.76
413.81	3598.28
414.03	3624.90
414.24	3551.18
414.45	3803.08
414.66	3641.29
414.87	3753.93
415.08	3581.90
415.30	3651.53
415.51	3766.21
415.72	3721.16
415.93	3788.74
416.14	3688.39
416.35	3684.30
416.56	3778.50
416.78	3856.33
416.99	3825.61
417.20	3819.46
417.41	3952.58
417.62	3862.47
417.83	3837.89
418.04	3889.09
418.26	3991.49
418.47	3909.57
418.68	3958.72
418.89	3973.06
419.10	4001.73
419.31	4057.03
419.52	4003.78
419.73	3893.19
419.95	4206.53
420.16	3919.81
420.37	4102.08
420.58	4034.50
420.79	4018.11
421.00	4155.33
421.21	4071.36
421.42	3964.87
421.63	4192.19
421.85	4046.79
422.06	4259.78
422.27	4120.51
422.48	4186.05
422.69	4249.54
422.90	4296.64
423.11	4263.87
423.32	4200.38
423.53	4327.36
423.75	4290.49
423.96	4491.20
424.17	4476.86
424.38	4583.35
424.59	4380.61
424.80	4460.48
425.01	4360.13
425.22	4376.51
425.43	4296.64
425.64	4734.90
425.85	4687.80
426.06	4550.59
426.28	4444.09
426.49	4446.14
426.70	4597.69
426.91	4612.03
427.12	4695.99
427.33	4782.01
427.54	4581.31
427.75	4767.67
427.96	4784.06
428.17	4779.96
428.38	4757.43
428.59	4933.56
428.80	4958.13
429.01	4818.87
429.23	4962.23
429.44	4980.66
429.65	4984.76
429.86	4997.04
430.07	4841.40
430.28	5025.72
430.49	5052.34
430.70	5136.31
430.91	5130.16
431.12	5009.33
431.33	5134.26
431.54	5044.15
431.75	5177.26
431.96	5197.74
432.17	5171.12
432.38	5195.70
432.59	5388.21
432.80	5277.62
433.01	5375.92
433.22	5312.43
433.43	5244.85
433.64	5287.86
433.85	5238.70
434.06	5394.35
434.27	5291.95
434.49	5369.77
434.70	5564.33
434.91	5392.30
435.12	5457.84
435.33	5377.97
435.54	5500.84
435.75	5488.56
435.96	5423.02
436.17	5441.45
436.38	5627.82
436.59	5758.89
436.80	5494.70
437.01	5793.70
437.22	5756.84
437.43	5730.22
437.64	5449.64
437.85	5767.08
438.06	5861.29
438.27	5709.74
438.48	5697.45
438.69	5973.92
438.90	5857.19
439.11	5691.31
439.32	5881.77
439.53	5814.18
439.74	6016.93
439.95	5963.68
440.16	5898.15
440.37	5879.72
440.57	5836.71
440.78	5973.92
440.99	6096.80
441.20	5959.59
441.41	5894.05
441.62	5910.44
441.83	5789.61
442.04	6078.37
442.25	6074.28
442.46	5947.30
442.67	6176.67
442.88	6420.38
443.09	5990.31
443.30	6164.39
443.51	6158.24
443.72	6303.65
443.93	6145.95
444.14	6524.83
444.35	6139.81
444.56	6410.14
444.77	6322.08
444.98	6320.03
445.19	6463.39
445.40	6471.58
445.61	6401.95
445.81	6465.44
446.02	6492.06
446.23	6543.26
446.44	6258.59
446.65	6524.83
446.86	6375.33
447.07	6461.34
447.28	6533.02
447.49	6664.09
447.70	6496.16
447.91	6510.49
448.12	6541.21
448.33	6731.67
448.54	6729.63
448.74	6526.88
448.95	6754.20
449.16	6721.43
449.37	6987.67
449.58	6791.06
449.79	6985.62
450.00	6778.78
450.21	6877.08
450.42	7012.24
450.63	7065.49
450.84	6946.71
451.05	7032.72
451.25	7016.34
451.46	6827.93
451.67	7116.69
451.88	7006.10
452.09	7184.27
452.30	7176.08
452.51	6965.14
452.72	7227.28
452.93	7313.30
453.13	7006.10
453.34	7106.45
453.55	7180.18
453.76	7301.01
453.97	7458.70
454.18	7303.06
454.39	7491.47
454.60	7237.52
454.81	7352.21
455.01	7468.94
455.22	7245.71
455.43	7448.46
455.64	7772.04
455.85	7692.17
456.06	7786.38
456.27	7761.80
456.48	7759.75
456.68	7774.09
456.89	7595.92
457.10	7892.87
457.31	7724.94
457.52	7700.36
457.73	7835.53
457.94	8208.26
458.14	7896.97
458.35	8273.79
458.56	7948.17
458.77	8021.89
458.98	7993.22
459.19	8075.14
459.39	8300.42
459.60	8273.79
459.81	8134.53
460.02	8470.40
460.23	8327.04
460.44	8478.59
460.65	8480.64
460.85	8597.37
461.06	8540.03
461.27	8279.94
461.48	8550.27
461.69	8791.93
461.89	8425.34
462.10	8744.83
462.31	8570.75
462.52	8726.39
462.73	8841.08
462.94	9019.25
463.14	8908.66
463.35	8916.86
463.56	9475.95
463.77	9207.67
463.98	9000.82
464.18	9144.18
464.39	9285.49
464.60	9367.41
464.81	9328.50
465.02	9209.72
465.23	9670.51
465.43	9473.90
465.64	9594.73
465.85	9604.97
466.06	9627.50
466.27	9908.07
466.47	9856.87
466.68	9756.52
466.89	9693.04
467.10	10045.29
467.30	9834.35
467.51	9992.04
467.72	10424.16
467.93	9877.35
468.14	10313.57
468.34	10422.11
468.55	10186.60
468.76	10317.67
468.97	10270.56
469.17	10680.16
469.38	10825.56
469.59	10628.96
469.80	10436.45
470.01	10676.06
470.21	10719.07
470.42	10872.67
470.63	11140.95
470.84	11018.07
471.04	11077.46
471.25	11259.73
471.46	11317.08
471.67	11450.19
471.87	11288.40
472.08	11603.79
472.29	11571.02
472.50	11235.16
472.70	11595.60
472.91	11611.98
473.12	11579.22
473.33	11872.07
473.53	11884.36
473.74	11896.65
473.95	12101.45
474.16	12189.51
474.36	12171.08
474.57	12508.99
474.78	12511.04
474.99	12474.18
475.19	12476.23
475.40	12640.06
475.61	12605.25
475.81	13080.38
476.02	13184.82
476.23	12785.47
476.44	13076.28
476.64	13256.50
476.85	13360.95
477.06	13487.92
477.27	13788.97
477.47	13623.09
477.68	13522.74
477.89	13627.18
478.09	13735.73
478.30	13985.58
478.51	13895.47
478.71	14147.37
478.92	14090.02
479.13	14501.67
479.34	14448.42
479.54	14376.74
479.75	14569.25
479.96	14606.11
480.16	14792.48
480.37	14874.40
480.58	15077.15
480.78	15030.04
480.99	15329.05
481.20	15175.45
481.41	15443.73
481.61	15683.34
481.82	15539.99
482.03	15902.48
482.23	15615.76
482.44	16013.07
482.65	16148.23
482.85	15976.20
483.06	15988.49
483.27	16385.80
483.47	16224.01
483.68	16350.98
483.89	16729.86
484.09	16441.09
484.30	16576.26
484.51	16785.15
484.71	17002.24
484.92	16889.60
485.13	17354.49
485.33	17075.96
485.54	17342.20
485.75	17381.11
485.95	17547.00
486.16	17604.34
486.37	17745.65
486.57	17708.79
486.78	17762.03
486.98	18038.51
487.19	17962.73
487.40	18153.20
487.60	18145.00
487.81	18378.47
488.02	18122.48
488.22	18362.09
488.43	18570.98
488.64	18724.58
488.84	18726.63
489.05	19181.28
489.25	18988.77
489.46	18972.38
489.67	19177.18
489.87	19386.07
490.08	19228.38
490.29	19271.39
490.49	19396.31
490.70	19699.41
490.90	19990.22
491.11	19734.23
491.32	19625.68
491.52	19893.97
491.73	19990.22
491.94	20201.16
492.14	19828.43
492.35	20268.75
492.55	20653.76
492.76	20543.17
492.97	20543.17
493.17	20813.51
493.38	20768.45
493.58	20967.10
493.79	21190.33
494.00	20639.43
494.20	20985.54
494.41	21317.31
494.61	21399.23
494.82	21292.73
495.02	21417.66
495.23	21518.01
495.44	21653.17
495.64	21649.08
495.85	21716.66
496.05	22132.40
496.26	21792.44
496.47	21997.23
496.67	21958.32
496.88	22220.46
497.08	22032.05
497.29	22406.83
497.49	22281.90
497.70	22558.38
497.91	22683.30
498.11	22679.21
498.32	22824.61
498.52	22744.74
498.73	23215.77
498.93	22949.54
499.14	23062.18
499.34	23053.98
499.55	23113.38
499.76	23213.73
499.96	23213.73
500.17	23293.60
500.37	23350.94
500.58	23715.48
500.78	23651.99
500.99	23955.09
501.19	24045.20
501.40	23615.13
501.60	23852.69
501.81	23813.78
502.02	23797.40
502.22	23613.08
502.43	24215.18
502.63	24225.42
502.84	23930.51
503.04	24266.38
503.25	24397.45
503.45	24290.96
503.66	24712.84
503.86	24264.33
504.07	24776.33
504.27	24444.56
504.48	24825.48
504.68	24575.62
504.89	25003.65
505.09	25042.56
505.30	25058.95
505.50	24876.68
505.71	24909.44
505.91	25046.66
506.12	25134.72
506.32	25024.13
506.53	25167.49
506.73	25312.89
506.94	25396.86
507.14	25474.68
507.35	25470.59
507.55	25511.55
507.76	25685.62
507.96	25460.35
508.17	25390.72
508.37	25671.29
508.58	25761.40
508.78	25933.43
508.99	25974.39
509.19	25992.82
509.40	26220.14
509.60	25919.09
509.81	26015.35
510.01	25945.72
510.22	26076.79
510.42	26300.01
510.63	26011.25
510.83	26091.12
511.04	26011.25
511.24	26490.48
511.44	26705.51
511.65	26412.65
511.85	26562.15
512.06	26404.46
512.26	26828.39
512.47	26728.04
512.67	26889.83
512.88	26715.75
513.08	26152.56
513.29	26809.96
513.49	26814.05
513.69	27149.92
513.90	26529.39
514.10	26961.51
514.31	26846.82
514.51	27143.78
514.72	27031.14
514.92	27004.52
515.13	26967.65
515.33	27139.68
515.53	27123.30
515.74	27283.04
515.94	27670.11
516.15	27254.37
516.35	27410.01
516.56	27475.55
516.76	27590.24
516.96	27512.41
517.17	27659.87
517.37	27340.38
517.58	27506.27
517.78	28085.84
517.99	27868.76
518.19	27655.77
518.39	27856.47
518.60	28046.93
518.80	28147.28
519.01	28120.66
519.21	28134.99
519.41	28261.97
519.62	27960.92
519.82	28221.01
520.03	28554.83
520.23	28536.40
520.43	28485.20
520.64	28853.83
520.84	28589.64
521.05	28589.64
521.25	28737.10
521.45	28759.63
521.66	28939.85
521.86	29091.40
522.07	28898.89
522.27	29150.79
522.47	28870.22
522.68	29320.77
522.88	29347.39
523.08	29326.91
523.29	29617.72
523.49	29357.63
523.70	29593.15
523.90	29812.28
524.10	29804.09
524.31	29949.50
524.51	29363.78
524.71	30264.88
524.92	29597.24
525.12	30068.28
525.33	30250.55
525.53	30148.15
525.73	30209.59
525.94	30221.87
526.14	30436.91
526.34	30486.06
526.55	30752.30
526.75	30395.95
526.95	30660.14
527.16	30981.67
527.36	30660.14
527.56	30631.47
527.77	31311.39
527.97	31094.31
528.17	31141.41
528.38	31284.77
528.58	31637.02
528.78	31657.50
528.99	31288.87
529.19	31864.35
529.39	31403.55
529.60	31860.25
529.80	31448.61
530.00	31989.27
530.21	31985.18
530.41	32114.20
530.61	31938.07
530.82	32208.40
531.02	32118.29
531.22	32407.06
531.43	32034.33
531.63	32347.67
531.83	32538.13
532.04	32824.84
532.24	32648.72
532.44	32888.33
532.64	32933.39
532.85	33211.91
533.05	33019.40
533.25	33242.63
533.46	33310.21
533.66	33781.24
533.86	33547.78
534.07	34317.81
534.27	33902.07
534.47	34133.50
534.67	34305.52
534.88	33732.09
535.08	33914.36
535.28	34514.42
535.49	34369.01
535.69	34788.85
535.89	34729.45
536.09	34977.26
536.30	35067.37
536.50	34661.87
536.70	35243.49
536.91	34924.01
537.11	34946.54
537.31	35325.41
537.51	35325.41
537.72	35833.31
537.92	35948.00
538.12	35610.08
538.32	35309.03
538.53	36052.44
538.73	35757.53
538.93	35798.49
539.13	36097.50
539.34	36027.87
539.54	35821.02
539.74	36337.11
539.94	36165.08
540.15	36099.55
540.35	36595.15
540.55	36382.16
540.75	36351.45
540.96	36339.16
541.16	36554.19
541.36	36457.94
541.56	36840.91
541.77	37146.06
541.97	37131.72
542.17	37240.26
542.37	37154.25
542.58	37483.97
542.78	36965.84
542.98	37463.49
543.18	37711.30
543.38	37815.74
543.59	38073.79
543.79	37348.81
543.99	37776.83
544.19	38061.50
544.40	37975.48
544.60	38192.57
544.80	38448.57
545.00	38387.13
545.20	38821.30
545.41	38327.74
545.61	38462.90
545.81	39013.80
546.01	38983.09
546.21	38659.51
546.42	38696.37
546.62	39384.49
546.82	38972.85
547.02	38981.04
547.22	39052.72
547.43	38737.33
547.63	39339.43
547.83	39290.28
548.03	39400.87
548.23	39382.44
548.44	39437.73
548.64	39308.71
548.84	39722.40
549.04	39435.69
549.24	40066.46
549.45	39964.06
549.65	39624.10
549.85	39767.46
550.05	39955.87
550.25	39986.59
550.45	40691.09
550.66	40150.43
550.86	40248.73
551.06	40770.96
551.26	40621.46
551.46	40410.52
551.66	40867.22
551.87	40770.96
552.07	40965.52
552.27	40873.36
552.47	41010.57
552.67	41350.54
552.87	40750.48
553.07	41334.15
553.28	41262.47
553.48	41305.48
553.68	41129.36
553.88	41457.03
554.08	41258.38
554.28	41444.74
554.48	41459.08
554.69	41790.85
554.89	41131.40
555.09	41600.39
555.29	41545.09
555.49	41596.29
555.69	41581.96
555.89	42165.63
556.10	42239.36
556.30	41639.30
556.50	42020.22
556.70	41780.61
556.90	42435.96
557.10	42452.34
557.30	42204.54
557.50	42620.28
557.70	42472.82
557.91	42661.24
558.11	42628.47
558.31	42878.32
558.51	42481.02
558.71	42853.75
558.91	42906.99
559.11	42476.92
559.31	42702.20
559.51	42759.54
559.72	42818.93
559.92	43013.49
560.12	43074.93
560.32	43189.61
560.52	42894.71
560.72	43222.38
560.92	43308.40
561.12	43095.41
561.32	43722.08
561.52	43152.75
561.72	43564.39
561.93	43263.34
562.13	43105.65
562.33	43246.96
562.53	44027.23
562.73	43625.83
562.93	43541.86
563.13	43689.32
563.33	43683.17
563.53	43687.27
563.73	43582.82
563.93	43965.79
564.13	44193.12
564.33	44146.01
564.53	44164.45
564.74	43863.39
564.94	44301.66
565.14	44193.12
565.34	44004.70
565.54	44160.35
565.74	44227.93
565.94	44518.74
566.14	44186.97
566.34	44133.73
566.54	44727.64
566.74	44318.04
566.94	44449.11
567.14	44735.83
567.34	44148.06
567.54	45032.78
567.74	44881.24
567.94	44827.99
568.14	45342.03
568.34	45020.50
568.54	44905.81
568.74	45204.81
568.94	44879.19
569.14	45694.28
569.34	45325.64
569.54	45098.32
569.75	44756.31
569.95	45469.00
570.15	45604.17
570.35	45047.12
570.55	44989.78
570.75	45225.29
570.95	45575.50
571.15	45503.82
571.35	45438.28
571.55	45757.77
571.75	45602.12
571.95	45567.30
572.15	45546.82
572.35	45522.25
572.55	45397.32
572.75	45618.50
572.95	45952.32
573.15	45868.36
573.35	45782.34
573.55	45700.42
573.75	46159.17
573.95	46423.36
574.15	46091.58
574.35	46159.17
574.55	46177.60
574.75	46064.96
574.95	46642.49
575.15	46196.03
575.34	46245.18
575.54	46665.02
575.74	46511.42
575.94	46720.31
576.14	46505.27
576.34	46921.01
576.54	46953.78
576.74	46654.78
576.94	46787.89
577.14	46830.90
577.34	46904.63
577.54	46392.64
577.74	47047.99
577.94	46966.07
578.14	47146.29
578.34	47111.47
578.54	46757.17
578.74	46886.20
578.94	47336.75
579.14	47258.93
579.34	47273.26
579.54	47248.69
579.74	47510.83
579.94	47400.24
580.13	47887.65
580.33	47910.18
580.53	47928.61
580.73	47742.25
580.93	47437.10
581.13	47578.41
581.33	47940.90
581.53	47998.24
581.73	47559.98
581.93	48295.20
582.13	48229.66
582.33	48241.95
582.53	47623.47
582.73	48071.97
582.92	48117.03
583.12	48549.15
583.32	48352.54
583.52	47940.90
583.72	48624.92
583.92	48366.88
584.12	48477.47
584.32	48637.21
584.52	48237.86
584.72	48649.50
584.92	49106.19
585.11	49214.74
585.31	48631.07
585.51	48743.70
585.71	48753.94
585.91	49075.48
586.11	48891.16
586.31	48403.74
586.51	48901.40
586.71	48813.34
586.91	49433.87
587.10	48755.99
587.30	48690.46
587.50	49233.17
587.70	49227.02
587.90	49327.38
588.10	49294.61
588.30	49241.36
588.50	49278.22
588.69	49470.73
588.89	48772.38
589.09	49419.53
589.29	49472.78
589.49	49425.68
589.69	49120.53
589.89	49964.29
590.08	49497.36
590.28	49280.27
590.48	49341.71
590.68	49620.23
590.88	49773.83
591.08	49218.83
591.28	49366.29
591.47	50337.02
591.67	49620.23
591.87	49802.50
592.07	50038.02
592.27	49902.85
592.47	49872.14
592.67	49988.87
592.86	49810.70
593.06	49943.81
593.26	50179.33
593.46	50257.15
593.66	50066.69
593.86	50367.74
594.05	50181.38
594.25	50355.46
594.45	50117.89
594.65	50455.81
594.85	49825.03
595.05	50525.44
595.24	50543.87
595.44	50328.83
595.64	50636.03
595.84	50429.18
596.04	50443.52
596.23	50660.60
596.43	50697.47
596.63	50248.96
596.83	50621.69
597.03	51002.61
597.22	51180.79
597.42	50826.49
597.62	51131.64
597.82	50484.48
598.02	50922.74
598.21	50951.41
598.41	50726.14
598.61	51045.62
598.81	50752.76
599.01	51389.68
599.20	51072.24
599.40	50906.36
599.60	51352.82
599.80	50855.16
600.00	51279.09
600.19	51594.48
600.39	50611.45
600.59	51434.74
600.79	51238.13
600.98	51385.58
601.18	51254.51
601.38	51631.34
601.58	51320.05
601.78	51664.11
601.97	51490.03
602.17	51786.99
602.37	52147.43
602.57	51983.59
602.76	51647.72
602.96	51811.56
603.16	52282.59
603.36	51922.15
603.55	52151.52
603.75	51594.48
603.95	52268.26
604.15	52557.02
604.34	52139.24
604.54	52204.77
604.74	52157.67
604.94	52024.55
605.13	52139.24
605.33	52344.03
605.53	51510.51
605.73	52382.94
605.92	51987.69
606.12	52561.12
606.32	52573.41
606.52	52380.90
606.71	52425.95
606.91	52374.75
607.11	52352.23
607.30	52251.87
607.50	52309.22
607.70	52589.79
607.90	52552.93
608.09	52456.67
608.29	52405.47
608.49	52878.55
608.68	52843.74
608.88	52565.21
609.08	52913.37
609.28	52983.00
609.47	52442.34
609.67	53122.26
609.87	53122.26
610.06	53175.51
610.26	52901.08
610.46	53109.97
610.66	52962.52
610.85	52966.62
611.05	52954.33
611.25	53013.72
611.44	52493.54
611.64	52757.72
611.84	52903.13
612.03	52976.86
612.23	53187.80
612.43	53230.80
612.62	52931.80
612.82	53249.24
613.02	53228.76
613.21	53255.38
613.41	52618.46
613.61	53187.80
613.80	53107.93
614.00	53032.15
614.20	53046.49
614.39	53044.44
614.59	53173.46
614.79	53130.45
614.98	53085.40
615.18	53513.42
615.38	52909.27
615.57	52925.66
615.77	53298.39
615.97	53245.14
616.16	52845.79
616.36	52890.84
616.56	53116.12
616.75	53257.43
616.95	52851.93
617.15	53249.24
617.34	52729.05
617.54	53224.66
617.74	53662.93
617.93	53294.29
618.13	53046.49
618.32	52970.71
618.52	52976.86
618.72	53282.00
618.91	52704.48
619.11	52997.34
619.31	52460.77
619.50	53073.11
619.70	52755.68
619.90	52884.70
620.09	53116.12
620.29	52860.12
620.48	52716.76
620.68	53390.55
620.88	52919.51
621.07	53169.36
621.27	53282.00
621.46	52929.75
621.66	52810.97
621.86	52987.10
622.05	52614.37
622.25	53535.95
622.44	53060.82
622.64	52868.31
622.84	53482.70
623.03	52886.74
623.23	53103.83
623.42	52948.18
623.62	53531.86
623.82	53566.67
624.01	52761.82
624.21	52983.00
624.40	53322.96
624.60	52950.23
624.80	52886.74
624.99	52917.46
625.19	52602.08
625.38	52933.85
625.58	52829.40
625.77	53419.22
625.97	52939.99
626.17	52860.12
626.36	52876.51
626.56	53253.33
626.75	52241.63
626.95	53511.38
627.14	52733.15
627.34	53531.86
627.54	52878.55
627.73	53396.69
627.93	53114.07
628.12	52653.28
628.32	53114.07
628.51	53091.54
628.71	53359.83
628.90	53083.35
629.10	53040.34
629.30	53220.56
629.49	53085.40
629.69	53386.45
629.88	52866.27
630.08	53136.60
630.27	53503.18
630.47	53228.76
630.66	53279.96
630.86	53400.79
631.05	52622.56
631.25	53628.11
631.44	53296.34
631.64	53386.45
631.84	53353.68
632.03	53636.30
632.23	53195.99
632.42	53740.75
632.62	53478.61
632.81	53044.44
633.01	53419.22
633.20	53697.74
633.40	53538.00
633.59	53327.06
633.79	53433.55
633.98	53542.10
634.18	53638.35
634.37	53433.55
634.57	53449.94
634.76	54062.28
634.96	53882.06
635.15	53621.97
635.35	53132.50
635.54	53253.33
635.74	53327.06
635.93	53400.79
636.13	53886.15
636.32	54228.16
636.52	53454.03
636.71	53693.64
636.91	53992.65
637.10	53939.40
637.30	54084.81
637.49	53494.99
637.69	53949.64
637.88	54013.13
638.08	53736.65
638.27	53949.64
638.46	54045.90
638.66	53812.43
638.85	53779.66
639.05	54072.52
639.24	53941.45
639.44	53730.51
639.63	54056.14
639.83	54140.10
640.02	53941.45
640.22	54029.51
640.41	54551.74
640.61	53802.19
640.80	54537.41
640.99	53890.25
641.19	54754.49
641.38	54340.80
641.58	54236.36
641.77	54203.59
641.97	54262.98
642.16	54549.70
642.36	54832.32
642.55	54854.84
642.74	54203.59
642.94	54924.47
643.13	54549.70
643.33	54533.31
643.52	54588.61
643.72	54858.94
643.91	54318.28
644.10	55399.60
644.30	55047.35
644.49	54738.11
644.69	54641.85
644.88	54717.63
645.08	54660.29
645.27	54404.29
645.46	55024.82
645.66	54820.03
645.85	54195.40
646.05	55076.02
646.24	55092.41
646.43	54932.67
646.63	55045.30
646.82	55217.33
647.02	55547.06
647.21	55469.23
647.40	55108.79
647.60	55389.36
647.79	55366.84
647.99	55497.91
648.18	55166.13
648.37	55882.92
648.57	55270.58
648.76	55166.13
648.96	55137.46
649.15	55225.53
649.34	55844.01
649.54	55409.84
649.73	55413.94
649.92	55923.88
650.12	55784.62
650.31	55919.79
650.51	56155.30
650.70	55710.89
650.89	55852.20
651.09	56382.63
651.28	56128.68
651.47	56253.61
651.67	56128.68
651.86	56007.85
652.06	55714.99
652.25	56116.39
652.44	55538.86
652.64	55637.17
652.83	55764.14
653.02	55880.88
653.22	55598.26
653.41	55801.00
653.60	55516.34
653.80	55835.82
653.99	56325.28
654.18	55676.08
654.38	56245.41
654.57	56302.76
654.76	55946.41
654.96	55911.59
655.15	56009.90
655.34	56089.77
655.54	55942.31
655.73	56302.76
655.92	56218.79
656.12	56358.05
656.31	56159.40
656.50	56161.45
656.70	56317.09
656.89	56313.00
657.08	56587.42
657.28	56396.96
657.47	56245.41
657.66	56390.82
657.86	56071.34
658.05	56614.05
658.24	56411.30
658.43	56259.75
658.63	57148.57
658.82	57257.11
659.01	56874.14
659.21	56947.87
659.40	56644.77
659.59	56642.72
659.79	57013.40
659.98	57076.89
660.17	56906.91
660.36	57185.43
660.56	56681.63
660.75	57183.38
660.94	56669.34
661.14	56757.41
661.33	56571.04
661.52	56374.44
661.71	57228.44
661.91	56827.04
662.10	56743.07
662.29	57027.74
662.49	56947.87
662.68	56571.04
662.87	57363.60
663.06	56994.97
663.26	56612.00
663.45	57169.05
663.64	56743.07
663.83	57336.98
664.03	56931.48
664.22	57287.83
664.41	57439.38
664.60	57259.16
664.80	57513.11
664.99	57224.34
665.18	57310.36
665.37	57574.55
665.57	57668.75
665.76	57171.10
665.95	57398.42
666.14	57277.59
666.34	57349.27
666.53	57119.90
666.72	57103.51
666.91	57480.34
667.11	57210.01
667.30	57205.91
667.49	56943.77
667.68	56994.97
667.87	57353.36
668.07	57244.82
668.26	57193.62
668.45	57828.49
668.64	57095.32
668.84	57775.25
669.03	57943.18
669.22	57281.69
669.41	56956.06
669.60	57685.14
669.80	57017.50
669.99	57992.33
670.18	57156.76
670.37	57472.15
670.57	57726.10
670.76	57066.65
670.95	57740.43
671.14	57824.40
671.33	57218.20
671.53	57447.57
671.72	57816.21
671.91	57853.07
672.10	57519.25
672.29	57728.14
672.48	57183.38
672.68	57744.53
672.87	57351.32
673.06	57302.17
673.25	57283.73
673.44	57660.56
673.64	57207.96
673.83	57242.77
674.02	57484.43
674.21	57296.02
674.40	57681.04
674.59	57181.34
674.79	57160.86
674.98	57066.65
675.17	57652.37
675.36	57074.84
675.55	57463.96
675.74	57324.69
675.94	57072.79
676.13	57400.47
676.32	57431.19
676.51	57873.55
676.70	57304.21
676.89	57525.39
677.08	58025.10
677.28	57554.07
677.47	58061.96
677.66	58123.40
677.85	56939.68
678.04	57439.38
678.23	57681.04
678.42	57515.15
678.62	57167.00
678.81	57574.55
679.00	57164.95
679.19	57615.50
679.38	57611.41
679.57	57121.94
679.76	57218.20
679.96	57670.80
680.15	57767.05
680.34	57365.65
680.53	57404.56
680.72	57672.85
680.91	57521.30
681.10	57210.01
681.29	57883.79
681.48	57179.29
681.68	57273.49
681.87	57085.08
682.06	56972.44
682.25	56632.48
682.44	57365.65
682.63	58037.39
682.82	57021.59
683.01	57089.18
683.20	57130.14
683.39	57443.48
683.59	56970.39
683.78	57017.50
683.97	56775.84
684.16	56544.42
684.35	56923.29
684.54	56810.65
684.73	56784.03
684.92	56685.73
685.11	56759.45
685.30	56644.77
685.49	56857.76
685.69	56751.26
685.88	57042.07
686.07	56714.40
686.26	56876.19
686.45	56865.95
686.64	56824.99
686.83	56806.56
687.02	56800.41
687.21	56943.77
687.40	56689.82
687.59	56804.51
687.78	56601.76
687.97	56849.56
688.16	56562.85
688.35	56181.93
688.54	56499.36
688.74	56612.00
688.93	56112.30
689.12	56319.14
689.31	56640.67
689.50	56712.35
689.69	56218.79
689.88	55817.39
690.07	56394.92
690.26	56442.02
690.45	57001.11
690.64	56595.62
690.83	56169.64
691.02	55827.63
691.21	56358.05
691.40	56069.29
691.59	56151.21
691.78	56042.66
691.97	56163.50
692.16	55909.55
692.35	56544.42
692.54	55991.47
692.73	56564.90
692.92	56333.48
693.11	56364.20
693.30	55932.07
693.49	56198.31
693.68	55575.73
693.87	55860.40
694.06	55911.59
694.25	55852.20
694.44	55616.69
694.63	55649.45
694.82	56202.41
695.01	55602.35
695.20	55696.56
695.39	55383.22
695.58	55446.71
695.77	55368.88
695.96	55514.29
696.15	55733.42
696.34	55635.12
696.53	55325.88
696.72	55379.12
696.91	55727.28
697.10	55760.05
697.29	55182.52
697.48	55649.45
697.67	55002.30
697.86	54723.77
698.05	55057.59
698.24	55297.20
698.43	54756.54
698.62	55200.95
698.81	54797.50
699.00	55411.89
699.19	55051.45
699.38	55315.64
699.57	54570.18
699.76	55690.41
699.95	54924.47
700.14	54695.10
700.32	54705.34
700.51	54777.02
700.70	55289.01
700.89	55022.78
701.08	55237.81
701.27	54596.80
701.46	54899.90
701.65	54174.92
701.84	55071.93
702.03	54541.50
702.22	54453.44
702.41	54375.62
702.60	54297.80
702.79	54027.46
702.98	54244.55
703.17	54666.43
703.35	54049.99
703.54	54105.29
703.73	54422.72
703.92	53851.34
704.11	54072.52
704.30	54023.37
704.49	54154.44
704.68	53658.83
704.87	53630.16
705.06	53746.89
705.25	53662.93
705.43	53972.17
705.62	53875.91
705.81	53628.11
706.00	53859.53
706.19	53781.71
706.38	53404.88
706.57	53341.39
706.76	53388.50
706.95	53593.29
707.14	53230.80
707.32	53042.39
707.51	53247.19
707.70	53327.06
707.89	53290.19
708.08	53286.10
708.27	53032.15
708.46	53896.39
708.65	53009.62
708.84	52987.10
709.02	52896.98
709.21	53066.97
709.40	53228.76
709.59	52786.39
709.78	52511.97
709.97	53044.44
710.16	52710.62
710.34	52765.91
710.53	52643.04
710.72	52327.65
710.91	53146.84
711.10	52780.25
711.29	52477.15
711.48	52657.37
711.66	52231.40
711.85	52092.13
712.04	52305.12
712.23	52550.88
712.42	52303.07
712.61	52684.00
712.80	52042.98
712.98	52569.31
713.17	51940.58
713.36	51934.44
713.55	52182.24
713.74	51760.36
713.93	52139.24
714.11	51811.56
714.30	51985.64
714.49	51623.15
714.68	51991.78
714.87	51983.59
715.06	51694.83
715.24	51846.38
715.43	51524.85
715.62	51520.75
715.81	51055.86
716.00	51639.53
716.18	51459.31
716.37	50984.18
716.56	51105.01
716.75	51420.40
716.94	51031.29
717.12	50752.76
717.31	51365.10
717.50	51029.24
717.69	50951.41
717.88	50998.52
718.06	51082.48
718.25	51131.64
718.44	50959.61
718.63	50760.95
718.82	50574.59
719.00	50357.50
719.19	50420.99
719.38	50441.47
719.57	49921.29
719.76	49634.57
719.94	49958.15
720.13	49990.92
720.32	50087.17
720.51	50136.32
720.69	49870.09
720.88	50017.54
721.07	49521.93
721.26	49605.90
721.44	49855.75
721.63	49470.73
721.82	49251.60
722.01	49034.52
722.20	49646.86
722.38	49575.18
722.57	49024.28
722.76	49458.45
722.95	49364.24
723.13	48702.74
723.32	49331.47
723.51	48622.87
723.70	48471.32
723.88	48776.47
724.07	48856.34
724.26	49022.23
724.44	48350.49
724.63	48776.47
724.82	48694.55
725.01	48512.28
725.19	48682.27
725.38	48301.34
725.57	48227.62
725.76	48383.26
725.94	48373.02
726.13	48176.42
726.32	48088.35
726.51	47951.14
726.69	48776.47
726.88	48160.03
727.07	48352.54
727.25	47650.09
727.44	48041.25
727.63	47926.56
727.82	47949.09
728.00	47781.16
728.19	47881.51
728.38	48411.93
728.56	47609.13
728.75	48131.36
728.94	48248.10
729.12	47953.19
729.31	47744.30
729.50	47611.18
729.69	47758.63
729.87	47830.31
730.06	47600.94
730.25	47701.29
730.43	48086.31
730.62	47660.33
730.81	47623.47
730.99	47648.04
731.18	47721.77
731.37	47451.44
731.55	47572.27
731.74	47945.00
731.93	47703.34
732.11	47764.78
732.30	47668.52
732.49	47164.72
732.67	47666.47
732.86	47568.17
733.05	47340.85
733.23	47613.23
733.42	47299.89
733.61	47545.64
733.79	47559.98
733.98	47607.08
734.17	47265.07
734.35	47439.15
734.54	47422.76
734.73	47822.12
734.91	47465.77
735.10	46812.47
735.29	47185.20
735.47	47013.17
735.66	47045.94
735.84	47050.03
736.03	47080.75
736.22	47203.63
736.40	47140.14
736.59	47316.27
736.78	47373.61
736.96	46765.37
737.15	46708.02
737.33	46812.47
737.52	46716.22
737.71	46912.82
737.89	46474.55
738.08	46335.29
738.27	46189.89
738.45	46943.54
738.64	46691.64
738.82	46697.78
739.01	46454.08
739.20	46505.27
739.38	46613.82
739.57	46611.77
739.75	46417.21
739.94	46112.06
740.13	46579.00
740.31	46052.67
740.50	46275.90
740.68	46083.39
740.87	46349.63
741.06	46351.68
741.24	45987.14
741.43	45681.99
741.61	46167.36
741.80	46619.96
741.99	46028.10
742.17	45950.27
742.36	45919.56
742.54	45757.77
742.73	45733.19
742.91	45698.37
743.10	45434.19
743.29	45790.53
743.47	46021.95
743.66	45303.12
743.84	45675.85
744.03	45407.56
744.21	45423.95
744.40	46019.91
744.59	45225.29
744.77	45348.17
744.96	45716.81
745.14	45700.42
745.33	45765.96
745.51	45387.08
745.70	45438.28
745.88	44791.12
746.07	45438.28
746.26	45133.14
746.44	45241.68
746.63	45296.97
746.81	45641.03
747.00	44791.12
747.18	45165.90
747.37	45225.29
747.55	45176.14
747.74	45589.83
747.92	44715.35
748.11	45321.55
748.29	45204.81
748.48	44922.19
748.66	44760.40
748.85	44805.46
749.03	44805.46
749.22	44914.00
749.41	44580.18
749.59	45016.40
749.78	44371.29
749.96	44008.80
750.15	44506.46
750.33	44580.18
750.52	44066.14
750.70	44139.87
750.89	43973.98
751.07	44213.60
751.26	44035.42
751.44	44365.15
751.63	44629.34
751.81	44283.23
752.00	44199.26
752.18	44393.82
752.37	43937.12
752.55	43658.60
752.74	43789.67
752.92	44184.93
753.10	43861.35
753.29	44090.72
753.47	43687.27
753.66	43783.52
753.84	43744.61
754.03	43728.23
754.21	43414.89
754.40	44070.24
754.58	43406.70
754.77	43271.53
754.95	43527.53
755.14	43439.47
755.32	43326.83
755.51	43638.12
755.69	43402.60
755.88	43314.54
756.06	43267.44
756.24	42993.01
756.43	43253.10
756.61	43447.66
756.80	43445.61
756.98	43117.93
757.17	43300.20
757.35	42952.05
757.54	43177.33
757.72	43253.10
757.90	42878.32
758.09	43062.64
758.27	43050.35
758.46	42786.16
758.64	42472.82
758.83	42685.81
759.01	43011.44
759.19	42739.06
759.38	42456.44
759.56	43203.95
759.75	42900.85
759.93	42677.62
760.12	42610.04
760.30	42653.05
760.48	42790.26
760.67	42558.84
760.85	42786.16
761.04	42192.25
761.22	42071.42
761.40	42519.93
761.59	42446.20
761.77	42321.27
761.96	42128.77
762.14	41985.41
762.32	41985.41
762.51	41756.03
762.69	41770.37
762.88	41977.22
763.06	41874.82
763.24	42100.09
763.43	42130.81
763.61	41784.71
763.80	41993.60
763.98	41285.00
764.16	41487.75
764.35	41850.24
764.53	41252.23
764.72	41571.72
764.90	41526.66
765.08	41608.58
765.27	41442.70
765.45	41633.16
765.63	41221.52
765.82	41579.91
766.00	41090.44
766.18	41336.20
766.37	41506.18
766.55	41076.11
766.74	40965.52
766.92	41352.58
767.10	41164.17
767.29	40680.85
767.47	40990.09
767.65	41020.81
767.84	40877.46
768.02	41035.15
768.20	40740.24
768.39	40928.66
768.57	41031.05
768.75	40922.51
768.94	41213.32
769.12	41096.59
769.30	40635.80
769.49	40469.91
769.67	40332.70
769.85	40086.94
770.04	40494.49
770.22	40312.22
770.40	40269.21
770.59	40070.56
770.77	39966.11
770.95	40500.63
771.14	40371.61
771.32	39671.20
771.50	39849.38
771.69	39828.90
771.87	40211.87
772.05	40062.36
772.24	39798.18
772.42	40062.36
772.60	39957.92
772.78	39818.66
772.97	39525.80
773.15	39968.16
773.33	39765.41
773.52	39697.83
773.70	40048.03
773.88	40132.00
774.07	39531.94
774.25	39794.08
774.43	40279.45
774.61	39562.66
774.80	39615.91
774.98	39538.08
775.16	39558.56
775.34	39431.59
775.53	39622.05
775.71	40175.00
775.89	39992.73
776.08	40152.48
776.26	39906.72
776.44	40140.19
776.62	39673.25
776.81	39859.62
776.99	40072.60
777.17	39681.44
777.35	40125.85
777.54	40582.55
777.72	39937.44
777.90	40254.87
778.08	40400.28
778.27	39980.45
778.45	40289.69
778.63	40531.35
778.81	40410.52
779.00	40566.16
779.18	40373.66
779.36	40779.15
779.54	40437.14
779.73	40365.46
779.91	40494.49
780.09	40283.55
780.27	40633.75
780.46	40557.97
780.64	40869.26
780.82	40428.95
781.00	40586.64
781.19	40846.74
781.37	41117.07
781.55	40465.81
781.73	40871.31
781.91	40447.38
782.10	41020.81
782.28	40564.12
782.46	40701.33
782.64	40965.52
782.82	40865.17
783.01	40840.59
783.19	41233.80
783.37	40662.42
783.55	40818.07
783.74	41049.49
783.92	40457.62
784.10	41252.23
784.28	40854.93
784.46	40967.57
784.64	40535.45
784.83	40928.66
785.01	41112.97
785.19	40678.80
785.37	40832.40
785.55	40912.27
785.74	40551.83
785.92	40891.79
786.10	41031.05
786.28	41164.17
786.46	40854.93
786.64	40402.33
786.83	40494.49
787.01	40740.24
787.19	40592.79
787.37	40756.63
787.55	40527.25
787.74	41020.81
787.92	40711.57
788.10	40246.68
788.28	40160.67
788.46	40775.06
788.64	40101.28
788.82	40777.11
789.01	40248.73
789.19	40353.18
789.37	39998.88
789.55	40367.51
789.73	39914.91
789.91	39851.42
790.09	39880.10
790.28	40129.95
790.46	39632.29
790.64	39957.92
790.82	39763.36
791.00	39529.89
791.18	40074.65
791.36	39407.01
791.55	39929.25
791.73	39577.00
791.91	39460.26
792.09	39423.40
792.27	39284.14
792.45	39343.53
792.63	39431.59
792.81	39484.84
793.00	39105.96
793.18	38852.02
793.36	38813.10
793.54	38821.30
793.72	38663.60
793.90	38528.44
794.08	38624.69
794.26	38731.18
794.44	38540.72
794.62	38153.66
794.81	38596.02
794.99	38596.02
795.17	38401.46
795.35	38475.19
795.53	38292.92
795.71	38411.70
795.89	38020.54
796.07	37877.18
796.25	37549.51
796.43	37420.48
796.61	37754.30
796.80	37420.48
796.98	37594.56
797.16	37258.70
797.34	36978.12
797.52	37281.22
797.70	37989.82
797.88	37295.56
798.06	37006.80
798.24	37400.01
798.42	37305.80
798.60	36847.05
798.78	36941.26
798.96	37193.16
799.14	36814.29
799.32	36781.52
799.51	36822.48
799.69	36490.71
799.87	36468.18
800.05	36236.76
800.23	36034.01
800.41	36173.27
800.59	36210.14
800.77	35782.11
800.95	35933.66
801.13	36183.51
801.31	35773.92
801.49	35941.85
801.67	35511.78
801.85	35653.09
802.03	35720.67
802.21	35393.00
802.39	35378.66
802.57	35476.96
802.75	35390.95
802.93	35241.45
803.11	35272.17
803.29	35059.18
803.47	34973.16
803.65	35151.34
803.83	35012.07
804.01	35106.28
804.19	34418.16
804.37	34412.02
804.55	34393.59
804.73	34620.91
804.91	34692.59
805.09	34600.43
805.27	34485.75
805.45	34518.51
805.63	34424.31
805.81	34379.25
805.99	34149.88
806.17	34354.68
806.35	34254.33
806.53	33752.57
806.71	34215.41
806.89	34098.68
807.07	33795.58
807.25	34008.57
807.43	33650.17
807.61	33949.18
807.79	33713.66
807.97	33535.49
808.15	33588.74
808.33	33129.99
808.51	33402.37
808.69	33201.67
808.87	33035.78
809.05	33076.74
809.23	32816.65
809.41	32679.44
809.59	32843.27
809.77	33015.30
809.95	32697.87
810.13	32738.83
810.31	32794.12
810.49	32863.75
810.67	32294.42
810.84	32587.28
811.02	32708.11
811.20	32382.48
811.38	32179.73
811.56	32110.10
811.74	32468.50
811.92	31921.69
812.10	32026.14
812.28	32355.86
812.46	31843.87
812.64	32269.84
812.82	31675.93
813.00	31704.60
813.18	31817.24
813.36	31532.57
813.53	31686.17
813.71	31663.64
813.89	31536.67
814.07	31907.35
814.25	31770.14
814.43	31544.86
814.61	31077.93
814.79	31047.21
814.97	31321.63
815.15	31626.78
815.33	30850.60
815.50	31049.25
815.68	31305.25
815.86	31331.87
816.04	30729.77
816.22	30936.62
816.40	30604.84
816.58	30733.87
816.76	30678.57
816.94	30766.63
817.11	30524.97
817.29	30400.05
817.47	30717.48
817.65	30318.13
817.83	30447.15
818.01	30324.27
818.19	30457.39
818.37	30191.16
818.54	29773.37
818.72	29799.99
818.90	30367.28
819.08	29986.36
819.26	29894.20
819.44	29976.12
819.62	30129.72
819.80	30146.10
819.97	29978.17
820.15	29439.55
820.33	29929.02
820.51	30019.13
820.69	29234.75
820.87	29873.72
821.05	29988.41
821.22	29701.69
821.40	29584.96
821.58	29052.48
821.76	29537.85
821.94	29326.91
822.12	29503.04
822.29	29595.20
822.47	29152.84
822.65	29832.76
822.83	29367.87
823.01	29355.58
823.19	29005.38
823.36	28937.80
823.54	29040.20
823.72	28927.56
823.90	28870.22
824.08	28759.63
824.25	28939.85
824.43	28671.56
824.61	28970.57
824.79	28638.80
824.97	28741.19
825.15	28882.50
825.32	28698.19
825.50	28442.19
825.68	28352.08
825.86	28800.58
826.04	28640.84
826.21	28528.20
826.39	28474.96
826.57	28087.89
826.75	28524.11
826.93	28319.31
827.10	28227.15
827.28	28272.21
827.46	28499.53
827.64	28249.68
827.81	28292.69
827.99	28446.29
828.17	27823.70
828.35	28108.37
828.53	27926.10
828.70	28069.46
828.88	27373.15
829.06	28075.60
829.24	28008.02
829.41	27604.57
829.59	28057.17
829.77	27874.90
829.95	27885.14
830.12	27522.65
830.30	27469.40
830.48	27618.91
830.66	27762.26
830.84	27731.54
831.01	27745.88
831.19	27584.09
831.37	27428.45
831.55	27504.22
831.72	27276.90
831.90	27389.53
832.08	27625.05
832.25	27506.27
832.43	27240.03
832.61	27168.35
832.79	27076.19
832.96	26650.22
833.14	26924.65
833.32	27223.65
833.50	27088.48
833.67	27158.11
833.85	26916.45
834.03	26904.17
834.20	27293.28
834.38	26904.17
834.56	26832.49
834.74	26771.05
834.91	26650.22
835.09	26764.90
835.27	26664.55
835.44	26519.15
835.62	26156.66
835.80	26273.39
835.98	26420.84
836.15	26463.85
836.33	26476.14
836.51	26889.83
836.68	26320.49
836.86	26252.91
837.04	26431.08
837.21	26340.97
837.39	26488.43
837.57	26584.68
837.75	26742.38
837.92	26246.77
838.10	26236.53
838.28	25861.75
838.45	25902.71
838.63	25802.36
838.81	26224.24
838.98	25966.20
839.16	25759.35
839.34	25892.47
839.51	26189.42
839.69	25341.57
839.87	25603.71
840.04	25712.25
840.22	25728.63
840.40	25386.62
840.57	25450.11
840.75	25628.28
840.93	25642.62
841.10	25470.59
841.28	25812.60
841.46	25308.80
841.63	25702.01
841.81	25255.55
841.98	25202.30
842.16	25282.17
842.34	25507.45
842.51	25069.19
842.69	25597.56
842.87	25403.00
843.04	25165.44
843.22	24843.91
843.40	25001.60
843.57	24792.71
843.75	24897.16
843.92	25296.51
844.10	25087.62
844.28	25194.11
844.45	25022.08
844.63	25341.57
844.81	24946.31
844.98	25138.82
845.16	24561.29
845.33	24831.62
845.51	25206.40
845.69	24651.40
845.86	24684.17
846.04	24528.52
846.21	24452.75
846.39	24571.53
846.57	24372.88
846.74	24647.30
846.92	24448.65
847.09	24391.31
847.27	23848.60
847.45	24499.85
847.62	24458.89
847.80	24301.20
847.97	24153.74
848.15	24477.32
848.32	24102.54
848.50	24168.08
848.68	24186.51
848.85	23914.13
849.03	23824.02
849.20	24178.32
849.38	24020.63
849.56	23991.95
849.73	23690.90
849.91	23969.43
850.08	24084.11
850.26	23674.52
850.43	24080.02
850.61	24151.70
850.78	23506.59
850.96	23621.27
851.14	23639.70
851.31	23805.59
851.49	23611.03
851.66	23797.40
851.84	23535.26
852.01	23697.05
852.19	23654.04
852.36	23457.43
852.54	23785.11
852.71	23568.02
852.89	23314.08
853.07	23787.16
853.24	23598.74
853.42	23408.28
853.59	23527.06
853.77	23211.68
853.94	23496.35
854.12	23346.84
854.29	23402.14
854.47	22972.07
854.64	23273.12
854.82	23133.86
854.99	23195.29
855.17	23109.28
855.34	23039.65
855.52	23172.77
855.69	23125.66
855.87	22818.47
856.04	22867.62
856.22	22769.32
856.39	22800.04
856.57	22793.89
856.74	22908.58
856.92	22890.15
857.09	22363.82
857.27	22718.12
857.44	23078.56
857.62	22470.31
857.79	22736.55
857.97	22886.05
858.14	22322.86
858.32	22681.25
858.49	22247.08
858.67	22292.14
858.84	22369.96
859.02	22488.74
859.19	22462.12
859.37	22126.25
859.54	22173.36
859.72	22009.52
859.89	22183.60
860.06	22374.06
860.24	22044.34
860.41	22238.89
860.59	21880.50
860.76	22386.35
860.94	21862.07
861.11	22154.93
861.29	22202.03
861.46	21829.30
861.64	21520.06
861.81	21923.51
861.98	21632.69
862.16	21780.15
862.33	21771.96
862.51	21618.36
862.68	21722.80
862.86	21638.84
863.03	21599.93
863.21	21546.68
863.38	21655.22
863.55	21589.69
863.73	21745.33
863.90	21348.03
864.08	21350.07
864.25	21485.24
864.43	21415.61
864.60	21212.86
864.77	21120.70
864.95	21151.42
865.12	20811.46
865.30	21151.42
865.47	21358.27
865.64	20997.82
865.82	21257.92
865.99	21223.10
866.17	20954.82
866.34	21163.71
866.51	20719.30
866.69	20942.53
866.86	20905.66
867.04	21006.02
867.21	20930.24
867.38	20786.88
867.56	20612.81
867.73	20487.88
867.91	20713.16
868.08	20678.34
868.25	20446.92
868.43	20551.37
868.60	20463.30
868.78	20256.46
868.95	20555.46
869.12	20399.82
869.30	20444.87
869.47	20410.06
869.64	20039.37
869.82	20446.92
869.99	20035.28
870.16	20592.33
870.34	20301.51
870.51	20315.85
870.69	20260.55
870.86	20291.27
871.03	20195.02
871.21	19885.78
871.38	20254.41
871.55	19971.79
871.73	19850.96
871.90	19779.28
872.07	19756.75
872.25	19408.60
872.42	19734.23
872.59	19695.32
872.77	20022.99
872.94	19486.42
873.11	19896.02
873.29	19857.10
873.46	19408.60
873.63	19701.46
873.81	19588.82
873.98	19267.29
874.15	19717.84
874.33	19234.52
874.50	19101.40
874.67	19334.87
874.85	19187.42
875.02	19193.56
875.19	19042.01
875.37	18980.57
875.54	18804.45
875.71	19197.66
875.88	19091.16
876.06	19035.87
876.23	18800.35
876.40	18943.71
876.58	18640.61
876.75	18527.97
876.92	18431.72
877.10	18855.65
877.27	18509.54
877.44	18378.47
877.61	18415.34
877.79	18521.83
877.96	18450.15
878.13	18521.83
878.31	18050.80
878.48	18353.90
878.65	18048.75
878.82	17964.78
879.00	18198.25
879.17	18253.55
879.34	18276.07
879.51	18116.33
879.69	18058.99
879.86	18116.33
880.03	18044.65
880.21	17854.19
880.38	17938.16
880.55	18167.53
880.72	17809.14
880.90	18099.95
881.07	17719.03
881.24	17542.90
881.41	17622.77
881.59	17776.37
881.76	17729.27
881.93	17499.89
882.10	17303.29
882.28	17501.94
882.45	17727.22
882.62	17663.73
882.79	17684.21
882.96	17379.06
883.14	17776.37
883.31	17594.10
883.48	17506.04
883.65	17397.49
883.83	17362.68
884.00	17284.86
884.17	17276.66
884.34	17266.42
884.51	17409.78
884.69	17266.42
884.86	17186.55
885.03	17282.81
885.20	17278.71
885.38	17307.38
885.55	17282.81
885.72	17129.21
885.89	16912.13
886.06	17104.64
886.24	16756.48
886.41	16779.01
886.58	17241.85
886.75	17278.71
886.92	16996.09
887.10	17092.35
887.27	16619.27
887.44	16703.23
887.61	16996.09
887.78	16828.16
887.95	16854.78
888.13	16649.99
888.30	16645.89
888.47	16686.85
888.64	16754.43
888.81	16994.04
888.99	16586.50
889.16	16637.70
889.33	16236.30
889.50	16137.99
889.67	16355.08
889.84	16445.19
890.01	16611.07
890.19	16518.92
890.36	16393.99
890.53	16283.40
890.70	16150.28
890.87	16240.39
891.04	16211.72
891.22	16041.74
891.39	16062.22
891.56	16258.82
891.73	16131.85
891.90	15914.77
892.07	16033.55
892.24	16174.86
892.42	16013.07
892.59	15738.64
892.76	15894.29
892.93	15927.05
893.10	15802.13
893.27	15847.18
893.44	15542.03
893.61	15869.71
893.79	16054.03
893.96	15732.50
894.13	16105.23
894.30	15705.87
894.47	15933.20
894.64	15714.06
894.81	15585.04
894.98	15642.39
895.15	15970.06
895.33	15804.17
895.50	15570.71
895.67	15851.28
895.84	15677.20
896.01	15517.46
896.18	15654.67
896.35	15640.34
896.52	15767.31
896.69	15374.10
896.86	15656.72
897.04	15464.21
897.21	15472.40
897.38	15511.32
897.55	15601.43
897.72	15724.30
897.89	15437.59
898.06	15585.04
898.23	15402.77
898.40	15511.32
898.57	15460.12
898.74	15476.50
898.91	15208.22
899.08	15630.10
899.26	15689.49
899.43	15550.23
899.60	15081.24
899.77	15429.40
899.94	15236.89
900.11	15240.98
900.28	15460.12
900.45	15138.58
900.62	15283.99
900.79	15589.14
900.96	15435.54
901.13	15396.63
901.30	15253.27
901.47	15312.66
901.64	15410.96
901.81	15435.54
901.98	15331.09
902.15	15480.60
902.32	15134.49
902.49	15374.10
902.66	15220.50
902.83	15230.74
903.01	15224.60
903.18	15501.08
903.35	15286.04
903.52	15267.61
903.69	15257.37
903.86	15392.53
904.03	15091.48
904.20	15331.09
904.37	15595.28
904.54	15095.58
904.71	15269.66
904.88	15187.74
905.05	15120.15
905.22	15169.30
905.39	14913.31
905.56	15015.71
905.73	15157.02
905.90	15122.20
906.07	15109.91
906.24	15191.83
906.41	15290.13
906.58	15116.06
906.75	15091.48
906.92	14995.23
907.09	15042.33
907.26	15302.42
907.43	14935.84
907.60	15138.58
907.77	14989.08
907.93	15308.57
908.10	15157.02
908.27	15163.16
908.44	14980.89
908.61	14870.30
908.78	14941.98
908.95	15077.15
909.12	14749.47
909.29	15138.58
909.46	15167.26
909.63	15310.61
909.80	15068.95
909.97	14972.70
910.14	14927.64
910.31	14964.51
910.48	14923.55
910.65	14968.60
910.82	14941.98
910.99	14911.26
911.16	14874.40
911.33	14939.93
911.50	14923.55
911.66	14772.00
911.83	14802.72
912.00	14749.47
912.17	14577.44
912.34	14878.49
912.51	14638.88
912.68	14477.09
912.85	14712.61
913.02	14886.68
913.19	14626.59
913.36	14393.12
913.53	14538.53
913.70	14300.97
913.86	14473.00
914.03	14446.37
914.20	14380.84
914.37	14579.49
914.54	14327.59
914.71	14425.89
914.88	14538.53
915.05	14438.18
915.22	14266.15
915.39	14235.43
915.55	14165.80
915.72	14069.55
915.89	14006.06
916.06	14024.49
916.23	13995.82
916.40	13971.24
916.57	13958.96
916.74	13946.67
916.91	13965.10
917.07	13776.69
917.24	13729.58
917.41	13612.85
917.58	13846.32
917.75	13713.20
917.92	13485.87
918.09	13690.67
918.26	13500.21
918.42	13592.37
918.59	13467.44
918.76	13104.95
918.93	13231.93
919.10	13160.25
919.27	13231.93
919.44	13539.12
919.60	13264.69
919.77	13270.84
919.94	13016.89
920.11	13088.57
920.28	13256.50
920.45	13004.60
920.61	12859.20
920.78	12910.40
920.95	12973.88
921.12	12910.40
921.29	12609.34
921.46	12959.55
921.62	12769.09
921.79	12662.59
921.96	12566.34
922.13	12660.54
922.30	12742.46
922.47	12689.21
922.63	12578.62
922.80	12296.00
922.97	12287.81
923.14	12033.86
923.31	12578.62
923.47	12226.37
923.64	12564.29
923.81	12089.16
923.98	11888.46
924.15	11947.85
924.32	11978.57
924.48	12025.67
924.65	12095.30
924.82	11771.72
924.99	11921.23
925.15	11675.47
925.32	11673.42
925.49	11839.31
925.66	11718.48
925.83	11669.33
925.99	11419.47
926.16	11442.00
926.33	11706.19
926.50	11396.95
926.67	11560.78
926.83	11108.18
927.00	11358.03
927.17	11120.47
927.34	11294.55
927.50	11247.44
927.67	11323.22
927.84	11016.02
928.01	10919.77
928.17	11069.27
928.34	10925.91
928.51	10860.38
928.68	10719.07
928.84	10923.87
929.01	10567.52
929.18	10843.99
929.35	10760.03
929.51	10846.04
929.68	10549.09
929.85	10399.59
930.02	10465.12
930.18	10276.71
930.35	10454.88
930.52	10358.63
930.69	10250.08
930.85	10180.45
931.02	10264.42
931.19	10266.47
931.36	10096.49
931.52	10045.29
931.69	10248.04
931.86	9957.22
932.02	10141.54
932.19	9881.45
932.36	9828.20
932.53	10104.68
932.69	9756.52
932.86	9891.69
933.03	9592.69
933.19	9422.70
933.36	9709.42
933.53	9584.49
933.70	9551.73
933.86	9348.98
934.03	9451.38
934.20	9291.63
934.36	9535.34
934.53	9148.28
934.70	9078.65
934.86	9068.41
935.03	8961.91
935.20	8951.67
935.36	8920.95
935.53	8867.70
935.70	8781.69
935.86	8959.86
936.03	8603.52
936.20	8406.91
936.36	8613.76
936.53	8451.97
936.70	8257.41
936.86	8466.30
937.03	8314.75
937.20	8138.63
937.36	8114.05
937.53	8015.75
937.70	7862.15
937.86	7923.59
938.03	7870.34
938.20	7833.48
938.36	7667.60
938.53	7612.30
938.70	7372.69
938.86	7389.07
939.03	7346.06
939.20	7282.58
939.36	7081.88
939.53	7122.84
939.70	7227.28
939.86	6805.40
940.03	6737.82
940.19	6666.14
940.36	6711.19
940.53	6627.23
940.69	6467.49
940.86	6578.08
941.03	6227.87
941.19	6277.02
941.36	6270.88
941.52	6150.05
941.69	6131.62
941.86	6178.72
942.02	5961.64
942.19	5996.45
942.35	6037.41
942.52	5879.72
942.69	5828.52
942.85	5797.80
943.02	5756.84
943.18	5910.44
943.35	5765.03
943.52	5724.07
943.68	5607.34
943.85	5676.97
944.01	5476.27
944.18	5468.08
944.35	5648.30
944.51	5463.98
944.68	5337.01
944.84	5351.34
945.01	5545.90
945.17	5347.25
945.34	5437.36
945.51	5504.94
945.67	5429.17
945.84	5300.14
946.00	5312.43
946.17	5330.86
946.33	5330.86
946.50	5287.86
946.67	5312.43
946.83	5334.96
947.00	5332.91
947.16	5330.86
947.33	5130.16
947.49	5126.07
947.66	5189.55
947.82	5240.75
947.99	5267.38
948.16	5216.18
948.32	5169.07
948.49	5128.11
948.65	5263.28
948.82	5169.07
948.98	5210.03
949.15	5027.76
949.31	5222.32
949.48	5277.62
949.64	5177.26
949.81	5207.98
949.97	5183.41
950.14	5447.60
950.30	5220.27
950.47	5304.24
950.63	5158.83
950.80	5263.28
950.96	5148.59
951.13	5154.74
951.30	5259.18
951.46	5339.05
951.63	5427.12
951.79	5146.55
951.96	5296.05
952.12	5312.43
952.29	5416.88
952.45	5132.21
952.62	5285.81
952.78	5322.67
952.94	5169.07
953.11	5109.68
953.27	5167.03
953.44	5316.53
953.60	5414.83
953.77	5291.95
953.93	5312.43
954.10	5250.99
954.26	5330.86
954.43	5236.66
954.59	5482.41
954.76	5408.69
954.92	5234.61
955.09	5238.70
955.25	5328.81
955.42	5347.25
955.58	5433.26
955.75	5396.40
955.91	5300.14
956.07	5302.19
956.24	5392.30
956.40	5457.84
956.57	5326.77
956.73	5203.89
956.90	5398.45
957.06	5345.20
957.23	5326.77
957.39	5312.43
957.56	5396.40
957.72	5205.94
957.88	5289.90
958.05	5398.45
958.21	5408.69
958.38	5341.10
958.54	5242.80
958.71	5502.89
958.87	5373.87
959.03	5308.34
959.20	5302.19
959.36	5443.50
959.53	5367.73
959.69	5291.95
959.85	5380.01
960.02	5302.19
960.18	5310.38
960.35	5242.80
960.51	5453.74
960.68	5291.95
960.84	5365.68
961.00	5228.46
961.17	5330.86
961.33	5343.15
961.50	5343.15
961.66	5406.64
961.82	5349.29
961.99	5259.18
962.15	5306.29
962.31	5302.19
962.48	5373.87
962.64	5353.39
962.81	5337.01
962.97	5365.68
963.13	5281.71
963.30	5339.05
963.46	5201.84
963.62	5322.67
963.79	5310.38
963.95	5162.93
964.12	5222.32
964.28	5214.13
964.44	5132.21
964.61	5265.33
964.77	5207.98
964.93	5238.70
965.10	5320.62
965.26	5232.56
965.42	5144.50
965.59	5107.63
965.75	5216.18
965.92	5236.66
966.08	5275.57
966.24	5146.55
966.41	5142.45
966.57	5201.84
966.73	5177.26
966.90	5244.85
967.06	5222.32
967.22	5148.59
967.39	5226.42
967.55	5035.96
967.71	5330.86
967.88	5101.49
968.04	5199.79
968.20	5040.05
968.37	5105.59
968.53	4949.94
968.69	5181.36
968.85	5134.26
969.02	5105.59
969.18	5060.53
969.34	5046.20
969.51	5060.53
969.67	5140.40
969.83	4937.65
970.00	4984.76
970.16	5078.96
970.32	4919.22
970.48	5103.54
970.65	4886.45
970.81	4915.12
970.97	5017.52
971.14	4880.31
971.30	4988.85
971.46	5001.14
971.63	4935.60
971.79	4908.98
971.95	5001.14
972.11	4753.34
972.28	4798.39
972.44	4933.56
972.60	4712.38
972.76	4915.12
972.93	4765.62
973.09	4820.92
973.25	4818.87
973.42	4796.34
973.58	4900.79
973.74	4802.49
973.90	4757.43
974.07	4747.19
974.23	4765.62
974.39	4782.01
974.55	4638.65
974.72	4790.20
974.88	4665.27
975.04	4784.06
975.20	4679.61
975.37	4743.10
975.53	4622.27
975.69	4640.70
975.85	4511.68
976.01	4583.35
976.18	4536.25
976.34	4626.36
976.50	4538.30
976.66	4665.27
976.83	4593.59
976.99	4710.33
977.15	4546.49
977.31	4390.84
977.47	4677.56
977.64	4583.35
977.80	4599.74
977.96	4493.24
978.12	4485.05
978.29	4503.48
978.45	4521.92
978.61	4515.77
978.77	4454.33
978.93	4476.86
979.10	4505.53
979.26	4550.59
979.42	4515.77
979.58	4331.45
979.74	4349.89
979.91	4444.09
980.07	4259.78
980.23	4470.72
980.39	4374.46
980.55	4368.32
980.71	4280.25
980.88	4360.13
981.04	4237.25
981.20	4358.08
981.36	4276.16
981.52	4319.17
981.68	4282.30
981.85	4302.78
982.01	4155.33
982.17	4294.59
982.33	4276.16
982.49	4415.42
982.65	4188.10
982.82	4251.58
982.98	4235.20
983.14	4067.27
983.30	4276.16
983.46	4276.16
983.62	4247.49
983.79	4163.52
983.95	4052.93
984.11	4057.03
984.27	4151.23
984.43	4147.14
984.59	4048.83
984.75	4169.66
984.91	3977.16
985.08	4120.51
985.24	4104.13
985.40	4130.75
985.56	3968.96
985.72	4089.79
985.88	4011.97
986.04	3968.96
986.20	3903.43
986.37	4097.99
986.53	3985.35
986.69	4022.21
986.85	4032.45
987.01	3968.96
987.17	4057.03
987.33	3917.76
987.49	3856.33
987.65	3907.52
987.82	3917.76
987.98	3846.09
988.14	3925.96
988.30	3983.30
988.46	4011.97
988.62	4036.55
988.78	3827.65
988.94	3909.57
989.10	3751.88
989.26	3796.93
989.42	3749.83
989.59	3702.73
989.75	3811.27
989.91	3762.12
990.07	3747.78
990.23	3659.72
990.39	3827.65
990.55	3770.31
990.71	3745.73
990.87	3739.59
991.03	3841.99
991.19	3612.62
991.35	3739.59
991.51	3657.67
991.67	3715.02
991.83	3672.01
992.00	3596.23
992.16	3686.34
992.32	3807.17
992.48	3633.10
992.64	3551.18
992.80	3667.91
992.96	3532.75
993.12	3540.94
993.28	3604.42
993.44	3684.30
993.60	3542.99
993.76	3641.29
993.92	3659.72
994.08	3583.95
994.24	3643.34
994.40	3598.28
994.56	3631.05
994.72	3522.51
994.88	3463.12
995.04	3551.18
995.20	3475.40
995.36	3436.49
995.52	3516.36
995.68	3428.30
995.84	3454.92
996.00	3536.84
996.16	3319.76
996.32	3436.49
996.48	3362.76
996.64	3594.19
996.80	3299.28
996.96	3475.40
997.12	3383.24
997.28	3370.96
997.44	3297.23
997.60	3280.85
997.76	3366.86
997.92	3360.72
998.08	3354.57
998.24	3270.61
998.40	3297.23
998.56	3319.76
998.72	3203.02
998.88	3211.22
999.04	3233.74
999.20	3272.65
999.36	3219.41
999.52	3338.19
999.68	3229.65
999.84	3227.60
1000.00	3227.60
1000.16	3248.08
1000.32	3143.63
1000.48	3344.33
1000.64	3198.93
1000.80	3180.50
1000.95	3069.91
1001.11	3237.84
1001.27	3067.86
1001.43	3182.54
1001.59	3100.62
1001.75	3026.90
1001.91	3127.25
1002.07	3035.09
1002.23	3106.77
1002.39	3082.19
1002.55	3028.95
1002.71	3002.32
1002.87	3000.27
1003.03	2994.13
1003.19	2977.75
1003.34	3129.30
1003.50	3051.47
1003.66	3117.01
1003.82	3143.63
1003.98	3041.23
1004.14	2983.89
1004.30	2940.88
1004.46	2985.94
1004.62	2949.08
1004.78	3018.71
1004.94	3002.32
1005.09	3049.43
1005.25	3078.10
1005.41	3061.71
1005.57	2944.98
1005.73	2969.55
1005.89	2957.27
1006.05	2861.01
1006.21	2944.98
1006.37	2992.08
1006.52	2916.31
1006.68	2922.45
1006.84	2942.93
1007.00	2813.91
1007.16	2920.40
1007.32	2824.15
1007.48	2797.53
1007.64	2818.00
1007.79	2889.68
1007.95	2846.68
1008.11	2938.84
1008.27	2844.63
1008.43	2805.72
1008.59	2764.76
1008.75	2854.87
1008.91	2936.79
1009.06	2791.38
1009.22	2746.33
1009.38	2703.32
1009.54	2770.90
1009.70	2844.63
1009.86	2822.10
1010.01	2750.42
1010.17	2715.61
1010.33	2830.29
1010.49	2846.68
1010.65	2920.40
1010.81	2607.06
1010.96	2719.70
1011.12	2666.46
1011.28	2557.91
1011.44	2662.36
1011.60	2736.09
1011.76	2684.89
1011.91	2740.18
1012.07	2617.30
1012.23	2609.11
1012.39	2617.30
1012.55	2668.50
1012.71	2572.25
1012.86	2578.39
1013.02	2590.68
1013.18	2584.54
1013.34	2576.34
1013.50	2666.46
1013.65	2662.36
1013.81	2490.33
1013.97	2455.51
1014.13	2537.43
1014.29	2602.97
1014.44	2666.46
1014.60	2600.92
1014.76	2570.20
1014.92	2498.52
1015.07	2492.38
1015.23	2508.76
1015.39	2469.85
1015.55	2482.14
1015.71	2551.77
1015.86	2531.29
1016.02	2480.09
1016.18	2447.32
1016.34	2582.49
1016.49	2457.56
1016.65	2490.33
1016.81	2498.52
1016.97	2473.95
1017.12	2461.66
1017.28	2412.51
1017.44	2475.99
1017.60	2355.16
1017.75	2410.46
1017.91	2406.36
1018.07	2492.38
1018.23	2416.60
1018.38	2412.51
1018.54	2351.07
1018.70	2418.65
1018.86	2328.54
1019.01	2408.41
1019.17	2463.71
1019.33	2445.27
1019.49	2353.12
1019.64	2441.18
1019.80	2389.98
1019.96	2467.80
1020.12	2338.78
1020.27	2312.16
1020.43	2330.59
1020.59	2437.08
1020.74	2426.84
1020.90	2363.36
1021.06	2263.01
1021.22	2330.59
1021.37	2408.41
1021.53	2295.77
1021.69	2336.73
1021.84	2263.01
1022.00	2324.44
1022.16	2234.33
1022.31	2404.32
1022.47	2289.63
1022.63	2316.25
1022.79	2197.47
1022.94	2287.58
1023.10	2320.35
1023.26	2228.19
1023.41	2271.20
1023.57	2277.34
1023.73	2310.11
1023.88	2326.49
1024.04	2217.95
1024.20	2236.38
1024.35	2312.16
1024.51	2258.91
1024.67	2244.57
1024.82	2263.01
1024.98	2191.33
1025.14	2297.82
1025.29	2146.27
1025.45	2232.29
1025.61	2207.71
1025.76	2166.75
1025.92	2191.33
1026.08	2269.15
1026.23	2181.09
1026.39	2254.81
1026.55	2193.37
1026.70	2090.98
1026.86	2105.31
1027.02	2273.25
1027.17	2166.75
1027.33	2222.05
1027.48	2080.74
1027.64	2146.27
1027.80	2121.70
1027.95	2209.76
1028.11	1955.81
1028.27	2070.50
1028.42	2125.79
1028.58	2123.74
1028.73	2093.02
1028.89	1974.24
1029.05	2185.18
1029.20	2150.37
>>>>>End Processed Spectral Data<<<<<
