SpectraSuite Data File
++++++++++++++++++++++++++++++++++++
Date: Fri Jun 02 14:52:27 CEST 2017
User: INFO_000
Dark Spectrum Present: No
Reference Spectrum Present: No
Number of Sampled Component Spectra: 1
Spectrometers: USB4H00879
Integration Time (usec): 80000 (USB4H00879)
Spectra Averaged: 1 (USB4H00879)
Boxcar Smoothing: 0 (USB4H00879)
Correct for Electrical Dark: No (USB4H00879)
Strobe/Lamp Enabled: No (USB4H00879)
Correct for Detector Non-linearity: No (USB4H00879)
Correct for Stray Light: No (USB4H00879)
Number of Pixels in Processed Spectrum: 3648
>>>>>Begin Processed Spectral Data<<<<<
345.13	1288.17
345.34	1288.17
345.56	1288.17
345.78	1349.61
345.99	1316.84
346.21	1718.25
346.42	1695.72
346.64	1646.57
346.86	1773.54
347.07	1701.86
347.29	1691.62
347.50	1619.94
347.72	1699.81
347.94	1751.01
348.15	1556.46
348.37	1687.53
348.59	1738.73
348.80	1726.44
349.02	1843.17
349.23	1875.94
349.45	1832.93
349.67	1855.46
349.88	1798.12
350.10	1994.72
350.31	1912.80
350.53	1888.23
350.75	1945.57
350.96	1755.11
351.18	1843.17
351.39	1882.08
351.61	1847.27
351.82	1902.56
352.04	1888.23
352.26	1851.36
352.47	1904.61
352.69	1933.28
352.90	1755.11
353.12	1845.22
353.34	1845.22
353.55	1937.38
353.77	1869.80
353.98	1861.60
354.20	1888.23
354.41	1927.14
354.63	1959.91
354.85	2062.30
355.06	1908.71
355.28	1818.60
355.49	1867.75
355.71	1884.13
355.92	1832.93
356.14	1916.90
356.35	1947.62
356.57	1920.99
356.79	1951.71
357.00	1908.71
357.22	1888.23
357.43	1824.74
357.65	2035.68
357.86	1828.84
358.08	1857.51
358.29	1966.05
358.51	2004.96
358.72	1992.67
358.94	1947.62
359.16	1988.58
359.37	1970.15
359.59	1933.28
359.80	2009.06
360.02	1943.52
360.23	1910.75
360.45	2062.30
360.66	1908.71
360.88	1861.60
361.09	1966.05
361.31	2004.96
361.52	1920.99
361.74	2027.49
361.95	2074.59
362.17	1927.14
362.38	2076.64
362.60	2076.64
362.81	2052.06
363.03	1988.58
363.24	1918.95
363.46	2080.74
363.67	2047.97
363.89	2086.88
364.10	2015.20
364.32	2002.91
364.53	2056.16
364.75	1859.56
364.96	2072.54
365.18	2023.39
365.39	1994.72
365.61	2027.49
365.82	2105.31
366.04	2035.68
366.25	2090.98
366.47	2084.83
366.68	2084.83
366.90	1996.77
367.11	2060.26
367.33	2156.51
367.54	2041.82
367.76	2119.65
367.97	2105.31
368.19	1996.77
368.40	2142.18
368.62	2027.49
368.83	1978.34
369.05	2074.59
369.26	1978.34
369.48	1982.43
369.69	2074.59
369.91	2088.93
370.12	2086.88
370.33	2154.46
370.55	2029.54
370.76	2035.68
370.98	2082.78
371.19	2082.78
371.41	1998.82
371.62	2084.83
371.84	1990.63
372.05	2090.98
372.27	2101.22
372.48	2119.65
372.69	2138.08
372.91	2125.79
373.12	2189.28
373.34	2027.49
373.55	2152.42
373.77	2220.00
373.98	2158.56
374.20	2146.27
374.41	2220.00
374.62	2174.94
374.84	2144.22
375.05	2291.68
375.27	2150.37
375.48	2138.08
375.70	2187.23
375.91	2236.38
376.12	2285.53
376.34	2115.55
376.55	2174.94
376.77	2267.10
376.98	2183.13
377.19	2174.94
377.41	2170.85
377.62	2379.74
377.84	2256.86
378.05	2297.82
378.27	2125.79
378.48	2273.25
378.69	2359.26
378.91	2351.07
379.12	2217.95
379.34	2230.24
379.55	2320.35
379.76	2312.16
379.98	2232.29
380.19	2252.77
380.41	2265.05
380.62	2400.22
380.83	2220.00
381.05	2232.29
381.26	2480.09
381.47	2260.96
381.69	2254.81
381.90	2453.47
382.12	2287.58
382.33	2242.53
382.54	2265.05
382.76	2332.64
382.97	2312.16
383.19	2318.30
383.40	2430.94
383.61	2318.30
383.83	2363.36
384.04	2346.97
384.25	2406.36
384.47	2435.03
384.68	2389.98
384.89	2330.59
385.11	2346.97
385.32	2361.31
385.54	2408.41
385.75	2365.40
385.96	2457.56
386.18	2346.97
386.39	2469.85
386.60	2404.32
386.82	2424.80
387.03	2441.18
387.24	2463.71
387.46	2381.79
387.67	2519.00
387.88	2580.44
388.10	2484.19
388.31	2498.52
388.52	2502.62
388.74	2500.57
388.95	2590.68
389.16	2557.91
389.38	2578.39
389.59	2541.53
389.80	2617.30
390.02	2486.23
390.23	2684.89
390.44	2605.02
390.66	2529.24
390.87	2420.70
391.08	2650.07
391.30	2736.09
391.51	2650.07
391.72	2680.79
391.94	2742.23
392.15	2488.28
392.36	2590.68
392.58	2662.36
392.79	2695.13
393.00	2766.81
393.22	2785.24
393.43	2801.62
393.64	2901.97
393.85	2953.17
394.07	2766.81
394.28	2729.94
394.49	2805.72
394.71	2723.80
394.92	2889.68
395.13	2740.18
395.35	2772.95
395.56	2781.14
395.77	2840.53
395.98	2867.16
396.20	2836.44
396.41	2789.33
396.62	2920.40
396.84	2869.20
397.05	2908.12
397.26	2895.83
397.47	3008.47
397.69	2861.01
397.90	3143.63
398.11	2942.93
398.32	2934.74
398.54	2920.40
398.75	2951.12
398.96	3057.62
399.18	3147.73
399.39	2961.36
399.60	3012.56
399.81	3000.27
400.03	3010.51
400.24	3221.45
400.45	3045.33
400.66	3096.53
400.88	3008.47
401.09	3248.08
401.30	2947.03
401.51	3231.69
401.73	3123.15
401.94	3168.21
402.15	3149.78
402.36	3106.77
402.58	3153.87
402.79	3166.16
403.00	3239.89
403.21	3305.42
403.43	3233.74
403.64	3385.29
403.85	3194.83
404.06	3260.37
404.27	3045.33
404.49	3180.50
404.70	3170.26
404.91	3362.76
405.12	3403.72
405.34	3276.75
405.55	3477.45
405.76	3250.13
405.97	3243.98
406.19	3530.70
406.40	3266.51
406.61	3373.00
406.82	3352.52
407.03	3352.52
407.25	3370.96
407.46	3469.26
407.67	3516.36
407.88	3481.55
408.09	3418.06
408.31	3356.62
408.52	3579.85
408.73	3366.86
408.94	3413.96
409.15	3432.40
409.37	3536.84
409.58	3469.26
409.79	3436.49
410.00	3532.75
410.21	3452.88
410.43	3569.61
410.64	3542.99
410.85	3600.33
411.06	3485.64
411.27	3633.10
411.48	3686.34
411.70	3598.28
411.91	3663.82
412.12	3680.20
412.33	3678.15
412.54	3583.95
412.76	3704.78
412.97	3622.86
413.18	3559.37
413.39	3768.26
413.60	3708.87
413.81	3788.74
414.03	3604.42
414.24	3698.63
414.45	3770.31
414.66	3682.25
414.87	3776.45
415.08	3794.89
415.30	3715.02
415.51	3776.45
415.72	3672.01
415.93	3753.93
416.14	3846.09
416.35	3960.77
416.56	3801.03
416.78	3893.19
416.99	3872.71
417.20	3975.11
417.41	4083.65
417.62	3991.49
417.83	4083.65
418.04	4104.13
418.26	4065.22
418.47	3946.44
418.68	4079.55
418.89	3991.49
419.10	4114.37
419.31	3966.92
419.52	4122.56
419.73	4120.51
419.95	4140.99
420.16	3968.96
420.37	4044.74
420.58	4132.80
420.79	3934.15
421.00	4247.49
421.21	4147.14
421.42	4095.94
421.63	4138.94
421.85	4022.21
422.06	4270.01
422.27	4323.26
422.48	4147.14
422.69	4143.04
422.90	4157.38
423.11	4308.93
423.32	4399.04
423.53	4487.10
423.75	4278.21
423.96	4548.54
424.17	4499.39
424.38	4603.83
424.59	4575.16
424.80	4675.51
425.01	4528.06
425.22	4480.96
425.43	4489.15
425.64	4648.89
425.85	4655.03
426.06	4526.01
426.28	4636.60
426.49	4523.96
426.70	4630.46
426.91	4665.27
427.12	4788.15
427.33	4728.76
427.54	4763.58
427.75	4798.39
427.96	4775.86
428.17	4732.86
428.38	4829.11
428.59	4960.18
428.80	4833.21
429.01	4868.02
429.23	4859.83
429.44	4999.09
429.65	4980.66
429.86	5048.24
430.07	5091.25
430.28	4980.66
430.49	5099.44
430.70	5191.60
430.91	5289.90
431.12	4976.56
431.33	5273.52
431.54	5187.50
431.75	5203.89
431.96	5304.24
432.17	5109.68
432.38	5265.33
432.59	5406.64
432.80	5296.05
433.01	5420.97
433.22	5365.68
433.43	5349.29
433.64	5351.34
433.85	5394.35
434.06	5484.46
434.27	5449.64
434.49	5574.57
434.70	5636.01
434.91	5529.52
435.12	5566.38
435.33	5443.50
435.54	5644.20
435.75	5316.53
435.96	5636.01
436.17	5488.56
436.38	5666.73
436.59	5832.62
436.80	5748.65
437.01	5953.45
437.22	5838.76
437.43	5754.79
437.64	5693.35
437.85	5918.63
438.06	6037.41
438.27	5851.05
438.48	5914.53
438.69	6051.75
438.90	5904.29
439.11	5861.29
439.32	6004.64
439.53	6074.28
439.74	5918.63
439.95	5971.88
440.16	6090.66
440.37	6123.43
440.57	6143.91
440.78	6148.00
440.99	6117.28
441.20	6127.52
441.41	6148.00
441.62	6135.71
441.83	5943.21
442.04	6223.78
442.25	6242.21
442.46	6127.52
442.67	6258.59
442.88	6606.75
443.09	6223.78
443.30	6152.10
443.51	6344.61
443.72	6522.78
443.93	6283.17
444.14	6614.94
444.35	6481.82
444.56	6543.26
444.77	6442.91
444.98	6594.46
445.19	6676.38
445.40	6586.27
445.61	6510.49
445.81	6846.36
446.02	6801.30
446.23	6655.90
446.44	6436.77
446.65	6684.57
446.86	6743.96
447.07	6897.56
447.28	6903.70
447.49	6825.88
447.70	6768.54
447.91	6834.07
448.12	6905.75
448.33	6956.95
448.54	7024.53
448.74	6948.76
448.95	6924.18
449.16	6913.94
449.37	7126.93
449.58	6987.67
449.79	7194.51
450.00	6905.75
450.21	7200.66
450.42	7286.67
450.63	7212.95
450.84	7258.00
451.05	7282.58
451.25	7290.77
451.46	7157.65
451.67	7366.54
451.88	7423.89
452.09	7401.36
452.30	7358.35
452.51	7188.37
452.72	7505.81
452.93	7749.51
453.13	7335.82
453.34	7307.15
453.55	7505.81
453.76	7595.92
453.97	7776.14
454.18	7597.96
454.39	7753.61
454.60	7610.25
454.81	7538.57
455.01	7853.96
455.22	7483.28
455.43	7700.36
455.64	7896.97
455.85	8073.09
456.06	8071.04
456.27	7794.57
456.48	8009.61
456.68	8001.41
456.89	7921.54
457.10	8234.88
457.31	8163.20
457.52	8157.06
457.73	8228.74
457.94	8378.24
458.14	8183.68
458.35	8654.72
458.56	8263.55
458.77	8167.30
458.98	8290.18
459.19	8255.36
459.39	8404.86
459.60	8710.01
459.81	8419.20
460.02	8695.68
460.23	8705.92
460.44	8841.08
460.65	8691.58
460.85	8695.68
461.06	8906.62
461.27	8558.46
461.48	8972.15
461.69	8988.53
461.89	8779.64
462.10	9080.69
462.31	8976.25
462.52	9080.69
462.73	9070.45
462.94	9193.33
463.14	9066.36
463.35	9267.06
463.56	9525.10
463.77	9482.10
463.98	9226.10
464.18	9389.94
464.39	9473.90
464.60	9736.04
464.81	9574.25
465.02	9729.90
465.23	9713.52
465.43	9498.48
465.64	10133.35
465.85	9828.20
466.06	9736.04
466.27	9940.84
466.47	10170.21
466.68	10123.11
466.89	9891.69
467.10	10084.20
467.30	9965.42
467.51	10186.60
467.72	10555.23
467.93	10291.04
468.14	10372.96
468.34	10778.46
468.55	10727.26
468.76	10663.77
468.97	10391.39
469.17	10862.43
469.38	10803.04
469.59	10762.08
469.80	10749.79
470.01	10960.73
470.21	11042.65
470.42	11050.84
470.63	11124.57
470.84	11145.05
471.04	11456.34
471.25	11249.49
471.46	11358.03
471.67	11550.54
471.87	11622.22
472.08	11607.89
472.29	11591.50
472.50	11554.64
472.70	11706.19
472.91	11857.74
473.12	12162.89
473.33	12050.25
473.53	12119.88
473.74	12015.43
473.95	12396.35
474.16	12433.22
474.36	12289.86
474.57	12609.34
474.78	12699.45
474.99	12693.31
475.19	12502.85
475.40	12889.92
475.61	13311.80
475.81	13301.56
476.02	13479.73
476.23	13043.51
476.44	13365.04
476.64	13743.92
476.85	13623.09
477.06	13428.53
477.27	13846.32
477.47	14028.59
477.68	14040.87
477.89	14274.34
478.09	14057.26
478.30	14262.05
478.51	14264.10
478.71	14407.46
478.92	14384.93
479.13	14530.34
479.34	14710.56
479.54	14796.57
479.75	14673.70
479.96	14716.70
480.16	14966.56
480.37	15144.73
480.58	15142.68
480.78	15423.25
480.99	15480.60
481.20	15755.02
481.41	15574.80
481.61	15585.04
481.82	15910.67
482.03	16117.51
482.23	15716.11
482.44	16133.90
482.65	16094.99
482.85	16557.83
483.06	16480.00
483.27	16520.96
483.47	16383.75
483.68	16805.63
483.89	16858.88
484.09	16613.12
484.30	17100.54
484.51	17204.99
484.71	17309.43
484.92	17182.46
485.13	17358.58
485.33	17643.25
485.54	17407.73
485.75	17669.87
485.95	17829.62
486.16	18102.00
486.37	18271.98
486.57	17942.25
486.78	18145.00
486.98	18310.89
487.19	18425.57
487.40	18544.36
487.60	18355.94
487.81	18898.66
488.02	18421.48
488.22	18919.14
488.43	18845.41
488.64	19027.68
488.84	19132.12
489.05	19072.73
489.25	19078.88
489.46	19236.57
489.67	19402.46
489.87	19648.21
490.08	19785.43
490.29	19928.78
490.49	20197.07
490.70	20053.71
490.90	20190.92
491.11	20219.60
491.32	20467.40
491.52	20582.09
491.73	20444.87
491.94	20541.13
492.14	20739.78
492.35	20844.23
492.55	20909.76
492.76	20907.71
492.97	21092.03
493.17	21186.24
493.38	21427.90
493.58	21419.71
493.79	21565.11
494.00	21503.67
494.20	21597.88
494.41	21974.70
494.61	21935.79
494.82	21677.75
495.02	21679.80
495.23	22001.33
495.44	22120.11
495.64	22048.43
495.85	22376.11
496.05	22705.83
496.26	22482.60
496.47	22830.76
496.67	22406.83
496.88	22783.65
497.08	22527.66
497.29	22861.48
497.49	22707.88
497.70	23094.94
497.91	22716.07
498.11	23060.13
498.32	23559.83
498.52	23271.07
498.73	23541.40
498.93	23555.74
499.14	23645.85
499.34	23746.20
499.55	23844.50
499.76	23969.43
499.96	24190.61
500.17	23805.59
500.37	23836.31
500.58	24069.78
500.78	24235.66
500.99	24241.81
501.19	24268.43
501.40	24305.29
501.60	24362.64
501.81	24567.43
502.02	24516.23
502.22	24587.91
502.43	24751.75
502.63	24811.14
502.84	24608.39
503.04	24856.20
503.25	25067.14
503.45	25071.23
503.66	25104.00
503.86	25411.20
504.07	25204.35
504.27	24970.88
504.48	25636.47
504.68	25448.06
504.89	25912.95
505.09	25697.91
505.30	25489.02
505.50	25650.81
505.71	25929.33
505.91	25902.71
506.12	25585.27
506.32	25654.90
506.53	25857.65
506.73	26214.00
506.94	26099.31
507.14	26265.20
507.35	26252.91
507.55	26066.55
507.76	26515.05
507.96	26289.77
508.17	26488.43
508.37	26220.14
508.58	26472.04
508.78	26500.72
508.99	26795.62
509.19	26672.74
509.40	26586.73
509.60	26635.88
509.81	26871.40
510.01	26885.73
510.22	26828.39
510.42	27176.55
510.63	27211.36
510.83	27111.01
511.04	27278.94
511.24	26971.75
511.44	26986.08
511.65	27504.22
511.85	27285.09
512.06	27080.29
512.26	27582.04
512.47	27551.32
512.67	27309.66
512.88	27278.94
513.08	27555.42
513.29	27723.35
513.49	27358.81
513.69	27440.73
513.90	27434.59
514.10	27897.43
514.31	28016.21
514.51	27887.19
514.72	27874.90
514.92	27862.61
515.13	27860.57
515.33	28171.86
515.53	27913.81
515.74	28132.95
515.94	28180.05
516.15	28157.52
516.35	28180.05
516.56	28257.87
516.76	28229.20
516.96	28603.98
517.17	28261.97
517.37	28268.11
517.58	28644.94
517.78	28692.04
517.99	28649.03
518.19	28683.85
518.39	28689.99
518.60	28855.88
518.80	28950.09
519.01	28952.13
519.21	28644.94
519.41	29142.60
519.62	28980.81
519.82	29300.29
520.03	29371.97
520.23	29320.77
520.43	29292.10
520.64	29380.16
520.84	29412.93
521.05	29513.28
521.25	29613.63
521.45	30023.22
521.66	29904.44
521.86	29652.54
522.07	29529.66
522.27	29875.77
522.47	29685.31
522.68	30154.29
522.88	30205.49
523.08	30332.47
523.29	30211.64
523.49	30481.97
523.70	30297.65
523.90	30637.61
524.10	30567.98
524.31	30918.18
524.51	30520.88
524.71	30907.94
524.92	30897.70
525.12	30860.84
525.33	30916.14
525.53	30873.13
525.73	31594.01
525.94	31221.28
526.14	31231.52
526.34	31362.59
526.55	31532.57
526.75	31264.29
526.95	31612.45
527.16	31585.82
527.36	31456.80
527.56	32185.88
527.77	32202.26
527.97	32038.42
528.17	32026.14
528.38	32325.14
528.58	32202.26
528.78	32452.11
528.99	32165.40
529.19	32452.11
529.39	32513.55
529.60	32892.43
529.80	32855.56
530.00	32599.57
530.21	33228.29
530.41	33009.16
530.61	32749.07
530.82	33117.70
531.02	33175.05
531.22	33412.61
531.43	33480.19
531.63	33388.03
531.83	34092.54
532.04	33947.13
532.24	33596.93
532.44	34264.57
532.64	34608.62
532.85	34430.45
533.05	34049.53
533.25	34573.81
533.46	34145.78
533.66	34975.21
533.86	34444.79
534.07	35038.70
534.27	34747.89
534.47	34948.59
534.67	35204.58
534.88	34921.96
535.08	35065.32
535.28	35300.84
535.49	35689.95
535.69	35763.68
535.89	35542.50
536.09	35646.94
536.30	36007.39
536.50	35999.19
536.70	36369.88
536.91	35890.65
537.11	36507.09
537.31	36290.01
537.51	36296.15
537.72	36738.51
537.92	37027.28
538.12	36804.05
538.32	36468.18
538.53	37101.00
538.73	36849.10
538.93	36947.40
539.13	36994.51
539.34	37359.05
539.54	37414.34
539.74	37633.47
539.94	37486.02
540.15	37748.16
540.35	37701.06
540.55	37645.76
540.75	37729.73
540.96	38135.23
541.16	37830.08
541.36	37959.10
541.56	38047.16
541.77	38624.69
541.97	38448.57
542.17	38593.97
542.37	38438.33
542.58	38530.48
542.78	38757.81
542.98	38722.99
543.18	38704.56
543.38	39081.39
543.59	39243.18
543.79	38657.46
543.99	39187.88
544.19	39253.42
544.40	39564.71
544.60	39398.82
544.80	39525.80
545.00	39570.85
545.20	39894.43
545.41	39622.05
545.61	39832.99
545.81	40068.51
546.01	39986.59
546.21	39843.23
546.42	39962.01
546.62	40242.59
546.82	40168.86
547.02	40625.56
547.22	40461.72
547.43	40508.82
547.63	40361.37
547.83	41002.38
548.03	40443.29
548.23	41172.36
548.44	40826.26
548.64	40629.65
548.84	40961.42
549.04	41067.92
549.24	40836.50
549.45	41346.44
549.65	41205.13
549.85	41479.56
550.05	41403.78
550.25	41536.90
550.45	42130.81
550.66	41827.71
550.86	41803.14
551.06	41745.80
551.26	41942.40
551.46	42186.11
551.66	42175.87
551.87	41803.14
552.07	41813.38
552.27	42247.55
552.47	42120.57
552.67	42489.21
552.87	42110.33
553.07	42671.48
553.28	42548.60
553.48	42530.17
553.68	42210.68
553.88	42743.16
554.08	42777.97
554.28	42671.48
554.48	42536.31
554.69	43224.43
554.89	42880.37
555.09	43357.55
555.29	43208.04
555.49	43115.89
555.69	43537.77
555.89	43416.94
556.10	43136.37
556.30	42988.91
556.50	43111.79
556.70	43136.37
556.90	43345.26
557.10	43754.85
557.30	42962.29
557.50	43568.49
557.70	43664.74
557.91	43945.31
558.11	43611.49
558.31	44002.66
558.51	43699.56
558.71	43914.59
558.91	44123.49
559.11	43945.31
559.31	44092.77
559.51	43955.55
559.72	44299.61
559.92	44385.63
560.12	44299.61
560.32	44598.62
560.52	43892.07
560.72	44289.37
560.92	44367.20
561.12	44256.60
561.32	44322.14
561.52	44402.01
561.72	45083.98
561.93	44701.01
562.13	44348.76
562.33	44348.76
562.53	45299.02
562.73	44131.68
562.93	44674.39
563.13	44727.64
563.33	44639.57
563.53	44952.91
563.73	44805.46
563.93	44582.23
564.13	45538.63
564.33	44997.97
564.53	44963.15
564.74	45518.15
564.94	45032.78
565.14	45079.89
565.34	45213.01
565.54	45364.56
565.74	45520.20
565.94	46032.19
566.14	45290.83
566.34	45258.06
566.54	45620.55
566.74	45485.39
566.94	45403.47
567.14	45974.85
567.34	45401.42
567.54	45784.39
567.74	45636.94
567.94	45430.09
568.14	45530.44
568.34	46220.61
568.54	45897.03
568.74	45894.98
568.94	45745.48
569.14	46257.47
569.34	46169.41
569.54	46312.77
569.75	45849.92
569.95	46011.71
570.15	46263.61
570.35	46339.39
570.55	45907.27
570.75	46024.00
570.95	46089.54
571.15	46464.32
571.35	46372.16
571.55	46951.73
571.75	46306.62
571.95	46253.37
572.15	46333.24
572.35	46619.96
572.55	46398.78
572.75	46314.81
572.95	46249.28
573.15	46347.58
573.35	46228.80
573.55	46253.37
573.75	46175.55
573.95	47170.86
574.15	46656.82
574.35	46865.72
574.55	46841.14
574.75	46531.90
574.95	46994.74
575.15	46718.26
575.34	46845.24
575.54	46775.61
575.74	47109.43
575.94	47346.99
576.14	47015.22
576.34	47314.22
576.54	47289.65
576.74	47236.40
576.94	47502.64
577.14	47410.48
577.34	47539.50
577.54	46968.12
577.74	47789.35
577.94	47342.89
578.14	47394.09
578.34	47777.06
578.54	47367.47
578.74	47105.33
578.94	47813.93
579.14	47263.02
579.34	47471.92
579.54	47500.59
579.74	47746.34
579.94	47764.78
580.13	47650.09
580.33	48004.39
580.53	48110.88
580.73	47920.42
580.93	48117.03
581.13	48172.32
581.33	48755.99
581.53	48174.37
581.73	48424.22
581.93	48524.57
582.13	48264.48
582.33	48569.63
582.53	48342.30
582.73	48854.29
582.92	48715.03
583.12	48684.31
583.32	48678.17
583.52	48018.72
583.72	48573.72
583.92	48485.66
584.12	48782.62
584.32	48868.63
584.52	48958.74
584.72	49032.47
584.92	48973.08
585.11	49171.73
585.31	48872.73
585.51	49136.91
585.71	49202.45
585.91	49245.46
586.11	49354.00
586.31	48755.99
586.51	48936.21
586.71	49161.49
586.91	49526.03
587.10	49417.49
587.30	49575.18
587.50	49573.13
587.70	49255.70
587.90	49546.51
588.10	49319.18
588.30	49216.78
588.50	49237.26
588.69	49304.85
588.89	49431.82
589.09	49816.84
589.29	49845.51
589.49	50009.35
589.69	49865.99
589.89	49913.09
590.08	49673.48
590.28	49659.15
590.48	49521.93
590.68	49464.59
590.88	49579.28
591.08	49691.91
591.28	49390.86
591.47	50033.92
591.67	50103.56
591.87	49902.85
592.07	50257.15
592.27	49915.14
592.47	49665.29
592.67	50119.94
592.86	49943.81
593.06	50275.58
593.26	50291.97
593.46	50490.62
593.66	50552.06
593.86	50451.71
594.05	50033.92
594.25	50750.71
594.45	50296.06
594.65	50793.72
594.85	50210.05
595.05	50961.65
595.24	50640.12
595.44	50402.56
595.64	50910.46
595.84	50533.63
596.04	50928.89
596.23	50738.43
596.43	51131.64
596.63	50683.13
596.83	50623.74
597.03	51098.87
597.22	50967.80
597.42	50619.64
597.62	51324.14
597.82	51121.40
598.02	51158.26
598.21	51332.34
598.41	51090.68
598.61	51279.09
598.81	51449.07
599.01	51688.68
599.20	51318.00
599.40	51442.93
599.60	51629.29
599.80	51864.81
600.00	51520.75
600.19	51895.53
600.39	51371.25
600.59	51698.92
600.79	51963.11
600.98	51512.56
601.18	52159.72
601.38	51877.10
601.58	51854.57
601.78	51952.87
601.97	52096.23
602.17	52661.47
602.37	51776.75
602.57	52249.83
602.76	52847.83
602.96	52114.66
603.16	52686.04
603.36	52731.10
603.55	52815.07
603.75	52577.50
603.95	53171.41
604.15	52892.89
604.34	52704.48
604.54	53091.54
604.74	52679.90
604.94	52628.70
605.13	53181.65
605.33	52958.42
605.53	52679.90
605.73	53388.50
605.92	52835.55
606.12	53093.59
606.32	53435.60
606.52	53245.14
606.71	53026.01
606.91	53341.39
607.11	53206.23
607.30	53273.81
607.50	53447.89
607.70	53693.64
607.90	53632.21
608.09	53449.94
608.29	53736.65
608.49	54275.27
608.68	53585.10
608.88	54060.23
609.08	53757.13
609.28	53677.26
609.47	53832.91
609.67	53963.98
609.87	53728.46
610.06	53892.30
610.26	53896.39
610.46	54303.94
610.66	54129.86
610.85	54265.03
611.05	54033.61
611.25	53794.00
611.44	53834.95
611.64	54523.07
611.84	54086.85
612.03	54129.86
612.23	54238.40
612.43	54250.69
612.62	54498.50
612.82	54207.68
613.02	54555.84
613.21	54416.58
613.41	53978.31
613.61	54172.87
613.80	54109.38
614.00	54402.24
614.20	54207.68
614.39	54961.34
614.59	54604.99
614.79	54316.23
614.98	54697.15
615.18	54541.50
615.38	54815.93
615.57	54455.49
615.77	55008.44
615.97	54738.11
616.16	54836.41
616.36	54789.31
616.56	54885.56
616.75	54887.61
616.95	54396.10
617.15	54682.81
617.34	54645.95
617.54	54580.42
617.74	55223.48
617.93	54858.94
618.13	54508.74
618.32	55237.81
618.52	54461.63
618.72	54674.62
618.91	54992.06
619.11	54684.86
619.31	55022.78
619.50	54916.28
619.70	54654.14
619.90	54772.92
620.09	54881.47
620.29	54838.46
620.48	54947.00
620.68	55274.68
620.88	54650.05
621.07	55172.28
621.27	55243.96
621.46	54713.53
621.66	55243.96
621.86	55078.07
622.05	54686.91
622.25	55526.58
622.44	54928.57
622.64	54953.15
622.84	55520.43
623.03	55059.64
623.23	55246.00
623.42	55010.49
623.62	55145.65
623.82	55702.70
624.01	54846.65
624.21	55129.27
624.40	55276.72
624.60	55080.12
624.80	55506.10
624.99	55045.30
625.19	54779.07
625.38	55151.80
625.58	55686.32
625.77	54977.72
625.97	55768.24
626.17	55067.83
626.36	54729.92
626.56	55792.81
626.75	54707.39
626.95	55530.67
627.14	55096.50
627.34	55710.89
627.54	55172.28
627.73	55540.91
627.93	55614.64
628.12	55282.87
628.32	55368.88
628.51	55964.84
628.71	55581.87
628.90	55403.70
629.10	55747.76
629.30	55700.65
629.49	55559.34
629.69	55989.42
629.88	55497.91
630.08	55844.01
630.27	56392.87
630.47	55710.89
630.66	55641.26
630.86	55647.41
631.05	55790.76
631.25	56265.89
631.44	56173.73
631.64	55633.07
631.84	55952.55
632.03	56480.93
632.23	55950.51
632.42	56634.53
632.62	55927.98
632.81	55456.95
633.01	56124.58
633.20	56386.72
633.40	56317.09
633.59	56134.82
633.79	56038.57
633.98	56382.63
634.18	56224.93
634.37	56177.83
634.57	55899.31
634.76	56718.49
634.96	56751.26
635.15	55985.32
635.35	55805.10
635.54	56333.48
635.74	56308.90
635.93	56331.43
636.13	56667.30
636.32	56435.87
636.52	56308.90
636.71	56231.08
636.91	56632.48
637.10	56587.42
637.30	56632.48
637.49	56317.09
637.69	56702.11
637.88	56935.58
638.08	56480.93
638.27	56341.67
638.46	56800.41
638.66	56286.37
638.85	56747.17
639.05	56767.65
639.24	57267.35
639.44	56743.07
639.63	56759.45
639.83	56599.71
640.02	56755.36
640.22	56685.73
640.41	56982.68
640.61	56646.82
640.80	57320.60
640.99	56669.34
641.19	57377.94
641.38	57046.17
641.58	57132.18
641.77	56816.80
641.97	56622.24
642.16	56951.96
642.36	57326.74
642.55	57408.66
642.74	56972.44
642.94	57836.69
643.13	57259.16
643.33	57621.65
643.52	57167.00
643.72	57629.84
643.91	57416.85
644.10	57287.83
644.30	57484.43
644.49	57623.70
644.69	57250.97
644.88	57582.74
645.08	57226.39
645.27	57504.91
645.46	57111.70
645.66	57635.98
645.85	57504.91
646.05	57635.98
646.24	57472.15
646.43	57382.04
646.63	58168.46
646.82	57844.88
647.02	58045.58
647.21	57416.85
647.40	57482.39
647.60	57836.69
647.79	57754.77
647.99	57545.87
648.18	57656.46
648.37	58238.09
648.57	58080.39
648.76	58029.19
648.96	57754.77
649.15	58360.97
649.34	57865.36
649.54	57842.83
649.73	58059.91
649.92	58289.29
650.12	58332.29
650.31	58242.18
650.51	58213.51
650.70	58375.30
650.89	57865.36
651.09	58934.40
651.28	57930.89
651.47	58369.16
651.67	58115.21
651.86	58721.41
652.06	57795.73
652.25	58223.75
652.44	58137.74
652.64	57877.64
652.83	58135.69
653.02	58588.29
653.22	58066.06
653.41	58340.49
653.60	57894.03
653.80	58619.01
653.99	58526.85
654.18	58379.40
654.38	58381.45
654.57	58406.02
654.76	58147.98
654.96	58211.46
655.15	58209.42
655.34	58733.70
655.54	58193.03
655.73	58385.54
655.92	58680.45
656.12	58301.57
656.31	58524.80
656.50	58481.80
656.70	58592.39
656.89	58164.36
657.08	58522.76
657.28	58109.07
657.47	58135.69
657.66	58346.63
657.86	58504.32
658.05	58549.38
658.24	58524.80
658.43	58231.94
658.63	58870.91
658.82	58633.35
659.01	58358.92
659.21	58586.24
659.40	58725.50
659.59	58401.92
659.79	58467.46
659.98	58958.97
660.17	58694.78
660.36	58602.63
660.56	58397.83
660.75	58637.44
660.94	58614.91
661.14	58621.06
661.33	58422.40
661.52	57756.81
661.71	58971.26
661.91	58281.09
662.10	58453.12
662.29	58418.31
662.49	58803.33
662.68	58614.91
662.87	58696.83
663.06	58242.18
663.26	58737.79
663.45	58803.33
663.64	58231.94
663.83	58668.16
664.03	58786.94
664.22	58289.29
664.41	58373.25
664.60	58117.26
664.80	58471.56
664.99	58324.10
665.18	58414.21
665.37	58567.81
665.57	58897.53
665.76	58532.99
665.95	58582.15
666.14	58160.26
666.34	57971.85
666.53	58440.84
666.72	58213.51
666.91	58567.81
667.11	58049.67
667.30	58193.03
667.49	58213.51
667.68	58262.66
667.87	58197.13
668.07	58659.97
668.26	58449.03
668.45	58811.52
668.64	58299.53
668.84	58731.65
669.03	58659.97
669.22	58416.26
669.41	58287.24
669.60	58412.16
669.80	58127.50
669.99	58651.78
670.18	58369.16
670.37	58150.02
670.57	58803.33
670.76	57867.40
670.95	58240.14
671.14	58012.81
671.33	57932.94
671.53	58576.00
671.72	58160.26
671.91	58201.22
672.10	57824.40
672.29	57871.50
672.48	57869.45
672.68	58303.62
672.87	58176.65
673.06	57939.08
673.25	57941.13
673.44	57853.07
673.64	57953.42
673.83	57687.18
674.02	57672.85
674.21	57758.86
674.40	57943.18
674.59	57638.03
674.79	57549.97
674.98	57224.34
675.17	58098.83
675.36	57123.99
675.55	57617.55
675.74	57668.75
675.94	57349.27
676.13	57406.61
676.32	58160.26
676.51	57932.94
676.70	57832.59
676.89	57545.87
677.08	57738.38
677.28	57635.98
677.47	57986.19
677.66	57889.93
677.85	57226.39
678.04	57652.37
678.23	57902.22
678.42	57472.15
678.62	57425.04
678.81	57793.68
679.00	56939.68
679.19	57816.21
679.38	57408.66
679.57	57568.40
679.76	57218.20
679.96	57136.28
680.15	57306.26
680.34	57029.79
680.53	57414.80
680.72	57384.08
680.91	57042.07
681.10	56931.48
681.29	57128.09
681.48	57269.40
681.68	57160.86
681.87	56734.88
682.06	57275.54
682.25	56663.20
682.44	56663.20
682.63	56880.28
682.82	56605.86
683.01	56759.45
683.20	56378.53
683.39	56577.18
683.59	56624.29
683.78	56267.94
683.97	56079.53
684.16	56583.33
684.35	55975.08
684.54	56464.55
684.73	55942.31
684.92	56302.76
685.11	56485.03
685.30	56261.80
685.49	56562.85
685.69	55962.79
685.88	56384.68
686.07	56632.48
686.26	56521.89
686.45	56382.63
686.64	55979.18
686.83	56089.77
687.02	56126.63
687.21	56161.45
687.40	56005.80
687.59	56366.24
687.78	55930.03
687.97	56472.74
688.16	55860.40
688.35	55637.17
688.54	55571.63
688.74	55762.09
688.93	55641.26
689.12	55801.00
689.31	55794.86
689.50	56188.07
689.69	55751.85
689.88	54820.03
690.07	55649.45
690.26	55813.29
690.45	55608.50
690.64	55868.59
690.83	55557.30
691.02	55372.98
691.21	55510.19
691.40	55073.98
691.59	55348.40
691.78	55647.41
691.97	55106.74
692.16	55471.28
692.35	55835.82
692.54	55571.63
692.73	55424.18
692.92	55119.03
693.11	55301.30
693.30	54834.36
693.49	55381.17
693.68	54764.73
693.87	55078.07
694.06	54408.39
694.25	54783.16
694.44	54332.61
694.63	54938.81
694.82	54795.45
695.01	54824.12
695.20	54715.58
695.39	54510.78
695.58	54492.35
695.77	54383.81
695.96	54269.12
696.15	54672.57
696.34	54424.77
696.53	54506.69
696.72	54998.20
696.91	54537.41
697.10	54734.01
697.29	54516.93
697.48	54553.79
697.67	54271.17
697.86	53615.82
698.05	54232.26
698.24	54494.40
698.43	53832.91
698.62	54111.43
698.81	53705.93
699.00	54273.22
699.19	54049.99
699.38	54326.47
699.57	53400.79
699.76	54355.14
699.95	53871.82
700.14	53755.08
700.32	53763.28
700.51	53800.14
700.70	53890.25
700.89	53896.39
701.08	54054.09
701.27	53671.12
701.46	54142.15
701.65	52892.89
701.84	53124.31
702.03	53497.04
702.22	53089.49
702.41	53490.90
702.60	53322.96
702.79	53304.53
702.98	53376.21
703.17	53394.64
703.35	53501.14
703.54	53261.52
703.73	53624.01
703.92	53269.72
704.11	53284.05
704.30	52714.72
704.49	53058.77
704.68	52901.08
704.87	53052.63
705.06	52606.17
705.25	52808.92
705.43	52673.76
705.62	52425.95
705.81	52800.73
706.00	52522.21
706.19	52298.98
706.38	52182.24
706.57	52229.35
706.76	52602.08
706.95	52694.24
707.14	52679.90
707.32	52493.54
707.51	52307.17
707.70	52360.42
707.89	52505.82
708.08	52622.56
708.27	52733.15
708.46	52585.69
708.65	52268.26
708.84	52319.46
709.02	52215.01
709.21	52600.03
709.40	52471.01
709.59	52079.85
709.78	51815.66
709.97	52294.88
710.16	52221.16
710.34	52106.47
710.53	52227.30
710.72	51721.45
710.91	52317.41
711.10	52190.44
711.29	52266.21
711.48	51875.05
711.66	51895.53
711.85	51791.08
712.04	51723.50
712.23	52131.04
712.42	51401.97
712.61	51645.68
712.80	51559.66
712.98	51324.14
713.17	51283.19
713.36	51567.85
713.55	51746.03
713.74	51559.66
713.93	51559.66
714.11	51516.65
714.30	51066.10
714.49	51623.15
714.68	51367.15
714.87	51504.37
715.06	51834.09
715.24	50867.45
715.43	51375.34
715.62	50789.62
715.81	51188.98
716.00	51029.24
716.18	51201.27
716.37	50558.20
716.56	51311.86
716.75	51229.94
716.94	51094.77
717.12	50562.30
717.31	51252.47
717.50	50943.22
717.69	50738.43
717.88	50564.35
718.06	51299.57
718.25	51021.05
718.44	50300.16
718.63	50912.50
718.82	50631.93
719.00	50439.42
719.19	50337.02
719.38	50558.20
719.57	49913.09
719.76	50058.50
719.94	49769.74
720.13	50066.69
720.32	50255.11
720.51	49878.28
720.69	49902.85
720.88	49870.09
721.07	49741.06
721.26	49456.40
721.44	49722.63
721.63	49542.41
721.82	49763.59
722.01	49333.52
722.20	49501.45
722.38	49089.81
722.57	48899.35
722.76	49255.70
722.95	49491.21
723.13	48968.98
723.32	49491.21
723.51	49102.10
723.70	49210.64
723.88	49239.31
724.07	48717.08
724.26	48944.41
724.44	48330.01
724.63	49206.55
724.82	49069.33
725.01	48606.49
725.19	48805.14
725.38	48971.03
725.57	48870.68
725.76	49212.69
725.94	48346.40
726.13	48938.26
726.32	49036.56
726.51	48383.26
726.69	48999.70
726.88	48911.64
727.07	48745.75
727.25	48899.35
727.44	48889.11
727.63	48309.53
727.82	48966.93
728.00	48620.83
728.19	48362.78
728.38	48700.70
728.56	47727.91
728.75	48901.40
728.94	48432.41
729.12	48778.52
729.31	48940.31
729.50	48516.38
729.69	48743.70
729.87	48213.28
730.06	48739.61
730.25	48387.36
730.43	49292.56
730.62	48223.52
730.81	48649.50
730.99	48616.73
731.18	48825.62
731.37	48641.31
731.55	48604.44
731.74	48905.49
731.93	48735.51
732.11	48923.93
732.30	48565.53
732.49	48446.75
732.67	48559.39
732.86	48428.32
733.05	48579.87
733.23	48010.53
733.42	47965.48
733.61	48233.76
733.79	48213.28
733.98	48712.98
734.17	48624.92
734.35	48809.24
734.54	48426.27
734.73	48665.88
734.91	48481.56
735.10	48291.10
735.29	48903.45
735.47	48479.52
735.66	48489.76
735.84	48244.00
736.03	47945.00
736.22	48768.28
736.40	48256.29
736.59	48565.53
736.78	48303.39
736.96	48010.53
737.15	48241.95
737.33	48051.49
737.52	47969.57
737.71	47930.66
737.89	48031.01
738.08	47768.87
738.27	47830.31
738.45	48508.19
738.64	48004.39
738.82	48172.32
739.01	47836.45
739.20	47854.89
739.38	48112.93
739.57	48086.31
739.75	47750.44
739.94	47791.40
740.13	48010.53
740.31	47828.26
740.50	47801.64
740.68	47744.30
740.87	48280.86
741.06	48125.22
741.24	47750.44
741.43	47605.03
741.61	47799.59
741.80	47529.26
741.99	47732.01
742.17	47590.70
742.36	47754.54
742.54	47709.48
742.73	47912.23
742.91	48055.59
743.10	47768.87
743.29	47967.52
743.47	47674.66
743.66	47263.02
743.84	47555.88
744.03	47574.31
744.21	47285.55
744.40	48239.90
744.59	47359.28
744.77	47488.30
744.96	47727.91
745.14	47568.17
745.33	47648.04
745.51	47592.75
745.70	47555.88
745.88	47109.43
746.07	47504.68
746.26	47050.03
746.44	47283.50
746.63	47250.74
746.81	47717.67
747.00	47189.30
747.18	47099.19
747.37	47424.81
747.55	47109.43
747.74	47787.30
747.92	47179.06
748.11	46921.01
748.29	47275.31
748.48	47306.03
748.66	46880.05
748.85	47041.84
749.03	46814.52
749.22	46929.20
749.41	46849.33
749.59	46994.74
749.78	47090.99
749.96	46382.40
750.15	46816.57
750.33	46828.85
750.52	46585.15
750.70	46822.71
750.89	46341.44
751.07	46366.01
751.26	46601.53
751.44	46660.92
751.63	46785.85
751.81	46269.76
752.00	46095.68
752.18	46873.91
752.37	46802.23
752.55	45968.71
752.74	46271.81
752.92	45999.43
753.10	46128.45
753.29	46048.58
753.47	45937.99
753.66	45901.12
753.84	46818.61
754.03	45923.65
754.21	45616.46
754.40	45970.75
754.58	46257.47
754.77	45999.43
754.95	45763.91
755.14	45610.31
755.32	46083.39
755.51	45835.59
755.69	46011.71
755.88	45583.69
756.06	45770.05
756.24	46130.50
756.43	45399.37
756.61	45671.75
756.80	45798.73
756.98	45585.74
757.17	45620.55
757.35	45833.54
757.54	45849.92
757.72	45753.67
757.90	45540.68
758.09	45413.71
758.27	45708.61
758.46	44922.19
758.64	45526.35
758.83	45544.78
759.01	46105.92
759.19	45374.80
759.38	45454.67
759.56	45716.81
759.75	45999.43
759.93	45409.61
760.12	45344.08
760.30	45612.36
760.48	45358.41
760.67	45147.47
760.85	45004.11
761.04	45315.40
761.22	45460.81
761.40	45499.72
761.59	44711.25
761.77	45036.88
761.96	45305.16
762.14	44825.94
762.32	44596.57
762.51	44617.05
762.69	44873.04
762.88	44483.93
763.06	44717.40
763.24	44586.33
763.43	44707.16
763.61	44647.77
763.80	44860.76
763.98	44584.28
764.16	44580.18
764.35	44264.80
764.53	44012.90
764.72	44090.72
764.90	44332.38
765.08	44381.53
765.27	44098.91
765.45	44289.37
765.63	43869.54
765.82	44225.89
766.00	44080.48
766.18	43761.00
766.37	43916.64
766.55	43861.35
766.74	44219.74
766.92	44021.09
767.10	43879.78
767.29	43554.15
767.47	43201.90
767.65	44223.84
767.84	43550.06
768.02	43406.70
768.20	43763.04
768.39	43691.37
768.57	43638.12
768.75	43308.40
768.94	43599.21
769.12	43482.47
769.30	43505.00
769.49	43218.28
769.67	42915.19
769.85	43136.37
770.04	43044.21
770.22	42698.10
770.40	42982.77
770.59	42818.93
770.77	42909.04
770.95	42755.44
771.14	42671.48
771.32	42638.71
771.50	42677.62
771.69	42571.13
771.87	42687.86
772.05	42499.45
772.24	42265.98
772.42	42663.28
772.60	42483.06
772.78	42323.32
772.97	42014.08
773.15	42374.52
773.33	42337.66
773.52	42409.34
773.70	42282.36
773.88	42517.88
774.07	42405.24
774.25	41960.83
774.43	42341.75
774.61	42460.54
774.80	42603.89
774.98	42450.30
775.16	42419.58
775.34	42536.31
775.53	42044.80
775.71	42614.13
775.89	42308.99
776.08	42397.05
776.26	42718.58
776.44	42542.45
776.62	42218.88
776.81	42231.16
776.99	42530.17
777.17	42818.93
777.35	42876.27
777.54	42853.75
777.72	42431.86
777.90	42546.55
778.08	42851.70
778.27	42773.88
778.45	42788.21
778.63	43388.27
778.81	42722.68
779.00	43326.83
779.18	43251.05
779.36	42984.82
779.54	42548.60
779.73	42761.59
779.91	42808.69
780.09	43287.92
780.27	43064.69
780.46	42784.12
780.64	43410.79
780.82	43179.37
781.00	43113.84
781.19	43330.92
781.37	43390.31
781.55	43216.24
781.73	43576.68
781.91	43009.39
782.10	43363.69
782.28	43572.58
782.46	43384.17
782.64	43603.30
782.82	43128.17
783.01	43087.21
783.19	43265.39
783.37	43287.92
783.55	43353.45
783.74	43713.89
783.92	43484.52
784.10	43789.67
784.28	43410.79
784.46	43382.12
784.64	43050.35
784.83	43107.69
785.01	43619.69
785.19	43232.62
785.37	43670.89
785.55	43365.74
785.74	43060.59
785.92	43195.76
786.10	43173.23
786.28	43339.11
786.46	43050.35
786.64	42980.72
786.83	43275.63
787.01	43421.03
787.19	43013.49
787.37	43261.29
787.55	42863.99
787.74	42909.04
787.92	42739.06
788.10	42356.09
788.28	42515.83
788.46	42853.75
788.64	42495.35
788.82	42861.94
789.01	42397.05
789.19	42569.08
789.37	42184.06
789.55	42515.83
789.73	42044.80
789.91	42259.84
790.09	42091.90
790.28	42112.38
790.46	41778.56
790.64	42081.66
790.82	41895.30
791.00	42007.94
791.18	41954.69
791.36	41753.99
791.55	41776.51
791.73	41633.16
791.91	41325.96
792.09	41590.15
792.27	41117.07
792.45	41526.66
792.63	41178.51
792.81	40826.26
793.00	40953.23
793.18	40986.00
793.36	40746.39
793.54	40871.31
793.72	40711.57
793.90	40838.54
794.08	40557.97
794.26	40656.28
794.44	39996.83
794.62	40224.15
794.81	40263.07
794.99	40338.84
795.17	39558.56
795.35	40041.88
795.53	40344.98
795.71	40408.47
795.89	39861.66
796.07	39550.37
796.25	39376.30
796.43	39398.82
796.61	39167.40
796.80	39222.70
796.98	39165.35
797.16	39134.63
797.34	38768.05
797.52	38792.62
797.70	38987.18
797.88	38905.26
798.06	38522.29
798.24	38739.38
798.42	38452.66
798.60	38514.10
798.78	38548.92
798.96	38579.64
799.14	38116.79
799.32	38405.56
799.51	38084.03
799.69	38245.82
799.87	37772.74
800.05	37275.08
800.23	37744.06
800.41	37678.53
800.59	37574.08
800.77	37299.65
800.95	37090.76
801.13	37357.00
801.31	37420.48
801.49	37209.54
801.67	36693.46
801.85	37316.04
802.03	36918.73
802.21	36990.41
802.39	36685.26
802.57	36793.81
802.75	36128.22
802.93	36505.04
803.11	36398.55
803.29	36040.15
803.47	36134.36
803.65	35984.86
803.83	35931.61
804.01	35964.38
804.19	35591.65
804.37	35732.96
804.55	35632.61
804.73	35497.44
804.91	35175.91
805.09	36038.11
805.27	35241.45
805.45	35689.95
805.63	35479.01
805.81	35468.77
805.99	35208.68
806.17	35255.78
806.35	34833.90
806.53	34569.71
806.71	35089.90
806.89	34991.59
807.07	34766.32
807.25	34747.89
807.43	34209.27
807.61	34520.56
807.79	34780.65
807.97	34135.54
808.15	34209.27
808.33	34227.70
808.51	33926.65
808.69	33472.00
808.87	33986.04
809.05	33957.37
809.23	34002.43
809.41	33582.59
809.59	33388.03
809.77	33715.71
809.95	33609.22
810.13	33676.80
810.31	33168.90
810.49	33512.96
810.67	33134.09
810.84	33027.59
811.02	33109.51
811.20	32755.21
811.38	32945.67
811.56	32937.48
811.74	32581.13
811.92	32859.66
812.10	33003.02
812.28	32560.66
812.46	32499.22
812.64	32661.01
812.82	32478.74
813.00	32259.60
813.18	32044.57
813.36	32159.25
813.53	32294.42
813.71	32400.91
813.89	32138.77
814.07	32282.13
814.25	32318.99
814.43	31753.76
814.61	31901.21
814.79	31718.94
814.97	31424.03
815.15	31587.87
815.33	31477.28
815.50	31634.97
815.68	31362.59
815.86	31596.06
816.04	31211.04
816.22	30971.43
816.40	31405.60
816.58	30869.03
816.76	30930.47
816.94	30963.24
817.11	30875.18
817.29	30791.21
817.47	31032.87
817.65	30940.71
817.83	30934.57
818.01	30660.14
818.19	30791.21
818.37	30834.22
818.54	30619.18
818.72	29937.21
818.90	30565.93
819.08	30215.73
819.26	30338.61
819.44	30150.20
819.62	30072.37
819.80	30012.98
819.97	30092.85
820.15	29947.45
820.33	29984.31
820.51	29740.60
820.69	29724.22
820.87	29851.19
821.05	29855.29
821.22	29906.49
821.40	29716.03
821.58	29433.41
821.76	29251.14
821.94	29238.85
822.12	29421.12
822.29	29306.43
822.47	28974.66
822.65	29374.02
822.83	29234.75
823.01	29046.34
823.19	28868.17
823.36	29032.00
823.54	28972.61
823.72	28708.43
823.90	28769.86
824.08	28956.23
824.25	28851.78
824.43	28515.92
824.61	28628.56
824.79	28575.31
824.97	28376.66
825.15	28599.88
825.32	28526.16
825.50	28134.99
825.68	28464.72
825.86	28452.43
826.04	28487.25
826.21	28239.44
826.39	28425.81
826.57	28319.31
826.75	28089.94
826.93	27553.37
827.10	27817.56
827.28	28026.45
827.46	28022.36
827.64	27795.03
827.81	27960.92
827.99	28102.23
828.17	27725.40
828.35	27770.46
828.53	27702.87
828.70	27602.52
828.88	27713.11
829.06	27821.66
829.24	27891.29
829.41	27876.95
829.59	27280.99
829.77	27518.56
829.95	27166.31
830.12	27379.29
830.30	27389.53
830.48	27448.93
830.66	27414.11
830.84	26930.79
831.01	27237.98
831.19	27174.50
831.37	27041.38
831.55	26887.78
831.72	26912.36
831.90	26981.99
832.08	27154.02
832.25	26758.76
832.43	26678.89
832.61	26627.69
832.79	26664.55
832.96	26646.12
833.14	26482.28
833.32	26875.49
833.50	26453.61
833.67	26672.74
833.85	26510.96
834.03	26261.10
834.20	26601.07
834.38	26429.04
834.56	26381.93
834.74	26146.42
834.91	26224.24
835.09	26224.24
835.27	25802.36
835.44	25900.66
835.62	25822.84
835.80	26062.45
835.98	25945.72
836.15	26011.25
836.33	25884.28
836.51	25943.67
836.68	25933.43
836.86	25532.03
837.04	25843.32
837.21	25591.42
837.39	25728.63
837.57	25890.42
837.75	25980.53
837.92	25507.45
838.10	25286.27
838.28	25273.98
838.45	25288.32
838.63	25593.47
838.81	25179.78
838.98	25288.32
839.16	25368.19
839.34	25116.29
839.51	25335.42
839.69	24757.89
839.87	25169.54
840.04	24940.16
840.22	25423.48
840.40	24936.07
840.57	24876.68
840.75	24800.90
840.93	25005.70
841.10	24637.06
841.28	25183.87
841.46	24876.68
841.63	24979.07
841.81	25130.62
841.98	24690.31
842.16	24618.63
842.34	24737.41
842.51	24536.71
842.69	24770.18
842.87	24270.48
843.04	24610.44
843.22	24264.33
843.40	24520.33
843.57	24577.67
843.75	24456.84
843.92	24256.14
844.10	24413.84
844.28	24200.85
844.45	24469.13
844.63	24491.66
844.81	24112.78
844.98	24563.34
845.16	23801.49
845.33	24047.25
845.51	24352.40
845.69	23772.82
845.86	23973.52
846.04	23768.73
846.21	23977.62
846.39	23666.33
846.57	23725.72
846.74	23842.45
846.92	23580.31
847.09	23811.73
847.27	23277.21
847.45	23459.48
847.62	23608.98
847.80	23631.51
847.97	23555.74
848.15	23660.18
848.32	23473.82
848.50	23389.85
848.68	23183.01
848.85	23312.03
849.03	23228.06
849.20	23287.45
849.38	23129.76
849.56	23221.92
849.73	23092.90
849.91	23275.16
850.08	23207.58
850.26	23199.39
850.43	23154.33
850.61	22963.87
850.78	22972.07
850.96	22886.05
851.14	22763.17
851.31	22961.83
851.49	22585.00
851.66	22859.43
851.84	22736.55
852.01	22976.16
852.19	22607.53
852.36	22769.32
852.54	23017.12
852.71	22632.10
852.89	22535.85
853.07	22863.52
853.24	22748.84
853.42	22611.62
853.59	22865.57
853.77	22621.86
853.94	22853.28
854.12	22933.15
854.29	22130.35
854.47	22267.56
854.64	22439.59
854.82	22128.30
854.99	22310.57
855.17	22220.46
855.34	22171.31
855.52	22302.38
855.69	22388.39
855.87	22271.66
856.04	21911.22
856.22	22105.77
856.39	21874.35
856.57	21919.41
856.74	21933.75
856.92	21890.74
857.09	22003.38
857.27	21481.14
857.44	21943.99
857.62	21976.75
857.79	21673.65
857.97	21739.19
858.14	21665.46
858.32	21753.52
858.49	21661.37
858.67	21610.17
858.84	21231.29
859.02	21642.93
859.19	21362.36
859.37	21431.99
859.54	21468.86
859.72	21681.85
859.89	21548.73
860.06	21507.77
860.24	21581.49
860.41	21687.99
860.59	21212.86
860.76	21577.40
860.94	21169.85
861.11	21360.31
861.29	21339.83
861.46	21245.63
861.64	20856.51
861.81	20905.66
861.98	21028.54
862.16	21200.57
862.33	20922.05
862.51	21012.16
862.68	21083.84
862.86	20928.19
863.03	21171.90
863.21	21071.55
863.38	20766.40
863.55	20805.31
863.73	20881.09
863.90	20901.57
864.08	20932.29
864.25	20520.65
864.43	20752.07
864.60	20944.58
864.77	20569.80
864.95	20338.38
865.12	20328.14
865.30	20670.15
865.47	20416.20
865.64	20375.24
865.82	20504.26
865.99	20526.79
866.17	20135.63
866.34	20639.43
866.51	20063.95
866.69	20561.61
866.86	20264.65
867.04	20285.13
867.21	20113.10
867.38	19869.39
867.56	20111.05
867.73	19969.74
867.91	20045.52
868.08	19734.23
868.25	19934.93
868.43	19885.78
868.60	19689.17
868.78	19666.64
868.95	20049.61
869.12	19893.97
869.30	19732.18
869.47	19771.09
869.64	19760.85
869.82	19818.19
869.99	19687.12
870.16	19982.03
870.34	19523.29
870.51	19816.15
870.69	19398.36
870.86	19730.13
871.03	19441.37
871.21	19410.65
871.38	19795.67
871.55	19324.63
871.73	19295.96
871.90	19220.19
872.07	19263.19
872.25	18898.66
872.42	19089.12
872.59	19166.94
872.77	19377.88
872.94	19033.82
873.11	19099.36
873.29	19066.59
873.46	19039.97
873.63	19027.68
873.81	19162.84
873.98	18642.66
874.15	18642.66
874.33	18759.39
874.50	18560.74
874.67	18790.11
874.85	18685.67
875.02	18589.41
875.19	18200.30
875.37	18405.10
875.54	18351.85
875.71	18347.75
875.88	18280.17
876.06	18376.42
876.23	18169.58
876.40	18093.80
876.58	18161.39
876.75	18403.05
876.92	18089.71
877.10	18282.22
877.27	18200.30
877.44	18231.02
877.61	18030.32
877.79	18073.32
877.96	17964.78
878.13	17872.62
878.31	17716.98
878.48	17792.75
878.65	17643.25
878.82	17772.27
879.00	17749.75
879.17	18038.51
879.34	17561.33
879.51	17778.42
879.69	17549.04
879.86	17577.72
880.03	17585.91
880.21	17276.66
880.38	17479.41
880.55	17702.64
880.72	17624.82
880.90	17549.04
881.07	17381.11
881.24	17460.98
881.41	17485.56
881.59	17260.28
881.76	17301.24
881.93	17377.01
882.10	17178.36
882.28	16946.94
882.45	17325.82
882.62	17127.16
882.79	17295.10
882.96	16819.97
883.14	17145.59
883.31	17086.20
883.48	17110.78
883.65	17131.26
883.83	17235.70
884.00	16936.70
884.17	17127.16
884.34	16916.22
884.51	16729.86
884.69	16813.82
884.86	16889.60
885.03	17037.05
885.20	16688.90
885.38	16922.37
885.55	16908.03
885.72	16723.71
885.89	16561.92
886.06	16600.83
886.24	16557.83
886.41	16721.66
886.58	16498.44
886.75	17159.93
886.92	16725.76
887.10	16740.10
887.27	16457.48
887.44	16584.45
887.61	16776.96
887.78	16490.24
887.95	16781.06
888.13	16379.65
888.30	16404.23
888.47	16373.51
888.64	16428.81
888.81	16477.96
888.99	16514.82
889.16	16381.70
889.33	16164.62
889.50	16381.70
889.67	16101.13
889.84	16199.43
890.01	16086.79
890.19	16342.79
890.36	16328.45
890.53	16166.67
890.70	16072.46
890.87	16058.12
891.04	16187.14
891.22	16072.46
891.39	15912.72
891.56	15847.18
891.73	15933.20
891.90	15867.66
892.07	15836.94
892.24	15750.93
892.42	15773.46
892.59	15898.38
892.76	15531.80
892.93	15634.19
893.10	15554.32
893.27	15685.39
893.44	15787.79
893.61	15527.70
893.79	15771.41
893.96	15587.09
894.13	15558.42
894.30	15738.64
894.47	15718.16
894.64	15720.21
894.81	15712.02
894.98	15691.54
895.15	15740.69
895.33	15615.76
895.50	15486.74
895.67	15744.78
895.84	15480.60
896.01	15716.11
896.18	15392.53
896.35	15601.43
896.52	15539.99
896.69	15408.92
896.86	15327.00
897.04	15392.53
897.21	15482.64
897.38	15419.16
897.55	15318.81
897.72	15449.88
897.89	15347.48
898.06	15511.32
898.23	15413.01
898.40	15621.91
898.57	15306.52
898.74	15310.61
898.91	15456.02
899.08	15370.01
899.26	15476.50
899.43	15374.10
899.60	15462.16
899.77	15402.77
899.94	15226.65
900.11	15388.44
900.28	15433.49
900.45	15218.46
900.62	15240.98
900.79	15574.80
900.96	15492.88
901.13	15179.54
901.30	15394.58
901.47	15343.38
901.64	15275.80
901.81	15515.41
901.98	15296.28
902.15	15458.07
902.32	15066.91
902.49	15273.75
902.66	15449.88
902.83	15578.90
903.01	15580.95
903.18	15488.79
903.35	15519.51
903.52	15298.33
903.69	15505.17
903.86	15419.16
904.03	15236.89
904.20	15327.00
904.37	15691.54
904.54	15349.53
904.71	15449.88
904.88	15238.94
905.05	15224.60
905.22	15195.93
905.39	15456.02
905.56	15288.09
905.73	15431.44
905.90	15302.42
906.07	15310.61
906.24	15281.94
906.41	15253.27
906.58	15353.62
906.75	15312.66
906.92	15200.02
907.09	15251.22
907.26	15277.85
907.43	15353.62
907.60	15210.26
907.77	15576.85
907.93	15296.28
908.10	15281.94
908.27	15570.71
908.44	15206.17
908.61	15109.91
908.78	15095.58
908.95	15134.49
909.12	15222.55
909.29	15083.29
909.46	15189.78
909.63	15355.67
909.80	15191.83
909.97	15163.16
910.14	15030.04
910.31	15243.03
910.48	15195.93
910.65	15116.06
910.82	15208.22
910.99	15138.58
911.16	15232.79
911.33	15273.75
911.50	15023.90
911.66	14817.05
911.83	15228.70
912.00	14903.07
912.17	14948.12
912.34	14956.32
912.51	14941.98
912.68	14915.36
912.85	14999.32
913.02	14860.06
913.19	14835.49
913.36	14792.48
913.53	14841.63
913.70	14710.56
913.86	14817.05
914.03	14757.66
914.20	14679.84
914.37	14534.43
914.54	14640.93
914.71	14692.13
914.88	14782.24
915.05	14503.71
915.22	14731.04
915.39	14626.59
915.55	14565.15
915.72	14516.00
915.89	14489.38
916.06	14468.90
916.23	14444.32
916.40	14257.96
916.57	14114.60
916.74	14124.84
916.91	14122.79
917.07	13967.15
917.24	14133.03
917.41	14159.66
917.58	13967.15
917.75	13932.33
917.92	13877.04
918.09	13856.56
918.26	13743.92
918.42	13823.79
918.59	13797.17
918.76	13719.34
918.93	13662.00
919.10	13780.78
919.27	13715.25
919.44	13643.57
919.60	13678.38
919.77	13627.18
919.94	13618.99
920.11	13440.82
920.28	13580.08
920.45	13446.96
920.61	13365.04
920.78	13315.89
920.95	13240.12
921.12	13227.83
921.29	13190.97
921.46	13236.02
921.62	12924.73
921.79	13326.13
921.96	13096.76
922.13	13082.42
922.30	12945.21
922.47	12822.33
922.63	12896.06
922.80	12844.86
922.97	12859.20
923.14	12539.71
923.31	12836.67
923.47	12474.18
923.64	12842.81
923.81	12709.69
923.98	12521.28
924.15	12418.88
924.32	12492.61
924.48	12293.96
924.65	12500.80
924.82	12404.55
924.99	12363.59
925.15	12021.58
925.32	12298.05
925.49	12080.97
925.66	11958.09
925.83	11939.66
925.99	11927.37
926.16	12175.17
926.33	11829.07
926.50	11857.74
926.67	12058.44
926.83	11855.69
927.00	11910.99
927.17	11595.60
927.34	11685.71
927.50	11679.57
927.67	11671.37
927.84	11499.34
928.01	11315.03
928.17	11294.55
928.34	11411.28
928.51	11394.90
928.68	11063.13
928.84	11159.38
929.01	11065.18
929.18	10983.26
929.35	10999.64
929.51	11030.36
929.68	10981.21
929.85	10958.68
930.02	10985.30
930.18	10823.51
930.35	10977.11
930.52	10721.12
930.69	10770.27
930.85	10843.99
931.02	10633.05
931.19	10702.68
931.36	10608.48
931.52	10424.16
931.69	10569.57
931.86	10510.18
932.02	10409.83
932.19	10528.61
932.36	10196.84
932.53	10194.79
932.69	10133.35
932.86	10241.89
933.03	10035.05
933.19	10139.49
933.36	10176.36
933.53	10116.97
933.70	10035.05
933.86	9809.77
934.03	10006.38
934.20	9682.80
934.36	9840.49
934.53	9586.54
934.70	9420.66
934.86	9459.57
935.03	9244.53
935.20	9195.38
935.36	9164.66
935.53	9230.20
935.70	9072.50
935.86	9047.93
936.03	8945.53
936.20	8824.70
936.36	8845.18
936.53	8701.82
936.70	8861.56
936.86	8785.79
937.03	8564.61
937.20	8486.78
937.36	8658.81
937.53	8337.28
937.70	8204.16
937.86	7966.60
938.03	8152.96
938.20	8277.89
938.36	7851.91
938.53	7843.72
938.70	7688.07
938.86	7833.48
939.03	7683.98
939.20	7620.49
939.36	7579.53
939.53	7427.98
939.70	7669.64
939.86	7235.47
940.03	7157.65
940.19	7063.44
940.36	7063.44
940.53	6850.46
940.69	6842.26
940.86	6877.08
941.03	6692.76
941.19	6584.22
941.36	6547.36
941.52	6516.64
941.69	6481.82
941.86	6442.91
942.02	6444.96
942.19	6336.42
942.35	6381.47
942.52	6201.25
942.69	6154.15
942.85	5988.26
943.02	5998.50
943.18	5984.16
943.35	6045.60
943.52	5943.21
943.68	5812.14
943.85	5822.38
944.01	6072.23
944.18	5810.09
944.35	5801.90
944.51	5902.25
944.68	5550.00
944.84	5644.20
945.01	5593.00
945.17	5689.26
945.34	5636.01
945.51	5681.07
945.67	5609.39
945.84	5640.11
946.00	5386.16
946.17	5613.48
946.33	5472.17
946.50	5506.99
946.67	5554.09
946.83	5414.83
947.00	5543.85
947.16	5418.93
947.33	5418.93
947.49	5459.88
947.66	5408.69
947.82	5513.13
947.99	5439.40
948.16	5547.95
948.32	5468.08
948.49	5506.99
948.65	5478.32
948.82	5509.04
948.98	5402.54
949.15	5353.39
949.31	5445.55
949.48	5558.19
949.64	5517.23
949.81	5478.32
949.97	5388.21
950.14	5648.30
950.30	5492.65
950.47	5541.80
950.63	5410.73
950.80	5562.28
950.96	5445.55
951.13	5400.49
951.30	5523.37
951.46	5363.63
951.63	5650.35
951.79	5455.79
951.96	5580.71
952.12	5531.56
952.29	5658.54
952.45	5496.75
952.62	5500.84
952.78	5652.39
952.94	5476.27
953.11	5593.00
953.27	5463.98
953.44	5646.25
953.60	5552.04
953.77	5576.62
953.93	5599.15
954.10	5539.76
954.26	5679.02
954.43	5545.90
954.59	5525.42
954.76	5748.65
954.92	5656.49
955.09	5609.39
955.25	5488.56
955.42	5523.37
955.58	5822.38
955.75	5509.04
955.91	5629.87
956.07	5611.43
956.24	5629.87
956.40	5648.30
956.57	5717.93
956.73	5654.44
956.90	5707.69
957.06	5676.97
957.23	5504.94
957.39	5601.19
957.56	5656.49
957.72	5590.95
957.88	5705.64
958.05	5758.89
958.21	5672.87
958.38	5550.00
958.54	5701.54
958.71	5775.27
958.87	5568.43
959.03	5685.16
959.20	5572.52
959.36	5500.84
959.53	5550.00
959.69	5623.72
959.85	5730.22
960.02	5668.78
960.18	5730.22
960.35	5810.09
960.51	5783.46
960.68	5638.06
960.84	5648.30
961.00	5513.13
961.17	5461.93
961.33	5699.50
961.50	5668.78
961.66	5580.71
961.82	5701.54
961.99	5558.19
962.15	5509.04
962.31	5617.58
962.48	5496.75
962.64	5652.39
962.81	5564.33
962.97	5650.35
963.13	5558.19
963.30	5480.36
963.46	5621.67
963.62	5562.28
963.79	5627.82
963.95	5590.95
964.12	5502.89
964.28	5443.50
964.44	5384.11
964.61	5562.28
964.77	5644.20
964.93	5674.92
965.10	5552.04
965.26	5609.39
965.42	5597.10
965.59	5523.37
965.75	5461.93
965.92	5521.32
966.08	5545.90
966.24	5601.19
966.41	5543.85
966.57	5459.88
966.73	5576.62
966.90	5656.49
967.06	5443.50
967.22	5468.08
967.39	5392.30
967.55	5259.18
967.71	5427.12
967.88	5347.25
968.04	5279.66
968.20	5279.66
968.37	5312.43
968.53	5277.62
968.69	5504.94
968.85	5515.18
969.02	5316.53
969.18	5255.09
969.34	5431.21
969.51	5357.49
969.67	5226.42
969.83	5181.36
970.00	5267.38
970.16	5279.66
970.32	5296.05
970.48	5302.19
970.65	5144.50
970.81	5283.76
970.97	5283.76
971.14	5119.92
971.30	5279.66
971.46	5076.91
971.63	5162.93
971.79	5236.66
971.95	5103.54
972.11	5089.20
972.28	5072.82
972.44	5205.94
972.60	4929.46
972.76	5128.11
972.93	5111.73
973.09	5146.55
973.25	5103.54
973.42	4935.60
973.58	5119.92
973.74	5156.79
973.90	5015.48
974.07	5066.67
974.23	4988.85
974.39	4951.99
974.55	5021.62
974.72	4855.73
974.88	4931.51
975.04	5078.96
975.20	4845.49
975.37	5025.72
975.53	4888.50
975.69	4886.45
975.85	4900.79
976.01	4882.36
976.18	4935.60
976.34	4960.18
976.50	4945.84
976.66	4810.68
976.83	4894.65
976.99	4894.65
977.15	4747.19
977.31	4712.38
977.47	4870.07
977.64	4745.14
977.80	4868.02
977.96	4763.58
978.12	4657.08
978.29	4702.14
978.45	4616.12
978.61	4532.15
978.77	4788.15
978.93	4665.27
979.10	4757.43
979.26	4607.93
979.42	4720.57
979.58	4638.65
979.74	4683.70
979.91	4573.11
980.07	4579.26
980.23	4630.46
980.39	4550.59
980.55	4556.73
980.71	4491.20
980.88	4507.58
981.04	4562.87
981.20	4519.87
981.36	4505.53
981.52	4630.46
981.68	4440.00
981.85	4591.55
982.01	4503.48
982.17	4487.10
982.33	4526.01
982.49	4564.92
982.65	4440.00
982.82	4415.42
982.98	4466.62
983.14	4345.79
983.30	4394.94
983.46	4376.51
983.62	4403.13
983.79	4419.52
983.95	4374.46
984.11	4321.21
984.27	4276.16
984.43	4276.16
984.59	4270.01
984.75	4358.08
984.91	4212.67
985.08	4399.04
985.24	4167.62
985.40	4241.34
985.56	4237.25
985.72	4276.16
985.88	4218.82
986.04	4235.20
986.20	4181.95
986.37	4091.84
986.53	4108.23
986.69	4138.94
986.85	4155.33
987.01	4165.57
987.17	4255.68
987.33	4061.12
987.49	4059.07
987.65	4089.79
987.82	4097.99
987.98	4016.07
988.14	4151.23
988.30	3958.72
988.46	4003.78
988.62	4046.79
988.78	4132.80
988.94	4014.02
989.10	3921.86
989.26	3831.75
989.42	3960.77
989.59	4016.07
989.75	3977.16
989.91	4067.27
990.07	3780.55
990.23	3950.53
990.39	3882.95
990.55	3835.85
990.71	3895.24
990.87	3819.46
991.03	3909.57
991.19	3901.38
991.35	3858.37
991.51	3885.00
991.67	3753.93
991.83	3860.42
992.00	3813.32
992.16	3899.33
992.32	3819.46
992.48	3862.47
992.64	3702.73
992.80	3821.51
992.96	3743.69
993.12	3708.87
993.28	3721.16
993.44	3700.68
993.60	3731.40
993.76	3719.11
993.92	3753.93
994.08	3758.02
994.24	3624.90
994.40	3649.48
994.56	3641.29
994.72	3635.14
994.88	3567.56
995.04	3653.58
995.20	3676.10
995.36	3444.68
995.52	3721.16
995.68	3614.66
995.84	3585.99
996.00	3706.82
996.16	3436.49
996.32	3481.55
996.48	3547.08
996.64	3645.38
996.80	3524.55
996.96	3442.64
997.12	3508.17
997.28	3461.07
997.44	3522.51
997.60	3481.55
997.76	3502.03
997.92	3489.74
998.08	3495.88
998.24	3350.48
998.40	3362.76
998.56	3508.17
998.72	3291.09
998.88	3373.00
999.04	3270.61
999.20	3442.64
999.36	3276.75
999.52	3305.42
999.68	3278.80
999.84	3391.44
1000.00	3424.20
1000.16	3407.82
1000.32	3332.05
1000.48	3352.52
1000.64	3182.54
1000.80	3139.54
1000.95	3233.74
1001.11	3237.84
1001.27	3176.40
1001.43	3262.41
1001.59	3235.79
1001.75	3157.97
1001.91	3272.65
1002.07	3239.89
1002.23	3278.80
1002.39	3164.11
1002.55	3114.96
1002.71	3235.79
1002.87	3157.97
1003.03	3119.06
1003.19	3133.39
1003.34	3172.30
1003.50	3039.19
1003.66	3166.16
1003.82	3194.83
1003.98	3088.34
1004.14	3198.93
1004.30	2994.13
1004.46	3065.81
1004.62	3024.85
1004.78	3094.48
1004.94	3102.67
1005.09	3100.62
1005.25	3180.50
1005.41	3014.61
1005.57	3035.09
1005.73	3014.61
1005.89	3035.09
1006.05	3092.43
1006.21	2912.21
1006.37	3018.71
1006.52	2951.12
1006.68	2936.79
1006.84	2998.23
1007.00	2838.48
1007.16	3047.38
1007.32	2881.49
1007.48	2912.21
1007.64	2967.51
1007.79	2899.92
1007.95	2883.54
1008.11	2983.89
1008.27	2881.49
1008.43	2877.40
1008.59	2828.24
1008.75	2934.74
1008.91	2848.72
1009.06	2832.34
1009.22	2822.10
1009.38	2887.64
1009.54	2881.49
1009.70	2805.72
1009.86	2901.97
1010.01	3008.47
1010.17	2772.95
1010.33	2895.83
1010.49	2820.05
1010.65	2842.58
1010.81	2758.61
1010.96	2836.44
1011.12	2748.37
1011.28	2803.67
1011.44	2852.82
1011.60	2738.13
1011.76	2760.66
1011.91	2795.48
1012.07	2664.41
1012.23	2594.78
1012.39	2666.46
1012.55	2715.61
1012.71	2615.26
1012.86	2674.65
1013.02	2627.54
1013.18	2617.30
1013.34	2729.94
1013.50	2676.70
1013.65	2719.70
1013.81	2627.54
1013.97	2566.10
1014.13	2676.70
1014.29	2576.34
1014.44	2695.13
1014.60	2641.88
1014.76	2588.63
1014.92	2607.06
1015.07	2547.67
1015.23	2543.58
1015.39	2508.76
1015.55	2578.39
1015.71	2516.95
1015.86	2564.06
1016.02	2471.90
1016.18	2420.70
1016.34	2547.67
1016.49	2510.81
1016.65	2531.29
1016.81	2602.97
1016.97	2506.71
1017.12	2508.76
1017.28	2428.89
1017.44	2428.89
1017.60	2459.61
1017.75	2580.44
1017.91	2418.65
1018.07	2459.61
1018.23	2486.23
1018.38	2439.13
1018.54	2420.70
1018.70	2523.10
1018.86	2394.08
1019.01	2385.88
1019.17	2453.47
1019.33	2379.74
1019.49	2418.65
1019.64	2488.28
1019.80	2428.89
1019.96	2430.94
1020.12	2510.81
1020.27	2396.12
1020.43	2449.37
1020.59	2330.59
1020.74	2437.08
1020.90	2418.65
1021.06	2404.32
1021.22	2355.16
1021.37	2351.07
1021.53	2351.07
1021.69	2336.73
1021.84	2328.54
1022.00	2385.88
1022.16	2246.62
1022.31	2265.05
1022.47	2297.82
1022.63	2353.12
1022.79	2201.57
1022.94	2281.44
1023.10	2326.49
1023.26	2273.25
1023.41	2332.64
1023.57	2240.48
1023.73	2353.12
1023.88	2254.81
1024.04	2211.81
1024.20	2238.43
1024.35	2306.01
1024.51	2269.15
1024.67	2238.43
1024.82	2306.01
1024.98	2133.98
1025.14	2238.43
1025.29	2185.18
1025.45	2263.01
1025.61	2068.45
1025.76	2197.47
1025.92	2213.85
1026.08	2318.30
1026.23	2199.52
1026.39	2185.18
1026.55	2160.61
1026.70	2039.78
1026.86	2158.56
1027.02	2242.53
1027.17	2170.85
1027.33	2211.81
1027.48	2140.13
1027.64	2189.28
1027.80	2115.55
1027.95	2207.71
1028.11	2121.70
1028.27	2191.33
1028.42	2056.16
1028.58	2095.07
1028.73	2168.80
1028.89	2052.06
1029.05	2234.33
1029.20	2162.66
>>>>>End Processed Spectral Data<<<<<
