SpectraSuite Data File
++++++++++++++++++++++++++++++++++++
Date: Fri Jun 02 14:52:28 CEST 2017
User: INFO_000
Dark Spectrum Present: No
Reference Spectrum Present: No
Number of Sampled Component Spectra: 1
Spectrometers: USB4H00879
Integration Time (usec): 80000 (USB4H00879)
Spectra Averaged: 1 (USB4H00879)
Boxcar Smoothing: 0 (USB4H00879)
Correct for Electrical Dark: No (USB4H00879)
Strobe/Lamp Enabled: No (USB4H00879)
Correct for Detector Non-linearity: No (USB4H00879)
Correct for Stray Light: No (USB4H00879)
Number of Pixels in Processed Spectrum: 3648
>>>>>Begin Processed Spectral Data<<<<<
345.13	1325.04
345.34	1325.04
345.56	1325.04
345.78	1277.93
345.99	1273.84
346.21	1705.96
346.42	1689.57
346.64	1572.84
346.86	1796.07
347.07	1675.24
347.29	1683.43
347.50	1593.32
347.72	1634.28
347.94	1736.68
348.15	1499.11
348.37	1560.55
348.59	1630.18
348.80	1683.43
349.02	1847.27
349.23	1861.60
349.45	1834.98
349.67	1900.52
349.88	1787.88
350.10	1978.34
350.31	1798.12
350.53	1865.70
350.75	2009.06
350.96	1826.79
351.18	1863.65
351.39	1837.03
351.61	1789.92
351.82	1886.18
352.04	1910.75
352.26	1740.77
352.47	1853.41
352.69	1849.32
352.90	1751.01
353.12	1910.75
353.34	1824.74
353.55	1906.66
353.77	1884.13
353.98	1839.08
354.20	1857.51
354.41	1890.28
354.63	1978.34
354.85	2121.70
355.06	1859.56
355.28	1808.36
355.49	1849.32
355.71	1892.32
355.92	1925.09
356.14	1986.53
356.35	1857.51
356.57	1912.80
356.79	1945.57
357.00	1888.23
357.22	2019.30
357.43	1851.36
357.65	1935.33
357.86	1892.32
358.08	1892.32
358.29	1880.04
358.51	1957.86
358.72	1978.34
358.94	1923.04
359.16	1888.23
359.37	1986.53
359.59	1880.04
359.80	1968.10
360.02	1978.34
360.23	1937.38
360.45	1902.56
360.66	1978.34
360.88	1855.46
361.09	1992.67
361.31	2056.16
361.52	1966.05
361.74	2041.82
361.95	2035.68
362.17	1982.43
362.38	2160.61
362.60	1937.38
362.81	1941.47
363.03	2000.87
363.24	2043.87
363.46	2082.78
363.67	1982.43
363.89	2033.63
364.10	1951.71
364.32	2027.49
364.53	2107.36
364.75	1914.85
364.96	2017.25
365.18	2002.91
365.39	2000.87
365.61	2019.30
365.82	2148.32
366.04	2066.40
366.25	2025.44
366.47	2076.64
366.68	2105.31
366.90	2052.06
367.11	2072.54
367.33	2140.13
367.54	2047.97
367.76	2123.74
367.97	2097.12
368.19	2015.20
368.40	1986.53
368.62	1925.09
368.83	1976.29
369.05	2105.31
369.26	2086.88
369.48	1982.43
369.69	1974.24
369.91	2084.83
370.12	2052.06
370.33	2066.40
370.55	1935.33
370.76	1984.48
370.98	2097.12
371.19	2052.06
371.41	2101.22
371.62	2084.83
371.84	1994.72
372.05	2207.71
372.27	2058.21
372.48	2097.12
372.69	2072.54
372.91	2109.41
373.12	2150.37
373.34	2062.30
373.55	2170.85
373.77	2193.37
373.98	2131.94
374.20	2162.66
374.41	2322.40
374.62	2199.52
374.84	2201.57
375.05	2160.61
375.27	2152.42
375.48	2224.09
375.70	2197.47
375.91	2236.38
376.12	2318.30
376.34	2199.52
376.55	2144.22
376.77	2160.61
376.98	2082.78
377.19	2174.94
377.41	2213.85
377.62	2224.09
377.84	2224.09
378.05	2389.98
378.27	2224.09
378.48	2269.15
378.69	2394.08
378.91	2310.11
379.12	2275.29
379.34	2150.37
379.55	2396.12
379.76	2240.48
379.98	2215.90
380.19	2224.09
380.41	2260.96
380.62	2275.29
380.83	2215.90
381.05	2215.90
381.26	2404.32
381.47	2322.40
381.69	2271.20
381.90	2449.37
382.12	2349.02
382.33	2252.77
382.54	2306.01
382.76	2320.35
382.97	2387.93
383.19	2295.77
383.40	2412.51
383.61	2277.34
383.83	2387.93
384.04	2353.12
384.25	2371.55
384.47	2383.84
384.68	2363.36
384.89	2283.49
385.11	2340.83
385.32	2297.82
385.54	2383.84
385.75	2326.49
385.96	2469.85
386.18	2469.85
386.39	2492.38
386.60	2351.07
386.82	2516.95
387.03	2396.12
387.24	2486.23
387.46	2447.32
387.67	2492.38
387.88	2580.44
388.10	2469.85
388.31	2490.33
388.52	2543.58
388.74	2504.67
388.95	2547.67
389.16	2428.89
389.38	2502.62
389.59	2590.68
389.80	2580.44
390.02	2572.25
390.23	2711.51
390.44	2607.06
390.66	2582.49
390.87	2590.68
391.08	2611.16
391.30	2637.78
391.51	2611.16
391.72	2693.08
391.94	2703.32
392.15	2635.74
392.36	2559.96
392.58	2688.98
392.79	2713.56
393.00	2725.85
393.22	2750.42
393.43	2772.95
393.64	2844.63
393.85	2695.13
394.07	2658.26
394.28	2764.76
394.49	2727.89
394.71	2799.57
394.92	2813.91
395.13	2766.81
395.35	2801.62
395.56	2844.63
395.77	2746.33
395.98	2887.64
396.20	2822.10
396.41	2875.35
396.62	2928.60
396.84	2787.29
397.05	2848.72
397.26	2869.20
397.47	2957.27
397.69	2867.16
397.90	3014.61
398.11	2981.84
398.32	2957.27
398.54	2883.54
398.75	2889.68
398.96	2959.31
399.18	3080.14
399.39	2883.54
399.60	3147.73
399.81	2973.65
400.03	3006.42
400.24	3170.26
400.45	2981.84
400.66	3063.76
400.88	3151.82
401.09	3145.68
401.30	3061.71
401.51	3239.89
401.73	3231.69
401.94	3194.83
402.15	3203.02
402.36	3192.78
402.58	3194.83
402.79	3280.85
403.00	3186.64
403.21	3243.98
403.43	3356.62
403.64	3297.23
403.85	3233.74
404.06	3254.22
404.27	3217.36
404.49	3231.69
404.70	3270.61
404.91	3399.63
405.12	3321.81
405.34	3311.57
405.55	3385.29
405.76	3194.83
405.97	3235.79
406.19	3360.72
406.40	3221.45
406.61	3334.09
406.82	3436.49
407.03	3313.61
407.25	3381.20
407.46	3581.90
407.67	3452.88
407.88	3555.27
408.09	3436.49
408.31	3362.76
408.52	3446.73
408.73	3489.74
408.94	3395.53
409.15	3438.54
409.37	3495.88
409.58	3530.70
409.79	3633.10
410.00	3663.82
410.21	3405.77
410.43	3465.16
410.64	3536.84
410.85	3532.75
411.06	3620.81
411.27	3643.34
411.48	3721.16
411.70	3596.23
411.91	3698.63
412.12	3747.78
412.33	3618.76
412.54	3620.81
412.76	3708.87
412.97	3725.26
413.18	3639.24
413.39	3702.73
413.60	3649.48
413.81	3772.36
414.03	3712.97
414.24	3698.63
414.45	3999.68
414.66	3702.73
414.87	3858.37
415.08	3647.43
415.30	3862.47
415.51	3835.85
415.72	3739.59
415.93	3831.75
416.14	3915.72
416.35	3946.44
416.56	3958.72
416.78	3938.24
416.99	4022.21
417.20	3962.82
417.41	3975.11
417.62	4038.59
417.83	4022.21
418.04	3880.90
418.26	4024.26
418.47	3948.48
418.68	4069.31
418.89	3917.76
419.10	4140.99
419.31	4048.83
419.52	4057.03
419.73	4040.64
419.95	4067.27
420.16	4028.35
420.37	4124.61
420.58	4095.94
420.79	4083.65
421.00	4116.42
421.21	4261.82
421.42	4081.60
421.63	4120.51
421.85	4112.32
422.06	4272.06
422.27	4196.29
422.48	4229.06
422.69	4339.65
422.90	4231.10
423.11	4333.50
423.32	4378.56
423.53	4437.95
423.75	4343.74
423.96	4597.69
424.17	4487.10
424.38	4523.96
424.59	4368.32
424.80	4587.45
425.01	4489.15
425.22	4452.28
425.43	4435.90
425.64	4607.93
425.85	4673.46
426.06	4693.94
426.28	4650.94
426.49	4460.48
426.70	4478.91
426.91	4534.20
427.12	4612.03
427.33	4681.66
427.54	4630.46
427.75	4739.00
427.96	4978.61
428.17	4849.59
428.38	4810.68
428.59	4716.47
428.80	4927.41
429.01	4861.88
429.23	4945.84
429.44	5060.53
429.65	4960.18
429.86	5044.15
430.07	5038.00
430.28	4865.97
430.49	4945.84
430.70	5187.50
430.91	5218.22
431.12	4976.56
431.33	5261.23
431.54	5113.78
431.75	5183.41
431.96	5138.35
432.17	5056.43
432.38	5048.24
432.59	5361.58
432.80	5318.57
433.01	5498.80
433.22	5451.69
433.43	5408.69
433.64	5330.86
433.85	5179.31
434.06	5545.90
434.27	5412.78
434.49	5480.36
434.70	5701.54
434.91	5498.80
435.12	5605.29
435.33	5494.70
435.54	5543.85
435.75	5384.11
435.96	5525.42
436.17	5341.10
436.38	5541.80
436.59	5765.03
436.80	5691.31
437.01	5842.85
437.22	5851.05
437.43	5672.87
437.64	5572.52
437.85	5803.94
438.06	5818.28
438.27	5865.38
438.48	5832.62
438.69	5812.14
438.90	6010.79
439.11	5730.22
439.32	5953.45
439.53	5990.31
439.74	5988.26
439.95	5883.81
440.16	6002.60
440.37	6055.84
440.57	6090.66
440.78	6135.71
440.99	6059.94
441.20	6039.46
441.41	6004.64
441.62	6209.44
441.83	6021.03
442.04	6203.30
442.25	6164.39
442.46	6287.26
442.67	6326.18
442.88	6434.72
443.09	6262.69
443.30	6205.35
443.51	6356.90
443.72	6619.04
443.93	6184.87
444.14	6733.72
444.35	6309.79
444.56	6471.58
444.77	6408.09
444.98	6604.70
445.19	6436.77
445.40	6477.73
445.61	6418.33
445.81	6639.51
446.02	6563.74
446.23	6588.32
446.44	6389.66
446.65	6746.01
446.86	6643.61
447.07	6625.18
447.28	6801.30
447.49	6881.18
447.70	6885.27
447.91	6934.42
448.12	6926.23
448.33	6803.35
448.54	6987.67
448.74	6895.51
448.95	6821.78
449.16	6770.58
449.37	7294.86
449.58	6852.50
449.79	7104.40
450.00	7034.77
450.21	7274.38
450.42	7346.06
450.63	7221.14
450.84	7161.75
451.05	7327.63
451.25	7118.74
451.46	7049.11
451.67	7462.80
451.88	7413.65
452.09	7346.06
452.30	7268.24
452.51	7440.27
452.72	7477.13
452.93	7835.53
453.13	7249.81
453.34	7419.79
453.55	7489.42
453.76	7491.47
453.97	7917.45
454.18	7663.50
454.39	7776.14
454.60	7722.89
454.81	7702.41
455.01	7878.54
455.22	7665.55
455.43	7835.53
455.64	7946.12
455.85	8060.80
456.06	8095.62
456.27	8023.94
456.48	7905.16
456.68	7980.93
456.89	8036.23
457.10	8075.14
457.31	8210.31
457.52	8177.54
457.73	8118.15
457.94	8593.28
458.14	8171.40
458.35	8816.51
458.56	8537.98
458.77	8394.62
458.98	8597.37
459.19	8605.56
459.39	8617.85
459.60	9029.49
459.81	8607.61
460.02	8951.67
460.23	8865.66
460.44	9039.73
460.65	8720.25
460.85	8994.68
461.06	9121.65
461.27	8605.56
461.48	9185.14
461.69	9226.10
461.89	8937.34
462.10	9062.26
462.31	9015.16
462.52	8992.63
462.73	9285.49
462.94	9439.09
463.14	9246.58
463.35	9342.83
463.56	9658.22
463.77	9564.01
463.98	9322.35
464.18	9488.24
464.39	9672.56
464.60	9959.27
464.81	9639.79
465.02	9785.19
465.23	10108.77
465.43	9758.57
465.64	10094.44
465.85	10030.95
466.06	10018.66
466.27	10301.28
466.47	10162.02
466.68	10295.14
466.89	10192.74
467.10	10569.57
467.30	10264.42
467.51	10362.72
467.72	10661.73
467.93	10157.92
468.14	10614.62
468.34	10690.40
468.55	10717.02
468.76	10790.75
468.97	10717.02
469.17	10968.92
469.38	10876.76
469.59	11151.19
469.80	10952.54
470.01	11024.22
470.21	11136.85
470.42	11568.98
470.63	11331.41
470.84	11343.70
471.04	11452.24
471.25	11503.44
471.46	11503.44
471.67	11773.77
471.87	11679.57
472.08	11904.84
472.29	11956.04
472.50	11687.76
472.70	11814.73
472.91	11800.40
473.12	12132.17
473.33	12177.22
473.53	12367.68
473.74	12144.45
473.95	12410.69
474.16	12482.37
474.36	12435.27
474.57	12986.17
474.78	12939.07
474.99	12707.65
475.19	12484.42
475.40	13166.39
475.61	13059.90
475.81	13258.55
476.02	13260.60
476.23	13184.82
476.44	13446.96
476.64	13586.22
476.85	13428.53
477.06	13662.00
477.27	14001.96
477.47	13854.51
477.68	13817.65
477.89	14030.63
478.09	14200.62
478.30	14126.89
478.51	14016.30
478.71	14386.98
478.92	14354.21
479.13	14655.26
479.34	14919.45
479.54	14556.96
479.75	14815.01
479.96	14939.93
480.16	14798.62
480.37	15060.76
480.58	15204.12
480.78	15488.79
480.99	15408.92
481.20	15564.56
481.41	15324.95
481.61	15570.71
481.82	15773.46
482.03	15683.34
482.23	15847.18
482.44	16150.28
482.65	16230.15
482.85	16291.59
483.06	16353.03
483.27	16137.99
483.47	16486.15
483.68	16572.16
483.89	16488.20
484.09	16525.06
484.30	16729.86
484.51	16834.30
484.71	17106.68
484.92	16994.04
485.13	17338.10
485.33	17362.68
485.54	17342.20
485.75	17508.08
485.95	17716.98
486.16	17770.22
486.37	17614.58
486.57	17944.30
486.78	17653.49
486.98	17567.48
487.19	18005.74
487.40	18069.23
487.60	18095.85
487.81	18448.10
488.02	18245.35
488.22	18302.70
488.43	18714.34
488.64	18710.24
488.84	18585.32
489.05	19025.63
489.25	19037.92
489.46	19150.56
489.67	18843.36
489.87	19367.64
490.08	19271.39
490.29	19619.54
490.49	19783.38
490.70	19877.58
490.90	19734.23
491.11	19791.57
491.32	19977.94
491.52	19959.50
491.73	20027.09
491.94	20162.25
492.14	20238.03
492.35	20389.58
492.55	20547.27
492.76	20752.07
492.97	20707.01
493.17	20977.34
493.38	20598.47
493.58	21184.19
493.79	21239.48
494.00	21120.70
494.20	20960.96
494.41	21491.38
494.61	21255.87
494.82	21264.06
495.02	21241.53
495.23	21708.47
495.44	21767.86
495.64	22048.43
495.85	21739.19
496.05	22376.11
496.26	21950.13
496.47	22341.29
496.67	21872.31
496.88	22505.13
497.08	22259.37
497.29	22636.20
497.49	22312.62
497.70	22640.29
497.91	22924.96
498.11	22967.97
498.32	23051.94
498.52	23084.70
498.73	23379.61
498.93	23266.97
499.14	23219.87
499.34	23561.88
499.55	23719.57
499.76	23303.84
499.96	23582.36
500.17	23686.81
500.37	23699.09
500.58	23641.75
500.78	24080.02
500.99	24008.34
501.19	24198.80
501.40	24213.13
501.60	24151.70
501.81	24252.05
502.02	24280.72
502.22	24090.26
502.43	24336.01
502.63	24747.65
502.84	24956.55
503.04	24626.82
503.25	24788.61
503.45	25112.19
503.66	24989.31
503.86	24811.14
504.07	25310.85
504.27	24934.02
504.48	25689.72
504.68	25493.12
504.89	25589.37
505.09	25497.21
505.30	25529.98
505.50	25771.64
505.71	25777.78
505.91	25984.63
506.12	25876.09
506.32	25712.25
506.53	25816.69
506.73	26033.78
506.94	26199.66
507.14	26472.04
507.35	25794.17
507.55	26203.76
507.76	26369.65
507.96	26359.41
508.17	26531.44
508.37	26338.93
508.58	26654.31
508.78	26549.87
508.99	26846.82
509.19	26672.74
509.40	26938.98
509.60	26893.93
509.81	27313.76
510.01	26920.55
510.22	27016.80
510.42	26984.04
510.63	27321.95
510.83	27291.23
511.04	27313.76
511.24	27733.59
511.44	27455.07
511.65	27938.39
511.85	27465.31
512.06	27741.78
512.26	27696.73
512.47	27858.52
512.67	27913.81
512.88	28014.16
513.08	27647.58
513.29	28008.02
513.49	27872.85
513.69	27676.25
513.90	28057.17
514.10	28266.06
514.31	28024.40
514.51	28421.71
514.72	28227.15
514.92	28298.83
515.13	28212.82
515.33	28253.78
515.53	28657.23
515.74	28438.09
515.94	28792.39
516.15	29029.96
516.35	28477.01
516.56	29005.38
516.76	28573.26
516.96	29095.49
517.17	28935.75
517.37	29261.38
517.58	28864.07
517.78	29163.08
517.99	29130.31
518.19	29560.38
518.39	29607.48
518.60	29406.78
518.80	29570.62
519.01	29754.94
519.21	29802.04
519.41	29843.00
519.62	29840.95
519.82	29752.89
520.03	29945.40
520.23	30025.27
520.43	29668.92
520.64	30113.33
520.84	30260.79
521.05	29879.86
521.25	30346.80
521.45	30357.04
521.66	30866.98
521.86	30721.58
522.07	30449.20
522.27	30402.10
522.47	30592.56
522.68	31071.78
522.88	30674.48
523.08	31030.82
523.29	31075.88
523.49	31254.05
523.70	30950.95
523.90	31628.83
524.10	31508.00
524.31	31364.64
524.51	31553.05
524.71	31596.06
524.92	31712.80
525.12	31800.86
525.33	31546.91
525.53	32153.11
525.73	32212.50
525.94	31655.45
526.14	31782.43
526.34	32157.21
526.55	32327.19
526.75	32243.22
526.95	32398.87
527.16	32378.39
527.36	32396.82
527.56	32933.39
527.77	32828.94
527.97	32486.93
528.17	32701.96
528.38	33099.27
528.58	32906.76
528.78	33459.71
528.99	33230.34
529.19	33512.96
529.39	33166.85
529.60	33775.10
529.80	33506.82
530.00	33463.81
530.21	33861.12
530.41	34141.69
530.61	33574.40
530.82	34160.12
531.02	33928.70
531.22	33967.61
531.43	34389.49
531.63	34266.61
531.83	34633.20
532.04	34764.27
532.24	34538.99
532.44	34846.19
532.64	35093.99
532.85	35091.94
533.05	34655.73
533.25	34967.02
533.46	34921.96
533.66	35243.49
533.86	35263.97
534.07	35282.41
534.27	35417.57
534.47	35622.37
534.67	35880.41
534.88	35386.85
535.08	35972.57
535.28	36052.44
535.49	35786.21
535.69	35904.99
535.89	35991.00
536.09	36165.08
536.30	36517.33
536.50	36371.92
536.70	36349.40
536.91	36582.87
537.11	36675.02
537.31	36689.36
537.51	36957.64
537.72	36750.80
537.92	37234.12
538.12	37295.56
538.32	37092.81
538.53	37500.36
538.73	37246.41
538.93	37502.40
539.13	37400.01
539.34	37434.82
539.54	37377.48
539.74	37682.62
539.94	37588.42
540.15	37520.84
540.35	37871.04
540.55	37744.06
540.75	37901.76
540.96	38041.02
541.16	38262.20
541.36	38325.69
541.56	38086.07
541.77	38167.99
541.97	38135.23
542.17	38520.24
542.37	38434.23
542.58	38434.23
542.78	38518.20
542.98	38176.19
543.18	38600.12
543.38	39101.87
543.59	39261.61
543.79	38766.00
543.99	39445.93
544.19	39294.38
544.40	38843.82
544.60	39458.21
544.80	39536.04
545.00	39577.00
545.20	39433.64
545.41	39474.60
545.61	39581.09
545.81	39677.35
546.01	39830.94
546.21	39550.37
546.42	39855.52
546.62	39816.61
546.82	39687.59
547.02	40146.33
547.22	40326.55
547.43	39716.26
547.63	40162.72
547.83	40338.84
548.03	40033.69
548.23	40168.86
548.44	40168.86
548.64	40789.39
548.84	40603.03
549.04	40512.92
549.24	40832.40
549.45	40807.83
549.65	40502.68
549.85	40813.97
550.05	41078.16
550.25	40557.97
550.45	41405.83
550.66	41256.33
550.86	40928.66
551.06	41137.55
551.26	41241.99
551.46	41575.81
551.66	41174.41
551.87	41260.43
552.07	41317.77
552.27	41448.84
552.47	41264.52
552.67	41825.67
552.87	41293.19
553.07	41461.13
553.28	41631.11
553.48	41842.05
553.68	41557.38
553.88	42139.00
554.08	41772.42
554.28	41721.22
554.48	41801.09
554.69	41870.72
554.89	41840.00
555.09	41944.45
555.29	41725.32
555.49	42114.43
555.69	42452.34
555.89	42444.15
556.10	42741.11
556.30	42399.10
556.50	42884.47
556.70	42769.78
556.90	42954.10
557.10	43111.79
557.30	42136.96
557.50	42769.78
557.70	42755.44
557.91	42931.57
558.11	42841.46
558.31	42990.96
558.51	42669.43
558.71	42831.22
558.91	43466.09
559.11	42751.35
559.31	43179.37
559.51	42997.10
559.72	43109.74
559.92	43228.52
560.12	43068.78
560.32	43267.44
560.52	43036.02
560.72	43355.50
560.92	43519.34
561.12	43181.42
561.32	43775.33
561.52	43257.20
561.72	43554.15
561.93	43410.79
562.13	42954.10
562.33	43398.51
562.53	43984.22
562.73	43306.35
562.93	43806.05
563.13	43799.91
563.33	43754.85
563.53	43777.38
563.73	43490.66
563.93	43808.10
564.13	44311.90
564.33	43752.80
564.53	44070.24
564.74	44195.17
564.94	44016.99
565.14	43998.56
565.34	44537.18
565.54	44580.18
565.74	44039.52
565.94	44596.57
566.14	44754.26
566.34	44139.87
566.54	44776.79
566.74	44055.90
566.94	44301.66
567.14	44592.47
567.34	44154.21
567.54	45258.06
567.74	44598.62
567.94	44631.38
568.14	44995.92
568.34	44877.14
568.54	44633.43
568.74	44737.88
568.94	45323.60
569.14	44948.82
569.34	45088.08
569.54	45040.98
569.75	44983.63
569.95	45174.09
570.15	45561.16
570.35	45323.60
570.55	45686.09
570.75	45491.53
570.95	45667.66
571.15	45223.25
571.35	45473.10
571.55	45761.86
571.75	45626.70
571.95	45876.55
572.15	45743.43
572.35	45610.31
572.55	45481.29
572.75	46136.64
572.95	45913.41
573.15	45694.28
573.35	46103.87
573.55	45878.60
573.75	46116.16
573.95	46232.89
574.15	46058.82
574.35	46144.83
574.55	46112.06
574.75	46462.27
574.95	46511.42
575.15	46583.10
575.34	46687.54
575.54	46732.60
575.74	47084.85
575.94	46826.81
576.14	46853.43
576.34	47240.50
576.54	46794.04
576.74	47142.19
576.94	46873.91
577.14	46918.96
577.34	47369.52
577.54	47148.34
577.74	47205.68
577.94	46992.69
578.14	47437.10
578.34	47691.05
578.54	47390.00
578.74	47803.69
578.94	47539.50
579.14	46916.92
579.34	47445.29
579.54	47801.64
579.74	47572.27
579.94	47904.04
580.13	48010.53
580.33	47854.89
580.53	48264.48
580.73	47648.04
580.93	48035.11
581.13	47861.03
581.33	48461.08
581.53	48592.15
581.73	48327.97
581.93	48602.39
582.13	48102.69
582.33	48719.13
582.53	48579.87
582.73	48854.29
582.92	48997.65
583.12	48973.08
583.32	48966.93
583.52	48399.65
583.72	49380.62
583.92	48993.56
584.12	49124.63
584.32	49429.77
584.52	49016.08
584.72	49188.11
584.92	49093.91
585.11	49562.89
585.31	49282.32
585.51	49566.99
585.71	49462.54
585.91	49665.29
586.11	49378.57
586.31	49597.71
586.51	49372.43
586.71	49388.81
586.91	50181.38
587.10	49626.38
587.30	49782.02
587.50	50109.70
587.70	49902.85
587.90	50042.12
588.10	50140.42
588.30	49997.06
588.50	49927.43
588.69	50298.11
588.89	50052.36
589.09	50615.55
589.29	50353.41
589.49	50533.63
589.69	50494.72
589.89	50799.86
590.08	50480.38
590.28	50742.52
590.48	50373.89
590.68	50287.87
590.88	50763.00
591.08	50748.67
591.28	50435.33
591.47	51074.29
591.67	51023.09
591.87	50689.27
592.07	51430.64
592.27	50957.56
592.47	50943.22
592.67	51299.57
592.86	51119.35
593.06	51301.62
593.26	51582.19
593.46	51924.20
593.66	51422.45
593.86	51614.96
594.05	51535.09
594.25	51774.70
594.45	51160.31
594.65	51832.04
594.85	51315.95
595.05	51678.44
595.24	51971.30
595.44	51598.57
595.64	51799.27
595.84	51885.29
596.04	52288.74
596.23	52286.69
596.43	52155.62
596.63	52137.19
596.83	51813.61
597.03	52481.25
597.22	52714.72
597.42	51995.88
597.62	52626.65
597.82	52217.06
598.02	52569.31
598.21	52866.27
598.41	52573.41
598.61	52591.84
598.81	52731.10
599.01	53269.72
599.20	52710.62
599.40	53036.25
599.60	52972.76
599.80	52917.46
600.00	53054.68
600.19	53161.17
600.39	53109.97
600.59	53224.66
600.79	53503.18
600.98	53079.25
601.18	53212.37
601.38	53523.66
601.58	53327.06
601.78	53267.67
601.97	53716.17
602.17	54201.54
602.37	54318.28
602.57	53568.72
602.76	54191.30
602.96	53558.48
603.16	54166.73
603.36	53664.97
603.55	54011.08
603.75	53869.77
603.95	54156.49
604.15	54435.01
604.34	54154.44
604.54	54236.36
604.74	54424.77
604.94	54285.51
605.13	54709.44
605.33	54768.83
605.53	54265.03
605.73	54985.91
605.92	54377.67
606.12	54770.88
606.32	54537.41
606.52	54201.54
606.71	55047.35
606.91	54787.26
607.11	54678.72
607.30	54817.98
607.50	55506.10
607.70	54842.56
607.90	55057.59
608.09	54906.04
608.29	55254.20
608.49	55076.02
608.68	55063.74
608.88	55497.91
609.08	55884.97
609.28	55567.54
609.47	54992.06
609.67	55442.61
609.87	55329.97
610.06	55899.31
610.26	55911.59
610.46	55348.40
610.66	55262.39
610.85	55348.40
611.05	55608.50
611.25	55456.95
611.44	55450.80
611.64	55545.01
611.84	55348.40
612.03	55323.83
612.23	55571.63
612.43	55794.86
612.62	55532.72
612.82	55725.23
613.02	55743.66
613.21	55964.84
613.41	55114.94
613.61	55981.23
613.80	55315.64
614.00	55758.00
614.20	55762.09
614.39	55418.03
614.59	56071.34
614.79	56016.04
614.98	56112.30
615.18	55837.87
615.38	55923.88
615.57	55497.91
615.77	55809.20
615.97	55788.72
616.16	55874.73
616.36	55903.40
616.56	56085.67
616.75	55694.51
616.95	55616.69
617.15	55577.78
617.34	55733.42
617.54	55547.06
617.74	56306.85
617.93	56204.45
618.13	55579.82
618.32	55585.97
618.52	55682.22
618.72	56091.82
618.91	56145.06
619.11	55620.78
619.31	55559.34
619.50	55579.82
619.70	55575.73
619.90	56116.39
620.09	56059.05
620.29	55893.16
620.48	55637.17
620.68	55813.29
620.88	55485.62
621.07	55583.92
621.27	55712.94
621.46	55409.84
621.66	55844.01
621.86	55983.27
622.05	55598.26
622.25	55983.27
622.44	55678.13
622.64	55991.47
622.84	55932.07
623.03	55389.36
623.23	55694.51
623.42	55907.50
623.62	55678.13
623.82	55790.76
624.01	55522.48
624.21	55970.99
624.40	55321.78
624.60	55686.32
624.80	55475.38
624.99	55723.18
625.19	55211.19
625.38	55637.17
625.58	55706.80
625.77	55522.48
625.97	55891.12
626.17	55530.67
626.36	55452.85
626.56	55745.71
626.75	55440.56
626.95	55639.22
627.14	55315.64
627.34	56132.78
627.54	55876.78
627.73	55616.69
627.93	55329.97
628.12	55491.76
628.32	55368.88
628.51	55456.95
628.71	55919.79
628.90	55329.97
629.10	55424.18
629.30	55762.09
629.49	55502.00
629.69	55444.66
629.88	55461.04
630.08	56024.23
630.27	55884.97
630.47	55702.70
630.66	55350.45
630.86	55733.42
631.05	55221.43
631.25	55948.46
631.44	55428.27
631.64	55997.61
631.84	55850.16
632.03	55952.55
632.23	55497.91
632.42	55864.49
632.62	56165.54
632.81	55452.85
633.01	55401.65
633.20	55729.33
633.40	56085.67
633.59	55790.76
633.79	55407.79
633.98	55698.61
634.18	55862.44
634.37	55917.74
634.57	55940.27
634.76	55663.79
634.96	55870.64
635.15	55954.60
635.35	55366.84
635.54	55657.65
635.74	56059.05
635.93	55395.51
636.13	56097.96
636.32	55760.05
636.52	55694.51
636.71	55551.15
636.91	55803.05
637.10	55792.81
637.30	56151.21
637.49	56081.58
637.69	55653.55
637.88	56243.37
638.08	55925.93
638.27	56161.45
638.46	56001.71
638.66	55626.93
638.85	55936.17
639.05	55981.23
639.24	55524.53
639.44	56013.99
639.63	55870.64
639.83	55878.83
640.02	56198.31
640.22	55555.25
640.41	56024.23
640.61	55592.11
640.80	55882.92
640.99	55831.72
641.19	56439.97
641.38	56130.73
641.58	56093.86
641.77	55911.59
641.97	55739.57
642.16	56106.15
642.36	56272.04
642.55	56276.13
642.74	56024.23
642.94	56337.57
643.13	55782.57
643.33	56351.91
643.52	56480.93
643.72	56347.81
643.91	55936.17
644.10	56505.51
644.30	56173.73
644.49	56013.99
644.69	56884.38
644.88	56321.19
645.08	56054.95
645.27	56452.26
645.46	55897.26
645.66	56259.75
645.85	56071.34
646.05	56482.98
646.24	56204.45
646.43	56102.06
646.63	56814.75
646.82	56749.21
647.02	56310.95
647.21	56407.20
647.40	56417.44
647.60	56507.55
647.79	56865.95
647.99	56417.44
648.18	56556.70
648.37	57169.05
648.57	56716.45
648.76	56417.44
648.96	56220.84
649.15	56814.75
649.34	57070.75
649.54	56626.34
649.73	56442.02
649.92	56956.06
650.12	56691.87
650.31	56958.11
650.51	57052.31
650.70	56775.84
650.89	56845.47
651.09	57312.41
651.28	56970.39
651.47	56908.96
651.67	56929.44
651.86	57435.28
652.06	56130.73
652.25	56734.88
652.44	56695.97
652.64	56413.35
652.83	56736.93
653.02	56530.08
653.22	57394.32
653.41	56997.02
653.60	56349.86
653.80	56636.58
653.99	56908.96
654.18	56829.08
654.38	57236.63
654.57	56724.64
654.76	57087.13
654.96	56790.17
655.15	57216.15
655.34	56722.59
655.54	56437.92
655.73	56841.37
655.92	57128.09
656.12	57023.64
656.31	56880.28
656.50	57152.66
656.70	57126.04
656.89	56810.65
657.08	57394.32
657.28	57109.66
657.47	57011.35
657.66	57400.47
657.86	57169.05
658.05	56964.25
658.24	57054.36
658.43	56337.57
658.63	56802.46
658.82	56956.06
659.01	57275.54
659.21	56980.63
659.40	56874.14
659.59	56841.37
659.79	56927.39
659.98	57328.79
660.17	57107.61
660.36	57144.47
660.56	57203.86
660.75	57238.68
660.94	57453.72
661.14	57091.22
661.33	56681.63
661.52	56958.11
661.71	57201.82
661.91	56358.05
662.10	56876.19
662.29	57443.48
662.49	57009.31
662.68	57193.62
662.87	57193.62
663.06	57287.83
663.26	56728.73
663.45	57566.35
663.64	57318.55
663.83	57783.44
664.03	57627.79
664.22	57449.62
664.41	57558.16
664.60	56784.03
664.80	57214.10
664.99	57324.69
665.18	57332.89
665.37	56960.15
665.57	57293.97
665.76	57187.48
665.95	57543.83
666.14	56847.52
666.34	57154.71
666.53	57388.18
666.72	56859.80
666.91	57179.29
667.11	56745.12
667.30	57300.12
667.49	56560.80
667.68	57177.24
667.87	56968.35
668.07	57314.45
668.26	57476.24
668.45	57009.31
668.64	57242.77
668.84	57865.36
669.03	57386.13
669.22	57398.42
669.41	57326.74
669.60	57668.75
669.80	56896.67
669.99	57552.02
670.18	57334.93
670.37	57242.77
670.57	57476.24
670.76	57218.20
670.95	57472.15
671.14	57187.48
671.33	56859.80
671.53	57382.04
671.72	57322.65
671.91	57261.21
672.10	56812.70
672.29	57144.47
672.48	57308.31
672.68	57466.00
672.87	56702.11
673.06	57539.73
673.25	57191.58
673.44	57273.49
673.64	56802.46
673.83	57023.64
674.02	56616.10
674.21	56851.61
674.40	56997.02
674.59	56810.65
674.79	56853.66
674.98	56841.37
675.17	57140.38
675.36	56792.22
675.55	57226.39
675.74	56396.96
675.94	56933.53
676.13	57173.14
676.32	57167.00
676.51	57437.33
676.70	57279.64
676.89	57042.07
677.08	57545.87
677.28	56706.21
677.47	57572.50
677.66	57253.01
677.85	56900.76
678.04	57001.11
678.23	57029.79
678.42	57377.94
678.62	56861.85
678.81	57130.14
679.00	57042.07
679.19	57601.17
679.38	57154.71
679.57	57187.48
679.76	57056.41
679.96	57486.48
680.15	57078.94
680.34	57304.21
680.53	56954.01
680.72	57011.35
680.91	57228.44
681.10	56542.37
681.29	57070.75
681.48	56919.20
681.68	56888.48
681.87	56779.93
682.06	56800.41
682.25	56501.41
682.44	56706.21
682.63	56720.54
682.82	56759.45
683.01	56800.41
683.20	56321.19
683.39	56786.08
683.59	56753.31
683.78	56304.80
683.97	56120.49
684.16	56714.40
684.35	56366.24
684.54	56521.89
684.73	56978.59
684.92	56949.92
685.11	56710.30
685.30	56046.76
685.49	56620.19
685.69	56861.85
685.88	56607.90
686.07	56509.60
686.26	56595.62
686.45	56890.52
686.64	56632.48
686.83	56444.07
687.02	56464.55
687.21	56366.24
687.40	56655.01
687.59	56677.54
687.78	56290.47
687.97	56372.39
688.16	56024.23
688.35	56163.50
688.54	56134.82
688.74	56609.95
688.93	55690.41
689.12	56388.77
689.31	56321.19
689.50	56755.36
689.69	55725.23
689.88	55714.99
690.07	56120.49
690.26	55841.96
690.45	56100.01
690.64	56071.34
690.83	56091.82
691.02	56081.58
691.21	55805.10
691.40	55872.68
691.59	56171.69
691.78	55784.62
691.97	56317.09
692.16	56052.90
692.35	56159.40
692.54	56222.89
692.73	56013.99
692.92	56261.80
693.11	55579.82
693.30	56013.99
693.49	56018.09
693.68	56024.23
693.87	55827.63
694.06	55491.76
694.25	55743.66
694.44	55458.99
694.63	55645.36
694.82	55979.18
695.01	55671.98
695.20	55561.39
695.39	55620.78
695.58	55456.95
695.77	55545.01
695.96	55266.48
696.15	55907.50
696.34	55262.39
696.53	55522.48
696.72	55557.30
696.91	55166.13
697.10	55420.08
697.29	55325.88
697.48	55669.93
697.67	55239.86
697.86	55033.02
698.05	55053.50
698.24	55538.86
698.43	55016.63
698.62	55276.72
698.81	55168.18
699.00	55047.35
699.19	54652.09
699.38	55123.13
699.57	55018.68
699.76	55837.87
699.95	55170.23
700.14	54813.88
700.32	54826.17
700.51	55182.52
700.70	55243.96
700.89	55229.62
701.08	55186.61
701.27	55071.93
701.46	55483.57
701.65	54187.21
701.84	54752.44
702.03	54645.95
702.22	54484.16
702.41	55047.35
702.60	54846.65
702.79	54697.15
702.98	54570.18
703.17	54572.22
703.35	54525.12
703.54	54195.40
703.73	54744.25
703.92	54660.29
704.11	54088.90
704.30	54375.62
704.49	54146.25
704.68	54101.19
704.87	54416.58
705.06	54174.92
705.25	54250.69
705.43	54725.82
705.62	53869.77
705.81	54123.72
706.00	54105.29
706.19	54002.89
706.38	53972.17
706.57	53910.73
706.76	54088.90
706.95	54060.23
707.14	53691.60
707.32	53558.48
707.51	53335.25
707.70	53953.74
707.89	54060.23
708.08	54201.54
708.27	53880.01
708.46	53767.37
708.65	53970.12
708.84	54164.68
709.02	53617.87
709.21	53968.07
709.40	53650.64
709.59	53755.08
709.78	53458.13
709.97	53826.76
710.16	53679.31
710.34	53388.50
710.53	53462.22
710.72	53458.13
710.91	53728.46
711.10	53341.39
711.29	53687.50
711.48	53040.34
711.66	53343.44
711.85	53224.66
712.04	53331.15
712.23	53279.96
712.42	53282.00
712.61	53032.15
712.80	53302.48
712.98	53320.91
713.17	53179.60
713.36	52765.91
713.55	52978.90
713.74	53249.24
713.93	53335.25
714.11	53032.15
714.30	52878.55
714.49	53204.18
714.68	52780.25
714.87	53155.03
715.06	53378.26
715.24	52677.85
715.43	53097.69
715.62	52444.38
715.81	52366.56
716.00	53155.03
716.18	52372.70
716.37	52409.57
716.56	52038.89
716.75	52438.24
716.94	52663.52
717.12	52483.30
717.31	52563.17
717.50	52505.82
717.69	52407.52
717.88	52286.69
718.06	52927.70
718.25	52491.49
718.44	51584.24
718.63	52391.14
718.82	51584.24
719.00	52223.20
719.19	51832.04
719.38	51758.31
719.57	51889.38
719.76	51205.36
719.94	51401.97
720.13	51453.17
720.32	51733.74
720.51	51889.38
720.69	51709.16
720.88	51633.39
721.07	51516.65
721.26	51115.25
721.44	51248.37
721.63	51287.28
721.82	50631.93
722.01	50582.78
722.20	51150.07
722.38	50449.66
722.57	50783.48
722.76	50937.08
722.95	50865.40
723.13	50347.26
723.32	50656.51
723.51	50713.85
723.70	49995.01
723.88	50650.36
724.07	50234.63
724.26	50545.92
724.44	50023.68
724.63	50969.85
724.82	50394.37
725.01	50234.63
725.19	50363.65
725.38	50171.14
725.57	50232.58
725.76	50244.87
725.94	50056.45
726.13	49956.10
726.32	50130.18
726.51	49544.46
726.69	50371.84
726.88	49990.92
727.07	50097.41
727.25	49698.06
727.44	49964.29
727.63	49976.58
727.82	50119.94
728.00	49669.39
728.19	50201.86
728.38	50431.23
728.56	49370.38
728.75	49861.90
728.94	49923.33
729.12	49964.29
729.31	49798.41
729.50	49927.43
729.69	50078.98
729.87	49784.07
730.06	49849.61
730.25	49935.62
730.43	49886.47
730.62	49362.19
730.81	49831.18
730.99	49997.06
731.18	49708.30
731.37	49736.97
731.55	50187.52
731.74	49896.71
731.93	49734.92
732.11	49800.46
732.30	49673.48
732.49	49528.08
732.67	49282.32
732.86	49247.50
733.05	49575.18
733.23	48889.11
733.42	49386.77
733.61	49378.57
733.79	49210.64
733.98	49773.83
734.17	49636.62
734.35	49640.71
734.54	49442.06
734.73	49937.67
734.91	49419.53
735.10	49397.01
735.29	49747.21
735.47	49128.72
735.66	49317.14
735.84	48885.01
736.03	49055.00
736.22	49597.71
736.40	49247.50
736.59	49153.30
736.78	49100.05
736.96	49136.91
737.15	48964.88
737.33	48887.06
737.52	48567.58
737.71	48577.82
737.89	48837.91
738.08	48381.21
738.27	48661.79
738.45	48915.73
738.64	49087.76
738.82	48358.69
739.01	48657.69
739.20	48887.06
739.38	48885.01
739.57	48788.76
739.75	48323.87
739.94	48755.99
740.13	48854.29
740.31	48614.68
740.50	48311.58
740.68	48549.15
740.87	48667.93
741.06	48962.84
741.24	48571.67
741.43	48194.85
741.61	48346.40
741.80	48295.20
741.99	48157.99
742.17	48137.51
742.36	48194.85
742.54	48225.57
742.73	48127.27
742.91	48231.71
743.10	47908.13
743.29	48272.67
743.47	48608.54
743.66	47934.76
743.84	48237.86
744.03	48028.96
744.21	48004.39
744.40	48076.07
744.59	47975.72
744.77	47795.49
744.96	47920.42
745.14	48332.06
745.33	48002.34
745.51	47725.86
745.70	47629.61
745.88	47830.31
746.07	48037.16
746.26	47830.31
746.44	47594.79
746.63	48172.32
746.81	47910.18
747.00	47564.07
747.18	47781.16
747.37	47668.52
747.55	47392.04
747.74	48055.59
747.92	47125.81
748.11	47332.65
748.29	47527.21
748.48	47404.33
748.66	47277.36
748.85	47002.93
749.03	47164.72
749.22	47658.28
749.41	46873.91
749.59	47068.47
749.78	46703.93
749.96	46310.72
750.15	46966.07
750.33	46595.38
750.52	46998.83
750.70	46789.94
750.89	46986.55
751.07	46837.05
751.26	46486.84
751.44	46828.85
751.63	46984.50
751.81	46501.18
752.00	46521.66
752.18	46501.18
752.37	46585.15
752.55	46280.00
752.74	46091.58
752.92	46110.02
753.10	45712.71
753.29	46179.65
753.47	46069.06
753.66	45776.20
753.84	46351.68
754.03	45696.33
754.21	45802.82
754.40	45757.77
754.58	45778.25
754.77	45827.40
754.95	45882.69
755.14	45706.57
755.32	45768.01
755.51	45344.08
755.69	45604.17
755.88	45499.72
756.06	45399.37
756.24	45591.88
756.43	45610.31
756.61	45540.68
756.80	45161.81
756.98	45055.31
757.17	45409.61
757.35	45223.25
757.54	45286.73
757.72	45225.29
757.90	45278.54
758.09	44866.90
758.27	45311.31
758.46	45276.49
758.64	45350.22
758.83	45585.74
759.01	45049.17
759.19	44815.70
759.38	44971.35
759.56	45202.77
759.75	45165.90
759.93	45079.89
760.12	44787.03
760.30	44645.72
760.48	44838.23
760.67	44586.33
760.85	44895.57
761.04	44936.53
761.22	44701.01
761.40	44662.10
761.59	44721.49
761.77	44522.84
761.96	44184.93
762.14	44348.76
762.32	44158.30
762.51	44041.57
762.69	44246.36
762.88	44326.24
763.06	44453.21
763.24	44229.98
763.43	44092.77
763.61	44408.15
763.80	43900.26
763.98	43826.53
764.16	44291.42
764.35	44121.44
764.53	43556.20
764.72	43877.73
764.90	43586.92
765.08	43857.25
765.27	43595.11
765.45	42962.29
765.63	43144.56
765.82	43640.17
766.00	43408.75
766.18	43224.43
766.37	43765.09
766.55	43259.24
766.74	43081.07
766.92	43122.03
767.10	43431.27
767.29	42847.60
767.47	42644.85
767.65	42988.91
767.84	42632.57
768.02	43269.48
768.20	42370.43
768.39	42866.03
768.57	42425.72
768.75	42685.81
768.94	42960.24
769.12	42884.47
769.30	42452.34
769.49	42714.48
769.67	42456.44
769.85	42038.65
770.04	42403.19
770.22	42239.36
770.40	42179.96
770.59	42114.43
770.77	42186.11
770.95	42247.55
771.14	42055.04
771.32	41627.01
771.50	41665.92
771.69	41704.84
771.87	42079.61
772.05	41491.85
772.24	41438.60
772.42	41631.11
772.60	41672.07
772.78	41674.12
772.97	41268.62
773.15	41371.02
773.33	41612.68
773.52	41018.77
773.70	41594.25
773.88	40973.71
774.07	41534.85
774.25	41411.98
774.43	41176.46
774.61	41409.93
774.80	41422.22
774.98	41227.66
775.16	41731.46
775.34	41469.32
775.53	41164.17
775.71	41670.02
775.89	41135.50
776.08	41192.84
776.26	41559.43
776.44	41868.67
776.62	41418.12
776.81	41368.97
776.99	41471.37
777.17	41649.54
777.35	41561.48
777.54	41526.66
777.72	41383.30
777.90	41631.11
778.08	41682.31
778.27	41883.01
778.45	41764.23
778.63	41690.50
778.81	41633.16
779.00	42268.03
779.18	42065.28
779.36	41788.80
779.54	41616.77
779.73	41584.01
779.91	41803.14
780.09	41684.36
780.27	41817.47
780.46	42012.03
780.64	42124.67
780.82	41608.58
781.00	42098.05
781.19	42335.61
781.37	42466.68
781.55	42093.95
781.73	42093.95
781.91	42110.33
782.10	42075.52
782.28	42306.94
782.46	42177.92
782.64	42419.58
782.82	42476.92
783.01	41850.24
783.19	42184.06
783.37	42474.87
783.55	41768.32
783.74	42368.38
783.92	41923.97
784.10	42605.94
784.28	41969.02
784.46	42126.72
784.64	41643.40
784.83	42292.60
785.01	42247.55
785.19	42026.37
785.37	42509.69
785.55	42204.54
785.74	41696.64
785.92	42102.14
786.10	42347.90
786.28	42296.70
786.46	41991.55
786.64	41717.12
786.83	41825.67
787.01	42061.18
787.19	42229.12
787.37	41620.87
787.55	42118.53
787.74	41536.90
787.92	41670.02
788.10	41530.76
788.28	41276.81
788.46	41936.26
788.64	41041.29
788.82	42030.46
789.01	41954.69
789.19	41645.44
789.37	40910.22
789.55	41534.85
789.73	40969.61
789.91	41088.40
790.09	41031.05
790.28	40928.66
790.46	40668.56
790.64	41178.51
790.82	40951.18
791.00	41018.77
791.18	41219.47
791.36	40291.74
791.55	40758.67
791.73	40371.61
791.91	40117.66
792.09	40228.25
792.27	40211.87
792.45	40236.44
792.63	40072.60
792.81	40101.28
793.00	39787.94
793.18	39527.84
793.36	39683.49
793.54	39730.59
793.72	39607.72
793.90	39161.26
794.08	39450.02
794.26	39153.07
794.44	39232.94
794.62	38751.66
794.81	39683.49
794.99	38933.93
795.17	38827.44
795.35	38915.50
795.53	39138.73
795.71	39120.30
795.89	38354.36
796.07	38329.78
796.25	38149.56
796.43	38084.03
796.61	38415.80
796.80	38118.84
796.98	38352.31
797.16	37715.39
797.34	37973.44
797.52	37938.62
797.70	38260.15
797.88	37731.78
798.06	37782.98
798.24	38108.60
798.42	37471.68
798.60	37408.20
798.78	37535.17
798.96	37551.56
799.14	37332.42
799.32	37180.87
799.51	37176.78
799.69	37090.76
799.87	36980.17
800.05	36365.78
800.23	36562.39
800.41	36662.74
800.59	36890.06
800.77	36304.34
800.95	36109.78
801.13	36519.38
801.31	36304.34
801.49	36236.76
801.67	35741.15
801.85	36281.81
802.03	35939.80
802.21	35681.76
802.39	35653.09
802.57	35532.26
802.75	35495.39
802.93	35485.15
803.11	35524.07
803.29	35509.73
803.47	35251.69
803.65	35436.00
803.83	35053.03
804.01	35247.59
804.19	34835.95
804.37	34407.92
804.55	34797.04
804.73	35091.94
804.91	35044.84
805.09	34866.67
805.27	34569.71
805.45	34668.02
805.63	34637.30
805.81	34223.61
805.99	34403.83
806.17	34532.85
806.35	34461.17
806.53	34172.41
806.71	34049.53
806.89	34106.87
807.07	34080.25
807.25	33922.55
807.43	33592.83
807.61	33758.72
807.79	33611.26
807.97	33398.27
808.15	33420.80
808.33	33414.66
808.51	33269.25
808.69	33553.92
808.87	33041.93
809.05	32984.58
809.23	33062.41
809.41	32724.49
809.59	32900.62
809.77	33197.57
809.95	32663.05
810.13	32806.41
810.31	32601.61
810.49	32878.09
810.67	32441.87
810.84	32769.55
811.02	32577.04
811.20	32155.16
811.38	32089.62
811.56	32005.66
811.74	32052.76
811.92	32063.00
812.10	32026.14
812.28	32093.72
812.46	32216.60
812.64	32198.16
812.82	31735.32
813.00	31563.29
813.18	31845.91
813.36	31374.88
813.53	31653.40
813.71	31692.32
813.89	31450.66
814.07	31610.40
814.25	31622.69
814.43	31534.62
814.61	31125.03
814.79	31069.73
814.97	31045.16
815.15	31315.49
815.33	30522.93
815.50	30686.76
815.68	31299.11
815.86	30785.07
816.04	30709.29
816.22	30881.32
816.40	30764.59
816.58	30428.72
816.76	30438.96
816.94	30346.80
817.11	30242.35
817.29	30354.99
817.47	30139.96
817.65	30617.13
817.83	30383.66
818.01	30486.06
818.19	30135.86
818.37	30123.57
818.54	29830.71
818.72	29752.89
818.90	29912.63
819.08	29664.83
819.26	29787.71
819.44	29998.65
819.62	29734.46
819.80	29851.19
819.97	29894.20
820.15	29494.85
820.33	29472.32
820.51	29701.69
820.69	29414.98
820.87	29113.92
821.05	29582.91
821.22	29138.50
821.40	29236.80
821.58	29328.96
821.76	29195.84
821.94	29224.51
822.12	28989.00
822.29	29374.02
822.47	28806.73
822.65	29292.10
822.83	29017.67
823.01	28966.47
823.19	29038.15
823.36	28808.78
823.54	28737.10
823.72	28237.39
823.90	28702.28
824.08	28776.01
824.25	28694.09
824.43	28388.94
824.61	28542.54
824.79	28866.12
824.97	28268.11
825.15	28577.36
825.32	28577.36
825.50	28311.12
825.68	28210.77
825.86	28675.66
826.04	28374.61
826.21	28530.25
826.39	28350.03
826.57	27805.27
826.75	27958.87
826.93	27813.46
827.10	27817.56
827.28	28112.47
827.46	28112.47
827.64	27653.72
827.81	27756.12
827.99	27715.16
828.17	27627.10
828.35	27614.81
828.53	27700.83
828.70	27305.57
828.88	27401.82
829.06	27330.14
829.24	27866.71
829.41	27575.90
829.59	27330.14
829.77	27065.96
829.95	27520.60
830.12	27332.19
830.30	27393.63
830.48	27172.45
830.66	27139.68
830.84	27166.31
831.01	27283.04
831.19	27182.69
831.37	26891.88
831.55	26719.85
831.72	26873.45
831.90	26783.34
832.08	26912.36
832.25	26900.07
832.43	26959.46
832.61	26637.93
832.79	26650.22
832.96	26633.83
833.14	26650.22
833.32	26551.91
833.50	26672.74
833.67	26308.21
833.85	26773.10
834.03	26191.47
834.20	26650.22
834.38	26484.33
834.56	26631.79
834.74	26064.50
834.91	26574.44
835.09	26404.46
835.27	25931.38
835.44	26324.59
835.62	25851.51
835.80	26150.51
835.98	25947.76
836.15	26343.02
836.33	25763.45
836.51	26193.52
836.68	25902.71
836.86	25892.47
837.04	26068.59
837.21	25779.83
837.39	25947.76
837.57	25689.72
837.75	26048.11
837.92	25583.23
838.10	25572.99
838.28	25376.38
838.45	25638.52
838.63	25441.92
838.81	25419.39
838.98	25407.10
839.16	25386.62
839.34	25601.66
839.51	25390.72
839.69	25218.69
839.87	25175.68
840.04	25122.43
840.22	25159.30
840.40	25038.47
840.57	25005.70
840.75	25073.28
840.93	24876.68
841.10	25230.98
841.28	25400.96
841.46	25101.95
841.63	24999.55
841.81	24874.63
841.98	25024.13
842.16	25015.94
842.34	24886.92
842.51	24700.55
842.69	25165.44
842.87	24913.54
843.04	24964.74
843.22	24434.32
843.40	24624.78
843.57	24585.86
843.75	24761.99
843.92	24845.96
844.10	24481.42
844.28	24553.10
844.45	24819.33
844.63	24854.15
844.81	24596.10
844.98	24581.77
845.16	24348.30
845.33	24635.02
845.51	24426.12
845.69	24397.45
845.86	24137.36
846.04	24112.78
846.21	24237.71
846.39	24321.68
846.57	24086.16
846.74	24125.07
846.92	24155.79
847.09	24225.42
847.27	23924.37
847.45	24462.99
847.62	24188.56
847.80	23944.85
847.97	24053.39
848.15	23783.06
848.32	23803.54
848.50	23942.80
848.68	23488.15
848.85	23613.08
849.03	23500.44
849.20	23430.81
849.38	23651.99
849.56	23479.96
849.73	23426.71
849.91	23746.20
850.08	23684.76
850.26	23418.52
850.43	23502.49
850.61	23535.26
850.78	23064.22
850.96	23396.00
851.14	23197.34
851.31	23142.05
851.49	23195.29
851.66	23568.02
851.84	23152.29
852.01	23494.30
852.19	23529.11
852.36	23062.18
852.54	23213.73
852.71	22924.96
852.89	23017.12
853.07	22941.35
853.24	23101.09
853.42	23135.90
853.59	23140.00
853.77	23193.25
853.94	23307.93
854.12	23203.49
854.29	22640.29
854.47	22777.51
854.64	22668.97
854.82	23027.36
854.99	22888.10
855.17	22806.18
855.34	22703.78
855.52	22711.97
855.69	22902.43
855.87	22634.15
856.04	22355.63
856.22	22498.98
856.39	22365.87
856.57	22455.98
856.74	22642.34
856.92	22675.11
857.09	22281.90
857.27	22599.34
857.44	22509.22
857.62	22216.36
857.79	22324.91
857.97	22507.18
858.14	22447.79
858.32	22226.60
858.49	22113.97
858.67	22210.22
858.84	22060.72
859.02	22431.40
859.19	21857.97
859.37	22118.06
859.54	22048.43
859.72	21958.32
859.89	21849.78
860.06	22249.13
860.24	21862.07
860.41	21976.75
860.59	22128.30
860.76	22173.36
860.94	21382.84
861.11	22011.57
861.29	21931.70
861.46	21532.34
861.64	21374.65
861.81	21714.61
861.98	21630.65
862.16	21515.96
862.33	21659.32
862.51	21241.53
862.68	21429.94
862.86	21548.73
863.03	21362.36
863.21	21513.91
863.38	21350.07
863.55	21384.89
863.73	21368.51
863.90	21563.06
864.08	21348.03
864.25	20995.78
864.43	21612.21
864.60	21253.82
864.77	20934.34
864.95	21077.69
865.12	20856.51
865.30	21214.91
865.47	20698.82
865.64	20885.19
865.82	20911.81
865.99	20985.54
866.17	21063.36
866.34	21073.60
866.51	20833.99
866.69	20868.80
866.86	20872.90
867.04	20819.65
867.21	20475.59
867.38	20655.81
867.56	20477.64
867.73	20577.99
867.91	20592.33
868.08	20592.33
868.25	20426.44
868.43	20393.67
868.60	20465.35
868.78	20274.89
868.95	20655.81
869.12	20299.47
869.30	20174.54
869.47	20510.41
869.64	20174.54
869.82	20313.80
869.99	20143.82
870.16	20008.65
870.34	20070.09
870.51	20504.26
870.69	19994.32
870.86	19885.78
871.03	20025.04
871.21	19963.60
871.38	20010.70
871.55	20072.14
871.73	19951.31
871.90	19783.38
872.07	19857.10
872.25	19736.27
872.42	19758.80
872.59	19842.77
872.77	19537.62
872.94	19511.00
873.11	19500.76
873.29	19695.32
873.46	19560.15
873.63	19699.41
873.81	19519.19
873.98	19255.00
874.15	19318.49
874.33	19295.96
874.50	19195.61
874.67	19060.45
874.85	18867.94
875.02	18999.01
875.19	19164.89
875.37	19009.25
875.54	19171.04
875.71	19037.92
875.88	18906.85
876.06	18894.56
876.23	18851.55
876.40	18650.85
876.58	18935.52
876.75	18794.21
876.92	18663.14
877.10	18714.34
877.27	18749.15
877.44	18796.26
877.61	18546.40
877.79	18548.45
877.96	18431.72
878.13	18312.94
878.31	18104.04
878.48	18026.22
878.65	18228.97
878.82	18507.49
879.00	18247.40
879.17	18190.06
879.34	18376.42
879.51	18042.60
879.69	18061.04
879.86	17956.59
880.03	18110.19
880.21	17716.98
880.38	17923.82
880.55	18108.14
880.72	18026.22
880.90	17825.52
881.07	17952.49
881.24	17907.44
881.41	17895.15
881.59	17661.68
881.76	17895.15
881.93	17770.22
882.10	17723.12
882.28	17499.89
882.45	17624.82
882.62	17770.22
882.79	17954.54
882.96	17428.21
883.14	17602.29
883.31	17592.05
883.48	17475.32
883.65	17403.64
883.83	17862.38
884.00	17581.81
884.17	17368.82
884.34	17555.19
884.51	17311.48
884.69	17338.10
884.86	17227.51
885.03	17374.97
885.20	17067.77
885.38	17319.67
885.55	17266.42
885.72	17112.83
885.89	17114.87
886.06	17311.48
886.24	17123.07
886.41	17135.35
886.58	17393.40
886.75	17311.48
886.92	16989.95
887.10	17008.38
887.27	17045.24
887.44	17182.46
887.61	17297.14
887.78	16936.70
887.95	16908.03
888.13	16727.81
888.30	16742.14
888.47	16752.38
888.64	16905.98
888.81	16756.48
888.99	16699.14
889.16	16746.24
889.33	16484.10
889.50	16609.03
889.67	16719.62
889.84	16635.65
890.01	16506.63
890.19	16549.64
890.36	16631.55
890.53	16563.97
890.70	16414.47
890.87	16576.26
891.04	16355.08
891.22	16432.90
891.39	16307.98
891.56	16127.75
891.73	16363.27
891.90	16185.10
892.07	16129.80
892.24	16434.95
892.42	16199.43
892.59	16338.69
892.76	16176.91
892.93	16144.14
893.10	16176.91
893.27	16090.89
893.44	15873.81
893.61	15800.08
893.79	16111.37
893.96	15931.15
894.13	15937.29
894.30	16047.88
894.47	16076.55
894.64	16027.40
894.81	15904.53
894.98	16121.61
895.15	16215.82
895.33	15863.57
895.50	15871.76
895.67	15914.77
895.84	16021.26
896.01	15871.76
896.18	15826.70
896.35	15933.20
896.52	15617.81
896.69	15812.37
896.86	15795.98
897.04	15871.76
897.21	15871.76
897.38	15933.20
897.55	15992.59
897.72	16185.10
897.89	16002.83
898.06	16037.64
898.23	15738.64
898.40	15693.58
898.57	15908.62
898.74	15957.77
898.91	15757.07
899.08	15720.21
899.26	15638.29
899.43	15980.30
899.60	15707.92
899.77	15879.95
899.94	15685.39
900.11	15677.20
900.28	15947.53
900.45	15656.72
900.62	15771.41
900.79	15787.79
900.96	15732.50
901.13	15865.61
901.30	15646.48
901.47	15417.11
901.64	15834.89
901.81	15726.35
901.98	15814.41
902.15	15898.38
902.32	15580.95
902.49	15609.62
902.66	15806.22
902.83	15789.84
903.01	15605.52
903.18	15589.14
903.35	15732.50
903.52	15662.86
903.69	15861.52
903.86	16000.78
904.03	15576.85
904.20	15849.23
904.37	15787.79
904.54	15712.02
904.71	15525.65
904.88	15687.44
905.05	15628.05
905.22	15826.70
905.39	15539.99
905.56	15427.35
905.73	15517.46
905.90	15550.23
906.07	15669.01
906.24	15544.08
906.41	15755.02
906.58	15628.05
906.75	15642.39
906.92	15574.80
907.09	15470.36
907.26	15292.18
907.43	15462.16
907.60	15511.32
907.77	15533.84
907.93	15611.67
908.10	15552.27
908.27	15415.06
908.44	15554.32
908.61	15382.29
908.78	15517.46
908.95	15591.19
909.12	15615.76
909.29	15382.29
909.46	15580.95
909.63	15451.92
909.80	15550.23
909.97	15628.05
910.14	15318.81
910.31	15249.18
910.48	15288.09
910.65	15539.99
910.82	15372.05
910.99	15572.75
911.16	15269.66
911.33	15273.75
911.50	15386.39
911.66	15183.64
911.83	15329.05
912.00	15036.19
912.17	15236.89
912.34	15249.18
912.51	15015.71
912.68	14831.39
912.85	15163.16
913.02	15265.56
913.19	15216.41
913.36	15038.23
913.53	15259.42
913.70	14772.00
913.86	15120.15
914.03	14778.14
914.20	14868.25
914.37	15085.34
914.54	14841.63
914.71	14982.94
914.88	14964.51
915.05	14649.12
915.22	14669.60
915.39	14595.87
915.55	14720.80
915.72	14640.93
915.89	14630.69
916.06	14239.53
916.23	14645.02
916.40	14495.52
916.57	14438.18
916.74	14257.96
916.91	14384.93
917.07	14257.96
917.24	14346.02
917.41	14176.04
917.58	14247.72
917.75	14063.40
917.92	14053.16
918.09	14085.93
918.26	14173.99
918.42	14051.11
918.59	13991.72
918.76	13940.52
918.93	13899.56
919.10	13889.32
919.27	13825.84
919.44	14010.15
919.60	13887.28
919.77	13664.05
919.94	13659.95
920.11	13631.28
920.28	13717.29
920.45	13575.98
920.61	13446.96
920.78	13539.12
920.95	13381.43
921.12	13506.35
921.29	13094.71
921.46	13350.71
921.62	13221.69
921.79	13285.17
921.96	13180.73
922.13	13059.90
922.30	13023.03
922.47	13033.27
922.63	13076.28
922.80	12990.27
922.97	12808.00
923.14	12640.06
923.31	12902.20
923.47	12750.65
923.64	12984.12
923.81	12701.50
923.98	12736.32
924.15	12613.44
924.32	12799.80
924.48	12627.78
924.65	12609.34
924.82	12232.52
924.99	12359.49
925.15	12074.82
925.32	12441.41
925.49	12220.23
925.66	12287.81
925.83	12267.33
925.99	11992.90
926.16	12107.59
926.33	12074.82
926.50	11894.60
926.67	11949.90
926.83	11818.83
927.00	11595.60
927.17	11765.58
927.34	11814.73
927.50	11663.18
927.67	11642.70
927.84	11597.65
928.01	11491.15
928.17	11437.91
928.34	11468.62
928.51	11396.95
928.68	11186.01
928.84	11210.58
929.01	11163.48
929.18	11218.77
929.35	11128.66
929.51	11163.48
929.68	10780.51
929.85	10944.34
930.02	11011.93
930.18	11128.66
930.35	10862.43
930.52	10907.48
930.69	10983.26
930.85	10907.48
931.02	10829.66
931.19	10669.92
931.36	10428.26
931.52	10571.61
931.69	10504.03
931.86	10375.01
932.02	10342.24
932.19	10407.78
932.36	10401.63
932.53	10125.16
932.69	10254.18
932.86	10235.75
933.03	10063.72
933.19	9955.18
933.36	9901.93
933.53	9852.78
933.70	9967.46
933.86	9926.50
934.03	9889.64
934.20	9695.08
934.36	9863.02
934.53	9545.58
934.70	9273.20
934.86	9471.86
935.03	9441.14
935.20	9428.85
935.36	9160.56
935.53	9174.90
935.70	9252.72
935.86	9142.13
936.03	8963.96
936.20	8894.33
936.36	8937.34
936.53	8793.98
936.70	8626.04
936.86	8849.27
937.03	8652.67
937.20	8443.78
937.36	8560.51
937.53	8400.77
937.70	8230.79
937.86	8171.40
938.03	8142.72
938.20	8150.92
938.36	7937.93
938.53	7985.03
938.70	7626.64
938.86	7726.99
939.03	7679.88
939.20	7507.85
939.36	7516.05
939.53	7323.54
939.70	7526.29
939.86	7122.84
940.03	7184.27
940.19	6883.22
940.36	7016.34
940.53	6971.29
940.69	6795.16
940.86	6764.44
941.03	6741.91
941.19	6629.27
941.36	6537.12
941.52	6522.78
941.69	6512.54
941.86	6555.55
942.02	6170.53
942.19	6393.76
942.35	6244.26
942.52	6172.58
942.69	6152.10
942.85	6031.27
943.02	6090.66
943.18	6068.13
943.35	6014.88
943.52	5996.45
943.68	5816.23
943.85	5922.73
944.01	5767.08
944.18	5713.83
944.35	5908.39
944.51	5746.60
944.68	5719.98
944.84	5648.30
945.01	5533.61
945.17	5679.02
945.34	5550.00
945.51	5593.00
945.67	5664.68
945.84	5695.40
946.00	5445.55
946.17	5509.04
946.33	5392.30
946.50	5492.65
946.67	5416.88
946.83	5523.37
947.00	5463.98
947.16	5310.38
947.33	5400.49
947.49	5435.31
947.66	5263.28
947.82	5353.39
947.99	5380.01
948.16	5402.54
948.32	5445.55
948.49	5418.93
948.65	5523.37
948.82	5361.58
948.98	5435.31
949.15	5181.36
949.31	5547.95
949.48	5597.10
949.64	5484.46
949.81	5431.21
949.97	5353.39
950.14	5326.77
950.30	5414.83
950.47	5582.76
950.63	5386.16
950.80	5543.85
950.96	5496.75
951.13	5425.07
951.30	5566.38
951.46	5435.31
951.63	5414.83
951.79	5404.59
951.96	5656.49
952.12	5525.42
952.29	5441.45
952.45	5328.81
952.62	5451.69
952.78	5406.64
952.94	5334.96
953.11	5369.77
953.27	5511.08
953.44	5480.36
953.60	5482.41
953.77	5633.96
953.93	5447.60
954.10	5509.04
954.26	5615.53
954.43	5472.17
954.59	5609.39
954.76	5666.73
954.92	5511.08
955.09	5574.57
955.25	5527.47
955.42	5402.54
955.58	5744.55
955.75	5681.07
955.91	5509.04
956.07	5519.28
956.24	5506.99
956.40	5705.64
956.57	5588.91
956.73	5566.38
956.90	5576.62
957.06	5461.93
957.23	5525.42
957.39	5558.19
957.56	5547.95
957.72	5402.54
957.88	5638.06
958.05	5613.48
958.21	5529.52
958.38	5629.87
958.54	5459.88
958.71	5660.59
958.87	5529.52
959.03	5631.91
959.20	5543.85
959.36	5527.47
959.53	5584.81
959.69	5500.84
959.85	5531.56
960.02	5513.13
960.18	5570.48
960.35	5461.93
960.51	5666.73
960.68	5558.19
960.84	5433.26
961.00	5660.59
961.17	5539.76
961.33	5523.37
961.50	5672.87
961.66	5562.28
961.82	5666.73
961.99	5586.86
962.15	5554.09
962.31	5449.64
962.48	5468.08
962.64	5605.29
962.81	5621.67
962.97	5488.56
963.13	5652.39
963.30	5552.04
963.46	5382.06
963.62	5412.78
963.79	5367.73
963.95	5445.55
964.12	5429.17
964.28	5392.30
964.44	5470.12
964.61	5384.11
964.77	5453.74
964.93	5439.40
965.10	5470.12
965.26	5410.73
965.42	5418.93
965.59	5398.45
965.75	5392.30
965.92	5470.12
966.08	5420.97
966.24	5310.38
966.41	5289.90
966.57	5371.82
966.73	5447.60
966.90	5345.20
967.06	5398.45
967.22	5369.77
967.39	5312.43
967.55	5281.71
967.71	5294.00
967.88	5277.62
968.04	5377.97
968.20	5222.32
968.37	5339.05
968.53	5322.67
968.69	5308.34
968.85	5334.96
969.02	5363.63
969.18	5197.74
969.34	5324.72
969.51	5271.47
969.67	5220.27
969.83	5173.17
970.00	5367.73
970.16	5142.45
970.32	5248.94
970.48	5222.32
970.65	5115.83
970.81	5021.62
970.97	5134.26
971.14	5064.63
971.30	5160.88
971.46	5064.63
971.63	5042.10
971.79	5273.52
971.95	5019.57
972.11	4925.36
972.28	5048.24
972.44	5179.31
972.60	4954.04
972.76	5040.05
972.93	5054.39
973.09	4923.32
973.25	4976.56
973.42	4812.73
973.58	4992.95
973.74	5048.24
973.90	4990.90
974.07	4984.76
974.23	4917.17
974.39	5066.67
974.55	4779.96
974.72	4941.75
974.88	4652.98
975.04	4925.36
975.20	4890.55
975.37	4896.69
975.53	4870.07
975.69	4771.77
975.85	4820.92
976.01	4763.58
976.18	4812.73
976.34	4790.20
976.50	4859.83
976.66	4816.82
976.83	4683.70
976.99	4802.49
977.15	4771.77
977.31	4609.98
977.47	4710.33
977.64	4767.67
977.80	4671.42
977.96	4698.04
978.12	4593.59
978.29	4661.18
978.45	4601.79
978.61	4575.16
978.77	4755.38
978.93	4695.99
979.10	4499.39
979.26	4736.95
979.42	4513.72
979.58	4448.19
979.74	4472.76
979.91	4521.92
980.07	4505.53
980.23	4499.39
980.39	4591.55
980.55	4384.70
980.71	4323.26
980.88	4493.24
981.04	4362.17
981.20	4306.88
981.36	4388.80
981.52	4450.24
981.68	4415.42
981.85	4489.15
982.01	4296.64
982.17	4458.43
982.33	4399.04
982.49	4433.85
982.65	4263.87
982.82	4394.94
982.98	4263.87
983.14	4288.45
983.30	4421.56
983.46	4396.99
983.62	4202.43
983.79	4327.36
983.95	4310.97
984.11	4065.22
984.27	4163.52
984.43	4308.93
984.59	4325.31
984.75	4204.48
984.91	4257.73
985.08	4296.64
985.24	4233.15
985.40	4204.48
985.56	4288.45
985.72	4216.77
985.88	4134.85
986.04	4050.88
986.20	4089.79
986.37	4095.94
986.53	3977.16
986.69	4073.41
986.85	3962.82
987.01	4059.07
987.17	4077.51
987.33	4026.31
987.49	3915.72
987.65	4108.23
987.82	4024.26
987.98	3823.56
988.14	3948.48
988.30	3882.95
988.46	3950.53
988.62	4097.99
988.78	3862.47
988.94	4020.16
989.10	3911.62
989.26	3870.66
989.42	3667.91
989.59	3784.65
989.75	3743.69
989.91	3913.67
990.07	3712.97
990.23	3768.26
990.39	3669.96
990.55	3872.71
990.71	3803.08
990.87	3848.13
991.03	3887.04
991.19	3788.74
991.35	3741.64
991.51	3661.77
991.67	3870.66
991.83	3839.94
992.00	3813.32
992.16	3944.39
992.32	3772.36
992.48	3762.12
992.64	3729.35
992.80	3747.78
992.96	3747.78
993.12	3755.97
993.28	3612.62
993.44	3643.34
993.60	3743.69
993.76	3772.36
993.92	3594.19
994.08	3747.78
994.24	3567.56
994.40	3633.10
994.56	3745.73
994.72	3502.03
994.88	3680.20
995.04	3622.86
995.20	3526.60
995.36	3545.03
995.52	3565.51
995.68	3510.22
995.84	3522.51
996.00	3563.47
996.16	3563.47
996.32	3524.55
996.48	3456.97
996.64	3538.89
996.80	3336.14
996.96	3422.16
997.12	3473.36
997.28	3338.19
997.44	3325.90
997.60	3344.33
997.76	3381.20
997.92	3303.37
998.08	3413.96
998.24	3227.60
998.40	3422.16
998.56	3483.59
998.72	3321.81
998.88	3258.32
999.04	3360.72
999.20	3383.24
999.36	3311.57
999.52	3401.68
999.68	3403.72
999.84	3383.24
1000.00	3338.19
1000.16	3444.68
1000.32	3231.69
1000.48	3452.88
1000.64	3346.38
1000.80	3194.83
1000.95	3241.93
1001.11	3284.94
1001.27	3229.65
1001.43	3223.50
1001.59	3190.74
1001.75	3190.74
1001.91	3243.98
1002.07	3059.67
1002.23	3133.39
1002.39	3137.49
1002.55	3168.21
1002.71	3139.54
1002.87	3151.82
1003.03	3076.05
1003.19	3082.19
1003.34	3112.91
1003.50	3086.29
1003.66	3076.05
1003.82	3194.83
1003.98	3018.71
1004.14	3033.04
1004.30	3049.43
1004.46	3035.09
1004.62	3065.81
1004.78	2994.13
1004.94	3102.67
1005.09	3051.47
1005.25	2981.84
1005.41	2910.16
1005.57	3026.90
1005.73	2987.99
1005.89	3016.66
1006.05	3012.56
1006.21	3004.37
1006.37	2875.35
1006.52	2994.13
1006.68	2908.12
1006.84	2985.94
1007.00	2936.79
1007.16	2994.13
1007.32	2934.74
1007.48	2846.68
1007.64	2893.78
1007.79	2938.84
1007.95	2844.63
1008.11	2959.31
1008.27	2820.05
1008.43	2824.15
1008.59	2904.02
1008.75	2904.02
1008.91	2949.08
1009.06	2852.82
1009.22	2893.78
1009.38	2891.73
1009.54	2799.57
1009.70	2670.55
1009.86	2861.01
1010.01	2723.80
1010.17	2734.04
1010.33	2824.15
1010.49	2824.15
1010.65	2813.91
1010.81	2717.65
1010.96	2662.36
1011.12	2662.36
1011.28	2619.35
1011.44	2729.94
1011.60	2664.41
1011.76	2723.80
1011.91	2858.96
1012.07	2674.65
1012.23	2627.54
1012.39	2705.37
1012.55	2707.41
1012.71	2590.68
1012.86	2658.26
1013.02	2666.46
1013.18	2623.45
1013.34	2686.94
1013.50	2707.41
1013.65	2555.86
1013.81	2562.01
1013.97	2576.34
1014.13	2609.11
1014.29	2576.34
1014.44	2713.56
1014.60	2580.44
1014.76	2600.92
1014.92	2555.86
1015.07	2559.96
1015.23	2670.55
1015.39	2650.07
1015.55	2488.28
1015.71	2533.34
1015.86	2480.09
1016.02	2543.58
1016.18	2459.61
1016.34	2570.20
1016.49	2535.39
1016.65	2621.40
1016.81	2424.80
1016.97	2516.95
1017.12	2484.19
1017.28	2443.23
1017.44	2473.95
1017.60	2430.94
1017.75	2424.80
1017.91	2344.92
1018.07	2453.47
1018.23	2439.13
1018.38	2432.99
1018.54	2461.66
1018.70	2463.71
1018.86	2383.84
1019.01	2308.06
1019.17	2379.74
1019.33	2412.51
1019.49	2406.36
1019.64	2402.27
1019.80	2371.55
1019.96	2344.92
1020.12	2338.78
1020.27	2418.65
1020.43	2336.73
1020.59	2424.80
1020.74	2367.45
1020.90	2377.69
1021.06	2289.63
1021.22	2385.88
1021.37	2312.16
1021.53	2265.05
1021.69	2291.68
1021.84	2244.57
1022.00	2355.16
1022.16	2265.05
1022.31	2295.77
1022.47	2334.68
1022.63	2371.55
1022.79	2287.58
1022.94	2287.58
1023.10	2463.71
1023.26	2246.62
1023.41	2291.68
1023.57	2322.40
1023.73	2236.38
1023.88	2383.84
1024.04	2226.14
1024.20	2220.00
1024.35	2275.29
1024.51	2312.16
1024.67	2263.01
1024.82	2273.25
1024.98	2148.32
1025.14	2355.16
1025.29	2256.86
1025.45	2275.29
1025.61	2156.51
1025.76	2217.95
1025.92	2191.33
1026.08	2281.44
1026.23	2263.01
1026.39	2226.14
1026.55	2244.57
1026.70	2129.89
1026.86	2236.38
1027.02	2254.81
1027.17	2277.34
1027.33	2265.05
1027.48	2138.08
1027.64	2152.42
1027.80	2117.60
1027.95	2197.47
1028.11	2113.50
1028.27	2226.14
1028.42	2207.71
1028.58	2066.40
1028.73	2074.59
1028.89	2076.64
1029.05	2226.14
1029.20	2133.98
>>>>>End Processed Spectral Data<<<<<
