SpectraSuite Data File
++++++++++++++++++++++++++++++++++++
Date: Fri Jun 02 14:52:25 CEST 2017
User: INFO_000
Dark Spectrum Present: No
Reference Spectrum Present: No
Number of Sampled Component Spectra: 1
Spectrometers: USB4H00879
Integration Time (usec): 80000 (USB4H00879)
Spectra Averaged: 1 (USB4H00879)
Boxcar Smoothing: 0 (USB4H00879)
Correct for Electrical Dark: No (USB4H00879)
Strobe/Lamp Enabled: No (USB4H00879)
Correct for Detector Non-linearity: No (USB4H00879)
Correct for Stray Light: No (USB4H00879)
Number of Pixels in Processed Spectrum: 3648
>>>>>Begin Processed Spectral Data<<<<<
345.13	1275.88
345.34	1275.88
345.56	1275.88
345.78	1320.94
345.99	1286.12
346.21	1691.62
346.42	1697.77
346.64	1572.84
346.86	1769.44
347.07	1708.01
347.29	1650.66
347.50	1587.18
347.72	1677.29
347.94	1691.62
348.15	1626.09
348.37	1570.79
348.59	1665.00
348.80	1646.57
349.02	1785.83
349.23	1871.84
349.45	1920.99
349.67	1789.92
349.88	1796.07
350.10	2009.06
350.31	1834.98
350.53	1839.08
350.75	2021.35
350.96	1806.31
351.18	1808.36
351.39	1816.55
351.61	1798.12
351.82	1935.33
352.04	1884.13
352.26	1845.22
352.47	1906.66
352.69	1966.05
352.90	1683.43
353.12	1904.61
353.34	1843.17
353.55	1978.34
353.77	1900.52
353.98	1849.32
354.20	1822.69
354.41	1882.08
354.63	1832.93
354.85	2052.06
355.06	1933.28
355.28	1822.69
355.49	1941.47
355.71	1949.67
355.92	1904.61
356.14	1925.09
356.35	1847.27
356.57	1994.72
356.79	1937.38
357.00	1773.54
357.22	2013.15
357.43	1859.56
357.65	1959.91
357.86	1861.60
358.08	1867.75
358.29	1908.71
358.51	1943.52
358.72	1980.39
358.94	1939.43
359.16	1927.14
359.37	2004.96
359.59	1933.28
359.80	2029.54
360.02	1918.95
360.23	1992.67
360.45	2031.58
360.66	1955.81
360.88	1951.71
361.09	1970.15
361.31	2058.21
361.52	2004.96
361.74	2009.06
361.95	2140.13
362.17	1998.82
362.38	2179.04
362.60	2058.21
362.81	2105.31
363.03	2009.06
363.24	2041.82
363.46	2043.87
363.67	2027.49
363.89	2011.11
364.10	2015.20
364.32	2002.91
364.53	2066.40
364.75	1912.80
364.96	2004.96
365.18	2072.54
365.39	2013.15
365.61	1959.91
365.82	2142.18
366.04	2078.69
366.25	1947.62
366.47	2080.74
366.68	2080.74
366.90	1970.15
367.11	2054.11
367.33	2052.06
367.54	2113.50
367.76	2097.12
367.97	2070.50
368.19	2074.59
368.40	2072.54
368.62	2058.21
368.83	1990.63
369.05	2009.06
369.26	2025.44
369.48	2031.58
369.69	2021.35
369.91	2185.18
370.12	2093.02
370.33	2215.90
370.55	1920.99
370.76	2047.97
370.98	2144.22
371.19	1996.77
371.41	1988.58
371.62	2066.40
371.84	1996.77
372.05	2191.33
372.27	2033.63
372.48	2154.46
372.69	2140.13
372.91	2189.28
373.12	2244.57
373.34	2086.88
373.55	2174.94
373.77	2129.89
373.98	2176.99
374.20	2203.61
374.41	2365.40
374.62	2107.36
374.84	2222.05
375.05	2271.20
375.27	2240.48
375.48	2166.75
375.70	2191.33
375.91	2285.53
376.12	2340.83
376.34	2144.22
376.55	2101.22
376.77	2220.00
376.98	2170.85
377.19	2131.94
377.41	2168.80
377.62	2170.85
377.84	2256.86
378.05	2340.83
378.27	2215.90
378.48	2349.02
378.69	2463.71
378.91	2283.49
379.12	2320.35
379.34	2250.72
379.55	2271.20
379.76	2312.16
379.98	2271.20
380.19	2281.44
380.41	2256.86
380.62	2346.97
380.83	2295.77
381.05	2267.10
381.26	2377.69
381.47	2246.62
381.69	2324.44
381.90	2428.89
382.12	2301.92
382.33	2279.39
382.54	2271.20
382.76	2342.88
382.97	2338.78
383.19	2250.72
383.40	2435.03
383.61	2328.54
383.83	2357.21
384.04	2359.26
384.25	2414.56
384.47	2473.95
384.68	2363.36
384.89	2422.75
385.11	2281.44
385.32	2418.65
385.54	2344.92
385.75	2381.79
385.96	2449.37
386.18	2445.27
386.39	2467.80
386.60	2387.93
386.82	2455.51
387.03	2451.42
387.24	2494.43
387.46	2521.05
387.67	2480.09
387.88	2586.58
388.10	2410.46
388.31	2578.39
388.52	2617.30
388.74	2590.68
388.95	2457.56
389.16	2602.97
389.38	2527.19
389.59	2639.83
389.80	2652.12
390.02	2553.82
390.23	2656.22
390.44	2580.44
390.66	2553.82
390.87	2502.62
391.08	2654.17
391.30	2621.40
391.51	2629.59
391.72	2830.29
391.94	2611.16
392.15	2633.69
392.36	2598.87
392.58	2570.20
392.79	2582.49
393.00	2707.41
393.22	2633.69
393.43	2777.05
393.64	2807.77
393.85	2768.85
394.07	2709.46
394.28	2777.05
394.49	2770.90
394.71	2674.65
394.92	2916.31
395.13	2719.70
395.35	2717.65
395.56	2799.57
395.77	2840.53
395.98	2789.33
396.20	2897.88
396.41	2879.44
396.62	2924.50
396.84	2828.24
397.05	2953.17
397.26	2828.24
397.47	2975.70
397.69	2922.45
397.90	3086.29
398.11	2797.53
398.32	2961.36
398.54	2914.26
398.75	2981.84
398.96	2969.55
399.18	3022.80
399.39	2967.51
399.60	3096.53
399.81	2867.16
400.03	3018.71
400.24	3368.91
400.45	2992.08
400.66	3018.71
400.88	3110.86
401.09	3262.41
401.30	3108.82
401.51	3057.62
401.73	3121.10
401.94	3215.31
402.15	3026.90
402.36	3274.70
402.58	3180.50
402.79	3229.65
403.00	3196.88
403.21	3321.81
403.43	3194.83
403.64	3325.90
403.85	3243.98
404.06	3403.72
404.27	3190.74
404.49	3203.02
404.70	3293.13
404.91	3313.61
405.12	3268.56
405.34	3211.22
405.55	3512.27
405.76	3157.97
405.97	3282.89
406.19	3344.33
406.40	3282.89
406.61	3434.44
406.82	3430.35
407.03	3452.88
407.25	3391.44
407.46	3485.64
407.67	3534.79
407.88	3514.31
408.09	3442.64
408.31	3373.00
408.52	3497.93
408.73	3340.24
408.94	3444.68
409.15	3461.07
409.37	3575.75
409.58	3499.98
409.79	3592.14
410.00	3651.53
410.21	3450.83
410.43	3440.59
410.64	3424.20
410.85	3540.94
411.06	3561.42
411.27	3747.78
411.48	3710.92
411.70	3585.99
411.91	3657.67
412.12	3706.82
412.33	3633.10
412.54	3702.73
412.76	3805.13
412.97	3778.50
413.18	3712.97
413.39	3809.22
413.60	3766.21
413.81	3751.88
414.03	3631.05
414.24	3692.49
414.45	3928.00
414.66	3784.65
414.87	3762.12
415.08	3715.02
415.30	3846.09
415.51	3846.09
415.72	3837.89
415.93	3772.36
416.14	3891.14
416.35	3958.72
416.56	3919.81
416.78	3866.56
416.99	3858.37
417.20	3909.57
417.41	4026.31
417.62	3925.96
417.83	4024.26
418.04	3981.25
418.26	4018.11
418.47	4087.75
418.68	3985.35
418.89	4138.94
419.10	4224.96
419.31	4169.66
419.52	4059.07
419.73	4198.34
419.95	4224.96
420.16	4038.59
420.37	4014.02
420.58	4159.42
420.79	4036.55
421.00	4282.30
421.21	4231.10
421.42	4075.46
421.63	4151.23
421.85	4280.25
422.06	4419.52
422.27	4241.34
422.48	4358.08
422.69	4239.30
422.90	4341.69
423.11	4468.67
423.32	4495.29
423.53	4421.56
423.75	4503.48
423.96	4523.96
424.17	4548.54
424.38	4603.83
424.59	4456.38
424.80	4693.94
425.01	4587.45
425.22	4546.49
425.43	4425.66
425.64	4816.82
425.85	4755.38
426.06	4642.75
426.28	4612.03
426.49	4501.44
426.70	4700.09
426.91	4784.06
427.12	4753.34
427.33	4681.66
427.54	4843.45
427.75	4816.82
427.96	4800.44
428.17	4853.69
428.38	4966.32
428.59	4917.17
428.80	4808.63
429.01	4900.79
429.23	4931.51
429.44	5291.95
429.65	5054.39
429.86	5064.63
430.07	4882.36
430.28	4990.90
430.49	5066.67
430.70	5244.85
430.91	5248.94
431.12	5015.48
431.33	5236.66
431.54	5279.66
431.75	5281.71
431.96	5273.52
432.17	5119.92
432.38	5183.41
432.59	5425.07
432.80	5294.00
433.01	5355.44
433.22	5453.74
433.43	5439.40
433.64	5443.50
433.85	5177.26
434.06	5341.10
434.27	5255.09
434.49	5486.51
434.70	5588.91
434.91	5455.79
435.12	5506.99
435.33	5488.56
435.54	5418.93
435.75	5506.99
435.96	5629.87
436.17	5533.61
436.38	5740.46
436.59	5746.60
436.80	5605.29
437.01	5935.01
437.22	5918.63
437.43	5799.85
437.64	5552.04
437.85	5797.80
438.06	5894.05
438.27	5705.64
438.48	5762.98
438.69	6045.60
438.90	5719.98
439.11	5736.36
439.32	5951.40
439.53	5875.62
439.74	5955.49
439.95	5955.49
440.16	5939.11
440.37	6197.15
440.57	5894.05
440.78	6016.93
440.99	6068.13
441.20	6078.37
441.41	5924.77
441.62	6162.34
441.83	5986.21
442.04	6004.64
442.25	6270.88
442.46	6154.15
442.67	6148.00
442.88	6684.57
443.09	6111.14
443.30	6127.52
443.51	6338.46
443.72	6299.55
443.93	6334.37
444.14	6518.68
444.35	6180.77
444.56	6369.18
444.77	6358.94
444.98	6301.60
445.19	6502.30
445.40	6475.68
445.61	6371.23
445.81	6602.65
446.02	6576.03
446.23	6610.84
446.44	6449.05
446.65	6520.73
446.86	6629.27
447.07	6590.36
447.28	6784.92
447.49	6811.54
447.70	6655.90
447.91	6786.97
448.12	6737.82
448.33	6848.41
448.54	6918.04
448.74	6600.60
448.95	6821.78
449.16	6627.23
449.37	7178.13
449.58	6969.24
449.79	6926.23
450.00	6909.85
450.21	7077.78
450.42	7139.22
450.63	6959.00
450.84	6999.96
451.05	7118.74
451.25	7229.33
451.46	7131.03
451.67	7387.02
451.88	7317.39
452.09	7180.18
452.30	7200.66
452.51	7192.47
452.72	7264.15
452.93	7763.85
453.13	7255.95
453.34	7393.17
453.55	7434.13
453.76	7389.07
453.97	7731.08
454.18	7540.62
454.39	7673.74
454.60	7612.30
454.81	7548.81
455.01	7784.33
455.22	7454.61
455.43	7800.71
455.64	7888.78
455.85	8245.12
456.06	8109.96
456.27	8118.15
456.48	7729.03
456.68	8023.94
456.89	7989.13
457.10	8222.59
457.31	8200.07
457.52	8204.16
457.73	8259.46
457.94	8482.69
458.14	8064.90
458.35	8650.62
458.56	8486.78
458.77	8523.65
458.98	8494.97
459.19	8550.27
459.39	8675.20
459.60	8744.83
459.81	8490.88
460.02	8654.72
460.23	8828.79
460.44	9074.55
460.65	8750.97
460.85	8834.94
461.06	8963.96
461.27	8869.75
461.48	8828.79
461.69	9226.10
461.89	8834.94
462.10	9146.23
462.31	8855.42
462.52	9097.08
462.73	9103.22
462.94	9502.58
463.14	9439.09
463.35	9305.97
463.56	9774.95
463.77	9756.52
463.98	9381.74
464.18	9662.32
464.39	9807.72
464.60	9852.78
464.81	9832.30
465.02	9744.24
465.23	10024.81
465.43	10100.58
465.64	10135.40
465.85	10024.81
466.06	9998.18
466.27	10332.00
466.47	10299.23
466.68	10346.34
466.89	10356.58
467.10	10549.09
467.30	10121.06
467.51	10653.53
467.72	10702.68
467.93	10557.28
468.14	10540.90
468.34	10995.54
468.55	10919.77
468.76	10757.98
468.97	10653.53
469.17	11126.61
469.38	11282.26
469.59	11325.27
469.80	11132.76
470.01	10930.01
470.21	11169.62
470.42	11448.15
470.63	11634.51
470.84	11272.02
471.04	11777.87
471.25	11542.35
471.46	11851.60
471.67	11939.66
471.87	11812.68
472.08	11843.40
472.29	12042.06
472.50	11792.20
472.70	11894.60
472.91	12246.85
473.12	12431.17
473.33	12304.20
473.53	12750.65
473.74	12353.35
473.95	12515.14
474.16	12615.49
474.36	12609.34
474.57	12986.17
474.78	13002.55
474.99	13035.32
475.19	12885.82
475.40	13115.19
475.61	13297.46
475.81	13436.72
476.02	13690.67
476.23	13324.08
476.44	13651.76
476.64	13758.25
476.85	14085.93
477.06	13852.46
477.27	14165.80
477.47	14153.51
477.68	13981.48
477.89	14348.07
478.09	14192.42
478.30	14249.77
478.51	14339.88
478.71	14503.71
478.92	14507.81
479.13	14882.59
479.34	14849.82
479.54	14839.58
479.75	15193.88
479.96	14987.04
480.16	15126.30
480.37	15259.42
480.58	15501.08
480.78	15634.19
480.99	15451.92
481.20	15707.92
481.41	15675.15
481.61	15779.60
481.82	16013.07
482.03	15826.70
482.23	15810.32
482.44	16224.01
482.65	16379.65
482.85	16301.83
483.06	16539.40
483.27	16410.37
483.47	16473.86
483.68	16365.32
483.89	16664.32
484.09	16764.67
484.30	16871.17
484.51	17164.03
484.71	17348.34
484.92	17051.39
485.13	17417.97
485.33	17372.92
485.54	17192.70
485.75	17712.88
485.95	17600.24
486.16	17813.23
486.37	17993.45
486.57	17944.30
486.78	17909.49
486.98	17905.39
487.19	18032.36
487.40	18241.26
487.60	18165.48
487.81	18386.66
488.02	18540.26
488.22	18276.07
488.43	18640.61
488.64	18835.17
488.84	18716.39
489.05	19076.83
489.25	19144.41
489.46	19160.80
489.67	19304.15
489.87	19318.49
490.08	19488.47
490.29	19439.32
490.49	19758.80
490.70	19693.27
490.90	19646.16
491.11	19633.88
491.32	19779.28
491.52	19961.55
491.73	19801.81
491.94	19949.26
492.14	20098.77
492.35	20358.86
492.55	20514.50
492.76	20502.22
492.97	20827.84
493.17	20668.10
493.38	20821.70
493.58	20932.29
493.79	20876.99
494.00	20868.80
494.20	20971.20
494.41	21206.72
494.61	21518.01
494.82	21157.57
495.02	21241.53
495.23	21522.10
495.44	21352.12
495.64	22046.38
495.85	21638.84
496.05	21769.91
496.26	21819.06
496.47	22304.43
496.67	21986.99
496.88	22021.81
497.08	22132.40
497.29	22310.57
497.49	22357.67
497.70	22458.03
497.91	22523.56
498.11	22767.27
498.32	22769.32
498.52	22896.29
498.73	23033.50
498.93	23101.09
499.14	23156.38
499.34	23330.46
499.55	23324.32
499.76	23035.55
499.96	23430.81
500.17	23795.35
500.37	23371.42
500.58	23439.00
500.78	23627.42
500.99	23768.73
501.19	23795.35
501.40	24000.15
501.60	23565.98
501.81	23832.21
502.02	24012.43
502.22	23664.28
502.43	24186.51
502.63	24393.36
502.84	24508.04
503.04	24288.91
503.25	24221.33
503.45	24329.87
503.66	24778.37
503.86	24534.67
504.07	25046.66
504.27	24718.98
504.48	24800.90
504.68	24936.07
504.89	25288.32
505.09	25065.09
505.30	25304.70
505.50	25284.22
505.71	25513.59
505.91	25517.69
506.12	25538.17
506.32	25448.06
506.53	25661.05
506.73	25529.98
506.94	25992.82
507.14	25734.78
507.35	25863.80
507.55	25910.90
507.76	25937.52
507.96	25855.61
508.17	25863.80
508.37	26398.32
508.58	26285.68
508.78	26455.66
508.99	26408.56
509.19	26312.30
509.40	26699.37
509.60	26568.30
509.81	26721.90
510.01	26625.64
510.22	26912.36
510.42	26666.60
510.63	26963.56
510.83	26904.17
511.04	27090.53
511.24	27283.04
511.44	27025.00
511.65	27264.61
511.85	27141.73
512.06	27436.64
512.26	27190.88
512.47	27645.53
512.67	27389.53
512.88	27444.83
513.08	27369.05
513.29	27764.31
513.49	27616.86
513.69	27780.70
513.90	27819.61
514.10	28018.26
514.31	27897.43
514.51	27874.90
514.72	28012.12
514.92	28268.11
515.13	28503.63
515.33	28259.92
515.53	28536.40
515.74	28167.76
515.94	28425.81
516.15	28685.90
516.35	28120.66
516.56	28952.13
516.76	28620.36
516.96	28454.48
517.17	29101.64
517.37	29013.57
517.58	28769.86
517.78	29103.68
517.99	29146.69
518.19	29148.74
518.39	29269.57
518.60	29675.07
518.80	29318.72
519.01	29716.03
519.21	29468.22
519.41	29640.25
519.62	29550.14
519.82	29630.01
520.03	29984.31
520.23	29859.38
520.43	29548.09
520.64	30510.64
520.84	30246.45
521.05	30195.25
521.25	30383.66
521.45	30365.23
521.66	30316.08
521.86	30510.64
522.07	30733.87
522.27	30402.10
522.47	30488.11
522.68	31057.45
522.88	30699.05
523.08	31131.17
523.29	30922.28
523.49	31311.39
523.70	30801.45
523.90	31399.46
524.10	31192.61
524.31	31292.96
524.51	31356.45
524.71	31864.35
524.92	31704.60
525.12	31901.21
525.33	31870.49
525.53	32124.44
525.73	32091.67
525.94	32255.51
526.14	32202.26
526.34	32202.26
526.55	32562.70
526.75	32157.21
526.95	32630.29
527.16	32687.63
527.36	32499.22
527.56	33052.17
527.77	33046.02
527.97	33353.22
528.17	32984.58
528.38	33457.67
528.58	33234.44
528.78	33320.45
528.99	33402.37
529.19	33691.13
529.39	33478.15
529.60	33947.13
529.80	33934.84
530.00	33811.96
530.21	33824.25
530.41	34549.23
530.61	34008.57
530.82	34440.69
531.02	33904.12
531.22	34551.28
531.43	34561.52
531.63	34889.20
531.83	34489.84
532.04	35093.99
532.24	34665.97
532.44	35239.40
532.64	35134.95
532.85	35016.17
533.05	35118.57
533.25	34964.97
533.46	35177.96
533.66	36122.07
533.86	35481.06
534.07	35765.73
534.27	35737.05
534.47	35823.07
534.67	36126.17
534.88	35599.84
535.08	36183.51
535.28	36066.78
535.49	36484.56
535.69	36527.57
535.89	36576.72
536.09	36728.27
536.30	36992.46
536.50	36670.93
536.70	37129.67
536.91	36869.58
537.11	37035.47
537.31	37125.58
537.51	37178.82
537.72	37512.64
537.92	37860.80
538.12	38047.16
538.32	37610.95
538.53	37707.20
538.73	37565.89
538.93	37762.50
539.13	37682.62
539.34	38190.52
539.54	37754.30
539.74	38206.90
539.94	38178.23
540.15	38184.38
540.35	38512.05
540.55	38227.38
540.75	38479.28
540.96	38323.64
541.16	38473.14
541.36	38600.12
541.56	38843.82
541.77	39110.06
541.97	38755.76
542.17	39132.59
542.37	38704.56
542.58	39024.04
542.78	39028.14
542.98	39482.79
543.18	39411.11
543.38	39775.65
543.59	39615.91
543.79	39224.75
543.99	39519.65
544.19	39441.83
544.40	39499.17
544.60	39898.53
544.80	39613.86
545.00	39767.46
545.20	40115.61
545.41	40052.12
545.61	39789.98
545.81	40398.23
546.01	40156.57
546.21	40334.74
546.42	40385.94
546.62	40451.48
546.82	39990.69
547.02	40394.14
547.22	40709.52
547.43	40639.89
547.63	40697.24
547.83	40893.84
548.03	40437.14
548.23	40711.57
548.44	40527.25
548.64	40846.74
548.84	41047.44
549.04	40727.95
549.24	41065.87
549.45	41207.18
549.65	40705.43
549.85	40791.44
550.05	41459.08
550.25	41014.67
550.45	41778.56
550.66	41289.10
550.86	41459.08
551.06	41727.36
551.26	41411.98
551.46	41612.68
551.66	41676.16
551.87	41354.63
552.07	41764.23
552.27	41723.27
552.47	41610.63
552.67	41858.43
552.87	42042.75
553.07	41796.99
553.28	42046.85
553.48	41950.59
553.68	42005.89
553.88	42173.82
554.08	41768.32
554.28	42130.81
554.48	42020.22
554.69	42351.99
554.89	42225.02
555.09	42280.31
555.29	41923.97
555.49	42651.00
555.69	41987.46
555.89	41874.82
556.10	42270.08
556.30	42306.94
556.50	42579.32
556.70	42491.26
556.90	42556.79
557.10	42564.98
557.30	42542.45
557.50	42939.76
557.70	43140.46
557.91	42767.73
558.11	42456.44
558.31	42980.72
558.51	42663.28
558.71	42485.11
558.91	42780.02
559.11	43054.45
559.31	42890.61
559.51	43183.47
559.72	43019.63
559.92	43085.17
560.12	42915.19
560.32	43251.05
560.52	43349.35
560.72	43025.78
560.92	43453.80
561.12	43228.52
561.32	43484.52
561.52	43320.68
561.72	43808.10
561.93	43070.83
562.13	43545.96
562.33	43378.03
562.53	43355.50
562.73	43119.98
562.93	43619.69
563.13	43472.23
563.33	43218.28
563.53	44100.96
563.73	43488.62
563.93	43537.77
564.13	44272.99
564.33	44068.19
564.53	43777.38
564.74	44137.82
564.94	43742.56
565.14	43781.48
565.34	43570.54
565.54	43685.22
565.74	44068.19
565.94	44561.75
566.14	44176.73
566.34	43992.42
566.54	44553.56
566.74	43910.50
566.94	44215.65
567.14	44789.08
567.34	44064.10
567.54	44520.79
567.74	44189.02
567.94	44479.83
568.14	44635.48
568.34	44498.26
568.54	44549.46
568.74	44330.33
568.94	44535.13
569.14	45032.78
569.34	45126.99
569.54	44571.99
569.75	44701.01
569.95	44737.88
570.15	45417.80
570.35	44963.15
570.55	44455.26
570.75	45196.62
570.95	45012.31
571.15	45329.74
571.35	45040.98
571.55	45360.46
571.75	45040.98
571.95	45307.21
572.15	45233.49
572.35	45382.99
572.55	45022.54
572.75	45407.56
572.95	45524.30
573.15	45573.45
573.35	45409.61
573.55	45475.15
573.75	45516.11
573.95	45886.79
574.15	45540.68
574.35	45442.38
574.55	45927.75
574.75	45725.00
574.95	45882.69
575.15	45636.94
575.34	46175.55
575.54	45851.97
575.74	46218.56
575.94	46234.94
576.14	46150.98
576.34	46681.40
576.54	46259.52
576.74	46327.10
576.94	46351.68
577.14	46474.55
577.34	46689.59
577.54	46472.51
577.74	46765.37
577.94	46777.65
578.14	47246.64
578.34	47222.06
578.54	46583.10
578.74	47027.51
578.94	46544.19
579.14	47168.82
579.34	46988.60
579.54	47035.70
579.74	47289.65
579.94	47342.89
580.13	47451.44
580.33	47428.91
580.53	47256.88
580.73	47355.18
580.93	47514.92
581.13	47512.88
581.33	47658.28
581.53	47772.97
581.73	47709.48
581.93	48266.53
582.13	48266.53
582.33	48106.79
582.53	47979.81
582.73	48502.04
582.92	48221.47
583.12	48985.36
583.32	48241.95
583.52	48076.07
583.72	48131.36
583.92	48280.86
584.12	48633.11
584.32	48592.15
584.52	48610.59
584.72	48291.10
584.92	48743.70
585.11	49263.89
585.31	48667.93
585.51	49327.38
585.71	48839.96
585.91	49245.46
586.11	48852.25
586.31	48680.22
586.51	49095.95
586.71	49431.82
586.91	49241.36
587.10	49505.55
587.30	49456.40
587.50	49894.66
587.70	49892.61
587.90	49433.87
588.10	49321.23
588.30	49593.61
588.50	50011.40
588.69	50062.60
588.89	49642.76
589.09	49636.62
589.29	50212.10
589.49	50386.18
589.69	49665.29
589.89	50418.94
590.08	50126.08
590.28	50191.62
590.48	50066.69
590.68	50271.49
590.88	50042.12
591.08	50427.13
591.28	49802.50
591.47	50887.93
591.67	50517.25
591.87	50674.94
592.07	50793.72
592.27	50763.00
592.47	50748.67
592.67	51291.38
592.86	50681.08
593.06	50926.84
593.26	51062.00
593.46	51090.68
593.66	50849.02
593.86	51217.65
594.05	51256.56
594.25	51555.57
594.45	51082.48
594.65	51586.28
594.85	50996.47
595.05	51344.62
595.24	51827.95
595.44	51428.59
595.64	52126.95
595.84	51666.16
596.04	51746.03
596.23	51987.69
596.43	52016.36
596.63	51952.87
596.83	51995.88
597.03	52081.89
597.22	52194.53
597.42	52032.74
597.62	52462.82
597.82	52407.52
598.02	52397.28
598.21	52669.66
598.41	52147.43
598.61	52409.57
598.81	52354.27
599.01	52853.98
599.20	52700.38
599.40	52806.87
599.60	53132.50
599.80	53126.36
600.00	53048.53
600.19	53208.28
600.39	52606.17
600.59	53408.98
600.79	53650.64
600.98	53445.84
601.18	52833.50
601.38	54029.51
601.58	53589.20
601.78	53282.00
601.97	53671.12
602.17	53839.05
602.37	53740.75
602.57	53624.01
602.76	53748.94
602.96	53597.39
603.16	54394.05
603.36	54099.14
603.55	54525.12
603.75	53966.02
603.95	54246.60
604.15	53990.60
604.34	54404.29
604.54	54533.31
604.74	54615.23
604.94	54549.70
605.13	54535.36
605.33	54754.49
605.53	54105.29
605.73	54830.27
605.92	54156.49
606.12	54811.84
606.32	54555.84
606.52	55135.41
606.71	54981.82
606.91	54932.67
607.11	55096.50
607.30	55231.67
607.50	54854.84
607.70	55755.95
607.90	55131.32
608.09	55358.64
608.29	55162.04
608.49	55442.61
608.68	55346.36
608.88	55461.04
609.08	55551.15
609.28	55731.37
609.47	55313.59
609.67	56188.07
609.87	55411.89
610.06	55876.78
610.26	55710.89
610.46	56321.19
610.66	55747.76
610.85	55749.81
611.05	55596.21
611.25	56054.95
611.44	55645.36
611.64	55936.17
611.84	55506.10
612.03	55506.10
612.23	56016.04
612.43	56057.00
612.62	55780.52
612.82	56591.52
613.02	56310.95
613.21	56433.83
613.41	55903.40
613.61	56325.28
613.80	55403.70
614.00	55780.52
614.20	56093.86
614.39	56349.86
614.59	56196.26
614.79	56091.82
614.98	56325.28
615.18	56310.95
615.38	56190.12
615.57	55936.17
615.77	56732.83
615.97	56136.87
616.16	56097.96
616.36	56292.52
616.56	56329.38
616.75	56292.52
616.95	56083.62
617.15	56220.84
617.34	56202.41
617.54	56153.26
617.74	56501.41
617.93	56444.07
618.13	55999.66
618.32	56501.41
618.52	56353.96
618.72	56337.57
618.91	56317.09
619.11	56079.53
619.31	56454.31
619.50	56243.37
619.70	56222.89
619.90	56429.73
620.09	56476.83
620.29	56186.02
620.48	56272.04
620.68	56280.23
620.88	55827.63
621.07	55909.55
621.27	56345.76
621.46	55985.32
621.66	55977.13
621.86	56482.98
622.05	56116.39
622.25	56589.47
622.44	56308.90
622.64	56001.71
622.84	56507.55
623.03	56087.72
623.23	56399.01
623.42	56091.82
623.62	55977.13
623.82	56800.41
624.01	56071.34
624.21	56423.59
624.40	56183.97
624.60	56079.53
624.80	56134.82
624.99	56229.03
625.19	55850.16
625.38	56280.23
625.58	56431.78
625.77	56202.41
625.97	55936.17
626.17	55602.35
626.36	56255.65
626.56	56229.03
626.75	55696.56
626.95	56425.64
627.14	55872.68
627.34	56476.83
627.54	55999.66
627.73	55948.46
627.93	56024.23
628.12	56036.52
628.32	56233.13
628.51	56216.74
628.71	55598.26
628.90	56030.38
629.10	56347.81
629.30	56231.08
629.49	56165.54
629.69	56173.73
629.88	55860.40
630.08	56394.92
630.27	56425.64
630.47	56347.81
630.66	55938.22
630.86	56300.71
631.05	55948.46
631.25	56241.32
631.44	56237.22
631.64	56130.73
631.84	56161.45
632.03	56104.10
632.23	56278.18
632.42	56636.58
632.62	56341.67
632.81	55893.16
633.01	56300.71
633.20	56382.63
633.40	56564.90
633.59	55919.79
633.79	55870.64
633.98	56272.04
634.18	56335.52
634.37	56229.03
634.57	56224.93
634.76	56171.69
634.96	56272.04
635.15	56206.50
635.35	55807.15
635.54	56179.88
635.74	56448.16
635.93	56100.01
636.13	56364.20
636.32	56364.20
636.52	55518.38
636.71	56630.43
636.91	56190.12
637.10	56194.21
637.30	55897.26
637.49	56186.02
637.69	56091.82
637.88	56835.23
638.08	56112.30
638.27	56480.93
638.46	56149.16
638.66	55758.00
638.85	55919.79
639.05	56235.17
639.24	56292.52
639.44	55733.42
639.63	56364.20
639.83	56351.91
640.02	56005.80
640.22	56542.37
640.41	56501.41
640.61	55755.95
640.80	56040.62
640.99	55958.70
641.19	56657.06
641.38	56386.72
641.58	55983.27
641.77	55874.73
641.97	55964.84
642.16	55936.17
642.36	56343.72
642.55	56784.03
642.74	55858.35
642.94	56685.73
643.13	56210.60
643.33	56394.92
643.52	56200.36
643.72	56292.52
643.91	56286.37
644.10	56427.68
644.30	56372.39
644.49	56046.76
644.69	56755.36
644.88	56554.66
645.08	56175.78
645.27	56210.60
645.46	56124.58
645.66	56741.02
645.85	55973.03
646.05	56452.26
646.24	56571.04
646.43	56824.99
646.63	56661.15
646.82	56759.45
647.02	56853.66
647.21	56614.05
647.40	56980.63
647.60	56401.06
647.79	56835.23
647.99	56968.35
648.18	56351.91
648.37	57048.22
648.57	56722.59
648.76	56341.67
648.96	56300.71
649.15	56839.32
649.34	56712.35
649.54	56589.47
649.73	56349.86
649.92	56872.09
650.12	56810.65
650.31	56904.86
650.51	56870.04
650.70	56925.34
650.89	56247.46
651.09	57433.24
651.28	56704.16
651.47	57197.72
651.67	56622.24
651.86	57253.01
652.06	56265.89
652.25	56769.69
652.44	56521.89
652.64	56360.10
652.83	56521.89
653.02	56808.61
653.22	56599.71
653.41	56908.96
653.60	56276.13
653.80	56503.46
653.99	57001.11
654.18	56675.49
654.38	56624.29
654.57	57021.59
654.76	56900.76
654.96	56394.92
655.15	56202.41
655.34	56960.15
655.54	56136.87
655.73	56507.55
655.92	56978.59
656.12	56810.65
656.31	57005.21
656.50	56982.68
656.70	56763.55
656.89	56829.08
657.08	56652.96
657.28	56757.41
657.47	56603.81
657.66	56509.60
657.86	56702.11
658.05	56546.47
658.24	57062.55
658.43	56489.12
658.63	57072.79
658.82	57048.22
659.01	57164.95
659.21	56767.65
659.40	56794.27
659.59	56616.10
659.79	56927.39
659.98	56843.42
660.17	57427.09
660.36	56655.01
660.56	56763.55
660.75	57308.31
660.94	56693.92
661.14	57023.64
661.33	56573.09
661.52	56124.58
661.71	56595.62
661.91	56800.41
662.10	56446.11
662.29	57103.51
662.49	56738.97
662.68	56859.80
662.87	56765.60
663.06	57078.94
663.26	56628.38
663.45	56710.30
663.64	56466.59
663.83	57365.65
664.03	56814.75
664.22	56652.96
664.41	56595.62
664.60	56403.11
664.80	57390.23
664.99	56861.85
665.18	57238.68
665.37	57316.50
665.57	57220.25
665.76	56777.89
665.95	57054.36
666.14	56808.61
666.34	56872.09
666.53	56751.26
666.72	56431.78
666.91	56657.06
667.11	56358.05
667.30	56931.48
667.49	57068.70
667.68	56808.61
667.87	56652.96
668.07	56915.10
668.26	56792.22
668.45	56835.23
668.64	56521.89
668.84	57330.84
669.03	56886.43
669.22	56929.44
669.41	56898.72
669.60	56655.01
669.80	56411.30
669.99	57040.03
670.18	56734.88
670.37	56409.25
670.57	57244.82
670.76	56495.27
670.95	56741.02
671.14	56906.91
671.33	56687.78
671.53	56833.18
671.72	57078.94
671.91	56904.86
672.10	56562.85
672.29	56919.20
672.48	56704.16
672.68	57203.86
672.87	56777.89
673.06	56728.73
673.25	56478.88
673.44	56521.89
673.64	56482.98
673.83	56607.90
674.02	56460.45
674.21	56372.39
674.40	56796.32
674.59	56652.96
674.79	56640.67
674.98	56493.22
675.17	56571.04
675.36	56374.44
675.55	56513.70
675.74	56423.59
675.94	56439.97
676.13	56628.38
676.32	56710.30
676.51	56818.84
676.70	56663.20
676.89	56411.30
677.08	56700.06
677.28	56444.07
677.47	56669.34
677.66	56882.33
677.85	56188.07
678.04	56663.20
678.23	57111.70
678.42	57046.17
678.62	56511.65
678.81	57025.69
679.00	56579.23
679.19	56990.87
679.38	56892.57
679.57	56536.23
679.76	56650.91
679.96	56646.82
680.15	56710.30
680.34	56255.65
680.53	56648.86
680.72	56532.13
680.91	56689.82
681.10	56276.13
681.29	56579.23
681.48	56521.89
681.68	56020.14
681.87	56382.63
682.06	56439.97
682.25	56315.04
682.44	56390.82
682.63	56648.86
682.82	55925.93
683.01	56130.73
683.20	55995.56
683.39	56636.58
683.59	56296.61
683.78	56308.90
683.97	55856.30
684.16	56134.82
684.35	55657.65
684.54	56052.90
684.73	56124.58
684.92	56194.21
685.11	56007.85
685.30	55899.31
685.49	55989.42
685.69	56231.08
685.88	55844.01
686.07	56048.81
686.26	56112.30
686.45	55991.47
686.64	56261.80
686.83	56097.96
687.02	56145.06
687.21	56448.16
687.40	56251.56
687.59	56300.71
687.78	55895.21
687.97	56196.26
688.16	55946.41
688.35	56247.46
688.54	55723.18
688.74	55817.39
688.93	56173.73
689.12	55975.08
689.31	55731.37
689.50	55983.27
689.69	55344.31
689.88	55334.07
690.07	55801.00
690.26	55973.03
690.45	56288.42
690.64	55803.05
690.83	55946.41
691.02	55602.35
691.21	55622.83
691.40	55700.65
691.59	55680.17
691.78	55506.10
691.97	55801.00
692.16	55430.32
692.35	55819.44
692.54	55682.22
692.73	55477.43
692.92	55473.33
693.11	55751.85
693.30	55448.75
693.49	55295.16
693.68	55538.86
693.87	55260.34
694.06	55246.00
694.25	55516.34
694.44	55209.14
694.63	55862.44
694.82	55383.22
695.01	55243.96
695.20	55170.23
695.39	55342.26
695.58	55532.72
695.77	55149.75
695.96	54889.66
696.15	55377.08
696.34	54785.21
696.53	55590.06
696.72	55293.11
696.91	55018.68
697.10	55622.83
697.29	54998.20
697.48	55166.13
697.67	55352.50
697.86	55370.93
698.05	54832.32
698.24	55176.37
698.43	54400.19
698.62	55342.26
698.81	54607.04
699.00	54944.95
699.19	54736.06
699.38	55080.12
699.57	54525.12
699.76	55366.84
699.95	55033.02
700.14	54666.43
700.32	54889.66
700.51	54820.03
700.70	55377.08
700.89	54680.77
701.08	54979.77
701.27	54697.15
701.46	54854.84
701.65	54568.13
701.84	54256.84
702.03	54576.32
702.22	54693.05
702.41	54711.49
702.60	54764.73
702.79	54285.51
702.98	54424.77
703.17	54674.62
703.35	54613.18
703.54	54566.08
703.73	54672.57
703.92	54684.86
704.11	53966.02
704.30	54412.48
704.49	54090.95
704.68	54115.53
704.87	54396.10
705.06	54015.18
705.25	54453.44
705.43	54142.15
705.62	54080.71
705.81	54049.99
706.00	53904.59
706.19	53822.67
706.38	53916.87
706.57	54027.46
706.76	53695.69
706.95	54392.00
707.14	53914.83
707.32	53548.24
707.51	53931.21
707.70	53736.65
707.89	53894.35
708.08	53814.47
708.27	54140.10
708.46	54314.18
708.65	53574.86
708.84	54531.26
709.02	53781.71
709.21	53779.66
709.40	54156.49
709.59	53816.52
709.78	53404.88
709.97	53748.94
710.16	53560.53
710.34	53695.69
710.53	53664.97
710.72	53298.39
710.91	53966.02
711.10	53896.39
711.29	53654.73
711.48	53546.19
711.66	53347.54
711.85	53613.77
712.04	53490.90
712.23	53247.19
712.42	53247.19
712.61	53490.90
712.80	53617.87
712.98	53843.15
713.17	53329.11
713.36	53640.40
713.55	53040.34
713.74	53398.74
713.93	53408.98
714.11	53241.04
714.30	52729.05
714.49	53175.51
714.68	53263.57
714.87	52909.27
715.06	53484.75
715.24	52827.35
715.43	52796.63
715.62	52868.31
715.81	52442.34
716.00	52864.22
716.18	52436.19
716.37	53249.24
716.56	52186.34
716.75	52843.74
716.94	52710.62
717.12	52481.25
717.31	52526.30
717.50	52374.75
717.69	52712.67
717.88	52425.95
718.06	52514.01
718.25	52409.57
718.44	52554.97
718.63	52518.11
718.82	51754.22
719.00	52155.62
719.19	52065.51
719.38	52149.48
719.57	51741.93
719.76	51424.50
719.94	51350.77
720.13	51987.69
720.32	51903.72
720.51	51629.29
720.69	51455.21
720.88	51303.67
721.07	51754.22
721.26	51229.94
721.44	51496.17
721.63	51352.82
721.82	51682.54
722.01	51416.30
722.20	51420.40
722.38	51373.30
722.57	50410.75
722.76	51363.06
722.95	50898.17
723.13	50939.13
723.32	50476.29
723.51	50681.08
723.70	50861.30
723.88	50861.30
724.07	50603.26
724.26	50732.28
724.44	50261.25
724.63	50846.97
724.82	50521.34
725.01	50601.21
725.19	50427.13
725.38	50650.36
725.57	50681.08
725.76	50402.56
725.94	49831.18
726.13	49827.08
726.32	50574.59
726.51	49822.98
726.69	50443.52
726.88	50681.08
727.07	50195.71
727.25	49872.14
727.44	50150.66
727.63	50062.60
727.82	50078.98
728.00	50208.00
728.19	50277.63
728.38	50259.20
728.56	49575.18
728.75	50328.83
728.94	49782.02
729.12	50107.65
729.31	50105.60
729.50	49988.87
729.69	50271.49
729.87	49921.29
730.06	50136.32
730.25	50294.02
730.43	50414.85
730.62	49501.45
730.81	49968.39
730.99	50167.04
731.18	49931.53
731.37	50138.37
731.55	50117.89
731.74	50238.72
731.93	50216.19
732.11	50099.46
732.30	49878.28
732.49	49849.61
732.67	49974.53
732.86	49853.70
733.05	50095.36
733.23	49736.97
733.42	49782.02
733.61	49698.06
733.79	50113.80
733.98	49915.14
734.17	49833.22
734.35	49837.32
734.54	50291.97
734.73	50150.66
734.91	49747.21
735.10	49702.15
735.29	49988.87
735.47	49612.04
735.66	49284.37
735.84	49640.71
736.03	49317.14
736.22	49937.67
736.40	49032.47
736.59	49523.98
736.78	49427.73
736.96	49306.90
737.15	49489.16
737.33	49310.99
737.52	49050.90
737.71	49401.10
737.89	49542.41
738.08	49055.00
738.27	49192.21
738.45	49235.22
738.64	49390.86
738.82	49218.83
739.01	49636.62
739.20	48762.14
739.38	49470.73
739.57	49546.51
739.75	49274.13
739.94	48876.82
740.13	49095.95
740.31	48663.83
740.50	49057.04
740.68	48954.64
740.87	48665.88
741.06	49198.35
741.24	49141.01
741.43	48358.69
741.61	49151.25
741.80	48899.35
741.99	48297.25
742.17	48831.77
742.36	48647.45
742.54	48223.52
742.73	48526.62
742.91	48469.28
743.10	48805.14
743.29	48979.22
743.47	48555.29
743.66	48411.93
743.84	48555.29
744.03	48395.55
744.21	48456.99
744.40	48819.48
744.59	48106.79
744.77	48108.83
744.96	48112.93
745.14	48352.54
745.33	48497.95
745.51	47744.30
745.70	48209.18
745.88	48264.48
746.07	48282.91
746.26	47922.47
746.44	47920.42
746.63	47815.97
746.81	48088.35
747.00	47721.77
747.18	47938.85
747.37	47490.35
747.55	47973.67
747.74	48315.68
747.92	47576.36
748.11	47852.84
748.29	47818.02
748.48	47699.24
748.66	47199.54
748.85	47525.16
749.03	47666.47
749.22	47117.62
749.41	47375.66
749.59	47768.87
749.78	47289.65
749.96	46724.41
750.15	47349.04
750.33	47385.90
750.52	47203.63
750.70	46923.06
750.89	46505.27
751.07	46957.88
751.26	47148.34
751.44	46984.50
751.63	46966.07
751.81	46871.86
752.00	46722.36
752.18	46886.20
752.37	46527.80
752.55	46630.20
752.74	46280.00
752.92	46593.34
753.10	46611.77
753.29	46873.91
753.47	46181.70
753.66	46013.76
753.84	46220.61
754.03	46347.58
754.21	45780.29
754.40	46441.79
754.58	46468.41
754.77	46280.00
754.95	45815.11
755.14	45991.23
755.32	45768.01
755.51	46036.29
755.69	46284.09
755.88	46005.57
756.06	45733.19
756.24	46028.10
756.43	45620.55
756.61	45899.08
756.80	45856.07
756.98	45387.08
757.17	45595.98
757.35	45647.18
757.54	45430.09
757.72	45940.04
757.90	45405.52
758.09	44856.66
758.27	45733.19
758.46	45315.40
758.64	45397.32
758.83	45518.15
759.01	45262.16
759.19	45327.69
759.38	45290.83
759.56	45653.32
759.75	45315.40
759.93	45206.86
760.12	44883.28
760.30	44836.18
760.48	44932.43
760.67	44791.12
760.85	45069.65
761.04	44682.58
761.22	44676.44
761.40	44797.27
761.59	44623.19
761.77	44426.59
761.96	44275.04
762.14	44424.54
762.32	44137.82
762.51	44217.69
762.69	44377.43
762.88	44326.24
763.06	44316.00
763.24	44406.11
763.43	44481.88
763.61	44033.38
763.80	44342.62
763.98	43756.90
764.16	44154.21
764.35	43914.59
764.53	43572.58
764.72	43464.04
764.90	43890.02
765.08	43572.58
765.27	44057.95
765.45	43640.17
765.63	43355.50
765.82	43244.91
766.00	43562.34
766.18	43343.21
766.37	43787.62
766.55	43189.61
766.74	43699.56
766.92	42993.01
767.10	43478.38
767.29	43187.56
767.47	42841.46
767.65	42958.19
767.84	42784.12
768.02	42927.47
768.20	42595.70
768.39	43013.49
768.57	42601.85
768.75	43013.49
768.94	43083.12
769.12	42941.81
769.30	42376.57
769.49	42648.95
769.67	42118.53
769.85	42063.23
770.04	42304.89
770.22	42116.48
770.40	42050.94
770.59	41811.33
770.77	42317.18
770.95	42016.13
771.14	42061.18
771.32	41700.74
771.50	41887.10
771.69	41751.94
771.87	42024.32
772.05	41801.09
772.24	41680.26
772.42	41629.06
772.60	41698.69
772.78	41366.92
772.97	41547.14
773.15	41557.38
773.33	41532.81
773.52	41055.63
773.70	41827.71
773.88	41235.85
774.07	41131.40
774.25	41268.62
774.43	41573.77
774.61	41928.06
774.80	41702.79
774.98	41514.37
775.16	41332.11
775.34	41614.72
775.53	41063.82
775.71	41745.80
775.89	41506.18
776.08	41440.65
776.26	41528.71
776.44	41469.32
776.62	41383.30
776.81	41475.46
776.99	41483.66
777.17	41502.09
777.35	41590.15
777.54	41887.10
777.72	41614.72
777.90	41629.06
778.08	41604.49
778.27	41688.45
778.45	41821.57
778.63	41610.63
778.81	41285.00
779.00	42169.72
779.18	41760.13
779.36	42132.86
779.54	41500.04
779.73	41450.89
779.91	41661.83
780.09	41876.86
780.27	42005.89
780.46	41858.43
780.64	42216.83
780.82	41723.27
781.00	41950.59
781.19	41815.43
781.37	42163.58
781.55	41885.06
781.73	42046.85
781.91	42235.26
782.10	42104.19
782.28	41727.36
782.46	42229.12
782.64	42206.59
782.82	41899.39
783.01	42073.47
783.19	42225.02
783.37	42079.61
783.55	42124.67
783.74	42476.92
783.92	41649.54
784.10	42495.35
784.28	42249.60
784.46	41745.80
784.64	41799.04
784.83	42081.66
785.01	42194.30
785.19	42218.88
785.37	42253.69
785.55	42276.22
785.74	41436.55
785.92	42028.41
786.10	41768.32
786.28	41821.57
786.46	41639.30
786.64	41672.07
786.83	41678.21
787.01	41860.48
787.19	41614.72
787.37	41710.98
787.55	41493.89
787.74	41452.94
787.92	41651.59
788.10	41291.15
788.28	41295.24
788.46	41440.65
788.64	41102.73
788.82	41631.11
789.01	41364.87
789.19	41385.35
789.37	41160.08
789.55	41262.47
789.73	40826.26
789.91	40887.70
790.09	40605.08
790.28	40705.43
790.46	40768.91
790.64	40687.00
790.82	40469.91
791.00	40621.46
791.18	40347.03
791.36	40510.87
791.55	40660.37
791.73	40070.56
791.91	39855.52
792.09	40045.98
792.27	39941.53
792.45	39671.20
792.63	39994.78
792.81	39597.48
793.00	39728.55
793.18	39611.81
793.36	39513.51
793.54	39640.48
793.72	39214.51
793.90	39189.93
794.08	39138.73
794.26	39290.28
794.44	38782.38
794.62	38835.63
794.81	38954.41
794.99	38766.00
795.17	38952.37
795.35	38596.02
795.53	38845.87
795.71	38884.78
795.89	38559.16
796.07	38235.58
796.25	38188.47
796.43	37873.09
796.61	38032.83
796.80	37858.75
796.98	38247.86
797.16	37746.11
797.34	37572.03
797.52	37436.87
797.70	38036.92
797.88	37780.93
798.06	37393.86
798.24	37277.13
798.42	37184.97
798.60	37608.90
798.78	37273.03
798.96	36898.25
799.14	36941.26
799.32	36961.74
799.51	36814.29
799.69	36572.63
799.87	37098.95
800.05	36468.18
800.23	36578.77
800.41	36171.22
800.59	36255.19
800.77	36359.64
800.95	35995.10
801.13	36144.60
801.31	36222.42
801.49	36244.95
801.67	36169.18
801.85	36042.20
802.03	35538.40
802.21	35599.84
802.39	35329.51
802.57	35597.79
802.75	35235.30
802.93	35163.62
803.11	35007.98
803.29	34952.68
803.47	34711.02
803.65	34967.02
803.83	34723.31
804.01	35229.16
804.19	34426.35
804.37	35096.04
804.55	34653.68
804.73	34889.20
804.91	34573.81
805.09	34147.83
805.27	34338.29
805.45	34481.65
805.63	34395.64
805.81	34342.39
805.99	34326.00
806.17	34379.25
806.35	34196.98
806.53	33619.46
806.71	33926.65
806.89	33996.28
807.07	33463.81
807.25	33922.55
807.43	33385.99
807.61	33691.13
807.79	33496.58
807.97	33213.96
808.15	32951.82
808.33	33232.39
808.51	33469.95
808.69	33338.88
808.87	32521.74
809.05	32830.99
809.23	32603.66
809.41	32646.67
809.59	32632.33
809.77	33021.45
809.95	32517.65
810.13	33095.18
810.31	32605.71
810.49	32689.68
810.67	32380.43
810.84	32552.46
811.02	32409.11
811.20	31936.02
811.38	32228.88
811.56	31837.72
811.74	32091.67
811.92	32269.84
812.10	31972.89
812.28	32114.20
812.46	31794.71
812.64	31868.44
812.82	31667.74
813.00	31499.81
813.18	31807.00
813.36	31516.19
813.53	30991.91
813.71	31262.24
813.89	31135.27
814.07	31718.94
814.25	31450.66
814.43	31110.69
814.61	31057.45
814.79	31106.60
814.97	30953.00
815.15	30946.86
815.33	30705.20
815.50	30496.30
815.68	30879.27
815.86	30740.01
816.04	30707.24
816.22	30498.35
816.40	30242.35
816.58	30340.66
816.76	30199.35
816.94	30201.40
817.11	30189.11
817.29	30383.66
817.47	29777.47
817.65	30004.79
817.83	30348.85
818.01	30203.44
818.19	30072.37
818.37	29926.97
818.54	29896.25
818.72	29830.71
818.90	30051.89
819.08	29728.31
819.26	29834.81
819.44	29652.54
819.62	29754.94
819.80	29904.44
819.97	29431.36
820.15	29158.98
820.33	29249.09
820.51	29453.89
820.69	28851.78
820.87	29374.02
821.05	29494.85
821.22	28909.13
821.40	29402.69
821.58	28966.47
821.76	28894.79
821.94	28982.85
822.12	29013.57
822.29	29126.21
822.47	28921.41
822.65	28626.51
822.83	28864.07
823.01	28882.50
823.19	29001.29
823.36	28374.61
823.54	28186.19
823.72	28139.09
823.90	28100.18
824.08	28386.89
824.25	28458.57
824.43	28409.42
824.61	28214.87
824.79	28712.52
824.97	28325.46
825.15	28245.58
825.32	28214.87
825.50	28159.57
825.68	27911.77
825.86	28128.85
826.04	27987.54
826.21	28178.00
826.39	27770.46
826.57	27860.57
826.75	27792.98
826.93	27446.88
827.10	27782.74
827.28	27995.73
827.46	28085.84
827.64	27600.47
827.81	27491.93
827.99	27840.09
828.17	27596.38
828.35	27381.34
828.53	27260.51
828.70	27231.84
828.88	27719.26
829.06	27471.45
829.24	27577.95
829.41	26848.87
829.59	27446.88
829.77	27072.10
829.95	27283.04
830.12	26873.45
830.30	26943.08
830.48	27088.48
830.66	27041.38
830.84	27162.21
831.01	26885.73
831.19	27102.82
831.37	26791.53
831.55	26928.74
831.72	27125.35
831.90	26857.06
832.08	26859.11
832.25	26656.36
832.43	26625.64
832.61	26486.38
832.79	26224.24
832.96	26553.96
833.14	26426.99
833.32	26439.28
833.50	26441.32
833.67	26670.70
833.85	26609.26
834.03	26019.44
834.20	26334.83
834.38	26500.72
834.56	26506.86
834.74	26324.59
834.91	26283.63
835.09	26263.15
835.27	25935.48
835.44	26013.30
835.62	25646.71
835.80	26140.27
835.98	25783.93
836.15	26295.92
836.33	25917.04
836.51	25968.24
836.68	25951.86
836.86	25720.44
837.04	25742.97
837.21	25747.06
837.39	25699.96
837.57	25738.87
837.75	25663.10
837.92	25478.78
838.10	25511.55
838.28	25495.16
838.45	25425.53
838.63	25284.22
838.81	25712.25
838.98	25314.94
839.16	25421.44
839.34	25230.98
839.51	25155.20
839.69	24999.55
839.87	25052.80
840.04	25226.88
840.22	25230.98
840.40	25204.35
840.57	25077.38
840.75	25149.06
840.93	24772.23
841.10	25249.41
841.28	25261.69
841.46	24962.69
841.63	24755.85
841.81	25118.34
841.98	25177.73
842.16	24966.79
842.34	24671.88
842.51	24772.23
842.69	24809.09
842.87	24743.56
843.04	25122.43
843.22	24628.87
843.40	24710.79
843.57	24610.44
843.75	24819.33
843.92	24563.34
844.10	24327.82
844.28	24350.35
844.45	24663.69
844.63	24487.56
844.81	24770.18
844.98	24540.81
845.16	24217.23
845.33	24534.67
845.51	24206.99
845.69	24166.03
845.86	24153.74
846.04	24194.70
846.21	23877.27
846.39	24106.64
846.57	23965.33
846.74	24104.59
846.92	23713.43
847.09	23940.75
847.27	24110.74
847.45	24180.37
847.62	24176.27
847.80	23942.80
847.97	24057.49
848.15	23967.38
848.32	23576.22
848.50	23686.81
848.68	23525.02
848.85	23412.38
849.03	23506.59
849.20	23592.60
849.38	23639.70
849.56	23670.42
849.73	23338.65
849.91	23682.71
850.08	23756.44
850.26	23611.03
850.43	23412.38
850.61	23348.89
850.78	23113.38
850.96	23119.52
851.14	23178.91
851.31	23238.30
851.49	23160.48
851.66	23621.27
851.84	23023.26
852.01	23434.91
852.19	23017.12
852.36	23166.62
852.54	23234.21
852.71	23203.49
852.89	23191.20
853.07	22994.59
853.24	23262.88
853.42	23309.98
853.59	23217.82
853.77	22920.87
853.94	23115.42
854.12	23099.04
854.29	22939.30
854.47	22732.45
854.64	22578.86
854.82	22775.46
854.99	22853.28
855.17	22759.08
855.34	22924.96
855.52	22736.55
855.69	22875.81
855.87	22558.38
856.04	22550.18
856.22	22488.74
856.39	22326.96
856.57	22711.97
856.74	22369.96
856.92	22380.20
857.09	22185.65
857.27	22179.50
857.44	22312.62
857.62	22722.21
857.79	22408.87
857.97	22828.71
858.14	22140.59
858.32	22369.96
858.49	21997.23
858.67	22128.30
858.84	22265.52
859.02	22056.62
859.19	22070.96
859.37	22181.55
859.54	22030.00
859.72	22154.93
859.89	21909.17
860.06	22193.84
860.24	22046.38
860.41	22023.86
860.59	21763.76
860.76	21882.55
860.94	21814.96
861.11	21929.65
861.29	21896.88
861.46	21788.34
861.64	21614.26
861.81	21857.97
861.98	21892.79
862.16	21518.01
862.33	21317.31
862.51	21595.83
862.68	21608.12
862.86	21386.94
863.03	21442.23
863.21	21378.75
863.38	21384.89
863.55	21368.51
863.73	21282.49
863.90	21606.07
864.08	21309.11
864.25	21198.52
864.43	21196.48
864.60	21229.24
864.77	21360.31
864.95	20928.19
865.12	20954.82
865.30	21151.42
865.47	20979.39
865.64	20985.54
865.82	21020.35
865.99	21327.55
866.17	20833.99
866.34	21231.29
866.51	20649.67
866.69	20862.66
866.86	21061.31
867.04	21110.46
867.21	20743.88
867.38	20844.23
867.56	20766.40
867.73	20694.72
867.91	20420.30
868.08	20631.24
868.25	20580.04
868.43	20307.66
868.60	20313.80
868.78	20362.95
868.95	20555.46
869.12	20420.30
869.30	20301.51
869.47	20557.51
869.64	20297.42
869.82	20416.20
869.99	20197.07
870.16	20586.18
870.34	20217.55
870.51	20606.66
870.69	19934.93
870.86	20379.34
871.03	20399.82
871.21	20035.28
871.38	20129.48
871.55	20053.71
871.73	19824.34
871.90	19672.79
872.07	19621.59
872.25	19701.46
872.42	19416.79
872.59	19818.19
872.77	19623.64
872.94	19828.43
873.11	19945.17
873.29	19752.66
873.46	19642.07
873.63	19474.13
873.81	19474.13
873.98	19289.82
874.15	19195.61
874.33	19064.54
874.50	19216.09
874.67	19443.42
874.85	19072.73
875.02	19058.40
875.19	19017.44
875.37	19224.28
875.54	19195.61
875.71	19050.21
875.88	19328.73
876.06	18917.09
876.23	18794.21
876.40	18796.26
876.58	18925.28
876.75	18931.42
876.92	18736.87
877.10	18677.48
877.27	18693.86
877.44	18593.51
877.61	18912.99
877.79	18648.80
877.96	18663.14
878.13	18474.73
878.31	18337.51
878.48	18308.84
878.65	18188.01
878.82	18038.51
879.00	18429.67
879.17	18534.12
879.34	18405.10
879.51	18130.67
879.69	18431.72
879.86	18075.37
880.03	18216.68
880.21	18370.28
880.38	18157.29
880.55	18054.89
880.72	18265.83
880.90	17895.15
881.07	17802.99
881.24	17972.97
881.41	17915.63
881.59	17975.02
881.76	18138.86
881.93	17682.16
882.10	17676.02
882.28	17852.14
882.45	18083.56
882.62	17958.64
882.79	18001.65
882.96	17469.17
883.14	17796.85
883.31	17839.86
883.48	17514.23
883.65	17389.30
883.83	17534.71
884.00	17360.63
884.17	17663.73
884.34	17487.61
884.51	17813.23
884.69	17686.26
884.86	17381.11
885.03	17506.04
885.20	17176.31
885.38	17379.06
885.55	17446.65
885.72	17405.69
885.89	17395.45
886.06	17190.65
886.24	17340.15
886.41	17301.24
886.58	17485.56
886.75	17366.78
886.92	16869.12
887.10	17186.55
887.27	17123.07
887.44	17131.26
887.61	17377.01
887.78	17168.12
887.95	17188.60
888.13	17032.96
888.30	16914.17
888.47	17010.43
888.64	16992.00
888.81	16969.47
888.99	16877.31
889.16	16865.02
889.33	16832.26
889.50	16586.50
889.67	16889.60
889.84	16602.88
890.01	17108.73
890.19	16709.38
890.36	16766.72
890.53	16545.54
890.70	16563.97
890.87	16543.49
891.04	16506.63
891.22	16355.08
891.39	16484.10
891.56	16344.84
891.73	16408.33
891.90	16447.24
892.07	16410.37
892.24	16457.48
892.42	16305.93
892.59	16387.85
892.76	16262.92
892.93	16191.24
893.10	16383.75
893.27	16181.00
893.44	15933.20
893.61	15824.65
893.79	16312.07
893.96	16137.99
894.13	16332.55
894.30	16201.48
894.47	16193.29
894.64	16303.88
894.81	16111.37
894.98	16215.82
895.15	16129.80
895.33	16262.92
895.50	16002.83
895.67	16127.75
895.84	15943.44
896.01	16006.92
896.18	15851.28
896.35	16066.31
896.52	15943.44
896.69	15857.42
896.86	15961.87
897.04	16238.34
897.21	15949.58
897.38	15929.10
897.55	15896.33
897.72	16244.49
897.89	15873.81
898.06	16037.64
898.23	15910.67
898.40	15867.66
898.57	15777.55
898.74	15851.28
898.91	15869.71
899.08	15890.19
899.26	15798.03
899.43	16088.84
899.60	15812.37
899.77	15763.22
899.94	15898.38
900.11	15851.28
900.28	15820.56
900.45	15888.14
900.62	15740.69
900.79	15904.53
900.96	15779.60
901.13	15795.98
901.30	15642.39
901.47	15658.77
901.64	15693.58
901.81	15767.31
901.98	15886.09
902.15	15900.43
902.32	15621.91
902.49	16103.18
902.66	15961.87
902.83	15705.87
903.01	15601.43
903.18	15800.08
903.35	15580.95
903.52	15679.25
903.69	15931.15
903.86	15935.24
904.03	15701.78
904.20	15830.80
904.37	16027.40
904.54	15712.02
904.71	15619.86
904.88	15841.04
905.05	15693.58
905.22	15771.41
905.39	15761.17
905.56	15593.23
905.73	15636.24
905.90	15671.06
906.07	15855.37
906.24	15652.63
906.41	15716.11
906.58	15732.50
906.75	15499.03
906.92	15417.11
907.09	15836.94
907.26	15916.81
907.43	15347.48
907.60	15607.57
907.77	15810.32
907.93	15695.63
908.10	15601.43
908.27	15707.92
908.44	15716.11
908.61	15435.54
908.78	15544.08
908.95	15617.81
909.12	15464.21
909.29	15435.54
909.46	15519.51
909.63	15564.56
909.80	15744.78
909.97	15742.74
910.14	15464.21
910.31	15593.23
910.48	15605.52
910.65	15478.55
910.82	15574.80
910.99	15537.94
911.16	15703.82
911.33	15226.65
911.50	15451.92
911.66	15374.10
911.83	15439.64
912.00	15157.02
912.17	15275.80
912.34	15314.71
912.51	15140.63
912.68	15302.42
912.85	15347.48
913.02	15204.12
913.19	15173.40
913.36	15027.99
913.53	14976.80
913.70	15060.76
913.86	15085.34
914.03	15085.34
914.20	14923.55
914.37	15083.29
914.54	15066.91
914.71	14907.16
914.88	14800.67
915.05	14823.20
915.22	14835.49
915.39	14907.16
915.55	14882.59
915.72	14706.46
915.89	14673.70
916.06	14647.07
916.23	14554.91
916.40	14653.22
916.57	14360.36
916.74	14532.39
916.91	14552.87
917.07	14325.54
917.24	14466.85
917.41	14284.58
917.58	14323.49
917.75	14354.21
917.92	14034.73
918.09	14231.33
918.26	13934.38
918.42	14073.64
918.59	13965.10
918.76	14104.36
918.93	13778.73
919.10	13766.45
919.27	14044.97
919.44	14034.73
919.60	13846.32
919.77	13942.57
919.94	13821.74
920.11	13858.60
920.28	13651.76
920.45	13532.98
920.61	13672.24
920.78	13559.60
920.95	13545.27
921.12	13412.15
921.29	13367.09
921.46	13420.34
921.62	13193.01
921.79	13436.72
921.96	13209.40
922.13	13221.69
922.30	13092.66
922.47	13078.33
922.63	13166.39
922.80	13274.93
922.97	13041.46
923.14	13008.70
923.31	12994.36
923.47	12842.81
923.64	13010.75
923.81	12552.00
923.98	12715.84
924.15	12652.35
924.32	12851.00
924.48	12670.78
924.65	12693.31
924.82	12492.61
924.99	12461.89
925.15	12183.37
925.32	12336.96
925.49	12293.96
925.66	12134.21
925.83	11941.71
925.99	12076.87
926.16	12220.23
926.33	12046.15
926.50	11949.90
926.67	12148.55
926.83	11724.62
927.00	11857.74
927.17	11853.64
927.34	11669.33
927.50	11648.85
927.67	11661.13
927.84	11503.44
928.01	11667.28
928.17	11464.53
928.34	11695.95
928.51	11435.86
928.68	11427.67
928.84	11181.91
929.01	11290.45
929.18	11134.81
929.35	11231.06
929.51	11044.70
929.68	10909.53
929.85	11026.26
930.02	11112.28
930.18	10936.15
930.35	10784.60
930.52	10936.15
930.69	10891.10
930.85	10874.71
931.02	10655.58
931.19	10618.72
931.36	10772.32
931.52	10544.99
931.69	10757.98
931.86	10549.09
932.02	10534.75
932.19	10461.02
932.36	10381.15
932.53	10293.09
932.69	10178.40
932.86	10174.31
933.03	10409.83
933.19	9908.07
933.36	10065.77
933.53	10030.95
933.70	10010.47
933.86	9805.67
934.03	9785.19
934.20	9559.92
934.36	9949.03
934.53	9682.80
934.70	9437.04
934.86	9594.73
935.03	9418.61
935.20	9566.06
935.36	9379.70
935.53	9222.00
935.70	9234.29
935.86	9181.04
936.03	9166.71
936.20	8867.70
936.36	8916.86
936.53	8779.64
936.70	8808.31
936.86	9041.78
937.03	8705.92
937.20	8374.14
937.36	8486.78
937.53	8230.79
937.70	8245.12
937.86	8011.65
938.03	8161.16
938.20	8120.20
938.36	7802.76
938.53	8009.61
938.70	7679.88
938.86	7554.96
939.03	7612.30
939.20	7544.72
939.36	7509.90
939.53	7530.38
939.70	7708.55
939.86	7180.18
940.03	7139.22
940.19	6989.72
940.36	7026.58
940.53	6926.23
940.69	6762.39
940.86	6907.80
941.03	6731.67
941.19	6557.60
941.36	6551.45
941.52	6567.84
941.69	6444.96
941.86	6522.78
942.02	6334.37
942.19	6287.26
942.35	6389.66
942.52	6070.18
942.69	6135.71
942.85	6043.56
943.02	6068.13
943.18	5992.36
943.35	6029.22
943.52	5988.26
943.68	5838.76
943.85	5949.35
944.01	5734.31
944.18	5849.00
944.35	5826.47
944.51	5707.69
944.68	5695.40
944.84	5629.87
945.01	5685.16
945.17	5701.54
945.34	5578.67
945.51	5619.63
945.67	5527.47
945.84	5468.08
946.00	5554.09
946.17	5707.69
946.33	5523.37
946.50	5615.53
946.67	5488.56
946.83	5468.08
947.00	5533.61
947.16	5408.69
947.33	5441.45
947.49	5390.25
947.66	5273.52
947.82	5478.32
947.99	5343.15
948.16	5361.58
948.32	5449.64
948.49	5513.13
948.65	5312.43
948.82	5416.88
948.98	5486.51
949.15	5433.26
949.31	5359.53
949.48	5394.35
949.64	5455.79
949.81	5502.89
949.97	5468.08
950.14	5554.09
950.30	5492.65
950.47	5572.52
950.63	5410.73
950.80	5418.93
950.96	5433.26
951.13	5445.55
951.30	5506.99
951.46	5554.09
951.63	5476.27
951.79	5490.60
951.96	5496.75
952.12	5582.76
952.29	5418.93
952.45	5451.69
952.62	5443.50
952.78	5455.79
952.94	5418.93
953.11	5502.89
953.27	5463.98
953.44	5560.24
953.60	5611.43
953.77	5533.61
953.93	5474.22
954.10	5468.08
954.26	5568.43
954.43	5509.04
954.59	5539.76
954.76	5568.43
954.92	5427.12
955.09	5554.09
955.25	5478.32
955.42	5451.69
955.58	5595.05
955.75	5570.48
955.91	5533.61
956.07	5640.11
956.24	5599.15
956.40	5627.82
956.57	5517.23
956.73	5490.60
956.90	5613.48
957.06	5486.51
957.23	5572.52
957.39	5476.27
957.56	5515.18
957.72	5599.15
957.88	5414.83
958.05	5685.16
958.21	5541.80
958.38	5588.91
958.54	5423.02
958.71	5746.60
958.87	5392.30
959.03	5590.95
959.20	5631.91
959.36	5556.14
959.53	5599.15
959.69	5574.57
959.85	5550.00
960.02	5517.23
960.18	5599.15
960.35	5429.17
960.51	5648.30
960.68	5461.93
960.84	5521.32
961.00	5449.64
961.17	5550.00
961.33	5736.36
961.50	5533.61
961.66	5468.08
961.82	5457.84
961.99	5605.29
962.15	5541.80
962.31	5572.52
962.48	5629.87
962.64	5527.47
962.81	5453.74
962.97	5543.85
963.13	5617.58
963.30	5609.39
963.46	5416.88
963.62	5238.70
963.79	5564.33
963.95	5566.38
964.12	5433.26
964.28	5459.88
964.44	5484.46
964.61	5509.04
964.77	5570.48
964.93	5535.66
965.10	5402.54
965.26	5451.69
965.42	5418.93
965.59	5261.23
965.75	5322.67
965.92	5435.31
966.08	5533.61
966.24	5294.00
966.41	5375.92
966.57	5312.43
966.73	5304.24
966.90	5365.68
967.06	5210.03
967.22	5185.46
967.39	5377.97
967.55	5332.91
967.71	5255.09
967.88	5140.40
968.04	5185.46
968.20	5081.01
968.37	5103.54
968.53	5158.83
968.69	5289.90
968.85	5257.14
969.02	5345.20
969.18	5382.06
969.34	5328.81
969.51	5279.66
969.67	5181.36
969.83	5007.28
970.00	5232.56
970.16	5169.07
970.32	5119.92
970.48	5279.66
970.65	5156.79
970.81	5042.10
970.97	5195.70
971.14	4968.37
971.30	5158.83
971.46	5029.81
971.63	5177.26
971.79	5134.26
971.95	4968.37
972.11	4970.42
972.28	5062.58
972.44	5089.20
972.60	4925.36
972.76	5048.24
972.93	4997.04
973.09	5048.24
973.25	4915.12
973.42	4935.60
973.58	5009.33
973.74	5031.86
973.90	5029.81
974.07	4841.40
974.23	4876.21
974.39	4943.80
974.55	4874.17
974.72	4839.35
974.88	4804.53
975.04	4886.45
975.20	4882.36
975.37	4849.59
975.53	4935.60
975.69	4888.50
975.85	4749.24
976.01	4800.44
976.18	4712.38
976.34	4685.75
976.50	4816.82
976.66	4847.54
976.83	4605.88
976.99	4777.91
977.15	4583.35
977.31	4769.72
977.47	4765.62
977.64	4646.84
977.80	4681.66
977.96	4599.74
978.12	4743.10
978.29	4569.02
978.45	4634.55
978.61	4483.00
978.77	4736.95
978.93	4573.11
979.10	4605.88
979.26	4585.40
979.42	4485.05
979.58	4497.34
979.74	4468.67
979.91	4575.16
980.07	4542.39
980.23	4468.67
980.39	4470.72
980.55	4476.86
980.71	4419.52
980.88	4358.08
981.04	4360.13
981.20	4450.24
981.36	4483.00
981.52	4333.50
981.68	4358.08
981.85	4380.61
982.01	4411.32
982.17	4497.34
982.33	4349.89
982.49	4530.11
982.65	4360.13
982.82	4364.22
982.98	4339.65
983.14	4313.02
983.30	4296.64
983.46	4396.99
983.62	4280.25
983.79	4286.40
983.95	4319.17
984.11	4218.82
984.27	4329.41
984.43	4278.21
984.59	4149.18
984.75	4206.53
984.91	4188.10
985.08	4272.06
985.24	4079.55
985.40	4026.31
985.56	4181.95
985.72	4181.95
985.88	4124.61
986.04	4218.82
986.20	4059.07
986.37	4208.58
986.53	4001.73
986.69	4052.93
986.85	4059.07
987.01	4034.50
987.17	4042.69
987.33	4054.98
987.49	3968.96
987.65	4067.27
987.82	4071.36
987.98	3837.89
988.14	4032.45
988.30	3942.34
988.46	3977.16
988.62	3917.76
988.78	3977.16
988.94	3938.24
989.10	3878.85
989.26	3831.75
989.42	3817.41
989.59	3817.41
989.75	3821.51
989.91	3870.66
990.07	3751.88
990.23	3919.81
990.39	3833.80
990.55	3770.31
990.71	3768.26
990.87	3844.04
991.03	3786.69
991.19	3665.86
991.35	3796.93
991.51	3764.17
991.67	3841.99
991.83	3829.70
992.00	3751.88
992.16	3745.73
992.32	3745.73
992.48	3700.68
992.64	3649.48
992.80	3809.22
992.96	3729.35
993.12	3725.26
993.28	3715.02
993.44	3645.38
993.60	3667.91
993.76	3760.07
993.92	3618.76
994.08	3667.91
994.24	3559.37
994.40	3655.62
994.56	3696.58
994.72	3622.86
994.88	3526.60
995.04	3598.28
995.20	3585.99
995.36	3436.49
995.52	3583.95
995.68	3512.27
995.84	3426.25
996.00	3680.20
996.16	3452.88
996.32	3469.26
996.48	3436.49
996.64	3579.85
996.80	3518.41
996.96	3493.83
997.12	3463.12
997.28	3465.16
997.44	3442.64
997.60	3436.49
997.76	3459.02
997.92	3418.06
998.08	3522.51
998.24	3340.24
998.40	3424.20
998.56	3456.97
998.72	3186.64
998.88	3301.33
999.04	3362.76
999.20	3403.72
999.36	3350.48
999.52	3461.07
999.68	3327.95
999.84	3409.87
1000.00	3338.19
1000.16	3278.80
1000.32	3286.99
1000.48	3432.40
1000.64	3274.70
1000.80	3186.64
1000.95	3223.50
1001.11	3241.93
1001.27	3030.99
1001.43	3160.02
1001.59	3164.11
1001.75	3178.45
1001.91	3211.22
1002.07	3135.44
1002.23	3098.58
1002.39	3188.69
1002.55	3110.86
1002.71	3090.38
1002.87	3108.82
1003.03	3172.30
1003.19	3022.80
1003.34	3168.21
1003.50	3119.06
1003.66	3049.43
1003.82	3160.02
1003.98	3067.86
1004.14	3188.69
1004.30	2944.98
1004.46	3000.27
1004.62	3059.67
1004.78	2944.98
1004.94	2994.13
1005.09	3125.20
1005.25	2985.94
1005.41	2998.23
1005.57	2861.01
1005.73	2971.60
1005.89	2942.93
1006.05	3039.19
1006.21	3047.38
1006.37	2873.30
1006.52	2844.63
1006.68	2813.91
1006.84	2969.55
1007.00	2885.59
1007.16	2912.21
1007.32	2815.96
1007.48	2899.92
1007.64	2895.83
1007.79	2865.11
1007.95	2861.01
1008.11	2930.64
1008.27	2863.06
1008.43	2865.11
1008.59	2883.54
1008.75	2854.87
1008.91	2805.72
1009.06	2822.10
1009.22	2873.30
1009.38	2754.52
1009.54	2746.33
1009.70	2717.65
1009.86	2811.86
1010.01	2912.21
1010.17	2818.00
1010.33	2777.05
1010.49	2725.85
1010.65	2830.29
1010.81	2725.85
1010.96	2740.18
1011.12	2781.14
1011.28	2746.33
1011.44	2729.94
1011.60	2705.37
1011.76	2707.41
1011.91	2746.33
1012.07	2568.15
1012.23	2596.82
1012.39	2619.35
1012.55	2688.98
1012.71	2703.32
1012.86	2611.16
1013.02	2711.51
1013.18	2584.54
1013.34	2635.74
1013.50	2691.03
1013.65	2711.51
1013.81	2539.48
1013.97	2535.39
1014.13	2715.61
1014.29	2635.74
1014.44	2703.32
1014.60	2510.81
1014.76	2566.10
1014.92	2605.02
1015.07	2586.58
1015.23	2672.60
1015.39	2510.81
1015.55	2516.95
1015.71	2521.05
1015.86	2625.50
1016.02	2475.99
1016.18	2461.66
1016.34	2607.06
1016.49	2519.00
1016.65	2617.30
1016.81	2453.47
1016.97	2486.23
1017.12	2521.05
1017.28	2330.59
1017.44	2445.27
1017.60	2437.08
1017.75	2588.63
1017.91	2514.91
1018.07	2443.23
1018.23	2420.70
1018.38	2418.65
1018.54	2426.84
1018.70	2408.41
1018.86	2338.78
1019.01	2363.36
1019.17	2400.22
1019.33	2484.19
1019.49	2389.98
1019.64	2351.07
1019.80	2371.55
1019.96	2437.08
1020.12	2330.59
1020.27	2316.25
1020.43	2346.97
1020.59	2379.74
1020.74	2422.75
1020.90	2383.84
1021.06	2258.91
1021.22	2392.03
1021.37	2263.01
1021.53	2211.81
1021.69	2387.93
1021.84	2238.43
1022.00	2283.49
1022.16	2232.29
1022.31	2328.54
1022.47	2342.88
1022.63	2404.32
1022.79	2209.76
1022.94	2271.20
1023.10	2394.08
1023.26	2299.87
1023.41	2283.49
1023.57	2265.05
1023.73	2250.72
1023.88	2385.88
1024.04	2183.13
1024.20	2236.38
1024.35	2361.31
1024.51	2324.44
1024.67	2256.86
1024.82	2346.97
1024.98	2123.74
1025.14	2197.47
1025.29	2224.09
1025.45	2332.64
1025.61	2138.08
1025.76	2213.85
1025.92	2152.42
1026.08	2273.25
1026.23	2256.86
1026.39	2240.48
1026.55	2170.85
1026.70	2105.31
1026.86	2158.56
1027.02	2164.70
1027.17	2273.25
1027.33	2260.96
1027.48	2125.79
1027.64	2158.56
1027.80	2170.85
1027.95	2277.34
1028.11	2070.50
1028.27	2174.94
1028.42	2162.66
1028.58	2093.02
1028.73	2066.40
1028.89	2043.87
1029.05	2131.94
1029.20	2193.37
>>>>>End Processed Spectral Data<<<<<
