SpectraSuite Data File
++++++++++++++++++++++++++++++++++++
Date: Fri Jun 02 14:52:23 CEST 2017
User: INFO_000
Dark Spectrum Present: No
Reference Spectrum Present: No
Number of Sampled Component Spectra: 1
Spectrometers: USB4H00879
Integration Time (usec): 80000 (USB4H00879)
Spectra Averaged: 1 (USB4H00879)
Boxcar Smoothing: 0 (USB4H00879)
Correct for Electrical Dark: No (USB4H00879)
Strobe/Lamp Enabled: No (USB4H00879)
Correct for Detector Non-linearity: No (USB4H00879)
Correct for Stray Light: No (USB4H00879)
Number of Pixels in Processed Spectrum: 3648
>>>>>Begin Processed Spectral Data<<<<<
345.13	1267.69
345.34	1267.69
345.56	1267.69
345.78	1310.70
345.99	1204.21
346.21	1703.91
346.42	1691.62
346.64	1619.94
346.86	1775.59
347.07	1665.00
347.29	1683.43
347.50	1595.37
347.72	1683.43
347.94	1744.87
348.15	1576.94
348.37	1634.28
348.59	1675.24
348.80	1710.05
349.02	1740.77
349.23	1814.50
349.45	1693.67
349.67	1841.12
349.88	1726.44
350.10	1886.18
350.31	1689.57
350.53	1691.62
350.75	1843.17
350.96	1656.81
351.18	1732.58
351.39	1794.02
351.61	1742.82
351.82	1818.60
352.04	1806.31
352.26	1699.81
352.47	1802.21
352.69	1722.34
352.90	1605.61
353.12	1748.97
353.34	1736.68
353.55	1820.64
353.77	1791.97
353.98	1703.91
354.20	1720.29
354.41	1896.42
354.63	1781.73
354.85	1937.38
355.06	1800.16
355.28	1615.85
355.49	1787.88
355.71	1757.16
355.92	1740.77
356.14	1753.06
356.35	1728.49
356.57	1734.63
356.79	1802.21
357.00	1849.32
357.22	1845.22
357.43	1777.64
357.65	1814.50
357.86	1714.15
358.08	1794.02
358.29	1779.68
358.51	1769.44
358.72	1839.08
358.94	1753.06
359.16	1802.21
359.37	1800.16
359.59	1843.17
359.80	1816.55
360.02	1830.88
360.23	1794.02
360.45	1910.75
360.66	1775.59
360.88	1695.72
361.09	1751.01
361.31	1820.64
361.52	1697.77
361.74	1830.88
361.95	1880.04
362.17	1814.50
362.38	1929.19
362.60	1820.64
362.81	1738.73
363.03	1748.97
363.24	1742.82
363.46	1898.47
363.67	1802.21
363.89	1773.54
364.10	1796.07
364.32	1820.64
364.53	1843.17
364.75	1683.43
364.96	1839.08
365.18	1837.03
365.39	1820.64
365.61	1744.87
365.82	1912.80
366.04	1826.79
366.25	1695.72
366.47	1839.08
366.68	1837.03
366.90	1767.40
367.11	1884.13
367.33	1886.18
367.54	1896.42
367.76	1855.46
367.97	1906.66
368.19	1810.40
368.40	1873.89
368.62	1777.64
368.83	1783.78
369.05	1837.03
369.26	1761.25
369.48	1722.34
369.69	1839.08
369.91	1779.68
370.12	1789.92
370.33	1837.03
370.55	1632.23
370.76	1830.88
370.98	1834.98
371.19	1761.25
371.41	1808.36
371.62	1886.18
371.84	1814.50
372.05	1918.95
372.27	1832.93
372.48	1896.42
372.69	1871.84
372.91	1910.75
373.12	1826.79
373.34	1771.49
373.55	1886.18
373.77	1884.13
373.98	1873.89
374.20	1986.53
374.41	1935.33
374.62	1867.75
374.84	1964.00
375.05	1818.60
375.27	1933.28
375.48	1978.34
375.70	1900.52
375.91	2019.30
376.12	2002.91
376.34	1834.98
376.55	1910.75
376.77	1937.38
376.98	1820.64
377.19	1828.84
377.41	1931.23
377.62	1953.76
377.84	2029.54
378.05	2080.74
378.27	2058.21
378.48	2002.91
378.69	2078.69
378.91	2107.36
379.12	1982.43
379.34	1929.19
379.55	1957.86
379.76	2009.06
379.98	1896.42
380.19	1988.58
380.41	2021.35
380.62	1992.67
380.83	2025.44
381.05	1904.61
381.26	2201.57
381.47	1927.14
381.69	1949.67
381.90	2113.50
382.12	1955.81
382.33	1935.33
382.54	1929.19
382.76	2015.20
382.97	2076.64
383.19	1974.24
383.40	2158.56
383.61	2025.44
383.83	1998.82
384.04	2058.21
384.25	2054.11
384.47	2170.85
384.68	2084.83
384.89	2023.39
385.11	2164.70
385.32	2043.87
385.54	2174.94
385.75	1998.82
385.96	2168.80
386.18	2090.98
386.39	2068.45
386.60	2101.22
386.82	2181.09
387.03	2138.08
387.24	2174.94
387.46	2113.50
387.67	2334.68
387.88	2322.40
388.10	2220.00
388.31	2131.94
388.52	2338.78
388.74	2279.39
388.95	2353.12
389.16	2195.42
389.38	2209.76
389.59	2312.16
389.80	2283.49
390.02	2355.16
390.23	2381.79
390.44	2172.89
390.66	2349.02
390.87	2263.01
391.08	2398.17
391.30	2547.67
391.51	2412.51
391.72	2398.17
391.94	2449.37
392.15	2435.03
392.36	2392.03
392.58	2359.26
392.79	2449.37
393.00	2529.24
393.22	2480.09
393.43	2629.59
393.64	2441.18
393.85	2502.62
394.07	2486.23
394.28	2641.88
394.49	2512.86
394.71	2680.79
394.92	2697.17
395.13	2506.71
395.35	2582.49
395.56	2475.99
395.77	2645.98
395.98	2639.83
396.20	2582.49
396.41	2779.09
396.62	2746.33
396.84	2742.23
397.05	2514.91
397.26	2562.01
397.47	2818.00
397.69	2668.50
397.90	2910.16
398.11	2766.81
398.32	2768.85
398.54	2750.42
398.75	2752.47
398.96	2893.78
399.18	2965.46
399.39	2863.06
399.60	3043.28
399.81	2854.87
400.03	2772.95
400.24	3067.86
400.45	2801.62
400.66	2975.70
400.88	2822.10
401.09	3092.43
401.30	2818.00
401.51	3004.37
401.73	3039.19
401.94	2975.70
402.15	3090.38
402.36	3104.72
402.58	3000.27
402.79	3141.58
403.00	3084.24
403.21	3166.16
403.43	3149.78
403.64	3067.86
403.85	3053.52
404.06	3168.21
404.27	3090.38
404.49	3094.48
404.70	3096.53
404.91	3190.74
405.12	3137.49
405.34	3166.16
405.55	3356.62
405.76	3117.01
405.97	3188.69
406.19	3422.16
406.40	3260.37
406.61	3321.81
406.82	3377.10
407.03	3239.89
407.25	3248.08
407.46	3356.62
407.67	3303.37
407.88	3483.59
408.09	3301.33
408.31	3338.19
408.52	3499.98
408.73	3315.66
408.94	3266.51
409.15	3395.53
409.37	3524.55
409.58	3397.58
409.79	3485.64
410.00	3536.84
410.21	3362.76
410.43	3493.83
410.64	3399.63
410.85	3575.75
411.06	3551.18
411.27	3549.13
411.48	3590.09
411.70	3471.31
411.91	3665.86
412.12	3702.73
412.33	3672.01
412.54	3667.91
412.76	3608.52
412.97	3598.28
413.18	3454.92
413.39	3518.41
413.60	3788.74
413.81	3712.97
414.03	3667.91
414.24	3643.34
414.45	3872.71
414.66	3622.86
414.87	3784.65
415.08	3755.97
415.30	3661.77
415.51	3708.87
415.72	3694.54
415.93	3727.30
416.14	3798.98
416.35	3995.59
416.56	3774.41
416.78	3841.99
416.99	3815.37
417.20	3835.85
417.41	3975.11
417.62	3971.01
417.83	3977.16
418.04	3874.76
418.26	3954.63
418.47	3829.70
418.68	4048.83
418.89	4009.92
419.10	4147.14
419.31	4151.23
419.52	4194.24
419.73	4210.62
419.95	4263.87
420.16	4009.92
420.37	4054.98
420.58	4087.75
420.79	3995.59
421.00	4190.14
421.21	4192.19
421.42	4169.66
421.63	4274.11
421.85	4188.10
422.06	4167.62
422.27	4265.92
422.48	4222.91
422.69	4175.81
422.90	4485.05
423.11	4222.91
423.32	4319.17
423.53	4376.51
423.75	4353.98
423.96	4427.71
424.17	4530.11
424.38	4534.20
424.59	4372.41
424.80	4718.52
425.01	4564.92
425.22	4446.14
425.43	4419.52
425.64	4616.12
425.85	4673.46
426.06	4714.42
426.28	4673.46
426.49	4628.41
426.70	4587.45
426.91	4591.55
427.12	4679.61
427.33	4722.62
427.54	4667.32
427.75	4800.44
427.96	4835.25
428.17	4786.10
428.38	4927.41
428.59	4841.40
428.80	4822.97
429.01	4913.08
429.23	4999.09
429.44	5044.15
429.65	5029.81
429.86	5060.53
430.07	4841.40
430.28	4894.65
430.49	4984.76
430.70	5164.98
430.91	5250.99
431.12	5011.38
431.33	5246.90
431.54	5263.28
431.75	5261.23
431.96	5093.30
432.17	5087.15
432.38	5169.07
432.59	5418.93
432.80	5400.49
433.01	5375.92
433.22	5431.21
433.43	5451.69
433.64	5343.15
433.85	5332.91
434.06	5461.93
434.27	5326.77
434.49	5498.80
434.70	5509.04
434.91	5588.91
435.12	5601.19
435.33	5466.03
435.54	5566.38
435.75	5343.15
435.96	5578.67
436.17	5554.09
436.38	5676.97
436.59	5615.53
436.80	5504.94
437.01	5926.82
437.22	5855.14
437.43	5707.69
437.64	5607.34
437.85	5795.75
438.06	5869.48
438.27	5785.51
438.48	5746.60
438.69	6016.93
438.90	5732.26
439.11	5840.81
439.32	6119.33
439.53	5838.76
439.74	5965.73
439.95	6010.79
440.16	5846.95
440.37	6123.43
440.57	5939.11
440.78	6135.71
440.99	6084.52
441.20	6143.91
441.41	6035.36
441.62	6182.82
441.83	6100.90
442.04	6211.49
442.25	6301.60
442.46	6277.02
442.67	6373.28
442.88	6608.80
443.09	6307.74
443.30	6193.06
443.51	6287.26
443.72	6610.84
443.93	6092.71
444.14	6657.95
444.35	6248.35
444.56	6512.54
444.77	6444.96
444.98	6453.15
445.19	6490.01
445.40	6449.05
445.61	6549.40
445.81	6604.70
446.02	6625.18
446.23	6500.25
446.44	6401.95
446.65	6627.23
446.86	6639.51
447.07	6770.58
447.28	6856.60
447.49	6872.98
447.70	6770.58
447.91	6672.28
448.12	6807.45
448.33	7018.39
448.54	6965.14
448.74	6764.44
448.95	6991.77
449.16	6664.09
449.37	7182.23
449.58	6842.26
449.79	7219.09
450.00	6760.34
450.21	6877.08
450.42	7288.72
450.63	7081.88
450.84	7108.50
451.05	7131.03
451.25	7167.89
451.46	6963.09
451.67	7337.87
451.88	7192.47
452.09	7147.41
452.30	7090.07
452.51	7333.78
452.72	7317.39
452.93	7602.06
453.13	7210.90
453.34	7321.49
453.55	7509.90
453.76	7497.61
453.97	7643.02
454.18	7473.04
454.39	7583.63
454.60	7509.90
454.81	7524.24
455.01	7817.10
455.22	7591.82
455.43	7647.12
455.64	7905.16
455.85	8032.13
456.06	8163.20
456.27	7911.30
456.48	7942.02
456.68	7917.45
456.89	8150.92
457.10	8058.76
457.31	8044.42
457.52	8046.47
457.73	8097.67
457.94	8386.43
458.14	8097.67
458.35	8408.96
458.56	8384.38
458.77	8316.80
458.98	8406.91
459.19	8365.95
459.39	8490.88
459.60	8595.32
459.81	8484.73
460.02	8681.34
460.23	8714.11
460.44	9002.87
460.65	8583.04
460.85	8890.23
461.06	8927.10
461.27	8638.33
461.48	9004.92
461.69	9084.79
461.89	8687.48
462.10	9035.64
462.31	8957.82
462.52	8843.13
462.73	9131.89
462.94	9256.82
463.14	9230.20
463.35	9187.19
463.56	9566.06
463.77	9414.51
463.98	9420.66
464.18	9383.79
464.39	9660.27
464.60	9854.83
464.81	9697.13
465.02	9686.89
465.23	9981.80
465.43	9559.92
465.64	10209.12
465.85	9989.99
466.06	9865.07
466.27	10241.89
466.47	10110.82
466.68	10080.10
466.89	10149.73
467.10	10477.41
467.30	10209.12
467.51	10436.45
467.72	10735.45
467.93	10454.88
468.14	10512.22
468.34	10721.12
468.55	10786.65
468.76	10741.60
468.97	10694.49
469.17	10876.76
469.38	11081.56
469.59	11112.28
469.80	10919.77
470.01	11038.55
470.21	11224.92
470.42	11355.99
470.63	11433.81
470.84	11306.84
471.04	11599.70
471.25	11548.50
471.46	11292.50
471.67	11818.83
471.87	11704.14
472.08	11900.75
472.29	11960.14
472.50	11841.36
472.70	11851.60
472.91	11960.14
473.12	12189.51
473.33	12209.99
473.53	12375.88
473.74	12259.14
473.95	12451.65
474.16	12564.29
474.36	12646.21
474.57	12709.69
474.78	12873.53
474.99	12996.41
475.19	13000.51
475.40	13291.32
475.61	13225.78
475.81	13420.34
476.02	13498.16
476.23	13508.40
476.44	13360.95
476.64	13786.93
476.85	13844.27
477.06	13637.42
477.27	14038.83
477.47	14081.83
477.68	14069.55
477.89	14239.53
478.09	14108.46
478.30	14313.25
478.51	14425.89
478.71	14565.15
478.92	14769.95
479.13	14739.23
479.34	14823.20
479.54	14845.73
479.75	14774.05
479.96	15068.95
480.16	14970.65
480.37	15179.54
480.58	15101.72
480.78	15546.13
480.99	15249.18
481.20	15609.62
481.41	15724.30
481.61	15628.05
481.82	15861.52
482.03	16017.16
482.23	15968.01
482.44	16367.37
482.65	16398.09
482.85	16307.98
483.06	16641.79
483.27	16418.57
483.47	16342.79
483.68	16527.11
483.89	16658.18
484.09	16703.23
484.30	16920.32
484.51	17125.11
484.71	17192.70
484.92	16848.64
485.13	17364.73
485.33	17321.72
485.54	17082.11
485.75	17565.43
485.95	17463.03
486.16	17737.46
486.37	17745.65
486.57	17663.73
486.78	17891.06
486.98	18196.20
487.19	18083.56
487.40	18124.52
487.60	18052.84
487.81	18511.59
488.02	18042.60
488.22	18546.40
488.43	18544.36
488.64	18810.59
488.84	18912.99
489.05	19109.60
489.25	18921.18
489.46	19029.73
489.67	19156.70
489.87	19543.77
490.08	19410.65
490.29	19504.85
490.49	19869.39
490.70	19795.67
490.90	19924.69
491.11	19826.39
491.32	19990.22
491.52	20027.09
491.73	19973.84
491.94	20227.79
492.14	20260.55
492.35	20563.65
492.55	20514.50
492.76	20856.51
492.97	20739.78
493.17	20692.68
493.38	20752.07
493.58	20911.81
493.79	21069.50
494.00	21311.16
494.20	21214.91
494.41	21255.87
494.61	21454.52
494.82	21569.21
495.02	21601.97
495.23	21556.92
495.44	21554.87
495.64	22015.66
495.85	21862.07
496.05	21997.23
496.26	22109.87
496.47	22515.37
496.67	22306.48
496.88	22601.38
497.08	22054.58
497.29	22558.38
497.49	22273.71
497.70	22777.51
497.91	22818.47
498.11	22703.78
498.32	23219.87
498.52	23146.14
498.73	23158.43
498.93	23287.45
499.14	23170.72
499.34	23230.11
499.55	23539.35
499.76	23393.95
499.96	23602.84
500.17	23727.77
500.37	23697.05
500.58	23740.05
500.78	24084.11
500.99	23994.00
501.19	24282.77
501.40	24112.78
501.60	23979.67
501.81	24503.95
502.02	23955.09
502.22	24356.49
502.43	24635.02
502.63	24512.14
502.84	25011.84
503.04	24637.06
503.25	25001.60
503.45	24587.91
503.66	25040.51
503.86	24966.79
504.07	25169.54
504.27	25167.49
504.48	25511.55
504.68	25486.97
504.89	25495.16
505.09	25695.86
505.30	25017.99
505.50	25605.75
505.71	25652.86
505.91	25876.09
506.12	25654.90
506.32	25663.10
506.53	26101.36
506.73	26033.78
506.94	26048.11
507.14	25960.05
507.35	26375.79
507.55	26318.45
507.76	26283.63
507.96	26187.38
508.17	26787.43
508.37	26191.47
508.58	26523.24
508.78	26584.68
508.99	26556.01
509.19	26627.69
509.40	26615.40
509.60	27084.39
509.81	26779.24
510.01	26760.81
510.22	26840.68
510.42	26998.37
510.63	27025.00
510.83	26822.25
511.04	27219.55
511.24	27414.11
511.44	27002.47
511.65	27391.58
511.85	27479.64
512.06	27448.93
512.26	27362.91
512.47	27448.93
512.67	27827.80
512.88	27369.05
513.08	27104.87
513.29	27727.45
513.49	27747.93
513.69	27733.59
513.90	27977.30
514.10	27967.06
514.31	27702.87
514.51	27854.42
514.72	27993.68
514.92	28085.84
515.13	28012.12
515.33	28167.76
515.53	28204.63
515.74	28098.13
515.94	28126.80
516.15	28597.84
516.35	28438.09
516.56	28909.13
516.76	28335.70
516.96	28472.91
517.17	28694.09
517.37	28364.37
517.58	28655.18
517.78	28870.22
517.99	28509.77
518.19	29097.54
518.39	28829.26
518.60	29275.71
518.80	29046.34
519.01	29056.58
519.21	29474.37
519.41	29419.07
519.62	29115.97
519.82	29570.62
520.03	29443.65
520.23	29552.19
520.43	29310.53
520.64	29886.01
520.84	29789.75
521.05	29720.12
521.25	30008.89
521.45	29705.79
521.66	29855.29
521.86	29873.72
522.07	29771.32
522.27	30170.68
522.47	30354.99
522.68	30150.20
522.88	30404.14
523.08	30346.80
523.29	30543.41
523.49	30697.00
523.70	30807.59
523.90	30748.20
524.10	30832.17
524.31	30664.24
524.51	30717.48
524.71	31012.39
524.92	31231.52
525.12	31469.09
525.33	31204.90
525.53	31495.71
525.73	31620.64
525.94	31594.01
526.14	31471.14
526.34	31659.55
526.55	31804.95
526.75	32087.57
526.95	32364.05
527.16	31968.79
527.36	32040.47
527.56	32255.51
527.77	32806.41
527.97	32144.92
528.17	32349.71
528.38	32384.53
528.58	32654.86
528.78	33056.26
528.99	32638.48
529.19	32896.52
529.39	32503.31
529.60	33013.26
529.80	32966.15
530.00	33037.83
530.21	33705.47
530.41	33519.10
530.61	33537.54
530.82	33496.58
531.02	33592.83
531.22	33811.96
531.43	34131.45
531.63	34123.26
531.83	34606.58
532.04	34674.16
532.24	34219.51
532.44	34393.59
532.64	34696.69
532.85	34887.15
533.05	34528.75
533.25	34768.37
533.46	34946.54
533.66	35137.00
533.86	34938.35
534.07	35528.16
534.27	35122.66
534.47	35651.04
534.67	35491.30
534.88	35669.47
535.08	35569.12
535.28	36046.30
535.49	36003.29
535.69	36541.91
535.89	35900.89
536.09	35921.37
536.30	36380.12
536.50	36263.38
536.70	36556.24
536.91	36494.80
537.11	36877.77
537.31	36597.20
537.51	37127.63
537.72	37082.57
537.92	37531.08
538.12	37506.50
538.32	37115.34
538.53	37520.84
538.73	37385.67
538.93	37264.84
539.13	37490.12
539.34	37332.42
539.54	37563.84
539.74	38100.41
539.94	37989.82
540.15	37516.74
540.35	38430.13
540.55	38303.16
540.75	38198.71
540.96	38354.36
541.16	38653.36
541.36	38288.82
541.56	38536.63
541.77	38915.50
541.97	38933.93
542.17	38546.87
542.37	39118.25
542.58	39085.48
542.78	38966.70
542.98	39200.17
543.18	39128.49
543.38	39648.68
543.59	39589.28
543.79	39462.31
543.99	39554.47
544.19	39574.95
544.40	39789.98
544.60	39806.37
544.80	39949.73
545.00	40025.50
545.20	40336.79
545.41	39857.57
545.61	40033.69
545.81	40404.38
546.01	40527.25
546.21	40164.76
546.42	40301.98
546.62	40138.14
546.82	39959.97
547.02	40562.07
547.22	40465.81
547.43	40326.55
547.63	40590.74
547.83	40779.15
548.03	40867.22
548.23	41252.23
548.44	40613.27
548.64	41039.25
548.84	40912.27
549.04	41106.83
549.24	41295.24
549.45	41645.44
549.65	41291.15
549.85	41170.32
550.05	41731.46
550.25	41221.52
550.45	42161.53
550.66	41901.44
550.86	41346.44
551.06	41715.08
551.26	42030.46
551.46	42182.01
551.66	41960.83
551.87	41547.14
552.07	41844.10
552.27	41930.11
552.47	41983.36
552.67	42216.83
552.87	42063.23
553.07	41944.45
553.28	42173.82
553.48	42292.60
553.68	42061.18
553.88	42438.01
554.08	42468.73
554.28	42325.37
554.48	42333.56
554.69	42550.65
554.89	42161.53
555.09	42468.73
555.29	42505.59
555.49	42757.49
555.69	42894.71
555.89	42694.00
556.10	42923.38
556.30	42427.77
556.50	42882.42
556.70	42493.30
556.90	43023.73
557.10	42894.71
557.30	42675.57
557.50	43152.75
557.70	43154.80
557.91	43068.78
558.11	42440.06
558.31	43533.67
558.51	42982.77
558.71	43044.21
558.91	43421.03
559.11	43111.79
559.31	43130.22
559.51	43158.89
559.72	42759.54
559.92	43341.16
560.12	43269.48
560.32	43423.08
560.52	43119.98
560.72	43298.16
560.92	43322.73
561.12	43076.97
561.32	44266.84
561.52	43449.70
561.72	43623.78
561.93	43302.25
562.13	43787.62
562.33	43183.47
562.53	43887.97
562.73	43576.68
562.93	43963.75
563.13	43758.95
563.33	43513.19
563.53	43754.85
563.73	43437.42
563.93	43949.41
564.13	44125.53
564.33	44012.90
564.53	43627.88
564.74	44186.97
564.94	43713.89
565.14	44125.53
565.34	43900.26
565.54	44268.89
565.74	44166.49
565.94	44414.30
566.14	43920.74
566.34	44039.52
566.54	44363.10
566.74	44113.25
566.94	44158.30
567.14	44266.84
567.34	44461.40
567.54	44467.55
567.74	44576.09
567.94	44377.43
568.14	44524.89
568.34	44811.60
568.54	44416.35
568.74	44864.85
568.94	44608.86
569.14	44938.58
569.34	44492.12
569.54	44934.48
569.75	44465.50
569.95	44803.41
570.15	45217.10
570.35	44938.58
570.55	44803.41
570.75	45122.90
570.95	45307.21
571.15	45464.91
571.35	44907.86
571.55	45401.42
571.75	45327.69
571.95	45311.31
572.15	45137.23
572.35	45284.68
572.55	45477.19
572.75	45411.66
572.95	45522.25
573.15	45720.90
573.35	45688.13
573.55	45585.74
573.75	45638.98
573.95	45563.21
574.15	45530.44
574.35	46230.85
574.55	46054.72
574.75	45942.08
574.95	45638.98
575.15	45890.88
575.34	46005.57
575.54	46259.52
575.74	45993.28
575.94	46273.85
576.14	46009.67
576.34	46400.83
576.54	46574.91
576.74	47033.65
576.94	46585.15
577.14	46822.71
577.34	47088.95
577.54	46675.26
577.74	46900.53
577.94	46818.61
578.14	46579.00
578.34	47134.00
578.54	46443.84
578.74	47220.02
578.94	47211.82
579.14	47000.88
579.34	47226.16
579.54	47340.85
579.74	47699.24
579.94	47480.11
580.13	47269.17
580.33	47535.40
580.53	47756.58
580.73	48100.64
580.93	47945.00
581.13	47516.97
581.33	48305.44
581.53	48233.76
581.73	48225.57
581.93	47961.38
582.13	48407.84
582.33	48426.27
582.53	48315.68
582.73	48280.86
582.92	48608.54
583.12	48755.99
583.32	48831.77
583.52	48514.33
583.72	48993.56
583.92	48538.91
584.12	48760.09
584.32	49067.28
584.52	49378.57
584.72	48680.22
584.92	49177.87
585.11	49677.58
585.31	49061.14
585.51	49300.75
585.71	48979.22
585.91	49593.61
586.11	49743.11
586.31	49593.61
586.51	49366.29
586.71	49534.22
586.91	49624.33
587.10	49642.76
587.30	49882.37
587.50	50261.25
587.70	50146.56
587.90	50029.83
588.10	50386.18
588.30	50240.77
588.50	50083.08
588.69	50226.43
588.89	50312.45
589.09	50435.33
589.29	50224.39
589.49	51025.14
589.69	50386.18
589.89	50322.69
590.08	50316.54
590.28	50676.99
590.48	50412.80
590.68	50404.61
590.88	50617.60
591.08	50758.91
591.28	50337.02
591.47	51410.16
591.67	51148.02
591.87	50885.88
592.07	50961.65
592.27	51131.64
592.47	51219.70
592.67	50824.44
592.86	51019.00
593.06	51430.64
593.26	51748.07
593.46	51285.23
593.66	51311.86
593.86	51838.18
594.05	51686.64
594.25	51520.75
594.45	51096.82
594.65	51690.73
594.85	51504.37
595.05	51688.68
595.24	52196.58
595.44	51733.74
595.64	52278.50
595.84	51492.08
596.04	51619.05
596.23	52057.32
596.43	52315.36
596.63	52036.84
596.83	51907.82
597.03	52391.14
597.22	52669.66
597.42	52264.16
597.62	51901.67
597.82	52444.38
598.02	52245.73
598.21	52696.28
598.41	52284.64
598.61	52466.91
598.81	52565.21
599.01	53001.43
599.20	52851.93
599.40	52745.44
599.60	53312.72
599.80	52794.59
600.00	52905.18
600.19	53341.39
600.39	52958.42
600.59	53425.36
600.79	53421.26
600.98	53081.30
601.18	53388.50
601.38	53282.00
601.58	53245.14
601.78	53505.23
601.97	53212.37
602.17	53982.41
602.37	53310.67
602.57	53114.07
602.76	53740.75
602.96	53331.15
603.16	53794.00
603.36	53783.76
603.55	54242.50
603.75	53882.06
603.95	54103.24
604.15	54355.14
604.34	53982.41
604.54	54291.65
604.74	53855.43
604.94	54248.64
605.13	54392.00
605.33	53527.76
605.53	53728.46
605.73	54170.82
605.92	54023.37
606.12	54850.75
606.32	54387.91
606.52	54500.54
606.71	54469.82
606.91	54572.22
607.11	53939.40
607.30	54672.57
607.50	54723.77
607.70	54805.69
607.90	54639.81
608.09	54334.66
608.29	54555.84
608.49	54359.23
608.68	54588.61
608.88	54539.46
609.08	54557.89
609.28	54903.99
609.47	54791.36
609.67	55016.63
609.87	54736.06
610.06	54916.28
610.26	54873.27
610.46	54955.19
610.66	54506.69
610.85	54588.61
611.05	55178.42
611.25	55059.64
611.44	54971.58
611.64	55139.51
611.84	54549.70
612.03	54815.93
612.23	54666.43
612.43	54887.61
612.62	54903.99
612.82	55291.06
613.02	54953.15
613.21	54985.91
613.41	55110.84
613.61	55035.06
613.80	54441.15
614.00	55334.07
614.20	54836.41
614.39	54914.23
614.59	55243.96
614.79	55059.64
614.98	54799.55
615.18	55305.40
615.38	54985.91
615.57	54744.25
615.77	55848.11
615.97	55088.31
616.16	55262.39
616.36	55090.36
616.56	54811.84
616.75	55006.39
616.95	54746.30
617.15	54539.46
617.34	54809.79
617.54	54621.37
617.74	55338.16
617.93	55186.61
618.13	55041.21
618.32	54740.16
618.52	54844.60
618.72	54871.23
618.91	54742.20
619.11	54680.77
619.31	55389.36
619.50	55102.65
619.70	54715.58
619.90	54940.86
620.09	55100.60
620.29	54535.36
620.48	54727.87
620.68	55028.92
620.88	54664.38
621.07	54899.90
621.27	54852.80
621.46	54645.95
621.66	55000.25
621.86	54752.44
622.05	54265.03
622.25	55178.42
622.44	55022.78
622.64	55151.80
622.84	54965.43
623.03	54744.25
623.23	54518.98
623.42	54840.51
623.62	55342.26
623.82	55276.72
624.01	55237.81
624.21	55223.48
624.40	54998.20
624.60	55039.16
624.80	55164.09
624.99	54768.83
625.19	54654.14
625.38	54801.60
625.58	55262.39
625.77	54973.63
625.97	54729.92
626.17	54787.26
626.36	54523.07
626.56	55014.58
626.75	54437.06
626.95	55418.03
627.14	54883.51
627.34	55575.73
627.54	54637.76
627.73	54801.60
627.93	55203.00
628.12	54805.69
628.32	55205.05
628.51	55205.05
628.71	55243.96
628.90	55178.42
629.10	54863.03
629.30	55254.20
629.49	55039.16
629.69	54875.32
629.88	54977.72
630.08	55110.84
630.27	55278.77
630.47	55399.60
630.66	54858.94
630.86	55354.55
631.05	54842.56
631.25	55407.79
631.44	55368.88
631.64	54686.91
631.84	55579.82
632.03	55850.16
632.23	55323.83
632.42	55602.35
632.62	55651.50
632.81	55467.19
633.01	55233.72
633.20	55309.49
633.40	55710.89
633.59	55706.80
633.79	55465.14
633.98	55669.93
634.18	55465.14
634.37	55336.12
634.57	55207.09
634.76	55502.00
634.96	55780.52
635.15	55860.40
635.35	55053.50
635.54	55284.92
635.74	55608.50
635.93	55678.13
636.13	55977.13
636.32	56079.53
636.52	55452.85
636.71	55694.51
636.91	55340.21
637.10	56210.60
637.30	55866.54
637.49	55835.82
637.69	55833.77
637.88	56595.62
638.08	55977.13
638.27	56337.57
638.46	55907.50
638.66	55737.52
638.85	55825.58
639.05	56151.21
639.24	56204.45
639.44	56026.28
639.63	55579.82
639.83	56480.93
640.02	56435.87
640.22	56186.02
640.41	56564.90
640.61	56063.14
640.80	55968.94
640.99	55940.27
641.19	56876.19
641.38	55940.27
641.58	56165.54
641.77	56380.58
641.97	56308.90
642.16	56503.46
642.36	57193.62
642.55	57423.00
642.74	56323.24
642.94	56835.23
643.13	56525.99
643.33	57226.39
643.52	56806.56
643.72	56722.59
643.91	56935.58
644.10	56784.03
644.30	56931.48
644.49	56542.37
644.69	56972.44
644.88	56865.95
645.08	56464.55
645.27	57011.35
645.46	56573.09
645.66	57226.39
645.85	56802.46
646.05	57089.18
646.24	56900.76
646.43	56990.87
646.63	57187.48
646.82	57115.80
647.02	56964.25
647.21	57412.76
647.40	56818.84
647.60	57836.69
647.79	57273.49
647.99	57695.38
648.18	56925.34
648.37	57633.94
648.57	57490.58
648.76	57545.87
648.96	57263.25
649.15	57341.08
649.34	57627.79
649.54	57332.89
649.73	57281.69
649.92	57439.38
650.12	57576.59
650.31	57752.72
650.51	57492.63
650.70	57982.09
650.89	57586.83
651.09	58135.69
651.28	57769.10
651.47	57635.98
651.67	57922.70
651.86	58137.74
652.06	57722.00
652.25	58193.03
652.44	57795.73
652.64	57642.13
652.83	57562.26
653.02	57625.74
653.22	57566.35
653.41	57324.69
653.60	57709.71
653.80	57302.17
653.99	57676.94
654.18	57812.11
654.38	57468.05
654.57	58043.53
654.76	58088.59
654.96	57648.27
655.15	57472.15
655.34	57752.72
655.54	57676.94
655.73	58377.35
655.92	58074.25
656.12	58219.66
656.31	58094.73
656.50	57760.91
656.70	58037.39
656.89	57691.28
657.08	57828.49
657.28	57709.71
657.47	57812.11
657.66	58160.26
657.86	57390.23
658.05	58090.63
658.24	58176.65
658.43	57625.74
658.63	58264.71
658.82	57760.91
659.01	58012.81
659.21	57859.21
659.40	57824.40
659.59	57574.55
659.79	57353.36
659.98	58233.99
660.17	58242.18
660.36	58289.29
660.56	58025.10
660.75	57797.77
660.94	57713.81
661.14	58092.68
661.33	57738.38
661.52	57543.83
661.71	58131.59
661.91	57423.00
662.10	57736.34
662.29	58739.84
662.49	58291.33
662.68	57713.81
662.87	57959.56
663.06	58059.91
663.26	58451.08
663.45	57910.41
663.64	57758.86
663.83	58021.00
664.03	58102.92
664.22	58037.39
664.41	57879.69
664.60	57644.18
664.80	57906.32
664.99	57750.67
665.18	57638.03
665.37	57799.82
665.57	57754.77
665.76	57715.86
665.95	58033.29
666.14	57773.20
666.34	57726.10
666.53	57500.82
666.72	57803.92
666.91	57822.35
667.11	57670.80
667.30	57822.35
667.49	57275.54
667.68	57312.41
667.87	57392.28
668.07	57615.50
668.26	57558.16
668.45	57365.65
668.64	57463.96
668.84	58274.95
669.03	58135.69
669.22	57435.28
669.41	57584.79
669.60	57185.43
669.80	57480.34
669.99	57545.87
670.18	57220.25
670.37	57697.42
670.57	57339.03
670.76	57304.21
670.95	57298.07
671.14	57242.77
671.33	57232.53
671.53	57824.40
671.72	57615.50
671.91	57435.28
672.10	57253.01
672.29	57017.50
672.48	57259.16
672.68	57447.57
672.87	57013.40
673.06	57410.71
673.25	56894.62
673.44	57027.74
673.64	56878.24
673.83	57271.45
674.02	57300.12
674.21	56792.22
674.40	57046.17
674.59	56573.09
674.79	56667.30
674.98	56949.92
675.17	56622.24
675.36	56614.05
675.55	56947.87
675.74	57011.35
675.94	57150.62
676.13	57244.82
676.32	56546.47
676.51	57134.23
676.70	57062.55
676.89	56587.42
677.08	56849.56
677.28	56614.05
677.47	57062.55
677.66	57201.82
677.85	56870.04
678.04	57009.31
678.23	57326.74
678.42	56650.91
678.62	56693.92
678.81	57142.42
679.00	56419.49
679.19	57248.92
679.38	56630.43
679.57	56677.54
679.76	56360.10
679.96	56599.71
680.15	56571.04
680.34	56411.30
680.53	56779.93
680.72	56702.11
680.91	56667.30
681.10	56210.60
681.29	56667.30
681.48	56147.11
681.68	56233.13
681.87	56130.73
682.06	56263.85
682.25	55940.27
682.44	55944.36
682.63	56542.37
682.82	55925.93
683.01	56059.05
683.20	55882.92
683.39	55801.00
683.59	55714.99
683.78	55930.03
683.97	56024.23
684.16	55831.72
684.35	55741.61
684.54	55905.45
684.73	56198.31
684.92	55981.23
685.11	55739.57
685.30	55762.09
685.49	56106.15
685.69	55833.77
685.88	56380.58
686.07	55528.62
686.26	55653.55
686.45	55823.53
686.64	55610.54
686.83	55669.93
687.02	55536.82
687.21	55708.85
687.40	55674.03
687.59	55692.46
687.78	55542.96
687.97	56067.24
688.16	55710.89
688.35	55399.60
688.54	55616.69
688.74	55612.59
688.93	55465.14
689.12	55786.67
689.31	55620.78
689.50	55495.86
689.69	55340.21
689.88	55395.51
690.07	55669.93
690.26	55061.69
690.45	55694.51
690.64	55153.85
690.83	55047.35
691.02	55018.68
691.21	55399.60
691.40	55037.11
691.59	55182.52
691.78	55076.02
691.97	55368.88
692.16	55432.37
692.35	55522.48
692.54	55325.88
692.73	55241.91
692.92	55041.21
693.11	55270.58
693.30	55276.72
693.49	55248.05
693.68	55137.46
693.87	55305.40
694.06	54858.94
694.25	54924.47
694.44	54912.19
694.63	54746.30
694.82	54957.24
695.01	54852.80
695.20	54973.63
695.39	54748.35
695.58	55123.13
695.77	55008.44
695.96	54768.83
696.15	54760.64
696.34	54887.61
696.53	55252.15
696.72	55057.59
696.91	54764.73
697.10	55424.18
697.29	54762.68
697.48	54793.40
697.67	54252.74
697.86	54555.84
698.05	54588.61
698.24	54699.20
698.43	54432.96
698.62	54858.94
698.81	54232.26
699.00	54916.28
699.19	54525.12
699.38	55094.46
699.57	54592.70
699.76	54781.12
699.95	54529.22
700.14	54588.61
700.32	54506.69
700.51	54604.99
700.70	54809.79
700.89	54809.79
701.08	54908.09
701.27	54219.97
701.46	54875.32
701.65	53906.63
701.84	54617.28
702.03	54670.53
702.22	54158.53
702.41	54203.59
702.60	54267.08
702.79	53869.77
702.98	53677.26
703.17	54371.52
703.35	54170.82
703.54	53794.00
703.73	54281.41
703.92	54142.15
704.11	54217.92
704.30	54023.37
704.49	53820.62
704.68	53923.02
704.87	54029.51
705.06	54166.73
705.25	53753.04
705.43	53828.81
705.62	53916.87
705.81	53929.16
706.00	53585.10
706.19	53515.47
706.38	53466.32
706.57	54009.03
706.76	53869.77
706.95	53482.70
707.14	53294.29
707.32	53802.19
707.51	53581.01
707.70	53689.55
707.89	53826.76
708.08	53458.13
708.27	53630.16
708.46	54152.39
708.65	53830.86
708.84	53920.97
709.02	53572.81
709.21	53583.05
709.40	53945.54
709.59	53820.62
709.78	53441.74
709.97	53712.08
710.16	53249.24
710.34	53349.59
710.53	53810.38
710.72	53161.17
710.91	54027.46
711.10	53664.97
711.29	53529.81
711.48	53732.56
711.66	53568.72
711.85	53662.93
712.04	53382.35
712.23	53163.22
712.42	53251.28
712.61	53454.03
712.80	53325.01
712.98	53581.01
713.17	52511.97
713.36	53404.88
713.55	53318.87
713.74	53222.61
713.93	53331.15
714.11	52960.47
714.30	53171.41
714.49	52927.70
714.68	53183.70
714.87	53372.11
715.06	53056.73
715.24	52917.46
715.43	52802.78
715.62	52710.62
715.81	52292.83
716.00	52950.23
716.18	52536.54
716.37	52733.15
716.56	52856.03
716.75	53040.34
716.94	52583.65
717.12	52135.14
717.31	52749.53
717.50	52542.69
717.69	52151.52
717.88	52364.51
718.06	52763.87
718.25	52395.23
718.44	52364.51
718.63	52131.04
718.82	52088.04
719.00	52403.42
719.19	52163.81
719.38	52208.87
719.57	51821.80
719.76	51934.44
719.94	51627.24
720.13	51666.16
720.32	51829.99
720.51	51633.39
720.69	51631.34
720.88	51772.65
721.07	51543.28
721.26	51033.33
721.44	51528.94
721.63	51512.56
721.82	51160.31
722.01	51492.08
722.20	51471.60
722.38	50885.88
722.57	51184.88
722.76	50984.18
722.95	51045.62
723.13	50912.50
723.32	50980.09
723.51	50519.29
723.70	50486.53
723.88	50779.39
724.07	50709.75
724.26	50781.43
724.44	50273.54
724.63	50611.45
724.82	50814.20
725.01	50818.30
725.19	50515.20
725.38	50062.60
725.57	50357.50
725.76	50386.18
725.94	49976.58
726.13	50550.01
726.32	50273.54
726.51	50027.78
726.69	50314.50
726.88	50287.87
727.07	50205.95
727.25	49947.91
727.44	50484.48
727.63	50072.84
727.82	50259.20
728.00	50187.52
728.19	49558.80
728.38	50259.20
728.56	49741.06
728.75	50230.53
728.94	49784.07
729.12	50158.85
729.31	49927.43
729.50	49943.81
729.69	49878.28
729.87	49814.79
730.06	49454.35
730.25	49919.24
730.43	50042.12
730.62	49503.50
730.81	49644.81
730.99	50062.60
731.18	49952.01
731.37	50033.92
731.55	49810.70
731.74	49931.53
731.93	49853.70
732.11	49788.17
732.30	50056.45
732.49	49665.29
732.67	49575.18
732.86	49632.52
733.05	49859.85
733.23	48813.34
733.42	49517.84
733.61	49523.98
733.79	49610.00
733.98	49685.77
734.17	49093.91
734.35	49530.12
734.54	49517.84
734.73	49767.69
734.91	49370.38
735.10	49161.49
735.29	49747.21
735.47	49157.39
735.66	49386.77
735.84	49513.74
736.03	49083.67
736.22	49906.95
736.40	49360.14
736.59	49419.53
736.78	48780.57
736.96	48735.51
737.15	48735.51
737.33	48966.93
737.52	48133.41
737.71	48600.35
737.89	48573.72
738.08	48223.52
738.27	48119.07
738.45	48856.34
738.64	48420.13
738.82	48790.81
739.01	48678.17
739.20	48616.73
739.38	48543.00
739.57	48880.92
739.75	48665.88
739.94	48108.83
740.13	48487.71
740.31	48438.56
740.50	48262.43
740.68	48416.03
740.87	48215.33
741.06	48467.23
741.24	47910.18
741.43	47867.17
741.61	48188.70
741.80	47691.05
741.99	47648.04
742.17	47777.06
742.36	48026.92
742.54	47633.71
742.73	47914.28
742.91	48026.92
743.10	47334.70
743.29	47961.38
743.47	47924.52
743.66	47502.64
743.84	47334.70
744.03	47865.13
744.21	47476.01
744.40	47658.28
744.59	47551.79
744.77	47150.38
744.96	47547.69
745.14	47373.61
745.33	47469.87
745.51	47566.12
745.70	47791.40
745.88	47344.94
746.07	47047.99
746.26	46986.55
746.44	47050.03
746.63	46863.67
746.81	46961.97
747.00	46648.63
747.18	46855.48
747.37	47060.27
747.55	46820.66
747.74	47584.55
747.92	46734.65
748.11	46687.54
748.29	46734.65
748.48	46738.74
748.66	46294.33
748.85	46484.79
749.03	46236.99
749.22	46757.17
749.41	46218.56
749.59	46257.47
749.78	46110.02
749.96	45759.81
750.15	46134.59
750.33	46247.23
750.52	46124.35
750.70	46323.01
750.89	45317.45
751.07	45876.55
751.26	46007.62
751.44	45725.00
751.63	45708.61
751.81	45354.32
752.00	45385.04
752.18	45987.14
752.37	45860.16
752.55	45565.26
752.74	45399.37
752.92	45411.66
753.10	45241.68
753.29	44944.72
753.47	45274.45
753.66	44928.34
753.84	45655.37
754.03	45034.83
754.21	44840.28
754.40	45358.41
754.58	45104.46
754.77	45421.90
754.95	44434.78
755.14	44580.18
755.32	44680.53
755.51	44510.55
755.69	44713.30
755.88	44840.28
756.06	44559.70
756.24	44596.57
756.43	45022.54
756.61	44543.32
756.80	44684.63
756.98	44383.58
757.17	44477.79
757.35	44406.11
757.54	44119.39
757.72	44369.24
757.90	44291.42
758.09	44215.65
758.27	44393.82
758.46	44107.10
758.64	44156.25
758.83	44569.94
759.01	44406.11
759.19	44080.48
759.38	44098.91
759.56	44119.39
759.75	43787.62
759.93	43928.93
760.12	43656.55
760.30	43773.28
760.48	43822.44
760.67	44103.01
760.85	43623.78
761.04	43748.71
761.22	43855.20
761.40	43445.61
761.59	43109.74
761.77	43322.73
761.96	43574.63
762.14	43564.39
762.32	43337.07
762.51	43443.56
762.69	43228.52
762.88	43222.38
763.06	43132.27
763.24	43072.88
763.43	43257.20
763.61	43218.28
763.80	43023.73
763.98	43056.50
764.16	43038.06
764.35	42745.20
764.53	42714.48
764.72	42710.39
764.90	42792.31
765.08	42528.12
765.27	42767.73
765.45	42655.09
765.63	42237.31
765.82	42769.78
766.00	42481.02
766.18	42179.96
766.37	42904.95
766.55	42497.40
766.74	41950.59
766.92	42227.07
767.10	42292.60
767.29	42278.27
767.47	41770.37
767.65	42063.23
767.84	42212.73
768.02	42081.66
768.20	41700.74
768.39	41776.51
768.57	41962.88
768.75	42292.60
768.94	41760.13
769.12	41577.86
769.30	41721.22
769.49	41782.66
769.67	41633.16
769.85	40994.19
770.04	41219.47
770.22	41323.91
770.40	41426.31
770.59	41155.98
770.77	41444.74
770.95	41315.72
771.14	41160.08
771.32	40992.14
771.50	40480.15
771.69	40863.12
771.87	41336.20
772.05	41239.95
772.24	40904.08
772.42	40824.21
772.60	40793.49
772.78	40924.56
772.97	40232.35
773.15	40818.07
773.33	40648.08
773.52	40539.54
773.70	40826.26
773.88	41059.73
774.07	40818.07
774.25	40605.08
774.43	41196.94
774.61	40881.55
774.80	41024.91
774.98	40621.46
775.16	40830.35
775.34	41078.16
775.53	40517.01
775.71	41069.97
775.89	40562.07
776.08	41031.05
776.26	40838.54
776.44	40787.35
776.62	40852.88
776.81	40646.04
776.99	40904.08
777.17	40799.63
777.35	40791.44
777.54	41072.01
777.72	40842.64
777.90	41403.78
778.08	41383.30
778.27	40988.05
778.45	41465.22
778.63	41278.86
778.81	41117.07
779.00	41653.64
779.18	41045.39
779.36	41600.39
779.54	41258.38
779.73	41313.67
779.91	41493.89
780.09	41110.92
780.27	41917.82
780.46	41883.01
780.64	41782.66
780.82	41082.25
781.00	41293.19
781.19	41776.51
781.37	41940.35
781.55	41989.50
781.73	42102.14
781.91	41964.93
782.10	41907.58
782.28	41971.07
782.46	42096.00
782.64	42034.56
782.82	41686.40
783.01	41969.02
783.19	42030.46
783.37	42055.04
783.55	41776.51
783.74	42499.45
783.92	41807.23
784.10	42540.41
784.28	41917.82
784.46	42128.77
784.64	41774.47
784.83	42323.32
785.01	42251.64
785.19	42247.55
785.37	42276.22
785.55	41981.31
785.74	41844.10
785.92	42055.04
786.10	41805.19
786.28	41694.60
786.46	41641.35
786.64	41426.31
786.83	41903.49
787.01	41981.31
787.19	41997.70
787.37	42036.61
787.55	41688.45
787.74	41923.97
787.92	42085.76
788.10	41489.80
788.28	40953.23
788.46	41751.94
788.64	41428.36
788.82	41850.24
789.01	41633.16
789.19	41639.30
789.37	41549.19
789.55	41614.72
789.73	41315.72
789.91	41029.01
790.09	41526.66
790.28	40895.89
790.46	40781.20
790.64	41518.47
790.82	40945.04
791.00	41080.21
791.18	40629.65
791.36	40840.59
791.55	40854.93
791.73	40848.78
791.91	40353.18
792.09	40889.74
792.27	40650.13
792.45	40408.47
792.63	40314.26
792.81	40244.63
793.00	40418.71
793.18	40125.85
793.36	40111.52
793.54	40170.91
793.72	39941.53
793.90	40060.32
794.08	39656.87
794.26	40148.38
794.44	39677.35
794.62	39890.34
794.81	39744.93
794.99	39247.27
795.17	39368.10
795.35	39282.09
795.53	39660.96
795.71	39714.21
795.89	39499.17
796.07	39282.09
796.25	39030.19
796.43	39157.16
796.61	38745.52
796.80	38688.18
796.98	38778.29
797.16	38684.08
797.34	38518.20
797.52	38722.99
797.70	38622.64
797.88	38692.27
798.06	38360.50
798.24	38639.03
798.42	38196.67
798.60	37840.32
798.78	37922.24
798.96	38454.71
799.14	37502.40
799.32	38120.89
799.51	37803.46
799.69	38106.55
799.87	37801.41
800.05	37234.12
800.23	37256.65
800.41	36912.59
800.59	37582.27
800.77	37268.94
800.95	37172.68
801.13	37230.02
801.31	37051.85
801.49	37422.53
801.67	36785.61
801.85	36609.49
802.03	36613.59
802.21	36482.52
802.39	36447.70
802.57	36748.75
802.75	36486.61
802.93	36048.35
803.11	36257.24
803.29	36527.57
803.47	35904.99
803.65	36333.01
803.83	35972.57
804.01	35876.32
804.19	35546.59
804.37	35741.15
804.55	35511.78
804.73	35595.74
804.91	35446.24
805.09	35702.24
805.27	35550.69
805.45	35454.44
805.63	35243.49
805.81	35509.73
805.99	35436.00
806.17	35479.01
806.35	35651.04
806.53	34913.77
806.71	34973.16
806.89	34844.14
807.07	34911.72
807.25	34940.39
807.43	34688.49
807.61	35020.27
807.79	34612.72
807.97	34424.31
808.15	34350.58
808.33	34321.91
808.51	34158.07
808.69	34137.59
808.87	33928.70
809.05	33730.05
809.23	33764.86
809.41	33689.09
809.59	33496.58
809.77	33906.17
809.95	33388.03
810.13	34031.10
810.31	33670.65
810.49	33463.81
810.67	33648.13
810.84	33633.79
811.02	33283.59
811.20	33455.62
811.38	33105.41
811.56	33150.47
811.74	33119.75
811.92	32884.23
812.10	32613.90
812.28	32994.82
812.46	33121.80
812.64	32830.99
812.82	32902.67
813.00	32894.47
813.18	32781.84
813.36	32785.93
813.53	32235.03
813.71	32409.11
813.89	32220.69
814.07	32548.37
814.25	32486.93
814.43	32208.40
814.61	32151.06
814.79	32335.38
814.97	31694.36
815.15	32108.05
815.33	31598.11
815.50	31768.09
815.68	31899.16
815.86	31993.37
816.04	31854.11
816.22	31673.88
816.40	31540.77
816.58	31956.50
816.76	31389.22
816.94	31700.51
817.11	31194.66
817.29	31344.16
817.47	31245.86
817.65	31239.72
817.83	31297.06
818.01	31057.45
818.19	31036.97
818.37	30991.91
818.54	30950.95
818.72	30668.33
818.90	30707.24
819.08	30721.58
819.26	30463.54
819.44	30551.60
819.62	30856.75
819.80	30385.71
819.97	30709.29
820.15	30463.54
820.33	30154.29
820.51	30332.47
820.69	30072.37
820.87	30307.89
821.05	30365.23
821.22	30185.01
821.40	30049.85
821.58	29910.58
821.76	30088.76
821.94	30000.69
822.12	29980.21
822.29	30182.96
822.47	29877.82
822.65	30023.22
822.83	29845.05
823.01	29875.77
823.19	30027.32
823.36	29556.28
823.54	29333.06
823.72	29574.72
823.90	29134.40
824.08	29259.33
824.25	29365.82
824.43	28982.85
824.61	29130.31
824.79	29447.74
824.97	29222.47
825.15	29013.57
825.32	29077.06
825.50	28966.47
825.68	28831.30
825.86	29089.35
826.04	28982.85
826.21	28823.11
826.39	28862.02
826.57	28550.73
826.75	28231.25
826.93	28638.80
827.10	28780.10
827.28	28466.77
827.46	28474.96
827.64	28503.63
827.81	28266.06
827.99	28126.80
828.17	27979.35
828.35	28464.72
828.53	28005.97
828.70	28122.71
828.88	28198.48
829.06	28024.40
829.24	28221.01
829.41	27795.03
829.59	28038.74
829.77	27975.25
829.95	27915.86
830.12	27592.28
830.30	27639.39
830.48	27696.73
830.66	27645.53
830.84	27758.17
831.01	27661.91
831.19	27639.39
831.37	27614.81
831.55	27268.70
831.72	27448.93
831.90	27356.77
832.08	27483.74
832.25	27424.35
832.43	27373.15
832.61	26979.94
832.79	26975.84
832.96	26920.55
833.14	26834.53
833.32	27086.43
833.50	27237.98
833.67	27037.28
833.85	27141.73
834.03	26599.02
834.20	26883.69
834.38	26916.45
834.56	27125.35
834.74	26607.21
834.91	26566.25
835.09	26498.67
835.27	26359.41
835.44	26297.97
835.62	26181.23
835.80	26117.75
835.98	26609.26
836.15	26484.33
836.33	26127.99
836.51	26359.41
836.68	26189.42
836.86	26310.25
837.04	26263.15
837.21	26386.03
837.39	25955.96
837.57	26373.74
837.75	26287.73
837.92	26021.49
838.10	25564.79
838.28	25396.86
838.45	25796.21
838.63	25945.72
838.81	25599.61
838.98	25566.84
839.16	25640.57
839.34	25792.12
839.51	25507.45
839.69	25253.50
839.87	25499.26
840.04	25562.75
840.22	25384.57
840.40	25515.64
840.57	25269.89
840.75	25300.61
840.93	25159.30
841.10	25384.57
841.28	25294.46
841.46	25290.37
841.63	25448.06
841.81	25218.69
841.98	25226.88
842.16	25208.45
842.34	25060.99
842.51	25106.05
842.69	25013.89
842.87	24735.37
843.04	25077.38
843.22	24825.48
843.40	24948.36
843.57	24753.80
843.75	24876.68
843.92	24739.46
844.10	24600.20
844.28	24938.12
844.45	24852.10
844.63	24626.82
844.81	24809.09
844.98	24702.60
845.16	24309.39
845.33	24366.73
845.51	24286.86
845.69	24194.70
845.86	23844.50
846.04	23891.60
846.21	24213.13
846.39	24143.50
846.57	24137.36
846.74	24190.61
846.92	24000.15
847.09	24172.18
847.27	23975.57
847.45	24178.32
847.62	23918.23
847.80	23740.05
847.97	23930.51
848.15	23864.98
848.32	23584.41
848.50	23707.29
848.68	23359.13
848.85	23522.97
849.03	23531.16
849.20	23586.46
849.38	23420.57
849.56	23361.18
849.73	23350.94
849.91	23598.74
850.08	23647.90
850.26	23273.12
850.43	23402.14
850.61	23389.85
850.78	22863.52
850.96	23058.08
851.14	22982.31
851.31	23365.28
851.49	22998.69
851.66	22967.97
851.84	23162.53
852.01	23199.39
852.19	22986.40
852.36	22957.73
852.54	22865.57
852.71	23056.03
852.89	22912.67
853.07	23256.73
853.24	22916.77
853.42	23203.49
853.59	22728.36
853.77	23035.55
853.94	23205.53
854.12	22566.57
854.29	22585.00
854.47	22478.50
854.64	22722.21
854.82	22552.23
854.99	22478.50
855.17	22443.69
855.34	22699.69
855.52	22339.24
855.69	22552.23
855.87	22433.45
856.04	22204.08
856.22	22329.00
856.39	22308.52
856.57	22202.03
856.74	22048.43
856.92	22013.62
857.09	21786.29
857.27	22267.56
857.44	22136.49
857.62	21796.53
857.79	21702.32
857.97	22126.25
858.14	22044.34
858.32	21823.16
858.49	21933.75
858.67	21986.99
858.84	21665.46
859.02	21808.82
859.19	21804.72
859.37	21827.25
859.54	21505.72
859.72	21657.27
859.89	21667.51
860.06	21782.20
860.24	21550.78
860.41	21720.76
860.59	21442.23
860.76	21591.73
860.94	21249.72
861.11	21579.45
861.29	21442.23
861.46	21237.44
861.64	20987.58
861.81	21231.29
861.98	21339.83
862.16	21200.57
862.33	21253.82
862.51	21178.04
862.68	21194.43
862.86	20993.73
863.03	21180.09
863.21	21067.45
863.38	21124.80
863.55	21210.81
863.73	20926.14
863.90	21032.64
864.08	21012.16
864.25	20971.20
864.43	20915.90
864.60	20575.94
864.77	20610.76
864.95	20436.68
865.12	20381.38
865.30	20688.58
865.47	20797.12
865.64	20555.46
865.82	20559.56
865.99	20747.97
866.17	20608.71
866.34	20541.13
866.51	20231.88
866.69	20592.33
866.86	20651.72
867.04	20555.46
867.21	20457.16
867.38	20287.18
867.56	20197.07
867.73	20094.67
867.91	19961.55
868.08	20313.80
868.25	20063.95
868.43	19996.37
868.60	19848.91
868.78	19939.02
868.95	20119.24
869.12	20051.66
869.30	19777.23
869.47	20078.29
869.64	19766.99
869.82	19779.28
869.99	19693.27
870.16	19857.10
870.34	19756.75
870.51	19861.20
870.69	19683.03
870.86	19605.20
871.03	19625.68
871.21	19695.32
871.38	19885.78
871.55	19429.08
871.73	19693.27
871.90	19390.17
872.07	19304.15
872.25	19470.04
872.42	19187.42
872.59	19074.78
872.77	19195.61
872.94	19414.74
873.11	19207.90
873.29	19455.70
873.46	18958.05
873.63	19009.25
873.81	19166.94
873.98	18978.53
874.15	18845.41
874.33	18738.91
874.50	19005.15
874.67	18714.34
874.85	18700.00
875.02	18806.50
875.19	18652.90
875.37	18427.62
875.54	18427.62
875.71	18704.10
875.88	18628.32
876.06	18568.93
876.23	18476.77
876.40	18155.24
876.58	18388.71
876.75	18476.77
876.92	18366.18
877.10	18294.50
877.27	18632.42
877.44	18325.22
877.61	18110.19
877.79	18052.84
877.96	18122.48
878.13	18001.65
878.31	17921.77
878.48	17786.61
878.65	17848.05
878.82	17968.88
879.00	17989.36
879.17	17913.58
879.34	17856.24
879.51	17876.72
879.69	17657.59
879.86	17630.96
880.03	17542.90
880.21	17622.77
880.38	17780.46
880.55	17575.67
880.72	17731.31
880.90	17565.43
881.07	17323.77
881.24	17661.68
881.41	17471.22
881.59	17495.80
881.76	17436.41
881.93	17295.10
882.10	17364.73
882.28	17301.24
882.45	17268.47
882.62	16957.18
882.79	17448.69
882.96	17157.88
883.14	17133.31
883.31	17260.28
883.48	17280.76
883.65	17198.84
883.83	16971.52
884.00	17379.06
884.17	16858.88
884.34	17293.05
884.51	17211.13
884.69	17139.45
884.86	17204.99
885.03	17131.26
885.20	16918.27
885.38	17141.50
885.55	17004.28
885.72	17014.52
885.89	16908.03
886.06	16959.23
886.24	16723.71
886.41	16994.04
886.58	17123.07
886.75	17139.45
886.92	16748.29
887.10	16905.98
887.27	16699.14
887.44	16654.08
887.61	16903.93
887.78	16992.00
887.95	16940.80
888.13	16703.23
888.30	16670.47
888.47	16578.31
888.64	16672.51
888.81	16539.40
888.99	16453.38
889.16	16326.41
889.33	16254.73
889.50	16666.37
889.67	16449.28
889.84	16615.17
890.01	16389.89
890.19	16350.98
890.36	16322.31
890.53	16342.79
890.70	16387.85
890.87	16232.20
891.04	16035.60
891.22	16307.98
891.39	16324.36
891.56	15986.44
891.73	15914.77
891.90	15900.43
892.07	16045.84
892.24	16340.74
892.42	15984.40
892.59	15892.24
892.76	15695.63
892.93	15863.57
893.10	16107.27
893.27	16066.31
893.44	15638.29
893.61	16045.84
893.79	16033.55
893.96	15922.96
894.13	15838.99
894.30	15628.05
894.47	15947.53
894.64	15965.96
894.81	15994.64
894.98	15802.13
895.15	15935.24
895.33	15707.92
895.50	15904.53
895.67	16006.92
895.84	15718.16
896.01	16076.55
896.18	15589.14
896.35	15843.09
896.52	15456.02
896.69	15552.27
896.86	15843.09
897.04	15626.00
897.21	15552.27
897.38	15453.97
897.55	15814.41
897.72	15666.96
897.89	15576.85
898.06	15935.24
898.23	15730.45
898.40	15679.25
898.57	15791.89
898.74	15832.85
898.91	15564.56
899.08	15548.18
899.26	15836.94
899.43	15675.15
899.60	15642.39
899.77	15406.87
899.94	15793.94
900.11	15253.27
900.28	15712.02
900.45	15451.92
900.62	15636.24
900.79	15582.99
900.96	15699.73
901.13	15759.12
901.30	15449.88
901.47	15277.85
901.64	15511.32
901.81	15636.24
901.98	15537.94
902.15	15863.57
902.32	15320.85
902.49	15640.34
902.66	15812.37
902.83	15836.94
903.01	15582.99
903.18	15628.05
903.35	15372.05
903.52	15437.59
903.69	15742.74
903.86	15771.41
904.03	15576.85
904.20	15554.32
904.37	15976.20
904.54	15402.77
904.71	15347.48
904.88	15714.06
905.05	15413.01
905.22	15562.51
905.39	15372.05
905.56	15582.99
905.73	15382.29
905.90	15511.32
906.07	15488.79
906.24	15574.80
906.41	15535.89
906.58	15638.29
906.75	15623.95
906.92	15417.11
907.09	15525.65
907.26	15615.76
907.43	15273.75
907.60	15374.10
907.77	15593.23
907.93	15755.02
908.10	15376.15
908.27	15822.61
908.44	15388.44
908.61	15505.17
908.78	15537.94
908.95	15544.08
909.12	15470.36
909.29	15347.48
909.46	15732.50
909.63	15537.94
909.80	15587.09
909.97	15550.23
910.14	15435.54
910.31	15589.14
910.48	15224.60
910.65	15232.79
910.82	15197.98
910.99	15423.25
911.16	15271.70
911.33	15419.16
911.50	15290.13
911.66	15159.06
911.83	15431.44
912.00	15007.52
912.17	15023.90
912.34	15036.19
912.51	15105.82
912.68	15126.30
912.85	15040.28
913.02	15105.82
913.19	14997.28
913.36	14911.26
913.53	15247.13
913.70	14855.97
913.86	15077.15
914.03	14839.58
914.20	14903.07
914.37	14872.35
914.54	15101.72
914.71	14952.22
914.88	15062.81
915.05	14872.35
915.22	14583.59
915.39	14913.31
915.55	14690.08
915.72	14581.54
915.89	14577.44
916.06	14556.96
916.23	14421.80
916.40	14350.12
916.57	14499.62
916.74	14608.16
916.91	14522.15
917.07	14487.33
917.24	14313.25
917.41	14098.22
917.58	14161.70
917.75	14219.05
917.92	14155.56
918.09	14026.54
918.26	14231.33
918.42	13973.29
918.59	13983.53
918.76	13971.24
918.93	13942.57
919.10	14038.83
919.27	13911.85
919.44	13979.43
919.60	14018.35
919.77	13928.24
919.94	13745.97
920.11	13625.14
920.28	13725.49
920.45	13680.43
920.61	13606.70
920.78	13444.91
920.95	13369.14
921.12	13549.36
921.29	13260.60
921.46	13313.84
921.62	13174.58
921.79	13317.94
921.96	13131.58
922.13	13063.99
922.30	13043.51
922.47	13180.73
922.63	13098.81
922.80	13057.85
922.97	13076.28
923.14	12867.39
923.31	12885.82
923.47	12603.20
923.64	12963.64
923.81	12662.59
923.98	12539.71
924.15	12625.73
924.32	12631.87
924.48	12619.58
924.65	12721.98
924.82	12392.26
924.99	12199.75
925.15	12269.38
925.32	12506.95
925.49	12101.45
925.66	12355.40
925.83	11972.43
925.99	12130.12
926.16	12271.43
926.33	12164.93
926.50	11702.09
926.67	12001.10
926.83	11900.75
927.00	11800.40
927.17	11667.28
927.34	11552.59
927.50	11691.85
927.67	11679.57
927.84	11636.56
928.01	11628.37
928.17	11364.18
928.34	11509.58
928.51	11503.44
928.68	11550.54
928.84	11333.46
929.01	11241.30
929.18	11204.44
929.35	11030.36
929.51	11224.92
929.68	10897.24
929.85	10833.75
930.02	10907.48
930.18	11099.99
930.35	10833.75
930.52	10948.44
930.69	10942.30
930.85	10981.21
931.02	10588.00
931.19	10731.36
931.36	10665.82
931.52	10542.94
931.69	10622.81
931.86	10551.14
932.02	10479.46
932.19	10526.56
932.36	10301.28
932.53	10268.52
932.69	9998.18
932.86	10389.35
933.03	10125.16
933.19	10137.45
933.36	9955.18
933.53	10119.01
933.70	9854.83
933.86	10014.57
934.03	9916.26
934.20	9707.37
934.36	9799.53
934.53	9588.59
934.70	9404.27
934.86	9490.29
935.03	9518.96
935.20	9273.20
935.36	9355.12
935.53	9070.45
935.70	9293.68
935.86	9088.89
936.03	8988.53
936.20	9037.69
936.36	8724.35
936.53	8781.69
936.70	8826.75
936.86	8818.55
937.03	8630.14
937.20	8529.79
937.36	8384.38
937.53	8159.11
937.70	8191.88
937.86	8128.39
938.03	8165.25
938.20	8281.99
938.36	7980.93
938.53	7911.30
938.70	7536.52
938.86	7806.86
939.03	7597.96
939.20	7430.03
939.36	7522.19
939.53	7329.68
939.70	7540.62
939.86	7073.68
940.03	7094.16
940.19	7114.64
940.36	7055.25
940.53	6856.60
940.69	6840.22
940.86	6817.69
941.03	6594.46
941.19	6563.74
941.36	6684.57
941.52	6576.03
941.69	6217.63
941.86	6442.91
942.02	6250.40
942.19	6332.32
942.35	6360.99
942.52	6174.63
942.69	6172.58
942.85	6027.17
943.02	6070.18
943.18	6055.84
943.35	6008.74
943.52	5902.25
943.68	5943.21
943.85	5777.32
944.01	5681.07
944.18	5816.23
944.35	5785.51
944.51	5476.27
944.68	5443.50
944.84	5652.39
945.01	5648.30
945.17	5664.68
945.34	5545.90
945.51	5672.87
945.67	5568.43
945.84	5654.44
946.00	5382.06
946.17	5562.28
946.33	5439.40
946.50	5597.10
946.67	5590.95
946.83	5377.97
947.00	5517.23
947.16	5355.44
947.33	5562.28
947.49	5431.21
947.66	5222.32
947.82	5644.20
947.99	5377.97
948.16	5437.36
948.32	5310.38
948.49	5488.56
948.65	5500.84
948.82	5447.60
948.98	5443.50
949.15	5410.73
949.31	5406.64
949.48	5316.53
949.64	5369.77
949.81	5433.26
949.97	5492.65
950.14	5406.64
950.30	5375.92
950.47	5590.95
950.63	5351.34
950.80	5445.55
950.96	5400.49
951.13	5365.68
951.30	5488.56
951.46	5599.15
951.63	5672.87
951.79	5537.71
951.96	5519.28
952.12	5463.98
952.29	5459.88
952.45	5322.67
952.62	5474.22
952.78	5423.02
952.94	5435.31
953.11	5375.92
953.27	5433.26
953.44	5574.57
953.60	5443.50
953.77	5554.09
953.93	5582.76
954.10	5449.64
954.26	5582.76
954.43	5539.76
954.59	5658.54
954.76	5636.01
954.92	5441.45
955.09	5523.37
955.25	5482.41
955.42	5427.12
955.58	5550.00
955.75	5488.56
955.91	5451.69
956.07	5504.94
956.24	5570.48
956.40	5588.91
956.57	5613.48
956.73	5611.43
956.90	5629.87
957.06	5554.09
957.23	5588.91
957.39	5386.16
957.56	5468.08
957.72	5502.89
957.88	5523.37
958.05	5691.31
958.21	5615.53
958.38	5711.78
958.54	5590.95
958.71	5703.59
958.87	5564.33
959.03	5539.76
959.20	5509.04
959.36	5531.56
959.53	5515.18
959.69	5431.21
959.85	5504.94
960.02	5470.12
960.18	5496.75
960.35	5453.74
960.51	5691.31
960.68	5482.41
960.84	5531.56
961.00	5502.89
961.17	5562.28
961.33	5418.93
961.50	5476.27
961.66	5461.93
961.82	5554.09
961.99	5470.12
962.15	5496.75
962.31	5334.96
962.48	5457.84
962.64	5566.38
962.81	5562.28
962.97	5353.39
963.13	5527.47
963.30	5459.88
963.46	5232.56
963.62	5529.52
963.79	5562.28
963.95	5453.74
964.12	5461.93
964.28	5490.60
964.44	5298.10
964.61	5482.41
964.77	5582.76
964.93	5402.54
965.10	5394.35
965.26	5287.86
965.42	5230.51
965.59	5408.69
965.75	5259.18
965.92	5410.73
966.08	5220.27
966.24	5140.40
966.41	5277.62
966.57	5343.15
966.73	5230.51
966.90	5330.86
967.06	5134.26
967.22	5326.77
967.39	5250.99
967.55	5212.08
967.71	5160.88
967.88	5230.51
968.04	5187.50
968.20	5070.77
968.37	5128.11
968.53	5193.65
968.69	5191.60
968.85	5189.55
969.02	5224.37
969.18	5148.59
969.34	5214.13
969.51	5136.31
969.67	5341.10
969.83	5035.96
970.00	5164.98
970.16	5148.59
970.32	5179.31
970.48	5175.22
970.65	4949.94
970.81	4990.90
970.97	4995.00
971.14	4970.42
971.30	4992.95
971.46	4995.00
971.63	4937.65
971.79	5158.83
971.95	4980.66
972.11	4976.56
972.28	4876.21
972.44	5072.82
972.60	4822.97
972.76	4820.92
972.93	4825.01
973.09	4960.18
973.25	5007.28
973.42	4933.56
973.58	4954.04
973.74	5091.25
973.90	4890.55
974.07	4825.01
974.23	4904.89
974.39	4966.32
974.55	4845.49
974.72	4804.53
974.88	4755.38
975.04	4777.91
975.20	4736.95
975.37	4822.97
975.53	4716.47
975.69	4745.14
975.85	4779.96
976.01	4722.62
976.18	4648.89
976.34	4755.38
976.50	4870.07
976.66	4812.73
976.83	4612.03
976.99	4599.74
977.15	4591.55
977.31	4597.69
977.47	4812.73
977.64	4704.18
977.80	4591.55
977.96	4562.87
978.12	4519.87
978.29	4491.20
978.45	4640.70
978.61	4521.92
978.77	4605.88
978.93	4499.39
979.10	4493.24
979.26	4483.00
979.42	4581.31
979.58	4440.00
979.74	4409.28
979.91	4444.09
980.07	4435.90
980.23	4452.28
980.39	4360.13
980.55	4413.37
980.71	4394.94
980.88	4433.85
981.04	4390.84
981.20	4296.64
981.36	4351.93
981.52	4530.11
981.68	4345.79
981.85	4394.94
982.01	4370.37
982.17	4255.68
982.33	4245.44
982.49	4480.96
982.65	4290.49
982.82	4403.13
982.98	4317.12
983.14	4345.79
983.30	4300.73
983.46	4343.74
983.62	4253.63
983.79	4192.19
983.95	4120.51
984.11	4192.19
984.27	4083.65
984.43	4198.34
984.59	4222.91
984.75	4190.14
984.91	4179.90
985.08	4212.67
985.24	4171.71
985.40	4120.51
985.56	4175.81
985.72	4216.77
985.88	4046.79
986.04	4026.31
986.20	4042.69
986.37	4040.64
986.53	4024.26
986.69	4132.80
986.85	3934.15
987.01	3950.53
987.17	4050.88
987.33	3882.95
987.49	3870.66
987.65	4009.92
987.82	3934.15
987.98	3868.61
988.14	4042.69
988.30	3903.43
988.46	3876.80
988.62	3850.18
988.78	3899.33
988.94	3821.51
989.10	3764.17
989.26	3731.40
989.42	3880.90
989.59	3745.73
989.75	3747.78
989.91	3868.61
990.07	3633.10
990.23	3725.26
990.39	3766.21
990.55	3858.37
990.71	3684.30
990.87	3868.61
991.03	3827.65
991.19	3606.47
991.35	3739.59
991.51	3829.70
991.67	3766.21
991.83	3852.23
992.00	3620.81
992.16	3762.12
992.32	3633.10
992.48	3715.02
992.64	3526.60
992.80	3686.34
992.96	3647.43
993.12	3657.67
993.28	3653.58
993.44	3557.32
993.60	3624.90
993.76	3545.03
993.92	3588.04
994.08	3674.06
994.24	3581.90
994.40	3596.23
994.56	3528.65
994.72	3516.36
994.88	3530.70
995.04	3493.83
995.20	3483.59
995.36	3485.64
995.52	3422.16
995.68	3366.86
995.84	3444.68
996.00	3506.12
996.16	3344.33
996.32	3250.13
996.48	3413.96
996.64	3518.41
996.80	3346.38
996.96	3346.38
997.12	3430.35
997.28	3356.62
997.44	3344.33
997.60	3327.95
997.76	3373.00
997.92	3444.68
998.08	3350.48
998.24	3237.84
998.40	3346.38
998.56	3354.57
998.72	3172.30
998.88	3166.16
999.04	3315.66
999.20	3301.33
999.36	3211.22
999.52	3387.34
999.68	3184.59
999.84	3211.22
1000.00	3291.09
1000.16	3256.27
1000.32	3127.25
1000.48	3170.26
1000.64	3117.01
1000.80	3098.58
1000.95	3014.61
1001.11	3178.45
1001.27	3112.91
1001.43	3117.01
1001.59	3061.71
1001.75	2977.75
1001.91	3065.81
1002.07	2934.74
1002.23	2981.84
1002.39	2920.40
1002.55	3016.66
1002.71	3033.04
1002.87	3033.04
1003.03	2924.50
1003.19	2944.98
1003.34	3065.81
1003.50	3012.56
1003.66	3084.24
1003.82	2893.78
1003.98	3035.09
1004.14	3051.47
1004.30	2949.08
1004.46	2727.89
1004.62	2922.45
1004.78	2824.15
1004.94	2748.37
1005.09	2871.25
1005.25	2893.78
1005.41	2873.30
1005.57	2863.06
1005.73	2789.33
1005.89	2865.11
1006.05	2856.92
1006.21	2770.90
1006.37	2650.07
1006.52	2762.71
1006.68	2727.89
1006.84	2791.38
1007.00	2621.40
1007.16	2858.96
1007.32	2633.69
1007.48	2643.93
1007.64	2680.79
1007.79	2680.79
1007.95	2588.63
1008.11	2672.60
1008.27	2648.02
1008.43	2664.41
1008.59	2582.49
1008.75	2629.59
1008.91	2797.53
1009.06	2539.48
1009.22	2615.26
1009.38	2609.11
1009.54	2527.19
1009.70	2484.19
1009.86	2584.54
1010.01	2627.54
1010.17	2525.15
1010.33	2658.26
1010.49	2580.44
1010.65	2658.26
1010.81	2502.62
1010.96	2496.47
1011.12	2453.47
1011.28	2287.58
1011.44	2582.49
1011.60	2355.16
1011.76	2430.94
1011.91	2475.99
1012.07	2475.99
1012.23	2426.84
1012.39	2306.01
1012.55	2449.37
1012.71	2506.71
1012.86	2330.59
1013.02	2453.47
1013.18	2334.68
1013.34	2371.55
1013.50	2478.04
1013.65	2396.12
1013.81	2387.93
1013.97	2381.79
1014.13	2277.34
1014.29	2289.63
1014.44	2346.97
1014.60	2340.83
1014.76	2246.62
1014.92	2256.86
1015.07	2267.10
1015.23	2371.55
1015.39	2226.14
1015.55	2320.35
1015.71	2306.01
1015.86	2238.43
1016.02	2152.42
1016.18	2080.74
1016.34	2189.28
1016.49	2117.60
1016.65	2166.75
1016.81	2238.43
1016.97	2215.90
1017.12	2254.81
1017.28	2172.89
1017.44	2031.58
1017.60	2205.66
1017.75	2181.09
1017.91	2133.98
1018.07	2224.09
1018.23	2101.22
1018.38	2084.83
1018.54	2207.71
1018.70	2203.61
1018.86	2158.56
1019.01	2072.54
1019.17	2201.57
1019.33	2267.10
1019.49	1986.53
1019.64	2047.97
1019.80	2037.73
1019.96	2066.40
1020.12	2039.78
1020.27	1976.29
1020.43	2002.91
1020.59	2115.55
1020.74	2166.75
1020.90	2062.30
1021.06	1976.29
1021.22	1996.77
1021.37	2031.58
1021.53	1959.91
1021.69	2072.54
1021.84	1988.58
1022.00	2056.16
1022.16	2041.82
1022.31	1992.67
1022.47	1927.14
1022.63	2002.91
1022.79	1943.52
1022.94	1843.17
1023.10	2121.70
1023.26	1925.09
1023.41	1990.63
1023.57	1888.23
1023.73	2033.63
1023.88	1927.14
1024.04	1834.98
1024.20	1959.91
1024.35	1943.52
1024.51	2017.25
1024.67	1945.57
1024.82	1914.85
1024.98	1777.64
1025.14	1886.18
1025.29	1865.70
1025.45	1906.66
1025.61	1761.25
1025.76	1886.18
1025.92	1855.46
1026.08	1855.46
1026.23	1929.19
1026.39	1961.95
1026.55	1855.46
1026.70	1804.26
1026.86	1964.00
1027.02	1925.09
1027.17	1834.98
1027.33	1853.41
1027.48	1736.68
1027.64	1849.32
1027.80	1859.56
1027.95	1925.09
1028.11	1736.68
1028.27	1779.68
1028.42	1861.60
1028.58	1888.23
1028.73	1800.16
1028.89	1665.00
1029.05	1771.49
1029.20	1736.68
>>>>>End Processed Spectral Data<<<<<
