SpectraSuite Data File
++++++++++++++++++++++++++++++++++++
Date: Fri Jun 02 14:52:30 CEST 2017
User: INFO_000
Dark Spectrum Present: No
Reference Spectrum Present: No
Number of Sampled Component Spectra: 1
Spectrometers: USB4H00879
Integration Time (usec): 80000 (USB4H00879)
Spectra Averaged: 1 (USB4H00879)
Boxcar Smoothing: 0 (USB4H00879)
Correct for Electrical Dark: No (USB4H00879)
Strobe/Lamp Enabled: No (USB4H00879)
Correct for Detector Non-linearity: No (USB4H00879)
Correct for Stray Light: No (USB4H00879)
Number of Pixels in Processed Spectrum: 3648
>>>>>Begin Processed Spectral Data<<<<<
345.13	1271.79
345.34	1271.79
345.56	1271.79
345.78	1279.98
345.99	1275.88
346.21	1732.58
346.42	1695.72
346.64	1638.38
346.86	1751.01
347.07	1648.61
347.29	1724.39
347.50	1632.23
347.72	1654.76
347.94	1755.11
348.15	1556.46
348.37	1607.66
348.59	1757.16
348.80	1605.61
349.02	1728.49
349.23	1837.03
349.45	1812.45
349.67	1882.08
349.88	1841.12
350.10	1886.18
350.31	1796.07
350.53	1826.79
350.75	1988.58
350.96	1794.02
351.18	1798.12
351.39	1875.94
351.61	1796.07
351.82	1886.18
352.04	1912.80
352.26	1843.17
352.47	1900.52
352.69	1853.41
352.90	1732.58
353.12	1882.08
353.34	1902.56
353.55	1949.67
353.77	1925.09
353.98	1830.88
354.20	1916.90
354.41	1935.33
354.63	1964.00
354.85	2019.30
355.06	1910.75
355.28	1837.03
355.49	1920.99
355.71	1933.28
355.92	1837.03
356.14	1978.34
356.35	1888.23
356.57	1814.50
356.79	1951.71
357.00	1847.27
357.22	1918.95
357.43	1937.38
357.65	1951.71
357.86	1894.37
358.08	1949.67
358.29	1918.95
358.51	1957.86
358.72	1953.76
358.94	1920.99
359.16	1916.90
359.37	1877.99
359.59	1970.15
359.80	2047.97
360.02	1986.53
360.23	2002.91
360.45	1986.53
360.66	1896.42
360.88	1918.95
361.09	1861.60
361.31	1986.53
361.52	1994.72
361.74	1998.82
361.95	2041.82
362.17	1880.04
362.38	2099.17
362.60	2082.78
362.81	1947.62
363.03	1964.00
363.24	1986.53
363.46	1974.24
363.67	1961.95
363.89	1945.57
364.10	1994.72
364.32	2054.11
364.53	2115.55
364.75	1953.76
364.96	2013.15
365.18	2070.50
365.39	1986.53
365.61	1937.38
365.82	2140.13
366.04	1961.95
366.25	1982.43
366.47	2035.68
366.68	2017.25
366.90	1974.24
367.11	2082.78
367.33	2086.88
367.54	2117.60
367.76	2004.96
367.97	2140.13
368.19	2027.49
368.40	2066.40
368.62	1978.34
368.83	2050.02
369.05	2031.58
369.26	2080.74
369.48	2064.35
369.69	1974.24
369.91	1984.48
370.12	1976.29
370.33	2090.98
370.55	2002.91
370.76	2043.87
370.98	2076.64
371.19	1978.34
371.41	2023.39
371.62	2054.11
371.84	2009.06
372.05	2199.52
372.27	2050.02
372.48	2062.30
372.69	1986.53
372.91	2076.64
373.12	2236.38
373.34	2140.13
373.55	2070.50
373.77	2144.22
373.98	2101.22
374.20	2144.22
374.41	2170.85
374.62	2164.70
374.84	2078.69
375.05	2201.57
375.27	2115.55
375.48	2164.70
375.70	2203.61
375.91	2312.16
376.12	2285.53
376.34	2168.80
376.55	2074.59
376.77	2224.09
376.98	2113.50
377.19	2111.46
377.41	2105.31
377.62	2236.38
377.84	2267.10
378.05	2336.73
378.27	2162.66
378.48	2312.16
378.69	2326.49
378.91	2293.72
379.12	2258.91
379.34	2256.86
379.55	2402.27
379.76	2314.20
379.98	2220.00
380.19	2336.73
380.41	2324.44
380.62	2303.96
380.83	2224.09
381.05	2133.98
381.26	2400.22
381.47	2258.91
381.69	2287.58
381.90	2326.49
382.12	2328.54
382.33	2258.91
382.54	2316.25
382.76	2271.20
382.97	2293.72
383.19	2224.09
383.40	2406.36
383.61	2316.25
383.83	2260.96
384.04	2355.16
384.25	2295.77
384.47	2379.74
384.68	2310.11
384.89	2351.07
385.11	2336.73
385.32	2387.93
385.54	2369.50
385.75	2363.36
385.96	2445.27
386.18	2394.08
386.39	2369.50
386.60	2396.12
386.82	2387.93
387.03	2459.61
387.24	2519.00
387.46	2467.80
387.67	2502.62
387.88	2512.86
388.10	2404.32
388.31	2412.51
388.52	2562.01
388.74	2486.23
388.95	2473.95
389.16	2578.39
389.38	2598.87
389.59	2584.54
389.80	2684.89
390.02	2529.24
390.23	2574.30
390.44	2562.01
390.66	2674.65
390.87	2525.15
391.08	2639.83
391.30	2688.98
391.51	2723.80
391.72	2697.17
391.94	2674.65
392.15	2648.02
392.36	2656.22
392.58	2664.41
392.79	2682.84
393.00	2744.28
393.22	2760.66
393.43	2666.46
393.64	2781.14
393.85	2756.57
394.07	2709.46
394.28	2813.91
394.49	2717.65
394.71	2787.29
394.92	2881.49
395.13	2752.47
395.35	2605.02
395.56	2731.99
395.77	2764.76
395.98	2881.49
396.20	2942.93
396.41	2818.00
396.62	2740.18
396.84	2760.66
397.05	2777.05
397.26	2856.92
397.47	2893.78
397.69	2858.96
397.90	2990.03
398.11	2871.25
398.32	2830.29
398.54	2858.96
398.75	2924.50
398.96	2875.35
399.18	3125.20
399.39	3035.09
399.60	3016.66
399.81	2940.88
400.03	2942.93
400.24	3289.04
400.45	2977.75
400.66	3145.68
400.88	2955.22
401.09	3125.20
401.30	3035.09
401.51	3117.01
401.73	3123.15
401.94	3182.54
402.15	3090.38
402.36	3018.71
402.58	3106.77
402.79	3133.39
403.00	3088.34
403.21	3166.16
403.43	3225.55
403.64	3180.50
403.85	3076.05
404.06	3286.99
404.27	3125.20
404.49	3235.79
404.70	3241.93
404.91	3336.14
405.12	3252.17
405.34	3125.20
405.55	3416.01
405.76	3174.35
405.97	3145.68
406.19	3391.44
406.40	3235.79
406.61	3307.47
406.82	3381.20
407.03	3293.13
407.25	3225.55
407.46	3383.24
407.67	3399.63
407.88	3510.22
408.09	3252.17
408.31	3346.38
408.52	3397.58
408.73	3293.13
408.94	3332.05
409.15	3442.64
409.37	3432.40
409.58	3360.72
409.79	3493.83
410.00	3526.60
410.21	3309.52
410.43	3373.00
410.64	3352.52
410.85	3622.86
411.06	3516.36
411.27	3600.33
411.48	3575.75
411.70	3497.93
411.91	3522.51
412.12	3622.86
412.33	3542.99
412.54	3641.29
412.76	3657.67
412.97	3641.29
413.18	3479.50
413.39	3559.37
413.60	3553.23
413.81	3549.13
414.03	3592.14
414.24	3694.54
414.45	3659.72
414.66	3555.27
414.87	3764.17
415.08	3649.48
415.30	3684.30
415.51	3739.59
415.72	3579.85
415.93	3661.77
416.14	3829.70
416.35	3741.64
416.56	3790.79
416.78	3827.65
416.99	3753.93
417.20	3694.54
417.41	3913.67
417.62	3786.69
417.83	3876.80
418.04	3805.13
418.26	3913.67
418.47	3844.04
418.68	3993.54
418.89	3870.66
419.10	3993.54
419.31	3946.44
419.52	3864.52
419.73	3825.61
419.95	4077.51
420.16	3964.87
420.37	3936.20
420.58	4018.11
420.79	3917.76
421.00	4108.23
421.21	4140.99
421.42	4085.70
421.63	4059.07
421.85	4108.23
422.06	4159.42
422.27	4155.33
422.48	4202.43
422.69	4194.24
422.90	4310.97
423.11	4296.64
423.32	4263.87
423.53	4241.34
423.75	4243.39
423.96	4409.28
424.17	4425.66
424.38	4456.38
424.59	4351.93
424.80	4534.20
425.01	4413.37
425.22	4401.08
425.43	4356.03
425.64	4652.98
425.85	4634.55
426.06	4591.55
426.28	4513.72
426.49	4429.76
426.70	4571.07
426.91	4552.63
427.12	4710.33
427.33	4612.03
427.54	4642.75
427.75	4571.07
427.96	4765.62
428.17	4745.14
428.38	4894.65
428.59	4792.25
428.80	4736.95
429.01	4917.17
429.23	4640.70
429.44	5021.62
429.65	5021.62
429.86	5001.14
430.07	4704.18
430.28	4837.30
430.49	4968.37
430.70	5185.46
430.91	5068.72
431.12	5076.91
431.33	5207.98
431.54	5138.35
431.75	5021.62
431.96	5261.23
432.17	5001.14
432.38	5074.87
432.59	5349.29
432.80	5214.13
433.01	5287.86
433.22	5261.23
433.43	5324.72
433.64	5310.38
433.85	5214.13
434.06	5472.17
434.27	5318.57
434.49	5435.31
434.70	5425.07
434.91	5351.34
435.12	5459.88
435.33	5566.38
435.54	5328.81
435.75	5273.52
435.96	5617.58
436.17	5502.89
436.38	5685.16
436.59	5613.48
436.80	5445.55
437.01	5724.07
437.22	5889.96
437.43	5752.74
437.64	5453.74
437.85	5810.09
438.06	5724.07
438.27	5648.30
438.48	5709.74
438.69	5959.59
438.90	5840.81
439.11	5822.38
439.32	5889.96
439.53	5803.94
439.74	5935.01
439.95	5992.36
440.16	5803.94
440.37	5859.24
440.57	5840.81
440.78	6023.08
440.99	5975.97
441.20	6098.85
441.41	6008.74
441.62	6096.80
441.83	5920.68
442.04	6154.15
442.25	6199.20
442.46	5959.59
442.67	6150.05
442.88	6600.60
443.09	6131.62
443.30	6131.62
443.51	6297.50
443.72	6336.42
443.93	6315.94
444.14	6512.54
444.35	6227.87
444.56	6414.24
444.77	6297.50
444.98	6225.82
445.19	6330.27
445.40	6383.52
445.61	6424.48
445.81	6530.97
446.02	6559.64
446.23	6539.16
446.44	6227.87
446.65	6469.53
446.86	6537.12
447.07	6664.09
447.28	6703.00
447.49	6700.95
447.70	6639.51
447.91	6678.43
448.12	6764.44
448.33	6918.04
448.54	6743.96
448.74	6657.95
448.95	6801.30
449.16	6655.90
449.37	6961.05
449.58	6776.73
449.79	7014.29
450.00	6875.03
450.21	7051.16
450.42	6975.38
450.63	7094.16
450.84	6928.28
451.05	7022.48
451.25	7147.41
451.46	7118.74
451.67	7169.94
451.88	7253.91
452.09	7098.26
452.30	6922.13
452.51	7131.03
452.72	7233.43
452.93	7520.14
453.13	6975.38
453.34	7120.79
453.55	7245.71
453.76	7411.60
453.97	7626.64
454.18	7370.64
454.39	7423.89
454.60	7495.57
454.81	7407.50
455.01	7591.82
455.22	7409.55
455.43	7659.40
455.64	7733.13
455.85	7784.33
456.06	7806.86
456.27	7669.64
456.48	7661.45
456.68	7669.64
456.89	7745.42
457.10	7813.00
457.31	7954.31
457.52	7954.31
457.73	7905.16
457.94	8155.01
458.14	7905.16
458.35	8232.83
458.56	8071.04
458.77	7948.17
458.98	8097.67
459.19	8247.17
459.39	8302.47
459.60	8382.34
459.81	8320.90
460.02	8447.87
460.23	8165.25
460.44	8609.66
460.65	8621.95
460.85	8402.82
461.06	8681.34
461.27	8560.51
461.48	8834.94
461.69	8773.50
461.89	8488.83
462.10	8759.16
462.31	8660.86
462.52	8687.48
462.73	8757.11
462.94	8900.47
463.14	8865.66
463.35	8945.53
463.56	9340.79
463.77	9146.23
463.98	9054.07
464.18	8984.44
464.39	9387.89
464.60	9400.18
464.81	9277.30
465.02	9478.00
465.23	9660.27
465.43	9191.28
465.64	9922.41
465.85	9551.73
466.06	9551.73
466.27	9871.21
466.47	9643.88
466.68	9744.24
466.89	9664.36
467.10	9969.51
467.30	9736.04
467.51	10053.48
467.72	10307.43
467.93	9869.16
468.14	10000.23
468.34	10321.76
468.55	10415.97
468.76	10366.82
468.97	10262.37
469.17	10536.80
469.38	10729.31
469.59	10729.31
469.80	10497.89
470.01	10442.59
470.21	10798.94
470.42	10835.80
470.63	11071.32
470.84	10794.84
471.04	10909.53
471.25	10964.82
471.46	11052.89
471.67	11188.05
471.87	11116.37
472.08	11188.05
472.29	11552.59
472.50	11403.09
472.70	11380.56
472.91	11292.50
473.12	11652.94
473.33	11767.63
473.53	11915.08
473.74	11687.76
473.95	11841.36
474.16	12214.09
474.36	12115.78
474.57	12361.54
474.78	12345.16
474.99	12185.41
475.19	12318.53
475.40	12603.20
475.61	12715.84
475.81	12990.27
476.02	12889.92
476.23	12822.33
476.44	12826.43
476.64	13307.70
476.85	13418.29
477.06	13387.57
477.27	13584.18
477.47	13715.25
477.68	13412.15
477.89	13782.83
478.09	13684.53
478.30	13961.00
478.51	13823.79
478.71	14243.62
478.92	14026.54
479.13	14194.47
479.34	14262.05
479.54	14335.78
479.75	14591.78
479.96	14587.68
480.16	14479.14
480.37	14632.74
480.58	14655.26
480.78	15107.87
480.99	14987.04
481.20	15091.48
481.41	15279.89
481.61	15367.96
481.82	15320.85
482.03	15214.36
482.23	15335.19
482.44	15853.33
482.65	15873.81
482.85	16105.23
483.06	15916.81
483.27	16144.14
483.47	15955.72
483.68	16303.88
483.89	16303.88
484.09	16482.05
484.30	16531.20
484.51	16555.78
484.71	16654.08
484.92	16862.97
485.13	17092.35
485.33	16924.41
485.54	17092.35
485.75	17442.55
485.95	17534.71
486.16	17444.60
486.37	17698.55
486.57	17503.99
486.78	17506.04
486.98	17776.37
487.19	18085.61
487.40	18007.79
487.60	18192.11
487.81	18079.47
488.02	18134.76
488.22	18278.12
488.43	18474.73
488.64	18718.43
488.84	18505.45
489.05	18960.09
489.25	18695.91
489.46	19050.21
489.67	18917.09
489.87	18925.28
490.08	19205.85
490.29	19203.80
490.49	19492.57
490.70	19683.03
490.90	19742.42
491.11	19644.12
491.32	19939.02
491.52	19879.63
491.73	19887.82
491.94	19924.69
492.14	20053.71
492.35	20424.39
492.55	20375.24
492.76	20201.16
492.97	20502.22
493.17	20584.13
493.38	20928.19
493.58	20848.32
493.79	21176.00
494.00	21116.61
494.20	20995.78
494.41	21298.88
494.61	21364.41
494.82	21522.10
495.02	20983.49
495.23	21364.41
495.44	21485.24
495.64	21438.14
495.85	21677.75
496.05	21915.31
496.26	21952.18
496.47	22179.50
496.67	21778.10
496.88	22533.80
497.08	21681.85
497.29	22355.63
497.49	22259.37
497.70	22294.19
497.91	22711.97
498.11	22900.39
498.32	22535.85
498.52	22683.30
498.73	23211.68
498.93	22994.59
499.14	23047.84
499.34	23299.74
499.55	23316.12
499.76	23355.04
499.96	23197.34
500.17	23420.57
500.37	23539.35
500.58	23520.92
500.78	23778.97
500.99	23910.04
501.19	24055.44
501.40	24143.50
501.60	23709.33
501.81	23936.66
502.02	24022.67
502.22	23803.54
502.43	24096.40
502.63	24301.20
502.84	24481.42
503.04	24417.93
503.25	24446.60
503.45	24444.56
503.66	24561.29
503.86	24297.10
504.07	25022.08
504.27	24798.85
504.48	25017.99
504.68	24848.00
504.89	25181.82
505.09	25233.02
505.30	24960.64
505.50	25153.15
505.71	25108.10
505.91	25443.96
506.12	25423.48
506.32	25345.66
506.53	25728.63
506.73	25468.54
506.94	25773.69
507.14	25841.27
507.35	25769.59
507.55	25779.83
507.76	25994.87
507.96	25755.26
508.17	25726.58
508.37	26052.21
508.58	25974.39
508.78	26005.11
508.99	26054.26
509.19	26199.66
509.40	26027.63
509.60	26373.74
509.81	26211.95
510.01	26101.36
510.22	26326.64
510.42	26359.41
510.63	26650.22
510.83	26594.92
511.04	26470.00
511.24	26662.51
511.44	26617.45
511.65	26769.00
511.85	26588.78
512.06	26644.07
512.26	26648.17
512.47	27008.61
512.67	26965.60
512.88	27174.50
513.08	26693.22
513.29	27407.97
513.49	27051.62
513.69	27172.45
513.90	27123.30
514.10	27590.24
514.31	27246.18
514.51	27506.27
514.72	27506.27
514.92	27158.11
515.13	27405.92
515.33	27487.84
515.53	27539.04
515.74	27559.52
515.94	27647.58
516.15	27680.35
516.35	27737.69
516.56	27727.45
516.76	27801.18
516.96	27899.48
517.17	27940.44
517.37	28094.04
517.58	27942.49
517.78	28071.51
517.99	27844.18
518.19	28272.21
518.39	28372.56
518.60	28395.09
518.80	28233.30
519.01	28300.88
519.21	28477.01
519.41	28886.60
519.62	28550.73
519.82	28696.14
520.03	28931.65
520.23	28698.19
520.43	28759.63
520.64	29161.03
520.84	29005.38
521.05	28880.46
521.25	29400.64
521.45	28833.35
521.66	29050.44
521.86	29240.90
522.07	29111.88
522.27	29324.86
522.47	29562.43
522.68	29404.74
522.88	29486.65
523.08	29978.17
523.29	29638.20
523.49	29564.48
523.70	29763.13
523.90	29996.60
524.10	29677.12
524.31	30058.04
524.51	29759.03
524.71	30541.36
524.92	30455.34
525.12	30287.41
525.33	30295.60
525.53	30533.17
525.73	30520.88
525.94	30574.13
526.14	30443.06
526.34	30877.22
526.55	30838.31
526.75	30570.03
526.95	30842.41
527.16	30955.05
527.36	30735.92
527.56	31376.93
527.77	31186.47
527.97	31340.07
528.17	30862.89
528.38	31614.49
528.58	31573.53
528.78	31651.36
528.99	31278.63
529.19	31684.12
529.39	31219.24
529.60	31782.43
529.80	31841.82
530.00	31757.85
530.21	31809.05
530.41	32562.70
530.61	32146.97
530.82	32421.39
531.02	32204.31
531.22	32433.68
531.43	32468.50
531.63	32519.70
531.83	32708.11
532.04	32953.87
532.24	33007.11
532.44	32925.19
532.64	33121.80
532.85	33435.14
533.05	33537.54
533.25	33365.51
533.46	33308.16
533.66	33531.39
533.86	33601.02
534.07	34174.45
534.27	33785.34
534.47	33830.40
534.67	34113.02
534.88	33934.84
535.08	34303.48
535.28	34074.10
535.49	34194.93
535.69	34790.89
535.89	34606.58
536.09	34694.64
536.30	35137.00
536.50	34921.96
536.70	34844.14
536.91	34919.92
537.11	35216.87
537.31	35309.03
537.51	34885.10
537.72	35380.71
537.92	35765.73
538.12	35585.50
538.32	35247.59
538.53	35683.81
538.73	35720.67
538.93	35855.84
539.13	35870.17
539.34	35943.90
539.54	35618.27
539.74	36306.39
539.94	35954.14
540.15	35993.05
540.35	36330.97
540.55	36234.71
540.75	36330.97
540.96	36769.23
541.16	36447.70
541.36	37035.47
541.56	36697.55
541.77	37357.00
541.97	37021.13
542.17	37023.18
542.37	36863.44
542.58	37217.74
542.78	36912.59
542.98	36765.14
543.18	37180.87
543.38	37926.33
543.59	37680.58
543.79	37191.11
543.99	37428.68
544.19	37787.07
544.40	37563.84
544.60	37893.57
544.80	38030.78
545.00	38118.84
545.20	38544.82
545.41	38108.60
545.61	38473.14
545.81	38577.59
546.01	38331.83
546.21	38536.63
546.42	38749.62
546.62	38622.64
546.82	38733.23
547.02	38536.63
547.22	39044.52
547.43	38847.92
547.63	38780.34
547.83	38546.87
548.03	38727.09
548.23	39214.51
548.44	39165.35
548.64	39173.55
548.84	39564.71
549.04	39493.03
549.24	39560.61
549.45	39531.94
549.65	39122.35
549.85	39392.68
550.05	40099.23
550.25	39818.66
550.45	40383.90
550.66	39861.66
550.86	39605.67
551.06	39968.16
551.26	39955.87
551.46	40172.96
551.66	40218.01
551.87	39996.83
552.07	40385.94
552.27	40433.05
552.47	40488.34
552.67	40742.29
552.87	40549.78
553.07	41049.49
553.28	40940.94
553.48	40990.09
553.68	41125.26
553.88	40813.97
554.08	41043.34
554.28	41323.91
554.48	40461.72
554.69	41330.06
554.89	41180.56
555.09	40926.61
555.29	41151.88
555.49	41303.43
555.69	41575.81
555.89	41641.35
556.10	41887.10
556.30	41373.06
556.50	41633.16
556.70	41962.88
556.90	41870.72
557.10	42098.05
557.30	41457.03
557.50	42249.60
557.70	41936.26
557.91	42331.51
558.11	42349.95
558.31	42270.08
558.51	41923.97
558.71	42057.09
558.91	42278.27
559.11	42519.93
559.31	42237.31
559.51	42497.40
559.72	42356.09
559.92	42941.81
560.12	42177.92
560.32	42638.71
560.52	42507.64
560.72	42505.59
560.92	42702.20
561.12	42456.44
561.32	43097.45
561.52	42849.65
561.72	43136.37
561.93	43099.50
562.13	42710.39
562.33	43056.50
562.53	43668.84
562.73	43189.61
562.93	43261.29
563.13	43304.30
563.33	43478.38
563.53	43920.74
563.73	43347.31
563.93	43343.21
564.13	44070.24
564.33	43761.00
564.53	43480.42
564.74	44096.86
564.94	43992.42
565.14	44201.31
565.34	43732.32
565.54	44270.94
565.74	44303.71
565.94	44418.39
566.14	43961.70
566.34	44285.28
566.54	44764.50
566.74	44201.31
566.94	44414.30
567.14	44426.59
567.34	44074.34
567.54	44596.57
567.74	44307.80
567.94	44492.12
568.14	44430.68
568.34	44916.05
568.54	44668.25
568.74	44717.40
568.94	44954.96
569.14	44889.43
569.34	45049.17
569.54	45284.68
569.75	44602.71
569.95	45186.38
570.15	45440.33
570.35	45454.67
570.55	45131.09
570.75	45266.25
570.95	45032.78
571.15	45317.45
571.35	45733.19
571.55	45806.92
571.75	45688.13
571.95	45559.11
572.15	45274.45
572.35	45350.22
572.55	45808.96
572.75	45868.36
572.95	45931.84
573.15	46142.78
573.35	45944.13
573.55	45333.84
573.75	45763.91
573.95	46056.77
574.15	45718.85
574.35	45776.20
574.55	46038.34
574.75	46175.55
574.95	46150.98
575.15	46206.27
575.34	46392.64
575.54	46476.60
575.74	46703.93
575.94	46691.64
576.14	46585.15
576.34	46894.39
576.54	46550.33
576.74	46857.52
576.94	46728.50
577.14	46781.75
577.34	47013.17
577.54	46925.11
577.74	47324.46
577.94	47236.40
578.14	47076.66
578.34	47355.18
578.54	46599.48
578.74	47222.06
578.94	47131.95
579.14	46953.78
579.34	47076.66
579.54	47564.07
579.74	47658.28
579.94	47807.78
580.13	47283.50
580.33	47686.95
580.53	47736.10
580.73	47938.85
580.93	47598.89
581.13	47732.01
581.33	48387.36
581.53	48018.72
581.73	48221.47
581.93	48104.74
582.13	48033.06
582.33	48182.56
582.53	48069.92
582.73	48114.98
582.92	48188.70
583.12	48772.38
583.32	48559.39
583.52	48258.34
583.72	48899.35
583.92	48573.72
584.12	48719.13
584.32	49184.02
584.52	48743.70
584.72	48983.32
584.92	48923.93
585.11	49085.72
585.31	49026.32
585.51	49214.74
585.71	48880.92
585.91	49124.63
586.11	48444.70
586.31	48776.47
586.51	49446.16
586.71	49767.69
586.91	49523.98
587.10	49294.61
587.30	49943.81
587.50	49706.25
587.70	49892.61
587.90	49798.41
588.10	49636.62
588.30	49667.34
588.50	49835.27
588.69	49650.95
588.89	49868.04
589.09	50042.12
589.29	49696.01
589.49	50255.11
589.69	49542.41
589.89	49849.61
590.08	49685.77
590.28	49896.71
590.48	49736.97
590.68	50066.69
590.88	49945.86
591.08	49992.97
591.28	49726.73
591.47	50638.08
591.67	49939.72
591.87	50222.34
592.07	50337.02
592.27	50584.83
592.47	50619.64
592.67	50312.45
592.86	50625.79
593.06	50756.86
593.26	50898.17
593.46	50681.08
593.66	50451.71
593.86	50638.08
594.05	50787.58
594.25	50916.60
594.45	50756.86
594.65	50666.75
594.85	50367.74
595.05	51234.03
595.24	50947.32
595.44	50873.59
595.64	50601.21
595.84	50687.23
596.04	50599.16
596.23	51139.83
596.43	51053.81
596.63	50871.54
596.83	51143.92
597.03	51690.73
597.22	51348.72
597.42	51348.72
597.62	51418.35
597.82	51334.38
598.02	51066.10
598.21	51479.79
598.41	51086.58
598.61	51569.90
598.81	51414.26
599.01	51901.67
599.20	51315.95
599.40	51358.96
599.60	51875.05
599.80	51649.77
600.00	51832.04
600.19	51916.01
600.39	51715.31
600.59	52374.75
600.79	51782.89
600.98	51764.46
601.18	51725.55
601.38	52333.79
601.58	52163.81
601.78	52161.76
601.97	52157.67
602.17	52468.96
602.37	52344.03
602.57	52372.70
602.76	52450.53
602.96	52141.28
603.16	52401.38
603.36	52622.56
603.55	52493.54
603.75	52192.48
603.95	52301.03
604.15	52626.65
604.34	52352.23
604.54	52298.98
604.74	52761.82
604.94	52645.08
605.13	52241.63
605.33	52958.42
605.53	53126.36
605.73	52921.56
605.92	52774.11
606.12	53015.77
606.32	53286.10
606.52	52722.91
606.71	53066.97
606.91	53253.33
607.11	52806.87
607.30	53406.93
607.50	53306.58
607.70	53343.44
607.90	53013.72
608.09	53023.96
608.29	53052.63
608.49	53386.45
608.68	53353.68
608.88	53288.15
609.08	53370.07
609.28	53411.02
609.47	53202.13
609.67	53363.92
609.87	53253.33
610.06	53499.09
610.26	53599.44
610.46	53236.95
610.66	53325.01
610.85	53564.62
611.05	53150.93
611.25	53650.64
611.44	52917.46
611.64	53531.86
611.84	53216.47
612.03	53390.55
612.23	53349.59
612.43	53667.02
612.62	53089.49
612.82	53490.90
613.02	53533.90
613.21	53650.64
613.41	53288.15
613.61	53441.74
613.80	52872.41
614.00	54076.61
614.20	53662.93
614.39	52917.46
614.59	53886.15
614.79	53556.43
614.98	53318.87
615.18	53615.82
615.38	53748.94
615.57	53023.96
615.77	54084.81
615.97	53597.39
616.16	53654.73
616.36	53808.33
616.56	53851.34
616.75	53462.22
616.95	53458.13
617.15	53372.11
617.34	53386.45
617.54	53322.96
617.74	53437.65
617.93	53519.57
618.13	53445.84
618.32	53613.77
618.52	53540.05
618.72	53214.42
618.91	53349.59
619.11	52878.55
619.31	53507.28
619.50	52843.74
619.70	53417.17
619.90	53150.93
620.09	53351.63
620.29	53638.35
620.48	53200.08
620.68	53900.49
620.88	52892.89
621.07	53138.65
621.27	53564.62
621.46	52763.87
621.66	53144.79
621.86	53306.58
622.05	52770.01
622.25	53492.94
622.44	53257.43
622.64	53216.47
622.84	53880.01
623.03	53370.07
623.23	53583.05
623.42	53175.51
623.62	52983.00
623.82	53378.26
624.01	52569.31
624.21	53394.64
624.40	53069.01
624.60	53181.65
624.80	53114.07
624.99	53150.93
625.19	52823.26
625.38	52630.75
625.58	53150.93
625.77	53480.66
625.97	53290.19
626.17	52823.26
626.36	53206.23
626.56	53195.99
626.75	52956.38
626.95	53599.44
627.14	52968.66
627.34	53359.83
627.54	52876.51
627.73	53087.45
627.93	53511.38
628.12	52868.31
628.32	53056.73
628.51	53118.17
628.71	52896.98
628.90	52923.61
629.10	53138.65
629.30	52810.97
629.49	53013.72
629.69	53486.80
629.88	53347.54
630.08	53392.59
630.27	53099.73
630.47	53138.65
630.66	53066.97
630.86	53337.30
631.05	52923.61
631.25	53626.06
631.44	53353.68
631.64	53026.01
631.84	53320.91
632.03	53730.51
632.23	53570.77
632.42	53601.49
632.62	53343.44
632.81	53294.29
633.01	53257.43
633.20	53650.64
633.40	53685.45
633.59	53458.13
633.79	52802.78
633.98	53286.10
634.18	53613.77
634.37	53998.79
634.57	53564.62
634.76	53345.49
634.96	53222.61
635.15	53609.68
635.35	53466.32
635.54	53798.09
635.74	53892.30
635.93	53200.08
636.13	53904.59
636.32	53597.39
636.52	53191.89
636.71	53523.66
636.91	53191.89
637.10	53646.54
637.30	53449.94
637.49	53619.92
637.69	53435.60
637.88	54000.84
638.08	53103.83
638.27	54066.38
638.46	53667.02
638.66	53339.35
638.85	53449.94
639.05	53466.32
639.24	53626.06
639.44	52911.32
639.63	53515.47
639.83	53738.70
640.02	53814.47
640.22	53621.97
640.41	54275.27
640.61	53849.29
640.80	53695.69
640.99	53728.46
641.19	54594.75
641.38	53720.27
641.58	53589.20
641.77	54148.29
641.97	53929.16
642.16	54222.02
642.36	54031.56
642.55	54604.99
642.74	53912.78
642.94	54584.51
643.13	54099.14
643.33	54400.19
643.52	54353.09
643.72	54330.56
643.91	53972.17
644.10	54275.27
644.30	54688.96
644.49	54482.11
644.69	54471.87
644.88	54181.06
645.08	54414.53
645.27	54727.87
645.46	53992.65
645.66	54779.07
645.85	54375.62
646.05	54576.32
646.24	54736.06
646.43	54328.52
646.63	54924.47
646.82	54828.22
647.02	54725.82
647.21	55133.37
647.40	54439.11
647.60	54992.06
647.79	55219.38
647.99	55071.93
648.18	54482.11
648.37	55239.86
648.57	55207.09
648.76	55157.94
648.96	54889.66
649.15	55008.44
649.34	55538.86
649.54	55088.31
649.73	54903.99
649.92	55366.84
650.12	55203.00
650.31	55411.89
650.51	55477.43
650.70	55278.77
650.89	55407.79
651.09	55557.30
651.28	55628.98
651.47	55321.78
651.67	55481.52
651.86	55817.39
652.06	54486.21
652.25	55375.03
652.44	55696.56
652.64	55071.93
652.83	55323.83
653.02	55532.72
653.22	55362.74
653.41	55092.41
653.60	55413.94
653.80	55266.48
653.99	55827.63
654.18	55139.51
654.38	55444.66
654.57	55502.00
654.76	55370.93
654.96	55200.95
655.15	55690.41
655.34	55547.06
655.54	55166.13
655.73	55772.33
655.92	55708.85
656.12	55301.30
656.31	55628.98
656.50	55837.87
656.70	55887.02
656.89	55962.79
657.08	55999.66
657.28	56188.07
657.47	55747.76
657.66	56485.03
657.86	55626.93
658.05	56069.29
658.24	56149.16
658.43	56177.83
658.63	56202.41
658.82	56736.93
659.01	55547.06
659.21	56083.62
659.40	56337.57
659.59	56114.34
659.79	56358.05
659.98	56087.72
660.17	56419.49
660.36	56001.71
660.56	56274.09
660.75	56534.18
660.94	56622.24
661.14	56384.68
661.33	56145.06
661.52	55944.36
661.71	56188.07
661.91	56188.07
662.10	55983.27
662.29	56808.61
662.49	56710.30
662.68	56704.16
662.87	56636.58
663.06	56927.39
663.26	56327.33
663.45	57130.14
663.64	56980.63
663.83	57259.16
664.03	57054.36
664.22	56718.49
664.41	56726.69
664.60	56366.24
664.80	56583.33
664.99	56753.31
665.18	56448.16
665.37	56509.60
665.57	56921.24
665.76	56876.19
665.95	56849.56
666.14	56646.82
666.34	56556.70
666.53	56655.01
666.72	56288.42
666.91	56546.47
667.11	56349.86
667.30	57148.57
667.49	56431.78
667.68	56261.80
667.87	56644.77
668.07	56712.35
668.26	56505.51
668.45	57066.65
668.64	56726.69
668.84	57703.57
669.03	56587.42
669.22	57035.93
669.41	57529.49
669.60	56900.76
669.80	56857.76
669.99	57113.75
670.18	57021.59
670.37	57181.34
670.57	57283.73
670.76	57461.91
670.95	57633.94
671.14	56980.63
671.33	56673.44
671.53	57492.63
671.72	57361.56
671.91	57341.08
672.10	56908.96
672.29	56956.06
672.48	57267.35
672.68	57734.29
672.87	56884.38
673.06	57046.17
673.25	56970.39
673.44	56976.54
673.64	57080.98
673.83	57062.55
674.02	57189.53
674.21	56849.56
674.40	57236.63
674.59	56630.43
674.79	56628.38
674.98	56607.90
675.17	57107.61
675.36	56788.13
675.55	56990.87
675.74	56781.98
675.94	56919.20
676.13	56898.72
676.32	56761.50
676.51	57873.55
676.70	57402.52
676.89	57037.98
677.08	57545.87
677.28	56845.47
677.47	57375.89
677.66	57539.73
677.85	56763.55
678.04	57365.65
678.23	57384.08
678.42	57109.66
678.62	57003.16
678.81	57373.84
679.00	57175.19
679.19	57906.32
679.38	57222.29
679.57	57300.12
679.76	57179.29
679.96	57156.76
680.15	57099.42
680.34	57111.70
680.53	57371.80
680.72	57373.84
680.91	57334.93
681.10	56960.15
681.29	57255.06
681.48	56843.42
681.68	56913.05
681.87	56808.61
682.06	57177.24
682.25	56812.70
682.44	57605.26
682.63	57447.57
682.82	56652.96
683.01	57126.04
683.20	57013.40
683.39	56843.42
683.59	56954.01
683.78	57005.21
683.97	56691.87
684.16	56493.22
684.35	56407.20
684.54	56480.93
684.73	57078.94
684.92	56583.33
685.11	56571.04
685.30	56521.89
685.49	57017.50
685.69	57042.07
685.88	56743.07
686.07	57083.03
686.26	56659.10
686.45	56982.68
686.64	56605.86
686.83	56444.07
687.02	56767.65
687.21	57228.44
687.40	57140.38
687.59	56824.99
687.78	56616.10
687.97	56974.49
688.16	56519.84
688.35	56671.39
688.54	56589.47
688.74	56673.44
688.93	56827.04
689.12	56591.52
689.31	56638.62
689.50	56321.19
689.69	56124.58
689.88	55956.65
690.07	56429.73
690.26	56243.37
690.45	56812.70
690.64	56349.86
690.83	56351.91
691.02	56335.52
691.21	56153.26
691.40	56075.43
691.59	56767.65
691.78	56073.38
691.97	56097.96
692.16	56251.56
692.35	56034.47
692.54	56157.35
692.73	56231.08
692.92	56167.59
693.11	56353.96
693.30	56018.09
693.49	56134.82
693.68	55907.50
693.87	55884.97
694.06	56089.77
694.25	55788.72
694.44	55821.48
694.63	55946.41
694.82	55833.77
695.01	55848.11
695.20	55430.32
695.39	56050.86
695.58	55852.20
695.77	55600.30
695.96	55850.16
696.15	55848.11
696.34	55594.16
696.53	55825.58
696.72	55620.78
696.91	55809.20
697.10	55897.26
697.29	55428.27
697.48	55590.06
697.67	55289.01
697.86	54762.68
698.05	55303.35
698.24	56034.47
698.43	54727.87
698.62	55393.46
698.81	54944.95
699.00	55203.00
699.19	54961.34
699.38	54940.86
699.57	54891.71
699.76	55907.50
699.95	54949.05
700.14	55157.94
700.32	54971.58
700.51	54465.73
700.70	55235.77
700.89	54951.10
701.08	55014.58
701.27	54645.95
701.46	54600.89
701.65	54215.88
701.84	55145.65
702.03	54922.43
702.22	54568.13
702.41	54963.39
702.60	54385.86
702.79	54693.05
702.98	54392.00
703.17	54525.12
703.35	54129.86
703.54	54011.08
703.73	54328.52
703.92	54236.36
704.11	54355.14
704.30	53748.94
704.49	54187.21
704.68	53953.74
704.87	54627.52
705.06	54074.57
705.25	53931.21
705.43	54195.40
705.62	54041.80
705.81	54166.73
706.00	54105.29
706.19	53607.63
706.38	53798.09
706.57	54031.56
706.76	53613.77
706.95	53941.45
707.14	53636.30
707.32	53357.78
707.51	53732.56
707.70	53705.93
707.89	54013.13
708.08	53667.02
708.27	53794.00
708.46	53968.07
708.65	53386.45
708.84	53638.35
709.02	53075.16
709.21	53435.60
709.40	53361.87
709.59	53376.21
709.78	52876.51
709.97	53531.86
710.16	53429.46
710.34	52999.38
710.53	53099.73
710.72	53056.73
710.91	53071.06
711.10	53089.49
711.29	53253.33
711.48	53187.80
711.66	52772.06
711.85	52446.43
712.04	52624.60
712.23	52974.81
712.42	52532.45
712.61	52737.24
712.80	52966.62
712.98	52606.17
713.17	52094.18
713.36	52319.46
713.55	52813.02
713.74	52546.78
713.93	52718.81
714.11	52319.46
714.30	52104.42
714.49	52471.01
714.68	52436.19
714.87	52354.27
715.06	52428.00
715.24	52165.86
715.43	52096.23
715.62	51836.14
715.81	51789.03
716.00	51858.66
716.18	51959.02
716.37	51582.19
716.56	51715.31
716.75	52139.24
716.94	51897.58
717.12	51209.46
717.31	51791.08
717.50	51238.13
717.69	51313.90
717.88	51492.08
718.06	51614.96
718.25	51832.04
718.44	51008.76
718.63	51254.51
718.82	50773.24
719.00	51041.53
719.19	50834.68
719.38	50980.09
719.57	50693.37
719.76	50326.78
719.94	50296.06
720.13	50601.21
720.32	50840.82
720.51	50418.94
720.69	50578.68
720.88	50406.65
721.07	50584.83
721.26	50203.91
721.44	50492.67
721.63	49855.75
721.82	49868.04
722.01	49841.42
722.20	49587.47
722.38	50091.27
722.57	49288.46
722.76	49968.39
722.95	49628.43
723.13	49513.74
723.32	49364.24
723.51	49313.04
723.70	49423.63
723.88	49452.30
724.07	49005.84
724.26	49104.15
724.44	48776.47
724.63	49528.08
724.82	49190.16
725.01	48878.87
725.19	48786.71
725.38	48694.55
725.57	48919.83
725.76	48747.80
725.94	48497.95
726.13	48960.79
726.32	48928.02
726.51	48629.02
726.69	48733.46
726.88	48622.87
727.07	48805.14
727.25	48291.10
727.44	48051.49
727.63	48454.94
727.82	48375.07
728.00	48215.33
728.19	48553.24
728.38	48710.94
728.56	48547.10
728.75	48971.03
728.94	48280.86
729.12	48168.22
729.31	48411.93
729.50	47777.06
729.69	48209.18
729.87	47897.89
730.06	48155.94
730.25	48413.98
730.43	48424.22
730.62	48534.81
730.81	48303.39
730.99	48719.13
731.18	48055.59
731.37	48069.92
731.55	48743.70
731.74	48051.49
731.93	47940.90
732.11	48309.53
732.30	48157.99
732.49	47639.85
732.67	47674.66
732.86	47519.02
733.05	47910.18
733.23	47461.68
733.42	47652.14
733.61	47770.92
733.79	47916.32
733.98	47936.80
734.17	48114.98
734.35	48065.83
734.54	47709.48
734.73	48198.94
734.91	47818.02
735.10	47355.18
735.29	47942.95
735.47	47721.77
735.66	47568.17
735.84	47719.72
736.03	47369.52
736.22	48153.89
736.40	47416.62
736.59	47430.96
736.78	47330.61
736.96	47525.16
737.15	47263.02
737.33	47508.78
737.52	47072.56
737.71	46824.76
737.89	46593.34
738.08	46646.58
738.27	46777.65
738.45	47242.54
738.64	46933.30
738.82	47205.68
739.01	46998.83
739.20	46755.13
739.38	46683.45
739.57	47158.58
739.75	47123.76
739.94	46597.43
740.13	47392.04
740.31	46673.21
740.50	46458.17
740.68	46472.51
740.87	46431.55
741.06	46736.69
741.24	46263.61
741.43	45980.99
741.61	46835.00
741.80	46265.66
741.99	45913.41
742.17	46492.99
742.36	46333.24
742.54	46085.44
742.73	46185.79
742.91	46351.68
743.10	45954.37
743.29	46282.05
743.47	46486.84
743.66	46273.85
743.84	46427.45
744.03	45770.05
744.21	45817.16
744.40	46171.46
744.59	45917.51
744.77	45876.55
744.96	45761.86
745.14	45880.64
745.33	45970.75
745.51	45616.46
745.70	45925.70
745.88	45503.82
746.07	46021.95
746.26	45364.56
746.44	45585.74
746.63	45684.04
746.81	45495.63
747.00	45268.30
747.18	45808.96
747.37	45368.65
747.55	45243.73
747.74	45661.51
747.92	45299.02
748.11	45317.45
748.29	45317.45
748.48	45327.69
748.66	45094.22
748.85	45225.29
749.03	44895.57
749.22	45112.66
749.41	44969.30
749.59	44881.24
749.78	44561.75
749.96	44451.16
750.15	44602.71
750.33	44889.43
750.52	44559.70
750.70	44668.25
750.89	44735.83
751.07	44588.38
751.26	44551.51
751.44	44582.23
751.63	44864.85
751.81	44410.20
752.00	44418.39
752.18	44856.66
752.37	44776.79
752.55	44119.39
752.74	43922.79
752.92	43873.63
753.10	43662.69
753.29	44205.41
753.47	43865.44
753.66	43644.26
753.84	43736.42
754.03	43603.30
754.21	43955.55
754.40	44250.46
754.58	43851.11
754.77	43732.32
754.95	43713.89
755.14	43562.34
755.32	43717.99
755.51	43613.54
755.69	43582.82
755.88	43683.17
756.06	43539.82
756.24	43455.85
756.43	43294.06
756.61	43296.11
756.80	43496.81
756.98	43162.99
757.17	43343.21
757.35	43119.98
757.54	43146.61
757.72	43263.34
757.90	42851.70
758.09	43255.15
758.27	43316.59
758.46	42644.85
758.64	42857.84
758.83	43103.60
759.01	43097.45
759.19	43550.06
759.38	43054.45
759.56	42929.52
759.75	42685.81
759.93	42868.08
760.12	42851.70
760.30	42657.14
760.48	42759.54
760.67	42399.10
760.85	42751.35
761.04	42747.25
761.22	42685.81
761.40	42440.06
761.59	42397.05
761.77	42265.98
761.96	42245.50
762.14	42114.43
762.32	42165.63
762.51	42110.33
762.69	42028.41
762.88	41913.73
763.06	42038.65
763.24	42435.96
763.43	42022.27
763.61	42096.00
763.80	42139.00
763.98	42032.51
764.16	42186.11
764.35	41606.53
764.53	41661.83
764.72	41835.91
764.90	41610.63
765.08	42040.70
765.27	41561.48
765.45	41647.49
765.63	41393.54
765.82	41694.60
766.00	41416.07
766.18	41760.13
766.37	41801.09
766.55	41278.86
766.74	41190.80
766.92	40977.81
767.10	41100.68
767.29	41012.62
767.47	40662.42
767.65	41166.22
767.84	40488.34
768.02	41022.86
768.20	40877.46
768.39	40816.02
768.57	40805.78
768.75	40615.32
768.94	41031.05
769.12	40668.56
769.30	40560.02
769.49	40590.74
769.67	40562.07
769.85	40078.75
770.04	40215.96
770.22	40050.08
770.40	40172.96
770.59	40105.37
770.77	40531.35
770.95	40179.10
771.14	40148.38
771.32	39880.10
771.50	39443.88
771.69	40101.28
771.87	40355.22
772.05	39859.62
772.24	39677.35
772.42	39855.52
772.60	39589.28
772.78	39386.54
772.97	39417.25
773.15	40052.12
773.33	39251.37
773.52	39333.29
773.70	39728.55
773.88	39671.20
774.07	39634.34
774.25	39511.46
774.43	39789.98
774.61	39642.53
774.80	39667.11
774.98	40052.12
775.16	39779.74
775.34	39896.48
775.53	39314.86
775.71	39890.34
775.89	39749.03
776.08	39828.90
776.26	39736.74
776.44	39620.00
776.62	39962.01
776.81	39493.03
776.99	39939.49
777.17	39927.20
777.35	39988.64
777.54	40289.69
777.72	39749.03
777.90	39972.25
778.08	39937.44
778.27	39859.62
778.45	40017.31
778.63	40025.50
778.81	39966.11
779.00	40990.09
779.18	40381.85
779.36	40492.44
779.54	39902.62
779.73	40408.47
779.91	39980.45
780.09	40097.18
780.27	40344.98
780.46	40191.39
780.64	40600.98
780.82	40211.87
781.00	40721.81
781.19	40730.00
781.37	40889.74
781.55	40433.05
781.73	40777.11
781.91	40789.39
782.10	40656.28
782.28	40670.61
782.46	40375.70
782.64	40588.69
782.82	40537.49
783.01	40469.91
783.19	40797.59
783.37	40840.59
783.55	40834.45
783.74	40875.41
783.92	40670.61
784.10	40797.59
784.28	40607.12
784.46	40560.02
784.64	40564.12
784.83	40938.90
785.01	40590.74
785.19	40932.75
785.37	41020.81
785.55	40707.47
785.74	40428.95
785.92	40584.60
786.10	40252.83
786.28	40754.58
786.46	40324.50
786.64	40488.34
786.83	40660.37
787.01	40949.14
787.19	40349.08
787.37	40392.09
787.55	40547.73
787.74	40342.94
787.92	40197.53
788.10	40160.67
788.28	39812.51
788.46	40330.65
788.64	40037.79
788.82	40322.46
789.01	40359.32
789.19	40207.77
789.37	40156.57
789.55	40181.15
789.73	39882.14
789.91	40048.03
790.09	39947.68
790.28	39812.51
790.46	39243.18
790.64	39691.68
790.82	39587.24
791.00	39493.03
791.18	39587.24
791.36	39642.53
791.55	39245.23
791.73	39560.61
791.91	39271.85
792.09	39130.54
792.27	38815.15
792.45	39210.41
792.63	38919.60
792.81	38866.35
793.00	39116.20
793.18	38401.46
793.36	38704.56
793.54	38491.57
793.72	38354.36
793.90	38247.86
794.08	38141.37
794.26	38327.74
794.44	38159.80
794.62	38049.21
794.81	38399.41
794.99	37873.09
795.17	38024.64
795.35	37586.37
795.53	38139.32
795.71	38116.79
795.89	37621.19
796.07	37526.98
796.25	37494.21
796.43	37363.14
796.61	37168.58
796.80	37178.82
796.98	37203.40
797.16	37051.85
797.34	36982.22
797.52	36965.84
797.70	37600.71
797.88	37072.33
798.06	36783.57
798.24	37207.50
798.42	36683.22
798.60	36503.00
798.78	36656.59
798.96	36900.30
799.14	36419.03
799.32	36525.52
799.51	36197.85
799.69	36341.21
799.87	36279.77
800.05	35919.32
800.23	35737.05
800.41	35726.81
800.59	35958.24
800.77	35919.32
800.95	35923.42
801.13	36009.43
801.31	35931.61
801.49	35786.21
801.67	35331.56
801.85	35724.77
802.03	35141.10
802.21	35104.23
802.39	35104.23
802.57	35243.49
802.75	35300.84
802.93	35558.88
803.11	34825.71
803.29	34713.07
803.47	35012.07
803.65	34741.74
803.83	34952.68
804.01	34541.04
804.19	34364.92
804.37	34250.23
804.55	34156.02
804.73	34121.21
804.91	34272.76
805.09	34225.65
805.27	34143.74
805.45	34176.50
805.63	34088.44
805.81	34125.30
805.99	34029.05
806.17	33826.30
806.35	34076.15
806.53	33496.58
806.71	33410.56
806.89	33924.60
807.07	33295.88
807.25	33476.10
807.43	33445.38
807.61	33740.29
807.79	33181.19
807.97	33461.76
808.15	33318.40
808.33	33324.55
808.51	32732.68
808.69	33310.21
808.87	32658.96
809.05	32706.06
809.23	32486.93
809.41	32630.29
809.59	32587.28
809.77	32699.92
809.95	32615.95
810.13	32552.46
810.31	32605.71
810.49	32212.50
810.67	32075.29
810.84	32392.72
811.02	32515.60
811.20	31780.38
811.38	32218.64
811.56	31680.03
811.74	31983.13
811.92	31993.37
812.10	31755.80
812.28	32128.53
812.46	31872.54
812.64	31802.91
812.82	31686.17
813.00	31614.49
813.18	32052.76
813.36	30942.76
813.53	31581.73
813.71	31272.48
813.89	31360.55
814.07	31452.70
814.25	31505.95
814.43	31067.69
814.61	31247.91
814.79	31100.45
814.97	30965.29
815.15	30961.19
815.33	30477.87
815.50	31182.37
815.68	30973.48
815.86	30846.51
816.04	30359.09
816.22	30524.97
816.40	30428.72
816.58	30723.63
816.76	30490.16
816.94	30590.51
817.11	30152.24
817.29	30107.19
817.47	30416.43
817.65	30119.48
817.83	30465.58
818.01	29963.83
818.19	30219.83
818.37	30055.99
818.54	29711.93
818.72	29871.67
818.90	29982.26
819.08	30197.30
819.26	29617.72
819.44	29814.33
819.62	29924.92
819.80	29935.16
819.97	29556.28
820.15	29853.24
820.33	29337.15
820.51	29787.71
820.69	29572.67
820.87	29912.63
821.05	29599.29
821.22	29353.54
821.40	29118.02
821.58	29218.37
821.76	29075.01
821.94	29398.59
822.12	29083.20
822.29	29081.16
822.47	29064.77
822.65	29400.64
822.83	28921.41
823.01	29064.77
823.19	29195.84
823.36	28618.32
823.54	28841.54
823.72	28763.72
823.90	28925.51
824.08	28685.90
824.25	28792.39
824.43	28655.18
824.61	28341.84
824.79	28524.11
824.97	28591.69
825.15	28266.06
825.32	29042.24
825.50	28511.82
825.68	28425.81
825.86	28315.22
826.04	28546.64
826.21	28589.64
826.39	28196.43
826.57	28427.85
826.75	28323.41
826.93	27960.92
827.10	27901.53
827.28	27825.75
827.46	28069.46
827.64	28079.70
827.81	27969.11
827.99	28012.12
828.17	27711.07
828.35	27713.11
828.53	27743.83
828.70	27680.35
828.88	27743.83
829.06	27987.54
829.24	27956.82
829.41	27795.03
829.59	27743.83
829.77	27690.59
829.95	27483.74
830.12	27627.10
830.30	27745.88
830.48	27672.15
830.66	27455.07
830.84	27563.61
831.01	27119.20
831.19	27369.05
831.37	27211.36
831.55	26961.51
831.72	27102.82
831.90	27041.38
832.08	27115.11
832.25	27143.78
832.43	27098.72
832.61	26900.07
832.79	26678.89
832.96	26773.10
833.14	26973.80
833.32	26975.84
833.50	26986.08
833.67	26822.25
833.85	26947.17
834.03	26609.26
834.20	26846.82
834.38	26990.18
834.56	26910.31
834.74	26740.33
834.91	26498.67
835.09	26740.33
835.27	26463.85
835.44	26289.77
835.62	26220.14
835.80	26289.77
835.98	26162.80
836.15	26355.31
836.33	26113.65
836.51	26154.61
836.68	26142.32
836.86	26017.40
837.04	26300.01
837.21	26218.10
837.39	26119.79
837.57	26244.72
837.75	26408.56
837.92	25968.24
838.10	26170.99
838.28	25790.07
838.45	25984.63
838.63	25796.21
838.81	25831.03
838.98	25714.30
839.16	25702.01
839.34	25656.95
839.51	25626.23
839.69	25351.81
839.87	25855.61
840.04	25661.05
840.22	25847.41
840.40	25826.93
840.57	25214.59
840.75	25403.00
840.93	25212.54
841.10	25749.11
841.28	25708.15
841.46	25677.43
841.63	25321.09
841.81	25280.13
841.98	25607.80
842.16	25093.76
842.34	25181.82
842.51	24811.14
842.69	25454.20
842.87	25413.24
843.04	25101.95
843.22	24886.92
843.40	25093.76
843.57	25134.72
843.75	24944.26
843.92	25042.56
844.10	24852.10
844.28	25106.05
844.45	25132.67
844.63	24856.20
844.81	24839.81
844.98	24557.19
845.16	25138.82
845.33	24692.36
845.51	24788.61
845.69	24477.32
845.86	24647.30
846.04	24497.80
846.21	24604.30
846.39	24411.79
846.57	24344.20
846.74	24426.12
846.92	24553.10
847.09	24307.34
847.27	24348.30
847.45	24276.62
847.62	24274.57
847.80	24374.92
847.97	24204.94
848.15	24198.80
848.32	24346.25
848.50	24276.62
848.68	24008.34
848.85	24086.16
849.03	23717.53
849.20	24000.15
849.38	23881.36
849.56	24063.63
849.73	23879.32
849.91	23994.00
850.08	23834.26
850.26	23539.35
850.43	23805.59
850.61	23920.28
850.78	23590.55
850.96	23899.80
851.14	23662.23
851.31	23813.78
851.49	23623.32
851.66	23695.00
851.84	23774.87
852.01	23719.57
852.19	23320.22
852.36	23436.95
852.54	23256.73
852.71	23402.14
852.89	23135.90
853.07	23520.92
853.24	23535.26
853.42	23262.88
853.59	23332.51
853.77	23408.28
853.94	23682.71
854.12	23232.16
854.29	23142.05
854.47	23248.54
854.64	23350.94
854.82	23195.29
854.99	23043.74
855.17	22929.06
855.34	22906.53
855.52	23238.30
855.69	22963.87
855.87	23045.79
856.04	22750.88
856.22	22990.50
856.39	22744.74
856.57	22884.00
856.74	22777.51
856.92	22834.85
857.09	22355.63
857.27	22898.34
857.44	22933.15
857.62	22406.83
857.79	22816.42
857.97	22505.13
858.14	22605.48
858.32	22533.80
858.49	22376.11
858.67	22402.73
858.84	22429.35
859.02	22546.09
859.19	22337.20
859.37	22154.93
859.54	22142.64
859.72	22449.83
859.89	22136.49
860.06	22474.41
860.24	22351.53
860.41	22556.33
860.59	22089.39
860.76	22206.13
860.94	22021.81
861.11	21978.80
861.29	22195.89
861.46	21970.61
861.64	21874.35
861.81	22021.81
861.98	21993.14
862.16	21698.23
862.33	21368.51
862.51	21661.37
862.68	21956.27
862.86	21767.86
863.03	21642.93
863.21	21571.25
863.38	22142.64
863.55	21546.68
863.73	21505.72
863.90	21538.49
864.08	21446.33
864.25	21391.03
864.43	21550.78
864.60	21311.16
864.77	21554.87
864.95	21180.09
865.12	21411.51
865.30	21382.84
865.47	21151.42
865.64	21462.71
865.82	21538.49
865.99	21479.10
866.17	21409.47
866.34	21106.37
866.51	20864.71
866.69	21108.41
866.86	21073.60
867.04	21212.86
867.21	21112.51
867.38	20731.59
867.56	20719.30
867.73	20805.31
867.91	20664.00
868.08	20758.21
868.25	20666.05
868.43	20874.95
868.60	20700.87
868.78	20635.33
868.95	20723.40
869.12	20580.04
869.30	20328.14
869.47	20610.76
869.64	20217.55
869.82	20248.27
869.99	20332.23
870.16	20297.42
870.34	20373.19
870.51	20534.98
870.69	20014.80
870.86	20080.33
871.03	20399.82
871.21	19965.65
871.38	20336.33
871.55	20086.48
871.73	20008.65
871.90	20000.46
872.07	20002.51
872.25	19754.71
872.42	19574.49
872.59	19918.54
872.77	20072.14
872.94	19687.12
873.11	19844.82
873.29	19543.77
873.46	19709.65
873.63	19508.95
873.81	19439.32
873.98	19498.71
874.15	19586.77
874.33	19394.26
874.50	19371.74
874.67	19216.09
874.85	19070.68
875.02	19279.58
875.19	19058.40
875.37	19111.64
875.54	18847.46
875.71	19238.62
875.88	18786.02
876.06	18999.01
876.23	18986.72
876.40	18941.66
876.58	18693.86
876.75	18638.56
876.92	18671.33
877.10	18960.09
877.27	18700.00
877.44	18759.39
877.61	18517.73
877.79	18566.88
877.96	18525.93
878.13	18470.63
878.31	18568.93
878.48	18542.31
878.65	18667.24
878.82	18376.42
879.00	18194.15
879.17	18323.18
879.34	18357.99
879.51	18214.63
879.69	17878.77
879.86	18018.03
880.03	18104.04
880.21	17993.45
880.38	18114.28
880.55	18331.37
880.72	17870.58
880.90	18165.48
881.07	18061.04
881.24	17868.53
881.41	17929.97
881.59	17913.58
881.76	17780.46
881.93	17649.39
882.10	17553.14
882.28	17692.40
882.45	17757.94
882.62	17594.10
882.79	17843.95
882.96	17471.22
883.14	17450.74
883.31	17598.20
883.48	17247.99
883.65	17604.34
883.83	17481.46
884.00	17520.37
884.17	17272.57
884.34	17424.12
884.51	17383.16
884.69	17518.32
884.86	17503.99
885.03	17153.79
885.20	17104.64
885.38	17256.18
885.55	16977.66
885.72	17338.10
885.89	16797.44
886.06	17168.12
886.24	17397.49
886.41	17073.92
886.58	17233.66
886.75	17313.53
886.92	16901.89
887.10	16998.14
887.27	16854.78
887.44	17135.35
887.61	16996.09
887.78	17065.72
887.95	17020.67
888.13	16873.21
888.30	17192.70
888.47	16766.72
888.64	16858.88
888.81	16641.79
888.99	16692.99
889.16	16518.92
889.33	16598.79
889.50	16574.21
889.67	16705.28
889.84	16350.98
890.01	16649.99
890.19	16512.77
890.36	16594.69
890.53	16258.82
890.70	16201.48
890.87	16291.59
891.04	16441.09
891.22	16305.93
891.39	16305.93
891.56	16310.02
891.73	16422.66
891.90	16039.69
892.07	16031.50
892.24	16275.21
892.42	15935.24
892.59	15853.33
892.76	16051.98
892.93	16019.21
893.10	15937.29
893.27	15982.35
893.44	15898.38
893.61	16078.60
893.79	16051.98
893.96	15886.09
894.13	16060.17
894.30	15838.99
894.47	15773.46
894.64	15765.26
894.81	15853.33
894.98	15847.18
895.15	15765.26
895.33	15937.29
895.50	15941.39
895.67	15675.15
895.84	15601.43
896.01	15746.83
896.18	15611.67
896.35	15730.45
896.52	15724.30
896.69	15738.64
896.86	16037.64
897.04	15550.23
897.21	15752.98
897.38	15359.77
897.55	15601.43
897.72	15699.73
897.89	15501.08
898.06	15681.30
898.23	15552.27
898.40	15597.33
898.57	15501.08
898.74	15607.57
898.91	15372.05
899.08	15601.43
899.26	15638.29
899.43	15673.10
899.60	15480.60
899.77	15433.49
899.94	15630.10
900.11	15286.04
900.28	15568.66
900.45	15396.63
900.62	15314.71
900.79	15503.12
900.96	15378.20
901.13	15517.46
901.30	15595.28
901.47	15322.90
901.64	15494.93
901.81	15529.75
901.98	15019.80
902.15	15445.78
902.32	15490.84
902.49	15335.19
902.66	15378.20
902.83	15492.88
903.01	15355.67
903.18	15464.21
903.35	15472.40
903.52	15474.45
903.69	15384.34
903.86	15478.55
904.03	15441.68
904.20	15318.81
904.37	15367.96
904.54	15288.09
904.71	15038.23
904.88	15443.73
905.05	15310.61
905.22	15222.55
905.39	15232.79
905.56	15310.61
905.73	15374.10
905.90	15449.88
906.07	15370.01
906.24	15388.44
906.41	15261.46
906.58	15202.07
906.75	15261.46
906.92	15163.16
907.09	15351.57
907.26	15519.51
907.43	15136.54
907.60	14954.27
907.77	15349.53
907.93	15460.12
908.10	15230.74
908.27	15109.91
908.44	15228.70
908.61	15163.16
908.78	15234.84
908.95	15195.93
909.12	15290.13
909.29	15132.44
909.46	14905.12
909.63	15161.11
909.80	15255.32
909.97	15114.01
910.14	15273.75
910.31	14960.41
910.48	14999.32
910.65	15150.87
910.82	15130.39
910.99	14839.58
911.16	15042.33
911.33	14837.53
911.50	15093.53
911.66	15089.43
911.83	15013.66
912.00	14786.33
912.17	14909.21
912.34	14669.60
912.51	14890.78
912.68	14366.50
912.85	14825.25
913.02	14950.17
913.19	14720.80
913.36	14516.00
913.53	14583.59
913.70	14538.53
913.86	14503.71
914.03	14448.42
914.20	14466.85
914.37	14626.59
914.54	14458.66
914.71	14479.14
914.88	14395.17
915.05	14389.03
915.22	14389.03
915.39	14325.54
915.55	14493.47
915.72	14219.05
915.89	14255.91
916.06	13881.13
916.23	14343.97
916.40	13801.26
916.57	13834.03
916.74	14161.70
916.91	13971.24
917.07	13864.75
917.24	13930.28
917.41	14038.83
917.58	13844.27
917.75	13655.86
917.92	13545.27
918.09	13707.05
918.26	13750.06
918.42	13559.60
918.59	13590.32
918.76	13397.81
918.93	13260.60
919.10	13553.46
919.27	13418.29
919.44	13391.67
919.60	13463.35
919.77	13354.80
919.94	13338.42
920.11	13360.95
920.28	13324.08
920.45	13121.34
920.61	12988.22
920.78	12912.44
920.95	12949.31
921.12	13141.82
921.29	12832.57
921.46	13133.62
921.62	12842.81
921.79	12857.15
921.96	12814.14
922.13	12648.26
922.30	12781.37
922.47	12738.37
922.63	12648.26
922.80	12545.86
922.97	12629.82
923.14	12228.42
923.31	12447.55
923.47	12341.06
923.64	12296.00
923.81	12502.85
923.98	12226.37
924.15	12226.37
924.32	11822.92
924.48	12087.11
924.65	12218.18
924.82	12216.13
924.99	12060.49
925.15	11716.43
925.32	12056.39
925.49	11738.96
925.66	11589.46
925.83	11687.76
925.99	11728.72
926.16	11546.45
926.33	11593.55
926.50	11554.64
926.67	11433.81
926.83	11450.19
927.00	11306.84
927.17	11452.24
927.34	11358.03
927.50	11194.20
927.67	11358.03
927.84	11151.19
928.01	10966.87
928.17	10991.45
928.34	10962.78
928.51	11009.88
928.68	10987.35
928.84	10962.78
929.01	10755.93
929.18	10667.87
929.35	10721.12
929.51	10788.70
929.68	10352.48
929.85	10415.97
930.02	10393.44
930.18	10680.16
930.35	10350.43
930.52	10534.75
930.69	10446.69
930.85	10614.62
931.02	10026.86
931.19	10387.30
931.36	10368.87
931.52	10211.17
931.69	10260.32
931.86	10151.78
932.02	10041.19
932.19	10000.23
932.36	10035.05
932.53	10092.39
932.69	9807.72
932.86	9811.82
933.03	9938.79
933.19	9404.27
933.36	9645.93
933.53	10014.57
933.70	9582.45
933.86	9555.82
934.03	9578.35
934.20	9369.46
934.36	9445.23
934.53	9191.28
934.70	9006.97
934.86	9248.63
935.03	9152.37
935.20	8978.30
935.36	8824.70
935.53	9015.16
935.70	8810.36
935.86	8793.98
936.03	8615.80
936.20	8562.56
936.36	8558.46
936.53	8423.30
936.70	8460.16
936.86	8327.04
937.03	8404.86
937.20	8218.50
937.36	8296.32
937.53	7989.13
937.70	7956.36
937.86	7958.41
938.03	7864.20
938.20	7790.47
938.36	7851.91
938.53	7677.83
938.70	7518.09
938.86	7497.61
939.03	7319.44
939.20	7063.44
939.36	7229.33
939.53	7036.82
939.70	7288.72
939.86	6991.77
940.03	6834.07
940.19	6782.87
940.36	6672.28
940.53	6815.64
940.69	6567.84
940.86	6602.65
941.03	6360.99
941.19	6301.60
941.36	6408.09
941.52	6291.36
941.69	6111.14
941.86	6191.01
942.02	6221.73
942.19	5906.34
942.35	6197.15
942.52	5814.18
942.69	5963.68
942.85	5752.74
943.02	5824.42
943.18	5803.94
943.35	5662.63
943.52	5722.02
943.68	5638.06
943.85	5615.53
944.01	5478.32
944.18	5537.71
944.35	5613.48
944.51	5509.04
944.68	5529.52
944.84	5445.55
945.01	5337.01
945.17	5390.25
945.34	5316.53
945.51	5605.29
945.67	5355.44
945.84	5433.26
946.00	5277.62
946.17	5414.83
946.33	5117.87
946.50	5275.57
946.67	5328.81
946.83	5277.62
947.00	5390.25
947.16	5169.07
947.33	5261.23
947.49	5240.75
947.66	5253.04
947.82	5201.84
947.99	5158.83
948.16	5255.09
948.32	5324.72
948.49	5283.76
948.65	5390.25
948.82	5367.73
948.98	5269.42
949.15	5115.83
949.31	5242.80
949.48	5185.46
949.64	5220.27
949.81	5281.71
949.97	5056.43
950.14	5302.19
950.30	5205.94
950.47	5263.28
950.63	5332.91
950.80	5083.06
950.96	5326.77
951.13	5222.32
951.30	5328.81
951.46	5230.51
951.63	5367.73
951.79	5289.90
951.96	5330.86
952.12	5394.35
952.29	5365.68
952.45	5240.75
952.62	5298.10
952.78	5343.15
952.94	5263.28
953.11	5332.91
953.27	5197.74
953.44	5341.10
953.60	5371.82
953.77	5496.75
953.93	5349.29
954.10	5205.94
954.26	5390.25
954.43	5349.29
954.59	5410.73
954.76	5525.42
954.92	5408.69
955.09	5445.55
955.25	5300.14
955.42	5230.51
955.58	5375.92
955.75	5470.12
955.91	5382.06
956.07	5386.16
956.24	5230.51
956.40	5484.46
956.57	5453.74
956.73	5326.77
956.90	5382.06
957.06	5349.29
957.23	5353.39
957.39	5425.07
957.56	5361.58
957.72	5210.03
957.88	5302.19
958.05	5519.28
958.21	5447.60
958.38	5435.31
958.54	5468.08
958.71	5482.41
958.87	5322.67
959.03	5248.94
959.20	5388.21
959.36	5369.77
959.53	5367.73
959.69	5314.48
959.85	5375.92
960.02	5298.10
960.18	5445.55
960.35	5427.12
960.51	5636.01
960.68	5275.57
960.84	5306.29
961.00	5294.00
961.17	5275.57
961.33	5410.73
961.50	5345.20
961.66	5412.78
961.82	5332.91
961.99	5418.93
962.15	5418.93
962.31	5283.76
962.48	5324.72
962.64	5402.54
962.81	5353.39
962.97	5283.76
963.13	5183.41
963.30	5380.01
963.46	5253.04
963.62	5367.73
963.79	5320.62
963.95	5230.51
964.12	5246.90
964.28	5375.92
964.44	5412.78
964.61	5320.62
964.77	5420.97
964.93	5334.96
965.10	5111.73
965.26	5201.84
965.42	5218.22
965.59	5095.35
965.75	5195.70
965.92	5261.23
966.08	5277.62
966.24	5201.84
966.41	5259.18
966.57	5167.03
966.73	5181.36
966.90	5308.34
967.06	5183.41
967.22	5156.79
967.39	5089.20
967.55	5105.59
967.71	5138.35
967.88	5136.31
968.04	5130.16
968.20	5085.11
968.37	4913.08
968.53	5201.84
968.69	4913.08
968.85	5040.05
969.02	5148.59
969.18	5091.25
969.34	4990.90
969.51	5029.81
969.67	5027.76
969.83	4958.13
970.00	5064.63
970.16	4833.21
970.32	5150.64
970.48	5197.74
970.65	5054.39
970.81	4933.56
970.97	4976.56
971.14	4855.73
971.30	4958.13
971.46	4782.01
971.63	4908.98
971.79	4896.69
971.95	4906.93
972.11	4829.11
972.28	4896.69
972.44	4982.71
972.60	4902.84
972.76	4927.41
972.93	4886.45
973.09	4835.25
973.25	4755.38
973.42	4683.70
973.58	4951.99
973.74	4822.97
973.90	4796.34
974.07	4739.00
974.23	4863.93
974.39	4812.73
974.55	4724.66
974.72	4831.16
974.88	4726.71
975.04	4786.10
975.20	4624.31
975.37	4689.85
975.53	4612.03
975.69	4683.70
975.85	4718.52
976.01	4523.96
976.18	4657.08
976.34	4589.50
976.50	4624.31
976.66	4720.57
976.83	4612.03
976.99	4583.35
977.15	4575.16
977.31	4444.09
977.47	4712.38
977.64	4624.31
977.80	4601.79
977.96	4571.07
978.12	4503.48
978.29	4442.04
978.45	4431.80
978.61	4384.70
978.77	4550.59
978.93	4523.96
979.10	4538.30
979.26	4433.85
979.42	4351.93
979.58	4542.39
979.74	4300.73
979.91	4421.56
980.07	4372.41
980.23	4366.27
980.39	4386.75
980.55	4386.75
980.71	4319.17
980.88	4360.13
981.04	4302.78
981.20	4237.25
981.36	4235.20
981.52	4337.60
981.68	4093.89
981.85	4370.37
982.01	4274.11
982.17	4167.62
982.33	4097.99
982.49	4335.55
982.65	4169.66
982.82	4184.00
982.98	4224.96
983.14	4224.96
983.30	4192.19
983.46	4237.25
983.62	4247.49
983.79	4186.05
983.95	4184.00
984.11	3987.40
984.27	4059.07
984.43	4112.32
984.59	4145.09
984.75	4151.23
984.91	4124.61
985.08	4153.28
985.24	3958.72
985.40	3917.76
985.56	4024.26
985.72	3975.11
985.88	4130.75
986.04	3925.96
986.20	3936.20
986.37	4016.07
986.53	3917.76
986.69	4087.75
986.85	3850.18
987.01	4038.59
987.17	4048.83
987.33	3921.86
987.49	3905.48
987.65	3925.96
987.82	3823.56
987.98	3827.65
988.14	3932.10
988.30	3997.64
988.46	3880.90
988.62	3819.46
988.78	3827.65
988.94	3876.80
989.10	3770.31
989.26	3755.97
989.42	3829.70
989.59	3788.74
989.75	3657.67
989.91	3872.71
990.07	3592.14
990.23	3678.15
990.39	3674.06
990.55	3770.31
990.71	3729.35
990.87	3729.35
991.03	3755.97
991.19	3715.02
991.35	3653.58
991.51	3616.71
991.67	3815.37
991.83	3688.39
992.00	3649.48
992.16	3649.48
992.32	3751.88
992.48	3801.03
992.64	3524.55
992.80	3631.05
992.96	3647.43
993.12	3602.38
993.28	3555.27
993.44	3575.75
993.60	3571.66
993.76	3557.32
993.92	3524.55
994.08	3604.42
994.24	3592.14
994.40	3510.22
994.56	3557.32
994.72	3461.07
994.88	3497.93
995.04	3588.04
995.20	3465.16
995.36	3467.21
995.52	3514.31
995.68	3465.16
995.84	3413.96
996.00	3493.83
996.16	3454.92
996.32	3399.63
996.48	3416.01
996.64	3545.03
996.80	3280.85
996.96	3330.00
997.12	3428.30
997.28	3348.43
997.44	3289.04
997.60	3401.68
997.76	3274.70
997.92	3289.04
998.08	3330.00
998.24	3272.65
998.40	3401.68
998.56	3370.96
998.72	3313.61
998.88	3321.81
999.04	3215.31
999.20	3317.71
999.36	3157.97
999.52	3295.18
999.68	3246.03
999.84	3286.99
1000.00	3264.46
1000.16	3252.17
1000.32	3186.64
1000.48	3280.85
1000.64	3059.67
1000.80	3145.68
1000.95	3071.95
1001.11	3098.58
1001.27	3002.32
1001.43	3123.15
1001.59	3090.38
1001.75	3153.87
1001.91	3176.40
1002.07	3125.20
1002.23	3086.29
1002.39	3071.95
1002.55	3143.63
1002.71	3012.56
1002.87	3094.48
1003.03	3082.19
1003.19	3063.76
1003.34	3030.99
1003.50	3033.04
1003.66	3076.05
1003.82	3110.86
1003.98	2983.89
1004.14	3063.76
1004.30	2938.84
1004.46	2961.36
1004.62	3059.67
1004.78	2899.92
1004.94	2955.22
1005.09	3084.24
1005.25	3014.61
1005.41	2942.93
1005.57	2912.21
1005.73	3059.67
1005.89	2901.97
1006.05	3055.57
1006.21	2973.65
1006.37	2908.12
1006.52	2881.49
1006.68	2904.02
1006.84	2914.26
1007.00	2856.92
1007.16	2987.99
1007.32	2756.57
1007.48	2867.16
1007.64	2818.00
1007.79	2834.39
1007.95	2727.89
1008.11	2861.01
1008.27	2844.63
1008.43	2856.92
1008.59	2803.67
1008.75	2873.30
1008.91	2820.05
1009.06	2807.77
1009.22	2848.72
1009.38	2791.38
1009.54	2721.75
1009.70	2734.04
1009.86	2756.57
1010.01	2752.47
1010.17	2746.33
1010.33	2869.20
1010.49	2713.56
1010.65	2789.33
1010.81	2639.83
1010.96	2762.71
1011.12	2645.98
1011.28	2697.17
1011.44	2781.14
1011.60	2635.74
1011.76	2637.78
1011.91	2660.31
1012.07	2572.25
1012.23	2594.78
1012.39	2574.30
1012.55	2627.54
1012.71	2514.91
1012.86	2590.68
1013.02	2592.73
1013.18	2541.53
1013.34	2715.61
1013.50	2678.74
1013.65	2660.31
1013.81	2521.05
1013.97	2582.49
1014.13	2605.02
1014.29	2623.45
1014.44	2600.92
1014.60	2576.34
1014.76	2547.67
1014.92	2510.81
1015.07	2562.01
1015.23	2529.24
1015.39	2439.13
1015.55	2488.28
1015.71	2557.91
1015.86	2478.04
1016.02	2418.65
1016.18	2432.99
1016.34	2525.15
1016.49	2475.99
1016.65	2531.29
1016.81	2402.27
1016.97	2521.05
1017.12	2355.16
1017.28	2396.12
1017.44	2340.83
1017.60	2451.42
1017.75	2533.34
1017.91	2428.89
1018.07	2510.81
1018.23	2463.71
1018.38	2357.21
1018.54	2373.60
1018.70	2351.07
1018.86	2342.88
1019.01	2375.64
1019.17	2396.12
1019.33	2461.66
1019.49	2404.32
1019.64	2451.42
1019.80	2373.60
1019.96	2428.89
1020.12	2385.88
1020.27	2330.59
1020.43	2357.21
1020.59	2412.51
1020.74	2353.12
1020.90	2402.27
1021.06	2330.59
1021.22	2330.59
1021.37	2330.59
1021.53	2248.67
1021.69	2334.68
1021.84	2203.61
1022.00	2379.74
1022.16	2344.92
1022.31	2297.82
1022.47	2287.58
1022.63	2310.11
1022.79	2170.85
1022.94	2217.95
1023.10	2303.96
1023.26	2195.42
1023.41	2336.73
1023.57	2232.29
1023.73	2215.90
1023.88	2267.10
1024.04	2240.48
1024.20	2306.01
1024.35	2260.96
1024.51	2222.05
1024.67	2236.38
1024.82	2367.45
1024.98	2248.67
1025.14	2158.56
1025.29	2133.98
1025.45	2285.53
1025.61	2162.66
1025.76	2201.57
1025.92	2183.13
1026.08	2256.86
1026.23	2238.43
1026.39	2273.25
1026.55	2152.42
1026.70	2168.80
1026.86	2172.89
1027.02	2164.70
1027.17	2152.42
1027.33	2217.95
1027.48	2088.93
1027.64	2166.75
1027.80	2117.60
1027.95	2236.38
1028.11	2054.11
1028.27	2121.70
1028.42	2172.89
1028.58	2115.55
1028.73	2041.82
1028.89	2062.30
1029.05	2213.85
1029.20	2080.74
>>>>>End Processed Spectral Data<<<<<
