SpectraSuite Data File
++++++++++++++++++++++++++++++++++++
Date: Fri Jun 02 14:52:25 CEST 2017
User: INFO_000
Dark Spectrum Present: No
Reference Spectrum Present: No
Number of Sampled Component Spectra: 1
Spectrometers: USB4H00879
Integration Time (usec): 80000 (USB4H00879)
Spectra Averaged: 1 (USB4H00879)
Boxcar Smoothing: 0 (USB4H00879)
Correct for Electrical Dark: No (USB4H00879)
Strobe/Lamp Enabled: No (USB4H00879)
Correct for Detector Non-linearity: No (USB4H00879)
Correct for Stray Light: No (USB4H00879)
Number of Pixels in Processed Spectrum: 3648
>>>>>Begin Processed Spectral Data<<<<<
345.13	1286.12
345.34	1286.12
345.56	1286.12
345.78	1318.89
345.99	1271.79
346.21	1695.72
346.42	1669.09
346.64	1609.70
346.86	1775.59
347.07	1581.03
347.29	1679.33
347.50	1597.42
347.72	1669.09
347.94	1701.86
348.15	1566.70
348.37	1650.66
348.59	1720.29
348.80	1699.81
349.02	1810.40
349.23	1875.94
349.45	1886.18
349.67	1871.84
349.88	1865.70
350.10	2035.68
350.31	1867.75
350.53	1816.55
350.75	1988.58
350.96	1785.83
351.18	1933.28
351.39	1847.27
351.61	1877.99
351.82	1849.32
352.04	1957.86
352.26	1843.17
352.47	2013.15
352.69	2017.25
352.90	1742.82
353.12	1904.61
353.34	1863.65
353.55	1904.61
353.77	1927.14
353.98	1861.60
354.20	1847.27
354.41	1920.99
354.63	1943.52
354.85	2025.44
355.06	1914.85
355.28	1765.35
355.49	1896.42
355.71	1896.42
355.92	1804.26
356.14	1935.33
356.35	1908.71
356.57	1900.52
356.79	1968.10
357.00	1892.32
357.22	1884.13
357.43	1871.84
357.65	2007.01
357.86	1894.37
358.08	1869.80
358.29	2015.20
358.51	2037.73
358.72	1959.91
358.94	1947.62
359.16	1941.47
359.37	1955.81
359.59	1931.23
359.80	1984.48
360.02	2017.25
360.23	1988.58
360.45	1996.77
360.66	1898.47
360.88	1855.46
361.09	1974.24
361.31	2074.59
361.52	1982.43
361.74	2097.12
361.95	2066.40
362.17	1978.34
362.38	2064.35
362.60	2093.02
362.81	1988.58
363.03	1986.53
363.24	2062.30
363.46	2037.73
363.67	2060.26
363.89	2052.06
364.10	1988.58
364.32	2002.91
364.53	2015.20
364.75	1927.14
364.96	1976.29
365.18	1990.63
365.39	1994.72
365.61	1951.71
365.82	2146.27
366.04	2027.49
366.25	1966.05
366.47	2086.88
366.68	2039.78
366.90	2099.17
367.11	2068.45
367.33	2164.70
367.54	2066.40
367.76	2068.45
367.97	2111.46
368.19	2058.21
368.40	2070.50
368.62	1970.15
368.83	1935.33
369.05	2082.78
369.26	2060.26
369.48	1900.52
369.69	2068.45
369.91	2101.22
370.12	2002.91
370.33	2119.65
370.55	2017.25
370.76	2133.98
370.98	2142.18
371.19	2043.87
371.41	2002.91
371.62	2076.64
371.84	2011.11
372.05	2230.24
372.27	2084.83
372.48	2138.08
372.69	2045.92
372.91	2191.33
373.12	2146.27
373.34	2064.35
373.55	2187.23
373.77	2123.74
373.98	2150.37
374.20	2222.05
374.41	2252.77
374.62	2129.89
374.84	2150.37
375.05	2154.46
375.27	2217.95
375.48	2191.33
375.70	2224.09
375.91	2267.10
376.12	2367.45
376.34	2174.94
376.55	2121.70
376.77	2125.79
376.98	2140.13
377.19	2115.55
377.41	2138.08
377.62	2242.53
377.84	2228.19
378.05	2328.54
378.27	2228.19
378.48	2349.02
378.69	2443.23
378.91	2379.74
379.12	2232.29
379.34	2271.20
379.55	2295.77
379.76	2232.29
379.98	2174.94
380.19	2256.86
380.41	2250.72
380.62	2375.64
380.83	2297.82
381.05	2281.44
381.26	2408.41
381.47	2263.01
381.69	2265.05
381.90	2357.21
382.12	2314.20
382.33	2224.09
382.54	2283.49
382.76	2346.97
382.97	2379.74
383.19	2297.82
383.40	2449.37
383.61	2359.26
383.83	2349.02
384.04	2346.97
384.25	2494.43
384.47	2414.56
384.68	2355.16
384.89	2371.55
385.11	2385.88
385.32	2437.08
385.54	2432.99
385.75	2349.02
385.96	2482.14
386.18	2504.67
386.39	2428.89
386.60	2400.22
386.82	2473.95
387.03	2379.74
387.24	2500.57
387.46	2494.43
387.67	2535.39
387.88	2521.05
388.10	2484.19
388.31	2449.37
388.52	2553.82
388.74	2504.67
388.95	2494.43
389.16	2494.43
389.38	2494.43
389.59	2557.91
389.80	2602.97
390.02	2584.54
390.23	2611.16
390.44	2541.53
390.66	2557.91
390.87	2584.54
391.08	2645.98
391.30	2746.33
391.51	2674.65
391.72	2600.92
391.94	2770.90
392.15	2584.54
392.36	2705.37
392.58	2637.78
392.79	2684.89
393.00	2754.52
393.22	2777.05
393.43	2830.29
393.64	2906.07
393.85	2742.23
394.07	2729.94
394.28	2770.90
394.49	2818.00
394.71	2777.05
394.92	2809.81
395.13	2766.81
395.35	2756.57
395.56	2777.05
395.77	2789.33
395.98	2828.24
396.20	2877.40
396.41	2797.53
396.62	2768.85
396.84	2824.15
397.05	2836.44
397.26	2863.06
397.47	3061.71
397.69	2756.57
397.90	3067.86
398.11	2863.06
398.32	2973.65
398.54	3018.71
398.75	2922.45
398.96	2858.96
399.18	3117.01
399.39	3026.90
399.60	3033.04
399.81	3035.09
400.03	3016.66
400.24	3280.85
400.45	3121.10
400.66	3049.43
400.88	2983.89
401.09	3254.22
401.30	3078.10
401.51	3215.31
401.73	3092.43
401.94	3082.19
402.15	3143.63
402.36	3155.92
402.58	3153.87
402.79	3188.69
403.00	3223.50
403.21	3248.08
403.43	3266.51
403.64	3362.76
403.85	3145.68
404.06	3334.09
404.27	3203.02
404.49	3221.45
404.70	3184.59
404.91	3348.43
405.12	3235.79
405.34	3268.56
405.55	3430.35
405.76	3278.80
405.97	3313.61
406.19	3428.30
406.40	3227.60
406.61	3416.01
406.82	3332.05
407.03	3362.76
407.25	3350.48
407.46	3442.64
407.67	3461.07
407.88	3528.65
408.09	3336.14
408.31	3370.96
408.52	3477.45
408.73	3330.00
408.94	3504.07
409.15	3467.21
409.37	3569.61
409.58	3493.83
409.79	3510.22
410.00	3612.62
410.21	3502.03
410.43	3530.70
410.64	3534.79
410.85	3622.86
411.06	3534.79
411.27	3608.52
411.48	3590.09
411.70	3629.00
411.91	3712.97
412.12	3766.21
412.33	3672.01
412.54	3614.66
412.76	3706.82
412.97	3674.06
413.18	3596.23
413.39	3704.78
413.60	3674.06
413.81	3540.94
414.03	3659.72
414.24	3696.58
414.45	3885.00
414.66	3504.07
414.87	3833.80
415.08	3741.64
415.30	3766.21
415.51	3928.00
415.72	3760.07
415.93	3868.61
416.14	3954.63
416.35	3944.39
416.56	3813.32
416.78	3930.05
416.99	4061.12
417.20	3825.61
417.41	4118.47
417.62	4134.85
417.83	4116.42
418.04	3928.00
418.26	3950.53
418.47	4132.80
418.68	3952.58
418.89	4165.57
419.10	4247.49
419.31	4169.66
419.52	4143.04
419.73	4016.07
419.95	4145.09
420.16	4067.27
420.37	4102.08
420.58	4218.82
420.79	4136.90
421.00	4202.43
421.21	4171.71
421.42	4120.51
421.63	4343.74
421.85	4208.58
422.06	4345.79
422.27	4298.69
422.48	4298.69
422.69	4300.73
422.90	4362.17
423.11	4351.93
423.32	4376.51
423.53	4460.48
423.75	4382.65
423.96	4581.31
424.17	4493.24
424.38	4679.61
424.59	4413.37
424.80	4757.43
425.01	4659.13
425.22	4593.59
425.43	4562.87
425.64	4820.92
425.85	4681.66
426.06	4728.76
426.28	4693.94
426.49	4624.31
426.70	4683.70
426.91	4714.42
427.12	4825.01
427.33	4829.11
427.54	4730.81
427.75	4710.33
427.96	4894.65
428.17	4884.41
428.38	4761.53
428.59	5007.28
428.80	4927.41
429.01	4999.09
429.23	5021.62
429.44	5001.14
429.65	5099.44
429.86	5199.79
430.07	4878.26
430.28	5060.53
430.49	5142.45
430.70	5207.98
430.91	5193.65
431.12	5152.69
431.33	5332.91
431.54	5234.61
431.75	5246.90
431.96	5232.56
432.17	5296.05
432.38	5179.31
432.59	5480.36
432.80	5433.26
433.01	5339.05
433.22	5392.30
433.43	5324.72
433.64	5418.93
433.85	5437.36
434.06	5455.79
434.27	5310.38
434.49	5504.94
434.70	5638.06
434.91	5390.25
435.12	5509.04
435.33	5441.45
435.54	5492.65
435.75	5576.62
435.96	5521.32
436.17	5519.28
436.38	5580.71
436.59	5590.95
436.80	5478.32
437.01	5816.23
437.22	5816.23
437.43	5750.70
437.64	5513.13
437.85	5762.98
438.06	5857.19
438.27	5613.48
438.48	5715.88
438.69	5967.78
438.90	5885.86
439.11	5838.76
439.32	5914.53
439.53	5937.06
439.74	5955.49
439.95	5855.14
440.16	5881.77
440.37	5912.49
440.57	5955.49
440.78	5982.12
440.99	6125.47
441.20	5879.72
441.41	5984.16
441.62	6070.18
441.83	5912.49
442.04	6182.82
442.25	6076.32
442.46	6121.38
442.67	6156.19
442.88	6463.39
443.09	5996.45
443.30	6152.10
443.51	6227.87
443.72	6541.21
443.93	6182.82
444.14	6426.53
444.35	6397.85
444.56	6264.74
444.77	6219.68
444.98	6344.61
445.19	6535.07
445.40	6381.47
445.61	6430.62
445.81	6498.20
446.02	6594.46
446.23	6395.81
446.44	6406.05
446.65	6561.69
446.86	6643.61
447.07	6737.82
447.28	6811.54
447.49	6807.45
447.70	6459.29
447.91	6703.00
448.12	6655.90
448.33	6879.13
448.54	6893.46
448.74	6768.54
448.95	6752.15
449.16	6746.01
449.37	6938.52
449.58	6928.28
449.79	7067.54
450.00	6834.07
450.21	6877.08
450.42	7253.91
450.63	7149.46
450.84	6965.14
451.05	7073.68
451.25	7065.49
451.46	7006.10
451.67	7221.14
451.88	7241.62
452.09	7153.55
452.30	7135.12
452.51	7243.67
452.72	7372.69
452.93	7503.76
453.13	7188.37
453.34	7282.58
453.55	7298.96
453.76	7440.27
453.97	7612.30
454.18	7542.67
454.39	7696.27
454.60	7698.31
454.81	7800.71
455.01	7909.26
455.22	7450.51
455.43	7647.12
455.64	7853.96
455.85	7952.26
456.06	7999.37
456.27	7892.87
456.48	7839.62
456.68	8030.09
456.89	7954.31
457.10	8142.72
457.31	7960.45
457.52	8013.70
457.73	8095.62
457.94	8361.86
458.14	8081.28
458.35	8634.24
458.56	8370.05
458.77	8220.55
458.98	8316.80
459.19	8570.75
459.39	8523.65
459.60	8695.68
459.81	8458.11
460.02	8718.20
460.23	8755.07
460.44	8707.96
460.65	8841.08
460.85	8953.72
461.06	8820.60
461.27	8652.67
461.48	9189.24
461.69	9199.48
461.89	8923.00
462.10	9168.76
462.31	8882.04
462.52	9152.37
462.73	9035.64
462.94	9357.17
463.14	9158.52
463.35	9318.26
463.56	9762.67
463.77	9693.04
463.98	9359.22
464.18	9420.66
464.39	9637.74
464.60	10022.76
464.81	9973.61
465.02	9705.32
465.23	10264.42
465.43	9758.57
465.64	10211.17
465.85	9979.75
466.06	9989.99
466.27	10401.63
466.47	10526.56
466.68	10256.23
466.89	10391.39
467.10	10538.85
467.30	10207.08
467.51	10620.77
467.72	10776.41
467.93	10526.56
468.14	10745.69
468.34	10850.14
468.55	11013.98
468.76	10858.33
468.97	10704.73
469.17	10938.20
469.38	11161.43
469.59	11374.42
469.80	11108.18
470.01	11102.04
470.21	11196.25
470.42	11493.20
470.63	11577.17
470.84	11450.19
471.04	11589.46
471.25	11741.00
471.46	11638.61
471.67	12224.33
471.87	11913.03
472.08	11970.38
472.29	12214.09
472.50	11827.02
472.70	12064.58
472.91	12136.26
473.12	12408.64
473.33	12599.10
473.53	12570.43
473.74	12470.08
473.95	12412.74
474.16	12883.77
474.36	12633.92
474.57	12844.86
474.78	13248.31
474.99	13293.37
475.19	12963.64
475.40	13266.74
475.61	13387.57
475.81	13494.07
476.02	14004.01
476.23	13592.37
476.44	13492.02
476.64	13838.12
476.85	14051.11
477.06	13911.85
477.27	14149.42
477.47	14008.11
477.68	14245.67
477.89	14413.60
478.09	14339.88
478.30	14464.80
478.51	14413.60
478.71	14618.40
478.92	14964.51
479.13	14952.22
479.34	15169.30
479.54	14931.74
479.75	15011.61
479.96	15259.42
480.16	15390.49
480.37	15253.27
480.58	15509.27
480.78	15550.23
480.99	15705.87
481.20	15722.26
481.41	15875.85
481.61	16162.57
481.82	16013.07
482.03	16162.57
482.23	15937.29
482.44	16434.95
482.65	16709.38
482.85	16584.45
483.06	16588.55
483.27	16658.18
483.47	16738.05
483.68	16926.46
483.89	16985.85
484.09	17014.52
484.30	17331.96
484.51	17413.88
484.71	17356.54
484.92	16985.85
485.13	17639.15
485.33	17436.41
485.54	17542.90
485.75	17854.19
485.95	17848.05
486.16	18038.51
486.37	17977.07
486.57	17911.53
486.78	18058.99
486.98	18020.08
487.19	18357.99
487.40	18525.93
487.60	18609.89
487.81	18677.48
488.02	18489.06
488.22	18390.76
488.43	18806.50
488.64	18796.26
488.84	19044.06
489.05	18857.70
489.25	18833.12
489.46	19427.03
489.67	19435.22
489.87	19769.04
490.08	19605.20
490.29	19500.76
490.49	19842.77
490.70	19803.86
490.90	19914.45
491.11	19975.89
491.32	19934.93
491.52	19810.00
491.73	20080.33
491.94	20287.18
492.14	20006.61
492.35	20518.60
492.55	20557.51
492.76	20543.17
492.97	20924.10
493.17	20643.52
493.38	20879.04
493.58	20756.16
493.79	20963.01
494.00	21067.45
494.20	21378.75
494.41	21317.31
494.61	21221.05
494.82	21380.79
495.02	21155.52
495.23	21284.54
495.44	21655.22
495.64	21591.73
495.85	21687.99
496.05	22042.29
496.26	21937.84
496.47	22038.19
496.67	21812.92
496.88	22193.84
497.08	21974.70
497.29	22292.14
497.49	22085.30
497.70	22638.25
497.91	22513.32
498.11	22687.40
498.32	22640.29
498.52	22830.76
498.73	23017.12
498.93	22900.39
499.14	22959.78
499.34	22945.44
499.55	22998.69
499.76	22873.76
499.96	23570.07
500.17	23201.44
500.37	23398.04
500.58	23246.49
500.78	23553.69
500.99	23510.68
501.19	23953.04
501.40	23463.58
501.60	23647.90
501.81	23989.91
502.02	23881.36
502.22	23711.38
502.43	23748.25
502.63	24194.70
502.84	24094.35
503.04	24080.02
503.25	24323.72
503.45	24602.25
503.66	24184.46
503.86	24444.56
504.07	24757.89
504.27	24413.84
504.48	24995.46
504.68	25101.95
504.89	25298.56
505.09	25155.20
505.30	24776.33
505.50	25030.27
505.71	25192.06
505.91	25024.13
506.12	25212.54
506.32	25144.96
506.53	25421.44
506.73	25433.72
506.94	25570.94
507.14	25544.31
507.35	25491.07
507.55	25499.26
507.76	25806.45
507.96	25554.55
508.17	25931.38
508.37	25740.92
508.58	25898.61
508.78	25839.22
508.99	26297.97
509.19	26146.42
509.40	26412.65
509.60	26001.01
509.81	26549.87
510.01	26285.68
510.22	26492.52
510.42	26758.76
510.63	26670.70
510.83	26701.42
511.04	26556.01
511.24	26752.62
511.44	26857.06
511.65	26809.96
511.85	26635.88
512.06	27117.15
512.26	27080.29
512.47	27285.09
512.67	26910.31
512.88	27248.22
513.08	26934.88
513.29	27498.08
513.49	27330.14
513.69	27393.63
513.90	27612.76
514.10	27670.11
514.31	27811.42
514.51	27706.97
514.72	27913.81
514.92	27840.09
515.13	27885.14
515.33	27987.54
515.53	28057.17
515.74	28139.09
515.94	28171.86
516.15	28325.46
516.35	28384.85
516.56	28425.81
516.76	28198.48
516.96	28032.60
517.17	28632.65
517.37	28808.78
517.58	28751.43
517.78	28776.01
517.99	28882.50
518.19	28905.03
518.39	29118.02
518.60	29402.69
518.80	29312.58
519.01	29107.78
519.21	29079.11
519.41	29177.41
519.62	29374.02
519.82	29378.11
520.03	29572.67
520.23	29646.40
520.43	29451.84
520.64	30047.80
520.84	29965.88
521.05	30139.96
521.25	30293.55
521.45	30256.69
521.66	30580.27
521.86	29888.06
522.07	30160.44
522.27	30311.99
522.47	30391.86
522.68	30447.15
522.88	30633.52
523.08	30864.94
523.29	30901.80
523.49	30996.01
523.70	31235.62
523.90	31479.33
524.10	31151.65
524.31	31188.52
524.51	31227.43
524.71	31594.01
524.92	31520.29
525.12	31827.48
525.33	31942.17
525.53	31868.44
525.73	32091.67
525.94	32155.16
526.14	32042.52
526.34	32310.80
526.55	32488.98
526.75	32163.35
526.95	32806.41
527.16	32644.62
527.36	32495.12
527.56	32994.82
527.77	33123.85
527.97	33306.12
528.17	32859.66
528.38	33330.69
528.58	33121.80
528.78	33424.90
528.99	33392.13
529.19	33639.93
529.39	33613.31
529.60	33680.89
529.80	33805.82
530.00	33506.82
530.21	34360.82
530.41	34250.23
530.61	34151.93
530.82	34049.53
531.02	34354.68
531.22	34866.67
531.43	34571.76
531.63	34756.08
531.83	34694.64
532.04	35032.55
532.24	34864.62
532.44	35419.62
532.64	35417.57
532.85	35636.70
533.05	35393.00
533.25	35485.15
533.46	35442.15
533.66	35866.08
533.86	35587.55
534.07	36029.91
534.27	35995.10
534.47	36419.03
534.67	36488.66
534.88	36136.41
535.08	36566.48
535.28	36660.69
535.49	36580.82
535.69	36681.17
535.89	36605.39
536.09	37017.04
536.30	37066.19
536.50	37258.70
536.70	37445.06
536.91	37291.46
537.11	37254.60
537.31	37662.15
537.51	37094.86
537.72	37707.20
537.92	37703.10
538.12	37918.14
538.32	38075.84
538.53	38331.83
538.73	37739.97
538.93	38372.79
539.13	38333.88
539.34	38358.45
539.54	38423.99
539.74	38561.20
539.94	38442.42
540.15	38413.75
540.35	39040.43
540.55	38686.13
540.75	38753.71
540.96	38923.69
541.16	39216.55
541.36	39179.69
541.56	39415.21
541.77	39169.45
541.97	39140.78
542.17	39214.51
542.37	39321.00
542.58	39628.20
542.78	39529.89
542.98	39529.89
543.18	39794.08
543.38	40312.22
543.59	40101.28
543.79	39927.20
543.99	39810.46
544.19	39859.62
544.40	40027.55
544.60	40545.69
544.80	40277.40
545.00	40506.77
545.20	40582.55
545.41	40613.27
545.61	40187.29
545.81	40719.76
546.01	40574.36
546.21	40590.74
546.42	40680.85
546.62	40832.40
546.82	40648.08
547.02	40727.95
547.22	40893.84
547.43	40744.34
547.63	40854.93
547.83	41321.87
548.03	41026.96
548.23	41174.41
548.44	41235.85
548.64	41201.04
548.84	41364.87
549.04	41282.95
549.24	41661.83
549.45	41833.86
549.65	41364.87
549.85	41555.33
550.05	41776.51
550.25	41880.96
550.45	42169.72
550.66	41254.28
550.86	41823.62
551.06	41991.55
551.26	41907.58
551.46	41930.11
551.66	41981.31
551.87	41698.69
552.07	42147.20
552.27	42169.72
552.47	42159.48
552.67	42673.52
552.87	42261.88
553.07	42343.80
553.28	42198.40
553.48	42331.51
553.68	42491.26
553.88	42710.39
554.08	42753.40
554.28	42636.66
554.48	42607.99
554.69	42663.28
554.89	42472.82
555.09	42730.87
555.29	42118.53
555.49	43152.75
555.69	42667.38
555.89	42868.08
556.10	43552.10
556.30	42442.10
556.50	42913.14
556.70	43005.30
556.90	43287.92
557.10	42954.10
557.30	42988.91
557.50	43197.80
557.70	42849.65
557.91	43259.24
558.11	43289.96
558.31	42995.06
558.51	43027.82
558.71	43156.85
558.91	43761.00
559.11	42952.05
559.31	43404.65
559.51	43007.34
559.72	42956.14
559.92	43443.56
560.12	43214.19
560.32	43384.17
560.52	43218.28
560.72	43541.86
560.92	43785.57
561.12	43412.84
561.32	43795.81
561.52	43402.60
561.72	43771.24
561.93	43429.23
562.13	44053.86
562.33	43398.51
562.53	43945.31
562.73	43382.12
562.93	43767.14
563.13	43869.54
563.33	43619.69
563.53	44031.33
563.73	43533.67
563.93	43826.53
564.13	44264.80
564.33	43976.03
564.53	44094.82
564.74	43947.36
564.94	44043.62
565.14	44158.30
565.34	43971.94
565.54	44186.97
565.74	43984.22
565.94	44574.04
566.14	44266.84
566.34	43742.56
566.54	44272.99
566.74	44584.28
566.94	44582.23
567.14	44451.16
567.34	43890.02
567.54	44600.66
567.74	43920.74
567.94	44029.28
568.14	44686.68
568.34	45040.98
568.54	44225.89
568.74	44698.97
568.94	44348.76
569.14	45221.20
569.34	44928.34
569.54	44676.44
569.75	44250.46
569.95	44840.28
570.15	44948.82
570.35	44957.01
570.55	44940.63
570.75	45028.69
570.95	45040.98
571.15	45104.46
571.35	44905.81
571.55	45471.05
571.75	44625.24
571.95	45069.65
572.15	44823.89
572.35	45155.66
572.55	45102.42
572.75	45147.47
572.95	44950.87
573.15	45358.41
573.35	44905.81
573.55	44977.49
573.75	44938.58
573.95	45260.11
574.15	45178.19
574.35	45501.77
574.55	45409.61
574.75	45395.28
574.95	45358.41
575.15	45458.76
575.34	45565.26
575.54	45929.80
575.74	45641.03
575.94	45843.78
576.14	45831.49
576.34	45790.53
576.54	46136.64
576.74	46486.84
576.94	45788.49
577.14	46103.87
577.34	46576.95
577.54	45931.84
577.74	46355.77
577.94	46294.33
578.14	46142.78
578.34	46468.41
578.54	45948.23
578.74	46206.27
578.94	46421.31
579.14	46409.02
579.34	46308.67
579.54	46658.87
579.74	47084.85
579.94	46882.10
580.13	46820.66
580.33	46990.64
580.53	47144.24
580.73	46794.04
580.93	46904.63
581.13	46904.63
581.33	47748.39
581.53	47469.87
581.73	47422.76
581.93	47570.22
582.13	47392.04
582.33	47674.66
582.53	47537.45
582.73	47420.72
582.92	47699.24
583.12	48149.79
583.32	47635.75
583.52	47433.00
583.72	47848.74
583.92	47828.26
584.12	48039.20
584.32	48297.25
584.52	47803.69
584.72	48461.08
584.92	48514.33
585.11	48657.69
585.31	48450.84
585.51	48256.29
585.71	48266.53
585.91	48563.48
586.11	48420.13
586.31	48067.87
586.51	48590.11
586.71	48721.18
586.91	49085.72
587.10	48381.21
587.30	48493.85
587.50	48891.16
587.70	49335.57
587.90	49003.80
588.10	49141.01
588.30	48772.38
588.50	49337.62
588.69	49270.03
588.89	48964.88
589.09	49478.92
589.29	49829.13
589.49	49814.79
589.69	49134.87
589.89	49962.25
590.08	49354.00
590.28	49992.97
590.48	49329.42
590.68	49739.02
590.88	49491.21
591.08	49829.13
591.28	49865.99
591.47	50070.79
591.67	49689.87
591.87	49933.57
592.07	50181.38
592.27	50304.26
592.47	50126.08
592.67	50156.80
592.86	50175.23
593.06	50767.10
593.26	50124.04
593.46	50500.86
593.66	50500.86
593.86	50322.69
594.05	50474.24
594.25	51008.76
594.45	50779.39
594.65	50873.59
594.85	50769.15
595.05	51524.85
595.24	51279.09
595.44	50941.17
595.64	51041.53
595.84	51188.98
596.04	51234.03
596.23	51266.80
596.43	51690.73
596.63	51324.14
596.83	51371.25
597.03	51762.41
597.22	52094.18
597.42	52120.80
597.62	51932.39
597.82	51979.49
598.02	51799.27
598.21	51903.72
598.41	51948.78
598.61	52079.85
598.81	51946.73
599.01	52632.80
599.20	52063.46
599.40	52350.18
599.60	52929.75
599.80	52282.59
600.00	52600.03
600.19	53132.50
600.39	52088.04
600.59	52720.86
600.79	52919.51
600.98	52819.16
601.18	53138.65
601.38	53183.70
601.58	53296.34
601.78	53282.00
601.97	53173.46
602.17	53892.30
602.37	53396.69
602.57	53312.72
602.76	53892.30
602.96	53126.36
603.16	54027.46
603.36	53701.84
603.55	54027.46
603.75	53750.99
603.95	53800.14
604.15	54015.18
604.34	54099.14
604.54	54236.36
604.74	54260.93
604.94	54072.52
605.13	54416.58
605.33	54719.68
605.53	54465.73
605.73	54949.05
605.92	54037.70
606.12	54764.73
606.32	54871.23
606.52	54822.08
606.71	54678.72
606.91	54746.30
607.11	54572.22
607.30	55063.74
607.50	54979.77
607.70	55358.64
607.90	55012.54
608.09	55049.40
608.29	55295.16
608.49	55168.18
608.68	55483.57
608.88	55231.67
609.08	55264.44
609.28	55375.03
609.47	55164.09
609.67	56095.91
609.87	55917.74
610.06	56030.38
610.26	55452.85
610.46	55674.03
610.66	55538.86
610.85	55731.37
611.05	55532.72
611.25	56269.99
611.44	55940.27
611.64	55835.82
611.84	55944.36
612.03	56349.86
612.23	56140.97
612.43	56061.10
612.62	56057.00
612.82	56579.23
613.02	56112.30
613.21	56655.01
613.41	56050.86
613.61	56214.69
613.80	56198.31
614.00	56378.53
614.20	56300.71
614.39	56624.29
614.59	56495.27
614.79	56116.39
614.98	56632.48
615.18	56288.42
615.38	56677.54
615.57	55917.74
615.77	56712.35
615.97	56761.50
616.16	56595.62
616.36	56810.65
616.56	56886.43
616.75	56554.66
616.95	56167.59
617.15	56892.57
617.34	56677.54
617.54	56628.38
617.74	57222.29
617.93	56954.01
618.13	56415.40
618.32	56695.97
618.52	56220.84
618.72	56548.51
618.91	56624.29
619.11	56183.97
619.31	56693.92
619.50	56407.20
619.70	56161.45
619.90	57007.26
620.09	56685.73
620.29	56562.85
620.48	56562.85
620.68	56997.02
620.88	56487.07
621.07	57105.56
621.27	56941.72
621.46	56173.73
621.66	56966.30
621.86	57080.98
622.05	56960.15
622.25	57113.75
622.44	56693.92
622.64	56552.61
622.84	56896.67
623.03	56882.33
623.23	56767.65
623.42	56876.19
623.62	56607.90
623.82	57179.29
624.01	57232.53
624.21	57128.09
624.40	56765.60
624.60	56855.71
624.80	56632.48
624.99	56489.12
625.19	56216.74
625.38	56683.68
625.58	56575.14
625.77	57001.11
625.97	56652.96
626.17	56059.05
626.36	56728.73
626.56	56726.69
626.75	56380.58
626.95	57107.61
627.14	56718.49
627.34	57144.47
627.54	56974.49
627.73	56763.55
627.93	56628.38
628.12	56568.99
628.32	56829.08
628.51	56554.66
628.71	56628.38
628.90	56753.31
629.10	56685.73
629.30	56501.41
629.49	56945.82
629.69	56616.10
629.88	56439.97
630.08	57181.34
630.27	57062.55
630.47	56599.71
630.66	56552.61
630.86	56804.51
631.05	56595.62
631.25	56831.13
631.44	56677.54
631.64	56718.49
631.84	57013.40
632.03	57365.65
632.23	56734.88
632.42	56728.73
632.62	56786.08
632.81	56566.94
633.01	56908.96
633.20	57140.38
633.40	56906.91
633.59	56790.17
633.79	56456.35
633.98	57126.04
634.18	57011.35
634.37	56650.91
634.57	56851.61
634.76	57509.01
634.96	56906.91
635.15	57343.12
635.35	56659.10
635.54	56988.83
635.74	56911.00
635.93	56861.85
636.13	57345.17
636.32	57095.32
636.52	56390.82
636.71	56659.10
636.91	57345.17
637.10	56966.30
637.30	56896.67
637.49	56845.47
637.69	56724.64
637.88	56693.92
638.08	56677.54
638.27	56753.31
638.46	57001.11
638.66	56542.37
638.85	56581.28
639.05	56743.07
639.24	57160.86
639.44	56306.85
639.63	56804.51
639.83	56712.35
640.02	56792.22
640.22	57236.63
640.41	57152.66
640.61	56333.48
640.80	56818.84
640.99	56865.95
641.19	57265.30
641.38	57048.22
641.58	56702.11
641.77	56738.97
641.97	56888.48
642.16	56958.11
642.36	57109.66
642.55	56972.44
642.74	56607.90
642.94	57574.55
643.13	56605.86
643.33	57009.31
643.52	57064.60
643.72	57119.90
643.91	57003.16
644.10	57267.35
644.30	57013.40
644.49	56999.07
644.69	56956.06
644.88	57328.79
645.08	56943.77
645.27	57197.72
645.46	56503.46
645.66	57046.17
645.85	57316.50
646.05	56919.20
646.24	57060.51
646.43	57062.55
646.63	57490.58
646.82	57539.73
647.02	57328.79
647.21	57140.38
647.40	57201.82
647.60	57646.22
647.79	57390.23
647.99	57019.55
648.18	56755.36
648.37	57693.33
648.57	57103.51
648.76	57177.24
648.96	56685.73
649.15	57359.51
649.34	57105.56
649.54	57320.60
649.73	56646.82
649.92	57420.95
650.12	56931.48
650.31	57128.09
650.51	56972.44
650.70	57525.39
650.89	57064.60
651.09	58123.40
651.28	57382.04
651.47	57404.56
651.67	57367.70
651.86	57517.20
652.06	57062.55
652.25	57179.29
652.44	57226.39
652.64	56931.48
652.83	56892.57
653.02	56980.63
653.22	57005.21
653.41	57058.46
653.60	56968.35
653.80	57015.45
653.99	57263.25
654.18	56810.65
654.38	56931.48
654.57	57074.84
654.76	57017.50
654.96	56581.28
655.15	56865.95
655.34	56806.56
655.54	56933.53
655.73	57279.64
655.92	56706.21
656.12	57293.97
656.31	57107.61
656.50	56939.68
656.70	57040.03
656.89	56949.92
657.08	56999.07
657.28	56861.85
657.47	56884.38
657.66	57316.50
657.86	57173.14
658.05	56800.41
658.24	57103.51
658.43	57005.21
658.63	57062.55
658.82	56620.19
659.01	57058.46
659.21	56994.97
659.40	57091.22
659.59	56718.49
659.79	57468.05
659.98	57420.95
660.17	57197.72
660.36	56786.08
660.56	57279.64
660.75	57423.00
660.94	57244.82
661.14	56714.40
661.33	56849.56
661.52	56669.34
661.71	57037.98
661.91	56433.83
662.10	56464.55
662.29	57310.36
662.49	56513.70
662.68	56831.13
662.87	57134.23
663.06	57085.08
663.26	56523.94
663.45	57033.88
663.64	57324.69
663.83	56997.02
664.03	57101.46
664.22	56650.91
664.41	56829.08
664.60	56734.88
664.80	56511.65
664.99	56489.12
665.18	56999.07
665.37	56857.76
665.57	56923.29
665.76	56558.75
665.95	56861.85
666.14	56679.58
666.34	56638.62
666.53	56810.65
666.72	56415.40
666.91	56550.56
667.11	56689.82
667.30	56425.64
667.49	56423.59
667.68	56319.14
667.87	56468.64
668.07	56581.28
668.26	56300.71
668.45	56726.69
668.64	56507.55
668.84	56775.84
669.03	57195.67
669.22	56753.31
669.41	56417.44
669.60	56861.85
669.80	56476.83
669.99	56568.99
670.18	56583.33
670.37	56489.12
670.57	57029.79
670.76	56767.65
670.95	56902.81
671.14	56235.17
671.33	56446.11
671.53	56693.92
671.72	56675.49
671.91	56349.86
672.10	56360.10
672.29	56341.67
672.48	56419.49
672.68	56538.27
672.87	56446.11
673.06	56325.28
673.25	56151.21
673.44	56222.89
673.64	56280.23
673.83	56007.85
674.02	56161.45
674.21	55983.27
674.40	56380.58
674.59	55962.79
674.79	56018.09
674.98	56091.82
675.17	56181.93
675.36	55889.07
675.55	56186.02
675.74	55805.10
675.94	55788.72
676.13	55970.99
676.32	56370.34
676.51	56708.25
676.70	56665.25
676.89	56214.69
677.08	56292.52
677.28	56165.54
677.47	56276.13
677.66	56347.81
677.85	56255.65
678.04	56538.27
678.23	56317.09
678.42	56444.07
678.62	56325.28
678.81	55960.75
679.00	55907.50
679.19	56472.74
679.38	56112.30
679.57	56286.37
679.76	56206.50
679.96	56382.63
680.15	55788.72
680.34	55786.67
680.53	55993.51
680.72	56149.16
680.91	56253.61
681.10	55938.22
681.29	56374.44
681.48	55772.33
681.68	55571.63
681.87	56022.19
682.06	55737.52
682.25	55325.88
682.44	55594.16
682.63	55981.23
682.82	55745.71
683.01	55631.02
683.20	55252.15
683.39	55534.77
683.59	55596.21
683.78	55366.84
683.97	55243.96
684.16	55430.32
684.35	54959.29
684.54	55157.94
684.73	55479.47
684.92	55379.12
685.11	55530.67
685.30	55571.63
685.49	55420.08
685.69	55360.69
685.88	55198.90
686.07	55456.95
686.26	55463.09
686.45	55317.68
686.64	55432.37
686.83	55899.31
687.02	55678.13
687.21	55520.43
687.40	55774.38
687.59	55540.91
687.78	55319.73
687.97	55903.40
688.16	55508.14
688.35	55291.06
688.54	55403.70
688.74	55428.27
688.93	55104.70
689.12	55221.43
689.31	55594.16
689.50	55538.86
689.69	54822.08
689.88	54891.71
690.07	55233.72
690.26	54992.06
690.45	55348.40
690.64	55065.78
690.83	55180.47
691.02	54817.98
691.21	54854.84
691.40	54873.27
691.59	55143.61
691.78	55071.93
691.97	55227.57
692.16	54809.79
692.35	55391.41
692.54	54969.53
692.73	54836.41
692.92	54932.67
693.11	55168.18
693.30	54799.55
693.49	55088.31
693.68	55067.83
693.87	54994.10
694.06	54748.35
694.25	54715.58
694.44	54551.74
694.63	54926.52
694.82	54971.58
695.01	54856.89
695.20	54469.82
695.39	54338.75
695.58	54609.09
695.77	54398.15
695.96	54375.62
696.15	54824.12
696.34	54457.54
696.53	54416.58
696.72	54525.12
696.91	54404.29
697.10	54795.45
697.29	54457.54
697.48	54621.37
697.67	54420.67
697.86	53994.70
698.05	54430.91
698.24	54760.64
698.43	54195.40
698.62	54506.69
698.81	54121.67
699.00	54822.08
699.19	54080.71
699.38	54262.98
699.57	53880.01
699.76	54869.18
699.95	54480.06
700.14	54475.97
700.32	54289.60
700.51	53851.34
700.70	54369.47
700.89	54432.96
701.08	54469.82
701.27	53781.71
701.46	54631.61
701.65	53581.01
701.84	54039.75
702.03	54228.16
702.22	54367.43
702.41	54410.43
702.60	54230.21
702.79	54215.88
702.98	53548.24
703.17	53781.71
703.35	53613.77
703.54	53542.10
703.73	54371.52
703.92	53654.73
704.11	53937.35
704.30	53421.26
704.49	53683.40
704.68	53728.46
704.87	53845.19
705.06	53562.57
705.25	53431.50
705.43	54025.42
705.62	53740.75
705.81	53630.16
706.00	53689.55
706.19	53042.39
706.38	53718.22
706.57	53552.33
706.76	53073.11
706.95	53542.10
707.14	53187.80
707.32	53224.66
707.51	53345.49
707.70	53277.91
707.89	53656.78
708.08	53542.10
708.27	53722.32
708.46	53744.84
708.65	53306.58
708.84	53902.54
709.02	53789.90
709.21	53748.94
709.40	53138.65
709.59	53593.29
709.78	52974.81
709.97	53239.00
710.16	53093.59
710.34	53212.37
710.53	53284.05
710.72	52835.55
710.91	53402.83
711.10	53454.03
711.29	52819.16
711.48	53202.13
711.66	52931.80
711.85	52974.81
712.04	52753.63
712.23	52999.38
712.42	53239.00
712.61	53300.43
712.80	52923.61
712.98	52767.96
713.17	52692.19
713.36	52745.44
713.55	53355.73
713.74	52837.59
713.93	52712.67
714.11	53028.05
714.30	52743.39
714.49	52966.62
714.68	52866.27
714.87	53017.82
715.06	52829.40
715.24	52528.35
715.43	52712.67
715.62	52581.60
715.81	52522.21
716.00	52804.83
716.18	51979.49
716.37	52212.96
716.56	51969.26
716.75	52339.94
716.94	52520.16
717.12	52196.58
717.31	52370.66
717.50	52069.61
717.69	52172.00
717.88	52227.30
718.06	52315.36
718.25	52757.72
718.44	51827.95
718.63	52077.80
718.82	51881.19
719.00	52212.96
719.19	51916.01
719.38	51655.92
719.57	51139.83
719.76	51688.68
719.94	51322.10
720.13	51674.35
720.32	51401.97
720.51	51565.81
720.69	51834.09
720.88	51258.61
721.07	51369.20
721.26	50949.37
721.44	51135.73
721.63	51098.87
721.82	51115.25
722.01	51285.23
722.20	51143.92
722.38	51295.47
722.57	50836.73
722.76	51123.44
722.95	50719.99
723.13	50822.39
723.32	51000.57
723.51	50601.21
723.70	50640.12
723.88	50617.60
724.07	50590.97
724.26	50377.98
724.44	49947.91
724.63	50719.99
724.82	50674.94
725.01	50216.19
725.19	50572.54
725.38	50488.57
725.57	50406.65
725.76	50484.48
725.94	49847.56
726.13	50132.23
726.32	50279.68
726.51	49669.39
726.69	50550.01
726.88	50437.37
727.07	50556.16
727.25	49814.79
727.44	50406.65
727.63	50091.27
727.82	50062.60
728.00	50468.09
728.19	50201.86
728.38	50601.21
728.56	49974.53
728.75	50302.21
728.94	50169.09
729.12	50001.16
729.31	50337.02
729.50	49749.26
729.69	50253.06
729.87	49995.01
730.06	49822.98
730.25	49788.17
730.43	50380.03
730.62	49573.13
730.81	50324.74
730.99	50427.13
731.18	49956.10
731.37	50109.70
731.55	50318.59
731.74	50212.10
731.93	50093.32
732.11	50492.67
732.30	50353.41
732.49	50281.73
732.67	50072.84
732.86	50083.08
733.05	49976.58
733.23	49732.87
733.42	50054.40
733.61	49865.99
733.79	49792.26
733.98	50158.85
734.17	49833.22
734.35	50081.03
734.54	50060.55
734.73	50451.71
734.91	49976.58
735.10	49937.67
735.29	50011.40
735.47	49480.97
735.66	49872.14
735.84	50089.22
736.03	49593.61
736.22	50523.39
736.40	50001.16
736.59	49788.17
736.78	50150.66
736.96	50078.98
737.15	49310.99
737.33	49665.29
737.52	49431.82
737.71	49294.61
737.89	49460.49
738.08	49208.59
738.27	49665.29
738.45	49939.72
738.64	49581.32
738.82	49460.49
739.01	49124.63
739.20	49378.57
739.38	49741.06
739.57	49554.70
739.75	49577.23
739.94	49509.64
740.13	49341.71
740.31	49376.53
740.50	49292.56
740.68	49208.59
740.87	49368.33
741.06	49093.91
741.24	49143.06
741.43	48780.57
741.61	49450.25
741.80	48471.32
741.99	48915.73
742.17	48567.58
742.36	48745.75
742.54	48821.53
742.73	48821.53
742.91	48981.27
743.10	48637.21
743.29	49194.26
743.47	48909.59
743.66	48569.63
743.84	49177.87
744.03	48629.02
744.21	49063.19
744.40	48968.98
744.59	48665.88
744.77	48454.94
744.96	48309.53
745.14	48829.72
745.33	48678.17
745.51	48362.78
745.70	48395.55
745.88	48252.19
746.07	48690.46
746.26	48121.12
746.44	48284.96
746.63	48409.89
746.81	48522.52
747.00	48289.06
747.18	48753.94
747.37	48262.43
747.55	48514.33
747.74	48311.58
747.92	48102.69
748.11	47961.38
748.29	48336.16
748.48	48403.74
748.66	48002.34
748.85	48192.80
749.03	48006.44
749.22	48096.55
749.41	47895.85
749.59	48043.30
749.78	47553.83
749.96	46757.17
750.15	47629.61
750.33	47748.39
750.52	47267.12
750.70	47715.62
750.89	47433.00
751.07	47473.96
751.26	47545.64
751.44	47602.99
751.63	47592.75
751.81	47205.68
752.00	47109.43
752.18	47772.97
752.37	47510.83
752.55	46681.40
752.74	46853.43
752.92	46880.05
753.10	46894.39
753.29	46933.30
753.47	47256.88
753.66	46738.74
753.84	46824.76
754.03	46972.21
754.21	46347.58
754.40	46681.40
754.58	46859.57
754.77	46705.98
754.95	46292.29
755.14	46466.36
755.32	46765.37
755.51	46003.52
755.69	45991.23
755.88	45800.77
756.06	46359.87
756.24	46443.84
756.43	46083.39
756.61	46480.70
756.80	45913.41
756.98	46028.10
757.17	46562.62
757.35	46093.63
757.54	45964.61
757.72	46298.43
757.90	46071.10
758.09	45663.56
758.27	45835.59
758.46	45831.49
758.64	45819.20
758.83	45876.55
759.01	45741.38
759.19	45624.65
759.38	45985.09
759.56	46044.48
759.75	46101.82
759.93	45352.27
760.12	45856.07
760.30	45552.97
760.48	45129.04
760.67	45778.25
760.85	45122.90
761.04	45604.17
761.22	45456.71
761.40	45073.74
761.59	45063.50
761.77	45040.98
761.96	44936.53
762.14	45055.31
762.32	44952.91
762.51	44858.71
762.69	45061.46
762.88	44823.89
763.06	44975.44
763.24	44762.45
763.43	45051.22
763.61	44948.82
763.80	44856.66
763.98	44709.21
764.16	44565.85
764.35	44229.98
764.53	44014.94
764.72	44184.93
764.90	44418.39
765.08	44162.40
765.27	44287.32
765.45	43765.09
765.63	43945.31
765.82	44057.95
766.00	43877.73
766.18	44170.59
766.37	44197.21
766.55	43507.05
766.74	43750.76
766.92	43844.96
767.10	43599.21
767.29	43560.30
767.47	43191.66
767.65	44035.42
767.84	43195.76
768.02	44100.96
768.20	43224.43
768.39	43337.07
768.57	43488.62
768.75	43130.22
768.94	43687.27
769.12	43322.73
769.30	43347.31
769.49	42894.71
769.67	43066.73
769.85	42687.86
770.04	42911.09
770.22	42724.72
770.40	42634.61
770.59	42458.49
770.77	42784.12
770.95	42773.88
771.14	42366.33
771.32	42255.74
771.50	42196.35
771.69	42071.42
771.87	42700.15
772.05	42106.24
772.24	41639.30
772.42	42239.36
772.60	41827.71
772.78	42120.57
772.97	41788.80
773.15	41936.26
773.33	41799.04
773.52	41846.15
773.70	41958.78
773.88	41799.04
774.07	41702.79
774.25	41944.45
774.43	42042.75
774.61	41416.07
774.80	41747.84
774.98	41866.63
775.16	41969.02
775.34	41987.46
775.53	41581.96
775.71	41850.24
775.89	41891.20
776.08	41708.93
776.26	41907.58
776.44	42126.72
776.62	41850.24
776.81	41452.94
776.99	41975.17
777.17	42042.75
777.35	41825.67
777.54	42227.07
777.72	41989.50
777.90	42012.03
778.08	41874.82
778.27	42118.53
778.45	41958.78
778.63	42288.51
778.81	41772.42
779.00	42333.56
779.18	42067.33
779.36	42251.64
779.54	41995.65
779.73	41930.11
779.91	42161.53
780.09	41913.73
780.27	42130.81
780.46	42079.61
780.64	42429.82
780.82	41919.87
781.00	42171.77
781.19	42335.61
781.37	42415.48
781.55	42374.52
781.73	42794.36
781.91	42141.05
782.10	42167.68
782.28	42126.72
782.46	42227.07
782.64	42243.45
782.82	41975.17
783.01	42505.59
783.19	42581.37
783.37	42808.69
783.55	42120.57
783.74	42567.03
783.92	42016.13
784.10	42564.98
784.28	42372.47
784.46	42206.59
784.64	42128.77
784.83	42603.89
785.01	42931.57
785.19	42206.59
785.37	42653.05
785.55	42505.59
785.74	41948.54
785.92	41995.65
786.10	42239.36
786.28	42151.29
786.46	41727.36
786.64	41973.12
786.83	41827.71
787.01	42016.13
787.19	42048.89
787.37	42014.08
787.55	41926.02
787.74	41627.01
787.92	41917.82
788.10	41862.53
788.28	41526.66
788.46	41645.44
788.64	41022.86
788.82	42096.00
789.01	41481.61
789.19	41913.73
789.37	41137.55
789.55	41596.29
789.73	41153.93
789.91	41059.73
790.09	40762.77
790.28	41239.95
790.46	40940.94
790.64	41121.16
790.82	40895.89
791.00	40756.63
791.18	40785.30
791.36	40813.97
791.55	40881.55
791.73	40322.46
791.91	40539.54
792.09	40246.68
792.27	40195.48
792.45	40353.18
792.63	40080.80
792.81	39644.58
793.00	39587.24
793.18	39261.61
793.36	39744.93
793.54	39962.01
793.72	39726.50
793.90	39640.48
794.08	39351.72
794.26	39345.58
794.44	39261.61
794.62	39019.95
794.81	39421.35
794.99	38964.65
795.17	39052.72
795.35	38972.85
795.53	39302.57
795.71	39067.05
795.89	38569.40
796.07	38589.88
796.25	38288.82
796.43	38315.45
796.61	38133.18
796.80	38030.78
796.98	38274.49
797.16	37811.65
797.34	38038.97
797.52	37768.64
797.70	37897.66
797.88	37901.76
798.06	37672.39
798.24	37531.08
798.42	37533.12
798.60	37461.44
798.78	37279.18
798.96	37488.07
799.14	37021.13
799.32	37002.70
799.51	36605.39
799.69	37293.51
799.87	36783.57
800.05	36435.41
800.23	36689.36
800.41	36349.40
800.59	36576.72
800.77	36173.27
800.95	35784.16
801.13	36570.58
801.31	36169.18
801.49	36165.08
801.67	35843.55
801.85	35849.69
802.03	35237.35
802.21	35450.34
802.39	35618.27
802.57	35681.76
802.75	35759.58
802.93	35530.21
803.11	35030.51
803.29	35057.13
803.47	34919.92
803.65	35241.45
803.83	34538.99
804.01	34946.54
804.19	34917.87
804.37	34520.56
804.55	34567.66
804.73	34592.24
804.91	34407.92
805.09	34299.38
805.27	34250.23
805.45	34510.32
805.63	34342.39
805.81	34805.23
805.99	34100.73
806.17	34229.75
806.35	33744.38
806.53	33877.50
806.71	33687.04
806.89	33719.81
807.07	33887.74
807.25	33973.75
807.43	33531.39
807.61	33826.30
807.79	33476.10
807.97	33320.45
808.15	33293.83
808.33	33115.65
808.51	33146.37
808.69	33467.91
808.87	32996.87
809.05	32638.48
809.23	32775.69
809.41	32681.49
809.59	32683.53
809.77	32896.52
809.95	32572.94
810.13	32499.22
810.31	32501.26
810.49	32448.02
810.67	32263.70
810.84	32226.84
811.02	32194.07
811.20	32083.48
811.38	32265.75
811.56	31292.96
811.74	31739.42
811.92	31743.52
812.10	31714.84
812.28	31551.01
812.46	31571.49
812.64	31788.57
812.82	31548.96
813.00	31522.34
813.18	31585.82
813.36	31215.14
813.53	31307.30
813.71	31100.45
813.89	31161.89
814.07	31200.80
814.25	31282.72
814.43	31084.07
814.61	30938.66
814.79	30778.92
814.97	30764.59
815.15	30762.54
815.33	30451.25
815.50	30785.07
815.68	30187.06
815.86	30791.21
816.04	30576.17
816.22	30428.72
816.40	30398.00
816.58	30287.41
816.76	30119.48
816.94	30246.45
817.11	30092.85
817.29	30359.09
817.47	29840.95
817.65	30281.27
817.83	30115.38
818.01	29781.56
818.19	30164.53
818.37	29816.38
818.54	29709.88
818.72	29742.65
818.90	29513.28
819.08	29369.92
819.26	29595.20
819.44	29435.45
819.62	29537.85
819.80	29302.34
819.97	29498.94
820.15	29386.30
820.33	28986.95
820.51	29341.25
820.69	28915.27
820.87	29351.49
821.05	29457.98
821.22	28962.37
821.40	29093.44
821.58	29001.29
821.76	28706.38
821.94	28794.44
822.12	28472.91
822.29	28515.92
822.47	28591.69
822.65	29089.35
822.83	28827.21
823.01	28423.76
823.19	28247.63
823.36	28345.94
823.54	28390.99
823.72	28427.85
823.90	28405.33
824.08	27946.58
824.25	28210.77
824.43	28233.30
824.61	28116.56
824.79	28276.30
824.97	28032.60
825.15	28151.38
825.32	27891.29
825.50	28094.04
825.68	27876.95
825.86	28251.73
826.04	28059.22
826.21	27801.18
826.39	28008.02
826.57	27559.52
826.75	27741.78
826.93	27733.59
827.10	27516.51
827.28	27711.07
827.46	27393.63
827.64	27328.10
827.81	27512.41
827.99	27025.00
828.17	27430.49
828.35	27422.30
828.53	27348.57
828.70	26914.41
828.88	27324.00
829.06	26855.01
829.24	27395.68
829.41	27014.76
829.59	26977.89
829.77	26900.07
829.95	26805.86
830.12	26797.67
830.30	26769.00
830.48	26902.12
830.66	26885.73
830.84	27002.47
831.01	26476.14
831.19	26881.64
831.37	26553.96
831.55	26799.72
831.72	26445.42
831.90	26910.31
832.08	26504.81
832.25	26492.52
832.43	26513.00
832.61	26189.42
832.79	26359.41
832.96	26189.42
833.14	26568.30
833.32	26404.46
833.50	26506.86
833.67	26177.14
833.85	26445.42
834.03	25720.44
834.20	26238.58
834.38	26142.32
834.56	26357.36
834.74	26168.94
834.91	26115.70
835.09	26068.59
835.27	25702.01
835.44	25767.54
835.62	25392.76
835.80	25697.91
835.98	25652.86
836.15	25599.61
836.33	25644.66
836.51	25935.48
836.68	25398.91
836.86	25556.60
837.04	25452.16
837.21	25339.52
837.39	25935.48
837.57	25562.75
837.75	25646.71
837.92	25079.43
838.10	25097.86
838.28	25089.67
838.45	25290.37
838.63	25288.32
838.81	25253.50
838.98	25192.06
839.16	24757.89
839.34	25175.68
839.51	25058.95
839.69	24759.94
839.87	24690.31
840.04	25075.33
840.22	24944.26
840.40	24972.93
840.57	24493.71
840.75	24876.68
840.93	24639.11
841.10	24780.42
841.28	24911.49
841.46	24725.13
841.63	24729.22
841.81	24737.41
841.98	24831.62
842.16	24573.58
842.34	24632.97
842.51	24549.00
842.69	24477.32
842.87	24184.46
843.04	24692.36
843.22	23930.51
843.40	24471.18
843.57	24045.20
843.75	24297.10
843.92	24333.96
844.10	24254.09
844.28	24084.11
844.45	24129.17
844.63	24106.64
844.81	24432.27
844.98	24362.64
845.16	24016.53
845.33	24065.68
845.51	24137.36
845.69	23885.46
845.86	23639.70
846.04	23938.71
846.21	24012.43
846.39	24139.41
846.57	24043.15
846.74	24102.54
846.92	23516.83
847.09	23662.23
847.27	23531.16
847.45	23568.02
847.62	23680.66
847.80	23854.74
847.97	23684.76
848.15	23494.30
848.32	23248.54
848.50	23594.65
848.68	23228.06
848.85	23565.98
849.03	23021.22
849.20	23461.53
849.38	23051.94
849.56	23375.52
849.73	22818.47
849.91	23365.28
850.08	23551.64
850.26	22935.20
850.43	23234.21
850.61	23025.31
850.78	23013.02
850.96	23070.37
851.14	23125.66
851.31	23363.23
851.49	22763.17
851.66	23164.57
851.84	22947.49
852.01	22804.13
852.19	23109.28
852.36	22939.30
852.54	23154.33
852.71	22789.80
852.89	22777.51
853.07	22877.86
853.24	22896.29
853.42	22947.49
853.59	23013.02
853.77	22898.34
853.94	22810.28
854.12	22793.89
854.29	22271.66
854.47	22744.74
854.64	22617.77
854.82	22638.25
854.99	22609.58
855.17	22679.21
855.34	22423.21
855.52	22372.01
855.69	22431.40
855.87	22415.02
856.04	22193.84
856.22	22337.20
856.39	22220.46
856.57	21997.23
856.74	22132.40
856.92	22392.49
857.09	22169.26
857.27	22083.25
857.44	22492.84
857.62	22132.40
857.79	22193.84
857.97	21866.16
858.14	21986.99
858.32	21888.69
858.49	21860.02
858.67	21972.66
858.84	21929.65
859.02	21882.55
859.19	21796.53
859.37	21616.31
859.54	21741.24
859.72	21692.08
859.89	21894.83
860.06	22195.89
860.24	21634.74
860.41	21845.68
860.59	21651.13
860.76	21843.63
860.94	21528.25
861.11	21804.72
861.29	21511.86
861.46	21212.86
861.64	21286.59
861.81	21495.48
861.98	21178.04
862.16	21360.31
862.33	20977.34
862.51	21214.91
862.68	21376.70
862.86	21300.92
863.03	21421.75
863.21	21157.57
863.38	21089.98
863.55	20993.73
863.73	21206.72
863.90	21204.67
864.08	20969.15
864.25	21149.37
864.43	21067.45
864.60	20987.58
864.77	20723.40
864.95	20897.47
865.12	20848.32
865.30	21229.24
865.47	20694.72
865.64	20840.13
865.82	20885.19
865.99	21083.84
866.17	20809.41
866.34	20872.90
866.51	20434.63
866.69	21003.97
866.86	21038.78
867.04	20721.35
867.21	20426.44
867.38	20553.41
867.56	20577.99
867.73	20369.10
867.91	20410.06
868.08	20563.65
868.25	20285.13
868.43	20315.85
868.60	20008.65
868.78	20043.47
868.95	20565.70
869.12	20215.50
869.30	19963.60
869.47	20344.52
869.64	20131.53
869.82	20233.93
869.99	20227.79
870.16	20344.52
870.34	20018.89
870.51	20178.64
870.69	19861.20
870.86	20000.46
871.03	19850.96
871.21	19871.44
871.38	20195.02
871.55	19836.63
871.73	19951.31
871.90	19668.69
872.07	19500.76
872.25	19572.44
872.42	19816.15
872.59	19549.91
872.77	19814.10
872.94	19547.86
873.11	19777.23
873.29	19762.90
873.46	19543.77
873.63	19312.35
873.81	19269.34
873.98	19449.56
874.15	19111.64
874.33	19109.60
874.50	19250.91
874.67	19085.02
874.85	18859.74
875.02	18931.42
875.19	18958.05
875.37	18941.66
875.54	18826.98
875.71	18693.86
875.88	19058.40
876.06	18925.28
876.23	18720.48
876.40	18671.33
876.58	18681.57
876.75	18616.04
876.92	18837.22
877.10	18790.11
877.27	18527.97
877.44	18507.49
877.61	18581.22
877.79	18538.21
877.96	18431.72
878.13	18306.79
878.31	18167.53
878.48	18241.26
878.65	18122.48
878.82	18079.47
879.00	18403.05
879.17	18007.79
879.34	18294.50
879.51	17899.25
879.69	18142.96
879.86	17940.21
880.03	17993.45
880.21	17966.83
880.38	17827.57
880.55	18222.83
880.72	17852.14
880.90	17747.70
881.07	17745.65
881.24	17843.95
881.41	17755.89
881.59	17598.20
881.76	17833.71
881.93	17624.82
882.10	17594.10
882.28	17559.28
882.45	17610.48
882.62	17800.94
882.79	17831.66
882.96	17518.32
883.14	17639.15
883.31	17587.96
883.48	17573.62
883.65	17401.59
883.83	17696.50
884.00	17305.34
884.17	17514.23
884.34	17317.62
884.51	17671.92
884.69	17342.20
884.86	17260.28
885.03	17182.46
885.20	17225.47
885.38	17278.71
885.55	17209.08
885.72	17086.20
885.89	17241.85
886.06	17065.72
886.24	17225.47
886.41	17159.93
886.58	17123.07
886.75	17553.14
886.92	17379.06
887.10	17231.61
887.27	17217.27
887.44	17237.75
887.61	17110.78
887.78	16992.00
887.95	17106.68
888.13	17022.72
888.30	17051.39
888.47	16688.90
888.64	16844.54
888.81	16889.60
888.99	16822.02
889.16	16584.45
889.33	16836.35
889.50	16748.29
889.67	16842.50
889.84	16652.03
890.01	16486.15
890.19	16580.36
890.36	16670.47
890.53	16787.20
890.70	16348.93
890.87	16445.19
891.04	16344.84
891.22	16393.99
891.39	16494.34
891.56	16373.51
891.73	16373.51
891.90	16230.15
892.07	16244.49
892.24	16252.68
892.42	16234.25
892.59	15787.79
892.76	16375.56
892.93	16146.19
893.10	16258.82
893.27	15994.64
893.44	16109.32
893.61	16168.71
893.79	16160.52
893.96	16199.43
894.13	16250.63
894.30	15871.76
894.47	16011.02
894.64	16189.19
894.81	16181.00
894.98	16064.27
895.15	16060.17
895.33	15875.85
895.50	15986.44
895.67	16109.32
895.84	16025.36
896.01	15994.64
896.18	15894.29
896.35	16150.28
896.52	15955.72
896.69	15769.36
896.86	15904.53
897.04	15904.53
897.21	15699.73
897.38	15806.22
897.55	15902.48
897.72	15830.80
897.89	16060.17
898.06	16111.37
898.23	15990.54
898.40	15853.33
898.57	15933.20
898.74	15925.00
898.91	15832.85
899.08	15845.13
899.26	15771.41
899.43	15863.57
899.60	15826.70
899.77	15900.43
899.94	15906.57
900.11	15752.98
900.28	15959.82
900.45	15849.23
900.62	16031.50
900.79	15888.14
900.96	15623.95
901.13	15748.88
901.30	15761.17
901.47	15683.34
901.64	15718.16
901.81	15888.14
901.98	15802.13
902.15	15990.54
902.32	15470.36
902.49	15734.54
902.66	15900.43
902.83	15834.89
903.01	15882.00
903.18	15828.75
903.35	15869.71
903.52	15712.02
903.69	15826.70
903.86	15920.91
904.03	15814.41
904.20	15988.49
904.37	15904.53
904.54	15834.89
904.71	15783.70
904.88	15707.92
905.05	15742.74
905.22	16054.03
905.39	15785.74
905.56	15699.73
905.73	15830.80
905.90	15554.32
906.07	15535.89
906.24	15662.86
906.41	15748.88
906.58	15707.92
906.75	15546.13
906.92	15609.62
907.09	15800.08
907.26	15460.12
907.43	15511.32
907.60	15658.77
907.77	15638.29
907.93	15677.20
908.10	15662.86
908.27	15601.43
908.44	15691.54
908.61	15388.44
908.78	15374.10
908.95	15746.83
909.12	15673.10
909.29	15537.94
909.46	15654.67
909.63	15703.82
909.80	15826.70
909.97	15488.79
910.14	15642.39
910.31	15740.69
910.48	15658.77
910.65	15666.96
910.82	15404.82
910.99	15265.56
911.16	15542.03
911.33	15476.50
911.50	15542.03
911.66	15396.63
911.83	15441.68
912.00	15216.41
912.17	15208.22
912.34	15243.03
912.51	15286.04
912.68	14874.40
912.85	15329.05
913.02	15331.09
913.19	15062.81
913.36	15179.54
913.53	15005.47
913.70	14798.62
913.86	15484.69
914.03	14952.22
914.20	14962.46
914.37	15345.43
914.54	15025.95
914.71	15224.60
914.88	14980.89
915.05	15085.34
915.22	14776.09
915.39	14931.74
915.55	14845.73
915.72	14694.18
915.89	14804.77
916.06	14714.66
916.23	14788.38
916.40	14569.25
916.57	14546.72
916.74	14485.28
916.91	14724.90
917.07	14534.43
917.24	14327.59
917.41	14348.07
917.58	14440.23
917.75	14325.54
917.92	14092.07
918.09	14260.01
918.26	14286.63
918.42	14196.52
918.59	14202.66
918.76	14300.97
918.93	13930.28
919.10	13952.81
919.27	13889.32
919.44	13872.94
919.60	14012.20
919.77	13817.65
919.94	13866.80
920.11	13788.97
920.28	13883.18
920.45	13623.09
920.61	13575.98
920.78	13725.49
920.95	13598.51
921.12	13639.47
921.29	13184.82
921.46	13459.25
921.62	13225.78
921.79	13383.48
921.96	13270.84
922.13	13309.75
922.30	13139.77
922.47	13039.42
922.63	13231.93
922.80	13066.04
922.97	12910.40
923.14	12851.00
923.31	12879.68
923.47	12805.95
923.64	13025.08
923.81	12877.63
923.98	12984.12
924.15	12867.39
924.32	12646.21
924.48	12709.69
924.65	12584.77
924.82	12494.66
924.99	12631.87
925.15	12277.57
925.32	12351.30
925.49	12066.63
925.66	12365.64
925.83	12261.19
925.99	12099.40
926.16	12228.42
926.33	12271.43
926.50	11949.90
926.67	11915.08
926.83	11837.26
927.00	12042.06
927.17	11915.08
927.34	11751.24
927.50	11710.29
927.67	11773.77
927.84	11620.17
928.01	11847.50
928.17	11644.75
928.34	11698.00
928.51	11384.66
928.68	11335.51
928.84	11380.56
929.01	11394.90
929.18	11364.18
929.35	11343.70
929.51	11276.12
929.68	11226.96
929.85	11192.15
930.02	11036.50
930.18	11128.66
930.35	11155.29
930.52	10954.58
930.69	11093.85
930.85	10764.12
931.02	10745.69
931.19	10919.77
931.36	10688.35
931.52	10479.46
931.69	10676.06
931.86	10526.56
932.02	10358.63
932.19	10399.59
932.36	10489.70
932.53	10434.40
932.69	10444.64
932.86	10235.75
933.03	10297.19
933.19	10123.11
933.36	10231.65
933.53	10262.37
933.70	9916.26
933.86	10164.07
934.03	9901.93
934.20	9848.68
934.36	9901.93
934.53	9650.03
934.70	9637.74
934.86	9527.15
935.03	9473.90
935.20	9310.07
935.36	9463.66
935.53	9267.06
935.70	9301.87
935.86	9314.16
936.03	9033.59
936.20	8879.99
936.36	8941.43
936.53	8882.04
936.70	8843.13
936.86	9092.98
937.03	8675.20
937.20	8509.31
937.36	8744.83
937.53	8286.08
937.70	8273.79
937.86	8058.76
938.03	8087.43
938.20	8191.88
938.36	7954.31
938.53	8017.80
938.70	7847.82
938.86	7753.61
939.03	7780.23
939.20	7563.15
939.36	7630.73
939.53	7415.69
939.70	7630.73
939.86	7090.07
940.03	7182.23
940.19	7196.56
940.36	7114.64
940.53	7116.69
940.69	6924.18
940.86	6866.84
941.03	6756.25
941.19	6754.20
941.36	6684.57
941.52	6678.43
941.69	6434.72
941.86	6518.68
942.02	6285.22
942.19	6393.76
942.35	6367.13
942.52	6238.11
942.69	6115.23
942.85	6057.89
943.02	6092.71
943.18	5963.68
943.35	5973.92
943.52	6064.04
943.68	6041.51
943.85	5924.77
944.01	6125.47
944.18	5820.33
944.35	5910.44
944.51	5756.84
944.68	5760.94
944.84	5744.55
945.01	5683.11
945.17	5742.50
945.34	5607.34
945.51	5689.26
945.67	5666.73
945.84	5558.19
946.00	5494.70
946.17	5562.28
946.33	5410.73
946.50	5517.23
946.67	5539.76
946.83	5492.65
947.00	5498.80
947.16	5513.13
947.33	5556.14
947.49	5476.27
947.66	5427.12
947.82	5517.23
947.99	5373.87
948.16	5472.17
948.32	5425.07
948.49	5394.35
948.65	5451.69
948.82	5484.46
948.98	5517.23
949.15	5369.77
949.31	5543.85
949.48	5586.86
949.64	5412.78
949.81	5558.19
949.97	5451.69
950.14	5425.07
950.30	5466.03
950.47	5597.10
950.63	5554.09
950.80	5322.67
950.96	5494.70
951.13	5425.07
951.30	5535.66
951.46	5539.76
951.63	5705.64
951.79	5513.13
951.96	5599.15
952.12	5617.58
952.29	5590.95
952.45	5418.93
952.62	5463.98
952.78	5457.84
952.94	5576.62
953.11	5509.04
953.27	5334.96
953.44	5582.76
953.60	5560.24
953.77	5521.32
953.93	5449.64
954.10	5564.33
954.26	5476.27
954.43	5552.04
954.59	5664.68
954.76	5693.35
954.92	5468.08
955.09	5558.19
955.25	5535.66
955.42	5605.29
955.58	5818.28
955.75	5656.49
955.91	5554.09
956.07	5568.43
956.24	5613.48
956.40	5695.40
956.57	5719.98
956.73	5646.25
956.90	5660.59
957.06	5656.49
957.23	5672.87
957.39	5617.58
957.56	5560.24
957.72	5541.80
957.88	5588.91
958.05	5681.07
958.21	5578.67
958.38	5633.96
958.54	5713.83
958.71	5730.22
958.87	5511.08
959.03	5455.79
959.20	5605.29
959.36	5648.30
959.53	5457.84
959.69	5525.42
959.85	5685.16
960.02	5543.85
960.18	5517.23
960.35	5506.99
960.51	5705.64
960.68	5402.54
960.84	5705.64
961.00	5482.41
961.17	5502.89
961.33	5711.78
961.50	5574.57
961.66	5685.16
961.82	5597.10
961.99	5582.76
962.15	5572.52
962.31	5689.26
962.48	5603.24
962.64	5681.07
962.81	5593.00
962.97	5504.94
963.13	5640.11
963.30	5558.19
963.46	5599.15
963.62	5533.61
963.79	5435.31
963.95	5504.94
964.12	5365.68
964.28	5539.76
964.44	5433.26
964.61	5425.07
964.77	5511.08
964.93	5586.86
965.10	5593.00
965.26	5470.12
965.42	5468.08
965.59	5437.36
965.75	5506.99
965.92	5306.29
966.08	5435.31
966.24	5357.49
966.41	5404.59
966.57	5519.28
966.73	5480.36
966.90	5488.56
967.06	5472.17
967.22	5431.21
967.39	5339.05
967.55	5382.06
967.71	5377.97
967.88	5353.39
968.04	5291.95
968.20	5353.39
968.37	5271.47
968.53	5298.10
968.69	5279.66
968.85	5302.19
969.02	5275.57
969.18	5435.31
969.34	5322.67
969.51	5294.00
969.67	5226.42
969.83	5070.77
970.00	5351.34
970.16	4966.32
970.32	5181.36
970.48	5167.03
970.65	5117.87
970.81	5009.33
970.97	5107.63
971.14	5017.52
971.30	5109.68
971.46	5124.02
971.63	5124.02
971.79	5103.54
971.95	5158.83
972.11	4984.76
972.28	5132.21
972.44	5046.20
972.60	5007.28
972.76	5019.57
972.93	4972.47
973.09	4960.18
973.25	4964.28
973.42	5044.15
973.58	5066.67
973.74	5005.24
973.90	4997.04
974.07	4999.09
974.23	5025.72
974.39	4898.74
974.55	4902.84
974.72	4771.77
974.88	4796.34
975.04	4986.80
975.20	4861.88
975.37	4913.08
975.53	4849.59
975.69	4761.53
975.85	4777.91
976.01	4847.54
976.18	4904.89
976.34	4808.63
976.50	4804.53
976.66	4841.40
976.83	4790.20
976.99	4794.29
977.15	4759.48
977.31	4659.13
977.47	4712.38
977.64	4745.14
977.80	4796.34
977.96	4736.95
978.12	4749.24
978.29	4687.80
978.45	4581.31
978.61	4581.31
978.77	4712.38
978.93	4548.54
979.10	4605.88
979.26	4663.22
979.42	4569.02
979.58	4556.73
979.74	4534.20
979.91	4491.20
980.07	4550.59
980.23	4501.44
980.39	4433.85
980.55	4499.39
980.71	4509.63
980.88	4403.13
981.04	4362.17
981.20	4519.87
981.36	4458.43
981.52	4485.05
981.68	4429.76
981.85	4589.50
982.01	4394.94
982.17	4362.17
982.33	4409.28
982.49	4417.47
982.65	4292.54
982.82	4347.84
982.98	4403.13
983.14	4222.91
983.30	4384.70
983.46	4450.24
983.62	4286.40
983.79	4308.93
983.95	4243.39
984.11	4329.41
984.27	4284.35
984.43	4319.17
984.59	4194.24
984.75	4390.84
984.91	4184.00
985.08	4153.28
985.24	4257.73
985.40	4175.81
985.56	4294.59
985.72	4294.59
985.88	4235.20
986.04	4128.70
986.20	4089.79
986.37	4169.66
986.53	4163.52
986.69	4124.61
986.85	3997.64
987.01	4165.57
987.17	4118.47
987.33	4184.00
987.49	4036.55
987.65	3925.96
987.82	4077.51
987.98	3919.81
988.14	4050.88
988.30	3985.35
988.46	3917.76
988.62	3973.06
988.78	3813.32
988.94	3880.90
989.10	3862.47
989.26	3811.27
989.42	3878.85
989.59	3805.13
989.75	3778.50
989.91	3772.36
990.07	3696.58
990.23	3823.56
990.39	3948.48
990.55	3858.37
990.71	3809.22
990.87	3841.99
991.03	3788.74
991.19	3831.75
991.35	3823.56
991.51	3805.13
991.67	3891.14
991.83	3755.97
992.00	3780.55
992.16	3831.75
992.32	3788.74
992.48	3891.14
992.64	3639.24
992.80	3710.92
992.96	3721.16
993.12	3794.89
993.28	3811.27
993.44	3731.40
993.60	3706.82
993.76	3805.13
993.92	3710.92
994.08	3725.26
994.24	3706.82
994.40	3674.06
994.56	3731.40
994.72	3485.64
994.88	3565.51
995.04	3602.38
995.20	3469.26
995.36	3600.33
995.52	3612.62
995.68	3442.64
995.84	3518.41
996.00	3708.87
996.16	3499.98
996.32	3471.31
996.48	3491.79
996.64	3549.13
996.80	3393.48
996.96	3428.30
997.12	3459.02
997.28	3477.45
997.44	3493.83
997.60	3432.40
997.76	3352.52
997.92	3442.64
998.08	3440.59
998.24	3297.23
998.40	3422.16
998.56	3514.31
998.72	3303.37
998.88	3276.75
999.04	3356.62
999.20	3276.75
999.36	3258.32
999.52	3432.40
999.68	3434.44
999.84	3336.14
1000.00	3321.81
1000.16	3399.63
1000.32	3225.55
1000.48	3358.67
1000.64	3225.55
1000.80	3168.21
1000.95	3114.96
1001.11	3172.30
1001.27	3217.36
1001.43	3180.50
1001.59	3151.82
1001.75	3170.26
1001.91	3198.93
1002.07	3153.87
1002.23	3170.26
1002.39	3235.79
1002.55	3207.12
1002.71	3125.20
1002.87	3131.34
1003.03	3096.53
1003.19	3088.34
1003.34	3184.59
1003.50	3063.76
1003.66	3176.40
1003.82	3119.06
1003.98	3006.42
1004.14	3071.95
1004.30	3004.37
1004.46	3028.95
1004.62	3016.66
1004.78	3012.56
1004.94	3065.81
1005.09	2998.23
1005.25	3153.87
1005.41	2959.31
1005.57	3047.38
1005.73	3053.52
1005.89	2873.30
1006.05	2967.51
1006.21	2961.36
1006.37	2940.88
1006.52	2969.55
1006.68	2861.01
1006.84	3108.82
1007.00	2934.74
1007.16	2965.46
1007.32	2928.60
1007.48	2797.53
1007.64	2881.49
1007.79	2987.99
1007.95	2785.24
1008.11	2965.46
1008.27	2846.68
1008.43	2824.15
1008.59	2826.20
1008.75	2834.39
1008.91	2858.96
1009.06	2783.19
1009.22	2871.25
1009.38	2834.39
1009.54	2854.87
1009.70	2828.24
1009.86	2848.72
1010.01	2824.15
1010.17	2770.90
1010.33	2850.77
1010.49	2721.75
1010.65	2858.96
1010.81	2660.31
1010.96	2731.99
1011.12	2686.94
1011.28	2727.89
1011.44	2811.86
1011.60	2662.36
1011.76	2697.17
1011.91	2813.91
1012.07	2600.92
1012.23	2672.60
1012.39	2674.65
1012.55	2697.17
1012.71	2619.35
1012.86	2629.59
1013.02	2719.70
1013.18	2615.26
1013.34	2686.94
1013.50	2691.03
1013.65	2605.02
1013.81	2574.30
1013.97	2662.36
1014.13	2656.22
1014.29	2502.62
1014.44	2682.84
1014.60	2615.26
1014.76	2598.87
1014.92	2545.63
1015.07	2582.49
1015.23	2531.29
1015.39	2576.34
1015.55	2609.11
1015.71	2478.04
1015.86	2461.66
1016.02	2537.43
1016.18	2408.41
1016.34	2461.66
1016.49	2551.77
1016.65	2613.21
1016.81	2441.18
1016.97	2539.48
1017.12	2557.91
1017.28	2387.93
1017.44	2369.50
1017.60	2449.37
1017.75	2512.86
1017.91	2449.37
1018.07	2414.56
1018.23	2475.99
1018.38	2392.03
1018.54	2342.88
1018.70	2375.64
1018.86	2394.08
1019.01	2459.61
1019.17	2402.27
1019.33	2562.01
1019.49	2412.51
1019.64	2402.27
1019.80	2363.36
1019.96	2494.43
1020.12	2394.08
1020.27	2334.68
1020.43	2314.20
1020.59	2328.54
1020.74	2381.79
1020.90	2430.94
1021.06	2308.06
1021.22	2314.20
1021.37	2379.74
1021.53	2303.96
1021.69	2314.20
1021.84	2318.30
1022.00	2318.30
1022.16	2318.30
1022.31	2279.39
1022.47	2408.41
1022.63	2379.74
1022.79	2273.25
1022.94	2283.49
1023.10	2263.01
1023.26	2244.57
1023.41	2330.59
1023.57	2236.38
1023.73	2365.40
1023.88	2273.25
1024.04	2121.70
1024.20	2142.18
1024.35	2199.52
1024.51	2258.91
1024.67	2174.94
1024.82	2242.53
1024.98	2185.18
1025.14	2228.19
1025.29	2224.09
1025.45	2316.25
1025.61	2097.12
1025.76	2232.29
1025.92	2263.01
1026.08	2226.14
1026.23	2226.14
1026.39	2279.39
1026.55	2158.56
1026.70	2191.33
1026.86	2232.29
1027.02	2205.66
1027.17	2199.52
1027.33	2146.27
1027.48	2099.17
1027.64	2211.81
1027.80	2117.60
1027.95	2213.85
1028.11	2082.78
1028.27	2172.89
1028.42	2136.03
1028.58	2068.45
1028.73	2103.26
1028.89	2084.83
1029.05	2146.27
1029.20	2066.40
>>>>>End Processed Spectral Data<<<<<
