SpectraSuite Data File
++++++++++++++++++++++++++++++++++++
Date: Fri Jun 02 14:52:23 CEST 2017
User: INFO_000
Dark Spectrum Present: No
Reference Spectrum Present: No
Number of Sampled Component Spectra: 1
Spectrometers: USB4H00879
Integration Time (usec): 80000 (USB4H00879)
Spectra Averaged: 1 (USB4H00879)
Boxcar Smoothing: 0 (USB4H00879)
Correct for Electrical Dark: No (USB4H00879)
Strobe/Lamp Enabled: No (USB4H00879)
Correct for Detector Non-linearity: No (USB4H00879)
Correct for Stray Light: No (USB4H00879)
Number of Pixels in Processed Spectrum: 3648
>>>>>Begin Processed Spectral Data<<<<<
345.13	1273.84
345.34	1273.84
345.56	1273.84
345.78	1279.98
345.99	1282.03
346.21	1656.81
346.42	1675.24
346.64	1619.94
346.86	1822.69
347.07	1560.55
347.29	1720.29
347.50	1683.43
347.72	1693.67
347.94	1765.35
348.15	1560.55
348.37	1642.47
348.59	1773.54
348.80	1556.46
349.02	1722.34
349.23	1789.92
349.45	1763.30
349.67	1851.36
349.88	1722.34
350.10	1894.37
350.31	1802.21
350.53	1708.01
350.75	1902.56
350.96	1667.05
351.18	1802.21
351.39	1794.02
351.61	1810.40
351.82	1861.60
352.04	1865.70
352.26	1763.30
352.47	1869.80
352.69	1871.84
352.90	1708.01
353.12	1755.11
353.34	1746.92
353.55	1822.69
353.77	1822.69
353.98	1746.92
354.20	1769.44
354.41	1880.04
354.63	1798.12
354.85	2019.30
355.06	1873.89
355.28	1675.24
355.49	1884.13
355.71	1837.03
355.92	1759.21
356.14	1904.61
356.35	1765.35
356.57	1736.68
356.79	1908.71
357.00	1818.60
357.22	1890.28
357.43	1755.11
357.65	1937.38
357.86	1804.26
358.08	1832.93
358.29	1853.41
358.51	1824.74
358.72	1927.14
358.94	1867.75
359.16	1830.88
359.37	1804.26
359.59	1910.75
359.80	1968.10
360.02	1845.22
360.23	1935.33
360.45	1912.80
360.66	1863.65
360.88	1728.49
361.09	1904.61
361.31	1949.67
361.52	1855.46
361.74	2017.25
361.95	1945.57
362.17	1814.50
362.38	1992.67
362.60	2023.39
362.81	2007.01
363.03	1894.37
363.24	1927.14
363.46	2033.63
363.67	1853.41
363.89	1839.08
364.10	1933.28
364.32	1929.19
364.53	1992.67
364.75	1812.45
364.96	1839.08
365.18	1906.66
365.39	1953.76
365.61	1867.75
365.82	2033.63
366.04	1957.86
366.25	1806.31
366.47	1957.86
366.68	1925.09
366.90	1861.60
367.11	1941.47
367.33	2025.44
367.54	1957.86
367.76	1947.62
367.97	2033.63
368.19	1894.37
368.40	2080.74
368.62	1923.04
368.83	1914.85
369.05	1920.99
369.26	1855.46
369.48	1916.90
369.69	2009.06
369.91	1974.24
370.12	1951.71
370.33	1984.48
370.55	1845.22
370.76	1986.53
370.98	2095.07
371.19	1970.15
371.41	2007.01
371.62	2025.44
371.84	1935.33
372.05	2002.91
372.27	2011.11
372.48	2045.92
372.69	1996.77
372.91	2072.54
373.12	2058.21
373.34	1927.14
373.55	2035.68
373.77	2027.49
373.98	2056.16
374.20	2107.36
374.41	2168.80
374.62	2078.69
374.84	2101.22
375.05	2119.65
375.27	2115.55
375.48	2115.55
375.70	2045.92
375.91	2224.09
376.12	2191.33
376.34	2197.47
376.55	2140.13
376.77	2224.09
376.98	2015.20
377.19	2078.69
377.41	2052.06
377.62	2168.80
377.84	2283.49
378.05	2293.72
378.27	2133.98
378.48	2246.62
378.69	2285.53
378.91	2332.64
379.12	2236.38
379.34	2136.03
379.55	2213.85
379.76	2224.09
379.98	2142.18
380.19	2181.09
380.41	2220.00
380.62	2275.29
380.83	2197.47
381.05	2164.70
381.26	2473.95
381.47	2176.99
381.69	2260.96
381.90	2367.45
382.12	2234.33
382.33	2269.15
382.54	2306.01
382.76	2267.10
382.97	2254.81
383.19	2199.52
383.40	2420.70
383.61	2289.63
383.83	2232.29
384.04	2371.55
384.25	2367.45
384.47	2357.21
384.68	2285.53
384.89	2271.20
385.11	2281.44
385.32	2312.16
385.54	2277.34
385.75	2283.49
385.96	2414.56
386.18	2426.84
386.39	2408.41
386.60	2328.54
386.82	2408.41
387.03	2471.90
387.24	2449.37
387.46	2428.89
387.67	2514.91
387.88	2508.76
388.10	2498.52
388.31	2432.99
388.52	2621.40
388.74	2547.67
388.95	2574.30
389.16	2568.15
389.38	2416.60
389.59	2574.30
389.80	2566.10
390.02	2539.48
390.23	2637.78
390.44	2412.51
390.66	2662.36
390.87	2562.01
391.08	2670.55
391.30	2637.78
391.51	2664.41
391.72	2656.22
391.94	2660.31
392.15	2686.94
392.36	2609.11
392.58	2574.30
392.79	2652.12
393.00	2643.93
393.22	2740.18
393.43	2846.68
393.64	2709.46
393.85	2832.34
394.07	2746.33
394.28	2660.31
394.49	2795.48
394.71	2856.92
394.92	2842.58
395.13	2701.27
395.35	2672.60
395.56	2731.99
395.77	2822.10
395.98	2904.02
396.20	2895.83
396.41	2822.10
396.62	2830.29
396.84	2838.48
397.05	2881.49
397.26	2932.69
397.47	3057.62
397.69	2842.58
397.90	3065.81
398.11	2944.98
398.32	2893.78
398.54	2865.11
398.75	2953.17
398.96	3026.90
399.18	3104.72
399.39	2994.13
399.60	3071.95
399.81	2953.17
400.03	3053.52
400.24	3327.95
400.45	3016.66
400.66	3117.01
400.88	3135.44
401.09	3252.17
401.30	3102.67
401.51	3198.93
401.73	3123.15
401.94	3157.97
402.15	3141.58
402.36	3313.61
402.58	3114.96
402.79	3168.21
403.00	3182.54
403.21	3178.45
403.43	3295.18
403.64	3299.28
403.85	3172.30
404.06	3194.83
404.27	3227.60
404.49	3166.16
404.70	3174.35
404.91	3356.62
405.12	3237.84
405.34	3297.23
405.55	3471.31
405.76	3147.73
405.97	3268.56
406.19	3348.43
406.40	3334.09
406.61	3350.48
406.82	3327.95
407.03	3352.52
407.25	3346.38
407.46	3510.22
407.67	3440.59
407.88	3495.88
408.09	3319.76
408.31	3411.92
408.52	3456.97
408.73	3444.68
408.94	3311.57
409.15	3436.49
409.37	3502.03
409.58	3475.40
409.79	3608.52
410.00	3532.75
410.21	3520.46
410.43	3540.94
410.64	3512.27
410.85	3604.42
411.06	3639.24
411.27	3557.32
411.48	3657.67
411.70	3606.47
411.91	3590.09
412.12	3620.81
412.33	3641.29
412.54	3700.68
412.76	3809.22
412.97	3737.54
413.18	3557.32
413.39	3721.16
413.60	3772.36
413.81	3708.87
414.03	3620.81
414.24	3723.21
414.45	3895.24
414.66	3542.99
414.87	3725.26
415.08	3672.01
415.30	3809.22
415.51	3770.31
415.72	3876.80
415.93	3741.64
416.14	3882.95
416.35	3821.51
416.56	3788.74
416.78	3866.56
416.99	3917.76
417.20	3809.22
417.41	3923.91
417.62	3944.39
417.83	4020.16
418.04	3952.58
418.26	3981.25
418.47	3989.44
418.68	3917.76
418.89	3956.68
419.10	4073.41
419.31	3987.40
419.52	3921.86
419.73	4095.94
419.95	4157.38
420.16	4077.51
420.37	4075.46
420.58	4077.51
420.79	4014.02
421.00	4169.66
421.21	4245.44
421.42	4091.84
421.63	4224.96
421.85	4220.86
422.06	4157.38
422.27	4196.29
422.48	4194.24
422.69	4327.36
422.90	4351.93
423.11	4358.08
423.32	4411.32
423.53	4329.41
423.75	4399.04
423.96	4534.20
424.17	4435.90
424.38	4626.36
424.59	4448.19
424.80	4773.82
425.01	4532.15
425.22	4399.04
425.43	4489.15
425.64	4648.89
425.85	4634.55
426.06	4593.59
426.28	4671.42
426.49	4556.73
426.70	4708.28
426.91	4747.19
427.12	4683.70
427.33	4804.53
427.54	4657.08
427.75	4812.73
427.96	4941.75
428.17	4886.45
428.38	4859.83
428.59	4863.93
428.80	4833.21
429.01	4802.49
429.23	5011.38
429.44	5048.24
429.65	5038.00
429.86	5054.39
430.07	5023.67
430.28	4880.31
430.49	5154.74
430.70	5111.73
430.91	5111.73
431.12	5048.24
431.33	5113.78
431.54	5191.60
431.75	5109.68
431.96	5207.98
432.17	5287.86
432.38	5146.55
432.59	5380.01
432.80	5392.30
433.01	5433.26
433.22	5363.63
433.43	5373.87
433.64	5363.63
433.85	5222.32
434.06	5509.04
434.27	5404.59
434.49	5433.26
434.70	5521.32
434.91	5586.86
435.12	5717.93
435.33	5572.52
435.54	5506.99
435.75	5394.35
435.96	5601.19
436.17	5398.45
436.38	5539.76
436.59	5552.04
436.80	5609.39
437.01	5916.58
437.22	5795.75
437.43	5662.63
437.64	5588.91
437.85	5849.00
438.06	5799.85
438.27	5615.53
438.48	5785.51
438.69	5988.26
438.90	5957.54
439.11	5932.97
439.32	5953.45
439.53	5824.42
439.74	6000.55
439.95	5973.92
440.16	5992.36
440.37	5900.20
440.57	5935.01
440.78	6049.70
440.99	6049.70
441.20	6107.04
441.41	5799.85
441.62	6164.39
441.83	6150.05
442.04	6229.92
442.25	6109.09
442.46	6135.71
442.67	6311.84
442.88	6746.01
443.09	6092.71
443.30	6029.22
443.51	6295.46
443.72	6537.12
443.93	6309.79
444.14	6684.57
444.35	6145.95
444.56	6467.49
444.77	6240.16
444.98	6416.29
445.19	6483.87
445.40	6455.20
445.61	6520.73
445.81	6616.99
446.02	6637.47
446.23	6401.95
446.44	6309.79
446.65	6655.90
446.86	6659.99
447.07	6692.76
447.28	6840.22
447.49	6879.13
447.70	6631.32
447.91	6633.37
448.12	6782.87
448.33	6844.31
448.54	6959.00
448.74	6635.42
448.95	6985.62
449.16	6879.13
449.37	7114.64
449.58	6848.41
449.79	7214.99
450.00	6905.75
450.21	7014.29
450.42	7085.97
450.63	7307.15
450.84	6936.47
451.05	7128.98
451.25	7131.03
451.46	6977.43
451.67	7290.77
451.88	7526.29
452.09	7227.28
452.30	7210.90
452.51	7143.32
452.72	7167.89
452.93	7638.92
453.13	7190.42
453.34	7227.28
453.55	7458.70
453.76	7374.74
453.97	7776.14
454.18	7346.06
454.39	7638.92
454.60	7522.19
454.81	7823.24
455.01	7651.21
455.22	7452.56
455.43	7741.32
455.64	7980.93
455.85	8003.46
456.06	8001.41
456.27	7982.98
456.48	7876.49
456.68	8177.54
456.89	7999.37
457.10	8177.54
457.31	8038.28
457.52	8091.52
457.73	8011.65
457.94	8396.67
458.14	8089.48
458.35	8585.08
458.56	8421.25
458.77	8066.95
458.98	8443.78
459.19	8259.46
459.39	8523.65
459.60	8662.91
459.81	8490.88
460.02	8718.20
460.23	8615.80
460.44	8826.75
460.65	8824.70
460.85	8798.07
461.06	9009.01
461.27	8683.39
461.48	9009.01
461.69	9105.27
461.89	8716.16
462.10	9324.40
462.31	8863.61
462.52	8933.24
462.73	9121.65
462.94	9351.03
463.14	8966.01
463.35	9115.51
463.56	9592.69
463.77	9643.88
463.98	9441.14
464.18	9396.08
464.39	9625.45
464.60	9670.51
464.81	9809.77
465.02	9639.79
465.23	9994.09
465.43	9684.84
465.64	10067.81
465.85	10149.73
466.06	9805.67
466.27	10370.91
466.47	10202.98
466.68	10299.23
466.89	10350.43
467.10	10383.20
467.30	10155.88
467.51	10547.04
467.72	10858.33
467.93	10364.77
468.14	10479.46
468.34	10776.41
468.55	10864.47
468.76	10557.28
468.97	10497.89
469.17	11122.52
469.38	11018.07
469.59	11032.41
469.80	11114.33
470.01	10991.45
470.21	11122.52
470.42	11327.32
470.63	11315.03
470.84	11183.96
471.04	11636.56
471.25	11462.48
471.46	11620.17
471.67	11691.85
471.87	11671.37
472.08	11847.50
472.29	11974.47
472.50	11870.03
472.70	11943.75
472.91	11939.66
473.12	12193.61
473.33	12234.57
473.53	12478.27
473.74	12545.86
473.95	12498.75
474.16	12445.51
474.36	12844.86
474.57	12750.65
474.78	12808.00
474.99	12949.31
475.19	12861.24
475.40	12932.92
475.61	13166.39
475.81	13377.33
476.02	13233.97
476.23	13363.00
476.44	13477.68
476.64	13729.58
476.85	13784.88
477.06	13608.75
477.27	14042.92
477.47	14087.98
477.68	13946.67
477.89	14171.94
478.09	14194.47
478.30	14274.34
478.51	14411.56
478.71	14495.52
478.92	14534.43
479.13	14618.40
479.34	14810.91
479.54	14731.04
479.75	14946.08
479.96	14915.36
480.16	14995.23
480.37	15290.13
480.58	15261.46
480.78	15626.00
480.99	15431.44
481.20	15697.68
481.41	15462.16
481.61	15709.97
481.82	16008.97
482.03	15738.64
482.23	16008.97
482.44	16054.03
482.65	16207.62
482.85	16455.43
483.06	16391.94
483.27	16307.98
483.47	16596.74
483.68	16506.63
483.89	16860.93
484.09	16604.93
484.30	16969.47
484.51	16948.99
484.71	17334.01
484.92	17114.87
485.13	17256.18
485.33	17309.43
485.54	17256.18
485.75	17747.70
485.95	17987.31
486.16	17690.35
486.37	18044.65
486.57	17839.86
486.78	17706.74
486.98	17962.73
487.19	18071.28
487.40	18218.73
487.60	18231.02
487.81	18462.44
488.02	18527.97
488.22	18390.76
488.43	18534.12
488.64	18491.11
488.84	18767.59
489.05	18990.81
489.25	18982.62
489.46	19168.99
489.67	19171.04
489.87	19392.22
490.08	19427.03
490.29	19302.11
490.49	19842.77
490.70	19635.92
490.90	19775.19
491.11	19769.04
491.32	20063.95
491.52	19869.39
491.73	19896.02
491.94	19990.22
492.14	20172.49
492.35	20819.65
492.55	20504.26
492.76	20612.81
492.97	20586.18
493.17	20707.01
493.38	20637.38
493.58	21069.50
493.79	20928.19
494.00	20850.37
494.20	21143.23
494.41	21382.84
494.61	21327.55
494.82	21266.11
495.02	21153.47
495.23	21794.48
495.44	21866.16
495.64	21896.88
495.85	21616.31
496.05	21970.61
496.26	21921.46
496.47	22470.31
496.67	22046.38
496.88	22480.55
497.08	21939.89
497.29	22613.67
497.49	22431.40
497.70	22746.79
497.91	22793.89
498.11	22783.65
498.32	22742.69
498.52	22988.45
498.73	23266.97
498.93	23031.46
499.14	23293.60
499.34	23316.12
499.55	23281.31
499.76	22908.58
499.96	23449.24
500.17	23412.38
500.37	23559.83
500.58	23709.33
500.78	23752.34
500.99	23789.20
501.19	24075.92
501.40	23922.32
501.60	23959.19
501.81	24145.55
502.02	24112.78
502.22	23928.47
502.43	24536.71
502.63	24194.70
502.84	24354.44
503.04	24477.32
503.25	24338.06
503.45	24616.58
503.66	24805.00
503.86	24934.02
504.07	25323.13
504.27	24788.61
504.48	25214.59
504.68	25153.15
504.89	25294.46
505.09	25503.35
505.30	25357.95
505.50	25333.37
505.71	25540.22
505.91	25634.42
506.12	25548.41
506.32	25644.66
506.53	25716.34
506.73	25796.21
506.94	26072.69
507.14	25867.89
507.35	25923.19
507.55	25820.79
507.76	26127.99
507.96	25976.44
508.17	26150.51
508.37	26289.77
508.58	26414.70
508.78	26359.41
508.99	26631.79
509.19	26447.47
509.40	26353.26
509.60	26539.63
509.81	27004.52
510.01	26842.73
510.22	26386.03
510.42	27217.50
510.63	26973.80
510.83	26873.45
511.04	26859.11
511.24	27430.49
511.44	27117.15
511.65	27039.33
511.85	27170.40
512.06	27182.69
512.26	27125.35
512.47	27434.59
512.67	27676.25
512.88	27559.52
513.08	27274.85
513.29	27858.52
513.49	27774.55
513.69	27788.89
513.90	28063.32
514.10	27971.16
514.31	27803.22
514.51	28401.23
514.72	27872.85
514.92	27846.23
515.13	28264.02
515.33	28249.68
515.53	28368.46
515.74	28407.37
515.94	28526.16
516.15	28683.85
516.35	28036.69
516.56	28634.70
516.76	28575.31
516.96	28663.37
517.17	28544.59
517.37	28651.08
517.58	28712.52
517.78	28980.81
517.99	29019.72
518.19	28927.56
518.39	29218.37
518.60	29124.16
518.80	29167.17
519.01	29630.01
519.21	29017.67
519.41	29449.79
519.62	29492.80
519.82	29505.09
520.03	29683.26
520.23	29677.12
520.43	29699.64
520.64	30230.07
520.84	30004.79
521.05	29724.22
521.25	29906.49
521.45	30058.04
521.66	30086.71
521.86	30197.30
522.07	29984.31
522.27	30426.67
522.47	30291.51
522.68	30666.28
522.88	30395.95
523.08	31008.29
523.29	30527.02
523.49	30688.81
523.70	30621.23
523.90	31192.61
524.10	30772.78
524.31	31219.24
524.51	31194.66
524.71	31122.98
524.92	31163.94
525.12	31295.01
525.33	31307.30
525.53	31469.09
525.73	31946.26
525.94	31616.54
526.14	31651.36
526.34	31778.33
526.55	31862.30
526.75	31835.67
526.95	32085.53
527.16	32089.62
527.36	32081.43
527.56	32351.76
527.77	32409.11
527.97	32407.06
528.17	32345.62
528.38	32314.90
528.58	32822.80
528.78	33009.16
528.99	32833.04
529.19	33197.57
529.39	32763.40
529.60	32941.58
529.80	33220.10
530.00	33420.80
530.21	33644.03
530.41	33359.36
530.61	33441.28
530.82	33668.61
531.02	33562.11
531.22	33705.47
531.43	33805.82
531.63	33928.70
531.83	34219.51
532.04	34510.32
532.24	34166.26
532.44	34485.75
532.64	34743.79
532.85	34272.76
533.05	34706.93
533.25	34721.26
533.46	34582.00
533.66	34993.64
533.86	34758.13
534.07	35210.73
534.27	34934.25
534.47	35538.40
534.67	35309.03
534.88	35233.25
535.08	35188.20
535.28	35503.59
535.49	35558.88
535.69	36146.65
535.89	36144.60
536.09	35790.30
536.30	36101.59
536.50	36203.99
536.70	36279.77
536.91	36369.88
537.11	36529.62
537.31	36466.13
537.51	36259.29
537.72	36638.16
537.92	36619.73
538.12	36871.63
538.32	36675.02
538.53	37389.77
538.73	36847.05
538.93	37223.88
539.13	37213.64
539.34	37234.12
539.54	36969.93
539.74	37529.03
539.94	37756.35
540.15	37365.19
540.35	37647.81
540.55	37879.23
540.75	37729.73
540.96	37688.77
541.16	37725.63
541.36	37998.01
541.56	37920.19
541.77	38497.72
541.97	38135.23
542.17	38139.32
542.37	38135.23
542.58	38720.95
542.78	38505.91
542.98	38647.22
543.18	38602.16
543.38	38972.85
543.59	39159.21
543.79	38897.07
543.99	39048.62
544.19	39359.91
544.40	39003.56
544.60	39269.80
544.80	39536.04
545.00	39517.60
545.20	39701.92
545.41	39364.01
545.61	39413.16
545.81	39878.05
546.01	39640.48
546.21	39642.53
546.42	39632.29
546.62	39822.75
546.82	39769.51
547.02	39972.25
547.22	40349.08
547.43	39966.11
547.63	40486.29
547.83	40293.79
548.03	39880.10
548.23	40560.02
548.44	40172.96
548.64	40562.07
548.84	40523.16
549.04	40897.94
549.24	40639.89
549.45	41194.89
549.65	40664.47
549.85	41153.93
550.05	41287.05
550.25	41014.67
550.45	41430.41
550.66	41125.26
550.86	41022.86
551.06	41371.02
551.26	41487.75
551.46	41524.61
551.66	41729.41
551.87	41608.58
552.07	41534.85
552.27	41407.88
552.47	41528.71
552.67	41960.83
552.87	41715.08
553.07	42075.52
553.28	42096.00
553.48	42102.14
553.68	42182.01
553.88	42526.07
554.08	42343.80
554.28	42003.84
554.48	42208.64
554.69	42270.08
554.89	42509.69
555.09	42157.44
555.29	42218.88
555.49	42548.60
555.69	42677.62
555.89	42335.61
556.10	42521.98
556.30	42444.15
556.50	42966.38
556.70	42661.24
556.90	42986.86
557.10	42833.27
557.30	42759.54
557.50	43273.58
557.70	43267.44
557.91	43361.64
558.11	43335.02
558.31	43488.62
558.51	43203.95
558.71	43554.15
558.91	43509.10
559.11	43099.50
559.31	43447.66
559.51	42691.96
559.72	43455.85
559.92	43756.90
560.12	43326.83
560.32	43697.51
560.52	43857.25
560.72	43947.36
560.92	43785.57
561.12	43681.13
561.32	43935.07
561.52	43914.59
561.72	44098.91
561.93	43912.55
562.13	44055.90
562.33	43896.16
562.53	44408.15
562.73	44000.61
562.93	44256.60
563.13	44539.22
563.33	44051.81
563.53	44494.17
563.73	44385.63
563.93	44383.58
564.13	44836.18
564.33	44182.88
564.53	44467.55
564.74	44442.97
564.94	44301.66
565.14	44240.22
565.34	44756.31
565.54	44660.05
565.74	44752.21
565.94	45260.11
566.14	44373.34
566.34	44727.64
566.54	45284.68
566.74	44768.60
566.94	44744.02
567.14	44930.39
567.34	44862.80
567.54	45284.68
567.74	44909.91
567.94	44770.64
568.14	45620.55
568.34	45192.53
568.54	45245.77
568.74	45206.86
568.94	45313.36
569.14	45538.63
569.34	44938.58
569.54	45055.31
569.75	44934.48
569.95	45706.57
570.15	45806.92
570.35	45423.95
570.55	45487.43
570.75	45673.80
570.95	45815.11
571.15	46083.39
571.35	45909.32
571.55	45956.42
571.75	45679.94
571.95	45985.09
572.15	45612.36
572.35	45872.45
572.55	46101.82
572.75	45978.95
572.95	45700.42
573.15	45987.14
573.35	46124.35
573.55	46097.73
573.75	45827.40
573.95	46011.71
574.15	45972.80
574.35	46196.03
574.55	45987.14
574.75	46038.34
574.95	46456.12
575.15	46175.55
575.34	46347.58
575.54	46519.61
575.74	46447.93
575.94	46323.01
576.14	46513.47
576.34	47232.30
576.54	46791.99
576.74	47013.17
576.94	46527.80
577.14	47021.36
577.34	46939.44
577.54	46837.05
577.74	46980.40
577.94	47084.85
578.14	46908.72
578.34	47605.03
578.54	46626.10
578.74	47267.12
578.94	47408.43
579.14	47002.93
579.34	46914.87
579.54	46873.91
579.74	47488.30
579.94	47750.44
580.13	47662.38
580.33	47523.11
580.53	47754.54
580.73	47670.57
580.93	47330.61
581.13	47723.82
581.33	47897.89
581.53	48086.31
581.73	47961.38
581.93	48336.16
582.13	47846.69
582.33	47828.26
582.53	47922.47
582.73	48190.75
582.92	47582.51
583.12	48213.28
583.32	48211.23
583.52	48235.81
583.72	48606.49
583.92	48213.28
584.12	48516.38
584.32	48895.25
584.52	48712.98
584.72	48719.13
584.92	48387.36
585.11	48631.07
585.31	49005.84
585.51	48735.51
585.71	48983.32
585.91	49202.45
586.11	48557.34
586.31	48684.31
586.51	48928.02
586.71	49120.53
586.91	49276.18
587.10	49310.99
587.30	49466.64
587.50	49327.38
587.70	49370.38
587.90	49169.68
588.10	49335.57
588.30	49222.93
588.50	49804.55
588.69	49480.97
588.89	49122.58
589.09	49511.69
589.29	49392.91
589.49	49898.76
589.69	49595.66
589.89	49853.70
590.08	49503.50
590.28	49874.18
590.48	49827.08
590.68	49919.24
590.88	49833.22
591.08	49716.49
591.28	49456.40
591.47	50205.95
591.67	50124.04
591.87	50429.18
592.07	50484.48
592.27	50291.97
592.47	50193.67
592.67	50337.02
592.86	50072.84
593.06	50240.77
593.26	50081.03
593.46	50717.95
593.66	50681.08
593.86	50384.13
594.05	50656.51
594.25	50681.08
594.45	50517.25
594.65	50787.58
594.85	50400.51
595.05	50750.71
595.24	50873.59
595.44	51027.19
595.64	50965.75
595.84	50765.05
596.04	50914.55
596.23	51008.76
596.43	51346.67
596.63	50988.28
596.83	51377.39
597.03	51248.37
597.22	51588.33
597.42	51449.07
597.62	51408.11
597.82	51588.33
598.02	51563.76
598.21	52112.61
598.41	51647.72
598.61	51739.88
598.81	51821.80
599.01	51979.49
599.20	52071.65
599.40	51574.00
599.60	52198.63
599.80	52264.16
600.00	52190.44
600.19	52272.35
600.39	52413.66
600.59	52649.18
600.79	52419.81
600.98	52102.37
601.18	52770.01
601.38	52673.76
601.58	52696.28
601.78	52458.72
601.97	52704.48
602.17	53085.40
602.37	52944.09
602.57	52796.63
602.76	52896.98
602.96	52964.57
603.16	53275.86
603.36	53249.24
603.55	53468.37
603.75	53466.32
603.95	53703.88
604.15	53712.08
604.34	53347.54
604.54	53775.56
604.74	53447.89
604.94	53632.21
605.13	53650.64
605.33	53667.02
605.53	53877.96
605.73	53773.52
605.92	53945.54
606.12	54148.29
606.32	53888.20
606.52	53873.87
606.71	54037.70
606.91	54174.92
607.11	53961.93
607.30	54334.66
607.50	54414.53
607.70	54932.67
607.90	54252.74
608.09	54598.85
608.29	54695.10
608.49	54625.47
608.68	54705.34
608.88	54789.31
609.08	54596.80
609.28	54871.23
609.47	54375.62
609.67	54903.99
609.87	54652.09
610.06	55395.51
610.26	54992.06
610.46	54916.28
610.66	54664.38
610.85	54656.19
611.05	55002.30
611.25	55280.82
611.44	55139.51
611.64	55092.41
611.84	54826.17
612.03	54863.03
612.23	54865.08
612.43	55116.98
612.62	55014.58
612.82	55401.65
613.02	55121.08
613.21	55358.64
613.41	55141.56
613.61	55717.04
613.80	55260.34
614.00	55723.18
614.20	55282.87
614.39	55506.10
614.59	55639.22
614.79	55866.54
614.98	55385.27
615.18	55438.51
615.38	55688.37
615.57	55338.16
615.77	55655.60
615.97	55534.77
616.16	55291.06
616.36	55415.99
616.56	55725.23
616.75	55444.66
616.95	55600.30
617.15	55743.66
617.34	55565.49
617.54	55712.94
617.74	56057.00
617.93	55874.73
618.13	55426.23
618.32	55682.22
618.52	55426.23
618.72	56143.02
618.91	55403.70
619.11	55448.75
619.31	55467.19
619.50	55506.10
619.70	55530.67
619.90	56157.35
620.09	55829.68
620.29	55461.04
620.48	55696.56
620.68	56343.72
620.88	55510.19
621.07	55975.08
621.27	55874.73
621.46	55440.56
621.66	55846.06
621.86	55911.59
622.05	55114.94
622.25	56394.92
622.44	55909.55
622.64	55913.64
622.84	55866.54
623.03	55520.43
623.23	55772.33
623.42	55743.66
623.62	56337.57
623.82	56292.52
624.01	55557.30
624.21	56210.60
624.40	55489.71
624.60	55741.61
624.80	55762.09
624.99	55667.89
625.19	55108.79
625.38	55833.77
625.58	55790.76
625.77	55817.39
625.97	55626.93
626.17	55475.38
626.36	55600.30
626.56	55899.31
626.75	55393.46
626.95	55833.77
627.14	55514.29
627.34	56138.92
627.54	55624.88
627.73	55551.15
627.93	55409.84
628.12	55719.09
628.32	56464.55
628.51	55604.40
628.71	56159.40
628.90	55962.79
629.10	56065.19
629.30	56020.14
629.49	56016.04
629.69	55991.47
629.88	55573.68
630.08	55911.59
630.27	56112.30
630.47	55850.16
630.66	55717.04
630.86	55624.88
631.05	55551.15
631.25	56259.75
631.44	56022.19
631.64	55745.71
631.84	56298.66
632.03	56300.71
632.23	55798.96
632.42	55948.46
632.62	56077.48
632.81	55456.95
633.01	56054.95
633.20	56128.68
633.40	56005.80
633.59	55829.68
633.79	55669.93
633.98	55932.07
634.18	56079.53
634.37	56231.08
634.57	55661.74
634.76	56095.91
634.96	56259.75
635.15	55714.99
635.35	55727.28
635.54	56063.14
635.74	56259.75
635.93	55964.84
636.13	56104.10
636.32	56282.28
636.52	55606.45
636.71	56028.33
636.91	55882.92
637.10	55913.64
637.30	56067.24
637.49	55999.66
637.69	55887.02
637.88	56196.26
638.08	55706.80
638.27	56048.81
638.46	55688.37
638.66	55964.84
638.85	55659.69
639.05	55909.55
639.24	56007.85
639.44	55749.81
639.63	55606.45
639.83	56206.50
640.02	55727.28
640.22	55868.59
640.41	55930.03
640.61	55502.00
640.80	56300.71
640.99	55860.40
641.19	56446.11
641.38	56054.95
641.58	56061.10
641.77	55735.47
641.97	56059.05
642.16	56054.95
642.36	56427.68
642.55	56468.64
642.74	55325.88
642.94	56722.59
643.13	56024.23
643.33	56859.80
643.52	56302.76
643.72	56368.29
643.91	56134.82
644.10	56382.63
644.30	56431.78
644.49	56157.35
644.69	56769.69
644.88	56220.84
645.08	56313.00
645.27	56116.39
645.46	55764.14
645.66	56622.24
645.85	56192.17
646.05	55899.31
646.24	56243.37
646.43	56513.70
646.63	56769.69
646.82	56738.97
647.02	56616.10
647.21	56431.78
647.40	56648.86
647.60	56777.89
647.79	56788.13
647.99	56415.40
648.18	56374.44
648.37	56648.86
648.57	56923.29
648.76	56689.82
648.96	56106.15
649.15	56550.56
649.34	56628.38
649.54	56622.24
649.73	55794.86
649.92	56317.09
650.12	56595.62
650.31	56661.15
650.51	56452.26
650.70	56714.40
650.89	56425.64
651.09	57578.64
651.28	56968.35
651.47	56722.59
651.67	56607.90
651.86	57037.98
652.06	55999.66
652.25	56353.96
652.44	56419.49
652.64	56888.48
652.83	56380.58
653.02	55973.03
653.22	56509.60
653.41	56452.26
653.60	55915.69
653.80	56435.87
653.99	57064.60
654.18	56456.35
654.38	56612.00
654.57	56638.62
654.76	56554.66
654.96	56730.78
655.15	56407.20
655.34	56304.80
655.54	56360.10
655.73	56876.19
655.92	56552.61
656.12	56720.54
656.31	56442.02
656.50	56792.22
656.70	56538.27
656.89	56714.40
657.08	56736.93
657.28	56556.70
657.47	56669.34
657.66	56872.09
657.86	56390.82
658.05	56702.11
658.24	56857.76
658.43	56595.62
658.63	57179.29
658.82	56761.50
659.01	56659.10
659.21	57195.67
659.40	57128.09
659.59	56968.35
659.79	56892.57
659.98	56718.49
660.17	57050.27
660.36	56980.63
660.56	57130.14
660.75	57031.83
660.94	56538.27
661.14	56665.25
661.33	56906.91
661.52	56642.72
661.71	56992.92
661.91	56331.43
662.10	56669.34
662.29	57179.29
662.49	56994.97
662.68	57066.65
662.87	57193.62
663.06	56808.61
663.26	56722.59
663.45	57625.74
663.64	56874.14
663.83	57095.32
664.03	57013.40
664.22	56657.06
664.41	56847.52
664.60	56808.61
664.80	57072.79
664.99	57123.99
665.18	56671.39
665.37	57222.29
665.57	57029.79
665.76	56790.17
665.95	57027.74
666.14	56874.14
666.34	57496.72
666.53	56736.93
666.72	56855.71
666.91	56759.45
667.11	57103.51
667.30	56515.75
667.49	56687.78
667.68	56988.83
667.87	56747.17
668.07	56865.95
668.26	57353.36
668.45	57013.40
668.64	56779.93
668.84	57654.42
669.03	57281.69
669.22	56827.04
669.41	57091.22
669.60	57343.12
669.80	56784.03
669.99	56988.83
670.18	56448.16
670.37	57021.59
670.57	57738.38
670.76	56755.36
670.95	57394.32
671.14	57242.77
671.33	57119.90
671.53	57701.52
671.72	57263.25
671.91	57154.71
672.10	56962.20
672.29	57193.62
672.48	57025.69
672.68	57152.66
672.87	57103.51
673.06	56544.42
673.25	56857.76
673.44	56595.62
673.64	56976.54
673.83	56792.22
674.02	57056.41
674.21	56917.15
674.40	57324.69
674.59	56853.66
674.79	56460.45
674.98	56472.74
675.17	56820.89
675.36	56919.20
675.55	57177.24
675.74	56624.29
675.94	56736.93
676.13	56865.95
676.32	56980.63
676.51	57539.73
676.70	56988.83
676.89	56757.41
677.08	57357.46
677.28	56747.17
677.47	57410.71
677.66	57392.28
677.85	57277.59
678.04	57525.39
678.23	57613.46
678.42	56978.59
678.62	56954.01
678.81	57250.97
679.00	57246.87
679.19	57296.02
679.38	57476.24
679.57	56722.59
679.76	57068.70
679.96	57238.68
680.15	56865.95
680.34	56599.71
680.53	56947.87
680.72	56941.72
680.91	57480.34
681.10	57074.84
681.29	57195.67
681.48	56769.69
681.68	57201.82
681.87	56824.99
682.06	56755.36
682.25	56695.97
682.44	56796.32
682.63	56738.97
682.82	56417.44
683.01	57570.45
683.20	56863.90
683.39	56835.23
683.59	56480.93
683.78	56257.70
683.97	56568.99
684.16	56695.97
684.35	56640.67
684.54	56618.14
684.73	56646.82
684.92	57033.88
685.11	56681.63
685.30	56405.16
685.49	57291.93
685.69	56425.64
685.88	56679.58
686.07	56507.55
686.26	56736.93
686.45	56865.95
686.64	56769.69
686.83	56833.18
687.02	56679.58
687.21	57189.53
687.40	57035.93
687.59	57160.86
687.78	56169.64
687.97	56927.39
688.16	56548.51
688.35	56632.48
688.54	56663.20
688.74	56341.67
688.93	56362.15
689.12	56708.25
689.31	56417.44
689.50	56710.30
689.69	56454.31
689.88	56222.89
690.07	56439.97
690.26	56245.41
690.45	56669.34
690.64	56470.69
690.83	56573.09
691.02	56249.51
691.21	56308.90
691.40	55858.35
691.59	56210.60
691.78	56226.98
691.97	56556.70
692.16	56317.09
692.35	56460.45
692.54	56243.37
692.73	56444.07
692.92	56097.96
693.11	56095.91
693.30	55887.02
693.49	56224.93
693.68	55942.31
693.87	56521.89
694.06	55948.46
694.25	55911.59
694.44	55956.65
694.63	55964.84
694.82	56302.76
695.01	56061.10
695.20	55936.17
695.39	56022.19
695.58	55653.55
695.77	55733.42
695.96	55293.11
696.15	55758.00
696.34	55604.40
696.53	55798.96
696.72	56001.71
696.91	55418.03
697.10	55737.52
697.29	55651.50
697.48	56272.04
697.67	55446.71
697.86	55266.48
698.05	55231.67
698.24	55551.15
698.43	55284.92
698.62	55801.00
698.81	55473.33
699.00	55659.69
699.19	55225.53
699.38	55456.95
699.57	54922.43
699.76	55889.07
699.95	55096.50
700.14	55262.39
700.32	55588.02
700.51	55104.70
700.70	55262.39
700.89	55473.33
701.08	55452.85
701.27	55280.82
701.46	55426.23
701.65	54525.12
701.84	54860.99
702.03	55248.05
702.22	55209.14
702.41	54783.16
702.60	54916.28
702.79	54766.78
702.98	54711.49
703.17	54942.91
703.35	54457.54
703.54	54867.13
703.73	55016.63
703.92	54809.79
704.11	54580.42
704.30	54041.80
704.49	54303.94
704.68	54566.08
704.87	54764.73
705.06	54351.04
705.25	54365.38
705.43	54518.98
705.62	54860.99
705.81	54428.87
706.00	54240.45
706.19	53853.39
706.38	54222.02
706.57	53945.54
706.76	54033.61
706.95	54035.66
707.14	53927.11
707.32	54105.29
707.51	53810.38
707.70	53970.12
707.89	54117.57
708.08	53966.02
708.27	53744.84
708.46	54363.33
708.65	53546.19
708.84	54463.68
709.02	54557.89
709.21	54371.52
709.40	53742.80
709.59	54002.89
709.78	53046.49
709.97	53591.25
710.16	53415.12
710.34	53550.29
710.53	53746.89
710.72	53750.99
710.91	53828.81
711.10	53638.35
711.29	53277.91
711.48	53599.44
711.66	53431.50
711.85	53550.29
712.04	53069.01
712.23	53521.62
712.42	53322.96
712.61	53271.76
712.80	52913.37
712.98	53542.10
713.17	52995.29
713.36	53085.40
713.55	53034.20
713.74	52778.20
713.93	53077.21
714.11	52853.98
714.30	52624.60
714.49	52896.98
714.68	52729.05
714.87	52915.42
715.06	52720.86
715.24	52688.09
715.43	52581.60
715.62	51969.26
715.81	52307.17
716.00	52368.61
716.18	52360.42
716.37	52135.14
716.56	52208.87
716.75	52282.59
716.94	52061.41
717.12	51815.66
717.31	52219.11
717.50	52233.44
717.69	51537.13
717.88	52018.41
718.06	51801.32
718.25	52364.51
718.44	51672.30
718.63	52081.89
718.82	51574.00
719.00	51459.31
719.19	51504.37
719.38	51293.43
719.57	51150.07
719.76	50631.93
719.94	50738.43
720.13	51191.03
720.32	50879.74
720.51	51156.21
720.69	51014.90
720.88	50820.34
721.07	50978.04
721.26	50552.06
721.44	50584.83
721.63	50455.81
721.82	50789.62
722.01	50359.55
722.20	50418.94
722.38	50334.98
722.57	49665.29
722.76	50236.67
722.95	50042.12
723.13	49442.06
723.32	50085.12
723.51	49655.05
723.70	49745.16
723.88	49849.61
724.07	49681.67
724.26	50244.87
724.44	49425.68
724.63	49812.74
724.82	49700.11
725.01	49571.08
725.19	49624.33
725.38	49610.00
725.57	49589.52
725.76	49771.78
725.94	49351.95
726.13	49388.81
726.32	49300.75
726.51	49491.21
726.69	49263.89
726.88	49204.50
727.07	49538.32
727.25	48966.93
727.44	49126.67
727.63	48948.50
727.82	49009.94
728.00	48891.16
728.19	48968.98
728.38	49091.86
728.56	48545.05
728.75	49007.89
728.94	48694.55
729.12	48737.56
729.31	48928.02
729.50	48792.86
729.69	48968.98
729.87	49116.43
730.06	49024.28
730.25	48702.74
730.43	48987.41
730.62	48858.39
730.81	48784.66
730.99	48964.88
731.18	48502.04
731.37	49159.44
731.55	49143.06
731.74	48749.85
731.93	49181.97
732.11	48694.55
732.30	48540.96
732.49	48434.46
732.67	48872.73
732.86	48117.03
733.05	48430.36
733.23	48026.92
733.42	48422.17
733.61	48538.91
733.79	48444.70
733.98	48450.84
734.17	48530.72
734.35	48799.00
734.54	48579.87
734.73	48694.55
734.91	48844.05
735.10	48710.94
735.29	48530.72
735.47	47973.67
735.66	48543.00
735.84	48108.83
736.03	47826.21
736.22	48346.40
736.40	48074.02
736.59	48045.35
736.78	48160.03
736.96	48166.18
737.15	48293.15
737.33	47514.92
737.52	48342.30
737.71	48067.87
737.89	47551.79
738.08	47346.99
738.27	47689.00
738.45	48022.82
738.64	47830.31
738.82	48203.04
739.01	47476.01
739.20	47385.90
739.38	47861.03
739.57	48055.59
739.75	47766.82
739.94	47222.06
740.13	47928.61
740.31	47392.04
740.50	47426.86
740.68	47559.98
740.87	47676.71
741.06	47811.88
741.24	47054.13
741.43	46880.05
741.61	47174.96
741.80	47105.33
741.99	47119.66
742.17	47226.16
742.36	46941.49
742.54	46656.82
742.73	47101.23
742.91	47011.12
743.10	47050.03
743.29	47162.67
743.47	46966.07
743.66	46830.90
743.84	46665.02
744.03	47179.06
744.21	46687.54
744.40	46830.90
744.59	46421.31
744.77	46441.79
744.96	46800.18
745.14	46740.79
745.33	46572.86
745.51	46843.19
745.70	46781.75
745.88	46810.42
746.07	46826.81
746.26	46222.65
746.44	46470.46
746.63	46619.96
746.81	46697.78
747.00	46183.74
747.18	46916.92
747.37	46345.53
747.55	46435.64
747.74	46499.13
747.92	46130.50
748.11	46421.31
748.29	46349.63
748.48	46382.40
748.66	46228.80
748.85	46306.62
749.03	45772.10
749.22	46597.43
749.41	45905.22
749.59	46339.39
749.78	45696.33
749.96	45614.41
750.15	45671.75
750.33	45548.87
750.52	45712.71
750.70	45505.87
750.89	45428.04
751.07	45606.22
751.26	45684.04
751.44	45704.52
751.63	45759.81
751.81	45319.50
752.00	45344.08
752.18	45702.47
752.37	45278.54
752.55	45342.03
752.74	45387.08
752.92	45190.48
753.10	45028.69
753.29	45415.76
753.47	44823.89
753.66	45143.38
753.84	45243.73
754.03	44959.06
754.21	44969.30
754.40	45151.57
754.58	45147.47
754.77	44838.23
754.95	44866.90
755.14	44619.10
755.32	45167.95
755.51	44447.07
755.69	44623.19
755.88	44696.92
756.06	44522.84
756.24	44481.88
756.43	44942.67
756.61	44703.06
756.80	44389.72
756.98	44291.42
757.17	44047.71
757.35	44223.84
757.54	44719.45
757.72	44492.12
757.90	44270.94
758.09	44402.01
758.27	44389.72
758.46	43898.21
758.64	43933.03
758.83	44602.71
759.01	44655.96
759.19	44352.86
759.38	44250.46
759.56	44715.35
759.75	44588.38
759.93	44215.65
760.12	44060.00
760.30	44434.78
760.48	44100.96
760.67	44287.32
760.85	44283.23
761.04	43914.59
761.22	43951.46
761.40	43963.75
761.59	43730.28
761.77	43521.38
761.96	43984.22
762.14	43660.65
762.32	43279.72
762.51	43652.45
762.69	43214.19
762.88	43703.65
763.06	43599.21
763.24	43801.96
763.43	43429.23
763.61	43388.27
763.80	43416.94
763.98	43480.42
764.16	43224.43
764.35	43277.68
764.53	42851.70
764.72	43175.28
764.90	42732.92
765.08	42798.45
765.27	43629.93
765.45	42495.35
765.63	42845.55
765.82	43308.40
766.00	42554.74
766.18	42913.14
766.37	43097.45
766.55	42968.43
766.74	43292.01
766.92	42478.97
767.10	42304.89
767.29	42726.77
767.47	42431.86
767.65	42757.49
767.84	42640.76
768.02	42990.96
768.20	42374.52
768.39	42599.80
768.57	42530.17
768.75	42227.07
768.94	42196.35
769.12	42331.51
769.30	42128.77
769.49	42012.03
769.67	42009.98
769.85	41723.27
770.04	41911.68
770.22	41713.03
770.40	41739.65
770.59	41534.85
770.77	41860.48
770.95	41512.33
771.14	41631.11
771.32	41610.63
771.50	41424.26
771.69	41590.15
771.87	41749.89
772.05	41573.77
772.24	41174.41
772.42	41258.38
772.60	41211.28
772.78	41428.36
772.97	40918.42
773.15	41657.73
773.33	40973.71
773.52	41450.89
773.70	41350.54
773.88	41262.47
774.07	41387.40
774.25	41485.70
774.43	41354.63
774.61	41770.37
774.80	41213.32
774.98	41190.80
775.16	41328.01
775.34	41497.99
775.53	41129.36
775.71	41477.51
775.89	41694.60
776.08	41762.18
776.26	41553.29
776.44	41454.98
776.62	41686.40
776.81	41448.84
776.99	41784.71
777.17	41788.80
777.35	41356.68
777.54	42161.53
777.72	41323.91
777.90	41684.36
778.08	41979.26
778.27	41747.84
778.45	42067.33
778.63	42044.80
778.81	41958.78
779.00	41940.35
779.18	41792.90
779.36	42495.35
779.54	42030.46
779.73	42184.06
779.91	42444.15
780.09	41958.78
780.27	42284.41
780.46	42356.09
780.64	42657.14
780.82	42151.29
781.00	42061.18
781.19	42452.34
781.37	42519.93
781.55	42235.26
781.73	42540.41
781.91	42442.10
782.10	42329.47
782.28	42796.40
782.46	42466.68
782.64	42882.42
782.82	42405.24
783.01	42933.62
783.19	42808.69
783.37	42868.08
783.55	42284.41
783.74	43007.34
783.92	42358.14
784.10	43019.63
784.28	42757.49
784.46	42638.71
784.64	42444.15
784.83	42249.60
785.01	43013.49
785.19	42780.02
785.37	43023.73
785.55	42771.83
785.74	42636.66
785.92	42577.27
786.10	42792.31
786.28	42380.67
786.46	42208.64
786.64	41979.26
786.83	42288.51
787.01	42538.36
787.19	42638.71
787.37	42403.19
787.55	42245.50
787.74	41944.45
787.92	42188.16
788.10	42100.09
788.28	41792.90
788.46	42237.31
788.64	41676.16
788.82	42321.27
789.01	41950.59
789.19	42571.13
789.37	41897.34
789.55	41948.54
789.73	41405.83
789.91	41530.76
790.09	41645.44
790.28	41821.57
790.46	41129.36
790.64	41504.13
790.82	41409.93
791.00	41362.82
791.18	41117.07
791.36	41252.23
791.55	41287.05
791.73	40838.54
791.91	41004.43
792.09	41233.80
792.27	40996.24
792.45	40781.20
792.63	40533.40
792.81	40701.33
793.00	40859.02
793.18	40576.40
793.36	40218.01
793.54	40242.59
793.72	40289.69
793.90	40406.42
794.08	40191.39
794.26	40107.42
794.44	39966.11
794.62	39962.01
794.81	39802.27
794.99	39775.65
795.17	39912.86
795.35	39478.69
795.53	39962.01
795.71	39812.51
795.89	39617.96
796.07	39054.76
796.25	39216.55
796.43	38888.88
796.61	38823.34
796.80	39024.04
796.98	39101.87
797.16	38626.74
797.34	38839.73
797.52	38792.62
797.70	38876.59
797.88	38337.98
798.06	38477.24
798.24	38196.67
798.42	38182.33
798.60	38192.57
798.78	38073.79
798.96	37871.04
799.14	38122.94
799.32	37959.10
799.51	37934.53
799.69	37416.39
799.87	37817.79
800.05	37516.74
800.23	37942.72
800.41	37371.33
800.59	37316.04
800.77	37322.18
800.95	37025.23
801.13	37131.72
801.31	36904.40
801.49	37266.89
801.67	36910.54
801.85	36621.78
802.03	36509.14
802.21	36675.02
802.39	36474.32
802.57	36642.26
802.75	36275.67
802.93	36355.54
803.11	36253.14
803.29	35952.09
803.47	35503.59
803.65	35976.67
803.83	36199.90
804.01	35878.36
804.19	35263.97
804.37	35417.57
804.55	35569.12
804.73	35438.05
804.91	35692.00
805.09	35059.18
805.27	35323.36
805.45	35689.95
805.63	35448.29
805.81	35669.47
805.99	35429.86
806.17	34985.45
806.35	35030.51
806.53	34713.07
806.71	34588.14
806.89	34768.37
807.07	34588.14
807.25	34977.26
807.43	34618.86
807.61	34731.50
807.79	34264.57
807.97	33918.46
808.15	34186.74
808.33	34123.26
808.51	34196.98
808.69	34280.95
808.87	33859.07
809.05	33936.89
809.23	33902.07
809.41	33502.72
809.59	33404.42
809.77	33848.83
809.95	33140.23
810.13	33893.88
810.31	33715.71
810.49	33390.08
810.67	33302.02
810.84	33592.83
811.02	33482.24
811.20	32972.30
811.38	33029.64
811.56	32830.99
811.74	32884.23
811.92	32472.59
812.10	33066.50
812.28	32980.49
812.46	32744.97
812.64	32568.85
812.82	32134.68
813.00	32458.26
813.18	32517.65
813.36	32153.11
813.53	32196.12
813.71	32210.45
813.89	32433.68
814.07	32290.32
814.25	32378.39
814.43	32134.68
814.61	31596.06
814.79	31872.54
814.97	31473.18
815.15	31473.18
815.33	31499.81
815.50	31313.44
815.68	31704.60
815.86	31438.37
816.04	31168.04
816.22	31374.88
816.40	31483.42
816.58	31116.84
816.76	31266.34
816.94	30950.95
817.11	30877.22
817.29	30996.01
817.47	30717.48
817.65	30842.41
817.83	30981.67
818.01	30780.97
818.19	30627.37
818.37	30617.13
818.54	30531.12
818.72	30606.89
818.90	30502.45
819.08	30170.68
819.26	30338.61
819.44	30479.92
819.62	29734.46
819.80	30101.04
819.97	30178.87
820.15	30107.19
820.33	30133.81
820.51	30201.40
820.69	29247.04
820.87	29795.90
821.05	30244.40
821.22	29849.14
821.40	29890.10
821.58	29562.43
821.76	29402.69
821.94	29527.61
822.12	29613.63
822.29	29296.19
822.47	29457.98
822.65	29337.15
822.83	29494.85
823.01	29236.80
823.19	29154.88
823.36	28866.12
823.54	28968.52
823.72	29171.27
823.90	29347.39
824.08	28868.17
824.25	29017.67
824.43	29070.92
824.61	28776.01
824.79	28890.70
824.97	28749.39
825.15	28603.98
825.32	28816.97
825.50	28507.72
825.68	28472.91
825.86	28743.24
826.04	28790.34
826.21	28431.95
826.39	28720.71
826.57	28155.47
826.75	28481.10
826.93	27721.30
827.10	28096.08
827.28	28247.63
827.46	28120.66
827.64	28327.50
827.81	27887.19
827.99	28143.19
828.17	27788.89
828.35	27612.76
828.53	27772.50
828.70	27768.41
828.88	27698.78
829.06	27989.59
829.24	28051.03
829.41	27651.67
829.59	27881.05
829.77	27735.64
829.95	27428.45
830.12	27608.67
830.30	27457.12
830.48	27647.58
830.66	27559.52
830.84	27455.07
831.01	26965.60
831.19	27371.10
831.37	27147.87
831.55	27055.72
831.72	27063.91
831.90	27293.28
832.08	27311.71
832.25	27063.91
832.43	26820.20
832.61	26902.12
832.79	26732.14
832.96	26746.47
833.14	26695.27
833.32	26758.76
833.50	26721.90
833.67	26957.41
833.85	26783.34
834.03	26623.59
834.20	26424.94
834.38	26785.38
834.56	26478.19
834.74	26488.43
834.91	26248.82
835.09	26336.88
835.27	25814.65
835.44	26087.03
835.62	25679.48
835.80	25904.76
835.98	25933.43
836.15	25831.03
836.33	25941.62
836.51	26209.90
836.68	26087.03
836.86	25988.72
837.04	25802.36
837.21	25933.43
837.39	26144.37
837.57	26177.14
837.75	25998.96
837.92	25878.13
838.10	25585.27
838.28	25597.56
838.45	25400.96
838.63	25585.27
838.81	25628.28
838.98	25439.87
839.16	25271.93
839.34	25380.48
839.51	25085.57
839.69	25169.54
839.87	25138.82
840.04	25204.35
840.22	25194.11
840.40	25085.57
840.57	24989.31
840.75	24972.93
840.93	24915.59
841.10	25011.84
841.28	25253.50
841.46	24852.10
841.63	25177.73
841.81	24944.26
841.98	25017.99
842.16	24938.12
842.34	24770.18
842.51	24673.93
842.69	24950.40
842.87	24659.59
843.04	24852.10
843.22	24581.77
843.40	24424.08
843.57	24542.86
843.75	24538.76
843.92	24456.84
844.10	24694.41
844.28	24239.76
844.45	24063.63
844.63	24602.25
844.81	24524.43
844.98	24530.57
845.16	24059.54
845.33	24147.60
845.51	24299.15
845.69	23991.95
845.86	23889.56
846.04	23957.14
846.21	23936.66
846.39	23940.75
846.57	24004.24
846.74	23985.81
846.92	23907.99
847.09	23789.20
847.27	23578.26
847.45	23973.52
847.62	23826.07
847.80	24118.93
847.97	24041.11
848.15	23662.23
848.32	23357.08
848.50	23856.79
848.68	23232.16
848.85	23709.33
849.03	23064.22
849.20	23393.95
849.38	23277.21
849.56	23606.94
849.73	23176.86
849.91	23467.67
850.08	23676.57
850.26	22988.45
850.43	23211.68
850.61	23531.16
850.78	22695.59
850.96	23099.04
851.14	22941.35
851.31	23156.38
851.49	23099.04
851.66	23150.24
851.84	22787.75
852.01	22992.55
852.19	22896.29
852.36	22718.12
852.54	22804.13
852.71	22974.11
852.89	23056.03
853.07	22527.66
853.24	22748.84
853.42	22797.99
853.59	22697.64
853.77	22845.09
853.94	22673.06
854.12	22955.68
854.29	22537.90
854.47	22761.12
854.64	22550.18
854.82	22470.31
854.99	22716.07
855.17	22195.89
855.34	22505.13
855.52	22816.42
855.69	22759.08
855.87	22290.09
856.04	22050.48
856.22	22253.23
856.39	22040.24
856.57	22212.27
856.74	21997.23
856.92	22019.76
857.09	22015.66
857.27	21950.13
857.44	22247.08
857.62	21976.75
857.79	21986.99
857.97	21720.76
858.14	21733.04
858.32	21935.79
858.49	21671.61
858.67	21687.99
858.84	21745.33
859.02	21929.65
859.19	21790.39
859.37	21577.40
859.54	21366.46
859.72	21929.65
859.89	21685.94
860.06	21700.28
860.24	21491.38
860.41	21763.76
860.59	21587.64
860.76	21575.35
860.94	21196.48
861.11	21681.85
861.29	21356.22
861.46	21583.54
861.64	21223.10
861.81	21149.37
861.98	21262.01
862.16	21298.88
862.33	20862.66
862.51	20905.66
862.68	21104.32
862.86	21147.33
863.03	20981.44
863.21	20883.14
863.38	21356.22
863.55	21034.69
863.73	21165.76
863.90	21169.85
864.08	21003.97
864.25	20907.71
864.43	20922.05
864.60	20604.61
864.77	20602.57
864.95	20600.52
865.12	20477.64
865.30	20682.44
865.47	20842.18
865.64	20747.97
865.82	20817.60
865.99	20893.38
866.17	20528.84
866.34	20621.00
866.51	20127.44
866.69	20629.19
866.86	20485.83
867.04	20434.63
867.21	20412.10
867.38	20283.08
867.56	19982.03
867.73	20072.14
867.91	20295.37
868.08	20321.99
868.25	20008.65
868.43	19977.94
868.60	19879.63
868.78	20025.04
868.95	20002.51
869.12	19988.18
869.30	19986.13
869.47	20063.95
869.64	19648.21
869.82	19793.62
869.99	20037.33
870.16	20049.61
870.34	19844.82
870.51	19928.78
870.69	19523.29
870.86	19879.63
871.03	19619.54
871.21	19750.61
871.38	19629.78
871.55	19672.79
871.73	19490.52
871.90	19494.61
872.07	19406.55
872.25	19287.77
872.42	19379.93
872.59	19590.87
872.77	19265.24
872.94	19205.85
873.11	19250.91
873.29	19566.29
873.46	19281.63
873.63	19050.21
873.81	19265.24
873.98	18906.85
874.15	18910.94
874.33	18880.22
874.50	19105.50
874.67	18806.50
874.85	18925.28
875.02	18560.74
875.19	18501.35
875.37	18654.95
875.54	18581.22
875.71	18450.15
875.88	18575.08
876.06	18847.46
876.23	18616.04
876.40	18532.07
876.58	18446.05
876.75	18310.89
876.92	18343.66
877.10	18366.18
877.27	18192.11
877.44	18341.61
877.61	18200.30
877.79	18339.56
877.96	18003.69
878.13	18122.48
878.31	18083.56
878.48	17854.19
878.65	17907.44
878.82	17790.70
879.00	18251.50
879.17	17782.51
879.34	17872.62
879.51	17866.48
879.69	17764.08
879.86	17733.36
880.03	17786.61
880.21	17618.68
880.38	17915.63
880.55	17753.84
880.72	17665.78
880.90	17819.38
881.07	17508.08
881.24	17585.91
881.41	17743.60
881.59	17561.33
881.76	17696.50
881.93	17311.48
882.10	17368.82
882.28	17282.81
882.45	17325.82
882.62	17311.48
882.79	17596.15
882.96	17331.96
883.14	17680.11
883.31	17336.06
883.48	17020.67
883.65	17243.90
883.83	17329.91
884.00	17032.96
884.17	17354.49
884.34	17454.84
884.51	17008.38
884.69	17075.96
884.86	17096.44
885.03	17063.68
885.20	16981.76
885.38	16951.04
885.55	16926.46
885.72	16994.04
885.89	17125.11
886.06	17125.11
886.24	16914.17
886.41	16899.84
886.58	17000.19
886.75	16930.56
886.92	16981.76
887.10	17002.24
887.27	16948.99
887.44	16860.93
887.61	16981.76
887.78	16740.10
887.95	16752.38
888.13	16658.18
888.30	16623.36
888.47	16527.11
888.64	16633.60
888.81	16674.56
888.99	16508.68
889.16	16551.68
889.33	16318.22
889.50	16555.78
889.67	16482.05
889.84	16449.28
890.01	16645.89
890.19	16285.45
890.36	16316.17
890.53	16420.61
890.70	16193.29
890.87	16355.08
891.04	16049.93
891.22	16209.67
891.39	16404.23
891.56	15916.81
891.73	16088.84
891.90	16234.25
892.07	16113.42
892.24	16072.46
892.42	16015.12
892.59	16035.60
892.76	15814.41
892.93	15728.40
893.10	15920.91
893.27	15695.63
893.44	15752.98
893.61	15771.41
893.79	16101.13
893.96	15892.24
894.13	15857.42
894.30	16078.60
894.47	15757.07
894.64	16002.83
894.81	15879.95
894.98	15732.50
895.15	15884.05
895.33	15697.68
895.50	15683.34
895.67	16084.75
895.84	15877.90
896.01	15769.36
896.18	15626.00
896.35	15990.54
896.52	15449.88
896.69	15658.77
896.86	15820.56
897.04	15914.77
897.21	15660.82
897.38	15615.76
897.55	15632.15
897.72	15939.34
897.89	15333.14
898.06	15795.98
898.23	15808.27
898.40	15597.33
898.57	15869.71
898.74	15660.82
898.91	15824.65
899.08	15681.30
899.26	15550.23
899.43	15630.10
899.60	15648.53
899.77	15589.14
899.94	15611.67
900.11	15664.91
900.28	15496.98
900.45	15644.43
900.62	15552.27
900.79	15701.78
900.96	15605.52
901.13	15685.39
901.30	15695.63
901.47	15439.64
901.64	15388.44
901.81	15265.56
901.98	15525.65
902.15	15767.31
902.32	15372.05
902.49	15558.42
902.66	15376.15
902.83	15484.69
903.01	15466.26
903.18	15603.47
903.35	15767.31
903.52	15337.24
903.69	15560.47
903.86	15613.71
904.03	15431.44
904.20	15718.16
904.37	15666.96
904.54	15732.50
904.71	15470.36
904.88	15679.25
905.05	15398.68
905.22	15388.44
905.39	15499.03
905.56	15628.05
905.73	15234.84
905.90	15535.89
906.07	15558.42
906.24	15507.22
906.41	15523.60
906.58	15417.11
906.75	15662.86
906.92	15521.56
907.09	15519.51
907.26	15503.12
907.43	15537.94
907.60	15314.71
907.77	15638.29
907.93	15623.95
908.10	15286.04
908.27	15521.56
908.44	15585.04
908.61	15474.45
908.78	15335.19
908.95	15613.71
909.12	15320.85
909.29	15574.80
909.46	15496.98
909.63	15611.67
909.80	15509.27
909.97	15603.47
910.14	15294.23
910.31	15243.03
910.48	15310.61
910.65	15257.37
910.82	15187.74
910.99	15081.24
911.16	15417.11
911.33	15208.22
911.50	15247.13
911.66	15128.35
911.83	15171.35
912.00	15249.18
912.17	15111.96
912.34	15202.07
912.51	15111.96
912.68	14968.60
912.85	15161.11
913.02	15034.14
913.19	15052.57
913.36	14976.80
913.53	15230.74
913.70	14901.02
913.86	15099.67
914.03	14743.33
914.20	14941.98
914.37	14765.85
914.54	14712.61
914.71	14653.22
914.88	15015.71
915.05	14569.25
915.22	14649.12
915.39	14880.54
915.55	14790.43
915.72	14509.86
915.89	14634.78
916.06	14327.59
916.23	14581.54
916.40	14470.95
916.57	14477.09
916.74	14278.44
916.91	14194.47
917.07	14055.21
917.24	14233.38
917.41	14286.63
917.58	14157.61
917.75	14190.38
917.92	13993.77
918.09	14118.70
918.26	13778.73
918.42	14110.50
918.59	13897.52
918.76	14024.49
918.93	13907.76
919.10	13850.41
919.27	13750.06
919.44	13778.73
919.60	13831.98
919.77	13573.94
919.94	13535.03
920.11	13496.11
920.28	13487.92
920.45	13440.82
920.61	13373.24
920.78	13395.76
920.95	13375.28
921.12	13207.35
921.29	13350.71
921.46	13203.25
921.62	13174.58
921.79	13326.13
921.96	13326.13
922.13	13037.37
922.30	13020.99
922.47	13090.62
922.63	12918.59
922.80	12975.93
922.97	12867.39
923.14	12582.72
923.31	12908.35
923.47	12556.10
923.64	12906.30
923.81	12644.16
923.98	12851.00
924.15	12625.73
924.32	12506.95
924.48	12470.08
924.65	12611.39
924.82	12339.01
924.99	12339.01
925.15	12150.60
925.32	12484.42
925.49	12123.98
925.66	12156.74
925.83	12193.61
925.99	11960.14
926.16	12121.93
926.33	12119.88
926.50	11804.49
926.67	11976.52
926.83	11792.20
927.00	11765.58
927.17	11661.13
927.34	11730.76
927.50	11618.13
927.67	11704.14
927.84	11710.29
928.01	11659.09
928.17	11302.74
928.34	11429.71
928.51	11149.14
928.68	11362.13
928.84	11364.18
929.01	11097.94
929.18	11120.47
929.35	11206.48
929.51	11292.50
929.68	11022.17
929.85	11186.01
930.02	11085.65
930.18	10835.80
930.35	10884.95
930.52	10766.17
930.69	10911.58
930.85	10733.40
931.02	10739.55
931.19	10766.17
931.36	10647.39
931.52	10491.74
931.69	10643.29
931.86	10366.82
932.02	10209.12
932.19	10442.59
932.36	10368.87
932.53	10317.67
932.69	10039.14
932.86	10399.59
933.03	10258.28
933.19	10162.02
933.36	10129.25
933.53	10006.38
933.70	9879.40
933.86	9856.87
934.03	9969.51
934.20	9703.28
934.36	9983.85
934.53	9533.29
934.70	9568.11
934.86	9375.60
935.03	9371.50
935.20	9451.38
935.36	9318.26
935.53	9170.80
935.70	9086.84
935.86	9228.15
936.03	8947.58
936.20	8777.59
936.36	8757.11
936.53	8718.20
936.70	8818.55
936.86	8822.65
937.03	8738.68
937.20	8484.73
937.36	8593.28
937.53	8271.75
937.70	8173.44
937.86	8019.85
938.03	8155.01
938.20	8089.48
938.36	7872.39
938.53	7907.21
938.70	7753.61
938.86	7661.45
939.03	7491.47
939.20	7434.13
939.36	7427.98
939.53	7272.34
939.70	7372.69
939.86	7143.32
940.03	7065.49
940.19	7024.53
940.36	7143.32
940.53	6852.50
940.69	6625.18
940.86	6770.58
941.03	6815.64
941.19	6567.84
941.36	6768.54
941.52	6573.98
941.69	6440.86
941.86	6436.77
942.02	6412.19
942.19	6248.35
942.35	6334.37
942.52	6193.06
942.69	6148.00
942.85	6021.03
943.02	5924.77
943.18	6047.65
943.35	5842.85
943.52	5765.03
943.68	5885.86
943.85	5869.48
944.01	5855.14
944.18	5762.98
944.35	5889.96
944.51	5629.87
944.68	5572.52
944.84	5648.30
945.01	5568.43
945.17	5611.43
945.34	5719.98
945.51	5539.76
945.67	5570.48
945.84	5564.33
946.00	5476.27
946.17	5425.07
946.33	5291.95
946.50	5480.36
946.67	5539.76
946.83	5343.15
947.00	5480.36
947.16	5345.20
947.33	5453.74
947.49	5443.50
947.66	5427.12
947.82	5556.14
947.99	5357.49
948.16	5398.45
948.32	5267.38
948.49	5412.78
948.65	5361.58
948.82	5461.93
948.98	5283.76
949.15	5312.43
949.31	5410.73
949.48	5453.74
949.64	5345.20
949.81	5347.25
949.97	5267.38
950.14	5480.36
950.30	5330.86
950.47	5492.65
950.63	5427.12
950.80	5558.19
950.96	5427.12
951.13	5439.40
951.30	5515.18
951.46	5570.48
951.63	5539.76
951.79	5457.84
951.96	5572.52
952.12	5472.17
952.29	5431.21
952.45	5437.36
952.62	5457.84
952.78	5500.84
952.94	5449.64
953.11	5492.65
953.27	5382.06
953.44	5590.95
953.60	5394.35
953.77	5545.90
953.93	5513.13
954.10	5474.22
954.26	5537.71
954.43	5547.95
954.59	5531.56
954.76	5574.57
954.92	5461.93
955.09	5603.24
955.25	5529.52
955.42	5558.19
955.58	5593.00
955.75	5509.04
955.91	5640.11
956.07	5683.11
956.24	5494.70
956.40	5670.83
956.57	5496.75
956.73	5586.86
956.90	5515.18
957.06	5556.14
957.23	5515.18
957.39	5420.97
957.56	5607.34
957.72	5480.36
957.88	5523.37
958.05	5633.96
958.21	5599.15
958.38	5451.69
958.54	5590.95
958.71	5683.11
958.87	5527.47
959.03	5636.01
959.20	5572.52
959.36	5441.45
959.53	5474.22
959.69	5472.17
959.85	5629.87
960.02	5316.53
960.18	5506.99
960.35	5679.02
960.51	5619.63
960.68	5541.80
960.84	5621.67
961.00	5451.69
961.17	5414.83
961.33	5586.86
961.50	5541.80
961.66	5453.74
961.82	5506.99
961.99	5541.80
962.15	5603.24
962.31	5504.94
962.48	5578.67
962.64	5535.66
962.81	5564.33
962.97	5568.43
963.13	5590.95
963.30	5443.50
963.46	5416.88
963.62	5570.48
963.79	5318.57
963.95	5461.93
964.12	5564.33
964.28	5476.27
964.44	5443.50
964.61	5455.79
964.77	5441.45
964.93	5494.70
965.10	5441.45
965.26	5400.49
965.42	5492.65
965.59	5345.20
965.75	5353.39
965.92	5337.01
966.08	5357.49
966.24	5498.80
966.41	5273.52
966.57	5390.25
966.73	5453.74
966.90	5527.47
967.06	5312.43
967.22	5171.12
967.39	5244.85
967.55	5388.21
967.71	5291.95
967.88	5203.89
968.04	5191.60
968.20	5101.49
968.37	5164.98
968.53	5283.76
968.69	5230.51
968.85	5287.86
969.02	5162.93
969.18	5277.62
969.34	5124.02
969.51	5263.28
969.67	5107.63
969.83	5156.79
970.00	5320.62
970.16	5058.48
970.32	5158.83
970.48	5162.93
970.65	5038.00
970.81	5173.17
970.97	5199.79
971.14	5074.87
971.30	5160.88
971.46	5044.15
971.63	5150.64
971.79	5107.63
971.95	5054.39
972.11	4990.90
972.28	4990.90
972.44	5027.76
972.60	4814.77
972.76	5048.24
972.93	4964.28
973.09	4997.04
973.25	5072.82
973.42	4894.65
973.58	5023.67
973.74	4927.41
973.90	5001.14
974.07	4825.01
974.23	4818.87
974.39	4947.89
974.55	4829.11
974.72	4931.51
974.88	4663.22
975.04	4906.93
975.20	4857.78
975.37	4884.41
975.53	4777.91
975.69	4585.40
975.85	4782.01
976.01	4769.72
976.18	4710.33
976.34	4808.63
976.50	4831.16
976.66	4853.69
976.83	4597.69
976.99	4773.82
977.15	4652.98
977.31	4591.55
977.47	4784.06
977.64	4632.51
977.80	4501.44
977.96	4573.11
978.12	4620.22
978.29	4622.27
978.45	4599.74
978.61	4681.66
978.77	4671.42
978.93	4558.78
979.10	4503.48
979.26	4706.23
979.42	4573.11
979.58	4499.39
979.74	4310.97
979.91	4536.25
980.07	4440.00
980.23	4632.51
980.39	4411.32
980.55	4409.28
980.71	4468.67
980.88	4452.28
981.04	4444.09
981.20	4466.62
981.36	4452.28
981.52	4462.52
981.68	4413.37
981.85	4431.80
982.01	4384.70
982.17	4403.13
982.33	4265.92
982.49	4435.90
982.65	4304.83
982.82	4280.25
982.98	4288.45
983.14	4171.71
983.30	4263.87
983.46	4356.03
983.62	4290.49
983.79	4333.50
983.95	4253.63
984.11	4081.60
984.27	4294.59
984.43	4243.39
984.59	4157.38
984.75	4179.90
984.91	4112.32
985.08	4290.49
985.24	4157.38
985.40	4229.06
985.56	4132.80
985.72	4177.86
985.88	4153.28
986.04	4091.84
986.20	4026.31
986.37	4038.59
986.53	3989.44
986.69	4036.55
986.85	4028.35
987.01	4022.21
987.17	4118.47
987.33	3985.35
987.49	3999.68
987.65	4040.64
987.82	3985.35
987.98	4009.92
988.14	3958.72
988.30	3983.30
988.46	3848.13
988.62	3895.24
988.78	3985.35
988.94	3876.80
989.10	3866.56
989.26	3835.85
989.42	3774.41
989.59	3782.60
989.75	3803.08
989.91	3876.80
990.07	3786.69
990.23	3733.45
990.39	3887.04
990.55	3831.75
990.71	3719.11
990.87	3721.16
991.03	3784.65
991.19	3747.78
991.35	3774.41
991.51	3780.55
991.67	3819.46
991.83	3770.31
992.00	3790.79
992.16	3819.46
992.32	3678.15
992.48	3780.55
992.64	3651.53
992.80	3692.49
992.96	3618.76
993.12	3549.13
993.28	3674.06
993.44	3655.62
993.60	3579.85
993.76	3641.29
993.92	3655.62
994.08	3721.16
994.24	3614.66
994.40	3483.59
994.56	3622.86
994.72	3436.49
994.88	3469.26
995.04	3633.10
995.20	3641.29
995.36	3471.31
995.52	3493.83
995.68	3606.47
995.84	3444.68
996.00	3631.05
996.16	3424.20
996.32	3444.68
996.48	3565.51
996.64	3590.09
996.80	3422.16
996.96	3502.03
997.12	3442.64
997.28	3387.34
997.44	3444.68
997.60	3467.21
997.76	3379.15
997.92	3387.34
998.08	3387.34
998.24	3346.38
998.40	3360.72
998.56	3336.14
998.72	3178.45
998.88	3358.67
999.04	3319.76
999.20	3387.34
999.36	3243.98
999.52	3416.01
999.68	3196.88
999.84	3262.41
1000.00	3248.08
1000.16	3295.18
1000.32	3266.51
1000.48	3399.63
1000.64	3139.54
1000.80	3260.37
1000.95	3172.30
1001.11	3297.23
1001.27	3192.78
1001.43	3225.55
1001.59	3153.87
1001.75	3065.81
1001.91	3117.01
1002.07	3092.43
1002.23	3186.64
1002.39	3037.14
1002.55	3162.06
1002.71	3100.62
1002.87	3157.97
1003.03	3076.05
1003.19	3125.20
1003.34	3166.16
1003.50	3055.57
1003.66	3231.69
1003.82	3082.19
1003.98	3112.91
1004.14	3022.80
1004.30	3006.42
1004.46	3078.10
1004.62	2990.03
1004.78	2996.18
1004.94	3041.23
1005.09	3200.98
1005.25	2922.45
1005.41	2998.23
1005.57	2977.75
1005.73	2940.88
1005.89	2959.31
1006.05	2918.36
1006.21	2918.36
1006.37	3026.90
1006.52	2947.03
1006.68	2854.87
1006.84	3043.28
1007.00	2858.96
1007.16	2897.88
1007.32	2840.53
1007.48	2901.97
1007.64	2877.40
1007.79	2854.87
1007.95	2795.48
1008.11	3030.99
1008.27	2820.05
1008.43	2762.71
1008.59	2811.86
1008.75	2865.11
1008.91	2944.98
1009.06	2867.16
1009.22	2842.58
1009.38	2785.24
1009.54	2885.59
1009.70	2801.62
1009.86	2803.67
1010.01	2844.63
1010.17	2723.80
1010.33	2699.22
1010.49	2701.27
1010.65	2791.38
1010.81	2746.33
1010.96	2754.52
1011.12	2682.84
1011.28	2590.68
1011.44	2813.91
1011.60	2686.94
1011.76	2564.06
1011.91	2818.00
1012.07	2588.63
1012.23	2621.40
1012.39	2623.45
1012.55	2641.88
1012.71	2684.89
1012.86	2598.87
1013.02	2723.80
1013.18	2666.46
1013.34	2656.22
1013.50	2629.59
1013.65	2637.78
1013.81	2564.06
1013.97	2576.34
1014.13	2662.36
1014.29	2600.92
1014.44	2713.56
1014.60	2519.00
1014.76	2613.21
1014.92	2488.28
1015.07	2619.35
1015.23	2590.68
1015.39	2611.16
1015.55	2541.53
1015.71	2590.68
1015.86	2510.81
1016.02	2490.33
1016.18	2379.74
1016.34	2478.04
1016.49	2500.57
1016.65	2523.10
1016.81	2461.66
1016.97	2551.77
1017.12	2545.63
1017.28	2473.95
1017.44	2363.36
1017.60	2484.19
1017.75	2478.04
1017.91	2379.74
1018.07	2353.12
1018.23	2334.68
1018.38	2387.93
1018.54	2375.64
1018.70	2392.03
1018.86	2426.84
1019.01	2361.31
1019.17	2422.75
1019.33	2459.61
1019.49	2369.50
1019.64	2301.92
1019.80	2363.36
1019.96	2293.72
1020.12	2342.88
1020.27	2351.07
1020.43	2359.26
1020.59	2310.11
1020.74	2353.12
1020.90	2322.40
1021.06	2263.01
1021.22	2355.16
1021.37	2306.01
1021.53	2252.77
1021.69	2445.27
1021.84	2197.47
1022.00	2344.92
1022.16	2279.39
1022.31	2289.63
1022.47	2281.44
1022.63	2269.15
1022.79	2215.90
1022.94	2199.52
1023.10	2318.30
1023.26	2297.82
1023.41	2197.47
1023.57	2246.62
1023.73	2213.85
1023.88	2263.01
1024.04	2121.70
1024.20	2191.33
1024.35	2183.13
1024.51	2203.61
1024.67	2265.05
1024.82	2301.92
1024.98	2109.41
1025.14	2133.98
1025.29	2160.61
1025.45	2185.18
1025.61	2133.98
1025.76	2142.18
1025.92	2138.08
1026.08	2207.71
1026.23	2170.85
1026.39	2201.57
1026.55	2127.84
1026.70	2088.93
1026.86	2117.60
1027.02	2125.79
1027.17	2103.26
1027.33	2201.57
1027.48	2047.97
1027.64	2004.96
1027.80	2002.91
1027.95	2125.79
1028.11	1972.19
1028.27	2123.74
1028.42	2113.50
1028.58	2056.16
1028.73	1978.34
1028.89	2078.69
1029.05	2199.52
1029.20	2068.45
>>>>>End Processed Spectral Data<<<<<
