SpectraSuite Data File
++++++++++++++++++++++++++++++++++++
Date: Fri Jun 02 14:52:26 CEST 2017
User: INFO_000
Dark Spectrum Present: No
Reference Spectrum Present: No
Number of Sampled Component Spectra: 1
Spectrometers: USB4H00879
Integration Time (usec): 80000 (USB4H00879)
Spectra Averaged: 1 (USB4H00879)
Boxcar Smoothing: 0 (USB4H00879)
Correct for Electrical Dark: No (USB4H00879)
Strobe/Lamp Enabled: No (USB4H00879)
Correct for Detector Non-linearity: No (USB4H00879)
Correct for Stray Light: No (USB4H00879)
Number of Pixels in Processed Spectrum: 3648
>>>>>Begin Processed Spectral Data<<<<<
345.13	1271.79
345.34	1271.79
345.56	1271.79
345.78	1216.49
345.99	1284.08
346.21	1599.46
346.42	1722.34
346.64	1656.81
346.86	1757.16
347.07	1710.05
347.29	1697.77
347.50	1699.81
347.72	1714.15
347.94	1832.93
348.15	1544.17
348.37	1634.28
348.59	1763.30
348.80	1652.71
349.02	1816.55
349.23	1753.06
349.45	1865.70
349.67	1834.98
349.88	1767.40
350.10	1939.43
350.31	1880.04
350.53	1777.64
350.75	1964.00
350.96	1787.88
351.18	1880.04
351.39	1865.70
351.61	1880.04
351.82	1886.18
352.04	1834.98
352.26	1927.14
352.47	1857.51
352.69	1957.86
352.90	1746.92
353.12	1877.99
353.34	1869.80
353.55	1914.85
353.77	1855.46
353.98	1892.32
354.20	1843.17
354.41	1912.80
354.63	1894.37
354.85	2111.46
355.06	1959.91
355.28	1753.06
355.49	1877.99
355.71	1818.60
355.92	1951.71
356.14	1976.29
356.35	1923.04
356.57	1804.26
356.79	1941.47
357.00	1904.61
357.22	1972.19
357.43	1834.98
357.65	2041.82
357.86	1914.85
358.08	1953.76
358.29	1902.56
358.51	2041.82
358.72	2058.21
358.94	1970.15
359.16	1939.43
359.37	1947.62
359.59	1955.81
359.80	1943.52
360.02	2017.25
360.23	1964.00
360.45	2007.01
360.66	1875.94
360.88	1925.09
361.09	1968.10
361.31	2031.58
361.52	1955.81
361.74	2072.54
361.95	2054.11
362.17	1982.43
362.38	2062.30
362.60	2090.98
362.81	1957.86
363.03	2009.06
363.24	1875.94
363.46	2002.91
363.67	1990.63
363.89	1951.71
364.10	2072.54
364.32	2025.44
364.53	2068.45
364.75	1980.39
364.96	1974.24
365.18	2111.46
365.39	1972.19
365.61	2029.54
365.82	2047.97
366.04	2023.39
366.25	1918.95
366.47	1988.58
366.68	2029.54
366.90	1982.43
367.11	2068.45
367.33	2119.65
367.54	2119.65
367.76	2019.30
367.97	2109.41
368.19	2064.35
368.40	2150.37
368.62	2086.88
368.83	1976.29
369.05	2039.78
369.26	2025.44
369.48	1986.53
369.69	1953.76
369.91	2131.94
370.12	2052.06
370.33	2080.74
370.55	1978.34
370.76	2097.12
370.98	2047.97
371.19	2074.59
371.41	2029.54
371.62	2002.91
371.84	2019.30
372.05	2197.47
372.27	2076.64
372.48	2146.27
372.69	2097.12
372.91	2140.13
373.12	2273.25
373.34	2052.06
373.55	2086.88
373.77	2146.27
373.98	2111.46
374.20	2133.98
374.41	2240.48
374.62	2154.46
374.84	2205.66
375.05	2142.18
375.27	2232.29
375.48	2150.37
375.70	2217.95
375.91	2236.38
376.12	2303.96
376.34	2152.42
376.55	2187.23
376.77	2267.10
376.98	2199.52
377.19	2133.98
377.41	2095.07
377.62	2240.48
377.84	2283.49
378.05	2346.97
378.27	2228.19
378.48	2357.21
378.69	2328.54
378.91	2326.49
379.12	2256.86
379.34	2269.15
379.55	2365.40
379.76	2283.49
379.98	2228.19
380.19	2256.86
380.41	2267.10
380.62	2379.74
380.83	2324.44
381.05	2195.42
381.26	2373.60
381.47	2287.58
381.69	2238.43
381.90	2406.36
382.12	2295.77
382.33	2291.68
382.54	2365.40
382.76	2373.60
382.97	2330.59
383.19	2213.85
383.40	2488.28
383.61	2355.16
383.83	2289.63
384.04	2248.67
384.25	2369.50
384.47	2406.36
384.68	2367.45
384.89	2344.92
385.11	2363.36
385.32	2289.63
385.54	2396.12
385.75	2338.78
385.96	2408.41
386.18	2496.47
386.39	2410.46
386.60	2363.36
386.82	2406.36
387.03	2365.40
387.24	2557.91
387.46	2394.08
387.67	2535.39
387.88	2494.43
388.10	2592.73
388.31	2473.95
388.52	2596.82
388.74	2580.44
388.95	2508.76
389.16	2566.10
389.38	2467.80
389.59	2605.02
389.80	2574.30
390.02	2508.76
390.23	2691.03
390.44	2609.11
390.66	2621.40
390.87	2516.95
391.08	2680.79
391.30	2793.43
391.51	2772.95
391.72	2684.89
391.94	2633.69
392.15	2676.70
392.36	2648.02
392.58	2643.93
392.79	2625.50
393.00	2811.86
393.22	2797.53
393.43	2756.57
393.64	2901.97
393.85	2824.15
394.07	2752.47
394.28	2756.57
394.49	2762.71
394.71	2824.15
394.92	2879.44
395.13	2836.44
395.35	2799.57
395.56	2811.86
395.77	2867.16
395.98	2895.83
396.20	2863.06
396.41	2877.40
396.62	2924.50
396.84	2879.44
397.05	2912.21
397.26	2811.86
397.47	2977.75
397.69	2965.46
397.90	3033.04
398.11	2924.50
398.32	2893.78
398.54	2877.40
398.75	2987.99
398.96	2957.27
399.18	3022.80
399.39	3088.34
399.60	3092.43
399.81	3125.20
400.03	2981.84
400.24	3200.98
400.45	2981.84
400.66	3192.78
400.88	3000.27
401.09	3145.68
401.30	3135.44
401.51	3319.76
401.73	3182.54
401.94	3174.35
402.15	3239.89
402.36	3168.21
402.58	3190.74
402.79	3207.12
403.00	3256.27
403.21	3123.15
403.43	3229.65
403.64	3297.23
403.85	3139.54
404.06	3262.41
404.27	3133.39
404.49	3246.03
404.70	3221.45
404.91	3330.00
405.12	3250.13
405.34	3260.37
405.55	3375.05
405.76	3164.11
405.97	3313.61
406.19	3475.40
406.40	3332.05
406.61	3356.62
406.82	3438.54
407.03	3305.42
407.25	3268.56
407.46	3495.88
407.67	3426.25
407.88	3506.12
408.09	3450.83
408.31	3315.66
408.52	3493.83
408.73	3354.57
408.94	3416.01
409.15	3538.89
409.37	3499.98
409.58	3542.99
409.79	3454.92
410.00	3657.67
410.21	3477.45
410.43	3522.51
410.64	3368.91
410.85	3629.00
411.06	3524.55
411.27	3547.08
411.48	3608.52
411.70	3520.46
411.91	3581.90
412.12	3655.62
412.33	3696.58
412.54	3655.62
412.76	3815.37
412.97	3631.05
413.18	3618.76
413.39	3577.80
413.60	3624.90
413.81	3588.04
414.03	3608.52
414.24	3645.38
414.45	3852.23
414.66	3688.39
414.87	3629.00
415.08	3837.89
415.30	3723.21
415.51	3780.55
415.72	3755.97
415.93	3764.17
416.14	3811.27
416.35	3796.93
416.56	3858.37
416.78	3866.56
416.99	3825.61
417.20	3841.99
417.41	3887.04
417.62	3782.60
417.83	3917.76
418.04	3790.79
418.26	3930.05
418.47	3870.66
418.68	3975.11
418.89	3932.10
419.10	4155.33
419.31	4005.83
419.52	4095.94
419.73	4042.69
419.95	4167.62
420.16	3991.49
420.37	4054.98
420.58	4140.99
420.79	3958.72
421.00	4165.57
421.21	4120.51
421.42	4102.08
421.63	4132.80
421.85	4237.25
422.06	4249.54
422.27	4198.34
422.48	4290.49
422.69	4300.73
422.90	4282.30
423.11	4419.52
423.32	4337.60
423.53	4362.17
423.75	4376.51
423.96	4364.22
424.17	4411.32
424.38	4628.41
424.59	4505.53
424.80	4562.87
425.01	4528.06
425.22	4583.35
425.43	4425.66
425.64	4734.90
425.85	4601.79
426.06	4673.46
426.28	4679.61
426.49	4556.73
426.70	4589.50
426.91	4683.70
427.12	4743.10
427.33	4792.25
427.54	4589.50
427.75	4890.55
427.96	4966.32
428.17	4886.45
428.38	4904.89
428.59	5013.43
428.80	4964.28
429.01	4954.04
429.23	4943.80
429.44	5230.51
429.65	5029.81
429.86	5091.25
430.07	5119.92
430.28	4915.12
430.49	5062.58
430.70	5306.29
430.91	5134.26
431.12	5154.74
431.33	5248.94
431.54	5236.66
431.75	5359.53
431.96	5316.53
432.17	5212.08
432.38	5248.94
432.59	5529.52
432.80	5484.46
433.01	5470.12
433.22	5398.45
433.43	5513.13
433.64	5353.39
433.85	5451.69
434.06	5386.16
434.27	5361.58
434.49	5439.40
434.70	5668.78
434.91	5644.20
435.12	5638.06
435.33	5590.95
435.54	5668.78
435.75	5556.14
435.96	5627.82
436.17	5523.37
436.38	5767.08
436.59	5951.40
436.80	5730.22
437.01	5896.10
437.22	5912.49
437.43	5949.35
437.64	5517.23
437.85	6002.60
438.06	5924.77
438.27	5754.79
438.48	5955.49
438.69	5992.36
438.90	5910.44
439.11	5982.12
439.32	6070.18
439.53	6021.03
439.74	5990.31
439.95	6172.58
440.16	5998.50
440.37	6047.65
440.57	5824.42
440.78	6078.37
440.99	6018.98
441.20	6035.36
441.41	5988.26
441.62	6158.24
441.83	6053.80
442.04	6320.03
442.25	6303.65
442.46	6229.92
442.67	6535.07
442.88	6596.51
443.09	6371.23
443.30	6260.64
443.51	6397.85
443.72	6674.33
443.93	6471.58
444.14	6729.63
444.35	6231.97
444.56	6346.66
444.77	6614.94
444.98	6479.77
445.19	6616.99
445.40	6666.14
445.61	6619.04
445.81	6639.51
446.02	6758.30
446.23	6698.91
446.44	6520.73
446.65	6803.35
446.86	6729.63
447.07	6819.74
447.28	6918.04
447.49	6746.01
447.70	6698.91
447.91	6793.11
448.12	6756.25
448.33	6881.18
448.54	7020.44
448.74	6840.22
448.95	7053.20
449.16	6940.57
449.37	7159.70
449.58	6813.59
449.79	7225.23
450.00	6877.08
450.21	7018.39
450.42	7161.75
450.63	7016.34
450.84	7024.53
451.05	7085.97
451.25	7081.88
451.46	7090.07
451.67	7378.83
451.88	7389.07
452.09	7432.08
452.30	7223.19
452.51	7204.75
452.72	7491.47
452.93	7667.60
453.13	7210.90
453.34	7329.68
453.55	7520.14
453.76	7288.72
453.97	7704.46
454.18	7378.83
454.39	7700.36
454.60	7548.81
454.81	7608.20
455.01	7729.03
455.22	7360.40
455.43	7593.87
455.64	7880.58
455.85	7733.13
456.06	7939.97
456.27	7823.24
456.48	7714.70
456.68	7827.34
456.89	7790.47
457.10	8054.66
457.31	7899.02
457.52	8085.38
457.73	8105.86
457.94	8386.43
458.14	7972.74
458.35	8488.83
458.56	8259.46
458.77	8204.16
458.98	8243.07
459.19	8265.60
459.39	8509.31
459.60	8595.32
459.81	8372.10
460.02	8611.71
460.23	8497.02
460.44	8763.26
460.65	8818.55
460.85	8779.64
461.06	8873.85
461.27	8464.25
461.48	8912.76
461.69	8931.19
461.89	8757.11
462.10	8824.70
462.31	8851.32
462.52	8945.53
462.73	8961.91
462.94	9254.77
463.14	9135.99
463.35	9052.02
463.56	9580.40
463.77	9252.72
463.98	9240.44
464.18	9367.41
464.39	9539.44
464.60	9801.58
464.81	9541.49
465.02	9412.46
465.23	9805.67
465.43	9604.97
465.64	9889.64
465.85	9856.87
466.06	9711.47
466.27	9992.04
466.47	10063.72
466.68	9899.88
466.89	10209.12
467.10	10213.22
467.30	10039.14
467.51	10157.92
467.72	10641.25
467.93	10102.63
468.14	10514.27
468.34	10604.38
468.55	10592.09
468.76	10749.79
468.97	10422.11
469.17	10702.68
469.38	10723.16
469.59	11163.48
469.80	10805.08
470.01	10909.53
470.21	10825.56
470.42	11315.03
470.63	11347.79
470.84	10981.21
471.04	11589.46
471.25	11585.36
471.46	11374.42
471.67	11595.60
471.87	11792.20
472.08	11632.46
472.29	11900.75
472.50	11751.24
472.70	11898.70
472.91	11853.64
473.12	11913.03
473.33	12150.60
473.53	12345.16
473.74	12285.76
473.95	12253.00
474.16	12449.60
474.36	12601.15
474.57	12707.65
474.78	12984.12
474.99	12848.96
475.19	12894.01
475.40	13031.23
475.61	13057.85
475.81	13375.28
476.02	13379.38
476.23	13283.13
476.44	13578.03
476.64	13600.56
476.85	13846.32
477.06	13569.84
477.27	14012.20
477.47	14198.57
477.68	14208.81
477.89	14333.73
478.09	14358.31
478.30	14296.87
478.51	14503.71
478.71	14704.42
478.92	14538.53
479.13	14745.38
479.34	14790.43
479.54	14784.29
479.75	14901.02
479.96	15120.15
480.16	15324.95
480.37	15337.24
480.58	15431.44
480.78	15640.34
480.99	15642.39
481.20	15714.06
481.41	15791.89
481.61	15929.10
481.82	16076.55
482.03	16041.74
482.23	16154.38
482.44	16437.00
482.65	16670.47
482.85	16684.80
483.06	16709.38
483.27	16717.57
483.47	16688.90
483.68	16860.93
483.89	16928.51
484.09	16893.69
484.30	17325.82
484.51	17479.41
484.71	17606.39
484.92	17577.72
485.13	17561.33
485.33	17547.00
485.54	17669.87
485.75	17958.64
485.95	18065.13
486.16	18206.44
486.37	18446.05
486.57	18286.31
486.78	18499.30
486.98	18384.62
487.19	18575.08
487.40	18865.89
487.60	18736.87
487.81	19054.30
488.02	19128.03
488.22	18880.22
488.43	19140.32
488.64	19347.16
488.84	19203.80
489.05	19490.52
489.25	19439.32
489.46	19810.00
489.67	19461.85
489.87	20020.94
490.08	20025.04
490.29	20100.81
490.49	20242.12
490.70	20358.86
490.90	20289.23
491.11	20195.02
491.32	20520.65
491.52	20549.32
491.73	20590.28
491.94	20553.41
492.14	20754.12
492.35	20926.14
492.55	20975.30
492.76	20887.23
492.97	21100.22
493.17	21331.64
493.38	21245.63
493.58	21855.92
493.79	21370.55
494.00	21538.49
494.20	21753.52
494.41	21769.91
494.61	21671.61
494.82	21800.63
495.02	21847.73
495.23	22070.96
495.44	22251.18
495.64	22298.28
495.85	22372.01
496.05	22539.94
496.26	22286.00
496.47	22541.99
496.67	22345.39
496.88	23213.73
497.08	22601.38
497.29	22628.01
497.49	22714.02
497.70	23101.09
497.91	23275.16
498.11	23352.99
498.32	22986.40
498.52	23359.13
498.73	23744.15
498.93	23486.11
499.14	23731.86
499.34	23477.91
499.55	23584.41
499.76	24022.67
499.96	23735.96
500.17	23789.20
500.37	23877.27
500.58	24135.31
500.78	24252.05
500.99	23834.26
501.19	24196.75
501.40	24231.57
501.60	24106.64
501.81	24503.95
502.02	24219.28
502.22	24327.82
502.43	24551.05
502.63	24649.35
502.84	24901.25
503.04	24794.76
503.25	25124.48
503.45	24870.53
503.66	24772.23
503.86	24805.00
504.07	25058.95
504.27	24913.54
504.48	25319.04
504.68	25169.54
504.89	25458.30
505.09	25452.16
505.30	25337.47
505.50	25519.74
505.71	25441.92
505.91	25828.98
506.12	25609.85
506.32	25478.78
506.53	25702.01
506.73	25742.97
506.94	25917.04
507.14	25751.16
507.35	25884.28
507.55	25851.51
507.76	25761.40
507.96	25808.50
508.17	26019.44
508.37	26150.51
508.58	26031.73
508.78	26150.51
508.99	26248.82
509.19	26254.96
509.40	26031.73
509.60	26306.16
509.81	26404.46
510.01	26676.84
510.22	26379.89
510.42	26652.27
510.63	26680.94
510.83	27053.67
511.04	26812.01
511.24	26721.90
511.44	27053.67
511.65	27016.80
511.85	26867.30
512.06	26742.38
512.26	27000.42
512.47	26949.22
512.67	27192.93
512.88	27145.83
513.08	26752.62
513.29	27639.39
513.49	26826.34
513.69	27319.90
513.90	27268.70
514.10	27098.72
514.31	27442.78
514.51	27688.54
514.72	27504.22
514.92	27534.94
515.13	27457.12
515.33	27737.69
515.53	27975.25
515.74	27326.05
515.94	27956.82
516.15	27893.33
516.35	27807.32
516.56	28210.77
516.76	27668.06
516.96	27903.57
517.17	28321.36
517.37	27973.21
517.58	28143.19
517.78	28233.30
517.99	28362.32
518.19	28528.20
518.39	28634.70
518.60	28733.00
518.80	28743.24
519.01	28628.56
519.21	28644.94
519.41	28726.86
519.62	28411.47
519.82	28687.95
520.03	29261.38
520.23	29075.01
520.43	29015.62
520.64	28962.37
520.84	29576.76
521.05	29331.01
521.25	29464.13
521.45	29855.29
521.66	29728.31
521.86	29623.87
522.07	29603.39
522.27	29396.54
522.47	29797.95
522.68	30002.74
522.88	29560.38
523.08	30565.93
523.29	30219.83
523.49	30217.78
523.70	30004.79
523.90	30293.55
524.10	30213.68
524.31	30823.98
524.51	30670.38
524.71	30948.90
524.92	30811.69
525.12	30762.54
525.33	30866.98
525.53	31333.92
525.73	31299.11
525.94	31317.54
526.14	31376.93
526.34	31235.62
526.55	31729.18
526.75	31587.87
526.95	31991.32
527.16	31645.21
527.36	31600.16
527.56	32101.91
527.77	32071.19
527.97	31931.93
528.17	31874.59
528.38	32312.85
528.58	32284.18
528.78	32572.94
528.99	32130.58
529.19	32816.65
529.39	32429.59
529.60	32810.51
529.80	33003.02
530.00	32333.33
530.21	33080.84
530.41	32970.25
530.61	33275.40
530.82	33129.99
531.02	33603.07
531.22	33664.51
531.43	33457.67
531.63	33687.04
531.83	33873.40
532.04	34186.74
532.24	33826.30
532.44	34369.01
532.64	34641.39
532.85	34387.44
533.05	34299.38
533.25	34711.02
533.46	34600.43
533.66	35223.01
533.86	35022.31
534.07	35018.22
534.27	34893.29
534.47	35634.66
534.67	35749.34
534.88	35362.28
535.08	35515.87
535.28	35591.65
535.49	35929.56
535.69	36378.07
535.89	36103.64
536.09	36011.48
536.30	36216.28
536.50	36267.48
536.70	36580.82
536.91	36390.36
537.11	36644.30
537.31	36496.85
537.51	36906.44
537.72	37203.40
537.92	37178.82
538.12	37273.03
538.32	36978.12
538.53	37492.16
538.73	37209.54
538.93	37496.26
539.13	37864.89
539.34	37594.56
539.54	37438.92
539.74	38149.56
539.94	37795.26
540.15	37844.41
540.35	38088.12
540.55	38122.94
540.75	38153.66
540.96	38630.83
541.16	38602.16
541.36	38450.61
541.56	38786.48
541.77	38972.85
541.97	38759.86
542.17	39224.75
542.37	39003.56
542.58	39316.90
542.78	39052.72
542.98	39169.45
543.18	39550.37
543.38	39740.83
543.59	40091.04
543.79	39380.39
543.99	39447.97
544.19	39859.62
544.40	40129.95
544.60	40136.09
544.80	40113.56
545.00	40226.20
545.20	40158.62
545.41	40166.81
545.61	40099.23
545.81	40560.02
546.01	40787.35
546.21	40461.72
546.42	40531.35
546.62	40674.71
546.82	40482.20
547.02	41026.96
547.22	40932.75
547.43	40586.64
547.63	40660.37
547.83	40949.14
548.03	40861.07
548.23	41682.31
548.44	41463.18
548.64	41518.47
548.84	41151.88
549.04	41430.41
549.24	41457.03
549.45	41817.47
549.65	41739.65
549.85	41790.85
550.05	42096.00
550.25	41588.10
550.45	42376.57
550.66	41932.16
550.86	42139.00
551.06	42235.26
551.26	42323.32
551.46	42427.77
551.66	42540.41
551.87	42120.57
552.07	43015.54
552.27	42278.27
552.47	42679.67
552.67	42970.48
552.87	42468.73
553.07	42780.02
553.28	43031.92
553.48	43070.83
553.68	42653.05
553.88	43558.25
554.08	43365.74
554.28	43267.44
554.48	42962.29
554.69	43468.14
554.89	43498.86
555.09	43525.48
555.29	43101.55
555.49	43681.13
555.69	43390.31
555.89	43787.62
556.10	43597.16
556.30	43300.20
556.50	43650.41
556.70	44072.29
556.90	43771.24
557.10	43732.32
557.30	43416.94
557.50	43871.59
557.70	44213.60
557.91	44389.72
558.11	44080.48
558.31	44135.77
558.51	44311.90
558.71	44270.94
558.91	44389.72
559.11	44361.05
559.31	43842.92
559.51	44025.18
559.72	44512.60
559.92	44643.67
560.12	43996.51
560.32	44510.55
560.52	44410.20
560.72	44610.90
560.92	44457.31
561.12	44682.58
561.32	44580.18
561.52	44629.34
561.72	45112.66
561.93	44561.75
562.13	44643.67
562.33	44533.08
562.53	45350.22
562.73	44895.57
562.93	44868.95
563.13	45307.21
563.33	44617.05
563.53	45178.19
563.73	44619.10
563.93	44916.05
564.13	45567.30
564.33	45102.42
564.53	45204.81
564.74	45282.64
564.94	45083.98
565.14	45329.74
565.34	44965.20
565.54	45325.64
565.74	45290.83
565.94	45692.23
566.14	45249.87
566.34	45411.66
566.54	45800.77
566.74	44784.98
566.94	45714.76
567.14	45622.60
567.34	45065.55
567.54	45665.61
567.74	45413.71
567.94	45499.72
568.14	45761.86
568.34	45880.64
568.54	45630.79
568.74	45741.38
568.94	45561.16
569.14	46105.92
569.34	45708.61
569.54	45434.19
569.75	45667.66
569.95	45651.27
570.15	46050.63
570.35	45770.05
570.55	45882.69
570.75	45708.61
570.95	45800.77
571.15	46107.97
571.35	45796.68
571.55	46052.67
571.75	46077.25
571.95	46208.32
572.15	46159.17
572.35	46159.17
572.55	46366.01
572.75	46015.81
572.95	46093.63
573.15	46224.70
573.35	46273.85
573.55	45888.84
573.75	46245.18
573.95	46452.03
574.15	46339.39
574.35	46421.31
574.55	46228.80
574.75	45913.41
574.95	46370.11
575.15	46083.39
575.34	46726.46
575.54	46712.12
575.74	46634.30
575.94	46650.68
576.14	46499.13
576.34	46644.54
576.54	47015.22
576.74	46808.37
576.94	46654.78
577.14	47125.81
577.34	47285.55
577.54	46570.81
577.74	46812.47
577.94	46708.02
578.14	46867.76
578.34	47052.08
578.54	46884.15
578.74	47043.89
578.94	47379.76
579.14	47287.60
579.34	46826.81
579.54	47162.67
579.74	47654.18
579.94	46947.64
580.13	47695.14
580.33	47652.14
580.53	47361.33
580.73	47224.11
580.93	47400.24
581.13	47312.17
581.33	47920.42
581.53	47963.43
581.73	47953.19
581.93	47858.98
582.13	47650.09
582.33	47826.21
582.53	47586.60
582.73	47754.54
582.92	48108.83
583.12	48010.53
583.32	48147.75
583.52	47605.03
583.72	48543.00
583.92	48221.47
584.12	48354.59
584.32	48741.66
584.52	48233.76
584.72	48745.75
584.92	48416.03
585.11	48833.81
585.31	48276.77
585.51	48561.44
585.71	48622.87
585.91	48856.34
586.11	48098.59
586.31	48338.21
586.51	48221.47
586.71	48534.81
586.91	48993.56
587.10	48508.19
587.30	49087.76
587.50	49061.14
587.70	48665.88
587.90	49011.99
588.10	49138.96
588.30	48979.22
588.50	49280.27
588.69	49063.19
588.89	49059.09
589.09	49149.20
589.29	49122.58
589.49	49548.56
589.69	48899.35
589.89	49380.62
590.08	49366.29
590.28	49173.78
590.48	49569.04
590.68	49288.46
590.88	49587.47
591.08	49270.03
591.28	48932.12
591.47	49771.78
591.67	49640.71
591.87	49091.86
592.07	49851.66
592.27	49622.28
592.47	49460.49
592.67	49331.47
592.86	49751.30
593.06	49620.23
593.26	49888.52
593.46	49915.14
593.66	50128.13
593.86	49974.53
594.05	49954.05
594.25	50058.50
594.45	50132.23
594.65	50240.77
594.85	49761.54
595.05	50560.25
595.24	50345.22
595.44	49968.39
595.64	50160.90
595.84	50085.12
596.04	50371.84
596.23	50640.12
596.43	50275.58
596.63	50681.08
596.83	50590.97
597.03	51041.53
597.22	50640.12
597.42	50566.40
597.62	50949.37
597.82	50582.78
598.02	50564.35
598.21	50836.73
598.41	50906.36
598.61	50863.35
598.81	51670.25
599.01	51123.44
599.20	51209.46
599.40	51201.27
599.60	51401.97
599.80	51420.40
600.00	51477.74
600.19	52165.86
600.39	50975.99
600.59	51999.97
600.79	51293.43
600.98	51418.35
601.18	51492.08
601.38	52145.38
601.58	51956.97
601.78	51991.78
601.97	51780.84
602.17	52239.59
602.37	51819.75
602.57	52081.89
602.76	52262.11
602.96	51946.73
603.16	52358.37
603.36	52239.59
603.55	52929.75
603.75	52288.74
603.95	52960.47
604.15	52522.21
604.34	52493.54
604.54	53255.38
604.74	53220.56
604.94	52794.59
605.13	53126.36
605.33	53245.14
605.53	52612.32
605.73	53384.40
605.92	52724.96
606.12	52919.51
606.32	53202.13
606.52	52770.01
606.71	53343.44
606.91	53732.56
607.11	53071.06
607.30	53865.67
607.50	53335.25
607.70	53550.29
607.90	53507.28
608.09	53839.05
608.29	53742.80
608.49	53695.69
608.68	54039.75
608.88	53693.64
609.08	54035.66
609.28	53923.02
609.47	53877.96
609.67	54420.67
609.87	53998.79
610.06	54535.36
610.26	54410.43
610.46	54328.52
610.66	53804.24
610.85	54281.41
611.05	54258.88
611.25	54406.34
611.44	53945.54
611.64	54908.09
611.84	54271.17
612.03	54314.18
612.23	54895.80
612.43	54650.05
612.62	54303.94
612.82	54789.31
613.02	54697.15
613.21	54852.80
613.41	54334.66
613.61	54695.10
613.80	54209.73
614.00	54807.74
614.20	54885.56
614.39	54838.46
614.59	54813.88
614.79	54867.13
614.98	54738.11
615.18	55227.57
615.38	54949.05
615.57	54734.01
615.77	55276.72
615.97	55059.64
616.16	55014.58
616.36	54795.45
616.56	55203.00
616.75	54908.09
616.95	54959.29
617.15	55270.58
617.34	55153.85
617.54	55268.53
617.74	55329.97
617.93	55258.29
618.13	55065.78
618.32	55301.30
618.52	55180.47
618.72	55401.65
618.91	55301.30
619.11	55080.12
619.31	55301.30
619.50	55514.29
619.70	54938.81
619.90	55755.95
620.09	55438.51
620.29	55235.77
620.48	55186.61
620.68	55549.10
620.88	55121.08
621.07	55805.10
621.27	55710.89
621.46	55190.71
621.66	55489.71
621.86	55727.28
622.05	55403.70
622.25	56020.14
622.44	55295.16
622.64	55508.14
622.84	55751.85
623.03	55520.43
623.23	55590.06
623.42	55657.65
623.62	56112.30
623.82	55665.84
624.01	56024.23
624.21	55798.96
624.40	55758.00
624.60	55866.54
624.80	55735.47
624.99	55991.47
625.19	55233.72
625.38	56147.11
625.58	56001.71
625.77	55827.63
625.97	56112.30
626.17	55633.07
626.36	56286.37
626.56	55887.02
626.75	55579.82
626.95	56444.07
627.14	55768.24
627.34	56411.30
627.54	55944.36
627.73	56169.64
627.93	56501.41
628.12	55553.20
628.32	55704.75
628.51	55952.55
628.71	55923.88
628.90	56177.83
629.10	55958.70
629.30	55923.88
629.49	56411.30
629.69	56292.52
629.88	56081.58
630.08	56337.57
630.27	56329.38
630.47	56366.24
630.66	56513.70
630.86	56560.80
631.05	55639.22
631.25	56620.19
631.44	56628.38
631.64	56788.13
631.84	56661.15
632.03	56788.13
632.23	56315.04
632.42	56980.63
632.62	56759.45
632.81	56136.87
633.01	56620.19
633.20	56824.99
633.40	56671.39
633.59	56753.31
633.79	56628.38
633.98	56693.92
634.18	56784.03
634.37	56775.84
634.57	56571.04
634.76	57119.90
634.96	57017.50
635.15	57263.25
635.35	56587.42
635.54	56822.94
635.74	56980.63
635.93	56601.76
636.13	57412.76
636.32	57386.13
636.52	56489.12
636.71	57156.76
636.91	57341.08
637.10	57314.45
637.30	57197.72
637.49	56939.68
637.69	56642.72
637.88	57457.81
638.08	56960.15
638.27	57222.29
638.46	57076.89
638.66	56931.48
638.85	57080.98
639.05	57388.18
639.24	57595.03
639.44	57027.74
639.63	57300.12
639.83	57439.38
640.02	57089.18
640.22	57361.56
640.41	57609.36
640.61	57130.14
640.80	57402.52
640.99	57595.03
641.19	57728.14
641.38	57334.93
641.58	57468.05
641.77	57648.27
641.97	57365.65
642.16	57552.02
642.36	57480.34
642.55	58131.59
642.74	57218.20
642.94	58004.62
643.13	57554.07
643.33	57799.82
643.52	57861.26
643.72	58141.83
643.91	58098.83
644.10	57480.34
644.30	57971.85
644.49	57726.10
644.69	58201.22
644.88	58289.29
645.08	57656.46
645.27	58006.67
645.46	57261.21
645.66	57990.28
645.85	57713.81
646.05	58174.60
646.24	57801.87
646.43	58340.49
646.63	57988.24
646.82	57971.85
647.02	57963.66
647.21	58109.07
647.40	58158.22
647.60	58307.72
647.79	58027.15
647.99	57980.04
648.18	57588.88
648.37	58455.17
648.57	58530.95
648.76	58121.35
648.96	58184.84
649.15	58537.09
649.34	58233.99
649.54	58293.38
649.73	58025.10
649.92	58406.02
650.12	58438.79
650.31	58541.19
650.51	58733.70
650.70	58795.13
650.89	58158.22
651.09	58872.96
651.28	58293.38
651.47	58422.40
651.67	58545.28
651.86	58815.61
652.06	58027.15
652.25	58459.27
652.44	58332.29
652.64	58381.45
652.83	58160.26
653.02	58365.06
653.22	58545.28
653.41	57992.33
653.60	58311.81
653.80	58309.77
653.99	58432.64
654.18	58066.06
654.38	58453.12
654.57	58754.18
654.76	58160.26
654.96	57869.45
655.15	58233.99
655.34	58274.95
655.54	57861.26
655.73	58389.64
655.92	58377.35
656.12	58489.99
656.31	58375.30
656.50	58184.84
656.70	58254.47
656.89	58199.18
657.08	58623.11
657.28	58102.92
657.47	58166.41
657.66	58651.78
657.86	58252.42
658.05	58453.12
658.24	58762.37
658.43	58158.22
658.63	58279.05
658.82	58295.43
659.01	58311.81
659.21	58549.38
659.40	58203.27
659.59	57945.23
659.79	58360.97
659.98	58522.76
660.17	58008.71
660.36	58406.02
660.56	58436.74
660.75	58459.27
660.94	58569.86
661.14	58508.42
661.33	58258.57
661.52	58107.02
661.71	58516.61
661.91	58139.78
662.10	57930.89
662.29	58653.82
662.49	58672.26
662.68	58309.77
662.87	58674.30
663.06	58569.86
663.26	58320.01
663.45	58272.90
663.64	57939.08
663.83	58557.57
664.03	58406.02
664.22	58315.91
664.41	58119.31
664.60	58299.53
664.80	58553.47
664.99	57758.86
665.18	57830.54
665.37	58352.77
665.57	58373.25
665.76	57947.28
665.95	58096.78
666.14	57955.47
666.34	57736.34
666.53	57695.38
666.72	57912.46
666.91	57980.04
667.11	57736.34
667.30	57959.56
667.49	58104.97
667.68	57601.17
667.87	57810.06
668.07	57676.94
668.26	58354.82
668.45	57840.78
668.64	57384.08
668.84	58221.70
669.03	58094.73
669.22	58123.40
669.41	57736.34
669.60	57826.45
669.80	57898.12
669.99	57808.01
670.18	57439.38
670.37	57805.97
670.57	57865.36
670.76	57400.47
670.95	57805.97
671.14	57846.93
671.33	57586.83
671.53	58033.29
671.72	57844.88
671.91	57443.48
672.10	58000.52
672.29	57816.21
672.48	57937.04
672.68	58035.34
672.87	57169.05
673.06	57224.34
673.25	57416.85
673.44	57345.17
673.64	57244.82
673.83	57214.10
674.02	57105.56
674.21	57089.18
674.40	57291.93
674.59	57582.74
674.79	57103.51
674.98	57070.75
675.17	56915.10
675.36	56902.81
675.55	57365.65
675.74	56886.43
675.94	56669.34
676.13	57275.54
676.32	57083.03
676.51	57382.04
676.70	57189.53
676.89	57263.25
677.08	57191.58
677.28	56870.04
677.47	57005.21
677.66	57228.44
677.85	56911.00
678.04	57267.35
678.23	56902.81
678.42	57349.27
678.62	56968.35
678.81	57293.97
679.00	56982.68
679.19	57130.14
679.38	56513.70
679.57	56964.25
679.76	56267.94
679.96	57048.22
680.15	56730.78
680.34	56626.34
680.53	56589.47
680.72	56499.36
680.91	57021.59
681.10	56433.83
681.29	57224.34
681.48	56403.11
681.68	56276.13
681.87	56114.34
682.06	56157.35
682.25	55999.66
682.44	55921.83
682.63	56325.28
682.82	56147.11
683.01	56265.89
683.20	55628.98
683.39	56122.54
683.59	56261.80
683.78	55700.65
683.97	56032.42
684.16	55807.15
684.35	55645.36
684.54	55729.33
684.73	55514.29
684.92	55934.12
685.11	55829.68
685.30	55719.09
685.49	55817.39
685.69	55717.04
685.88	55798.96
686.07	55555.25
686.26	55477.43
686.45	56081.58
686.64	55899.31
686.83	55751.85
687.02	55545.01
687.21	55637.17
687.40	55854.25
687.59	55600.30
687.78	55772.33
687.97	55614.64
688.16	55768.24
688.35	55241.91
688.54	55458.99
688.74	55559.34
688.93	55284.92
689.12	55395.51
689.31	55463.09
689.50	55090.36
689.69	54949.05
689.88	54580.42
690.07	54774.97
690.26	55139.51
690.45	55542.96
690.64	55098.55
690.83	55082.17
691.02	54715.58
691.21	54838.46
691.40	55053.50
691.59	55272.63
691.78	54822.08
691.97	55098.55
692.16	54908.09
692.35	54772.92
692.54	54887.61
692.73	54877.37
692.92	54557.89
693.11	54580.42
693.30	54779.07
693.49	54801.60
693.68	54473.92
693.87	54797.50
694.06	54113.48
694.25	54629.57
694.44	54355.14
694.63	54389.95
694.82	54842.56
695.01	54318.28
695.20	54297.80
695.39	54185.16
695.58	54293.70
695.77	54043.85
695.96	54031.56
696.15	54408.39
696.34	54054.09
696.53	54451.39
696.72	54588.61
696.91	53753.04
697.10	53920.97
697.29	53929.16
697.48	54467.78
697.67	53746.89
697.86	53372.11
698.05	53703.88
698.24	53949.64
698.43	53228.76
698.62	53777.61
698.81	53476.56
699.00	53974.22
699.19	53570.77
699.38	53867.72
699.57	53759.18
699.76	53785.80
699.95	53591.25
700.14	53126.36
700.32	53345.49
700.51	53472.46
700.70	53867.72
700.89	53363.92
701.08	53515.47
701.27	52856.03
701.46	53818.57
701.65	52731.10
701.84	53339.35
702.03	53013.72
702.22	52915.42
702.41	53091.54
702.60	53306.58
702.79	52821.21
702.98	52763.87
703.17	52950.23
703.35	52978.90
703.54	53185.75
703.73	53107.93
703.92	52987.10
704.11	52909.27
704.30	52614.37
704.49	52788.44
704.68	52946.14
704.87	52417.76
705.06	52747.48
705.25	52909.27
705.43	52849.88
705.62	52792.54
705.81	52763.87
706.00	52227.30
706.19	52309.22
706.38	52425.95
706.57	52780.25
706.76	52264.16
706.95	52315.36
707.14	52387.04
707.32	52317.41
707.51	51989.73
707.70	52223.20
707.89	52458.72
708.08	51989.73
708.27	52462.82
708.46	52790.49
708.65	52159.72
708.84	52843.74
709.02	52059.37
709.21	51999.97
709.40	51778.79
709.59	52088.04
709.78	51889.38
709.97	52616.41
710.16	51709.16
710.34	52237.54
710.53	52260.07
710.72	51617.00
710.91	51629.29
711.10	52106.47
711.29	51899.62
711.48	51789.03
711.66	52006.12
711.85	51850.47
712.04	52085.99
712.23	52083.94
712.42	51776.75
712.61	51899.62
712.80	51780.84
712.98	51817.71
713.17	51530.99
713.36	51428.59
713.55	51711.21
713.74	51737.83
713.93	51565.81
714.11	51664.11
714.30	51191.03
714.49	51700.97
714.68	51524.85
714.87	51533.04
715.06	51602.67
715.24	51397.87
715.43	51205.36
715.62	51299.57
715.81	51025.14
716.00	51950.82
716.18	50980.09
716.37	50638.08
716.56	50924.79
716.75	51619.05
716.94	50820.34
717.12	50898.17
717.31	51219.70
717.50	51014.90
717.69	50949.37
717.88	50990.33
718.06	50609.40
718.25	51248.37
718.44	50384.13
718.63	50681.08
718.82	50453.76
719.00	50627.84
719.19	50771.19
719.38	50509.05
719.57	50476.29
719.76	50205.95
719.94	49890.57
720.13	50488.57
720.32	50367.74
720.51	50091.27
720.69	49605.90
720.88	50124.04
721.07	50244.87
721.26	49765.64
721.44	50130.18
721.63	49767.69
721.82	49911.05
722.01	49517.84
722.20	49495.31
722.38	49610.00
722.57	49118.48
722.76	49460.49
722.95	49650.95
723.13	49446.16
723.32	49673.48
723.51	49257.74
723.70	49083.67
723.88	49321.23
724.07	49325.33
724.26	49413.39
724.44	49114.39
724.63	49444.11
724.82	49397.01
725.01	48872.73
725.19	49224.98
725.38	48805.14
725.57	48954.64
725.76	48923.93
725.94	48784.66
726.13	49351.95
726.32	49108.24
726.51	49028.37
726.69	48905.49
726.88	49472.78
727.07	48747.80
727.25	48518.43
727.44	48827.67
727.63	48887.06
727.82	48977.17
728.00	48823.58
728.19	48751.90
728.38	49044.76
728.56	48590.11
728.75	49171.73
728.94	48708.89
729.12	48936.21
729.31	48710.94
729.50	48557.34
729.69	48862.49
729.87	49067.28
730.06	48784.66
730.25	48852.25
730.43	49036.56
730.62	48692.50
730.81	49210.64
730.99	49048.85
731.18	48620.83
731.37	49261.84
731.55	48672.03
731.74	49526.03
731.93	49190.16
732.11	48635.16
732.30	48801.05
732.49	48717.08
732.67	48995.60
732.86	48622.87
733.05	48889.11
733.23	48493.85
733.42	48702.74
733.61	48807.19
733.79	49102.10
733.98	48803.10
734.17	48813.34
734.35	48717.08
734.54	49024.28
734.73	49425.68
734.91	49040.66
735.10	48692.50
735.29	48944.41
735.47	48784.66
735.66	48678.17
735.84	48602.39
736.03	48368.93
736.22	49149.20
736.40	48520.48
736.59	49030.42
736.78	48413.98
736.96	48776.47
737.15	48653.59
737.33	48700.70
737.52	48454.94
737.71	48395.55
737.89	48399.65
738.08	48092.45
738.27	48178.46
738.45	48543.00
738.64	48407.84
738.82	48330.01
739.01	48645.40
739.20	48733.46
739.38	48436.51
739.57	48715.03
739.75	48592.15
739.94	48280.86
740.13	48338.21
740.31	48205.09
740.50	48182.56
740.68	48655.64
740.87	48504.09
741.06	48610.59
741.24	47865.13
741.43	48321.82
741.61	48188.70
741.80	48225.57
741.99	48481.56
742.17	48000.29
742.36	48045.35
742.54	47887.65
742.73	48129.31
742.91	48250.14
743.10	48002.34
743.29	47971.62
743.47	48483.61
743.66	47807.78
743.84	48182.56
744.03	48266.53
744.21	48207.14
744.40	48411.93
744.59	48061.73
744.77	48008.48
744.96	47748.39
745.14	47973.67
745.33	48375.07
745.51	47641.90
745.70	47916.32
745.88	47711.53
746.07	47844.65
746.26	47674.66
746.44	47803.69
746.63	47297.84
746.81	47607.08
747.00	47412.52
747.18	48037.16
747.37	47916.32
747.55	47566.12
747.74	47961.38
747.92	48018.72
748.11	47611.18
748.29	47785.25
748.48	47424.81
748.66	47695.14
748.85	47795.49
749.03	47482.16
749.22	47488.30
749.41	47537.45
749.59	47514.92
749.78	47027.51
749.96	46851.38
750.15	47203.63
750.33	47496.49
750.52	47232.30
750.70	47400.24
750.89	46787.89
751.07	46742.84
751.26	46789.94
751.44	46910.77
751.63	47103.28
751.81	47125.81
752.00	46638.39
752.18	47152.43
752.37	46791.99
752.55	46550.33
752.74	46935.35
752.92	46464.32
753.10	46601.53
753.29	46882.10
753.47	46759.22
753.66	46116.16
753.84	46718.26
754.03	46538.04
754.21	46437.69
754.40	46714.17
754.58	46538.04
754.77	46523.71
754.95	45917.51
755.14	46202.18
755.32	46474.55
755.51	46208.32
755.69	46353.72
755.88	46134.59
756.06	46114.11
756.24	46382.40
756.43	45684.04
756.61	46112.06
756.80	46130.50
756.98	46138.69
757.17	46069.06
757.35	46009.67
757.54	46015.81
757.72	46245.18
757.90	45946.18
758.09	45901.12
758.27	45839.68
758.46	45565.26
758.64	45512.01
758.83	46087.49
759.01	45858.12
759.19	45753.67
759.38	45733.19
759.56	45806.92
759.75	46024.00
759.93	45819.20
760.12	45880.64
760.30	45772.10
760.48	45329.74
760.67	45372.75
760.85	45634.89
761.04	45628.74
761.22	45651.27
761.40	45325.64
761.59	45188.43
761.77	44989.78
761.96	45282.64
762.14	44932.43
762.32	45223.25
762.51	45069.65
762.69	44825.94
762.88	44787.03
763.06	45026.64
763.24	45088.08
763.43	45274.45
763.61	45264.21
763.80	44954.96
763.98	45094.22
764.16	45241.68
764.35	44789.08
764.53	44297.56
764.72	44715.35
764.90	44311.90
765.08	44578.14
765.27	44574.04
765.45	44254.56
765.63	44135.77
765.82	44316.00
766.00	44227.93
766.18	44549.46
766.37	44596.57
766.55	44311.90
766.74	44707.16
766.92	43986.27
767.10	44600.66
767.29	43787.62
767.47	43945.31
767.65	44072.29
767.84	43898.21
768.02	43967.84
768.20	43670.89
768.39	44068.19
768.57	43873.63
768.75	43699.56
768.94	43767.14
769.12	43519.34
769.30	43662.69
769.49	43394.41
769.67	43228.52
769.85	42974.58
770.04	43615.59
770.22	43353.45
770.40	43044.21
770.59	43001.20
770.77	43046.26
770.95	43228.52
771.14	43212.14
771.32	43058.54
771.50	42646.90
771.69	42853.75
771.87	42851.70
772.05	42741.11
772.24	42403.19
772.42	42679.67
772.60	42538.36
772.78	42440.06
772.97	41809.28
773.15	42501.50
773.33	42358.14
773.52	42208.64
773.70	42513.78
773.88	42886.51
774.07	42667.38
774.25	42233.21
774.43	42425.72
774.61	42382.71
774.80	42929.52
774.98	42501.50
775.16	42646.90
775.34	42374.52
775.53	42583.41
775.71	42517.88
775.89	42395.00
776.08	42601.85
776.26	42970.48
776.44	42620.28
776.62	42501.50
776.81	42128.77
776.99	42571.13
777.17	42933.62
777.35	42532.22
777.54	42876.27
777.72	42601.85
777.90	42671.48
778.08	42777.97
778.27	42530.17
778.45	43076.97
778.63	43060.59
778.81	42476.92
779.00	43564.39
779.18	42857.84
779.36	43007.34
779.54	42911.09
779.73	42728.82
779.91	43259.24
780.09	42919.28
780.27	43152.75
780.46	42861.94
780.64	43310.44
780.82	42853.75
781.00	43113.84
781.19	43087.21
781.37	43603.30
781.55	43373.93
781.73	43242.86
781.91	43367.79
782.10	43079.02
782.28	43175.28
782.46	43478.38
782.64	43781.48
782.82	43347.31
783.01	43146.61
783.19	43302.25
783.37	43670.89
783.55	43267.44
783.74	43595.11
783.92	42958.19
784.10	43373.93
784.28	43351.40
784.46	43181.42
784.64	43234.67
784.83	43488.62
785.01	43799.91
785.19	43629.93
785.37	43535.72
785.55	43447.66
785.74	42968.43
785.92	42878.32
786.10	43072.88
786.28	43242.86
786.46	42704.24
786.64	42911.09
786.83	42880.37
787.01	43222.38
787.19	42927.47
787.37	43031.92
787.55	43103.60
787.74	42689.91
787.92	42628.47
788.10	42620.28
788.28	42511.74
788.46	42607.99
788.64	42495.35
788.82	42501.50
789.01	42495.35
789.19	42696.05
789.37	42825.07
789.55	42630.52
789.73	42403.19
789.91	41856.39
790.09	42222.97
790.28	41952.64
790.46	41348.49
790.64	41885.06
790.82	41973.12
791.00	41702.79
791.18	41555.33
791.36	41469.32
791.55	41715.08
791.73	41155.98
791.91	41266.57
792.09	41225.61
792.27	41278.86
792.45	41123.21
792.63	41377.16
792.81	40764.82
793.00	41211.28
793.18	40979.85
793.36	40541.59
793.54	40297.88
793.72	40793.49
793.90	40478.10
794.08	40117.66
794.26	40371.61
794.44	40224.15
794.62	40281.50
794.81	40439.19
794.99	39808.42
795.17	39888.29
795.35	39779.74
795.53	39816.61
795.71	40080.80
795.89	39421.35
796.07	39433.64
796.25	39212.46
796.43	38884.78
796.61	39073.20
796.80	38753.71
796.98	39251.37
797.16	38817.20
797.34	38747.57
797.52	38933.93
797.70	38639.03
797.88	38639.03
798.06	38483.38
798.24	38557.11
798.42	38665.65
798.60	38331.83
798.78	38282.68
798.96	38139.32
799.14	37670.34
799.32	38067.64
799.51	37598.66
799.69	37737.92
799.87	37672.39
800.05	37684.67
800.23	37569.99
800.41	37582.27
800.59	37270.98
800.77	37084.62
800.95	36816.33
801.13	37033.42
801.31	37074.38
801.49	37086.67
801.67	36857.29
801.85	36814.29
802.03	36705.74
802.21	36566.48
802.39	36390.36
802.57	36421.08
802.75	35909.08
802.93	36482.52
803.11	36459.99
803.29	35704.29
803.47	35640.80
803.65	35882.46
803.83	35902.94
804.01	35474.91
804.19	35036.65
804.37	35378.66
804.55	35646.94
804.73	35309.03
804.91	35395.04
805.09	35167.72
805.27	35079.66
805.45	35143.14
805.63	35282.41
805.81	35220.97
805.99	35190.25
806.17	35157.48
806.35	35132.90
806.53	34678.25
806.71	34756.08
806.89	34565.62
807.07	34528.75
807.25	34676.21
807.43	34471.41
807.61	34625.01
807.79	34141.69
807.97	33719.81
808.15	34246.13
808.33	34067.96
808.51	33715.71
808.69	33857.02
808.87	33721.85
809.05	33756.67
809.23	33152.52
809.41	33164.81
809.59	33256.96
809.77	33814.01
809.95	32986.63
810.13	32992.78
810.31	33318.40
810.49	33125.89
810.67	32867.85
810.84	32618.00
811.02	32654.86
811.20	32648.72
811.38	32652.81
811.56	32407.06
811.74	32630.29
811.92	32443.92
812.10	32423.44
812.28	32493.07
812.46	32476.69
812.64	32384.53
812.82	32206.36
813.00	32159.25
813.18	31723.04
813.36	31692.32
813.53	31462.94
813.71	31696.41
813.89	31786.52
814.07	31737.37
814.25	31837.72
814.43	31503.90
814.61	31428.13
814.79	31594.01
814.97	31475.23
815.15	31610.40
815.33	30996.01
815.50	30901.80
815.68	31241.76
815.86	31141.41
816.04	30895.66
816.22	31106.60
816.40	30752.30
816.58	30656.04
816.76	30541.36
816.94	30674.48
817.11	30871.08
817.29	30498.35
817.47	30529.07
817.65	30250.55
817.83	30676.52
818.01	30471.73
818.19	30244.40
818.37	30281.27
818.54	29943.35
818.72	29974.07
818.90	30336.56
819.08	29777.47
819.26	30105.14
819.44	29791.80
819.62	29505.09
819.80	30006.84
819.97	29740.60
820.15	29728.31
820.33	29826.62
820.51	29795.90
820.69	29238.85
820.87	29664.83
821.05	29570.62
821.22	29386.30
821.40	29457.98
821.58	29044.29
821.76	29201.99
821.94	29089.35
822.12	29496.89
822.29	29314.62
822.47	29048.39
822.65	29472.32
822.83	29376.06
823.01	28894.79
823.19	28735.05
823.36	28671.56
823.54	28661.32
823.72	28769.86
823.90	28507.72
824.08	28575.31
824.25	28808.78
824.43	28503.63
824.61	28442.19
824.79	28479.05
824.97	28216.91
825.15	28358.22
825.32	28554.83
825.50	28145.23
825.68	28276.30
825.86	28466.77
826.04	28284.50
826.21	27942.49
826.39	28036.69
826.57	27946.58
826.75	27844.18
826.93	27774.55
827.10	28042.84
827.28	27616.86
827.46	27479.64
827.64	27643.48
827.81	27563.61
827.99	27749.98
828.17	27653.72
828.35	27383.39
828.53	27082.34
828.70	27178.59
828.88	27270.75
829.06	27469.40
829.24	27364.96
829.41	27151.97
829.59	27506.27
829.77	27430.49
829.95	26938.98
830.12	26863.21
830.30	27373.15
830.48	27108.96
830.66	27151.97
830.84	27020.90
831.01	26861.16
831.19	27233.89
831.37	26701.42
831.55	26609.26
831.72	26654.31
831.90	26848.87
832.08	26852.97
832.25	26605.16
832.43	26445.42
832.61	26517.10
832.79	26304.11
832.96	26132.08
833.14	26412.65
833.32	26490.48
833.50	26576.49
833.67	26381.93
833.85	26701.42
834.03	25794.17
834.20	26074.74
834.38	26322.54
834.56	26160.75
834.74	26097.27
834.91	26291.82
835.09	25828.98
835.27	25984.63
835.44	26011.25
835.62	25482.88
835.80	25874.04
835.98	25769.59
836.15	25902.71
836.33	25728.63
836.51	25775.73
836.68	25757.30
836.86	25771.64
837.04	25579.13
837.21	25413.24
837.39	25609.85
837.57	25544.31
837.75	25525.88
837.92	25366.14
838.10	25450.11
838.28	24786.57
838.45	25294.46
838.63	24923.78
838.81	25433.72
838.98	25142.91
839.16	24929.92
839.34	24766.09
839.51	25091.71
839.69	24942.21
839.87	24747.65
840.04	24972.93
840.22	25173.63
840.40	24831.62
840.57	24524.43
840.75	24557.19
840.93	24469.13
841.10	24761.99
841.28	24835.72
841.46	24714.89
841.63	24761.99
841.81	24516.23
841.98	24364.68
842.16	24708.74
842.34	24520.33
842.51	24401.55
842.69	24534.67
842.87	24669.83
843.04	24356.49
843.22	24282.77
843.40	23846.55
843.57	24120.98
843.75	24145.55
843.92	24092.30
844.10	23887.51
844.28	24231.57
844.45	24252.05
844.63	24055.44
844.81	24084.11
844.98	24049.30
845.16	23754.39
845.33	23877.27
845.51	23971.47
845.69	23959.19
845.86	23815.83
846.04	23568.02
846.21	23717.53
846.39	23707.29
846.57	23637.66
846.74	23783.06
846.92	23451.29
847.09	23332.51
847.27	23465.63
847.45	23733.91
847.62	23776.92
847.80	23744.15
847.97	23418.52
848.15	23381.66
848.32	23297.69
848.50	23398.04
848.68	23049.89
848.85	23451.29
849.03	22757.03
849.20	23115.42
849.38	23056.03
849.56	23152.29
849.73	22849.19
849.91	22978.21
850.08	23373.47
850.26	22830.76
850.43	23056.03
850.61	22933.15
850.78	22593.19
850.96	23027.36
851.14	22924.96
851.31	22656.68
851.49	22714.02
851.66	22582.95
851.84	22480.55
852.01	22875.81
852.19	22638.25
852.36	22683.30
852.54	22490.79
852.71	22578.86
852.89	22666.92
853.07	22599.34
853.24	22705.83
853.42	22390.44
853.59	22406.83
853.77	22556.33
853.94	22666.92
854.12	22740.64
854.29	22253.23
854.47	22478.50
854.64	22470.31
854.82	22324.91
854.99	22318.76
855.17	22556.33
855.34	22298.28
855.52	22281.90
855.69	22382.25
855.87	21993.14
856.04	21960.37
856.22	22111.92
856.39	21755.57
856.57	22054.58
856.74	21733.04
856.92	22038.19
857.09	21679.80
857.27	21659.32
857.44	22142.64
857.62	21724.85
857.79	21941.94
857.97	21837.49
858.14	21845.68
858.32	21726.90
858.49	21952.18
858.67	21491.38
858.84	21442.23
859.02	21558.97
859.19	21741.24
859.37	21345.98
859.54	21284.54
859.72	21536.44
859.89	21563.06
860.06	21497.53
860.24	21362.36
860.41	21530.30
860.59	21206.72
860.76	21585.59
860.94	21087.93
861.11	21296.83
861.29	21284.54
861.46	21075.65
861.64	21053.12
861.81	20881.09
861.98	21038.78
862.16	20993.73
862.33	20866.75
862.51	20983.49
862.68	20930.24
862.86	20936.38
863.03	20854.47
863.21	20647.62
863.38	20772.55
863.55	20606.66
863.73	20637.38
863.90	20762.31
864.08	20928.19
864.25	20506.31
864.43	20616.90
864.60	20719.30
864.77	20643.52
864.95	20979.39
865.12	20268.75
865.30	20829.89
865.47	20235.98
865.64	20537.03
865.82	20414.15
865.99	20512.46
866.17	20506.31
866.34	20285.13
866.51	20066.00
866.69	20287.18
866.86	20485.83
867.04	20471.50
867.21	20328.14
867.38	20344.52
867.56	19965.65
867.73	19863.25
867.91	20264.65
868.08	19920.59
868.25	19908.30
868.43	19922.64
868.60	19713.75
868.78	19795.67
868.95	19967.70
869.12	19427.03
869.30	19918.54
869.47	19871.44
869.64	19775.19
869.82	19560.15
869.99	19521.24
870.16	19773.14
870.34	19654.36
870.51	19738.32
870.69	19431.13
870.86	19394.26
871.03	19746.51
871.21	19435.22
871.38	19586.77
871.55	19547.86
871.73	19263.19
871.90	19330.78
872.07	19214.04
872.25	18919.14
872.42	19259.10
872.59	19343.06
872.77	19138.27
872.94	19144.41
873.11	19138.27
873.29	19003.10
873.46	18976.48
873.63	19140.32
873.81	18624.23
873.98	18869.98
874.15	18992.86
874.33	19099.36
874.50	18593.51
874.67	18786.02
874.85	18888.42
875.02	18669.28
875.19	18351.85
875.37	18376.42
875.54	18587.36
875.71	18702.05
875.88	18306.79
876.06	18439.91
876.23	18333.42
876.40	18581.22
876.58	18306.79
876.75	18134.76
876.92	18286.31
877.10	18401.00
877.27	17964.78
877.44	18149.10
877.61	17913.58
877.79	18108.14
877.96	18142.96
878.13	17850.10
878.31	18093.80
878.48	17792.75
878.65	17653.49
878.82	17770.22
879.00	17688.31
879.17	17362.68
879.34	18198.25
879.51	17702.64
879.69	17745.65
879.86	17633.01
880.03	17661.68
880.21	17567.48
880.38	17774.32
880.55	17575.67
880.72	17553.14
880.90	17596.15
881.07	17487.61
881.24	17561.33
881.41	17643.25
881.59	17473.27
881.76	17442.55
881.93	17039.10
882.10	17360.63
882.28	17270.52
882.45	17438.45
882.62	17123.07
882.79	17426.17
882.96	17080.06
883.14	17348.34
883.31	17495.80
883.48	17268.47
883.65	17086.20
883.83	17129.21
884.00	17217.27
884.17	17018.62
884.34	17090.30
884.51	17211.13
884.69	16953.09
884.86	16965.37
885.03	16828.16
885.20	16932.61
885.38	16938.75
885.55	16865.02
885.72	17051.39
885.89	16656.13
886.06	16838.40
886.24	16850.69
886.41	16430.85
886.58	16752.38
886.75	16994.04
886.92	16695.04
887.10	16785.15
887.27	16463.62
887.44	16803.58
887.61	16602.88
887.78	16756.48
887.95	16660.23
888.13	16451.33
888.30	16529.16
888.47	16537.35
888.64	16459.52
888.81	16469.76
888.99	16414.47
889.16	16363.27
889.33	16252.68
889.50	16031.50
889.67	16398.09
889.84	16402.18
890.01	16330.50
890.19	16305.93
890.36	16246.54
890.53	16111.37
890.70	16273.16
890.87	16103.18
891.04	15976.20
891.22	16201.48
891.39	16127.75
891.56	15937.29
891.73	16039.69
891.90	16045.84
892.07	15740.69
892.24	15861.52
892.42	15900.43
892.59	15933.20
892.76	15908.62
892.93	15453.97
893.10	15871.76
893.27	15761.17
893.44	15570.71
893.61	15785.74
893.79	16072.46
893.96	15810.32
894.13	15867.66
894.30	15855.37
894.47	15640.34
894.64	15693.58
894.81	15982.35
894.98	15681.30
895.15	15779.60
895.33	15654.67
895.50	15611.67
895.67	15689.49
895.84	15804.17
896.01	15716.11
896.18	15494.93
896.35	15681.30
896.52	15546.13
896.69	15638.29
896.86	15505.17
897.04	15451.92
897.21	15564.56
897.38	15605.52
897.55	15638.29
897.72	15838.99
897.89	15404.82
898.06	15384.34
898.23	15451.92
898.40	15441.68
898.57	15531.80
898.74	15697.68
898.91	15544.08
899.08	15435.54
899.26	15486.74
899.43	15585.04
899.60	15197.98
899.77	15478.55
899.94	15222.55
900.11	15212.31
900.28	15486.74
900.45	15591.19
900.62	15449.88
900.79	15357.72
900.96	15640.34
901.13	15716.11
901.30	15613.71
901.47	15427.35
901.64	15597.33
901.81	15611.67
901.98	15400.72
902.15	15656.72
902.32	15464.21
902.49	15453.97
902.66	15415.06
902.83	15548.18
903.01	15511.32
903.18	15509.27
903.35	15605.52
903.52	15347.48
903.69	15550.23
903.86	15623.95
904.03	15488.79
904.20	15468.31
904.37	15734.54
904.54	15527.70
904.71	15458.07
904.88	15316.76
905.05	15290.13
905.22	15451.92
905.39	15318.81
905.56	15435.54
905.73	15582.99
905.90	15697.68
906.07	15445.78
906.24	15374.10
906.41	15427.35
906.58	15490.84
906.75	15384.34
906.92	15406.87
907.09	15406.87
907.26	15425.30
907.43	15363.86
907.60	15370.01
907.77	15529.75
907.93	15134.49
908.10	15212.31
908.27	15300.37
908.44	15171.35
908.61	15089.43
908.78	15304.47
908.95	15388.44
909.12	15453.97
909.29	15257.37
909.46	15175.45
909.63	15380.25
909.80	15363.86
909.97	15275.80
910.14	15304.47
910.31	15191.83
910.48	15331.09
910.65	15312.66
910.82	15118.11
910.99	15361.81
911.16	15175.45
911.33	15191.83
911.50	15163.16
911.66	14958.36
911.83	15236.89
912.00	15136.54
912.17	14944.03
912.34	15173.40
912.51	14974.75
912.68	14862.11
912.85	14894.88
913.02	14890.78
913.19	14847.77
913.36	14929.69
913.53	14769.95
913.70	14700.32
913.86	15011.61
914.03	14714.66
914.20	14726.94
914.37	14661.41
914.54	14704.42
914.71	14872.35
914.88	14874.40
915.05	14661.41
915.22	14534.43
915.39	14536.48
915.55	14616.35
915.72	14581.54
915.89	14579.49
916.06	14442.28
916.23	14393.12
916.40	14427.94
916.57	14376.74
916.74	14321.45
916.91	14262.05
917.07	14147.37
917.24	14247.72
917.41	14251.81
917.58	14337.83
917.75	14008.11
917.92	13993.77
918.09	13981.48
918.26	13850.41
918.42	14120.74
918.59	13969.19
918.76	13799.21
918.93	13797.17
919.10	13760.30
919.27	13715.25
919.44	13821.74
919.60	13883.18
919.77	13797.17
919.94	13438.77
920.11	13784.88
920.28	13770.54
920.45	13545.27
920.61	13403.96
920.78	13438.77
920.95	13449.01
921.12	13645.62
921.29	13129.53
921.46	13115.19
921.62	13207.35
921.79	13303.60
921.96	13014.84
922.13	12965.69
922.30	12912.44
922.47	12906.30
922.63	12959.55
922.80	12953.40
922.97	12836.67
923.14	12590.91
923.31	12791.61
923.47	12771.13
923.64	12867.39
923.81	12562.24
923.98	12683.07
924.15	12443.46
924.32	12670.78
924.48	12433.22
924.65	12535.62
924.82	12365.64
924.99	12285.76
925.15	12265.28
925.32	12152.65
925.49	12232.52
925.66	12138.31
925.83	11997.00
925.99	12037.96
926.16	12236.61
926.33	12001.10
926.50	11829.07
926.67	11980.62
926.83	11935.56
927.00	11857.74
927.17	11923.27
927.34	11554.64
927.50	11784.01
927.67	11820.88
927.84	11671.37
928.01	11435.86
928.17	11595.60
928.34	11478.86
928.51	11358.03
928.68	11536.21
928.84	11128.66
929.01	11290.45
929.18	11192.15
929.35	11159.38
929.51	11212.63
929.68	10985.30
929.85	11102.04
930.02	10962.78
930.18	11030.36
930.35	10960.73
930.52	10946.39
930.69	10755.93
930.85	10852.19
931.02	10557.28
931.19	10786.65
931.36	10581.85
931.52	10696.54
931.69	10753.88
931.86	10538.85
932.02	10434.40
932.19	10348.39
932.36	10379.11
932.53	10364.77
932.69	10145.64
932.86	10358.63
933.03	10133.35
933.19	10139.49
933.36	9955.18
933.53	10080.10
933.70	9793.39
933.86	9803.63
934.03	9871.21
934.20	9807.72
934.36	9957.22
934.53	9586.54
934.70	9400.18
934.86	9385.84
935.03	9406.32
935.20	9305.97
935.36	9412.46
935.53	9344.88
935.70	9252.72
935.86	9070.45
936.03	9164.66
936.20	8824.70
936.36	8836.99
936.53	8877.94
936.70	8916.86
936.86	8947.58
937.03	8701.82
937.20	8482.69
937.36	8574.85
937.53	8380.29
937.70	8251.27
937.86	8126.34
938.03	7958.41
938.20	8210.31
938.36	7925.64
938.53	7978.89
938.70	7702.41
938.86	7753.61
939.03	7718.79
939.20	7597.96
939.36	7581.58
939.53	7344.02
939.70	7569.29
939.86	7098.26
940.03	7135.12
940.19	6965.14
940.36	7073.68
940.53	7002.01
940.69	6746.01
940.86	6877.08
941.03	6754.20
941.19	6680.47
941.36	6715.29
941.52	6500.25
941.69	6518.68
941.86	6576.03
942.02	6440.86
942.19	6336.42
942.35	6334.37
942.52	6195.11
942.69	6287.26
942.85	6191.01
943.02	6080.42
943.18	6041.51
943.35	6100.90
943.52	5799.85
943.68	5982.12
943.85	6006.69
944.01	5738.41
944.18	5777.32
944.35	5791.66
944.51	5758.89
944.68	5617.58
944.84	5676.97
945.01	5717.93
945.17	5705.64
945.34	5539.76
945.51	5588.91
945.67	5732.26
945.84	5494.70
946.00	5521.32
946.17	5588.91
946.33	5474.22
946.50	5625.77
946.67	5439.40
946.83	5416.88
947.00	5531.56
947.16	5478.32
947.33	5427.12
947.49	5466.03
947.66	5388.21
947.82	5443.50
947.99	5502.89
948.16	5515.18
948.32	5443.50
948.49	5517.23
948.65	5560.24
948.82	5476.27
948.98	5406.64
949.15	5439.40
949.31	5482.41
949.48	5418.93
949.64	5367.73
949.81	5502.89
949.97	5418.93
950.14	5447.60
950.30	5509.04
950.47	5525.42
950.63	5451.69
950.80	5451.69
950.96	5455.79
951.13	5474.22
951.30	5337.01
951.46	5537.71
951.63	5644.20
951.79	5613.48
951.96	5623.72
952.12	5478.32
952.29	5619.63
952.45	5437.36
952.62	5550.00
952.78	5445.55
952.94	5619.63
953.11	5541.80
953.27	5502.89
953.44	5707.69
953.60	5595.05
953.77	5509.04
953.93	5603.24
954.10	5633.96
954.26	5605.29
954.43	5550.00
954.59	5701.54
954.76	5773.22
954.92	5537.71
955.09	5609.39
955.25	5676.97
955.42	5627.82
955.58	5683.11
955.75	5584.81
955.91	5730.22
956.07	5683.11
956.24	5679.02
956.40	5627.82
956.57	5607.34
956.73	5609.39
956.90	5621.67
957.06	5506.99
957.23	5576.62
957.39	5605.29
957.56	5709.74
957.72	5545.90
957.88	5552.04
958.05	5726.12
958.21	5746.60
958.38	5615.53
958.54	5582.76
958.71	5754.79
958.87	5554.09
959.03	5582.76
959.20	5619.63
959.36	5496.75
959.53	5660.59
959.69	5607.34
959.85	5685.16
960.02	5451.69
960.18	5670.83
960.35	5734.31
960.51	5730.22
960.68	5574.57
960.84	5607.34
961.00	5523.37
961.17	5394.35
961.33	5629.87
961.50	5593.00
961.66	5670.83
961.82	5515.18
961.99	5619.63
962.15	5527.47
962.31	5539.76
962.48	5623.72
962.64	5609.39
962.81	5494.70
962.97	5541.80
963.13	5711.78
963.30	5599.15
963.46	5523.37
963.62	5564.33
963.79	5552.04
963.95	5566.38
964.12	5554.09
964.28	5568.43
964.44	5672.87
964.61	5629.87
964.77	5584.81
964.93	5586.86
965.10	5552.04
965.26	5457.84
965.42	5560.24
965.59	5463.98
965.75	5506.99
965.92	5509.04
966.08	5420.97
966.24	5486.51
966.41	5529.52
966.57	5597.10
966.73	5463.98
966.90	5480.36
967.06	5500.84
967.22	5468.08
967.39	5396.40
967.55	5425.07
967.71	5496.75
967.88	5466.03
968.04	5363.63
968.20	5259.18
968.37	5261.23
968.53	5281.71
968.69	5294.00
968.85	5482.41
969.02	5463.98
969.18	5382.06
969.34	5265.33
969.51	5246.90
969.67	5388.21
969.83	5158.83
970.00	5400.49
970.16	5191.60
970.32	5320.62
970.48	5310.38
970.65	5210.03
970.81	5205.94
970.97	5261.23
971.14	5152.69
971.30	5138.35
971.46	5148.59
971.63	5242.80
971.79	5328.81
971.95	5164.98
972.11	5185.46
972.28	5224.37
972.44	5111.73
972.60	5115.83
972.76	5103.54
972.93	5134.26
973.09	5093.30
973.25	5128.11
973.42	4945.84
973.58	5294.00
973.74	5081.01
973.90	5023.67
974.07	5031.86
974.23	5019.57
974.39	5046.20
974.55	4972.47
974.72	4847.54
974.88	4810.68
975.04	4980.66
975.20	5050.29
975.37	4861.88
975.53	4859.83
975.69	4898.74
975.85	4870.07
976.01	4849.59
976.18	4917.17
976.34	4898.74
976.50	4984.76
976.66	4878.26
976.83	4837.30
976.99	4872.12
977.15	4872.12
977.31	4695.99
977.47	4827.06
977.64	4841.40
977.80	4739.00
977.96	4741.05
978.12	4841.40
978.29	4724.66
978.45	4739.00
978.61	4583.35
978.77	4804.53
978.93	4636.60
979.10	4577.21
979.26	4683.70
979.42	4640.70
979.58	4501.44
979.74	4669.37
979.91	4650.94
980.07	4507.58
980.23	4655.03
980.39	4544.44
980.55	4556.73
980.71	4503.48
980.88	4558.78
981.04	4599.74
981.20	4630.46
981.36	4597.69
981.52	4378.56
981.68	4499.39
981.85	4571.07
982.01	4497.34
982.17	4339.65
982.33	4485.05
982.49	4497.34
982.65	4376.51
982.82	4444.09
982.98	4372.41
983.14	4310.97
983.30	4468.67
983.46	4376.51
983.62	4394.94
983.79	4288.45
983.95	4454.33
984.11	4184.00
984.27	4329.41
984.43	4321.21
984.59	4184.00
984.75	4388.80
984.91	4235.20
985.08	4331.45
985.24	4235.20
985.40	4306.88
985.56	4329.41
985.72	4323.26
985.88	4081.60
986.04	4145.09
986.20	4083.65
986.37	4218.82
986.53	4114.37
986.69	4288.45
986.85	4061.12
987.01	4069.31
987.17	4130.75
987.33	4124.61
987.49	4130.75
987.65	4202.43
987.82	4087.75
987.98	3940.29
988.14	4145.09
988.30	3989.44
988.46	3993.54
988.62	4057.03
988.78	3975.11
988.94	3989.44
989.10	3913.67
989.26	3878.85
989.42	3897.28
989.59	3895.24
989.75	3973.06
989.91	3962.82
990.07	3762.12
990.23	3964.87
990.39	3938.24
990.55	4001.73
990.71	3825.61
990.87	3821.51
991.03	3905.48
991.19	3790.79
991.35	3872.71
991.51	3788.74
991.67	3874.76
991.83	3839.94
992.00	3856.33
992.16	3876.80
992.32	3805.13
992.48	3817.41
992.64	3766.21
992.80	3934.15
992.96	3794.89
993.12	3770.31
993.28	3829.70
993.44	3780.55
993.60	3692.49
993.76	3639.24
993.92	3717.06
994.08	3782.60
994.24	3631.05
994.40	3700.68
994.56	3602.38
994.72	3639.24
994.88	3610.57
995.04	3651.53
995.20	3555.27
995.36	3551.18
995.52	3694.54
995.68	3536.84
995.84	3446.73
996.00	3719.11
996.16	3618.76
996.32	3573.71
996.48	3483.59
996.64	3715.02
996.80	3563.47
996.96	3661.77
997.12	3540.94
997.28	3434.44
997.44	3485.64
997.60	3442.64
997.76	3491.79
997.92	3514.31
998.08	3440.59
998.24	3385.29
998.40	3508.17
998.56	3542.99
998.72	3393.48
998.88	3252.17
999.04	3325.90
999.20	3422.16
999.36	3284.94
999.52	3536.84
999.68	3342.28
999.84	3319.76
1000.00	3252.17
1000.16	3411.92
1000.32	3342.28
1000.48	3407.82
1000.64	3215.31
1000.80	3205.07
1000.95	3129.30
1001.11	3270.61
1001.27	3248.08
1001.43	3198.93
1001.59	3268.56
1001.75	3243.98
1001.91	3239.89
1002.07	3151.82
1002.23	3198.93
1002.39	3106.77
1002.55	3211.22
1002.71	3209.17
1002.87	3092.43
1003.03	3112.91
1003.19	3055.57
1003.34	3313.61
1003.50	3135.44
1003.66	3221.45
1003.82	3117.01
1003.98	2975.70
1004.14	3030.99
1004.30	3082.19
1004.46	3051.47
1004.62	3022.80
1004.78	2932.69
1004.94	3071.95
1005.09	3035.09
1005.25	3088.34
1005.41	2977.75
1005.57	3045.33
1005.73	3045.33
1005.89	2959.31
1006.05	2998.23
1006.21	2971.60
1006.37	2969.55
1006.52	2949.08
1006.68	2879.44
1006.84	3035.09
1007.00	2973.65
1007.16	3024.85
1007.32	2908.12
1007.48	2969.55
1007.64	2906.07
1007.79	2944.98
1007.95	2879.44
1008.11	2947.03
1008.27	2867.16
1008.43	2973.65
1008.59	2912.21
1008.75	3030.99
1008.91	2795.48
1009.06	2785.24
1009.22	2869.20
1009.38	2949.08
1009.54	2854.87
1009.70	2879.44
1009.86	2828.24
1010.01	2828.24
1010.17	2715.61
1010.33	2897.88
1010.49	2805.72
1010.65	2818.00
1010.81	2754.52
1010.96	2811.86
1011.12	2729.94
1011.28	2721.75
1011.44	2809.81
1011.60	2695.13
1011.76	2756.57
1011.91	2723.80
1012.07	2695.13
1012.23	2637.78
1012.39	2625.50
1012.55	2617.30
1012.71	2635.74
1012.86	2705.37
1013.02	2697.17
1013.18	2658.26
1013.34	2607.06
1013.50	2725.85
1013.65	2627.54
1013.81	2543.58
1013.97	2641.88
1014.13	2648.02
1014.29	2527.19
1014.44	2707.41
1014.60	2574.30
1014.76	2615.26
1014.92	2627.54
1015.07	2568.15
1015.23	2562.01
1015.39	2508.76
1015.55	2555.86
1015.71	2576.34
1015.86	2596.82
1016.02	2529.24
1016.18	2439.13
1016.34	2576.34
1016.49	2463.71
1016.65	2543.58
1016.81	2553.82
1016.97	2523.10
1017.12	2580.44
1017.28	2369.50
1017.44	2471.90
1017.60	2525.15
1017.75	2498.52
1017.91	2551.77
1018.07	2443.23
1018.23	2408.41
1018.38	2455.51
1018.54	2383.84
1018.70	2461.66
1018.86	2416.60
1019.01	2357.21
1019.17	2406.36
1019.33	2488.28
1019.49	2453.47
1019.64	2379.74
1019.80	2428.89
1019.96	2414.56
1020.12	2439.13
1020.27	2371.55
1020.43	2461.66
1020.59	2301.92
1020.74	2459.61
1020.90	2404.32
1021.06	2351.07
1021.22	2387.93
1021.37	2289.63
1021.53	2291.68
1021.69	2320.35
1021.84	2387.93
1022.00	2367.45
1022.16	2342.88
1022.31	2267.10
1022.47	2365.40
1022.63	2402.27
1022.79	2181.09
1022.94	2201.57
1023.10	2361.31
1023.26	2267.10
1023.41	2289.63
1023.57	2220.00
1023.73	2308.06
1023.88	2363.36
1024.04	2248.67
1024.20	2215.90
1024.35	2277.34
1024.51	2269.15
1024.67	2185.18
1024.82	2320.35
1024.98	2176.99
1025.14	2326.49
1025.29	2222.05
1025.45	2164.70
1025.61	2148.32
1025.76	2199.52
1025.92	2158.56
1026.08	2158.56
1026.23	2152.42
1026.39	2273.25
1026.55	2107.36
1026.70	2222.05
1026.86	2170.85
1027.02	2244.57
1027.17	2215.90
1027.33	2189.28
1027.48	2195.42
1027.64	2172.89
1027.80	2103.26
1027.95	2203.61
1028.11	2146.27
1028.27	2136.03
1028.42	2133.98
1028.58	2129.89
1028.73	2115.55
1028.89	2041.82
1029.05	2238.43
1029.20	2187.23
>>>>>End Processed Spectral Data<<<<<
