SpectraSuite Data File
++++++++++++++++++++++++++++++++++++
Date: Fri Jun 02 14:52:27 CEST 2017
User: INFO_000
Dark Spectrum Present: No
Reference Spectrum Present: No
Number of Sampled Component Spectra: 1
Spectrometers: USB4H00879
Integration Time (usec): 80000 (USB4H00879)
Spectra Averaged: 1 (USB4H00879)
Boxcar Smoothing: 0 (USB4H00879)
Correct for Electrical Dark: No (USB4H00879)
Strobe/Lamp Enabled: No (USB4H00879)
Correct for Detector Non-linearity: No (USB4H00879)
Correct for Stray Light: No (USB4H00879)
Number of Pixels in Processed Spectrum: 3648
>>>>>Begin Processed Spectral Data<<<<<
345.13	1267.69
345.34	1267.69
345.56	1267.69
345.78	1341.42
345.99	1261.55
346.21	1585.13
346.42	1738.73
346.64	1624.04
346.86	1855.46
347.07	1634.28
347.29	1689.57
347.50	1619.94
347.72	1681.38
347.94	1734.63
348.15	1607.66
348.37	1591.27
348.59	1669.09
348.80	1683.43
349.02	1734.63
349.23	1869.80
349.45	1783.78
349.67	1828.84
349.88	1791.97
350.10	1959.91
350.31	1837.03
350.53	1822.69
350.75	1935.33
350.96	1718.25
351.18	1849.32
351.39	1949.67
351.61	1765.35
351.82	1918.95
352.04	1929.19
352.26	1906.66
352.47	1988.58
352.69	1910.75
352.90	1785.83
353.12	1785.83
353.34	1877.99
353.55	2009.06
353.77	1888.23
353.98	1824.74
354.20	1841.12
354.41	1947.62
354.63	1943.52
354.85	2047.97
355.06	1947.62
355.28	1834.98
355.49	1882.08
355.71	1937.38
355.92	1908.71
356.14	1900.52
356.35	1843.17
356.57	1849.32
356.79	1937.38
357.00	1869.80
357.22	1875.94
357.43	1839.08
357.65	1945.57
357.86	1949.67
358.08	1849.32
358.29	1912.80
358.51	1970.15
358.72	1964.00
358.94	1974.24
359.16	1937.38
359.37	1945.57
359.59	1894.37
359.80	2035.68
360.02	1970.15
360.23	2021.35
360.45	1916.90
360.66	1972.19
360.88	1882.08
361.09	1955.81
361.31	2031.58
361.52	1933.28
361.74	2047.97
361.95	2101.22
362.17	1966.05
362.38	2107.36
362.60	2029.54
362.81	1961.95
363.03	2011.11
363.24	2029.54
363.46	1994.72
363.67	1961.95
363.89	2027.49
364.10	2105.31
364.32	2017.25
364.53	2050.02
364.75	1886.18
364.96	2101.22
365.18	2074.59
365.39	2033.63
365.61	2035.68
365.82	2187.23
366.04	2088.93
366.25	1941.47
366.47	2099.17
366.68	2125.79
366.90	1990.63
367.11	2181.09
367.33	2121.70
367.54	2166.75
367.76	2009.06
367.97	2123.74
368.19	1984.48
368.40	2070.50
368.62	1964.00
368.83	1996.77
369.05	2068.45
369.26	1916.90
369.48	2000.87
369.69	1955.81
369.91	2019.30
370.12	2068.45
370.33	2109.41
370.55	2027.49
370.76	2072.54
370.98	2052.06
371.19	2084.83
371.41	1984.48
371.62	2017.25
371.84	2076.64
372.05	2131.94
372.27	2090.98
372.48	2082.78
372.69	2113.50
372.91	2129.89
373.12	2125.79
373.34	2168.80
373.55	2254.81
373.77	2213.85
373.98	2043.87
374.20	2150.37
374.41	2301.92
374.62	2103.26
374.84	2166.75
375.05	2150.37
375.27	2158.56
375.48	2158.56
375.70	2154.46
375.91	2248.67
376.12	2271.20
376.34	2220.00
376.55	2242.53
376.77	2164.70
376.98	2181.09
377.19	2136.03
377.41	2086.88
377.62	2199.52
377.84	2365.40
378.05	2355.16
378.27	2236.38
378.48	2338.78
378.69	2322.40
378.91	2332.64
379.12	2250.72
379.34	2326.49
379.55	2324.44
379.76	2324.44
379.98	2193.37
380.19	2289.63
380.41	2158.56
380.62	2338.78
380.83	2248.67
381.05	2176.99
381.26	2402.27
381.47	2160.61
381.69	2291.68
381.90	2422.75
382.12	2314.20
382.33	2293.72
382.54	2330.59
382.76	2287.58
382.97	2285.53
383.19	2293.72
383.40	2365.40
383.61	2269.15
383.83	2240.48
384.04	2389.98
384.25	2412.51
384.47	2435.03
384.68	2320.35
384.89	2379.74
385.11	2375.64
385.32	2299.87
385.54	2451.42
385.75	2322.40
385.96	2439.13
386.18	2357.21
386.39	2394.08
386.60	2373.60
386.82	2445.27
387.03	2475.99
387.24	2551.77
387.46	2510.81
387.67	2459.61
387.88	2437.08
388.10	2461.66
388.31	2473.95
388.52	2551.77
388.74	2484.19
388.95	2625.50
389.16	2543.58
389.38	2627.54
389.59	2584.54
389.80	2666.46
390.02	2535.39
390.23	2600.92
390.44	2551.77
390.66	2596.82
390.87	2510.81
391.08	2611.16
391.30	2682.84
391.51	2566.10
391.72	2707.41
391.94	2686.94
392.15	2662.36
392.36	2666.46
392.58	2598.87
392.79	2666.46
393.00	2721.75
393.22	2787.29
393.43	2805.72
393.64	2875.35
393.85	2877.40
394.07	2699.22
394.28	2828.24
394.49	2752.47
394.71	2815.96
394.92	2852.82
395.13	2781.14
395.35	2752.47
395.56	2736.09
395.77	2826.20
395.98	2871.25
396.20	2967.51
396.41	2852.82
396.62	2914.26
396.84	2875.35
397.05	2869.20
397.26	2934.74
397.47	2918.36
397.69	2932.69
397.90	2981.84
398.11	3033.04
398.32	2889.68
398.54	2826.20
398.75	2969.55
398.96	2961.36
399.18	3182.54
399.39	2971.60
399.60	3092.43
399.81	3006.42
400.03	3030.99
400.24	3237.84
400.45	2963.41
400.66	3114.96
400.88	3000.27
401.09	3198.93
401.30	3172.30
401.51	3162.06
401.73	3162.06
401.94	3082.19
402.15	3172.30
402.36	3215.31
402.58	3227.60
402.79	3170.26
403.00	3276.75
403.21	3352.52
403.43	3235.79
403.64	3293.13
403.85	3176.40
404.06	3301.33
404.27	3160.02
404.49	3252.17
404.70	3143.63
404.91	3387.34
405.12	3194.83
405.34	3231.69
405.55	3440.59
405.76	3219.41
405.97	3186.64
406.19	3420.11
406.40	3284.94
406.61	3416.01
406.82	3184.59
407.03	3282.89
407.25	3309.52
407.46	3393.48
407.67	3411.92
407.88	3385.29
408.09	3358.67
408.31	3440.59
408.52	3413.96
408.73	3315.66
408.94	3401.68
409.15	3416.01
409.37	3493.83
409.58	3471.31
409.79	3655.62
410.00	3499.98
410.21	3409.87
410.43	3405.77
410.64	3375.05
410.85	3512.27
411.06	3620.81
411.27	3559.37
411.48	3549.13
411.70	3604.42
411.91	3618.76
412.12	3753.93
412.33	3526.60
412.54	3637.19
412.76	3712.97
412.97	3708.87
413.18	3620.81
413.39	3653.58
413.60	3827.65
413.81	3672.01
414.03	3745.73
414.24	3598.28
414.45	3747.78
414.66	3565.51
414.87	3786.69
415.08	3717.06
415.30	3622.86
415.51	3776.45
415.72	3764.17
415.93	3772.36
416.14	3821.51
416.35	3901.38
416.56	3805.13
416.78	3874.76
416.99	3995.59
417.20	3876.80
417.41	3930.05
417.62	3899.33
417.83	3899.33
418.04	3973.06
418.26	4014.02
418.47	3987.40
418.68	4112.32
418.89	4046.79
419.10	4124.61
419.31	4067.27
419.52	4009.92
419.73	3911.62
419.95	4192.19
420.16	4110.27
420.37	4063.17
420.58	4267.97
420.79	3915.72
421.00	4255.68
421.21	4214.72
421.42	4091.84
421.63	4112.32
421.85	4095.94
422.06	4241.34
422.27	4143.04
422.48	4224.96
422.69	4362.17
422.90	4325.31
423.11	4335.55
423.32	4292.54
423.53	4425.66
423.75	4382.65
423.96	4618.17
424.17	4558.78
424.38	4491.20
424.59	4487.10
424.80	4605.88
425.01	4577.21
425.22	4542.39
425.43	4501.44
425.64	4747.19
425.85	4698.04
426.06	4712.38
426.28	4646.84
426.49	4528.06
426.70	4614.07
426.91	4661.18
427.12	4810.68
427.33	4833.21
427.54	4757.43
427.75	4865.97
427.96	4915.12
428.17	4792.25
428.38	4896.69
428.59	4956.08
428.80	4796.34
429.01	5009.33
429.23	4927.41
429.44	5064.63
429.65	5054.39
429.86	5150.64
430.07	5033.91
430.28	5042.10
430.49	5175.22
430.70	5250.99
430.91	5230.51
431.12	5058.48
431.33	5380.01
431.54	5425.07
431.75	5347.25
431.96	5232.56
432.17	5269.42
432.38	5351.34
432.59	5509.04
432.80	5345.20
433.01	5451.69
433.22	5531.56
433.43	5345.20
433.64	5494.70
433.85	5384.11
434.06	5488.56
434.27	5515.18
434.49	5517.23
434.70	5650.35
434.91	5615.53
435.12	5654.44
435.33	5580.71
435.54	5738.41
435.75	5466.03
435.96	5709.74
436.17	5582.76
436.38	5801.90
436.59	5754.79
436.80	5746.60
437.01	5834.66
437.22	5922.73
437.43	5765.03
437.64	5717.93
437.85	5939.11
438.06	5912.49
438.27	5734.31
438.48	5748.65
438.69	5773.22
438.90	6018.98
439.11	5744.55
439.32	6088.61
439.53	5932.97
439.74	5998.50
439.95	6115.23
440.16	6039.46
440.37	6193.06
440.57	5975.97
440.78	6070.18
440.99	6236.06
441.20	6137.76
441.41	6137.76
441.62	6119.33
441.83	6033.32
442.04	6188.96
442.25	6158.24
442.46	6115.23
442.67	6287.26
442.88	6846.36
443.09	6166.43
443.30	6240.16
443.51	6250.40
443.72	6627.23
443.93	6320.03
444.14	6655.90
444.35	6270.88
444.56	6381.47
444.77	6463.39
444.98	6399.90
445.19	6625.18
445.40	6379.42
445.61	6623.13
445.81	6633.37
446.02	6676.38
446.23	6569.88
446.44	6324.13
446.65	6735.77
446.86	6649.75
447.07	6705.05
447.28	6872.98
447.49	6807.45
447.70	6711.19
447.91	6946.71
448.12	6797.21
448.33	6852.50
448.54	6864.79
448.74	6731.67
448.95	7051.16
449.16	6887.32
449.37	7245.71
449.58	6891.41
449.79	7098.26
450.00	6918.04
450.21	7016.34
450.42	7061.40
450.63	7161.75
450.84	6979.48
451.05	7077.78
451.25	7018.39
451.46	6952.85
451.67	7208.85
451.88	7391.12
452.09	7227.28
452.30	7163.79
452.51	7206.80
452.72	7491.47
452.93	7714.70
453.13	7204.75
453.34	7339.92
453.55	7436.17
453.76	7358.35
453.97	7702.41
454.18	7573.39
454.39	7686.03
454.60	7403.41
454.81	7661.45
455.01	7686.03
455.22	7411.60
455.43	7686.03
455.64	7751.56
455.85	7888.78
456.06	7909.26
456.27	7835.53
456.48	7878.54
456.68	7839.62
456.89	7913.35
457.10	8144.77
457.31	8120.20
457.52	7888.78
457.73	8013.70
457.94	8318.85
458.14	7970.69
458.35	8585.08
458.56	8220.55
458.77	8140.68
458.98	8398.72
459.19	8253.31
459.39	8533.89
459.60	8431.49
459.81	8468.35
460.02	8767.35
460.23	8386.43
460.44	8624.00
460.65	8683.39
460.85	8832.89
461.06	8828.79
461.27	8730.49
461.48	9031.54
461.69	9076.60
461.89	8736.63
462.10	9066.36
462.31	8814.46
462.52	8859.51
462.73	8906.62
462.94	9375.60
463.14	9135.99
463.35	9166.71
463.56	9426.80
463.77	9537.39
463.98	9262.96
464.18	9367.41
464.39	9367.41
464.60	9531.25
464.81	9609.07
465.02	9711.47
465.23	9762.67
465.43	9750.38
465.64	10026.86
465.85	9846.63
466.06	9832.30
466.27	10157.92
466.47	10250.08
466.68	10129.25
466.89	9918.31
467.10	10286.95
467.30	10112.87
467.51	10391.39
467.72	10651.49
467.93	10274.66
468.14	10301.28
468.34	10694.49
468.55	10565.47
468.76	10807.13
468.97	10637.15
469.17	10719.07
469.38	10966.87
469.59	10925.91
469.80	10981.21
470.01	10936.15
470.21	11130.71
470.42	11261.78
470.63	11183.96
470.84	11296.60
471.04	11544.40
471.25	11421.52
471.46	11267.92
471.67	11800.40
471.87	11620.17
472.08	11777.87
472.29	11910.99
472.50	11470.67
472.70	11876.17
472.91	11896.65
473.12	12005.19
473.33	12097.35
473.53	12339.01
473.74	12207.94
473.95	12433.22
474.16	12578.62
474.36	12455.75
474.57	12883.77
474.78	13113.14
474.99	12820.28
475.19	12793.66
475.40	13096.76
475.61	13207.35
475.81	13475.63
476.02	13743.92
476.23	13283.13
476.44	13625.14
476.64	13780.78
476.85	13827.88
477.06	13786.93
477.27	14020.39
477.47	14008.11
477.68	14094.12
477.89	14204.71
478.09	14444.32
478.30	14532.39
478.51	14391.08
478.71	14546.72
478.92	14819.10
479.13	14884.64
479.34	14886.68
479.54	15025.95
479.75	15058.71
479.96	15036.19
480.16	15200.02
480.37	15230.74
480.58	15591.19
480.78	15599.38
480.99	15582.99
481.20	15611.67
481.41	16017.16
481.61	16000.78
481.82	16217.86
482.03	16066.31
482.23	16051.98
482.44	16580.36
482.65	16758.53
482.85	16674.56
483.06	16625.41
483.27	16658.18
483.47	16838.40
483.68	16774.91
483.89	17065.72
484.09	17135.35
484.30	17272.57
484.51	17417.97
484.71	17430.26
484.92	17514.23
485.13	17667.83
485.33	17739.51
485.54	17719.03
485.75	18071.28
485.95	17987.31
486.16	17944.30
486.37	18444.01
486.57	18239.21
486.78	18349.80
486.98	18564.84
487.19	18495.21
487.40	18753.25
487.60	18900.70
487.81	18992.86
488.02	18810.59
488.22	18675.43
488.43	19152.60
488.64	19236.57
488.84	19437.27
489.05	19459.80
489.25	19394.26
489.46	19541.72
489.67	19345.11
489.87	19955.41
490.08	19924.69
490.29	19799.76
490.49	20307.66
490.70	19994.32
490.90	20350.67
491.11	20197.07
491.32	20287.18
491.52	20518.60
491.73	20532.93
491.94	20479.69
492.14	20516.55
492.35	20836.03
492.55	21124.80
492.76	20686.53
492.97	21094.08
493.17	21223.10
493.38	21202.62
493.58	21241.53
493.79	21487.29
494.00	21442.23
494.20	21616.31
494.41	21896.88
494.61	21604.02
494.82	21874.35
495.02	21614.26
495.23	22105.77
495.44	22050.48
495.64	22339.24
495.85	22159.02
496.05	22181.55
496.26	22253.23
496.47	22769.32
496.67	22478.50
496.88	22597.29
497.08	22539.94
497.29	22771.36
497.49	22656.68
497.70	22970.02
497.91	22843.04
498.11	23058.08
498.32	22955.68
498.52	23271.07
498.73	23586.46
498.93	23461.53
499.14	23649.94
499.34	23420.57
499.55	23586.46
499.76	23381.66
499.96	23869.08
500.17	23522.97
500.37	23977.62
500.58	23690.90
500.78	23897.75
500.99	23785.11
501.19	24303.25
501.40	24120.98
501.60	24184.46
501.81	24284.81
502.02	24323.72
502.22	24161.94
502.43	24327.82
502.63	24497.80
502.84	24651.40
503.04	24700.55
503.25	24612.49
503.45	24702.60
503.66	24665.74
503.86	24696.46
504.07	24944.26
504.27	24725.13
504.48	25460.35
504.68	24934.02
504.89	25374.33
505.09	25159.30
505.30	25423.48
505.50	25314.94
505.71	25151.10
505.91	25677.43
506.12	25259.65
506.32	25282.17
506.53	25806.45
506.73	25550.46
506.94	25857.65
507.14	25575.03
507.35	25339.52
507.55	25626.23
507.76	25951.86
507.96	25763.45
508.17	25652.86
508.37	26164.85
508.58	25837.17
508.78	26367.60
508.99	26449.52
509.19	26375.79
509.40	26375.79
509.60	26322.54
509.81	26297.97
510.01	26302.06
510.22	26662.51
510.42	26291.82
510.63	26662.51
510.83	26322.54
511.04	26609.26
511.24	26885.73
511.44	26543.72
511.65	26900.07
511.85	26615.40
512.06	26822.25
512.26	26863.21
512.47	27248.22
512.67	26754.66
512.88	26953.32
513.08	26596.97
513.29	27299.42
513.49	27119.20
513.69	27094.63
513.90	27266.66
514.10	27291.23
514.31	27457.12
514.51	27592.28
514.72	27147.87
514.92	27596.38
515.13	27414.11
515.33	27614.81
515.53	27502.17
515.74	27547.23
515.94	28012.12
516.15	27969.11
516.35	27219.55
516.56	27782.74
516.76	28059.22
516.96	27922.01
517.17	27934.29
517.37	28171.86
517.58	28317.26
517.78	28173.91
517.99	28560.97
518.19	28716.62
518.39	28612.17
518.60	28671.56
518.80	28329.55
519.01	29054.53
519.21	28812.87
519.41	29351.49
519.62	28876.36
519.82	28814.92
520.03	29175.36
520.23	29204.03
520.43	28886.60
520.64	29507.13
520.84	29619.77
521.05	29351.49
521.25	29740.60
521.45	29484.61
521.66	29875.77
521.86	29689.40
522.07	29431.36
522.27	29818.42
522.47	29890.10
522.68	30017.08
522.88	29728.31
523.08	29980.21
523.29	30064.18
523.49	30395.95
523.70	30152.24
523.90	30555.69
524.10	30109.24
524.31	30733.87
524.51	30326.32
524.71	30963.24
524.92	30840.36
525.12	30821.93
525.33	31049.25
525.53	31155.75
525.73	31254.05
525.94	31284.77
526.14	31497.76
526.34	31356.45
526.55	31262.24
526.75	31659.55
526.95	31862.30
527.16	31712.80
527.36	31821.34
527.56	31784.48
527.77	32286.23
527.97	32368.15
528.17	32241.17
528.38	32405.01
528.58	32400.91
528.78	32650.77
528.99	32286.23
529.19	32697.87
529.39	32970.25
529.60	33103.37
529.80	33093.13
530.00	33005.06
530.21	33390.08
530.41	33224.20
530.61	33496.58
530.82	33525.25
531.02	33488.38
531.22	33771.00
531.43	33738.24
531.63	34119.16
531.83	34207.22
532.04	34254.33
532.24	34072.06
532.44	34756.08
532.64	34532.85
532.85	34606.58
533.05	34307.57
533.25	34778.61
533.46	34792.94
533.66	35306.98
533.86	35290.60
534.07	35575.27
534.27	35192.30
534.47	35483.11
534.67	35681.76
534.88	35249.64
535.08	35569.12
535.28	36027.87
535.49	36066.78
535.69	36177.37
535.89	36578.77
536.09	36247.00
536.30	36566.48
536.50	36472.28
536.70	36892.11
536.91	36797.90
537.11	36713.94
537.31	36711.89
537.51	37014.99
537.72	37477.83
537.92	37357.00
538.12	37572.03
538.32	37189.06
538.53	37580.23
538.73	37062.09
538.93	37774.78
539.13	37957.05
539.34	37940.67
539.54	37414.34
539.74	37957.05
539.94	38014.40
540.15	38004.16
540.35	38286.78
540.55	38428.09
540.75	38423.99
540.96	38720.95
541.16	38415.80
541.36	38593.97
541.56	38624.69
541.77	38753.71
541.97	38786.48
542.17	39189.93
542.37	39036.33
542.58	39433.64
542.78	39151.02
542.98	39382.44
543.18	39470.50
543.38	40132.00
543.59	39892.38
543.79	39744.93
543.99	39835.04
544.19	40093.08
544.40	40037.79
544.60	40242.59
544.80	39959.97
545.00	40285.59
545.20	40574.36
545.41	40258.97
545.61	40820.11
545.81	40668.56
546.01	40779.15
546.21	40510.87
546.42	40764.82
546.62	40725.91
546.82	40811.92
547.02	40957.33
547.22	41244.04
547.43	40949.14
547.63	41311.63
547.83	41260.43
548.03	41160.08
548.23	41627.01
548.44	41170.32
548.64	41438.60
548.84	41350.54
549.04	41252.23
549.24	41907.58
549.45	41909.63
549.65	41604.49
549.85	42261.88
550.05	42046.85
550.25	42153.34
550.45	42524.02
550.66	42450.30
550.86	41991.55
551.06	42347.90
551.26	41708.93
551.46	42425.72
551.66	42448.25
551.87	42534.26
552.07	42702.20
552.27	42395.00
552.47	42802.55
552.67	42569.08
552.87	42767.73
553.07	42700.15
553.28	43206.00
553.48	42843.51
553.68	42950.00
553.88	42964.34
554.08	42884.47
554.28	43091.31
554.48	42890.61
554.69	43595.11
554.89	43257.20
555.09	43070.83
555.29	43046.26
555.49	43289.96
555.69	43353.45
555.89	43261.29
556.10	43826.53
556.30	43384.17
556.50	43832.68
556.70	43812.20
556.90	43701.61
557.10	43756.90
557.30	43445.61
557.50	43894.11
557.70	43988.32
557.91	43699.56
558.11	43988.32
558.31	43986.27
558.51	43871.59
558.71	44217.69
558.91	44293.47
559.11	43879.78
559.31	44197.21
559.51	44074.34
559.72	43955.55
559.92	44197.21
560.12	44162.40
560.32	44184.93
560.52	44137.82
560.72	44479.83
560.92	44092.77
561.12	44490.07
561.32	44850.52
561.52	44293.47
561.72	44756.31
561.93	44516.70
562.13	44234.08
562.33	44311.90
562.53	44662.10
562.73	44528.98
562.93	44506.46
563.13	44600.66
563.33	44524.89
563.53	44995.92
563.73	44707.16
563.93	44756.31
564.13	45200.72
564.33	45090.13
564.53	44412.25
564.74	45198.67
564.94	44901.71
565.14	44963.15
565.34	44784.98
565.54	45307.21
565.74	45319.50
565.94	45151.57
566.14	45112.66
566.34	44981.59
566.54	45534.54
566.74	44737.88
566.94	45251.92
567.14	45006.16
567.34	45235.53
567.54	45366.60
567.74	45282.64
567.94	45057.36
568.14	45397.32
568.34	45362.51
568.54	45057.36
568.74	45305.16
568.94	45409.61
569.14	45725.00
569.34	45581.64
569.54	45720.90
569.75	45411.66
569.95	45321.55
570.15	45780.29
570.35	45679.94
570.55	45548.87
570.75	45909.32
570.95	45315.40
571.15	45786.44
571.35	45622.60
571.55	45913.41
571.75	45673.80
571.95	45731.14
572.15	45679.94
572.35	46050.63
572.55	45643.08
572.75	45757.77
572.95	45899.08
573.15	45786.44
573.35	45671.75
573.55	46183.74
573.75	46013.76
573.95	46073.15
574.15	45798.73
574.35	46036.29
574.55	45954.37
574.75	46177.60
574.95	45946.18
575.15	46077.25
575.34	46347.58
575.54	46515.51
575.74	46497.08
575.94	46474.55
576.14	46296.38
576.34	46941.49
576.54	46863.67
576.74	46927.16
576.94	46544.19
577.14	46996.79
577.34	46804.28
577.54	46402.88
577.74	46765.37
577.94	46830.90
578.14	46609.72
578.34	47029.55
578.54	46470.46
578.74	46863.67
578.94	46970.16
579.14	46859.57
579.34	46798.13
579.54	47174.96
579.74	47127.86
579.94	47088.95
580.13	47428.91
580.33	46933.30
580.53	47258.93
580.73	47371.57
580.93	47322.41
581.13	47506.73
581.33	47594.79
581.53	47605.03
581.73	47496.49
581.93	48084.26
582.13	47729.96
582.33	47568.17
582.53	47435.05
582.73	47893.80
582.92	47799.59
583.12	47627.56
583.32	47650.09
583.52	47711.53
583.72	48153.89
583.92	47732.01
584.12	47947.04
584.32	48129.31
584.52	48342.30
584.72	48110.88
584.92	48364.83
585.11	48549.15
585.31	48436.51
585.51	48276.77
585.71	48227.62
585.91	48919.83
586.11	48207.14
586.31	48194.85
586.51	48170.27
586.71	48465.18
586.91	48508.19
587.10	48565.53
587.30	48569.63
587.50	48325.92
587.70	48735.51
587.90	48848.15
588.10	48860.44
588.30	48645.40
588.50	48678.17
588.69	48944.41
588.89	48719.13
589.09	49186.07
589.29	48932.12
589.49	49460.49
589.69	48563.48
589.89	49034.52
590.08	49100.05
590.28	49337.62
590.48	48692.50
590.68	49579.28
590.88	49153.30
591.08	49286.42
591.28	48823.58
591.47	49880.33
591.67	49077.52
591.87	49607.95
592.07	49544.46
592.27	49472.78
592.47	49319.18
592.67	49546.51
592.86	49417.49
593.06	49653.00
593.26	49487.12
593.46	49470.73
593.66	49872.14
593.86	49896.71
594.05	49786.12
594.25	50271.49
594.45	49935.62
594.65	49796.36
594.85	49894.66
595.05	50490.62
595.24	50504.96
595.44	50130.18
595.64	50347.26
595.84	50263.30
596.04	50492.67
596.23	50461.95
596.43	51035.38
596.63	50425.09
596.83	50531.58
597.03	50851.06
597.22	50558.20
597.42	50824.44
597.62	51041.53
597.82	51078.39
598.02	50883.83
598.21	51229.94
598.41	50435.33
598.61	51031.29
598.81	51315.95
599.01	51045.62
599.20	50908.41
599.40	50916.60
599.60	51426.54
599.80	51610.86
600.00	51602.67
600.19	51780.84
600.39	51199.22
600.59	51758.31
600.79	51922.15
600.98	51922.15
601.18	51985.64
601.38	51950.82
601.58	51999.97
601.78	52219.11
601.97	51541.23
602.17	52833.50
602.37	52460.77
602.57	52264.16
602.76	52591.84
602.96	52161.76
603.16	52612.32
603.36	52536.54
603.55	52917.46
603.75	52671.71
603.95	53245.14
604.15	52894.94
604.34	52729.05
604.54	53136.60
604.74	52974.81
604.94	52819.16
605.13	53056.73
605.33	53152.98
605.53	52569.31
605.73	53337.30
605.92	53132.50
606.12	53873.87
606.32	53906.63
606.52	53411.02
606.71	53443.79
606.91	53699.79
607.11	53583.05
607.30	53529.81
607.50	53263.57
607.70	53996.74
607.90	53998.79
608.09	53574.86
608.29	53830.86
608.49	53857.48
608.68	53869.77
608.88	54564.03
609.08	54070.47
609.28	54281.41
609.47	53671.12
609.67	54760.64
609.87	54363.33
610.06	54793.40
610.26	54465.73
610.46	54482.11
610.66	54297.80
610.85	54772.92
611.05	54289.60
611.25	54719.68
611.44	54248.64
611.64	54480.06
611.84	54465.73
612.03	54502.59
612.23	54451.39
612.43	55262.39
612.62	54672.57
612.82	55133.37
613.02	54856.89
613.21	55039.16
613.41	54774.97
613.61	55291.06
613.80	54670.53
614.00	55313.59
614.20	55086.26
614.39	55262.39
614.59	55364.79
614.79	55514.29
614.98	54826.17
615.18	55452.85
615.38	55235.77
615.57	55329.97
615.77	55538.86
615.97	55536.82
616.16	54901.95
616.36	55069.88
616.56	55436.47
616.75	55749.81
616.95	55463.09
617.15	55319.73
617.34	55491.76
617.54	55708.85
617.74	55665.84
617.93	55219.38
618.13	55403.70
618.32	55645.36
618.52	55487.67
618.72	55280.82
618.91	55362.74
619.11	55260.34
619.31	55534.77
619.50	55106.74
619.70	55790.76
619.90	55502.00
620.09	55858.35
620.29	55927.98
620.48	55762.09
620.68	55936.17
620.88	55667.89
621.07	55985.32
621.27	55504.05
621.46	55477.43
621.66	56044.71
621.86	55866.54
622.05	55932.07
622.25	56265.89
622.44	55966.89
622.64	55696.56
622.84	56124.58
623.03	56018.09
623.23	56136.87
623.42	56132.78
623.62	56028.33
623.82	55860.40
624.01	56079.53
624.21	56423.59
624.40	56030.38
624.60	56222.89
624.80	56003.75
624.99	55911.59
625.19	55639.22
625.38	55940.27
625.58	56136.87
625.77	56032.42
625.97	56255.65
626.17	56229.03
626.36	56108.20
626.56	56419.49
626.75	55710.89
626.95	56509.60
627.14	56128.68
627.34	56564.90
627.54	56065.19
627.73	56325.28
627.93	56435.87
628.12	56128.68
628.32	56313.00
628.51	56261.80
628.71	56564.90
628.90	56745.12
629.10	56433.83
629.30	56874.14
629.49	56687.78
629.69	56511.65
629.88	56054.95
630.08	56456.35
630.27	56575.14
630.47	56796.32
630.66	56644.77
630.86	56462.50
631.05	55964.84
631.25	56786.08
631.44	56669.34
631.64	56411.30
631.84	56685.73
632.03	56972.44
632.23	56990.87
632.42	57167.00
632.62	56863.90
632.81	56439.97
633.01	56878.24
633.20	56880.28
633.40	56861.85
633.59	57007.26
633.79	56374.44
633.98	56843.42
634.18	56882.33
634.37	57265.30
634.57	56630.43
634.76	57449.62
634.96	57259.16
635.15	57185.43
635.35	57201.82
635.54	56710.30
635.74	57445.52
635.93	56833.18
636.13	57175.19
636.32	57439.38
636.52	56939.68
636.71	57443.48
636.91	57443.48
637.10	57183.38
637.30	57011.35
637.49	56794.27
637.69	57013.40
637.88	57427.09
638.08	57392.28
638.27	57427.09
638.46	56855.71
638.66	56943.77
638.85	57255.06
639.05	57406.61
639.24	57195.67
639.44	57193.62
639.63	57029.79
639.83	57392.28
640.02	57277.59
640.22	57160.86
640.41	57638.03
640.61	57236.63
640.80	57234.58
640.99	57279.64
641.19	57904.27
641.38	57781.39
641.58	57523.35
641.77	57652.37
641.97	57562.26
642.16	57730.19
642.36	57560.21
642.55	58094.73
642.74	57664.66
642.94	58168.46
643.13	57638.03
643.33	57580.69
643.52	57832.59
643.72	58162.31
643.91	57887.88
644.10	57773.20
644.30	57586.83
644.49	57660.56
644.69	58262.66
644.88	57574.55
645.08	57787.53
645.27	57656.46
645.46	57513.11
645.66	57584.79
645.85	57318.55
646.05	57963.66
646.24	57851.02
646.43	57582.74
646.63	58311.81
646.82	58098.83
647.02	57857.17
647.21	57996.43
647.40	58045.58
647.60	58086.54
647.79	58410.12
647.99	58420.36
648.18	57947.28
648.37	58401.92
648.57	58023.05
648.76	58135.69
648.96	57853.07
649.15	58277.00
649.34	58305.67
649.54	58129.54
649.73	58000.52
649.92	58373.25
650.12	57799.82
650.31	58737.79
650.51	57857.17
650.70	58416.26
650.89	57836.69
651.09	58772.61
651.28	58553.47
651.47	58500.23
651.67	58250.38
651.86	58782.85
652.06	57881.74
652.25	58469.51
652.44	58082.44
652.64	58176.65
652.83	57832.59
653.02	57912.46
653.22	58328.20
653.41	57930.89
653.60	57146.52
653.80	57488.53
653.99	58453.12
654.18	57943.18
654.38	58152.07
654.57	57783.44
654.76	58604.67
654.96	57943.18
655.15	58068.11
655.34	58496.13
655.54	57980.04
655.73	58131.59
655.92	58102.92
656.12	58018.95
656.31	58229.90
656.50	58199.18
656.70	58164.36
656.89	58127.50
657.08	58430.60
657.28	58346.63
657.47	57769.10
657.66	58395.78
657.86	57746.57
658.05	58422.40
658.24	58238.09
658.43	57836.69
658.63	57891.98
658.82	58137.74
659.01	58227.85
659.21	58111.11
659.40	58340.49
659.59	57898.12
659.79	58205.32
659.98	58500.23
660.17	57986.19
660.36	58145.93
660.56	57955.47
660.75	58358.92
660.94	58354.82
661.14	58094.73
661.33	57513.11
661.52	57838.73
661.71	58014.86
661.91	57797.77
662.10	57547.92
662.29	58352.77
662.49	58086.54
662.68	57762.96
662.87	58035.34
663.06	58315.91
663.26	57848.97
663.45	58217.61
663.64	57980.04
663.83	58584.19
664.03	58348.68
664.22	57881.74
664.41	58342.53
664.60	57906.32
664.80	58340.49
664.99	57660.56
665.18	57754.77
665.37	57926.80
665.57	57930.89
665.76	58303.62
665.95	57861.26
666.14	57898.12
666.34	57709.71
666.53	58102.92
666.72	57355.41
666.91	57414.80
667.11	57048.22
667.30	57791.63
667.49	57687.18
667.68	57683.09
667.87	57388.18
668.07	57828.49
668.26	57652.37
668.45	57918.60
668.64	57154.71
668.84	57939.08
669.03	57775.25
669.22	57654.42
669.41	57552.02
669.60	57308.31
669.80	57253.01
669.99	57560.21
670.18	57640.08
670.37	57359.51
670.57	57668.75
670.76	57531.54
670.95	57662.61
671.14	57441.43
671.33	57490.58
671.53	57674.90
671.72	57597.07
671.91	57037.98
672.10	57466.00
672.29	56923.29
672.48	57423.00
672.68	57658.51
672.87	57308.31
673.06	57302.17
673.25	56906.91
673.44	57226.39
673.64	57212.06
673.83	57025.69
674.02	56868.00
674.21	56452.26
674.40	57046.17
674.59	56683.68
674.79	56620.19
674.98	56425.64
675.17	56743.07
675.36	56425.64
675.55	56933.53
675.74	56173.73
675.94	56360.10
676.13	56614.05
676.32	56964.25
676.51	57056.41
676.70	56833.18
676.89	56415.40
677.08	56923.29
677.28	56833.18
677.47	56988.83
677.66	56868.00
677.85	56673.44
678.04	56659.10
678.23	57037.98
678.42	57015.45
678.62	56386.72
678.81	56747.17
679.00	56638.62
679.19	57050.27
679.38	56358.05
679.57	56050.86
679.76	56366.24
679.96	56626.34
680.15	56353.96
680.34	56562.85
680.53	56374.44
680.72	56718.49
680.91	56331.43
681.10	56136.87
681.29	56673.44
681.48	56222.89
681.68	56276.13
681.87	55999.66
682.06	56259.75
682.25	55932.07
682.44	56208.55
682.63	56421.54
682.82	56063.14
683.01	55702.70
683.20	55467.19
683.39	55786.67
683.59	55782.57
683.78	55469.23
683.97	55534.77
684.16	55227.57
684.35	55516.34
684.54	55493.81
684.73	55555.25
684.92	55657.65
685.11	55766.19
685.30	55706.80
685.49	55596.21
685.69	55309.49
685.88	55606.45
686.07	55194.81
686.26	55172.28
686.45	55452.85
686.64	55549.10
686.83	55526.58
687.02	55119.03
687.21	55583.92
687.40	55538.86
687.59	55393.46
687.78	55022.78
687.97	55604.40
688.16	55182.52
688.35	54932.67
688.54	55194.81
688.74	55000.25
688.93	55055.54
689.12	55135.41
689.31	55491.76
689.50	55334.07
689.69	55010.49
689.88	54435.01
690.07	54996.15
690.26	54889.66
690.45	55348.40
690.64	54906.04
690.83	54695.10
691.02	54326.47
691.21	54629.57
691.40	54643.90
691.59	54478.02
691.78	54269.12
691.97	54770.88
692.16	54731.96
692.35	54830.27
692.54	54903.99
692.73	54920.38
692.92	54828.22
693.11	54580.42
693.30	54435.01
693.49	54312.13
693.68	54394.05
693.87	54490.30
694.06	54000.84
694.25	54275.27
694.44	53916.87
694.63	54654.14
694.82	54205.64
695.01	53976.26
695.20	54056.14
695.39	54267.08
695.58	54017.22
695.77	53992.65
695.96	54035.66
696.15	54047.94
696.34	53646.54
696.53	54101.19
696.72	54189.25
696.91	54148.29
697.10	54154.44
697.29	54248.64
697.48	54011.08
697.67	53359.83
697.86	53658.83
698.05	53310.67
698.24	53955.78
698.43	53429.46
698.62	53859.53
698.81	53589.20
699.00	53861.58
699.19	53583.05
699.38	53959.88
699.57	53550.29
699.76	54408.39
699.95	53605.58
700.14	53249.24
700.32	53552.33
700.51	53347.54
700.70	53650.64
700.89	53466.32
701.08	53822.67
701.27	53120.21
701.46	53191.89
701.65	52714.72
701.84	53372.11
702.03	53312.72
702.22	52933.85
702.41	53249.24
702.60	53617.87
702.79	53478.61
702.98	53300.43
703.17	52796.63
703.35	53198.04
703.54	53112.02
703.73	52987.10
703.92	52552.93
704.11	53136.60
704.30	52438.24
704.49	52552.93
704.68	52843.74
704.87	53021.91
705.06	53114.07
705.25	52813.02
705.43	52589.79
705.62	52813.02
705.81	52358.37
706.00	52929.75
706.19	52448.48
706.38	52499.68
706.57	52597.98
706.76	52495.58
706.95	52315.36
707.14	52358.37
707.32	51797.23
707.51	52303.07
707.70	52212.96
707.89	52608.22
708.08	52024.55
708.27	52702.43
708.46	52483.30
708.65	52323.55
708.84	52215.01
709.02	52540.64
709.21	52329.70
709.40	52024.55
709.59	52399.33
709.78	52065.51
709.97	52423.90
710.16	52153.57
710.34	52167.91
710.53	52417.76
710.72	51905.77
710.91	52061.41
711.10	52280.55
711.29	52110.56
711.48	52079.85
711.66	52147.43
711.85	51895.53
712.04	51625.20
712.23	51877.10
712.42	51877.10
712.61	52249.83
712.80	51703.02
712.98	51713.26
713.17	51434.74
713.36	51672.30
713.55	51789.03
713.74	51963.11
713.93	51989.73
714.11	51846.38
714.30	51344.62
714.49	51285.23
714.68	51899.62
714.87	51690.73
715.06	51555.57
715.24	51352.82
715.43	51387.63
715.62	51383.54
715.81	51043.57
716.00	51537.13
716.18	51119.35
716.37	50885.88
716.56	51184.88
716.75	51397.87
716.94	51266.80
717.12	50584.83
717.31	51504.37
717.50	51223.79
717.69	51168.50
717.88	50838.78
718.06	51100.92
718.25	51422.45
718.44	51041.53
718.63	50881.78
718.82	50914.55
719.00	50828.54
719.19	50830.58
719.38	50867.45
719.57	50486.53
719.76	50070.79
719.94	50332.93
720.13	50656.51
720.32	50873.59
720.51	50787.58
720.69	49949.96
720.88	49929.48
721.07	50570.49
721.26	49902.85
721.44	50320.64
721.63	49861.90
721.82	50038.02
722.01	50060.55
722.20	50484.48
722.38	49857.80
722.57	49554.70
722.76	49896.71
722.95	49478.92
723.13	49446.16
723.32	49796.36
723.51	49323.28
723.70	49050.90
723.88	49855.75
724.07	49132.82
724.26	49696.01
724.44	49028.37
724.63	49579.28
724.82	49743.11
725.01	49337.62
725.19	49399.05
725.38	49415.44
725.57	49247.50
725.76	49683.72
725.94	48753.94
726.13	49141.01
726.32	49161.49
726.51	49300.75
726.69	49468.69
726.88	49530.12
727.07	49128.72
727.25	48655.64
727.44	49263.89
727.63	49059.09
727.82	49157.39
728.00	49849.61
728.19	49001.75
728.38	49349.90
728.56	48936.21
728.75	49108.24
728.94	49235.22
729.12	48842.01
729.31	49171.73
729.50	49206.55
729.69	49288.46
729.87	49153.30
730.06	49206.55
730.25	49022.23
730.43	49095.95
730.62	49014.04
730.81	49202.45
730.99	49120.53
731.18	49186.07
731.37	49134.87
731.55	49384.72
731.74	49497.36
731.93	49442.06
732.11	49607.95
732.30	48895.25
732.49	49192.21
732.67	49306.90
732.86	49325.33
733.05	49290.51
733.23	49179.92
733.42	49038.61
733.61	49161.49
733.79	48874.77
733.98	49349.90
734.17	49263.89
734.35	48811.29
734.54	48809.24
734.73	49362.19
734.91	49384.72
735.10	49288.46
735.29	49399.05
735.47	48944.41
735.66	49261.84
735.84	49126.67
736.03	48500.00
736.22	49636.62
736.40	49286.42
736.59	49091.86
736.78	48979.22
736.96	48860.44
737.15	48772.38
737.33	49038.61
737.52	48993.56
737.71	48755.99
737.89	49042.71
738.08	48465.18
738.27	48633.11
738.45	48911.64
738.64	48547.10
738.82	49028.37
739.01	48272.67
739.20	48903.45
739.38	48872.73
739.57	49437.97
739.75	49046.80
739.94	49157.39
740.13	48907.54
740.31	48319.77
740.50	48524.57
740.68	48690.46
740.87	48942.36
741.06	48831.77
741.24	48090.40
741.43	48655.64
741.61	48577.82
741.80	48493.85
741.99	48497.95
742.17	48094.50
742.36	48653.59
742.54	48387.36
742.73	48485.66
742.91	48579.87
743.10	48196.90
743.29	48606.49
743.47	48483.61
743.66	48239.90
743.84	48405.79
744.03	48569.63
744.21	48258.34
744.40	48645.40
744.59	48362.78
744.77	48207.14
744.96	48272.67
745.14	48551.20
745.33	48362.78
745.51	48416.03
745.70	48403.74
745.88	48041.25
746.07	48057.63
746.26	47867.17
746.44	48090.40
746.63	47693.10
746.81	48223.52
747.00	48012.58
747.18	48071.97
747.37	48125.22
747.55	47912.23
747.74	48399.65
747.92	47611.18
748.11	47537.45
748.29	47867.17
748.48	48108.83
748.66	47635.75
748.85	47854.89
749.03	48168.22
749.22	47502.64
749.41	47723.82
749.59	48137.51
749.78	47289.65
749.96	47127.86
750.15	47160.62
750.33	47574.31
750.52	47361.33
750.70	47627.56
750.89	47402.28
751.07	47291.69
751.26	47191.34
751.44	46957.88
751.63	47007.03
751.81	47054.13
752.00	47154.48
752.18	47441.20
752.37	46927.16
752.55	46904.63
752.74	46908.72
752.92	46912.82
753.10	46699.83
753.29	46744.89
753.47	46740.79
753.66	46748.98
753.84	47334.70
754.03	46675.26
754.21	46521.66
754.40	46863.67
754.58	46245.18
754.77	46638.39
754.95	46333.24
755.14	46574.91
755.32	46316.86
755.51	46247.23
755.69	46339.39
755.88	46497.08
756.06	46462.27
756.24	46253.37
756.43	46191.94
756.61	46212.41
756.80	46185.79
756.98	46011.71
757.17	46083.39
757.35	46159.17
757.54	46484.79
757.72	46343.48
757.90	45995.33
758.09	46236.99
758.27	46101.82
758.46	45860.16
758.64	45913.41
758.83	45741.38
759.01	46019.91
759.19	46009.67
759.38	45888.84
759.56	46069.06
759.75	45872.45
759.93	45737.29
760.12	45817.16
760.30	45606.22
760.48	45673.80
760.67	45530.44
760.85	45890.88
761.04	45919.56
761.22	45632.84
761.40	45630.79
761.59	45481.29
761.77	45219.15
761.96	45157.71
762.14	45372.75
762.32	45333.84
762.51	45059.41
762.69	45299.02
762.88	45356.36
763.06	44864.85
763.24	45307.21
763.43	45286.73
763.61	44827.99
763.80	45040.98
763.98	44711.25
764.16	45106.51
764.35	44692.82
764.53	44293.47
764.72	44563.80
764.90	44721.49
765.08	44873.04
765.27	44729.69
765.45	44389.72
765.63	44307.80
765.82	44692.82
766.00	44133.73
766.18	44045.66
766.37	44465.50
766.55	44418.39
766.74	44455.26
766.92	44135.77
767.10	44113.25
767.29	44039.52
767.47	43578.73
767.65	43986.27
767.84	43494.76
768.02	44166.49
768.20	43646.31
768.39	44186.97
768.57	43988.32
768.75	43865.44
768.94	43810.15
769.12	43941.22
769.30	43517.29
769.49	43619.69
769.67	43044.21
769.85	43040.11
770.04	43285.87
770.22	43036.02
770.40	43107.69
770.59	42984.82
770.77	43408.75
770.95	43388.27
771.14	42870.13
771.32	42569.08
771.50	42519.93
771.69	42939.76
771.87	42915.19
772.05	42648.95
772.24	42515.83
772.42	42999.15
772.60	42653.05
772.78	42597.75
772.97	42274.17
773.15	42313.08
773.33	42196.35
773.52	42317.18
773.70	42081.66
773.88	42747.25
774.07	42376.57
774.25	42378.62
774.43	42972.53
774.61	42192.25
774.80	42771.83
774.98	42061.18
775.16	42368.38
775.34	42900.85
775.53	42216.83
775.71	42786.16
775.89	42405.24
776.08	42280.31
776.26	42775.92
776.44	42544.50
776.62	42587.51
776.81	42345.85
776.99	42956.14
777.17	42679.67
777.35	42534.26
777.54	42767.73
777.72	42483.06
777.90	42671.48
778.08	42855.79
778.27	42569.08
778.45	42763.64
778.63	42876.27
778.81	42165.63
779.00	43224.43
779.18	42675.57
779.36	42784.12
779.54	42628.47
779.73	42868.08
779.91	42857.84
780.09	42952.05
780.27	42913.14
780.46	42855.79
780.64	43517.29
780.82	43044.21
781.00	42939.76
781.19	43179.37
781.37	43375.98
781.55	43031.92
781.73	43511.14
781.91	43230.57
782.10	43328.87
782.28	43367.79
782.46	42782.07
782.64	43115.89
782.82	42720.63
783.01	43380.07
783.19	43480.42
783.37	43490.66
783.55	42970.48
783.74	43613.54
783.92	42659.19
784.10	43844.96
784.28	43095.41
784.46	43234.67
784.64	42964.34
784.83	43375.98
785.01	43717.99
785.19	42931.57
785.37	43177.33
785.55	43498.86
785.74	42732.92
785.92	42708.34
786.10	42990.96
786.28	43042.16
786.46	42718.58
786.64	42214.78
786.83	42866.03
787.01	43177.33
787.19	42841.46
787.37	42917.23
787.55	42913.14
787.74	42390.91
787.92	42732.92
788.10	42452.34
788.28	42093.95
788.46	42567.03
788.64	42188.16
788.82	42519.93
789.01	42405.24
789.19	42448.25
789.37	42188.16
789.55	41958.78
789.73	41973.12
789.91	41997.70
790.09	41670.02
790.28	41504.13
790.46	41618.82
790.64	42157.44
790.82	41637.25
791.00	41575.81
791.18	41334.15
791.36	41749.89
791.55	41457.03
791.73	40986.00
791.91	41014.67
792.09	41192.84
792.27	41162.12
792.45	40680.85
792.63	41082.25
792.81	40725.91
793.00	40656.28
793.18	40598.93
793.36	40746.39
793.54	40375.70
793.72	40402.33
793.90	40072.60
794.08	40187.29
794.26	40324.50
794.44	40265.11
794.62	39781.79
794.81	40007.07
794.99	40140.19
795.17	39916.96
795.35	39751.07
795.53	39937.44
795.71	39720.35
795.89	39503.27
796.07	38997.42
796.25	39204.27
796.43	39187.88
796.61	38784.43
796.80	38741.42
796.98	39120.30
797.16	38720.95
797.34	38663.60
797.52	38655.41
797.70	38575.54
797.88	38581.68
798.06	37868.99
798.24	38426.04
798.42	38516.15
798.60	38075.84
798.78	37936.57
798.96	38399.41
799.14	37905.85
799.32	37903.81
799.51	37457.35
799.69	37522.88
799.87	37608.90
800.05	37494.21
800.23	37303.75
800.41	36773.33
800.59	37021.13
800.77	37111.24
800.95	36505.04
801.13	36799.95
801.31	36691.41
801.49	36894.16
801.67	36390.36
801.85	36396.50
802.03	36068.83
802.21	36136.41
802.39	36281.81
802.57	35902.94
802.75	36140.50
802.93	36115.93
803.11	36083.16
803.29	35694.05
803.47	35605.98
803.65	35431.91
803.83	35558.88
804.01	35487.20
804.19	34932.20
804.37	35083.75
804.55	35268.07
804.73	35212.77
804.91	34856.43
805.09	35067.37
805.27	34864.62
805.45	34913.77
805.63	35106.28
805.81	34717.17
805.99	34657.78
806.17	34571.76
806.35	34821.61
806.53	34162.17
806.71	34375.16
806.89	34657.78
807.07	34276.85
807.25	34274.80
807.43	34031.10
807.61	34196.98
807.79	34108.92
807.97	33447.43
808.15	33695.23
808.33	33246.72
808.51	33789.44
808.69	33525.25
808.87	33793.53
809.05	33005.06
809.23	33201.67
809.41	33197.57
809.59	33338.88
809.77	33551.87
809.95	32853.51
810.13	33013.26
810.31	32906.76
810.49	32955.91
810.67	32763.40
810.84	32501.26
811.02	32833.04
811.20	32402.96
811.38	32534.03
811.56	32046.62
811.74	32519.70
811.92	32142.87
812.10	32462.35
812.28	32040.47
812.46	31954.46
812.64	32402.96
812.82	32044.57
813.00	32046.62
813.18	32046.62
813.36	31821.34
813.53	31718.94
813.71	31692.32
813.89	31673.88
814.07	31882.78
814.25	31483.42
814.43	31471.14
814.61	31637.02
814.79	30903.85
814.97	31118.89
815.15	30907.94
815.33	30752.30
815.50	30643.76
815.68	31135.27
815.86	31288.87
816.04	30883.37
816.22	30879.27
816.40	30633.52
816.58	30635.56
816.76	30449.20
816.94	30303.79
817.11	30651.95
817.29	30381.62
817.47	30273.07
817.65	30287.41
817.83	30522.93
818.01	30092.85
818.19	30125.62
818.37	29972.02
818.54	30000.69
818.72	29818.42
818.90	29816.38
819.08	30031.41
819.26	29740.60
819.44	29365.82
819.62	29666.88
819.80	29603.39
819.97	29578.81
820.15	29574.72
820.33	29075.01
820.51	29484.61
820.69	29242.95
820.87	29509.18
821.05	29324.86
821.22	29541.95
821.40	29060.68
821.58	29050.44
821.76	29163.08
821.94	28851.78
822.12	28880.46
822.29	28816.97
822.47	29118.02
822.65	29021.77
822.83	28640.84
823.01	28868.17
823.19	28753.48
823.36	28728.91
823.54	28472.91
823.72	28687.95
823.90	28247.63
824.08	28489.29
824.25	28216.91
824.43	28339.79
824.61	28327.50
824.79	27842.14
824.97	28186.19
825.15	28180.05
825.32	28024.40
825.50	28038.74
825.68	27870.81
825.86	28409.42
826.04	28311.12
826.21	27885.14
826.39	27835.99
826.57	27835.99
826.75	27553.37
826.93	27428.45
827.10	27678.30
827.28	27721.30
827.46	27942.49
827.64	27508.32
827.81	27440.73
827.99	27526.75
828.17	27235.94
828.35	27491.93
828.53	27516.51
828.70	27025.00
828.88	27106.91
829.06	27111.01
829.24	27299.42
829.41	27100.77
829.59	27393.63
829.77	27106.91
829.95	27018.85
830.12	26816.10
830.30	26732.14
830.48	27162.21
830.66	26908.26
830.84	26930.79
831.01	26826.34
831.19	27049.57
831.37	26588.78
831.55	26742.38
831.72	26728.04
831.90	26824.29
832.08	26576.49
832.25	26183.28
832.43	26431.08
832.61	26293.87
832.79	26103.41
832.96	25929.33
833.14	26461.80
833.32	26617.45
833.50	26513.00
833.67	26087.03
833.85	26218.10
834.03	25886.32
834.20	26121.84
834.38	25953.91
834.56	25984.63
834.74	25800.31
834.91	26070.64
835.09	25947.76
835.27	25607.80
835.44	25568.89
835.62	25460.35
835.80	25532.03
835.98	25564.79
836.15	25364.09
836.33	25413.24
836.51	25831.03
836.68	25312.89
836.86	25765.49
837.04	25419.39
837.21	25368.19
837.39	25353.85
837.57	25697.91
837.75	25603.71
837.92	25149.06
838.10	24974.98
838.28	24903.30
838.45	25302.65
838.63	25169.54
838.81	25081.47
838.98	25130.62
839.16	25101.95
839.34	24919.68
839.51	24782.47
839.69	24737.41
839.87	24757.89
840.04	24823.43
840.22	24919.68
840.40	24604.30
840.57	24610.44
840.75	24915.59
840.93	24192.65
841.10	24731.27
841.28	24759.94
841.46	24637.06
841.63	24854.15
841.81	24274.57
841.98	24614.54
842.16	24462.99
842.34	24366.73
842.51	24243.85
842.69	24497.80
842.87	24268.43
843.04	24383.12
843.22	24006.29
843.40	24047.25
843.57	24100.50
843.75	24293.01
843.92	24026.77
844.10	24141.46
844.28	24143.50
844.45	24252.05
844.63	23998.10
844.81	24030.87
844.98	24092.30
845.16	23957.14
845.33	23742.10
845.51	23885.46
845.69	24010.39
845.86	23811.73
846.04	23967.38
846.21	23754.39
846.39	23664.28
846.57	23471.77
846.74	23563.93
846.92	23436.95
847.09	23635.61
847.27	23123.62
847.45	23559.83
847.62	23533.21
847.80	23625.37
847.97	23416.47
848.15	23320.22
848.32	23119.52
848.50	23418.52
848.68	23094.94
848.85	23236.25
849.03	23107.23
849.20	23144.09
849.38	23142.05
849.56	23086.75
849.73	23021.22
849.91	22959.78
850.08	23107.23
850.26	23135.90
850.43	22922.91
850.61	22845.09
850.78	22703.78
850.96	22994.59
851.14	22752.93
851.31	22910.63
851.49	22816.42
851.66	22970.02
851.84	22529.70
852.01	22693.54
852.19	22580.90
852.36	22642.34
852.54	22521.51
852.71	22621.86
852.89	22468.27
853.07	22691.49
853.24	22539.94
853.42	22412.97
853.59	22472.36
853.77	22716.07
853.94	22501.03
854.12	22912.67
854.29	22326.96
854.47	22382.25
854.64	22283.95
854.82	22154.93
854.99	22171.31
855.17	22304.43
855.34	22214.32
855.52	22101.68
855.69	22253.23
855.87	22087.34
856.04	22011.57
856.22	21919.41
856.39	21919.41
856.57	21878.45
856.74	21771.96
856.92	21974.70
857.09	21876.40
857.27	21685.94
857.44	21921.46
857.62	21855.92
857.79	21937.84
857.97	21778.10
858.14	21589.69
858.32	21694.13
858.49	21792.44
858.67	21591.73
858.84	21608.12
859.02	21796.53
859.19	21282.49
859.37	21497.53
859.54	21491.38
859.72	21743.28
859.89	21624.50
860.06	21358.27
860.24	21331.64
860.41	21710.52
860.59	21198.52
860.76	21149.37
860.94	20958.91
861.11	21270.20
861.29	21147.33
861.46	20833.99
861.64	20893.38
861.81	21233.34
861.98	21153.47
862.16	21051.07
862.33	20920.00
862.51	20733.64
862.68	21223.10
862.86	20680.39
863.03	21083.84
863.21	20932.29
863.38	20993.73
863.55	20647.62
863.73	20561.61
863.90	21075.65
864.08	20915.90
864.25	20821.70
864.43	20741.83
864.60	20664.00
864.77	20459.21
864.95	20569.80
865.12	20524.74
865.30	20801.22
865.47	20594.37
865.64	20606.66
865.82	20614.85
865.99	20385.48
866.17	20338.38
866.34	20567.75
866.51	20276.94
866.69	20350.67
866.86	20268.75
867.04	20256.46
867.21	20356.81
867.38	20098.77
867.56	19967.70
867.73	19996.37
867.91	20004.56
868.08	20033.23
868.25	20010.70
868.43	19730.13
868.60	19738.32
868.78	19726.04
868.95	20086.48
869.12	20137.68
869.30	19723.99
869.47	19644.12
869.64	19558.10
869.82	19836.63
869.99	19787.47
870.16	19902.16
870.34	19721.94
870.51	19803.86
870.69	19560.15
870.86	19478.23
871.03	19916.50
871.21	19527.38
871.38	19646.16
871.55	19183.32
871.73	19357.40
871.90	19398.36
872.07	19244.76
872.25	19128.03
872.42	19226.33
872.59	19304.15
872.77	19302.11
872.94	19177.18
873.11	19130.08
873.29	18974.43
873.46	19076.83
873.63	19138.27
873.81	18925.28
873.98	18814.69
874.15	18949.85
874.33	18616.04
874.50	18630.37
874.67	18888.42
874.85	18826.98
875.02	18534.12
875.19	18589.41
875.37	18542.31
875.54	18527.97
875.71	18417.38
875.88	18513.64
876.06	18503.40
876.23	18319.08
876.40	18466.53
876.58	18357.99
876.75	18382.57
876.92	18216.68
877.10	18159.34
877.27	18353.90
877.44	18073.32
877.61	17946.35
877.79	18040.56
877.96	17907.44
878.13	17747.70
878.31	17835.76
878.48	17790.70
878.65	17774.32
878.82	17843.95
879.00	18132.72
879.17	18050.80
879.34	17729.27
879.51	17696.50
879.69	17790.70
879.86	17719.03
880.03	17802.99
880.21	17538.80
880.38	17768.18
880.55	17749.75
880.72	17680.11
880.90	17534.71
881.07	17241.85
881.24	17522.42
881.41	17725.17
881.59	17526.52
881.76	17614.58
881.93	17262.33
882.10	17288.95
882.28	17313.53
882.45	17547.00
882.62	17362.68
882.79	17448.69
882.96	17118.97
883.14	17215.23
883.31	17176.31
883.48	17319.67
883.65	17022.72
883.83	17348.34
884.00	17239.80
884.17	16967.42
884.34	17186.55
884.51	17102.59
884.69	17094.40
884.86	17082.11
885.03	17116.92
885.20	16707.33
885.38	16860.93
885.55	16920.32
885.72	17000.19
885.89	16776.96
886.06	16979.71
886.24	16787.20
886.41	17170.17
886.58	17192.70
886.75	16926.46
886.92	16832.26
887.10	16953.09
887.27	16588.55
887.44	16672.51
887.61	16867.07
887.78	16606.98
887.95	16908.03
888.13	16822.02
888.30	16492.29
888.47	16639.75
888.64	16736.00
888.81	16455.43
888.99	16527.11
889.16	16463.62
889.33	16432.90
889.50	16408.33
889.67	16387.85
889.84	16256.78
890.01	16326.41
890.19	16146.19
890.36	16355.08
890.53	16361.22
890.70	16148.23
890.87	16242.44
891.04	16193.29
891.22	16228.10
891.39	16244.49
891.56	15943.44
891.73	15957.77
891.90	15820.56
892.07	15824.65
892.24	16338.69
892.42	15904.53
892.59	16002.83
892.76	15863.57
892.93	15871.76
893.10	15965.96
893.27	16037.64
893.44	15601.43
893.61	15714.06
893.79	15863.57
893.96	15681.30
894.13	15775.50
894.30	15927.05
894.47	15888.14
894.64	15810.32
894.81	15707.92
894.98	15937.29
895.15	15593.23
895.33	15875.85
895.50	15877.90
895.67	15855.37
895.84	15738.64
896.01	15787.79
896.18	15738.64
896.35	15773.46
896.52	15693.58
896.69	15527.70
896.86	15826.70
897.04	15632.15
897.21	15669.01
897.38	15800.08
897.55	15308.57
897.72	15652.63
897.89	15621.91
898.06	15585.04
898.23	15716.11
898.40	15580.95
898.57	15693.58
898.74	15472.40
898.91	15605.52
899.08	15693.58
899.26	15642.39
899.43	15775.50
899.60	15404.82
899.77	15531.80
899.94	15722.26
900.11	15517.46
900.28	15525.65
900.45	15521.56
900.62	15648.53
900.79	15470.36
900.96	15560.47
901.13	15650.58
901.30	15501.08
901.47	15511.32
901.64	15517.46
901.81	15609.62
901.98	15275.80
902.15	15654.67
902.32	15486.74
902.49	15476.50
902.66	15693.58
902.83	15544.08
903.01	15277.85
903.18	15494.93
903.35	15634.19
903.52	15679.25
903.69	15564.56
903.86	15564.56
904.03	15718.16
904.20	15421.20
904.37	15550.23
904.54	15513.36
904.71	15347.48
904.88	15451.92
905.05	15390.49
905.22	15488.79
905.39	15474.45
905.56	15607.57
905.73	15560.47
905.90	15490.84
906.07	15691.54
906.24	15462.16
906.41	15558.42
906.58	15660.82
906.75	15337.24
906.92	15263.51
907.09	15466.26
907.26	15529.75
907.43	15437.59
907.60	15490.84
907.77	15421.20
907.93	15572.75
908.10	15509.27
908.27	15419.16
908.44	15462.16
908.61	15533.84
908.78	15388.44
908.95	15365.91
909.12	15263.51
909.29	15343.38
909.46	15507.22
909.63	15623.95
909.80	15626.00
909.97	15415.06
910.14	15535.89
910.31	15300.37
910.48	15353.62
910.65	15439.64
910.82	15200.02
910.99	15374.10
911.16	15261.46
911.33	15271.70
911.50	15271.70
911.66	15150.87
911.83	15159.06
912.00	15146.78
912.17	14993.18
912.34	15271.70
912.51	15089.43
912.68	15019.80
912.85	15197.98
913.02	15093.53
913.19	14909.21
913.36	15046.43
913.53	15204.12
913.70	14862.11
913.86	15007.52
914.03	14874.40
914.20	14735.14
914.37	14671.65
914.54	14884.64
914.71	14868.25
914.88	15089.43
915.05	14763.81
915.22	14694.18
915.39	14524.19
915.55	14524.19
915.72	14614.30
915.89	14843.68
916.06	14452.52
916.23	14559.01
916.40	14479.14
916.57	14241.57
916.74	14464.80
916.91	14386.98
917.07	14477.09
917.24	14208.81
917.41	14305.06
917.58	14413.60
917.75	14034.73
917.92	14044.97
918.09	14137.13
918.26	14165.80
918.42	13999.91
918.59	13678.38
918.76	13883.18
918.93	13887.28
919.10	13557.55
919.27	13676.34
919.44	13766.45
919.60	13829.93
919.77	13838.12
919.94	13469.49
920.11	13645.62
920.28	13739.82
920.45	13573.94
920.61	13659.95
920.78	13569.84
920.95	13467.44
921.12	13233.97
921.29	13266.74
921.46	13365.04
921.62	13231.93
921.79	13414.20
921.96	13299.51
922.13	13262.65
922.30	13166.39
922.47	12994.36
922.63	13352.76
922.80	13027.13
922.97	12846.91
923.14	12842.81
923.31	12873.53
923.47	12619.58
923.64	13020.99
923.81	12662.59
923.98	12711.74
924.15	12709.69
924.32	12621.63
924.48	12531.52
924.65	12595.01
924.82	12517.18
924.99	12230.47
925.15	12193.61
925.32	12359.49
925.49	12269.38
925.66	12382.02
925.83	12169.03
925.99	12181.32
926.16	12214.09
926.33	12123.98
926.50	11886.41
926.67	12031.82
926.83	11986.76
927.00	11626.32
927.17	11714.38
927.34	11876.17
927.50	11601.74
927.67	11788.11
927.84	11601.74
928.01	11573.07
928.17	11485.01
928.34	11503.44
928.51	11439.95
928.68	11257.68
928.84	11376.47
929.01	11138.90
929.18	11024.22
929.35	11198.29
929.51	11284.31
929.68	10925.91
929.85	11093.85
930.02	10913.63
930.18	10954.58
930.35	11108.18
930.52	10800.99
930.69	10731.36
930.85	10784.60
931.02	10837.85
931.19	10678.11
931.36	10631.01
931.52	10645.34
931.69	10620.77
931.86	10563.42
932.02	10508.13
932.19	10436.45
932.36	10456.93
932.53	10428.26
932.69	10254.18
932.86	10329.95
933.03	10352.48
933.19	10194.79
933.36	10180.45
933.53	10149.73
933.70	10063.72
933.86	10028.90
934.03	9908.07
934.20	9770.86
934.36	9949.03
934.53	9670.51
934.70	9693.04
934.86	9637.74
935.03	9324.40
935.20	9432.94
935.36	9428.85
935.53	9359.22
935.70	9074.55
935.86	9230.20
936.03	9097.08
936.20	8978.30
936.36	8925.05
936.53	9009.01
936.70	8988.53
936.86	8951.67
937.03	8634.24
937.20	8484.73
937.36	8703.87
937.53	8288.13
937.70	8275.84
937.86	8232.83
938.03	8085.38
938.20	8152.96
938.36	8056.71
938.53	7858.06
938.70	7856.01
938.86	7886.73
939.03	7743.37
939.20	7649.16
939.36	7636.88
939.53	7614.35
939.70	7620.49
939.86	7126.93
940.03	7079.83
940.19	7108.50
940.36	7081.88
940.53	6971.29
940.69	7006.10
940.86	6920.09
941.03	6698.91
941.19	6612.89
941.36	6700.95
941.52	6713.24
941.69	6496.16
941.86	6444.96
942.02	6438.81
942.19	6309.79
942.35	6291.36
942.52	6252.45
942.69	6309.79
942.85	6166.43
943.02	5982.12
943.18	6111.14
943.35	6102.95
943.52	5967.78
943.68	5910.44
943.85	5861.29
944.01	5711.78
944.18	5699.50
944.35	5789.61
944.51	5662.63
944.68	5613.48
944.84	5760.94
945.01	5668.78
945.17	5607.34
945.34	5732.26
945.51	5744.55
945.67	5693.35
945.84	5676.97
946.00	5558.19
946.17	5580.71
946.33	5560.24
946.50	5554.09
946.67	5437.36
946.83	5304.24
947.00	5560.24
947.16	5576.62
947.33	5617.58
947.49	5525.42
947.66	5275.57
947.82	5468.08
947.99	5357.49
948.16	5533.61
948.32	5353.39
948.49	5459.88
948.65	5550.00
948.82	5392.30
948.98	5332.91
949.15	5287.86
949.31	5611.43
949.48	5533.61
949.64	5337.01
949.81	5552.04
949.97	5427.12
950.14	5490.60
950.30	5337.01
950.47	5652.39
950.63	5494.70
950.80	5550.00
950.96	5418.93
951.13	5515.18
951.30	5560.24
951.46	5621.67
951.63	5562.28
951.79	5609.39
951.96	5586.86
952.12	5427.12
952.29	5660.59
952.45	5525.42
952.62	5609.39
952.78	5631.91
952.94	5582.76
953.11	5679.02
953.27	5535.66
953.44	5810.09
953.60	5615.53
953.77	5527.47
953.93	5646.25
954.10	5636.01
954.26	5506.99
954.43	5554.09
954.59	5816.23
954.76	5705.64
954.92	5601.19
955.09	5681.07
955.25	5541.80
955.42	5754.79
955.58	5707.69
955.75	5593.00
955.91	5554.09
956.07	5490.60
956.24	5500.84
956.40	5783.46
956.57	5648.30
956.73	5695.40
956.90	5572.52
957.06	5570.48
957.23	5638.06
957.39	5439.40
957.56	5711.78
957.72	5558.19
957.88	5615.53
958.05	5719.98
958.21	5699.50
958.38	5586.86
958.54	5578.67
958.71	5662.63
958.87	5623.72
959.03	5629.87
959.20	5619.63
959.36	5650.35
959.53	5640.11
959.69	5676.97
959.85	5621.67
960.02	5486.51
960.18	5629.87
960.35	5574.57
960.51	5664.68
960.68	5717.93
960.84	5502.89
961.00	5683.11
961.17	5640.11
961.33	5631.91
961.50	5556.14
961.66	5609.39
961.82	5603.24
961.99	5656.49
962.15	5609.39
962.31	5648.30
962.48	5599.15
962.64	5644.20
962.81	5603.24
962.97	5722.02
963.13	5511.08
963.30	5646.25
963.46	5586.86
963.62	5525.42
963.79	5578.67
963.95	5562.28
964.12	5615.53
964.28	5730.22
964.44	5523.37
964.61	5564.33
964.77	5652.39
964.93	5754.79
965.10	5517.23
965.26	5531.56
965.42	5488.56
965.59	5576.62
965.75	5392.30
965.92	5388.21
966.08	5494.70
966.24	5416.88
966.41	5359.53
966.57	5445.55
966.73	5531.56
966.90	5400.49
967.06	5355.44
967.22	5367.73
967.39	5394.35
967.55	5328.81
967.71	5371.82
967.88	5463.98
968.04	5228.46
968.20	5400.49
968.37	5375.92
968.53	5328.81
968.69	5242.80
968.85	5269.42
969.02	5246.90
969.18	5377.97
969.34	5367.73
969.51	5402.54
969.67	5318.57
969.83	5144.50
970.00	5382.06
970.16	5273.52
970.32	5316.53
970.48	5353.39
970.65	5203.89
970.81	5271.47
970.97	5255.09
971.14	5040.05
971.30	5314.48
971.46	5062.58
971.63	5097.39
971.79	5191.60
971.95	5050.29
972.11	5029.81
972.28	5076.91
972.44	5097.39
972.60	5019.57
972.76	5025.72
972.93	5044.15
973.09	5044.15
973.25	5070.77
973.42	5130.16
973.58	5091.25
973.74	5087.15
973.90	5076.91
974.07	4804.53
974.23	4962.23
974.39	5023.67
974.55	4902.84
974.72	4933.56
974.88	4810.68
975.04	5052.34
975.20	4894.65
975.37	5072.82
975.53	4833.21
975.69	4941.75
975.85	4825.01
976.01	4822.97
976.18	4843.45
976.34	4728.76
976.50	4878.26
976.66	4988.85
976.83	4865.97
976.99	4784.06
977.15	4839.35
977.31	4751.29
977.47	4956.08
977.64	4765.62
977.80	4728.76
977.96	4782.01
978.12	4644.79
978.29	4597.69
978.45	4566.97
978.61	4638.65
978.77	4755.38
978.93	4585.40
979.10	4698.04
979.26	4671.42
979.42	4698.04
979.58	4571.07
979.74	4626.36
979.91	4566.97
980.07	4605.88
980.23	4427.71
980.39	4528.06
980.55	4636.60
980.71	4523.96
980.88	4607.93
981.04	4515.77
981.20	4509.63
981.36	4528.06
981.52	4558.78
981.68	4384.70
981.85	4501.44
982.01	4429.76
982.17	4419.52
982.33	4399.04
982.49	4601.79
982.65	4452.28
982.82	4464.57
982.98	4370.37
983.14	4341.69
983.30	4396.99
983.46	4442.04
983.62	4147.14
983.79	4325.31
983.95	4331.45
984.11	4306.88
984.27	4267.97
984.43	4347.84
984.59	4286.40
984.75	4372.41
984.91	4306.88
985.08	4358.08
985.24	4149.18
985.40	4104.13
985.56	4177.86
985.72	4284.35
985.88	4237.25
986.04	4218.82
986.20	4132.80
986.37	4190.14
986.53	4143.04
986.69	4120.51
986.85	4179.90
987.01	4161.47
987.17	4149.18
987.33	4071.36
987.49	4095.94
987.65	4184.00
987.82	4079.55
987.98	3923.91
988.14	4036.55
988.30	4036.55
988.46	4016.07
988.62	4083.65
988.78	4028.35
988.94	3968.96
989.10	3893.19
989.26	3880.90
989.42	3917.76
989.59	3870.66
989.75	3944.39
989.91	3796.93
990.07	3856.33
990.23	3805.13
990.39	3958.72
990.55	3921.86
990.71	3936.20
990.87	3952.58
991.03	4028.35
991.19	3731.40
991.35	3844.04
991.51	3876.80
991.67	3960.77
991.83	3876.80
992.00	3911.62
992.16	3788.74
992.32	3780.55
992.48	3833.80
992.64	3729.35
992.80	3798.98
992.96	3612.62
993.12	3706.82
993.28	3788.74
993.44	3717.06
993.60	3688.39
993.76	3694.54
993.92	3676.10
994.08	3735.50
994.24	3676.10
994.40	3702.73
994.56	3708.87
994.72	3600.33
994.88	3653.58
995.04	3565.51
995.20	3559.37
995.36	3633.10
995.52	3629.00
995.68	3547.08
995.84	3598.28
996.00	3659.72
996.16	3596.23
996.32	3493.83
996.48	3528.65
996.64	3676.10
996.80	3491.79
996.96	3502.03
997.12	3444.68
997.28	3506.12
997.44	3588.04
997.60	3506.12
997.76	3411.92
997.92	3448.78
998.08	3450.83
998.24	3416.01
998.40	3444.68
998.56	3516.36
998.72	3348.43
998.88	3416.01
999.04	3391.44
999.20	3467.21
999.36	3286.99
999.52	3403.72
999.68	3256.27
999.84	3420.11
1000.00	3432.40
1000.16	3424.20
1000.32	3342.28
1000.48	3360.72
1000.64	3215.31
1000.80	3260.37
1000.95	3223.50
1001.11	3317.71
1001.27	3188.69
1001.43	3319.76
1001.59	3176.40
1001.75	3235.79
1001.91	3153.87
1002.07	3235.79
1002.23	3141.58
1002.39	3114.96
1002.55	3196.88
1002.71	3145.68
1002.87	3166.16
1003.03	3164.11
1003.19	3049.43
1003.34	3198.93
1003.50	3049.43
1003.66	3127.25
1003.82	3110.86
1003.98	3092.43
1004.14	3110.86
1004.30	3080.14
1004.46	3051.47
1004.62	3131.34
1004.78	3049.43
1004.94	3094.48
1005.09	3127.25
1005.25	3235.79
1005.41	3082.19
1005.57	2977.75
1005.73	2914.26
1005.89	3014.61
1006.05	3094.48
1006.21	3026.90
1006.37	2953.17
1006.52	2928.60
1006.68	2891.73
1006.84	2971.60
1007.00	2971.60
1007.16	2973.65
1007.32	2871.25
1007.48	2910.16
1007.64	2924.50
1007.79	2899.92
1007.95	2924.50
1008.11	2885.59
1008.27	2904.02
1008.43	2875.35
1008.59	2830.29
1008.75	2912.21
1008.91	2807.77
1009.06	2863.06
1009.22	2891.73
1009.38	2830.29
1009.54	2836.44
1009.70	2904.02
1009.86	2818.00
1010.01	2871.25
1010.17	2789.33
1010.33	2836.44
1010.49	2791.38
1010.65	2838.48
1010.81	2686.94
1010.96	2852.82
1011.12	2805.72
1011.28	2729.94
1011.44	2791.38
1011.60	2791.38
1011.76	2666.46
1011.91	2664.41
1012.07	2641.88
1012.23	2664.41
1012.39	2658.26
1012.55	2721.75
1012.71	2590.68
1012.86	2631.64
1013.02	2736.09
1013.18	2576.34
1013.34	2602.97
1013.50	2658.26
1013.65	2607.06
1013.81	2605.02
1013.97	2559.96
1014.13	2641.88
1014.29	2666.46
1014.44	2686.94
1014.60	2576.34
1014.76	2631.64
1014.92	2605.02
1015.07	2629.59
1015.23	2613.21
1015.39	2660.31
1015.55	2514.91
1015.71	2555.86
1015.86	2512.86
1016.02	2613.21
1016.18	2506.71
1016.34	2514.91
1016.49	2566.10
1016.65	2609.11
1016.81	2504.67
1016.97	2531.29
1017.12	2615.26
1017.28	2420.70
1017.44	2340.83
1017.60	2492.38
1017.75	2500.57
1017.91	2502.62
1018.07	2451.42
1018.23	2555.86
1018.38	2414.56
1018.54	2500.57
1018.70	2445.27
1018.86	2412.51
1019.01	2457.56
1019.17	2430.94
1019.33	2572.25
1019.49	2437.08
1019.64	2367.45
1019.80	2369.50
1019.96	2414.56
1020.12	2408.41
1020.27	2340.83
1020.43	2416.60
1020.59	2422.75
1020.74	2451.42
1020.90	2408.41
1021.06	2365.40
1021.22	2361.31
1021.37	2451.42
1021.53	2303.96
1021.69	2297.82
1021.84	2289.63
1022.00	2359.26
1022.16	2289.63
1022.31	2392.03
1022.47	2281.44
1022.63	2346.97
1022.79	2209.76
1022.94	2263.01
1023.10	2293.72
1023.26	2191.33
1023.41	2283.49
1023.57	2299.87
1023.73	2310.11
1023.88	2234.33
1024.04	2250.72
1024.20	2258.91
1024.35	2281.44
1024.51	2279.39
1024.67	2281.44
1024.82	2263.01
1024.98	2220.00
1025.14	2334.68
1025.29	2263.01
1025.45	2322.40
1025.61	2166.75
1025.76	2164.70
1025.92	2166.75
1026.08	2179.04
1026.23	2162.66
1026.39	2207.71
1026.55	2109.41
1026.70	2191.33
1026.86	2207.71
1027.02	2256.86
1027.17	2179.04
1027.33	2179.04
1027.48	2133.98
1027.64	2138.08
1027.80	2084.83
1027.95	2283.49
1028.11	2156.51
1028.27	2064.35
1028.42	2158.56
1028.58	2144.22
1028.73	2031.58
1028.89	2080.74
1029.05	2203.61
1029.20	2181.09
>>>>>End Processed Spectral Data<<<<<
