SpectraSuite Data File
++++++++++++++++++++++++++++++++++++
Date: Fri Jun 02 14:52:25 CEST 2017
User: INFO_000
Dark Spectrum Present: No
Reference Spectrum Present: No
Number of Sampled Component Spectra: 1
Spectrometers: USB4H00879
Integration Time (usec): 80000 (USB4H00879)
Spectra Averaged: 1 (USB4H00879)
Boxcar Smoothing: 0 (USB4H00879)
Correct for Electrical Dark: No (USB4H00879)
Strobe/Lamp Enabled: No (USB4H00879)
Correct for Detector Non-linearity: No (USB4H00879)
Correct for Stray Light: No (USB4H00879)
Number of Pixels in Processed Spectrum: 3648
>>>>>Begin Processed Spectral Data<<<<<
345.13	1290.22
345.34	1290.22
345.56	1290.22
345.78	1298.41
345.99	1335.28
346.21	1619.94
346.42	1652.71
346.64	1714.15
346.86	1771.49
347.07	1646.57
347.29	1787.88
347.50	1613.80
347.72	1601.51
347.94	1722.34
348.15	1589.22
348.37	1617.90
348.59	1740.77
348.80	1714.15
349.02	1748.97
349.23	1826.79
349.45	1761.25
349.67	1900.52
349.88	1812.45
350.10	1937.38
350.31	1855.46
350.53	1773.54
350.75	2002.91
350.96	1794.02
351.18	1873.89
351.39	1818.60
351.61	1847.27
351.82	1929.19
352.04	1904.61
352.26	1834.98
352.47	1884.13
352.69	1998.82
352.90	1761.25
353.12	1859.56
353.34	1857.51
353.55	1966.05
353.77	1863.65
353.98	1837.03
354.20	1875.94
354.41	1984.48
354.63	1935.33
354.85	2047.97
355.06	1908.71
355.28	1748.97
355.49	1855.46
355.71	1902.56
355.92	1939.43
356.14	1923.04
356.35	1859.56
356.57	1865.70
356.79	1920.99
357.00	1968.10
357.22	1961.95
357.43	1841.12
357.65	1927.14
357.86	1841.12
358.08	1888.23
358.29	1880.04
358.51	1951.71
358.72	2021.35
358.94	1992.67
359.16	1900.52
359.37	1949.67
359.59	1898.47
359.80	2074.59
360.02	1927.14
360.23	2002.91
360.45	2052.06
360.66	1949.67
360.88	1902.56
361.09	1902.56
361.31	2017.25
361.52	1941.47
361.74	1998.82
361.95	2062.30
362.17	1992.67
362.38	2097.12
362.60	2052.06
362.81	2027.49
363.03	1832.93
363.24	2039.78
363.46	2174.94
363.67	1972.19
363.89	2000.87
364.10	2070.50
364.32	1998.82
364.53	2082.78
364.75	1945.57
364.96	2045.92
365.18	2000.87
365.39	2025.44
365.61	1935.33
365.82	2072.54
366.04	2068.45
366.25	2013.15
366.47	1957.86
366.68	2113.50
366.90	2078.69
367.11	2123.74
367.33	2115.55
367.54	2133.98
367.76	2017.25
367.97	2086.88
368.19	2037.73
368.40	2074.59
368.62	2043.87
368.83	1945.57
369.05	1961.95
369.26	2047.97
369.48	1994.72
369.69	2031.58
369.91	2125.79
370.12	2027.49
370.33	2047.97
370.55	1959.91
370.76	2084.83
370.98	2176.99
371.19	2035.68
371.41	2054.11
371.62	2107.36
371.84	2002.91
372.05	2123.74
372.27	2088.93
372.48	1994.72
372.69	2119.65
372.91	2123.74
373.12	2197.47
373.34	2093.02
373.55	2164.70
373.77	2199.52
373.98	2156.51
374.20	2187.23
374.41	2340.83
374.62	2148.32
374.84	2154.46
375.05	2242.53
375.27	2170.85
375.48	2209.76
375.70	2052.06
375.91	2283.49
376.12	2308.06
376.34	2224.09
376.55	2248.67
376.77	2291.68
376.98	2209.76
377.19	2090.98
377.41	2195.42
377.62	2213.85
377.84	2289.63
378.05	2377.69
378.27	2172.89
378.48	2285.53
378.69	2326.49
378.91	2314.20
379.12	2265.05
379.34	2273.25
379.55	2353.12
379.76	2355.16
379.98	2183.13
380.19	2289.63
380.41	2265.05
380.62	2322.40
380.83	2312.16
381.05	2271.20
381.26	2457.56
381.47	2217.95
381.69	2303.96
381.90	2482.14
382.12	2326.49
382.33	2293.72
382.54	2281.44
382.76	2342.88
382.97	2287.58
383.19	2230.24
383.40	2469.85
383.61	2318.30
383.83	2308.06
384.04	2318.30
384.25	2359.26
384.47	2402.27
384.68	2373.60
384.89	2344.92
385.11	2402.27
385.32	2414.56
385.54	2338.78
385.75	2418.65
385.96	2504.67
386.18	2461.66
386.39	2451.42
386.60	2402.27
386.82	2459.61
387.03	2424.80
387.24	2533.34
387.46	2506.71
387.67	2490.33
387.88	2600.92
388.10	2549.72
388.31	2494.43
388.52	2564.06
388.74	2576.34
388.95	2516.95
389.16	2570.20
389.38	2545.63
389.59	2619.35
389.80	2652.12
390.02	2557.91
390.23	2623.45
390.44	2494.43
390.66	2668.50
390.87	2576.34
391.08	2637.78
391.30	2682.84
391.51	2631.64
391.72	2633.69
391.94	2809.81
392.15	2715.61
392.36	2629.59
392.58	2611.16
392.79	2713.56
393.00	2709.46
393.22	2695.13
393.43	2758.61
393.64	2836.44
393.85	2758.61
394.07	2799.57
394.28	2791.38
394.49	2783.19
394.71	2768.85
394.92	2893.78
395.13	2752.47
395.35	2795.48
395.56	2770.90
395.77	2818.00
395.98	2846.68
396.20	2818.00
396.41	2985.94
396.62	2883.54
396.84	2867.16
397.05	2881.49
397.26	2938.84
397.47	3071.95
397.69	2949.08
397.90	3110.86
398.11	3086.29
398.32	2840.53
398.54	2899.92
398.75	2983.89
398.96	2979.79
399.18	3209.17
399.39	2930.64
399.60	3160.02
399.81	3035.09
400.03	3000.27
400.24	3327.95
400.45	2932.69
400.66	3063.76
400.88	3014.61
401.09	3235.79
401.30	3082.19
401.51	3207.12
401.73	3155.92
401.94	3082.19
402.15	3248.08
402.36	3004.37
402.58	3166.16
402.79	3196.88
403.00	3225.55
403.21	3319.76
403.43	3264.46
403.64	3239.89
403.85	3088.34
404.06	3237.84
404.27	3147.73
404.49	3268.56
404.70	3233.74
404.91	3387.34
405.12	3264.46
405.34	3243.98
405.55	3475.40
405.76	3162.06
405.97	3354.57
406.19	3420.11
406.40	3239.89
406.61	3346.38
406.82	3289.04
407.03	3325.90
407.25	3399.63
407.46	3426.25
407.67	3411.92
407.88	3434.44
408.09	3430.35
408.31	3330.00
408.52	3405.77
408.73	3270.61
408.94	3368.91
409.15	3422.16
409.37	3551.18
409.58	3524.55
409.79	3518.41
410.00	3585.99
410.21	3461.07
410.43	3514.31
410.64	3436.49
410.85	3583.95
411.06	3516.36
411.27	3602.38
411.48	3647.43
411.70	3489.74
411.91	3557.32
412.12	3624.90
412.33	3542.99
412.54	3581.90
412.76	3626.95
412.97	3692.49
413.18	3518.41
413.39	3715.02
413.60	3796.93
413.81	3819.46
414.03	3655.62
414.24	3604.42
414.45	3733.45
414.66	3534.79
414.87	3848.13
415.08	3581.90
415.30	3807.17
415.51	3796.93
415.72	3839.94
415.93	3850.18
416.14	3807.17
416.35	3938.24
416.56	3882.95
416.78	3821.51
416.99	3893.19
417.20	3968.96
417.41	3954.63
417.62	3915.72
417.83	3899.33
418.04	3897.28
418.26	4016.07
418.47	3923.91
418.68	3925.96
418.89	3975.11
419.10	4075.46
419.31	4050.88
419.52	4114.37
419.73	4030.40
419.95	4132.80
420.16	4030.40
420.37	4093.89
420.58	4155.33
420.79	4054.98
421.00	4181.95
421.21	4196.29
421.42	4140.99
421.63	4052.93
421.85	4173.76
422.06	4294.59
422.27	4235.20
422.48	4280.25
422.69	4339.65
422.90	4282.30
423.11	4399.04
423.32	4536.25
423.53	4456.38
423.75	4448.19
423.96	4624.31
424.17	4413.37
424.38	4511.68
424.59	4495.29
424.80	4513.72
425.01	4497.34
425.22	4419.52
425.43	4628.41
425.64	4773.82
425.85	4691.90
426.06	4646.84
426.28	4765.62
426.49	4575.16
426.70	4636.60
426.91	4919.22
427.12	4876.21
427.33	4779.96
427.54	4739.00
427.75	4925.36
427.96	4999.09
428.17	5066.67
428.38	4888.50
428.59	5078.96
428.80	4845.49
429.01	5005.24
429.23	4962.23
429.44	5142.45
429.65	4960.18
429.86	5207.98
430.07	4886.45
430.28	4966.32
430.49	5132.21
430.70	5244.85
430.91	5074.87
431.12	5089.20
431.33	5136.31
431.54	5234.61
431.75	5308.34
431.96	5103.54
432.17	5283.76
432.38	5267.38
432.59	5449.64
432.80	5371.82
433.01	5324.72
433.22	5351.34
433.43	5525.42
433.64	5566.38
433.85	5539.76
434.06	5492.65
434.27	5396.40
434.49	5562.28
434.70	5574.57
434.91	5679.02
435.12	5531.56
435.33	5572.52
435.54	5550.00
435.75	5611.43
435.96	5654.44
436.17	5627.82
436.38	5777.32
436.59	5797.80
436.80	5646.25
437.01	6053.80
437.22	5896.10
437.43	5752.74
437.64	5683.11
437.85	5783.46
438.06	5869.48
438.27	5892.01
438.48	5785.51
438.69	5984.16
438.90	5945.25
439.11	5861.29
439.32	6076.32
439.53	5922.73
439.74	5926.82
439.95	6152.10
440.16	6152.10
440.37	6057.89
440.57	5975.97
440.78	6176.67
440.99	6158.24
441.20	6123.43
441.41	5943.21
441.62	6080.42
441.83	6086.56
442.04	6213.54
442.25	6225.82
442.46	6248.35
442.67	6244.26
442.88	6539.16
443.09	6148.00
443.30	6229.92
443.51	6281.12
443.72	6500.25
443.93	6313.89
444.14	6557.60
444.35	6260.64
444.56	6389.66
444.77	6528.92
444.98	6473.63
445.19	6592.41
445.40	6557.60
445.61	6350.75
445.81	6494.11
446.02	6571.93
446.23	6530.97
446.44	6494.11
446.65	6404.00
446.86	6500.25
447.07	6778.78
447.28	6774.68
447.49	6840.22
447.70	6645.66
447.91	6940.57
448.12	6651.80
448.33	6926.23
448.54	6913.94
448.74	6703.00
448.95	6885.27
449.16	6784.92
449.37	7131.03
449.58	7075.73
449.79	7069.59
450.00	6999.96
450.21	7053.20
450.42	7147.41
450.63	7190.42
450.84	6989.72
451.05	6981.53
451.25	7061.40
451.46	6909.85
451.67	7249.81
451.88	7235.47
452.09	7120.79
452.30	7143.32
452.51	7114.64
452.72	7395.22
452.93	7520.14
453.13	7190.42
453.34	7253.91
453.55	7409.55
453.76	7321.49
453.97	7653.26
454.18	7464.85
454.39	7419.79
454.60	7374.74
454.81	7430.03
455.01	7843.72
455.22	7456.65
455.43	7563.15
455.64	7817.10
455.85	7944.07
456.06	8005.51
456.27	7831.43
456.48	7640.97
456.68	7925.64
456.89	7923.59
457.10	8105.86
457.31	7987.08
457.52	7933.83
457.73	8202.11
457.94	8511.36
458.14	8007.56
458.35	8480.64
458.56	8232.83
458.77	8298.37
458.98	8437.63
459.19	8241.03
459.39	8511.36
459.60	8572.80
459.81	8476.54
460.02	8523.65
460.23	8433.54
460.44	8734.59
460.65	8660.86
460.85	8683.39
461.06	8732.54
461.27	8624.00
461.48	8953.72
461.69	9133.94
461.89	8685.44
462.10	8959.86
462.31	8796.03
462.52	8884.09
462.73	9002.87
462.94	9207.67
463.14	9127.80
463.35	9066.36
463.56	9633.64
463.77	9498.48
463.98	9365.36
464.18	9357.17
464.39	9703.28
464.60	9627.50
464.81	9699.18
465.02	9682.80
465.23	9895.78
465.43	9637.74
465.64	9791.34
465.85	9996.14
466.06	9760.62
466.27	10182.50
466.47	10176.36
466.68	9963.37
466.89	10039.14
467.10	10311.52
467.30	10098.53
467.51	10415.97
467.72	10755.93
467.93	10221.41
468.14	10528.61
468.34	10483.55
468.55	10653.53
468.76	10792.80
468.97	10747.74
469.17	10975.06
469.38	10956.63
469.59	11173.72
469.80	11093.85
470.01	10737.50
470.21	11050.84
470.42	11368.27
470.63	11556.69
470.84	11276.12
471.04	11534.16
471.25	11638.61
471.46	11669.33
471.67	11853.64
471.87	11816.78
472.08	11798.35
472.29	12224.33
472.50	11741.00
472.70	12164.93
472.91	12072.78
473.12	12199.75
473.33	12353.35
473.53	12633.92
473.74	12451.65
473.95	12508.99
474.16	12709.69
474.36	12691.26
474.57	12865.34
474.78	13180.73
474.99	13002.55
475.19	13049.66
475.40	12980.03
475.61	13457.20
475.81	13664.05
476.02	13618.99
476.23	13381.43
476.44	13709.10
476.64	13981.48
476.85	14022.44
477.06	13823.79
477.27	14171.94
477.47	14288.68
477.68	14317.35
477.89	14554.91
478.09	14552.87
478.30	14421.80
478.51	14526.24
478.71	14675.74
478.92	14907.16
479.13	14855.97
479.34	15025.95
479.54	15173.40
479.75	15144.73
479.96	15257.37
480.16	15453.97
480.37	15206.17
480.58	15546.13
480.78	15558.42
480.99	15752.98
481.20	15847.18
481.41	15982.35
481.61	16246.54
481.82	16248.58
482.03	16258.82
482.23	16105.23
482.44	16613.12
482.65	16764.67
482.85	16860.93
483.06	16592.64
483.27	16596.74
483.47	16840.45
483.68	16996.09
483.89	17067.77
484.09	16860.93
484.30	17260.28
484.51	17467.13
484.71	17434.36
484.92	17596.15
485.13	17833.71
485.33	17719.03
485.54	17626.87
485.75	18018.03
485.95	18018.03
486.16	18061.04
486.37	17968.88
486.57	18003.69
486.78	17925.87
486.98	18376.42
487.19	18542.31
487.40	18626.28
487.60	18425.57
487.81	18669.28
488.02	18710.24
488.22	19001.05
488.43	19009.25
488.64	18759.39
488.84	19359.45
489.05	19216.09
489.25	19422.94
489.46	19627.73
489.67	19334.87
489.87	19662.55
490.08	19947.22
490.29	19982.03
490.49	19982.03
490.70	20113.10
490.90	19896.02
491.11	20139.72
491.32	20489.93
491.52	20070.09
491.73	20131.53
491.94	20346.57
492.14	20360.91
492.35	20772.55
492.55	20825.79
492.76	20907.71
492.97	21042.88
493.17	21259.96
493.38	21102.27
493.58	21358.27
493.79	21622.45
494.00	21280.44
494.20	21569.21
494.41	21360.31
494.61	21673.65
494.82	21444.28
495.02	21659.32
495.23	21784.24
495.44	21735.09
495.64	21872.31
495.85	22001.33
496.05	22189.74
496.26	21798.58
496.47	22242.99
496.67	21882.55
496.88	22566.57
497.08	22197.93
497.29	22597.29
497.49	22515.37
497.70	22722.21
497.91	22728.36
498.11	22869.67
498.32	22638.25
498.52	22869.67
498.73	23375.52
498.93	22957.73
499.14	23228.06
499.34	23254.69
499.55	23613.08
499.76	23144.09
499.96	23430.81
500.17	23559.83
500.37	23594.65
500.58	23350.94
500.78	23766.68
500.99	23711.38
501.19	23545.50
501.40	23688.85
501.60	23815.83
501.81	23897.75
502.02	23955.09
502.22	23918.23
502.43	24217.23
502.63	24137.36
502.84	24241.81
503.04	24512.14
503.25	24362.64
503.45	24405.64
503.66	24247.95
503.86	24549.00
504.07	24964.74
504.27	24456.84
504.48	25030.27
504.68	24731.27
504.89	24993.41
505.09	25026.18
505.30	25040.51
505.50	24872.58
505.71	25028.23
505.91	25190.02
506.12	25515.64
506.32	25095.81
506.53	25249.41
506.73	25390.72
506.94	25884.28
507.14	25704.06
507.35	25620.09
507.55	25540.22
507.76	25710.20
507.96	25689.72
508.17	25693.82
508.37	26007.16
508.58	25665.14
508.78	25622.14
508.99	26074.74
509.19	26011.25
509.40	25880.18
509.60	26099.31
509.81	26265.20
510.01	26027.63
510.22	26054.26
510.42	26175.09
510.63	26340.97
510.83	26441.32
511.04	26551.91
511.24	26680.94
511.44	26494.57
511.65	26916.45
511.85	26603.11
512.06	26461.80
512.26	26789.48
512.47	26926.69
512.67	26941.03
512.88	27127.39
513.08	26764.90
513.29	27215.46
513.49	27229.79
513.69	27014.76
513.90	27276.90
514.10	27063.91
514.31	27342.43
514.51	27473.50
514.72	27250.27
514.92	27528.80
515.13	27381.34
515.33	27760.22
515.53	27496.03
515.74	27776.60
515.94	27965.01
516.15	27704.92
516.35	27702.87
516.56	28137.04
516.76	28108.37
516.96	27969.11
517.17	28137.04
517.37	28024.40
517.58	28259.92
517.78	28241.49
517.99	28235.35
518.19	28606.03
518.39	28755.53
518.60	29058.63
518.80	28857.93
519.01	28851.78
519.21	28606.03
519.41	28884.55
519.62	28833.35
519.82	29435.45
520.03	29206.08
520.23	29011.53
520.43	28886.60
520.64	29756.99
520.84	29496.89
521.05	29457.98
521.25	29683.26
521.45	29636.16
521.66	29939.26
521.86	29838.90
522.07	30268.98
522.27	29974.07
522.47	30107.19
522.68	30344.75
522.88	30256.69
523.08	30484.01
523.29	30365.23
523.49	30645.80
523.70	30393.90
523.90	30309.94
524.10	30492.21
524.31	31047.21
524.51	30996.01
524.71	31204.90
524.92	31094.31
525.12	30842.41
525.33	31268.39
525.53	31471.14
525.73	31706.65
525.94	31184.42
526.14	31624.73
526.34	31745.56
526.55	32108.05
526.75	31880.73
526.95	31999.51
527.16	31991.32
527.36	32339.47
527.56	32466.45
527.77	32550.42
527.97	32511.50
528.17	32433.68
528.38	32652.81
528.58	32841.23
528.78	32912.91
528.99	32966.15
529.19	32982.54
529.39	32865.80
529.60	33478.15
529.80	33132.04
530.00	33388.03
530.21	33578.50
530.41	33713.66
530.61	33410.56
530.82	33795.58
531.02	33975.80
531.22	34256.37
531.43	33990.14
531.63	34381.30
531.83	34563.57
532.04	35085.80
532.24	34205.17
532.44	34973.16
532.64	34876.91
532.85	35182.06
533.05	35120.62
533.25	35290.60
533.46	35341.80
533.66	35743.20
533.86	35386.85
534.07	35661.28
534.27	35612.13
534.47	35798.49
534.67	36099.55
534.88	35933.66
535.08	36158.94
535.28	36603.35
535.49	36462.04
535.69	36640.21
535.89	36613.59
536.09	36715.98
536.30	36951.50
536.50	36826.57
536.70	37133.77
536.91	37105.10
537.11	37170.63
537.31	36910.54
537.51	37086.67
537.72	37543.36
537.92	37406.15
538.12	38141.37
538.32	37828.03
538.53	38059.45
538.73	37832.13
538.93	37569.99
539.13	38311.35
539.34	38067.64
539.54	37881.28
539.74	38616.50
539.94	38292.92
540.15	38618.55
540.35	39187.88
540.55	38112.70
540.75	38976.94
540.96	38860.21
541.16	39169.45
541.36	38802.86
541.56	38995.37
541.77	39568.80
541.97	39103.92
542.17	39339.43
542.37	39380.39
542.58	39746.98
542.78	39257.51
542.98	39517.60
543.18	39910.82
543.38	40283.55
543.59	40275.35
543.79	39740.83
543.99	39939.49
544.19	40121.76
544.40	40189.34
544.60	40355.22
544.80	40359.32
545.00	40154.52
545.20	40793.49
545.41	40627.60
545.61	40428.95
545.81	40902.03
546.01	41121.16
546.21	40592.79
546.42	40623.51
546.62	41405.83
546.82	40967.57
547.02	40951.18
547.22	41008.53
547.43	41074.06
547.63	41407.88
547.83	41493.89
548.03	40998.29
548.23	41473.42
548.44	41272.71
548.64	41635.20
548.84	41479.56
549.04	41328.01
549.24	42022.27
549.45	41942.40
549.65	41768.32
549.85	41786.75
550.05	42048.89
550.25	41887.10
550.45	42440.06
550.66	42450.30
550.86	42126.72
551.06	42317.18
551.26	42382.71
551.46	42665.33
551.66	42440.06
551.87	42421.62
552.07	42892.66
552.27	42683.76
552.47	42509.69
552.67	42945.90
552.87	42620.28
553.07	42687.86
553.28	43165.04
553.48	42653.05
553.68	43222.38
553.88	43046.26
554.08	42575.22
554.28	42890.61
554.48	43259.24
554.69	43158.89
554.89	42939.76
555.09	42861.94
555.29	42726.77
555.49	43038.06
555.69	43259.24
555.89	43353.45
556.10	43572.58
556.30	43115.89
556.50	43787.62
556.70	43029.87
556.90	43484.52
557.10	43423.08
557.30	43310.44
557.50	43652.45
557.70	43687.27
557.91	43586.92
558.11	43570.54
558.31	43914.59
558.51	43494.76
558.71	43998.56
558.91	44062.05
559.11	43756.90
559.31	43693.41
559.51	43857.25
559.72	44004.70
559.92	43822.44
560.12	43375.98
560.32	44117.34
560.52	43777.38
560.72	43785.57
560.92	44004.70
561.12	43869.54
561.32	44438.87
561.52	44146.01
561.72	44834.13
561.93	44146.01
562.13	43935.07
562.33	44078.43
562.53	44365.15
562.73	44027.23
562.93	44078.43
563.13	44385.63
563.33	44156.25
563.53	44113.25
563.73	44234.08
563.93	44588.38
564.13	44762.45
564.33	44391.77
564.53	44406.11
564.74	44856.66
564.94	44309.85
565.14	44621.14
565.34	44012.90
565.54	44793.17
565.74	44483.93
565.94	44844.37
566.14	44389.72
566.34	44625.24
566.54	45368.65
566.74	44365.15
566.94	44539.22
567.14	44823.89
567.34	44711.25
567.54	44778.84
567.74	44410.20
567.94	44696.92
568.14	45022.54
568.34	44682.58
568.54	45071.70
568.74	44922.19
568.94	44883.28
569.14	45206.86
569.34	45190.48
569.54	44815.70
569.75	45043.02
569.95	45049.17
570.15	45313.36
570.35	45802.82
570.55	44901.71
570.75	45471.05
570.95	45321.55
571.15	45170.00
571.35	45225.29
571.55	45940.04
571.75	45827.40
571.95	45534.54
572.15	45421.90
572.35	45638.98
572.55	45106.51
572.75	45739.33
572.95	45481.29
573.15	45376.84
573.35	45452.62
573.55	45366.60
573.75	45530.44
573.95	45575.50
574.15	45415.76
574.35	45532.49
574.55	45739.33
574.75	45118.80
574.95	45915.46
575.15	45835.59
575.34	45989.19
575.54	46026.05
575.74	46222.65
575.94	46439.74
576.14	45948.23
576.34	46337.34
576.54	46234.94
576.74	46406.97
576.94	46327.10
577.14	46193.98
577.34	46585.15
577.54	45915.46
577.74	45864.26
577.94	46101.82
578.14	46286.14
578.34	46624.06
578.54	46204.22
578.74	46220.61
578.94	47101.23
579.14	46376.25
579.34	46153.02
579.54	46851.38
579.74	46933.30
579.94	46888.24
580.13	46943.54
580.33	46626.10
580.53	46765.37
580.73	47039.79
580.93	46869.81
581.13	47090.99
581.33	47332.65
581.53	47269.17
581.73	47256.88
581.93	47850.79
582.13	47484.20
582.33	47707.43
582.53	47289.65
582.73	47377.71
582.92	47113.52
583.12	47740.20
583.32	47721.77
583.52	47502.64
583.72	47414.57
583.92	47607.08
584.12	47525.16
584.32	47924.52
584.52	47815.97
584.72	48008.48
584.92	47846.69
585.11	48125.22
585.31	48186.66
585.51	48104.74
585.71	47801.64
585.91	48100.64
586.11	47609.13
586.31	48479.52
586.51	48475.42
586.71	48160.03
586.91	48500.00
587.10	48733.46
587.30	48551.20
587.50	48518.43
587.70	48624.92
587.90	48745.75
588.10	48446.75
588.30	48846.10
588.50	48831.77
588.69	49104.15
588.89	48665.88
589.09	48856.34
589.29	48770.33
589.49	49337.62
589.69	48964.88
589.89	49030.42
590.08	49085.72
590.28	49067.28
590.48	49022.23
590.68	48999.70
590.88	49229.07
591.08	49194.26
591.28	49329.42
591.47	49511.69
591.67	49681.67
591.87	49237.26
592.07	49505.55
592.27	49390.86
592.47	49683.72
592.67	49808.65
592.86	49708.30
593.06	49657.10
593.26	50355.46
593.46	49855.75
593.66	49677.58
593.86	50011.40
594.05	49710.35
594.25	50412.80
594.45	49739.02
594.65	50291.97
594.85	50027.78
595.05	50373.89
595.24	50212.10
595.44	50402.56
595.64	50150.66
595.84	50699.51
596.04	50787.58
596.23	50816.25
596.43	50984.18
596.63	50380.03
596.83	50947.32
597.03	50787.58
597.22	51160.31
597.42	51090.68
597.62	51191.03
597.82	51195.12
598.02	51188.98
598.21	51832.04
598.41	51033.33
598.61	51301.62
598.81	51096.82
599.01	51557.61
599.20	51627.24
599.40	51404.02
599.60	51676.40
599.80	51766.51
600.00	51533.04
600.19	51852.52
600.39	51815.66
600.59	52176.10
600.79	51926.25
600.98	51954.92
601.18	52526.30
601.38	52796.63
601.58	51950.82
601.78	52294.88
601.97	52335.84
602.17	52790.49
602.37	53355.73
602.57	52774.11
602.76	52735.20
602.96	52532.45
603.16	53351.63
603.36	52679.90
603.55	52907.22
603.75	52989.14
603.95	53490.90
604.15	53122.26
604.34	52858.07
604.54	53394.64
604.74	53226.71
604.94	53460.18
605.13	53474.51
605.33	53648.59
605.53	53335.25
605.73	53724.36
605.92	53511.38
606.12	54101.19
606.32	54289.60
606.52	54021.32
606.71	54047.94
606.91	54080.71
607.11	54150.34
607.30	54516.93
607.50	54152.39
607.70	54183.11
607.90	54209.73
608.09	54219.97
608.29	54381.76
608.49	54465.73
608.68	54459.58
608.88	54748.35
609.08	54592.70
609.28	54432.96
609.47	54547.65
609.67	54936.76
609.87	54875.32
610.06	54973.63
610.26	54725.82
610.46	55190.71
610.66	54729.92
610.85	55131.32
611.05	55176.37
611.25	55530.67
611.44	55067.83
611.64	55342.26
611.84	54836.41
612.03	55542.96
612.23	54895.80
612.43	55383.22
612.62	55065.78
612.82	55547.06
613.02	55502.00
613.21	55354.55
613.41	55307.44
613.61	55760.05
613.80	55041.21
614.00	55547.06
614.20	55680.17
614.39	55727.28
614.59	55995.56
614.79	55880.88
614.98	55432.37
615.18	55903.40
615.38	55743.66
615.57	55831.72
615.77	56382.63
615.97	56132.78
616.16	55934.12
616.36	55960.75
616.56	55893.16
616.75	56112.30
616.95	55737.52
617.15	55962.79
617.34	56110.25
617.54	55801.00
617.74	56472.74
617.93	56104.10
618.13	55999.66
618.32	56439.97
618.52	56036.52
618.72	55950.51
618.91	56089.77
619.11	56196.26
619.31	56360.10
619.50	56194.21
619.70	56392.87
619.90	56278.18
620.09	56622.24
620.29	56122.54
620.48	56401.06
620.68	56562.85
620.88	55491.76
621.07	56173.73
621.27	56620.19
621.46	56124.58
621.66	56405.16
621.86	56511.65
622.05	56329.38
622.25	56624.29
622.44	56421.54
622.64	56487.07
622.84	56806.56
623.03	56206.50
623.23	56188.07
623.42	56380.58
623.62	56210.60
623.82	56521.89
624.01	56028.33
624.21	56583.33
624.40	56380.58
624.60	57035.93
624.80	56536.23
624.99	56419.49
625.19	56186.02
625.38	56902.81
625.58	56665.25
625.77	56265.89
625.97	56980.63
626.17	56081.58
626.36	56437.92
626.56	56757.41
626.75	56374.44
626.95	56992.92
627.14	56620.19
627.34	57203.86
627.54	56323.24
627.73	56636.58
627.93	56999.07
628.12	56573.09
628.32	56341.67
628.51	56882.33
628.71	56413.35
628.90	56794.27
629.10	56698.01
629.30	56915.10
629.49	56853.66
629.69	56861.85
629.88	56804.51
630.08	57017.50
630.27	56810.65
630.47	56419.49
630.66	56886.43
630.86	57160.86
631.05	56493.22
631.25	57197.72
631.44	56927.39
631.64	57072.79
631.84	56908.96
632.03	57087.13
632.23	56560.80
632.42	57412.76
632.62	57070.75
632.81	56902.81
633.01	56931.48
633.20	57308.31
633.40	57234.58
633.59	57220.25
633.79	57087.13
633.98	56886.43
634.18	57320.60
634.37	57353.36
634.57	57031.83
634.76	57447.57
634.96	57832.59
635.15	57234.58
635.35	57046.17
635.54	57238.68
635.74	57474.20
635.93	56769.69
636.13	57281.69
636.32	57533.59
636.52	56814.75
636.71	56906.91
636.91	57398.42
637.10	57148.57
637.30	57070.75
637.49	56800.41
637.69	56876.19
637.88	57455.76
638.08	57275.54
638.27	57386.13
638.46	57193.62
638.66	56915.10
638.85	57275.54
639.05	57244.82
639.24	57271.45
639.44	57097.37
639.63	57162.90
639.83	57578.64
640.02	57461.91
640.22	57265.30
640.41	57283.73
640.61	56808.61
640.80	57564.31
640.99	57425.04
641.19	57916.56
641.38	57339.03
641.58	57392.28
641.77	57439.38
641.97	56908.96
642.16	57414.80
642.36	57578.64
642.55	57853.07
642.74	57373.84
642.94	57877.64
643.13	57607.31
643.33	57851.02
643.52	57793.68
643.72	57715.86
643.91	57455.76
644.10	57511.06
644.30	57185.43
644.49	57384.08
644.69	57580.69
644.88	57623.70
645.08	57607.31
645.27	57521.30
645.46	57138.33
645.66	58018.95
645.85	57717.90
646.05	57390.23
646.24	57644.18
646.43	57857.17
646.63	57777.29
646.82	58006.67
647.02	57480.34
647.21	57881.74
647.40	57324.69
647.60	57891.98
647.79	57611.41
647.99	57601.17
648.18	57144.47
648.37	57898.12
648.57	57734.29
648.76	57412.76
648.96	57541.78
649.15	58041.48
649.34	58111.11
649.54	57654.42
649.73	57693.33
649.92	57824.40
650.12	57963.66
650.31	57455.76
650.51	57793.68
650.70	58041.48
650.89	57947.28
651.09	58475.65
651.28	57595.03
651.47	57861.26
651.67	58092.68
651.86	57756.81
652.06	57502.87
652.25	57504.91
652.44	57769.10
652.64	57144.47
652.83	57390.23
653.02	57476.24
653.22	57820.30
653.41	57713.81
653.60	57486.48
653.80	57611.41
653.99	58131.59
654.18	57676.94
654.38	57373.84
654.57	57785.49
654.76	57482.39
654.96	57756.81
655.15	57179.29
655.34	57324.69
655.54	57269.40
655.73	57597.07
655.92	57619.60
656.12	58111.11
656.31	57689.23
656.50	58027.15
656.70	57709.71
656.89	57906.32
657.08	57834.64
657.28	57638.03
657.47	57310.36
657.66	57822.35
657.86	57773.20
658.05	57556.11
658.24	57574.55
658.43	57400.47
658.63	57883.79
658.82	57691.28
659.01	57572.50
659.21	57453.72
659.40	57906.32
659.59	57529.49
659.79	57619.60
659.98	57994.38
660.17	57431.19
660.36	57902.22
660.56	58168.46
660.75	57859.21
660.94	57531.54
661.14	57504.91
661.33	57611.41
661.52	56652.96
661.71	57259.16
661.91	56689.82
662.10	56898.72
662.29	57578.64
662.49	57701.52
662.68	57566.35
662.87	57789.58
663.06	57517.20
663.26	57756.81
663.45	57900.17
663.64	57359.51
663.83	57703.57
664.03	57439.38
664.22	56911.00
664.41	57388.18
664.60	57277.59
664.80	57291.93
664.99	57044.12
665.18	57130.14
665.37	57195.67
665.57	57300.12
665.76	57140.38
665.95	57367.70
666.14	57271.45
666.34	56751.26
666.53	56749.21
666.72	57160.86
666.91	57502.87
667.11	56865.95
667.30	56788.13
667.49	56976.54
667.68	56558.75
667.87	57007.26
668.07	57171.10
668.26	57001.11
668.45	56794.27
668.64	57220.25
668.84	57463.96
669.03	57140.38
669.22	57117.85
669.41	57134.23
669.60	57146.52
669.80	56738.97
669.99	57291.93
670.18	57003.16
670.37	57146.52
670.57	57359.51
670.76	56677.54
670.95	56999.07
671.14	56564.90
671.33	56519.84
671.53	57007.26
671.72	56935.58
671.91	56794.27
672.10	56399.01
672.29	56906.91
672.48	56470.69
672.68	57164.95
672.87	56626.34
673.06	56755.36
673.25	56349.86
673.44	56110.25
673.64	56261.80
673.83	56562.85
674.02	56093.86
674.21	56013.99
674.40	56521.89
674.59	56128.68
674.79	56048.81
674.98	55956.65
675.17	56630.43
675.36	55956.65
675.55	56360.10
675.74	56284.33
675.94	55796.91
676.13	56452.26
676.32	56566.94
676.51	56693.92
676.70	56370.34
676.89	56632.48
677.08	56620.19
677.28	55964.84
677.47	56431.78
677.66	56775.84
677.85	56026.28
678.04	56196.26
678.23	56519.84
678.42	56005.80
678.62	56173.73
678.81	56343.72
679.00	56034.47
679.19	56698.01
679.38	55774.38
679.57	56210.60
679.76	55811.24
679.96	56259.75
680.15	56171.69
680.34	55997.61
680.53	56013.99
680.72	56249.51
680.91	56159.40
681.10	55887.02
681.29	55880.88
681.48	56057.00
681.68	55897.26
681.87	55760.05
682.06	56179.88
682.25	55780.52
682.44	55764.14
682.63	55778.48
682.82	55458.99
683.01	55415.99
683.20	55567.54
683.39	55178.42
683.59	55057.59
683.78	55153.85
683.97	55039.16
684.16	55491.76
684.35	55010.49
684.54	55280.82
684.73	54947.00
684.92	54863.03
685.11	55276.72
685.30	55375.03
685.49	55547.06
685.69	55305.40
685.88	55481.52
686.07	55188.66
686.26	55358.64
686.45	55223.48
686.64	55207.09
686.83	55246.00
687.02	55254.20
687.21	55092.41
687.40	54852.80
687.59	55033.02
687.78	55467.19
687.97	55413.94
688.16	55252.15
688.35	54680.77
688.54	54478.02
688.74	55104.70
688.93	55028.92
689.12	54899.90
689.31	54867.13
689.50	54836.41
689.69	54779.07
689.88	54389.95
690.07	55342.26
690.26	54228.16
690.45	54817.98
690.64	54611.13
690.83	54777.02
691.02	54652.09
691.21	54359.23
691.40	54746.30
691.59	54682.81
691.78	54582.46
691.97	54678.72
692.16	54691.01
692.35	54725.82
692.54	54623.42
692.73	54346.95
692.92	54332.61
693.11	54600.89
693.30	54744.25
693.49	54535.36
693.68	54494.40
693.87	54490.30
694.06	54179.01
694.25	54197.44
694.44	54179.01
694.63	53933.26
694.82	54641.85
695.01	54383.81
695.20	54627.52
695.39	54146.25
695.58	54058.18
695.77	53941.45
695.96	53810.38
696.15	54133.96
696.34	53882.06
696.53	53955.78
696.72	54066.38
696.91	54025.42
697.10	53828.81
697.29	54170.82
697.48	54172.87
697.67	53593.29
697.86	53030.10
698.05	53357.78
698.24	54359.23
698.43	53302.48
698.62	53769.42
698.81	53753.04
699.00	54387.91
699.19	53564.62
699.38	53908.68
699.57	53288.15
699.76	53982.41
699.95	53695.69
700.14	53224.66
700.32	53482.70
700.51	53312.72
700.70	53785.80
700.89	53990.60
701.08	53634.25
701.27	53273.81
701.46	53748.94
701.65	53173.46
701.84	53562.57
702.03	53716.17
702.22	53560.53
702.41	53478.61
702.60	53675.21
702.79	53150.93
702.98	53263.57
703.17	53499.09
703.35	53345.49
703.54	53056.73
703.73	53253.33
703.92	53232.85
704.11	53429.46
704.30	53103.83
704.49	53056.73
704.68	52991.19
704.87	52960.47
705.06	52884.70
705.25	52559.07
705.43	53081.30
705.62	52921.56
705.81	52810.97
706.00	52571.36
706.19	52755.68
706.38	52825.31
706.57	52860.12
706.76	52901.08
706.95	52696.28
707.14	52440.29
707.32	52526.30
707.51	52597.98
707.70	52360.42
707.89	52983.00
708.08	52669.66
708.27	52962.52
708.46	52706.52
708.65	52407.52
708.84	52958.42
709.02	53122.26
709.21	52673.76
709.40	52647.13
709.59	53183.70
709.78	52153.57
709.97	52960.47
710.16	52057.32
710.34	52174.05
710.53	52440.29
710.72	52149.48
710.91	52436.19
711.10	52606.17
711.29	52350.18
711.48	52389.09
711.66	52133.09
711.85	52051.17
712.04	52430.05
712.23	52337.89
712.42	52012.26
712.61	52587.74
712.80	52077.80
712.98	52061.41
713.17	51584.24
713.36	52106.47
713.55	52307.17
713.74	52032.74
713.93	52454.62
714.11	52360.42
714.30	51610.86
714.49	52245.73
714.68	51897.58
714.87	52274.40
715.06	52147.43
715.24	51653.87
715.43	51895.53
715.62	51545.33
715.81	51473.65
716.00	52180.20
716.18	51528.94
716.37	51631.34
716.56	51768.55
716.75	51821.80
716.94	51729.64
717.12	51459.31
717.31	51862.76
717.50	51432.69
717.69	51518.70
717.88	51246.32
718.06	51651.82
718.25	52057.32
718.44	51197.17
718.63	51537.13
718.82	51293.43
719.00	51404.02
719.19	50926.84
719.38	51338.48
719.57	50918.65
719.76	50760.95
719.94	50955.51
720.13	50961.65
720.32	51156.21
720.51	50550.01
720.69	51057.91
720.88	50986.23
721.07	50658.56
721.26	50574.59
721.44	50521.34
721.63	50681.08
721.82	50390.27
722.01	50289.92
722.20	50537.72
722.38	49995.01
722.57	49962.25
722.76	50517.25
722.95	50076.93
723.13	49530.12
723.32	50300.16
723.51	49880.33
723.70	50224.39
723.88	50001.16
724.07	50289.92
724.26	50093.32
724.44	49706.25
724.63	50435.33
724.82	50156.80
725.01	50205.95
725.19	49749.26
725.38	50076.93
725.57	49677.58
725.76	49902.85
725.94	49415.44
726.13	49392.91
726.32	50009.35
726.51	49329.42
726.69	49777.93
726.88	49968.39
727.07	49904.90
727.25	49487.12
727.44	49878.28
727.63	49745.16
727.82	49628.43
728.00	49986.82
728.19	49691.91
728.38	49415.44
728.56	49157.39
728.75	50109.70
728.94	49300.75
729.12	49790.22
729.31	49585.42
729.50	49624.33
729.69	49657.10
729.87	49274.13
730.06	49736.97
730.25	49329.42
730.43	49917.19
730.62	49530.12
730.81	50087.17
730.99	49669.39
731.18	49515.79
731.37	49829.13
731.55	49868.04
731.74	50029.83
731.93	49861.90
732.11	49892.61
732.30	49806.60
732.49	49380.62
732.67	49233.17
732.86	49689.87
733.05	49493.26
733.23	49138.96
733.42	49278.22
733.61	49294.61
733.79	49716.49
733.98	49659.15
734.17	49659.15
734.35	49607.95
734.54	49458.45
734.73	49894.66
734.91	49474.83
735.10	49265.94
735.29	49779.98
735.47	49020.18
735.66	49456.40
735.84	49650.95
736.03	49569.04
736.22	49595.66
736.40	49212.69
736.59	49354.00
736.78	49591.56
736.96	49483.02
737.15	49560.84
737.33	49601.80
737.52	49151.25
737.71	49128.72
737.89	48930.07
738.08	48633.11
738.27	49151.25
738.45	49501.45
738.64	49640.71
738.82	49077.52
739.01	48887.06
739.20	49075.48
739.38	49186.07
739.57	49542.41
739.75	49474.83
739.94	49044.76
740.13	49030.42
740.31	49374.48
740.50	49149.20
740.68	49267.98
740.87	49149.20
741.06	49169.68
741.24	48981.27
741.43	48559.39
741.61	49149.20
741.80	48964.88
741.99	48551.20
742.17	48721.18
742.36	48780.57
742.54	48719.13
742.73	48561.44
742.91	48954.64
743.10	48708.89
743.29	49478.92
743.47	48596.25
743.66	48708.89
743.84	48567.58
744.03	48317.73
744.21	48975.12
744.40	48952.60
744.59	48436.51
744.77	48366.88
744.96	48399.65
745.14	48694.55
745.33	48475.42
745.51	48411.93
745.70	48635.16
745.88	47920.42
746.07	48551.20
746.26	48710.94
746.44	48409.89
746.63	48424.22
746.81	48395.55
747.00	48321.82
747.18	48469.28
747.37	48000.29
747.55	48334.11
747.74	48520.48
747.92	47889.70
748.11	47899.94
748.29	47586.60
748.48	48274.72
748.66	48119.07
748.85	48137.51
749.03	47752.49
749.22	48162.08
749.41	47744.30
749.59	48094.50
749.78	47537.45
749.96	47105.33
750.15	47768.87
750.33	47838.50
750.52	47760.68
750.70	47879.46
750.89	47447.34
751.07	47525.16
751.26	47557.93
751.44	47224.11
751.63	47346.99
751.81	47363.37
752.00	47461.68
752.18	47379.76
752.37	47633.71
752.55	46718.26
752.74	47113.52
752.92	47099.19
753.10	46773.56
753.29	47287.60
753.47	46714.17
753.66	47021.36
753.84	47185.20
754.03	46546.23
754.21	46699.83
754.40	46779.70
754.58	46847.29
754.77	46761.27
754.95	46470.46
755.14	46662.97
755.32	47052.08
755.51	46372.16
755.69	46583.10
755.88	46286.14
756.06	46630.20
756.24	46460.22
756.43	46490.94
756.61	46376.25
756.80	46320.96
756.98	46153.02
757.17	46695.74
757.35	46458.17
757.54	46417.21
757.72	46552.38
757.90	46642.49
758.09	45968.71
758.27	46044.48
758.46	46110.02
758.64	45778.25
758.83	45870.40
759.01	46026.05
759.19	46030.15
759.38	46011.71
759.56	45983.04
759.75	46142.78
759.93	46150.98
760.12	45753.67
760.30	45901.12
760.48	45770.05
760.67	45725.00
760.85	45552.97
761.04	45894.98
761.22	45792.58
761.40	45626.70
761.59	45854.02
761.77	45413.71
761.96	45563.21
762.14	45514.06
762.32	44985.68
762.51	44959.06
762.69	44787.03
762.88	45458.76
763.06	45112.66
763.24	45176.14
763.43	45163.85
763.61	44764.50
763.80	44952.91
763.98	44715.35
764.16	44948.82
764.35	44629.34
764.53	44748.12
764.72	45004.11
764.90	44561.75
765.08	44760.40
765.27	44363.10
765.45	44270.94
765.63	44377.43
765.82	44897.62
766.00	44252.51
766.18	44275.04
766.37	44797.27
766.55	44363.10
766.74	44299.61
766.92	43838.82
767.10	43967.84
767.29	43914.59
767.47	43580.78
767.65	44137.82
767.84	43767.14
768.02	43834.72
768.20	43193.71
768.39	43853.15
768.57	43887.97
768.75	43976.03
768.94	43505.00
769.12	43758.95
769.30	43249.00
769.49	43195.76
769.67	43005.30
769.85	42812.79
770.04	43099.50
770.22	43109.74
770.40	42820.98
770.59	43427.18
770.77	43249.00
770.95	43285.87
771.14	42780.02
771.32	42642.81
771.50	42782.07
771.69	42628.47
771.87	42923.38
772.05	42564.98
772.24	42139.00
772.42	42622.33
772.60	42315.13
772.78	42186.11
772.97	42272.12
773.15	42458.49
773.33	42206.59
773.52	42147.20
773.70	42182.01
773.88	42438.01
774.07	42202.49
774.25	42120.57
774.43	42573.17
774.61	42511.74
774.80	42444.15
774.98	42257.79
775.16	42444.15
775.34	42581.37
775.53	42190.20
775.71	42147.20
775.89	41889.15
776.08	41913.73
776.26	42337.66
776.44	42456.44
776.62	42169.72
776.81	42227.07
776.99	42624.37
777.17	42323.32
777.35	42757.49
777.54	42618.23
777.72	42313.08
777.90	42378.62
778.08	42278.27
778.27	42382.71
778.45	42569.08
778.63	42419.58
778.81	42306.94
779.00	43005.30
779.18	42218.88
779.36	42978.67
779.54	42460.54
779.73	42548.60
779.91	42833.27
780.09	42636.66
780.27	42763.64
780.46	42890.61
780.64	42610.04
780.82	42997.10
781.00	42677.62
781.19	43222.38
781.37	42603.89
781.55	42833.27
781.73	42747.25
781.91	42960.24
782.10	43064.69
782.28	42888.56
782.46	42945.90
782.64	43044.21
782.82	42726.77
783.01	43027.82
783.19	42964.34
783.37	43138.41
783.55	42782.07
783.74	43181.42
783.92	42767.73
784.10	43101.55
784.28	43072.88
784.46	42546.55
784.64	42456.44
784.83	42808.69
785.01	43443.56
785.19	42696.05
785.37	43015.54
785.55	42941.81
785.74	42530.17
785.92	42765.68
786.10	42544.50
786.28	42747.25
786.46	42851.70
786.64	42028.41
786.83	42415.48
787.01	42399.10
787.19	42151.29
787.37	42833.27
787.55	42220.92
787.74	42200.44
787.92	42448.25
788.10	42100.09
788.28	41973.12
788.46	42415.48
788.64	42132.86
788.82	42237.31
789.01	41723.27
789.19	41762.18
789.37	41661.83
789.55	41766.27
789.73	41543.05
789.91	41432.46
790.09	41715.08
790.28	41495.94
790.46	41170.32
790.64	41532.81
790.82	41407.88
791.00	41225.61
791.18	41274.76
791.36	40951.18
791.55	41751.94
791.73	41012.62
791.91	40865.17
792.09	40799.63
792.27	40758.67
792.45	40447.38
792.63	40572.31
792.81	40283.55
793.00	40449.43
793.18	40402.33
793.36	40088.99
793.54	39886.24
793.72	39959.97
793.90	39964.06
794.08	39433.64
794.26	40185.24
794.44	39533.99
794.62	39329.19
794.81	39685.54
794.99	39273.90
795.17	39093.68
795.35	38950.32
795.53	39450.02
795.71	39003.56
795.89	38849.97
796.07	38950.32
796.25	38686.13
796.43	38727.09
796.61	38370.74
796.80	38315.45
796.98	38587.83
797.16	38405.56
797.34	38434.23
797.52	38026.68
797.70	38229.43
797.88	38215.10
798.06	37549.51
798.24	37922.24
798.42	38057.40
798.60	37881.28
798.78	37297.61
798.96	37412.29
799.14	37322.18
799.32	37770.69
799.51	37348.81
799.69	37537.22
799.87	37070.28
800.05	36879.82
800.23	37277.13
800.41	36918.73
800.59	36922.83
800.77	36378.07
800.95	36472.28
801.13	36851.15
801.31	36312.53
801.49	36380.12
801.67	36222.42
801.85	36308.44
802.03	36189.66
802.21	35931.61
802.39	35784.16
802.57	35581.41
802.75	35511.78
802.93	35739.10
803.11	35415.52
803.29	35380.71
803.47	35024.36
803.65	35073.51
803.83	35005.93
804.01	35411.43
804.19	34584.05
804.37	34616.82
804.55	34907.63
804.73	34743.79
804.91	34551.28
805.09	35126.76
805.27	34686.45
805.45	34653.68
805.63	34207.22
805.81	34366.96
805.99	34350.58
806.17	34328.05
806.35	34467.31
806.53	33676.80
806.71	34129.40
806.89	34196.98
807.07	33467.91
807.25	34010.62
807.43	33414.66
807.61	34170.36
807.79	33840.64
807.97	33375.75
808.15	33379.84
808.33	33388.03
808.51	32898.57
808.69	33426.95
808.87	32910.86
809.05	33013.26
809.23	32753.16
809.41	32732.68
809.59	32906.76
809.77	32765.45
809.95	32775.69
810.13	32790.03
810.31	32519.70
810.49	32509.46
810.67	32443.92
810.84	32634.38
811.02	32419.35
811.20	32001.56
811.38	32519.70
811.56	31870.49
811.74	32013.85
811.92	31600.16
812.10	32028.18
812.28	32044.57
812.46	31864.35
812.64	32038.42
812.82	31544.86
813.00	31751.71
813.18	31477.28
813.36	31460.90
813.53	31301.15
813.71	31434.27
813.89	31458.85
814.07	31471.14
814.25	31241.76
814.43	31198.76
814.61	31004.20
814.79	30969.38
814.97	30783.02
815.15	31034.92
815.33	30699.05
815.50	30529.07
815.68	31016.49
815.86	30856.75
816.04	30604.84
816.22	30535.21
816.40	30217.78
816.58	30295.60
816.76	30205.49
816.94	30410.29
817.11	30297.65
817.29	29754.94
817.47	30367.28
817.65	30279.22
817.83	30172.72
818.01	30094.90
818.19	30058.04
818.37	29890.10
818.54	29562.43
818.72	29402.69
818.90	29460.03
819.08	29468.22
819.26	29421.12
819.44	29748.79
819.62	29494.85
819.80	29201.99
819.97	29595.20
820.15	29109.83
820.33	29079.11
820.51	29154.88
820.69	28737.10
820.87	29236.80
821.05	29027.91
821.22	28765.77
821.40	29183.55
821.58	28894.79
821.76	28714.57
821.94	28718.67
822.12	28980.81
822.29	28704.33
822.47	28397.13
822.65	28935.75
822.83	28794.44
823.01	28741.19
823.19	28405.33
823.36	28284.50
823.54	28180.05
823.72	28278.35
823.90	28018.26
824.08	28304.98
824.25	28362.32
824.43	28186.19
824.61	28261.97
824.79	27864.66
824.97	27956.82
825.15	28233.30
825.32	28143.19
825.50	27700.83
825.68	27668.06
825.86	28190.29
826.04	28057.17
826.21	27850.33
826.39	27788.89
826.57	27721.30
826.75	27491.93
826.93	27407.97
827.10	27367.01
827.28	27350.62
827.46	27758.17
827.64	27489.88
827.81	27330.14
827.99	27231.84
828.17	27074.15
828.35	27072.10
828.53	27051.62
828.70	27000.42
828.88	26971.75
829.06	27188.83
829.24	27209.31
829.41	26971.75
829.59	27164.26
829.77	26932.84
829.95	26912.36
830.12	26656.36
830.30	26920.55
830.48	26959.46
830.66	26691.18
830.84	26603.11
831.01	26945.12
831.19	26637.93
831.37	26605.16
831.55	26310.25
831.72	26193.52
831.90	26693.22
832.08	26433.13
832.25	26422.89
832.43	26504.81
832.61	26486.38
832.79	25986.68
832.96	26392.17
833.14	26082.93
833.32	26228.34
833.50	26076.79
833.67	26191.47
833.85	26297.97
834.03	25990.77
834.20	25853.56
834.38	26113.65
834.56	26052.21
834.74	25767.54
834.91	25988.72
835.09	25820.79
835.27	25544.31
835.44	25519.74
835.62	25007.75
835.80	25572.99
835.98	25597.56
836.15	25433.72
836.33	25630.33
836.51	25626.23
836.68	25407.10
836.86	25527.93
837.04	25572.99
837.21	25503.35
837.39	25521.79
837.57	25564.79
837.75	25439.87
837.92	24876.68
838.10	25362.04
838.28	24665.74
838.45	25278.08
838.63	24886.92
838.81	25136.77
838.98	24880.77
839.16	25114.24
839.34	24598.15
839.51	24931.97
839.69	24596.10
839.87	24698.50
840.04	24737.41
840.22	24999.55
840.40	24319.63
840.57	24477.32
840.75	24753.80
840.93	24381.07
841.10	24686.22
841.28	24942.21
841.46	24870.53
841.63	24735.37
841.81	24342.16
841.98	24432.27
842.16	24477.32
842.34	24270.48
842.51	24211.09
842.69	24313.48
842.87	24444.56
843.04	24475.27
843.22	24157.84
843.40	24073.87
843.57	24080.02
843.75	24010.39
843.92	24180.37
844.10	24272.53
844.28	23942.80
844.45	24108.69
844.63	23871.12
844.81	23899.80
844.98	24106.64
845.16	23899.80
845.33	23758.49
845.51	23862.93
845.69	23881.36
845.86	23621.27
846.04	23860.88
846.21	23525.02
846.39	23817.88
846.57	23498.39
846.74	23303.84
846.92	23627.42
847.09	23803.54
847.27	23377.56
847.45	23496.35
847.62	23508.63
847.80	23514.78
847.97	23314.08
848.15	23289.50
848.32	23418.52
848.50	23254.69
848.68	23115.42
848.85	23221.92
849.03	23178.91
849.20	23142.05
849.38	22910.63
849.56	23203.49
849.73	23080.61
849.91	23021.22
850.08	23479.96
850.26	22787.75
850.43	22851.24
850.61	22816.42
850.78	22955.68
850.96	22941.35
851.14	22873.76
851.31	23051.94
851.49	22605.48
851.66	22992.55
851.84	22691.49
852.01	22884.00
852.19	22714.02
852.36	22576.81
852.54	22415.02
852.71	22927.01
852.89	22556.33
853.07	22574.76
853.24	22630.05
853.42	22720.17
853.59	22615.72
853.77	22365.87
853.94	22664.87
854.12	22730.41
854.29	22003.38
854.47	22267.56
854.64	22218.41
854.82	22408.87
854.99	22103.73
855.17	22122.16
855.34	22601.38
855.52	22404.78
855.69	22263.47
855.87	22105.77
856.04	22177.45
856.22	21986.99
856.39	21890.74
856.57	22288.04
856.74	21857.97
856.92	21991.09
857.09	21950.13
857.27	21862.07
857.44	22206.13
857.62	21993.14
857.79	22013.62
857.97	21743.28
858.14	21960.37
858.32	21743.28
858.49	22032.05
858.67	21827.25
858.84	21653.17
859.02	21628.60
859.19	21774.00
859.37	21651.13
859.54	21487.29
859.72	21700.28
859.89	21653.17
860.06	21507.77
860.24	21429.94
860.41	21575.35
860.59	21382.84
860.76	21485.24
860.94	21173.95
861.11	21397.18
861.29	21520.06
861.46	21280.44
861.64	21313.21
861.81	21139.13
861.98	21305.02
862.16	21147.33
862.33	20856.51
862.51	21153.47
862.68	21278.40
862.86	21114.56
863.03	20997.82
863.21	20928.19
863.38	21137.09
863.55	20895.43
863.73	20866.75
863.90	20750.02
864.08	20874.95
864.25	20639.43
864.43	20737.73
864.60	20500.17
864.77	20477.64
864.95	20661.96
865.12	20618.95
865.30	21057.21
865.47	20299.47
865.64	20768.45
865.82	20645.57
865.99	20887.23
866.17	20383.43
866.34	20303.56
866.51	20524.74
866.69	20621.00
866.86	20635.33
867.04	20352.71
867.21	20293.32
867.38	20393.67
867.56	20029.13
867.73	20172.49
867.91	20125.39
868.08	20141.77
868.25	19867.34
868.43	20109.01
868.60	19971.79
868.78	19953.36
868.95	20362.95
869.12	19977.94
869.30	20035.28
869.47	20068.05
869.64	19646.16
869.82	19740.37
869.99	19709.65
870.16	19838.67
870.34	20229.84
870.51	19783.38
870.69	19736.27
870.86	19846.87
871.03	19887.82
871.21	19492.57
871.38	19685.08
871.55	19580.63
871.73	19568.34
871.90	19594.96
872.07	19508.95
872.25	19523.29
872.42	19412.70
872.59	19279.58
872.77	19568.34
872.94	19269.34
873.11	19214.04
873.29	19705.56
873.46	19066.59
873.63	19222.23
873.81	18933.47
873.98	19015.39
874.15	19128.03
874.33	18910.94
874.50	18781.92
874.67	18984.67
874.85	18831.07
875.02	18636.52
875.19	18605.80
875.37	18599.65
875.54	18624.23
875.71	18597.60
875.88	18669.28
876.06	18657.00
876.23	18343.66
876.40	18657.00
876.58	18376.42
876.75	18626.28
876.92	18403.05
877.10	18538.21
877.27	18511.59
877.44	18308.84
877.61	18165.48
877.79	18271.98
877.96	18314.98
878.13	18331.37
878.31	18151.15
878.48	18063.08
878.65	17870.58
878.82	18028.27
879.00	18079.47
879.17	18147.05
879.34	18009.84
879.51	18130.67
879.69	17993.45
879.86	17841.90
880.03	17864.43
880.21	17678.07
880.38	17770.22
880.55	17780.46
880.72	17886.96
880.90	17698.55
881.07	17858.29
881.24	17692.40
881.41	17547.00
881.59	17600.24
881.76	17479.41
881.93	17641.20
882.10	17256.18
882.28	17309.43
882.45	17923.82
882.62	17430.26
882.79	17577.72
882.96	17188.60
883.14	17409.78
883.31	17501.94
883.48	17204.99
883.65	17272.57
883.83	17456.89
884.00	17467.13
884.17	17485.56
884.34	17559.28
884.51	17166.07
884.69	17254.14
884.86	17032.96
885.03	17026.81
885.20	16963.33
885.38	17180.41
885.55	17121.02
885.72	17041.15
885.89	17082.11
886.06	17028.86
886.24	16869.12
886.41	16877.31
886.58	17166.07
886.75	17030.91
886.92	16860.93
887.10	16996.09
887.27	16822.02
887.44	16836.35
887.61	16889.60
887.78	16924.41
887.95	16938.75
888.13	16803.58
888.30	16633.60
888.47	16606.98
888.64	16776.96
888.81	16785.15
888.99	16641.79
889.16	16688.90
889.33	16326.41
889.50	16467.72
889.67	16334.60
889.84	16467.72
890.01	16715.52
890.19	16398.09
890.36	16506.63
890.53	16250.63
890.70	16447.24
890.87	16504.58
891.04	16408.33
891.22	16359.17
891.39	16381.70
891.56	16355.08
891.73	16084.75
891.90	16166.67
892.07	16047.88
892.24	16080.65
892.42	15996.68
892.59	16068.36
892.76	16185.10
892.93	15906.57
893.10	15955.72
893.27	15718.16
893.44	15685.39
893.61	15939.34
893.79	16322.31
893.96	15941.39
894.13	16080.65
894.30	15941.39
894.47	15965.96
894.64	15972.11
894.81	15955.72
894.98	15935.24
895.15	15998.73
895.33	15779.60
895.50	15714.06
895.67	15916.81
895.84	15904.53
896.01	15820.56
896.18	15990.54
896.35	15755.02
896.52	15888.14
896.69	15744.78
896.86	15972.11
897.04	15879.95
897.21	15867.66
897.38	15847.18
897.55	15828.75
897.72	15781.65
897.89	15693.58
898.06	15787.79
898.23	15779.60
898.40	15818.51
898.57	15738.64
898.74	15824.65
898.91	15660.82
899.08	15845.13
899.26	15748.88
899.43	15609.62
899.60	15671.06
899.77	15722.26
899.94	15644.43
900.11	15552.27
900.28	15683.34
900.45	15666.96
900.62	15693.58
900.79	15654.67
900.96	15605.52
901.13	15554.32
901.30	15691.54
901.47	15525.65
901.64	15716.11
901.81	15785.74
901.98	15566.61
902.15	15746.83
902.32	15339.29
902.49	15699.73
902.66	15781.65
902.83	15838.99
903.01	15654.67
903.18	15589.14
903.35	15640.34
903.52	15771.41
903.69	15828.75
903.86	15619.86
904.03	15703.82
904.20	15681.30
904.37	15785.74
904.54	15681.30
904.71	15773.46
904.88	15560.47
905.05	15419.16
905.22	15611.67
905.39	15578.90
905.56	15496.98
905.73	15542.03
905.90	15601.43
906.07	15482.64
906.24	15703.82
906.41	15378.20
906.58	15656.72
906.75	15550.23
906.92	15582.99
907.09	15761.17
907.26	15658.77
907.43	15658.77
907.60	15560.47
907.77	15632.15
907.93	15630.10
908.10	15761.17
908.27	15466.26
908.44	15578.90
908.61	15433.49
908.78	15234.84
908.95	15478.55
909.12	15363.86
909.29	15607.57
909.46	15546.13
909.63	15439.64
909.80	15449.88
909.97	15736.59
910.14	15511.32
910.31	15423.25
910.48	15718.16
910.65	15331.09
910.82	15431.44
910.99	15314.71
911.16	15515.41
911.33	15372.05
911.50	15492.88
911.66	15478.55
911.83	15376.15
912.00	15030.04
912.17	15202.07
912.34	15073.05
912.51	15177.50
912.68	15048.47
912.85	15218.46
913.02	15224.60
913.19	15079.19
913.36	15146.78
913.53	15290.13
913.70	14794.53
913.86	15011.61
914.03	15044.38
914.20	14901.02
914.37	14796.57
914.54	14800.67
914.71	14737.18
914.88	15036.19
915.05	15193.88
915.22	14733.09
915.39	14931.74
915.55	14870.30
915.72	14661.41
915.89	14765.85
916.06	14757.66
916.23	14726.94
916.40	14642.98
916.57	14493.47
916.74	14483.24
916.91	14350.12
917.07	14325.54
917.24	14247.72
917.41	14477.09
917.58	14106.41
917.75	14157.61
917.92	14075.69
918.09	13821.74
918.26	14139.18
918.42	14126.89
918.59	14335.78
918.76	13930.28
918.93	13848.36
919.10	13987.63
919.27	13864.75
919.44	14087.98
919.60	13664.05
919.77	13819.69
919.94	13614.90
920.11	13553.46
920.28	13885.23
920.45	13641.52
920.61	13508.40
920.78	13565.74
920.95	13590.32
921.12	13578.03
921.29	13356.85
921.46	13399.86
921.62	13532.98
921.79	13326.13
921.96	13262.65
922.13	13444.91
922.30	13078.33
922.47	13010.75
922.63	13152.06
922.80	13180.73
922.97	12998.46
923.14	12871.48
923.31	12906.30
923.47	12801.85
923.64	13199.16
923.81	13107.00
923.98	12746.56
924.15	12750.65
924.32	12605.25
924.48	12615.49
924.65	12629.82
924.82	12742.46
924.99	12281.67
925.15	12468.03
925.32	12398.40
925.49	12300.10
925.66	12154.69
925.83	12250.95
925.99	12066.63
926.16	12324.68
926.33	12152.65
926.50	11872.07
926.67	12189.51
926.83	11822.92
927.00	11861.84
927.17	11851.60
927.34	11902.79
927.50	11806.54
927.67	11718.48
927.84	11581.26
928.01	11816.78
928.17	11589.46
928.34	11571.02
928.51	11579.22
928.68	11396.95
928.84	11413.33
929.01	11431.76
929.18	11171.67
929.35	11214.68
929.51	11274.07
929.68	11089.75
929.85	11069.27
930.02	11106.13
930.18	11054.94
930.35	11013.98
930.52	10913.63
930.69	10846.04
930.85	10823.51
931.02	10624.86
931.19	10745.69
931.36	10628.96
931.52	10594.14
931.69	10698.59
931.86	10532.70
932.02	10553.18
932.19	10463.07
932.36	10610.53
932.53	10387.30
932.69	10229.60
932.86	10491.74
933.03	10368.87
933.19	10194.79
933.36	10268.52
933.53	10121.06
933.70	9887.59
933.86	10033.00
934.03	9877.35
934.20	9789.29
934.36	9817.96
934.53	9547.63
934.70	9500.53
934.86	9695.08
935.03	9512.81
935.20	9357.17
935.36	9588.59
935.53	9326.45
935.70	9439.09
935.86	9256.82
936.03	9187.19
936.20	9027.45
936.36	8781.69
936.53	9013.11
936.70	8863.61
936.86	9097.08
937.03	8802.17
937.20	8529.79
937.36	8679.29
937.53	8234.88
937.70	8392.58
937.86	8169.35
938.03	8195.97
938.20	8302.47
938.36	7962.50
938.53	8099.72
938.70	7692.17
938.86	7694.22
939.03	7724.94
939.20	7694.22
939.36	7632.78
939.53	7454.61
939.70	7638.92
939.86	7200.66
940.03	7305.10
940.19	7067.54
940.36	6993.81
940.53	7114.64
940.69	6913.94
940.86	6926.23
941.03	6717.34
941.19	6686.62
941.36	6592.41
941.52	6801.30
941.69	6487.96
941.86	6588.32
942.02	6350.75
942.19	6299.55
942.35	6447.01
942.52	6459.29
942.69	6258.59
942.85	6059.94
943.02	6045.60
943.18	6191.01
943.35	5990.31
943.52	5924.77
943.68	5916.58
943.85	5982.12
944.01	5908.39
944.18	5711.78
944.35	5838.76
944.51	5853.09
944.68	5550.00
944.84	5574.57
945.01	5648.30
945.17	5654.44
945.34	5552.04
945.51	5726.12
945.67	5619.63
945.84	5595.05
946.00	5560.24
946.17	5556.14
946.33	5531.56
946.50	5531.56
946.67	5455.79
946.83	5414.83
947.00	5531.56
947.16	5425.07
947.33	5613.48
947.49	5586.86
947.66	5416.88
947.82	5494.70
947.99	5410.73
948.16	5484.46
948.32	5296.05
948.49	5451.69
948.65	5519.28
948.82	5525.42
948.98	5480.36
949.15	5359.53
949.31	5435.31
949.48	5457.84
949.64	5380.01
949.81	5486.51
949.97	5517.23
950.14	5588.91
950.30	5392.30
950.47	5533.61
950.63	5560.24
950.80	5539.76
950.96	5543.85
951.13	5515.18
951.30	5459.88
951.46	5560.24
951.63	5613.48
951.79	5662.63
951.96	5605.29
952.12	5728.17
952.29	5566.38
952.45	5433.26
952.62	5572.52
952.78	5416.88
952.94	5435.31
953.11	5562.28
953.27	5437.36
953.44	5597.10
953.60	5633.96
953.77	5676.97
953.93	5570.48
954.10	5648.30
954.26	5527.47
954.43	5484.46
954.59	5832.62
954.76	5699.50
954.92	5556.14
955.09	5756.84
955.25	5527.47
955.42	5572.52
955.58	5795.75
955.75	5638.06
955.91	5601.19
956.07	5769.13
956.24	5758.89
956.40	5812.14
956.57	5568.43
956.73	5517.23
956.90	5603.24
957.06	5605.29
957.23	5531.56
957.39	5500.84
957.56	5793.70
957.72	5490.60
957.88	5574.57
958.05	5685.16
958.21	5689.26
958.38	5744.55
958.54	5525.42
958.71	5883.81
958.87	5619.63
959.03	5556.14
959.20	5722.02
959.36	5633.96
959.53	5654.44
959.69	5556.14
959.85	5633.96
960.02	5443.50
960.18	5572.52
960.35	5593.00
960.51	5814.18
960.68	5613.48
960.84	5670.83
961.00	5525.42
961.17	5560.24
961.33	5590.95
961.50	5654.44
961.66	5717.93
961.82	5625.77
961.99	5648.30
962.15	5627.82
962.31	5556.14
962.48	5599.15
962.64	5599.15
962.81	5599.15
962.97	5711.78
963.13	5615.53
963.30	5590.95
963.46	5418.93
963.62	5511.08
963.79	5597.10
963.95	5498.80
964.12	5629.87
964.28	5502.89
964.44	5461.93
964.61	5521.32
964.77	5529.52
964.93	5627.82
965.10	5525.42
965.26	5353.39
965.42	5640.11
965.59	5539.76
965.75	5527.47
965.92	5500.84
966.08	5564.33
966.24	5390.25
966.41	5291.95
966.57	5425.07
966.73	5369.77
966.90	5588.91
967.06	5449.64
967.22	5377.97
967.39	5482.41
967.55	5232.56
967.71	5474.22
967.88	5466.03
968.04	5308.34
968.20	5271.47
968.37	5228.46
968.53	5236.66
968.69	5259.18
968.85	5353.39
969.02	5410.73
969.18	5404.59
969.34	5400.49
969.51	5353.39
969.67	5359.53
969.83	5236.66
970.00	5279.66
970.16	5236.66
970.32	5337.01
970.48	5359.53
970.65	5146.55
970.81	5195.70
970.97	5263.28
971.14	5150.64
971.30	5212.08
971.46	5218.22
971.63	5021.62
971.79	5158.83
971.95	5283.76
972.11	5087.15
972.28	5038.00
972.44	5095.35
972.60	5074.87
972.76	4951.99
972.93	5091.25
973.09	5097.39
973.25	5048.24
973.42	4976.56
973.58	4980.66
973.74	5050.29
973.90	4984.76
974.07	5017.52
974.23	4992.95
974.39	5017.52
974.55	4992.95
974.72	4954.04
974.88	4861.88
975.04	5005.24
975.20	5025.72
975.37	4976.56
975.53	4865.97
975.69	4886.45
975.85	4843.45
976.01	4845.49
976.18	4788.15
976.34	4868.02
976.50	4847.54
976.66	4915.12
976.83	4878.26
976.99	4845.49
977.15	4837.30
977.31	4677.56
977.47	4820.92
977.64	4816.82
977.80	4646.84
977.96	4736.95
978.12	4722.62
978.29	4706.23
978.45	4605.88
978.61	4638.65
978.77	4726.71
978.93	4626.36
979.10	4677.56
979.26	4523.96
979.42	4708.28
979.58	4591.55
979.74	4573.11
979.91	4556.73
980.07	4382.65
980.23	4587.45
980.39	4614.07
980.55	4534.20
980.71	4556.73
980.88	4491.20
981.04	4448.19
981.20	4440.00
981.36	4448.19
981.52	4378.56
981.68	4351.93
981.85	4446.14
982.01	4425.66
982.17	4440.00
982.33	4489.15
982.49	4493.24
982.65	4394.94
982.82	4446.14
982.98	4396.99
983.14	4280.25
983.30	4396.99
983.46	4419.52
983.62	4319.17
983.79	4263.87
983.95	4335.55
984.11	4259.78
984.27	4323.26
984.43	4290.49
984.59	4337.60
984.75	4360.13
984.91	4093.89
985.08	4386.75
985.24	4220.86
985.40	4124.61
985.56	4310.97
985.72	4231.10
985.88	4194.24
986.04	4138.94
986.20	4093.89
986.37	4032.45
986.53	4087.75
986.69	4206.53
986.85	4036.55
987.01	4106.18
987.17	4095.94
987.33	4009.92
987.49	4032.45
987.65	4149.18
987.82	4097.99
987.98	3952.58
988.14	4104.13
988.30	4018.11
988.46	4003.78
988.62	4016.07
988.78	3979.20
988.94	3944.39
989.10	3915.72
989.26	3909.57
989.42	3985.35
989.59	3874.76
989.75	3819.46
989.91	3905.48
990.07	3844.04
990.23	3911.62
990.39	3977.16
990.55	3852.23
990.71	3819.46
990.87	3872.71
991.03	3856.33
991.19	3692.49
991.35	3837.89
991.51	3887.04
991.67	3872.71
991.83	3817.41
992.00	3831.75
992.16	3706.82
992.32	3907.52
992.48	3737.54
992.64	3592.14
992.80	3704.78
992.96	3780.55
993.12	3809.22
993.28	3784.65
993.44	3608.52
993.60	3792.84
993.76	3672.01
993.92	3667.91
994.08	3674.06
994.24	3764.17
994.40	3649.48
994.56	3708.87
994.72	3575.75
994.88	3690.44
995.04	3602.38
995.20	3573.71
995.36	3620.81
995.52	3581.90
995.68	3502.03
995.84	3465.16
996.00	3661.77
996.16	3588.04
996.32	3514.31
996.48	3545.03
996.64	3557.32
996.80	3450.83
996.96	3565.51
997.12	3399.63
997.28	3479.50
997.44	3373.00
997.60	3399.63
997.76	3395.53
997.92	3346.38
998.08	3493.83
998.24	3360.72
998.40	3504.07
998.56	3358.67
998.72	3280.85
998.88	3360.72
999.04	3313.61
999.20	3385.29
999.36	3252.17
999.52	3434.44
999.68	3305.42
999.84	3354.57
1000.00	3317.71
1000.16	3305.42
1000.32	3268.56
1000.48	3442.64
1000.64	3254.22
1000.80	3117.01
1000.95	3237.84
1001.11	3280.85
1001.27	3241.93
1001.43	3334.09
1001.59	3209.17
1001.75	3217.36
1001.91	3194.83
1002.07	3139.54
1002.23	3153.87
1002.39	3061.71
1002.55	3139.54
1002.71	3231.69
1002.87	3104.72
1003.03	3024.85
1003.19	3194.83
1003.34	3192.78
1003.50	3157.97
1003.66	3098.58
1003.82	3133.39
1003.98	3043.28
1004.14	3045.33
1004.30	3071.95
1004.46	3026.90
1004.62	3016.66
1004.78	2969.55
1004.94	3078.10
1005.09	3053.52
1005.25	2996.18
1005.41	3012.56
1005.57	2883.54
1005.73	3010.51
1005.89	2932.69
1006.05	2944.98
1006.21	2947.03
1006.37	2942.93
1006.52	2910.16
1006.68	2871.25
1006.84	3049.43
1007.00	2924.50
1007.16	2949.08
1007.32	2940.88
1007.48	2811.86
1007.64	2977.75
1007.79	2852.82
1007.95	2826.20
1008.11	2963.41
1008.27	2959.31
1008.43	2873.30
1008.59	2842.58
1008.75	2920.40
1008.91	2893.78
1009.06	2834.39
1009.22	2885.59
1009.38	2885.59
1009.54	2826.20
1009.70	2789.33
1009.86	2820.05
1010.01	2717.65
1010.17	2764.76
1010.33	2772.95
1010.49	2832.34
1010.65	2922.45
1010.81	2764.76
1010.96	2684.89
1011.12	2707.41
1011.28	2691.03
1011.44	2815.96
1011.60	2709.46
1011.76	2678.74
1011.91	2742.23
1012.07	2688.98
1012.23	2621.40
1012.39	2545.63
1012.55	2766.81
1012.71	2600.92
1012.86	2648.02
1013.02	2619.35
1013.18	2584.54
1013.34	2678.74
1013.50	2682.84
1013.65	2697.17
1013.81	2596.82
1013.97	2562.01
1014.13	2637.78
1014.29	2615.26
1014.44	2736.09
1014.60	2549.72
1014.76	2625.50
1014.92	2562.01
1015.07	2607.06
1015.23	2641.88
1015.39	2529.24
1015.55	2545.63
1015.71	2453.47
1015.86	2426.84
1016.02	2584.54
1016.18	2469.85
1016.34	2478.04
1016.49	2475.99
1016.65	2516.95
1016.81	2502.62
1016.97	2523.10
1017.12	2541.53
1017.28	2543.58
1017.44	2369.50
1017.60	2467.80
1017.75	2516.95
1017.91	2559.96
1018.07	2379.74
1018.23	2412.51
1018.38	2430.94
1018.54	2473.95
1018.70	2449.37
1018.86	2424.80
1019.01	2416.60
1019.17	2418.65
1019.33	2541.53
1019.49	2301.92
1019.64	2394.08
1019.80	2379.74
1019.96	2428.89
1020.12	2402.27
1020.27	2383.84
1020.43	2326.49
1020.59	2428.89
1020.74	2346.97
1020.90	2428.89
1021.06	2326.49
1021.22	2389.98
1021.37	2385.88
1021.53	2289.63
1021.69	2396.12
1021.84	2183.13
1022.00	2250.72
1022.16	2252.77
1022.31	2369.50
1022.47	2340.83
1022.63	2385.88
1022.79	2240.48
1022.94	2291.68
1023.10	2416.60
1023.26	2303.96
1023.41	2154.46
1023.57	2199.52
1023.73	2244.57
1023.88	2250.72
1024.04	2215.90
1024.20	2168.80
1024.35	2336.73
1024.51	2260.96
1024.67	2191.33
1024.82	2287.58
1024.98	2099.17
1025.14	2265.05
1025.29	2179.04
1025.45	2273.25
1025.61	2215.90
1025.76	2179.04
1025.92	2088.93
1026.08	2265.05
1026.23	2234.33
1026.39	2240.48
1026.55	2213.85
1026.70	2113.50
1026.86	2195.42
1027.02	2158.56
1027.17	2250.72
1027.33	2232.29
1027.48	2174.94
1027.64	2207.71
1027.80	2127.84
1027.95	2174.94
1028.11	2033.63
1028.27	2199.52
1028.42	2158.56
1028.58	2150.37
1028.73	2181.09
1028.89	2088.93
1029.05	2179.04
1029.20	2115.55
>>>>>End Processed Spectral Data<<<<<
