SpectraSuite Data File
++++++++++++++++++++++++++++++++++++
Date: Fri Jun 02 14:52:26 CEST 2017
User: INFO_000
Dark Spectrum Present: No
Reference Spectrum Present: No
Number of Sampled Component Spectra: 1
Spectrometers: USB4H00879
Integration Time (usec): 80000 (USB4H00879)
Spectra Averaged: 1 (USB4H00879)
Boxcar Smoothing: 0 (USB4H00879)
Correct for Electrical Dark: No (USB4H00879)
Strobe/Lamp Enabled: No (USB4H00879)
Correct for Detector Non-linearity: No (USB4H00879)
Correct for Stray Light: No (USB4H00879)
Number of Pixels in Processed Spectrum: 3648
>>>>>Begin Processed Spectral Data<<<<<
345.13	1261.55
345.34	1261.55
345.56	1261.55
345.78	1314.80
345.99	1220.59
346.21	1634.28
346.42	1654.76
346.64	1677.29
346.86	1800.16
347.07	1701.86
347.29	1689.57
347.50	1650.66
347.72	1705.96
347.94	1714.15
348.15	1673.19
348.37	1652.71
348.59	1695.72
348.80	1640.42
349.02	1748.97
349.23	1869.80
349.45	1925.09
349.67	1773.54
349.88	1847.27
350.10	1920.99
350.31	1841.12
350.53	1869.80
350.75	1894.37
350.96	1783.78
351.18	1861.60
351.39	1820.64
351.61	1787.88
351.82	1896.42
352.04	1902.56
352.26	1755.11
352.47	1871.84
352.69	1871.84
352.90	1783.78
353.12	1861.60
353.34	1845.22
353.55	1978.34
353.77	1863.65
353.98	1826.79
354.20	1896.42
354.41	1947.62
354.63	1943.52
354.85	2041.82
355.06	1959.91
355.28	1769.44
355.49	1914.85
355.71	1923.04
355.92	1896.42
356.14	1992.67
356.35	1855.46
356.57	1912.80
356.79	1920.99
357.00	1923.04
357.22	1988.58
357.43	1933.28
357.65	2019.30
357.86	1863.65
358.08	1918.95
358.29	1968.10
358.51	2056.16
358.72	1974.24
358.94	1951.71
359.16	1970.15
359.37	1939.43
359.59	1961.95
359.80	1976.29
360.02	1904.61
360.23	1908.71
360.45	2004.96
360.66	1976.29
360.88	1806.31
361.09	1918.95
361.31	2009.06
361.52	1929.19
361.74	2101.22
361.95	2070.50
362.17	1945.57
362.38	2144.22
362.60	2115.55
362.81	2027.49
363.03	1980.39
363.24	2039.78
363.46	2150.37
363.67	1980.39
363.89	2019.30
364.10	2025.44
364.32	1947.62
364.53	2054.11
364.75	1916.90
364.96	2107.36
365.18	2019.30
365.39	2050.02
365.61	1851.36
365.82	2097.12
366.04	1918.95
366.25	1966.05
366.47	2031.58
366.68	2056.16
366.90	2004.96
367.11	2111.46
367.33	2037.73
367.54	2117.60
367.76	2062.30
367.97	2121.70
368.19	2064.35
368.40	2133.98
368.62	1966.05
368.83	1982.43
369.05	2072.54
369.26	1976.29
369.48	2025.44
369.69	1939.43
369.91	2127.84
370.12	2103.26
370.33	2164.70
370.55	1908.71
370.76	2050.02
370.98	2148.32
371.19	2037.73
371.41	2050.02
371.62	2064.35
371.84	2041.82
372.05	2189.28
372.27	2011.11
372.48	2056.16
372.69	2068.45
372.91	2213.85
373.12	2240.48
373.34	2004.96
373.55	2179.04
373.77	2176.99
373.98	2105.31
374.20	2275.29
374.41	2338.78
374.62	2121.70
374.84	2193.37
375.05	2152.42
375.27	2195.42
375.48	2166.75
375.70	2174.94
375.91	2203.61
376.12	2326.49
376.34	2158.56
376.55	2248.67
376.77	2199.52
376.98	2121.70
377.19	2168.80
377.41	2123.74
377.62	2230.24
377.84	2283.49
378.05	2387.93
378.27	2303.96
378.48	2297.82
378.69	2418.65
378.91	2373.60
379.12	2220.00
379.34	2244.57
379.55	2379.74
379.76	2289.63
379.98	2279.39
380.19	2211.81
380.41	2254.81
380.62	2306.01
380.83	2238.43
381.05	2250.72
381.26	2363.36
381.47	2201.57
381.69	2230.24
381.90	2435.03
382.12	2246.62
382.33	2222.05
382.54	2400.22
382.76	2283.49
382.97	2383.84
383.19	2232.29
383.40	2349.02
383.61	2367.45
383.83	2263.01
384.04	2293.72
384.25	2310.11
384.47	2428.89
384.68	2396.12
384.89	2299.87
385.11	2318.30
385.32	2365.40
385.54	2478.04
385.75	2383.84
385.96	2342.88
386.18	2402.27
386.39	2461.66
386.60	2398.17
386.82	2478.04
387.03	2328.54
387.24	2525.15
387.46	2416.60
387.67	2521.05
387.88	2600.92
388.10	2543.58
388.31	2418.65
388.52	2580.44
388.74	2432.99
388.95	2461.66
389.16	2590.68
389.38	2463.71
389.59	2596.82
389.80	2574.30
390.02	2584.54
390.23	2664.41
390.44	2598.87
390.66	2576.34
390.87	2559.96
391.08	2607.06
391.30	2703.32
391.51	2697.17
391.72	2615.26
391.94	2709.46
392.15	2658.26
392.36	2588.63
392.58	2682.84
392.79	2643.93
393.00	2699.22
393.22	2885.59
393.43	2742.23
393.64	2801.62
393.85	2801.62
394.07	2654.17
394.28	2811.86
394.49	2803.67
394.71	2809.81
394.92	2887.64
395.13	2748.37
395.35	2756.57
395.56	2779.09
395.77	2832.34
395.98	2856.92
396.20	2852.82
396.41	2942.93
396.62	2863.06
396.84	2889.68
397.05	2934.74
397.26	2973.65
397.47	3114.96
397.69	2910.16
397.90	3102.67
398.11	3028.95
398.32	2990.03
398.54	2942.93
398.75	2883.54
398.96	2994.13
399.18	3186.64
399.39	3000.27
399.60	3182.54
399.81	2990.03
400.03	2955.22
400.24	3295.18
400.45	3049.43
400.66	3182.54
400.88	3102.67
401.09	3301.33
401.30	3151.82
401.51	3264.46
401.73	3209.17
401.94	3127.25
402.15	3225.55
402.36	3256.27
402.58	3164.11
402.79	3262.41
403.00	3284.94
403.21	3346.38
403.43	3352.52
403.64	3258.32
403.85	3135.44
404.06	3231.69
404.27	3200.98
404.49	3284.94
404.70	3321.81
404.91	3307.47
405.12	3301.33
405.34	3293.13
405.55	3440.59
405.76	3272.65
405.97	3276.75
406.19	3473.36
406.40	3153.87
406.61	3319.76
406.82	3526.60
407.03	3342.28
407.25	3311.57
407.46	3440.59
407.67	3444.68
407.88	3545.03
408.09	3442.64
408.31	3526.60
408.52	3317.71
408.73	3479.50
408.94	3401.68
409.15	3450.83
409.37	3504.07
409.58	3497.93
409.79	3602.38
410.00	3624.90
410.21	3485.64
410.43	3485.64
410.64	3547.08
410.85	3649.48
411.06	3506.12
411.27	3633.10
411.48	3657.67
411.70	3641.29
411.91	3678.15
412.12	3604.42
412.33	3612.62
412.54	3764.17
412.76	3821.51
412.97	3760.07
413.18	3481.55
413.39	3645.38
413.60	3604.42
413.81	3696.58
414.03	3604.42
414.24	3772.36
414.45	3909.57
414.66	3631.05
414.87	3780.55
415.08	3717.06
415.30	3796.93
415.51	3745.73
415.72	3831.75
415.93	3758.02
416.14	3821.51
416.35	3962.82
416.56	3624.90
416.78	3733.45
416.99	3839.94
417.20	3827.65
417.41	3919.81
417.62	3813.32
417.83	3919.81
418.04	3932.10
418.26	4044.74
418.47	3846.09
418.68	4022.21
418.89	3952.58
419.10	4036.55
419.31	4067.27
419.52	4052.93
419.73	4054.98
419.95	4124.61
420.16	3923.91
420.37	3915.72
420.58	4177.86
420.79	3893.19
421.00	4122.56
421.21	4220.86
421.42	4116.42
421.63	4106.18
421.85	3971.01
422.06	4173.76
422.27	4321.21
422.48	4235.20
422.69	4329.41
422.90	4282.30
423.11	4194.24
423.32	4362.17
423.53	4304.83
423.75	4317.12
423.96	4452.28
424.17	4474.81
424.38	4485.05
424.59	4444.09
424.80	4616.12
425.01	4523.96
425.22	4474.81
425.43	4386.75
425.64	4695.99
425.85	4673.46
426.06	4599.74
426.28	4497.34
426.49	4614.07
426.70	4390.84
426.91	4739.00
427.12	4812.73
427.33	4657.08
427.54	4569.02
427.75	4820.92
427.96	4724.66
428.17	4816.82
428.38	4847.54
428.59	4972.47
428.80	4874.17
429.01	4868.02
429.23	5007.28
429.44	5162.93
429.65	4941.75
429.86	4937.65
430.07	4986.80
430.28	4845.49
430.49	5095.35
430.70	5121.97
430.91	5087.15
431.12	5119.92
431.33	5388.21
431.54	5271.47
431.75	5156.79
431.96	5230.51
432.17	5277.62
432.38	5250.99
432.59	5439.40
432.80	5353.39
433.01	5232.56
433.22	5384.11
433.43	5332.91
433.64	5492.65
433.85	5373.87
434.06	5441.45
434.27	5420.97
434.49	5420.97
434.70	5558.19
434.91	5427.12
435.12	5529.52
435.33	5650.35
435.54	5668.78
435.75	5552.04
435.96	5525.42
436.17	5660.59
436.38	5803.94
436.59	5750.70
436.80	5691.31
437.01	6029.22
437.22	5957.54
437.43	5859.24
437.64	5670.83
437.85	5932.97
438.06	6014.88
438.27	5808.04
438.48	5740.46
438.69	6039.46
438.90	6102.95
439.11	6018.98
439.32	6098.85
439.53	6111.14
439.74	6000.55
439.95	6133.67
440.16	6064.04
440.37	6102.95
440.57	6006.69
440.78	6156.19
440.99	6211.49
441.20	6137.76
441.41	6168.48
441.62	6172.58
441.83	6041.51
442.04	6236.06
442.25	6289.31
442.46	6332.32
442.67	6344.61
442.88	6561.69
443.09	6320.03
443.30	6256.54
443.51	6416.29
443.72	6676.38
443.93	6367.13
444.14	6662.04
444.35	6395.81
444.56	6606.75
444.77	6512.54
444.98	6633.37
445.19	6739.87
445.40	6463.39
445.61	6545.31
445.81	6719.39
446.02	6619.04
446.23	6645.66
446.44	6479.77
446.65	6666.14
446.86	6659.99
447.07	6784.92
447.28	6883.22
447.49	6844.31
447.70	6784.92
447.91	6926.23
448.12	6791.06
448.33	6946.71
448.54	6909.85
448.74	6801.30
448.95	6940.57
449.16	7071.64
449.37	7294.86
449.58	6983.57
449.79	7276.43
450.00	6840.22
450.21	7024.53
450.42	7114.64
450.63	7241.62
450.84	7229.33
451.05	7182.23
451.25	7063.44
451.46	7108.50
451.67	7419.79
451.88	7384.98
452.09	7317.39
452.30	7169.94
452.51	7315.34
452.72	7526.29
452.93	7853.96
453.13	7421.84
453.34	7272.34
453.55	7520.14
453.76	7450.51
453.97	7694.22
454.18	7622.54
454.39	7757.71
454.60	7565.20
454.81	7638.92
455.01	7774.09
455.22	7653.26
455.43	7679.88
455.64	7841.67
455.85	7923.59
456.06	8048.52
456.27	7901.06
456.48	7888.78
456.68	8056.71
456.89	7978.89
457.10	8130.44
457.31	8159.11
457.52	7970.69
457.73	8155.01
457.94	8568.70
458.14	8060.80
458.35	8408.96
458.56	8191.88
458.77	8128.39
458.98	8376.19
459.19	8220.55
459.39	8576.89
459.60	8730.49
459.81	8269.70
460.02	8716.16
460.23	8476.54
460.44	8832.89
460.65	8867.70
460.85	8632.19
461.06	8763.26
461.27	8669.05
461.48	8982.39
461.69	8992.63
461.89	8626.04
462.10	8982.39
462.31	8859.51
462.52	8902.52
462.73	8871.80
462.94	9396.08
463.14	9228.15
463.35	9086.84
463.56	9607.02
463.77	9338.74
463.98	9162.61
464.18	9244.53
464.39	9523.05
464.60	9699.18
464.81	9635.69
465.02	9473.90
465.23	9906.02
465.43	9580.40
465.64	9744.24
465.85	9908.07
466.06	9777.00
466.27	10014.57
466.47	10127.21
466.68	10022.76
466.89	10151.78
467.10	9998.18
467.30	9987.94
467.51	10319.71
467.72	10319.71
467.93	9983.85
468.14	10248.04
468.34	10487.65
468.55	10577.76
468.76	10567.52
468.97	10350.43
469.17	10776.41
469.38	10927.96
469.59	10950.49
469.80	10676.06
470.01	10790.75
470.21	10846.04
470.42	11157.33
470.63	11321.17
470.84	11083.61
471.04	11190.10
471.25	11476.82
471.46	11171.67
471.67	11562.83
471.87	11589.46
472.08	11628.37
472.29	11775.82
472.50	11534.16
472.70	11706.19
472.91	11816.78
473.12	11872.07
473.33	11843.40
473.53	12396.35
473.74	12138.31
473.95	12312.39
474.16	12373.83
474.36	12275.52
474.57	12709.69
474.78	12922.68
474.99	12775.23
475.19	12691.26
475.40	12783.42
475.61	12939.07
475.81	13219.64
476.02	13354.80
476.23	13074.23
476.44	13365.04
476.64	13594.42
476.85	13537.07
477.06	13653.81
477.27	13891.37
477.47	13872.94
477.68	13936.43
477.89	14171.94
478.09	14171.94
478.30	14200.62
478.51	14337.83
478.71	14436.13
478.92	14446.37
479.13	14548.77
479.34	14702.37
479.54	14780.19
479.75	14835.49
479.96	14798.62
480.16	15030.04
480.37	15312.66
480.58	15273.75
480.78	15259.42
480.99	15480.60
481.20	15572.75
481.41	15726.35
481.61	15679.25
481.82	15879.95
482.03	15961.87
482.23	15822.61
482.44	16314.12
482.65	16486.15
482.85	16373.51
483.06	16336.65
483.27	16654.08
483.47	16744.19
483.68	16692.99
483.89	16969.47
484.09	16854.78
484.30	17176.31
484.51	17262.33
484.71	17321.72
484.92	17544.95
485.13	17649.39
485.33	17733.36
485.54	17786.61
485.75	18065.13
485.95	17940.21
486.16	18058.99
486.37	18177.77
486.57	18028.27
486.78	18106.09
486.98	18482.92
487.19	18509.54
487.40	18597.60
487.60	18677.48
487.81	19048.16
488.02	18931.42
488.22	19091.16
488.43	19316.44
488.64	19080.92
488.84	19416.79
489.05	19623.64
489.25	19521.24
489.46	19924.69
489.67	19609.30
489.87	20029.13
490.08	19705.56
490.29	19769.04
490.49	20655.81
490.70	20254.41
490.90	20573.89
491.11	20278.99
491.32	20668.10
491.52	20428.49
491.73	20860.61
491.94	20776.64
492.14	20631.24
492.35	21163.71
492.55	20860.61
492.76	21094.08
492.97	21321.40
493.17	21139.13
493.38	21675.70
493.58	21747.38
493.79	21841.59
494.00	21780.15
494.20	21628.60
494.41	22105.77
494.61	22005.42
494.82	21909.17
495.02	22163.12
495.23	22030.00
495.44	22226.60
495.64	22664.87
495.85	22560.42
496.05	22462.12
496.26	22316.72
496.47	22787.75
496.67	22767.27
496.88	22783.65
497.08	22363.82
497.29	23039.65
497.49	23017.12
497.70	23357.08
497.91	23418.52
498.11	23355.04
498.32	23520.92
498.52	23713.43
498.73	23817.88
498.93	23445.15
499.14	23727.77
499.34	24125.07
499.55	24182.42
499.76	24211.09
499.96	24043.15
500.17	24102.54
500.37	24317.58
500.58	24141.46
500.78	24393.36
500.99	24528.52
501.19	24360.59
501.40	24608.39
501.60	24499.85
501.81	24571.53
502.02	24577.67
502.22	24536.71
502.43	24948.36
502.63	24856.20
502.84	24856.20
503.04	24901.25
503.25	24843.91
503.45	24723.08
503.66	25112.19
503.86	25276.03
504.07	25593.47
504.27	25233.02
504.48	25431.68
504.68	25679.48
504.89	25831.03
505.09	25894.52
505.30	25536.12
505.50	25585.27
505.71	25738.87
505.91	25964.15
506.12	26050.16
506.32	25990.77
506.53	26064.50
506.73	26175.09
506.94	26132.08
507.14	25972.34
507.35	25806.45
507.55	26191.47
507.76	26314.35
507.96	26236.53
508.17	26375.79
508.37	26521.20
508.58	26390.13
508.78	26670.70
508.99	26857.06
509.19	26867.30
509.40	26613.35
509.60	26697.32
509.81	26617.45
510.01	26789.48
510.22	26629.74
510.42	26973.80
510.63	27143.78
510.83	26969.70
511.04	26846.82
511.24	27244.13
511.44	26977.89
511.65	27090.53
511.85	27215.46
512.06	27242.08
512.26	27035.24
512.47	27393.63
512.67	27262.56
512.88	27424.35
513.08	27039.33
513.29	27692.63
513.49	27258.46
513.69	27653.72
513.90	27702.87
514.10	27598.43
514.31	27731.54
514.51	27772.50
514.72	27866.71
514.92	27678.30
515.13	27569.76
515.33	27831.90
515.53	28085.84
515.74	27895.38
515.94	27848.28
516.15	28227.15
516.35	27590.24
516.56	28243.54
516.76	27969.11
516.96	28003.92
517.17	28241.49
517.37	28350.03
517.58	28585.55
517.78	28290.64
517.99	28630.60
518.19	28683.85
518.39	28624.46
518.60	28556.88
518.80	28423.76
519.01	28634.70
519.21	28831.30
519.41	28898.89
519.62	28743.24
519.82	29087.30
520.03	29216.32
520.23	29013.57
520.43	28945.99
520.64	29316.67
520.84	29638.20
521.05	29347.39
521.25	29636.16
521.45	29453.89
521.66	29521.47
521.86	29556.28
522.07	29707.83
522.27	29568.57
522.47	29548.09
522.68	30060.09
522.88	29716.03
523.08	30103.09
523.29	30133.81
523.49	30228.02
523.70	30281.27
523.90	30160.44
524.10	30154.29
524.31	30619.18
524.51	30201.40
524.71	30875.18
524.92	30664.24
525.12	30893.61
525.33	30922.28
525.53	30989.86
525.73	31096.36
525.94	30916.14
526.14	30901.80
526.34	30891.56
526.55	31118.89
526.75	31202.85
526.95	31344.16
527.16	31247.91
527.36	31411.74
527.56	31651.36
527.77	31680.03
527.97	31800.86
528.17	31944.22
528.38	32138.77
528.58	31923.74
528.78	32357.91
528.99	32388.63
529.19	32163.35
529.39	32216.60
529.60	32691.73
529.80	32398.87
530.00	32388.63
530.21	32493.07
530.41	32890.38
530.61	32880.14
530.82	33170.95
531.02	33320.45
531.22	32800.27
531.43	33220.10
531.63	33537.54
531.83	33388.03
532.04	33779.20
532.24	33529.34
532.44	34090.49
532.64	34043.38
532.85	34002.43
533.05	34043.38
533.25	34416.11
533.46	34278.90
533.66	34518.51
533.86	34450.93
534.07	34528.75
534.27	34627.06
534.47	34829.80
534.67	35065.32
534.88	34954.73
535.08	34848.24
535.28	35491.30
535.49	35331.56
535.69	35552.74
535.89	35476.96
536.09	35671.52
536.30	36042.20
536.50	35708.38
536.70	35939.80
536.91	35659.23
537.11	36066.78
537.31	36079.07
537.51	36353.49
537.72	36642.26
537.92	36599.25
538.12	37023.18
538.32	37000.65
538.53	37152.20
538.73	36943.31
538.93	36935.12
539.13	37041.61
539.34	37049.80
539.54	37373.38
539.74	37490.12
539.94	37633.47
540.15	37074.38
540.35	37744.06
540.55	37901.76
540.75	37934.53
540.96	38358.45
541.16	38041.02
541.36	38294.97
541.56	38034.88
541.77	38419.89
541.97	38485.43
542.17	38593.97
542.37	38479.28
542.58	38524.34
542.78	38657.46
542.98	38663.60
543.18	39140.78
543.38	39321.00
543.59	39556.52
543.79	39007.66
543.99	39146.92
544.19	39333.29
544.40	39382.44
544.60	39603.62
544.80	39562.66
545.00	39607.72
545.20	39814.56
545.41	39896.48
545.61	39679.39
545.81	40185.24
546.01	40287.64
546.21	39728.55
546.42	40304.02
546.62	40627.60
546.82	40224.15
547.02	40535.45
547.22	40717.71
547.43	40830.35
547.63	41090.44
547.83	40560.02
548.03	40467.86
548.23	41276.81
548.44	40926.61
548.64	40916.37
548.84	41035.15
549.04	41137.55
549.24	41633.16
549.45	41653.64
549.65	41219.47
549.85	41510.28
550.05	41899.39
550.25	41524.61
550.45	42104.19
550.66	41719.17
550.86	41579.91
551.06	42268.03
551.26	41624.96
551.46	42229.12
551.66	42386.81
551.87	42085.76
552.07	42057.09
552.27	42317.18
552.47	42950.00
552.67	42628.47
552.87	42804.59
553.07	42677.62
553.28	42483.06
553.48	42509.69
553.68	42415.48
553.88	42927.47
554.08	42952.05
554.28	42884.47
554.48	42884.47
554.69	42964.34
554.89	43232.62
555.09	43148.65
555.29	43081.07
555.49	43509.10
555.69	43296.11
555.89	43332.97
556.10	43683.17
556.30	43564.39
556.50	43593.06
556.70	43378.03
556.90	44146.01
557.10	43820.39
557.30	43894.11
557.50	43591.01
557.70	44045.66
557.91	44146.01
558.11	44440.92
558.31	44377.43
558.51	44625.24
558.71	44485.98
558.91	44553.56
559.11	44459.35
559.31	44526.94
559.51	43998.56
559.72	44619.10
559.92	44524.89
560.12	44797.27
560.32	44905.81
560.52	44494.17
560.72	44637.53
560.92	45112.66
561.12	44600.66
561.32	45219.15
561.52	44670.29
561.72	45167.95
561.93	44803.41
562.13	44586.33
562.33	45196.62
562.53	45225.29
562.73	44875.09
562.93	44893.52
563.13	45282.64
563.33	45276.49
563.53	45198.67
563.73	44846.42
563.93	45395.28
564.13	45579.59
564.33	45434.19
564.53	45442.38
564.74	45520.20
564.94	45485.39
565.14	45262.16
565.34	45708.61
565.54	45522.25
565.74	45649.22
565.94	45778.25
566.14	45665.61
566.34	45489.48
566.54	45974.85
566.74	45276.49
566.94	46079.30
567.14	45956.42
567.34	45716.81
567.54	46177.60
567.74	45929.80
567.94	45811.01
568.14	46208.32
568.34	46470.46
568.54	46036.29
568.74	45942.08
568.94	45868.36
569.14	46499.13
569.34	45950.27
569.54	46001.47
569.75	45894.98
569.95	46013.76
570.15	46345.53
570.35	46495.03
570.55	46773.56
570.75	46392.64
570.95	46495.03
571.15	46693.69
571.35	46382.40
571.55	46740.79
571.75	46402.88
571.95	46961.97
572.15	46708.02
572.35	46918.96
572.55	46617.91
572.75	46744.89
572.95	46556.47
573.15	46898.48
573.35	46439.74
573.55	46505.27
573.75	47113.52
573.95	47418.67
574.15	46761.27
574.35	46931.25
574.55	47437.10
574.75	46601.53
574.95	46884.15
575.15	46796.09
575.34	47199.54
575.54	47361.33
575.74	47357.23
575.94	47396.14
576.14	47332.65
576.34	47510.83
576.54	47254.83
576.74	47449.39
576.94	47150.38
577.14	47734.06
577.34	47273.26
577.54	47519.02
577.74	48020.77
577.94	47734.06
578.14	47545.64
578.34	47969.57
578.54	47308.08
578.74	47656.23
578.94	47709.48
579.14	47437.10
579.34	47535.40
579.54	47672.62
579.74	47785.25
579.94	47963.43
580.13	48102.69
580.33	48149.79
580.53	48119.07
580.73	47998.24
580.93	48182.56
581.13	48094.50
581.33	48420.13
581.53	48317.73
581.73	48379.17
581.93	48399.65
582.13	48305.44
582.33	48528.67
582.53	47949.09
582.73	48739.61
582.92	48313.63
583.12	48717.08
583.32	48624.92
583.52	48485.66
583.72	48958.74
583.92	48755.99
584.12	48547.10
584.32	49024.28
584.52	49231.12
584.72	48420.13
584.92	48502.04
585.11	49337.62
585.31	48839.96
585.51	48956.69
585.71	49001.75
585.91	49061.14
586.11	49048.85
586.31	48938.26
586.51	49093.91
586.71	49272.08
586.91	49081.62
587.10	49407.25
587.30	49478.92
587.50	49292.56
587.70	49468.69
587.90	49190.16
588.10	49456.40
588.30	49315.09
588.50	49523.98
588.69	49173.78
588.89	49257.74
589.09	49255.70
589.29	49476.88
589.49	49798.41
589.69	48866.58
589.89	49935.62
590.08	49749.26
590.28	49581.32
590.48	49716.49
590.68	49239.31
590.88	49202.45
591.08	49962.25
591.28	49368.33
591.47	50234.63
591.67	49640.71
591.87	49665.29
592.07	49790.22
592.27	49835.27
592.47	49749.26
592.67	49970.44
592.86	49458.45
593.06	50279.68
593.26	50242.82
593.46	50099.46
593.66	50119.94
593.86	49995.01
594.05	50220.29
594.25	50367.74
594.45	49863.94
594.65	50056.45
594.85	50244.87
595.05	50453.76
595.24	50193.67
595.44	50222.34
595.64	50238.72
595.84	50531.58
596.04	50377.98
596.23	50183.43
596.43	50494.72
596.63	50879.74
596.83	50404.61
597.03	51033.33
597.22	50947.32
597.42	51111.16
597.62	50906.36
597.82	50687.23
598.02	51123.44
598.21	51332.34
598.41	50744.57
598.61	51080.44
598.81	51055.86
599.01	50744.57
599.20	51143.92
599.40	50799.86
599.60	51324.14
599.80	51152.12
600.00	51328.24
600.19	51614.96
600.39	51238.13
600.59	51459.31
600.79	51713.26
600.98	51467.50
601.18	51985.64
601.38	51664.11
601.58	51647.72
601.78	51784.94
601.97	52016.36
602.17	52446.43
602.37	52067.56
602.57	52215.01
602.76	52135.14
602.96	52053.22
603.16	51698.92
603.36	52008.17
603.55	52423.90
603.75	52065.51
603.95	52202.72
604.15	52253.92
604.34	52313.31
604.54	52577.50
604.74	52442.34
604.94	52417.76
605.13	52647.13
605.33	52604.13
605.53	52538.59
605.73	52847.83
605.92	52557.02
606.12	52815.07
606.32	52993.24
606.52	52804.83
606.71	52647.13
606.91	53583.05
607.11	53058.77
607.30	53019.86
607.50	53097.69
607.70	53120.21
607.90	53388.50
608.09	53138.65
608.29	53581.01
608.49	53773.52
608.68	53494.99
608.88	53761.23
609.08	53605.58
609.28	53683.40
609.47	53490.90
609.67	53963.98
609.87	53761.23
610.06	53568.72
610.26	53685.45
610.46	53568.72
610.66	53791.95
610.85	54117.57
611.05	53644.49
611.25	53867.72
611.44	53806.28
611.64	53654.73
611.84	53753.04
612.03	54236.36
612.23	54119.62
612.43	53638.35
612.62	53757.13
612.82	54596.80
613.02	54113.48
613.21	54084.81
613.41	54183.11
613.61	54363.33
613.80	53941.45
614.00	54258.88
614.20	54197.44
614.39	54465.73
614.59	54901.95
614.79	54424.77
614.98	54566.08
615.18	54078.66
615.38	54856.89
615.57	54432.96
615.77	54752.44
615.97	54580.42
616.16	54435.01
616.36	54072.52
616.56	54756.54
616.75	54918.33
616.95	54396.10
617.15	54731.96
617.34	54758.59
617.54	54342.85
617.74	54785.21
617.93	54686.91
618.13	54412.48
618.32	54748.35
618.52	54523.07
618.72	54768.83
618.91	54922.43
619.11	54531.26
619.31	55008.44
619.50	54719.68
619.70	54617.28
619.90	54844.60
620.09	55030.97
620.29	54652.09
620.48	54764.73
620.68	55137.46
620.88	54373.57
621.07	54811.84
621.27	54854.84
621.46	54670.53
621.66	54799.55
621.86	54760.64
622.05	54619.33
622.25	55276.72
622.44	54940.86
622.64	54881.47
622.84	55235.77
623.03	54815.93
623.23	55262.39
623.42	55030.97
623.62	55366.84
623.82	55573.68
624.01	55051.45
624.21	55436.47
624.40	55137.46
624.60	55020.73
624.80	55008.44
624.99	55766.19
625.19	54928.57
625.38	55317.68
625.58	55497.91
625.77	55637.17
625.97	55481.52
626.17	55123.13
626.36	54951.10
626.56	55547.06
626.75	54914.23
626.95	55336.12
627.14	55370.93
627.34	56087.72
627.54	55622.83
627.73	55872.68
627.93	55272.63
628.12	55665.84
628.32	55375.03
628.51	55121.08
628.71	55579.82
628.90	55370.93
629.10	55608.50
629.30	55702.70
629.49	55868.59
629.69	55628.98
629.88	55815.34
630.08	56083.62
630.27	56036.52
630.47	56032.42
630.66	55973.03
630.86	55850.16
631.05	55491.76
631.25	55981.23
631.44	56218.79
631.64	55805.10
631.84	56026.28
632.03	56495.27
632.23	55921.83
632.42	56425.64
632.62	56110.25
632.81	55608.50
633.01	56081.58
633.20	56571.04
633.40	56046.76
633.59	56292.52
633.79	56241.32
633.98	56083.62
634.18	56638.62
634.37	56173.73
634.57	56368.29
634.76	56450.21
634.96	56663.20
635.15	57031.83
635.35	56300.71
635.54	56257.70
635.74	56847.52
635.93	56542.37
636.13	56614.05
636.32	56687.78
636.52	56636.58
636.71	56695.97
636.91	56530.08
637.10	57326.74
637.30	56657.06
637.49	56736.93
637.69	56255.65
637.88	57181.34
638.08	56579.23
638.27	57232.53
638.46	56603.81
638.66	56532.13
638.85	56923.29
639.05	57058.46
639.24	57185.43
639.44	56997.02
639.63	56898.72
639.83	57402.52
640.02	57103.51
640.22	57138.33
640.41	57212.06
640.61	56743.07
640.80	57427.09
640.99	57035.93
641.19	57578.64
641.38	57758.86
641.58	57353.36
641.77	57506.96
641.97	57257.11
642.16	57062.55
642.36	57781.39
642.55	57746.57
642.74	56890.52
642.94	58006.67
643.13	57156.76
643.33	57750.67
643.52	57490.58
643.72	57875.60
643.91	57519.25
644.10	58016.91
644.30	58037.39
644.49	57128.09
644.69	58291.33
644.88	57390.23
645.08	57701.52
645.27	57873.55
645.46	57484.43
645.66	58158.22
645.85	57685.14
646.05	57732.24
646.24	57885.84
646.43	57758.86
646.63	58016.91
646.82	58143.88
647.02	58473.60
647.21	58567.81
647.40	57945.23
647.60	58397.83
647.79	58242.18
647.99	58131.59
648.18	58393.73
648.37	58629.25
648.57	58320.01
648.76	58305.67
648.96	58305.67
649.15	58363.01
649.34	57947.28
649.54	58455.17
649.73	57959.56
649.92	58317.96
650.12	58551.43
650.31	58637.44
650.51	58823.81
650.70	58643.59
650.89	58524.80
651.09	58834.05
651.28	58758.27
651.47	58467.46
651.67	58762.37
651.86	58784.90
652.06	58229.90
652.25	58817.66
652.44	58637.44
652.64	58418.31
652.83	58190.98
653.02	58635.39
653.22	58963.07
653.41	58440.84
653.60	58348.68
653.80	58596.48
653.99	58643.59
654.18	58489.99
654.38	58602.63
654.57	58881.15
654.76	58463.36
654.96	58582.15
655.15	58461.32
655.34	58807.42
655.54	58047.63
655.73	58666.11
655.92	58688.64
656.12	58741.89
656.31	58950.78
656.50	58614.91
656.70	58915.96
656.89	58727.55
657.08	58905.73
657.28	59122.81
657.47	58846.33
657.66	58768.51
657.86	58670.21
658.05	58946.68
658.24	59036.80
658.43	59028.60
658.63	59067.51
658.82	58987.64
659.01	59270.26
659.21	59266.17
659.40	59069.56
659.59	58471.56
659.79	58344.58
659.98	58819.71
660.17	58905.73
660.36	58604.67
660.56	59143.29
660.75	58848.38
660.94	59028.60
661.14	58692.74
661.33	59219.06
661.52	58727.55
661.71	59587.70
661.91	58668.16
662.10	58436.74
662.29	58567.81
662.49	58438.79
662.68	58950.78
662.87	58784.90
663.06	58670.21
663.26	59241.59
663.45	59223.16
663.64	58600.58
663.83	58971.26
664.03	59094.14
664.22	58860.67
664.41	58821.76
664.60	58739.84
664.80	58944.64
664.99	59040.89
665.18	58743.94
665.37	58653.82
665.57	58809.47
665.76	58705.02
665.95	59063.42
666.14	58897.53
666.34	59085.95
666.53	58827.90
666.72	58838.14
666.91	58563.71
667.11	58825.85
667.30	58487.94
667.49	58737.79
667.68	58416.26
667.87	58516.61
668.07	58766.46
668.26	58776.70
668.45	58457.22
668.64	58553.47
668.84	58918.01
669.03	58711.17
669.22	58520.71
669.41	58795.13
669.60	58334.34
669.80	58465.41
669.99	58885.25
670.18	58506.37
670.37	58668.16
670.57	58897.53
670.76	58512.52
670.95	58432.64
671.14	58303.62
671.33	58205.32
671.53	58406.02
671.72	58453.12
671.91	58414.21
672.10	58023.05
672.29	58774.66
672.48	58051.72
672.68	58924.16
672.87	58397.83
673.06	58360.97
673.25	57965.71
673.44	57736.34
673.64	58307.72
673.83	57930.89
674.02	57726.10
674.21	58233.99
674.40	58305.67
674.59	57812.11
674.79	57615.50
674.98	57562.26
675.17	57828.49
675.36	57676.94
675.55	57742.48
675.74	57611.41
675.94	57408.66
676.13	57891.98
676.32	57570.45
676.51	58010.76
676.70	57797.77
676.89	57506.96
677.08	58080.39
677.28	57945.23
677.47	57750.67
677.66	57760.91
677.85	57566.35
678.04	58047.63
678.23	57777.29
678.42	57433.24
678.62	57521.30
678.81	57990.28
679.00	57447.57
679.19	57924.75
679.38	57615.50
679.57	57126.04
679.76	57412.76
679.96	57484.43
680.15	57595.03
680.34	57623.70
680.53	57379.99
680.72	57269.40
680.91	57246.87
681.10	57328.79
681.29	57365.65
681.48	57019.55
681.68	57214.10
681.87	56759.45
682.06	57271.45
682.25	56659.10
682.44	56763.55
682.63	56949.92
682.82	56439.97
683.01	56659.10
683.20	56394.92
683.39	56861.85
683.59	56245.41
683.78	56206.50
683.97	56325.28
684.16	56544.42
684.35	56220.84
684.54	56157.35
684.73	55956.65
684.92	56149.16
685.11	56306.85
685.30	56140.97
685.49	56620.19
685.69	56118.44
685.88	56601.76
686.07	55887.02
686.26	56423.59
686.45	56403.11
686.64	56409.25
686.83	56011.95
687.02	56128.68
687.21	55991.47
687.40	56472.74
687.59	56384.68
687.78	56020.14
687.97	55925.93
688.16	55753.90
688.35	55743.66
688.54	55680.17
688.74	55934.12
688.93	55772.33
689.12	55502.00
689.31	55454.90
689.50	55805.10
689.69	55276.72
689.88	55315.64
690.07	55375.03
690.26	55542.96
690.45	55770.28
690.64	55475.38
690.83	55418.03
691.02	54762.68
691.21	55221.43
691.40	54783.16
691.59	55411.89
691.78	55272.63
691.97	55227.57
692.16	55229.62
692.35	55661.74
692.54	55231.67
692.73	55225.53
692.92	55200.95
693.11	54887.61
693.30	54754.49
693.49	54969.53
693.68	54920.38
693.87	54754.49
694.06	54484.16
694.25	54334.66
694.44	54387.91
694.63	54979.77
694.82	54641.85
695.01	54711.49
695.20	54516.93
695.39	54303.94
695.58	54338.75
695.77	54125.77
695.96	54222.02
696.15	54426.82
696.34	54342.85
696.53	54289.60
696.72	54957.24
696.91	54338.75
697.10	54498.50
697.29	53744.84
697.48	54262.98
697.67	54369.47
697.86	53877.96
698.05	53548.24
698.24	54056.14
698.43	53267.67
698.62	53628.11
698.81	53695.69
699.00	54236.36
699.19	53847.24
699.38	53810.38
699.57	53488.85
699.76	54357.19
699.95	53572.81
700.14	53421.26
700.32	53552.33
700.51	53589.20
700.70	53605.58
700.89	54099.14
701.08	53351.63
701.27	53814.47
701.46	53378.26
701.65	52952.28
701.84	53388.50
702.03	53470.42
702.22	53077.21
702.41	53458.13
702.60	53470.42
702.79	53239.00
702.98	53394.64
703.17	53282.00
703.35	52770.01
703.54	52894.94
703.73	53224.66
703.92	53003.48
704.11	53007.58
704.30	52561.12
704.49	52370.66
704.68	52387.04
704.87	52790.49
705.06	52903.13
705.25	52651.23
705.43	52573.41
705.62	52499.68
705.81	52518.11
706.00	52548.83
706.19	52614.37
706.38	52217.06
706.57	52397.28
706.76	52147.43
706.95	52204.77
707.14	52346.08
707.32	51864.81
707.51	52122.85
707.70	52245.73
707.89	51934.44
708.08	52542.69
708.27	52116.71
708.46	52303.07
708.65	51979.49
708.84	52139.24
709.02	51860.71
709.21	51737.83
709.40	52182.24
709.59	52139.24
709.78	51621.10
709.97	51922.15
710.16	51422.45
710.34	52192.48
710.53	51895.53
710.72	51395.82
710.91	51844.33
711.10	51647.72
711.29	51762.41
711.48	51944.68
711.66	51668.20
711.85	51365.10
712.04	51823.85
712.23	51248.37
712.42	51348.72
712.61	51367.15
712.80	51148.02
712.98	51197.17
713.17	51514.61
713.36	51340.53
713.55	51582.19
713.74	51231.99
713.93	51395.82
714.11	51334.38
714.30	50889.98
714.49	51029.24
714.68	51303.67
714.87	51238.13
715.06	51350.77
715.24	51047.67
715.43	50726.14
715.62	50724.09
715.81	50158.85
716.00	50926.84
716.18	50410.75
716.37	50763.00
716.56	50593.02
716.75	50861.30
716.94	50525.44
717.12	50470.14
717.31	50572.54
717.50	50328.83
717.69	50691.32
717.88	50261.25
718.06	51012.85
718.25	50781.43
718.44	50132.23
718.63	50218.24
718.82	49796.36
719.00	50394.37
719.19	50179.33
719.38	50142.47
719.57	49960.20
719.76	49374.48
719.94	49820.94
720.13	49732.87
720.32	49976.58
720.51	49497.36
720.69	49771.78
720.88	49741.06
721.07	49515.79
721.26	49157.39
721.44	49440.01
721.63	49347.86
721.82	49100.05
722.01	49358.09
722.20	49317.14
722.38	49112.34
722.57	48868.63
722.76	49315.09
722.95	49151.25
723.13	48743.70
723.32	48618.78
723.51	48719.13
723.70	48530.72
723.88	49161.49
724.07	48723.22
724.26	48903.45
724.44	48442.65
724.63	49009.94
724.82	48971.03
725.01	48755.99
725.19	48895.25
725.38	48653.59
725.57	48751.90
725.76	48698.65
725.94	48305.44
726.13	48448.80
726.32	48592.15
726.51	48551.20
726.69	48784.66
726.88	48405.79
727.07	48223.52
727.25	48287.01
727.44	48543.00
727.63	48231.71
727.82	48272.67
728.00	48393.50
728.19	48526.62
728.38	48565.53
728.56	48362.78
728.75	48373.02
728.94	48487.71
729.12	48293.15
729.31	48737.56
729.50	48108.83
729.69	48600.35
729.87	48037.16
730.06	48438.56
730.25	48123.17
730.43	48432.41
730.62	48194.85
730.81	48633.11
730.99	48381.21
731.18	48528.67
731.37	48299.30
731.55	48854.29
731.74	48483.61
731.93	48366.88
732.11	47998.24
732.30	48239.90
732.49	48284.96
732.67	48223.52
732.86	48608.54
733.05	48112.93
733.23	48289.06
733.42	48676.12
733.61	48143.65
733.79	48311.58
733.98	48786.71
734.17	48139.55
734.35	48076.07
734.54	48100.64
734.73	48434.46
734.91	48237.86
735.10	47768.87
735.29	48227.62
735.47	47686.95
735.66	48088.35
735.84	48114.98
736.03	47947.04
736.22	48413.98
736.40	48225.57
736.59	48362.78
736.78	48495.90
736.96	48059.68
737.15	47949.09
737.33	47822.12
737.52	48022.82
737.71	47668.52
737.89	47600.94
738.08	47951.14
738.27	47992.10
738.45	48287.01
738.64	48174.37
738.82	48071.97
739.01	48039.20
739.20	48096.55
739.38	48141.60
739.57	48309.53
739.75	48157.99
739.94	47822.12
740.13	47748.39
740.31	47897.89
740.50	48133.41
740.68	47598.89
740.87	47936.80
741.06	47949.09
741.24	47734.06
741.43	47920.42
741.61	47875.37
741.80	47351.09
741.99	47586.60
742.17	47865.13
742.36	47506.73
742.54	47363.37
742.73	47629.61
742.91	47732.01
743.10	47590.70
743.29	47459.63
743.47	47611.18
743.66	47326.51
743.84	47670.57
744.03	47785.25
744.21	47365.42
744.40	48106.79
744.59	47476.01
744.77	47469.87
744.96	47277.36
745.14	47920.42
745.33	47185.20
745.51	47226.16
745.70	47512.88
745.88	47316.27
746.07	47539.50
746.26	47226.16
746.44	47324.46
746.63	47447.34
746.81	47236.40
747.00	47088.95
747.18	47410.48
747.37	47236.40
747.55	47029.55
747.74	47332.65
747.92	46501.18
748.11	47150.38
748.29	47248.69
748.48	47168.82
748.66	46650.68
748.85	47033.65
749.03	47060.27
749.22	47473.96
749.41	47066.42
749.59	46992.69
749.78	46828.85
749.96	46718.26
750.15	46376.25
750.33	46863.67
750.52	46626.10
750.70	46826.81
750.89	46658.87
751.07	46380.35
751.26	46980.40
751.44	46259.52
751.63	46923.06
751.81	46490.94
752.00	46101.82
752.18	46660.92
752.37	46660.92
752.55	46148.93
752.74	46257.47
752.92	46501.18
753.10	46144.83
753.29	46351.68
753.47	45995.33
753.66	45708.61
753.84	46413.12
754.03	46140.74
754.21	46245.18
754.40	46474.55
754.58	46335.29
754.77	46089.54
754.95	45925.70
755.14	45892.93
755.32	45745.48
755.51	45516.11
755.69	45526.35
755.88	46042.43
756.06	46107.97
756.24	45811.01
756.43	45559.11
756.61	45630.79
756.80	45911.36
756.98	45931.84
757.17	45731.14
757.35	46005.57
757.54	45516.11
757.72	45901.12
757.90	45813.06
758.09	45663.56
758.27	45466.95
758.46	45776.20
758.64	45610.31
758.83	45706.57
759.01	46040.39
759.19	45532.49
759.38	45491.53
759.56	45802.82
759.75	45684.04
759.93	45614.41
760.12	45450.57
760.30	45577.54
760.48	45366.60
760.67	45516.11
760.85	45532.49
761.04	45292.88
761.22	45458.76
761.40	44944.72
761.59	45360.46
761.77	44719.45
761.96	45200.72
762.14	45051.22
762.32	45200.72
762.51	44729.69
762.69	44871.00
762.88	44774.74
763.06	44676.44
763.24	44420.44
763.43	44932.43
763.61	44856.66
763.80	44799.32
763.98	44592.47
764.16	44813.65
764.35	44262.75
764.53	44184.93
764.72	44412.25
764.90	44543.32
765.08	44152.16
765.27	44758.36
765.45	44072.29
765.63	43980.13
765.82	44225.89
766.00	44330.33
766.18	44170.59
766.37	44488.03
766.55	44193.12
766.74	44223.84
766.92	44111.20
767.10	43746.66
767.29	43849.06
767.47	43367.79
767.65	43828.58
767.84	43865.44
768.02	43734.37
768.20	43844.96
768.39	43816.29
768.57	43877.73
768.75	43316.59
768.94	43695.46
769.12	43599.21
769.30	43689.32
769.49	43418.99
769.67	43173.23
769.85	42902.90
770.04	43304.30
770.22	43177.33
770.40	42933.62
770.59	43115.89
770.77	43599.21
770.95	43292.01
771.14	42861.94
771.32	42577.27
771.50	42509.69
771.69	42442.10
771.87	43386.22
772.05	42919.28
772.24	42538.36
772.42	42501.50
772.60	42630.52
772.78	42405.24
772.97	42065.28
773.15	42894.71
773.33	42777.97
773.52	42495.35
773.70	43029.87
773.88	42575.22
774.07	42589.56
774.25	42866.03
774.43	42685.81
774.61	42644.85
774.80	42550.65
774.98	42358.14
775.16	42591.61
775.34	42685.81
775.53	42165.63
775.71	42691.96
775.89	42333.56
776.08	42487.16
776.26	42843.51
776.44	42878.32
776.62	42202.49
776.81	42276.22
776.99	43119.98
777.17	42777.97
777.35	42720.63
777.54	42927.47
777.72	42607.99
777.90	43046.26
778.08	43115.89
778.27	42657.14
778.45	43079.02
778.63	43058.54
778.81	42724.72
779.00	43801.96
779.18	43111.79
779.36	43357.55
779.54	42909.04
779.73	43175.28
779.91	43107.69
780.09	43187.56
780.27	43242.86
780.46	43070.83
780.64	43529.58
780.82	42964.34
781.00	43390.31
781.19	43314.54
781.37	43146.61
781.55	43367.79
781.73	43840.87
781.91	43158.89
782.10	43459.94
782.28	43769.19
782.46	43619.69
782.64	43660.65
782.82	43355.50
783.01	43607.40
783.19	43337.07
783.37	43636.07
783.55	43171.18
783.74	43836.77
783.92	43251.05
784.10	43820.39
784.28	43943.27
784.46	43244.91
784.64	43400.55
784.83	43427.18
785.01	43941.22
785.19	43713.89
785.37	43865.44
785.55	43892.07
785.74	43124.08
785.92	43818.34
786.10	43382.12
786.28	43441.51
786.46	43259.24
786.64	43040.11
786.83	43439.47
787.01	43115.89
787.19	43343.21
787.37	43443.56
787.55	43337.07
787.74	43220.33
787.92	43218.28
788.10	42909.04
788.28	43038.06
788.46	43167.09
788.64	42978.67
788.82	43373.93
789.01	42558.84
789.19	43165.04
789.37	42921.33
789.55	42304.89
789.73	42296.70
789.91	42403.19
790.09	42237.31
790.28	41928.06
790.46	42331.51
790.64	42556.79
790.82	42220.92
791.00	41989.50
791.18	41872.77
791.36	42003.84
791.55	42079.61
791.73	41547.14
791.91	41725.32
792.09	41878.91
792.27	41661.83
792.45	41756.03
792.63	41160.08
792.81	41039.25
793.00	41579.91
793.18	40871.31
793.36	40904.08
793.54	41186.70
793.72	40678.80
793.90	40715.67
794.08	40555.93
794.26	40846.74
794.44	40469.91
794.62	40277.40
794.81	40093.08
794.99	40482.20
795.17	40414.62
795.35	40203.67
795.53	40211.87
795.71	40463.77
795.89	39730.59
796.07	39679.39
796.25	39480.74
796.43	39179.69
796.61	39275.94
796.80	39189.93
796.98	39269.80
797.16	39081.39
797.34	39454.12
797.52	38849.97
797.70	38913.45
797.88	38997.42
798.06	38895.02
798.24	38577.59
798.42	38929.84
798.60	38876.59
798.78	38684.08
798.96	38397.37
799.14	38505.91
799.32	38399.41
799.51	38108.60
799.69	38264.25
799.87	38063.55
800.05	38241.72
800.23	37815.74
800.41	37754.30
800.59	37838.27
800.77	37559.75
800.95	37619.14
801.13	37496.26
801.31	37207.50
801.49	37553.60
801.67	37207.50
801.85	37156.30
802.03	36625.87
802.21	36885.97
802.39	36834.77
802.57	36748.75
802.75	36834.77
802.93	36926.92
803.11	36580.82
803.29	36335.06
803.47	36249.05
803.65	36300.25
803.83	36400.60
804.01	36433.36
804.19	35900.89
804.37	35735.01
804.55	35573.22
804.73	35735.01
804.91	35530.21
805.09	35773.92
805.27	35743.20
805.45	35655.14
805.63	35913.18
805.81	35151.34
805.99	35546.59
806.17	35560.93
806.35	35048.94
806.53	34973.16
806.71	35223.01
806.89	34713.07
807.07	34915.82
807.25	34864.62
807.43	34412.02
807.61	35126.76
807.79	34434.55
807.97	34420.21
808.15	34653.68
808.33	34223.61
808.51	34194.93
808.69	34092.54
808.87	34057.72
809.05	33711.61
809.23	33766.91
809.41	33261.06
809.59	33598.98
809.77	33918.46
809.95	33474.05
810.13	34094.58
810.31	33519.10
810.49	33443.33
810.67	33213.96
810.84	33707.52
811.02	33334.79
811.20	33220.10
811.38	33295.88
811.56	32708.11
811.74	32830.99
811.92	32734.73
812.10	32454.16
812.28	33074.70
812.46	32798.22
812.64	32880.14
812.82	32396.82
813.00	32697.87
813.18	32259.60
813.36	32075.29
813.53	31827.48
813.71	32132.63
813.89	32194.07
814.07	32159.25
814.25	32347.67
814.43	32192.02
814.61	31872.54
814.79	31645.21
814.97	31524.38
815.15	31505.95
815.33	31292.96
815.50	31235.62
815.68	31680.03
815.86	31655.45
816.04	31430.18
816.22	31131.17
816.40	31071.78
816.58	31092.26
816.76	31006.25
816.94	31419.94
817.11	31163.94
817.29	31086.12
817.47	30453.30
817.65	30637.61
817.83	30713.39
818.01	30592.56
818.19	30504.49
818.37	30778.92
818.54	30238.26
818.72	30295.60
818.90	30613.04
819.08	30322.23
819.26	30330.42
819.44	30563.89
819.62	30404.14
819.80	30008.89
819.97	30064.18
820.15	30135.86
820.33	29779.51
820.51	29998.65
820.69	29394.50
820.87	29775.42
821.05	29933.11
821.22	29607.48
821.40	29683.26
821.58	29425.22
821.76	29767.23
821.94	29242.95
822.12	29449.79
822.29	29630.01
822.47	29267.52
822.65	29453.89
822.83	29404.74
823.01	29283.91
823.19	29275.71
823.36	28964.42
823.54	28778.06
823.72	28749.39
823.90	28978.76
824.08	28755.53
824.25	28972.61
824.43	28780.10
824.61	28751.43
824.79	28845.64
824.97	28313.17
825.15	28921.41
825.32	28921.41
825.50	28585.55
825.68	28382.80
825.86	28677.71
826.04	28601.93
826.21	28403.28
826.39	28073.56
826.57	28407.37
826.75	27991.64
826.93	28137.04
827.10	28134.99
827.28	28452.43
827.46	27860.57
827.64	28057.17
827.81	27844.18
827.99	28175.95
828.17	27704.92
828.35	27532.89
828.53	27426.40
828.70	27631.19
828.88	27704.92
829.06	27430.49
829.24	28040.79
829.41	27301.47
829.59	27776.60
829.77	27553.37
829.95	27416.16
830.12	26928.74
830.30	27039.33
830.48	27420.25
830.66	27090.53
830.84	27348.57
831.01	27025.00
831.19	27047.52
831.37	26859.11
831.55	26740.33
831.72	26932.84
831.90	26760.81
832.08	26996.32
832.25	26791.53
832.43	26721.90
832.61	26682.98
832.79	26383.98
832.96	26601.07
833.14	26732.14
833.32	26345.07
833.50	26635.88
833.67	26537.58
833.85	26470.00
834.03	26111.60
834.20	26556.01
834.38	26637.93
834.56	26642.03
834.74	26390.13
834.91	26226.29
835.09	26201.71
835.27	26308.21
835.44	25912.95
835.62	25450.11
835.80	25919.09
835.98	25871.99
836.15	25853.56
836.33	25915.00
836.51	26017.40
836.68	25806.45
836.86	25853.56
837.04	25990.77
837.21	25771.64
837.39	25536.12
837.57	25896.56
837.75	25908.85
837.92	25323.13
838.10	25415.29
838.28	25165.44
838.45	25398.91
838.63	24886.92
838.81	25527.93
838.98	25130.62
839.16	24999.55
839.34	25130.62
839.51	25276.03
839.69	24985.22
839.87	24739.46
840.04	24991.36
840.22	25183.87
840.40	24903.30
840.57	24802.95
840.75	24991.36
840.93	24493.71
841.10	24893.06
841.28	24956.55
841.46	24667.78
841.63	24956.55
841.81	24637.06
841.98	24608.39
842.16	24557.19
842.34	24385.16
842.51	24499.85
842.69	24655.50
842.87	24282.77
843.04	24379.02
843.22	24436.36
843.40	24104.59
843.57	24108.69
843.75	24714.89
843.92	24340.11
844.10	24037.01
844.28	24460.94
844.45	24217.23
844.63	24336.01
844.81	24108.69
844.98	24475.27
845.16	23836.31
845.33	24061.58
845.51	24004.24
845.69	24026.77
845.86	24055.44
846.04	23907.99
846.21	23787.16
846.39	23787.16
846.57	23469.72
846.74	23887.51
846.92	23533.21
847.09	23697.05
847.27	23273.12
847.45	23428.76
847.62	23803.54
847.80	23510.68
847.97	23684.76
848.15	23357.08
848.32	23715.48
848.50	23072.42
848.68	23049.89
848.85	23367.32
849.03	22996.64
849.20	22953.63
849.38	23099.04
849.56	23140.00
849.73	23195.29
849.91	23404.19
850.08	23316.12
850.26	23086.75
850.43	23084.70
850.61	22929.06
850.78	22832.80
850.96	22912.67
851.14	22503.08
851.31	22933.15
851.49	22687.40
851.66	22965.92
851.84	22933.15
852.01	22849.19
852.19	22752.93
852.36	22699.69
852.54	22699.69
852.71	22513.32
852.89	22791.84
853.07	22484.65
853.24	22607.53
853.42	22675.11
853.59	22501.03
853.77	22677.16
853.94	22634.15
854.12	22597.29
854.29	22056.62
854.47	22134.45
854.64	22236.84
854.82	22062.77
854.99	22290.09
855.17	22240.94
855.34	21943.99
855.52	21950.13
855.69	22355.63
855.87	22333.10
856.04	22013.62
856.22	21980.85
856.39	22073.01
856.57	22150.83
856.74	22132.40
856.92	22107.82
857.09	21827.25
857.27	21892.79
857.44	21999.28
857.62	21814.96
857.79	22083.25
857.97	21843.63
858.14	21726.90
858.32	21624.50
858.49	21634.74
858.67	21651.13
858.84	21538.49
859.02	21798.58
859.19	21417.66
859.37	21481.14
859.54	21343.93
859.72	21307.07
859.89	21614.26
860.06	21200.57
860.24	21141.18
860.41	21509.82
860.59	21155.52
860.76	21454.52
860.94	20938.43
861.11	21409.47
861.29	21253.82
861.46	21243.58
861.64	20883.14
861.81	21200.57
861.98	20981.44
862.16	20940.48
862.33	20668.10
862.51	21028.54
862.68	20598.47
862.86	20862.66
863.03	20537.03
863.21	20778.69
863.38	20860.61
863.55	20616.90
863.73	20735.68
863.90	20899.52
864.08	20582.09
864.25	20575.94
864.43	20809.41
864.60	20524.74
864.77	20475.59
864.95	20659.91
865.12	20360.91
865.30	20520.65
865.47	20491.98
865.64	20301.51
865.82	20287.18
865.99	20340.43
866.17	20313.80
866.34	20582.09
866.51	20262.60
866.69	20227.79
866.86	20422.34
867.04	20033.23
867.21	20158.16
867.38	19930.83
867.56	19928.78
867.73	20025.04
867.91	19642.07
868.08	19920.59
868.25	19721.94
868.43	19695.32
868.60	19756.75
868.78	19721.94
868.95	20080.33
869.12	19777.23
869.30	20029.13
869.47	19842.77
869.64	19289.82
869.82	19556.05
869.99	19420.89
870.16	19893.97
870.34	19629.78
870.51	19738.32
870.69	19508.95
870.86	19506.90
871.03	19609.30
871.21	19226.33
871.38	19478.23
871.55	19429.08
871.73	19283.67
871.90	19025.63
872.07	19222.23
872.25	18872.03
872.42	19236.57
872.59	19101.40
872.77	18743.01
872.94	18845.41
873.11	18732.77
873.29	19054.30
873.46	18931.42
873.63	18908.90
873.81	18880.22
873.98	18861.79
874.15	18659.04
874.33	18409.19
874.50	18421.48
874.67	18718.43
874.85	18718.43
875.02	18697.95
875.19	18353.90
875.37	18450.15
875.54	18462.44
875.71	18261.74
875.88	18218.73
876.06	18271.98
876.23	18151.15
876.40	18208.49
876.58	18216.68
876.75	18355.94
876.92	18005.74
877.10	18089.71
877.27	18130.67
877.44	18052.84
877.61	17999.60
877.79	17942.25
877.96	17782.51
878.13	17790.70
878.31	17694.45
878.48	17633.01
878.65	17571.57
878.82	17680.11
879.00	17833.71
879.17	17592.05
879.34	17751.79
879.51	17442.55
879.69	17626.87
879.86	17405.69
880.03	17532.66
880.21	17338.10
880.38	17757.94
880.55	17727.22
880.72	17559.28
880.90	17364.73
881.07	17336.06
881.24	17407.73
881.41	17485.56
881.59	17401.59
881.76	17202.94
881.93	17207.03
882.10	17108.73
882.28	17137.40
882.45	17202.94
882.62	17094.40
882.79	17305.34
882.96	16834.30
883.14	17219.32
883.31	16975.61
883.48	16987.90
883.65	16989.95
883.83	17024.76
884.00	16762.62
884.17	16967.42
884.34	16932.61
884.51	16848.64
884.69	16887.55
884.86	16819.97
885.03	16940.80
885.20	16508.68
885.38	16772.86
885.55	16819.97
885.72	16774.91
885.89	16912.13
886.06	16793.34
886.24	16494.34
886.41	16750.34
886.58	16672.51
886.75	16656.13
886.92	16516.87
887.10	16736.00
887.27	16447.24
887.44	16322.31
887.61	16563.97
887.78	16592.64
887.95	16615.17
888.13	16580.36
888.30	16416.52
888.47	16289.54
888.64	16461.57
888.81	16346.89
888.99	16461.57
889.16	16078.60
889.33	16094.99
889.50	16207.62
889.67	16418.57
889.84	16084.75
890.01	16213.77
890.19	16154.38
890.36	16185.10
890.53	16168.71
890.70	15937.29
890.87	15965.96
891.04	15959.82
891.22	16017.16
891.39	16103.18
891.56	15888.14
891.73	16084.75
891.90	15740.69
892.07	15691.54
892.24	15732.50
892.42	15664.91
892.59	15789.84
892.76	15660.82
892.93	15566.61
893.10	15697.68
893.27	15546.13
893.44	15656.72
893.61	15339.29
893.79	15802.13
893.96	15648.53
894.13	15681.30
894.30	15521.56
894.47	15687.44
894.64	15814.41
894.81	15421.20
894.98	15634.19
895.15	15574.80
895.33	15615.76
895.50	15445.78
895.67	15802.13
895.84	15550.23
896.01	15515.41
896.18	15394.58
896.35	15560.47
896.52	15318.81
896.69	15378.20
896.86	15539.99
897.04	15335.19
897.21	15503.12
897.38	15503.12
897.55	15140.63
897.72	15550.23
897.89	15408.92
898.06	15556.37
898.23	15341.33
898.40	15310.61
898.57	15406.87
898.74	15310.61
898.91	15232.79
899.08	15482.64
899.26	15175.45
899.43	15413.01
899.60	15226.65
899.77	15431.44
899.94	15486.74
900.11	15320.85
900.28	15249.18
900.45	15339.29
900.62	15464.21
900.79	15453.97
900.96	15238.94
901.13	15138.58
901.30	15206.17
901.47	15281.94
901.64	15243.03
901.81	15308.57
901.98	15228.70
902.15	15429.40
902.32	15193.88
902.49	15329.05
902.66	15214.36
902.83	15558.42
903.01	15181.59
903.18	15240.98
903.35	15071.00
903.52	15275.80
903.69	15372.05
903.86	15327.00
904.03	15294.23
904.20	15603.47
904.37	15621.91
904.54	15410.96
904.71	15296.28
904.88	15339.29
905.05	15107.87
905.22	15204.12
905.39	15167.26
905.56	15183.64
905.73	15202.07
905.90	15236.89
906.07	15232.79
906.24	15363.86
906.41	15419.16
906.58	15439.64
906.75	15322.90
906.92	15249.18
907.09	14974.75
907.26	15304.47
907.43	15175.45
907.60	15367.96
907.77	15286.04
907.93	15349.53
908.10	15312.66
908.27	15212.31
908.44	15083.29
908.61	14937.88
908.78	15124.25
908.95	15101.72
909.12	15189.78
909.29	15025.95
909.46	15167.26
909.63	15279.89
909.80	15189.78
909.97	14905.12
910.14	15195.93
910.31	15255.32
910.48	15138.58
910.65	15150.87
910.82	15050.52
910.99	15146.78
911.16	14841.63
911.33	15105.82
911.50	14944.03
911.66	14931.74
911.83	15099.67
912.00	14927.64
912.17	14782.24
912.34	14688.03
912.51	14972.70
912.68	14692.13
912.85	14862.11
913.02	14921.50
913.19	14739.23
913.36	14847.77
913.53	14858.01
913.70	14612.26
913.86	14745.38
914.03	14489.38
914.20	14579.49
914.37	14552.87
914.54	14473.00
914.71	14636.83
914.88	14698.27
915.05	14616.35
915.22	14434.08
915.39	14743.33
915.55	14593.83
915.72	14397.22
915.89	14581.54
916.06	14253.86
916.23	14513.95
916.40	14274.34
916.57	14122.79
916.74	14272.29
916.91	14176.04
917.07	14051.11
917.24	13971.24
917.41	14020.39
917.58	14073.64
917.75	13819.69
917.92	13877.04
918.09	13848.36
918.26	13793.07
918.42	13885.23
918.59	13852.46
918.76	13612.85
918.93	13799.21
919.10	13823.79
919.27	13860.65
919.44	13600.56
919.60	13678.38
919.77	13573.94
919.94	13473.59
920.11	13330.23
920.28	13428.53
920.45	13397.81
920.61	13430.58
920.78	13408.05
920.95	13168.44
921.12	13231.93
921.29	13147.96
921.46	12922.68
921.62	12992.31
921.79	12973.88
921.96	12975.93
922.13	13076.28
922.30	12865.34
922.47	13082.42
922.63	12681.02
922.80	12889.92
922.97	12787.52
923.14	12691.26
923.31	12597.06
923.47	12560.19
923.64	12750.65
923.81	12644.16
923.98	12713.79
924.15	12412.74
924.32	12488.51
924.48	12484.42
924.65	12482.37
924.82	12472.13
924.99	12334.92
925.15	12013.38
925.32	12287.81
925.49	12097.35
925.66	12373.83
925.83	11902.79
925.99	11951.95
926.16	11958.09
926.33	12027.72
926.50	11759.44
926.67	12074.82
926.83	11685.71
927.00	11706.19
927.17	11855.69
927.34	11632.46
927.50	11708.24
927.67	11704.14
927.84	11456.34
928.01	11507.54
928.17	11321.17
928.34	11470.67
928.51	11525.97
928.68	11173.72
928.84	11075.42
929.01	10903.39
929.18	11091.80
929.35	10983.26
929.51	11208.53
929.68	11337.56
929.85	10907.48
930.02	10880.86
930.18	11065.18
930.35	10788.70
930.52	10772.32
930.69	10749.79
930.85	10770.27
931.02	10633.05
931.19	10438.50
931.36	10542.94
931.52	10692.44
931.69	10602.33
931.86	10712.92
932.02	10424.16
932.19	10266.47
932.36	10215.27
932.53	10078.05
932.69	10336.10
932.86	10381.15
933.03	10297.19
933.19	9768.81
933.36	9777.00
933.53	10170.21
933.70	9887.59
933.86	9768.81
934.03	9795.43
934.20	9826.15
934.36	9680.75
934.53	9527.15
934.70	9453.42
934.86	9539.44
935.03	9416.56
935.20	9471.86
935.36	9232.24
935.53	9156.47
935.70	9267.06
935.86	9219.96
936.03	8882.04
936.20	8873.85
936.36	8720.25
936.53	8793.98
936.70	8804.22
936.86	8884.09
937.03	8646.52
937.20	8468.35
937.36	8558.46
937.53	8241.03
937.70	8351.62
937.86	8265.60
938.03	8079.24
938.20	8071.04
938.36	8011.65
938.53	7956.36
938.70	7810.95
938.86	7688.07
939.03	7491.47
939.20	7526.29
939.36	7442.32
939.53	7464.85
939.70	7557.00
939.86	7268.24
940.03	7042.96
940.19	7026.58
940.36	7012.24
940.53	6909.85
940.69	6668.19
940.86	7012.24
941.03	6668.19
941.19	6537.12
941.36	6645.66
941.52	6569.88
941.69	6479.77
941.86	6485.92
942.02	6320.03
942.19	6309.79
942.35	6242.21
942.52	6369.18
942.69	6188.96
942.85	6094.76
943.02	6215.59
943.18	6082.47
943.35	5998.50
943.52	6021.03
943.68	5957.54
943.85	5810.09
944.01	5685.16
944.18	5808.04
944.35	5724.07
944.51	5705.64
944.68	5679.02
944.84	5740.46
945.01	5697.45
945.17	5666.73
945.34	5531.56
945.51	5580.71
945.67	5504.94
945.84	5593.00
946.00	5441.45
946.17	5519.28
946.33	5441.45
946.50	5496.75
946.67	5484.46
946.83	5498.80
947.00	5541.80
947.16	5470.12
947.33	5474.22
947.49	5361.58
947.66	5459.88
947.82	5599.15
947.99	5359.53
948.16	5427.12
948.32	5535.66
948.49	5525.42
948.65	5636.01
948.82	5373.87
948.98	5472.17
949.15	5388.21
949.31	5490.60
949.48	5400.49
949.64	5478.32
949.81	5492.65
949.97	5433.26
950.14	5468.08
950.30	5437.36
950.47	5525.42
950.63	5535.66
950.80	5547.95
950.96	5486.51
951.13	5480.36
951.30	5392.30
951.46	5447.60
951.63	5558.19
951.79	5531.56
951.96	5623.72
952.12	5478.32
952.29	5590.95
952.45	5547.95
952.62	5646.25
952.78	5617.58
952.94	5568.43
953.11	5519.28
953.27	5519.28
953.44	5611.43
953.60	5693.35
953.77	5586.86
953.93	5590.95
954.10	5607.34
954.26	5541.80
954.43	5550.00
954.59	5738.41
954.76	5662.63
954.92	5670.83
955.09	5861.29
955.25	5572.52
955.42	5490.60
955.58	5762.98
955.75	5674.92
955.91	5590.95
956.07	5765.03
956.24	5693.35
956.40	5748.65
956.57	5828.52
956.73	5517.23
956.90	5674.92
957.06	5566.38
957.23	5482.41
957.39	5556.14
957.56	5599.15
957.72	5566.38
957.88	5676.97
958.05	5722.02
958.21	5771.18
958.38	5603.24
958.54	5455.79
958.71	5916.58
958.87	5676.97
959.03	5550.00
959.20	5638.06
959.36	5697.45
959.53	5441.45
959.69	5646.25
959.85	5560.24
960.02	5623.72
960.18	5679.02
960.35	5625.77
960.51	5693.35
960.68	5646.25
960.84	5623.72
961.00	5666.73
961.17	5691.31
961.33	5717.93
961.50	5681.07
961.66	5547.95
961.82	5609.39
961.99	5578.67
962.15	5574.57
962.31	5631.91
962.48	5558.19
962.64	5703.59
962.81	5593.00
962.97	5490.60
963.13	5554.09
963.30	5656.49
963.46	5574.57
963.62	5539.76
963.79	5408.69
963.95	5427.12
964.12	5521.32
964.28	5676.97
964.44	5578.67
964.61	5623.72
964.77	5644.20
964.93	5736.36
965.10	5506.99
965.26	5582.76
965.42	5523.37
965.59	5408.69
965.75	5459.88
965.92	5533.61
966.08	5478.32
966.24	5443.50
966.41	5527.47
966.57	5525.42
966.73	5519.28
966.90	5492.65
967.06	5371.82
967.22	5494.70
967.39	5359.53
967.55	5369.77
967.71	5322.67
967.88	5341.10
968.04	5310.38
968.20	5404.59
968.37	5328.81
968.53	5189.55
968.69	5369.77
968.85	5320.62
969.02	5345.20
969.18	5541.80
969.34	5291.95
969.51	5382.06
969.67	5443.50
969.83	5248.94
970.00	5345.20
970.16	5300.14
970.32	5234.61
970.48	5261.23
970.65	5115.83
970.81	5187.50
970.97	5210.03
971.14	5255.09
971.30	5181.36
971.46	5187.50
971.63	5152.69
971.79	5267.38
971.95	5138.35
972.11	5107.63
972.28	5253.04
972.44	5160.88
972.60	4974.52
972.76	4929.46
972.93	5124.02
973.09	5103.54
973.25	5099.44
973.42	4951.99
973.58	5246.90
973.74	5033.91
973.90	5169.07
974.07	4945.84
974.23	5062.58
974.39	5046.20
974.55	4970.42
974.72	5101.49
974.88	4931.51
975.04	5021.62
975.20	4939.70
975.37	5013.43
975.53	4943.80
975.69	4929.46
975.85	4870.07
976.01	4798.39
976.18	4792.25
976.34	4939.70
976.50	4919.22
976.66	4878.26
976.83	4859.83
976.99	4786.10
977.15	4786.10
977.31	4706.23
977.47	4939.70
977.64	4763.58
977.80	4833.21
977.96	4671.42
978.12	4816.82
978.29	4786.10
978.45	4587.45
978.61	4671.42
978.77	4786.10
978.93	4583.35
979.10	4569.02
979.26	4591.55
979.42	4618.17
979.58	4540.35
979.74	4599.74
979.91	4718.52
980.07	4599.74
980.23	4636.60
980.39	4579.26
980.55	4528.06
980.71	4487.10
980.88	4528.06
981.04	4493.24
981.20	4437.95
981.36	4497.34
981.52	4423.61
981.68	4464.57
981.85	4538.30
982.01	4521.92
982.17	4433.85
982.33	4419.52
982.49	4548.54
982.65	4341.69
982.82	4474.81
982.98	4483.00
983.14	4241.34
983.30	4390.84
983.46	4487.10
983.62	4423.61
983.79	4302.78
983.95	4265.92
984.11	4214.72
984.27	4431.80
984.43	4431.80
984.59	4331.45
984.75	4362.17
984.91	4210.62
985.08	4409.28
985.24	4194.24
985.40	4327.36
985.56	4276.16
985.72	4411.32
985.88	4302.78
986.04	4194.24
986.20	4147.14
986.37	4143.04
986.53	4108.23
986.69	4227.01
986.85	4212.67
987.01	4120.51
987.17	4237.25
987.33	4108.23
987.49	3956.68
987.65	4153.28
987.82	4067.27
987.98	3999.68
988.14	4175.81
988.30	4011.97
988.46	3981.25
988.62	4073.41
988.78	4038.59
988.94	3958.72
989.10	3985.35
989.26	3928.00
989.42	4042.69
989.59	3925.96
989.75	4001.73
989.91	4024.26
990.07	3792.84
990.23	3942.34
990.39	3895.24
990.55	3907.52
990.71	3809.22
990.87	3778.50
991.03	3960.77
991.19	3831.75
991.35	3848.13
991.51	3829.70
991.67	3950.53
991.83	3981.25
992.00	3811.27
992.16	3846.09
992.32	3823.56
992.48	3764.17
992.64	3667.91
992.80	3731.40
992.96	3694.54
993.12	3811.27
993.28	3801.03
993.44	3661.77
993.60	3819.46
993.76	3747.78
993.92	3755.97
994.08	3727.30
994.24	3731.40
994.40	3786.69
994.56	3743.69
994.72	3674.06
994.88	3583.95
995.04	3686.34
995.20	3719.11
995.36	3672.01
995.52	3688.39
995.68	3489.74
995.84	3522.51
996.00	3712.97
996.16	3536.84
996.32	3538.89
996.48	3477.45
996.64	3604.42
996.80	3563.47
996.96	3592.14
997.12	3508.17
997.28	3473.36
997.44	3510.22
997.60	3389.39
997.76	3491.79
997.92	3444.68
998.08	3497.93
998.24	3407.82
998.40	3413.96
998.56	3532.75
998.72	3344.33
998.88	3286.99
999.04	3346.38
999.20	3360.72
999.36	3311.57
999.52	3467.21
999.68	3348.43
999.84	3377.10
1000.00	3362.76
1000.16	3360.72
1000.32	3334.09
1000.48	3497.93
1000.64	3336.14
1000.80	3315.66
1000.95	3157.97
1001.11	3299.28
1001.27	3268.56
1001.43	3295.18
1001.59	3248.08
1001.75	3157.97
1001.91	3295.18
1002.07	3176.40
1002.23	3215.31
1002.39	3133.39
1002.55	3178.45
1002.71	3133.39
1002.87	3215.31
1003.03	3153.87
1003.19	3065.81
1003.34	3319.76
1003.50	3104.72
1003.66	3252.17
1003.82	3051.47
1003.98	3041.23
1004.14	3141.58
1004.30	2973.65
1004.46	3037.14
1004.62	3094.48
1004.78	3033.04
1004.94	3131.34
1005.09	3100.62
1005.25	3071.95
1005.41	3014.61
1005.57	3002.32
1005.73	2949.08
1005.89	2971.60
1006.05	3069.91
1006.21	3057.62
1006.37	2998.23
1006.52	2912.21
1006.68	2934.74
1006.84	3078.10
1007.00	2867.16
1007.16	3137.49
1007.32	3016.66
1007.48	2928.60
1007.64	3074.00
1007.79	2899.92
1007.95	2881.49
1008.11	2934.74
1008.27	2813.91
1008.43	2953.17
1008.59	2920.40
1008.75	2834.39
1008.91	2854.87
1009.06	2822.10
1009.22	2758.61
1009.38	2781.14
1009.54	2865.11
1009.70	2869.20
1009.86	2871.25
1010.01	2965.46
1010.17	2783.19
1010.33	2813.91
1010.49	2813.91
1010.65	2858.96
1010.81	2797.53
1010.96	2764.76
1011.12	2795.48
1011.28	2666.46
1011.44	2848.72
1011.60	2756.57
1011.76	2734.04
1011.91	2768.85
1012.07	2629.59
1012.23	2652.12
1012.39	2658.26
1012.55	2736.09
1012.71	2600.92
1012.86	2727.89
1013.02	2578.39
1013.18	2631.64
1013.34	2731.99
1013.50	2697.17
1013.65	2756.57
1013.81	2574.30
1013.97	2619.35
1014.13	2727.89
1014.29	2613.21
1014.44	2582.49
1014.60	2652.12
1014.76	2688.98
1014.92	2674.65
1015.07	2654.17
1015.23	2652.12
1015.39	2572.25
1015.55	2553.82
1015.71	2662.36
1015.86	2461.66
1016.02	2506.71
1016.18	2414.56
1016.34	2543.58
1016.49	2494.43
1016.65	2652.12
1016.81	2543.58
1016.97	2598.87
1017.12	2611.16
1017.28	2506.71
1017.44	2494.43
1017.60	2424.80
1017.75	2500.57
1017.91	2428.89
1018.07	2531.29
1018.23	2535.39
1018.38	2373.60
1018.54	2430.94
1018.70	2527.19
1018.86	2437.08
1019.01	2473.95
1019.17	2369.50
1019.33	2541.53
1019.49	2502.62
1019.64	2404.32
1019.80	2432.99
1019.96	2498.52
1020.12	2461.66
1020.27	2396.12
1020.43	2469.85
1020.59	2426.84
1020.74	2400.22
1020.90	2512.86
1021.06	2453.47
1021.22	2392.03
1021.37	2389.98
1021.53	2334.68
1021.69	2383.84
1021.84	2269.15
1022.00	2340.83
1022.16	2318.30
1022.31	2267.10
1022.47	2412.51
1022.63	2279.39
1022.79	2189.28
1022.94	2260.96
1023.10	2435.03
1023.26	2363.36
1023.41	2283.49
1023.57	2224.09
1023.73	2324.44
1023.88	2379.74
1024.04	2170.85
1024.20	2281.44
1024.35	2322.40
1024.51	2271.20
1024.67	2281.44
1024.82	2279.39
1024.98	2199.52
1025.14	2269.15
1025.29	2246.62
1025.45	2258.91
1025.61	2152.42
1025.76	2207.71
1025.92	2244.57
1026.08	2217.95
1026.23	2301.92
1026.39	2338.78
1026.55	2228.19
1026.70	2289.63
1026.86	2142.18
1027.02	2224.09
1027.17	2197.47
1027.33	2215.90
1027.48	2199.52
1027.64	2156.51
1027.80	2138.08
1027.95	2232.29
1028.11	2095.07
1028.27	2160.61
1028.42	2176.99
1028.58	2170.85
1028.73	2136.03
1028.89	2138.08
1029.05	2205.66
1029.20	2228.19
>>>>>End Processed Spectral Data<<<<<
