SpectraSuite Data File
++++++++++++++++++++++++++++++++++++
Date: Fri Jun 02 14:52:28 CEST 2017
User: INFO_000
Dark Spectrum Present: No
Reference Spectrum Present: No
Number of Sampled Component Spectra: 1
Spectrometers: USB4H00879
Integration Time (usec): 80000 (USB4H00879)
Spectra Averaged: 1 (USB4H00879)
Boxcar Smoothing: 0 (USB4H00879)
Correct for Electrical Dark: No (USB4H00879)
Strobe/Lamp Enabled: No (USB4H00879)
Correct for Detector Non-linearity: No (USB4H00879)
Correct for Stray Light: No (USB4H00879)
Number of Pixels in Processed Spectrum: 3648
>>>>>Begin Processed Spectral Data<<<<<
345.13	1318.89
345.34	1318.89
345.56	1318.89
345.78	1279.98
345.99	1286.12
346.21	1697.77
346.42	1783.78
346.64	1640.42
346.86	1841.12
347.07	1673.19
347.29	1703.91
347.50	1644.52
347.72	1656.81
347.94	1757.16
348.15	1619.94
348.37	1667.05
348.59	1695.72
348.80	1634.28
349.02	1826.79
349.23	1748.97
349.45	1912.80
349.67	1877.99
349.88	1828.84
350.10	1972.19
350.31	1916.90
350.53	1832.93
350.75	1990.63
350.96	1820.64
351.18	1902.56
351.39	1843.17
351.61	1802.21
351.82	1900.52
352.04	1902.56
352.26	1814.50
352.47	1818.60
352.69	1910.75
352.90	1777.64
353.12	1875.94
353.34	1845.22
353.55	1941.47
353.77	1875.94
353.98	1863.65
354.20	1816.55
354.41	1912.80
354.63	1888.23
354.85	1927.14
355.06	1949.67
355.28	1763.30
355.49	1880.04
355.71	1914.85
355.92	1871.84
356.14	1896.42
356.35	1863.65
356.57	1945.57
356.79	1953.76
357.00	1818.60
357.22	1968.10
357.43	1861.60
357.65	1949.67
357.86	1884.13
358.08	1955.81
358.29	1925.09
358.51	1918.95
358.72	2027.49
358.94	1986.53
359.16	1961.95
359.37	1955.81
359.59	2035.68
359.80	1988.58
360.02	2009.06
360.23	1988.58
360.45	1953.76
360.66	1978.34
360.88	1779.68
361.09	1902.56
361.31	1994.72
361.52	1988.58
361.74	2045.92
361.95	2068.45
362.17	1968.10
362.38	2086.88
362.60	2013.15
362.81	1955.81
363.03	1992.67
363.24	1998.82
363.46	1998.82
363.67	1972.19
363.89	2023.39
364.10	2033.63
364.32	2027.49
364.53	2082.78
364.75	1904.61
364.96	1984.48
365.18	2121.70
365.39	1994.72
365.61	1984.48
365.82	2123.74
366.04	1990.63
366.25	1964.00
366.47	2017.25
366.68	2101.22
366.90	1953.76
367.11	2076.64
367.33	2052.06
367.54	2074.59
367.76	2033.63
367.97	2080.74
368.19	2041.82
368.40	2068.45
368.62	1931.23
368.83	2015.20
369.05	2082.78
369.26	2027.49
369.48	2050.02
369.69	1984.48
369.91	1990.63
370.12	2101.22
370.33	2140.13
370.55	2107.36
370.76	2060.26
370.98	2115.55
371.19	2052.06
371.41	2023.39
371.62	2113.50
371.84	1994.72
372.05	2250.72
372.27	2050.02
372.48	2074.59
372.69	2154.46
372.91	2191.33
373.12	2195.42
373.34	2101.22
373.55	2060.26
373.77	2154.46
373.98	2115.55
374.20	2140.13
374.41	2326.49
374.62	2125.79
374.84	2099.17
375.05	2203.61
375.27	2236.38
375.48	2191.33
375.70	2199.52
375.91	2158.56
376.12	2324.44
376.34	2203.61
376.55	2224.09
376.77	2240.48
376.98	2068.45
377.19	2164.70
377.41	2189.28
377.62	2269.15
377.84	2246.62
378.05	2224.09
378.27	2254.81
378.48	2250.72
378.69	2357.21
378.91	2340.83
379.12	2248.67
379.34	2226.14
379.55	2297.82
379.76	2314.20
379.98	2244.57
380.19	2209.76
380.41	2234.33
380.62	2375.64
380.83	2351.07
381.05	2168.80
381.26	2310.11
381.47	2273.25
381.69	2308.06
381.90	2400.22
382.12	2301.92
382.33	2342.88
382.54	2308.06
382.76	2381.79
382.97	2351.07
383.19	2285.53
383.40	2412.51
383.61	2258.91
383.83	2303.96
384.04	2306.01
384.25	2377.69
384.47	2416.60
384.68	2355.16
384.89	2361.31
385.11	2471.90
385.32	2283.49
385.54	2357.21
385.75	2416.60
385.96	2439.13
386.18	2449.37
386.39	2322.40
386.60	2414.56
386.82	2359.26
387.03	2469.85
387.24	2564.06
387.46	2482.14
387.67	2547.67
387.88	2502.62
388.10	2482.14
388.31	2547.67
388.52	2562.01
388.74	2549.72
388.95	2529.24
389.16	2541.53
389.38	2555.86
389.59	2609.11
389.80	2582.49
390.02	2594.78
390.23	2697.17
390.44	2539.48
390.66	2551.77
390.87	2600.92
391.08	2639.83
391.30	2650.07
391.51	2664.41
391.72	2629.59
391.94	2709.46
392.15	2586.58
392.36	2557.91
392.58	2594.78
392.79	2697.17
393.00	2676.70
393.22	2684.89
393.43	2797.53
393.64	2813.91
393.85	2715.61
394.07	2680.79
394.28	2772.95
394.49	2828.24
394.71	2809.81
394.92	2858.96
395.13	2764.76
395.35	2822.10
395.56	2848.72
395.77	2809.81
395.98	2901.97
396.20	2901.97
396.41	2791.38
396.62	2904.02
396.84	2881.49
397.05	2848.72
397.26	2981.84
397.47	2940.88
397.69	2834.39
397.90	3018.71
398.11	2912.21
398.32	2850.77
398.54	2858.96
398.75	2932.69
398.96	2918.36
399.18	3149.78
399.39	3123.15
399.60	3043.28
399.81	3024.85
400.03	2895.83
400.24	3301.33
400.45	2969.55
400.66	3194.83
400.88	3055.57
401.09	3317.71
401.30	3051.47
401.51	3196.88
401.73	3045.33
401.94	3092.43
402.15	3174.35
402.36	3030.99
402.58	3219.41
402.79	3344.33
403.00	3108.82
403.21	3225.55
403.43	3256.27
403.64	3323.85
403.85	3125.20
404.06	3258.32
404.27	3133.39
404.49	3211.22
404.70	3141.58
404.91	3301.33
405.12	3383.24
405.34	3256.27
405.55	3479.50
405.76	3198.93
405.97	3198.93
406.19	3411.92
406.40	3317.71
406.61	3387.34
406.82	3370.96
407.03	3391.44
407.25	3291.09
407.46	3368.91
407.67	3540.94
407.88	3479.50
408.09	3420.11
408.31	3424.20
408.52	3391.44
408.73	3413.96
408.94	3354.57
409.15	3499.98
409.37	3565.51
409.58	3567.56
409.79	3424.20
410.00	3510.22
410.21	3540.94
410.43	3545.03
410.64	3422.16
410.85	3585.99
411.06	3569.61
411.27	3518.41
411.48	3678.15
411.70	3579.85
411.91	3620.81
412.12	3721.16
412.33	3567.56
412.54	3608.52
412.76	3723.21
412.97	3760.07
413.18	3606.47
413.39	3692.49
413.60	3721.16
413.81	3692.49
414.03	3598.28
414.24	3708.87
414.45	3940.29
414.66	3719.11
414.87	3811.27
415.08	3764.17
415.30	3827.65
415.51	3772.36
415.72	3749.83
415.93	3815.37
416.14	3852.23
416.35	3893.19
416.56	3815.37
416.78	4032.45
416.99	3825.61
417.20	3844.04
417.41	3983.30
417.62	3950.53
417.83	4020.16
418.04	4059.07
418.26	4034.50
418.47	3995.59
418.68	4085.70
418.89	4063.17
419.10	4136.90
419.31	4071.36
419.52	4145.09
419.73	4093.89
419.95	4190.14
420.16	3971.01
420.37	4108.23
420.58	4128.70
420.79	4054.98
421.00	4091.84
421.21	4198.34
421.42	4087.75
421.63	4177.86
421.85	4214.72
422.06	4333.50
422.27	4290.49
422.48	4204.48
422.69	4386.75
422.90	4390.84
423.11	4327.36
423.32	4505.53
423.53	4417.47
423.75	4329.41
423.96	4542.39
424.17	4421.56
424.38	4552.63
424.59	4526.01
424.80	4657.08
425.01	4425.66
425.22	4440.00
425.43	4489.15
425.64	4849.59
425.85	4718.52
426.06	4601.79
426.28	4679.61
426.49	4622.27
426.70	4616.12
426.91	4677.56
427.12	4786.10
427.33	4796.34
427.54	4706.23
427.75	4822.97
427.96	4908.98
428.17	4843.45
428.38	5007.28
428.59	4913.08
428.80	4915.12
429.01	5005.24
429.23	4923.32
429.44	5107.63
429.65	4999.09
429.86	5119.92
430.07	5089.20
430.28	4902.84
430.49	5138.35
430.70	5173.17
430.91	5234.61
431.12	5130.16
431.33	5210.03
431.54	5238.70
431.75	5181.36
431.96	5226.42
432.17	5294.00
432.38	5126.07
432.59	5494.70
432.80	5447.60
433.01	5347.25
433.22	5435.31
433.43	5339.05
433.64	5339.05
433.85	5210.03
434.06	5500.84
434.27	5412.78
434.49	5455.79
434.70	5545.90
434.91	5619.63
435.12	5554.09
435.33	5582.76
435.54	5525.42
435.75	5357.49
435.96	5578.67
436.17	5521.32
436.38	5734.31
436.59	5744.55
436.80	5644.20
437.01	5785.51
437.22	5748.65
437.43	5711.78
437.64	5574.57
437.85	5851.05
438.06	5851.05
438.27	5699.50
438.48	5810.09
438.69	6023.08
438.90	5722.02
439.11	5902.25
439.32	6021.03
439.53	5922.73
439.74	5910.44
439.95	5957.54
440.16	5957.54
440.37	5916.58
440.57	5887.91
440.78	6111.14
440.99	6154.15
441.20	6104.99
441.41	6061.99
441.62	6107.04
441.83	5918.63
442.04	6143.91
442.25	6188.96
442.46	6266.78
442.67	6244.26
442.88	6629.27
443.09	6029.22
443.30	6270.88
443.51	6246.30
443.72	6471.58
443.93	6166.43
444.14	6395.81
444.35	6381.47
444.56	6375.33
444.77	6440.86
444.98	6473.63
445.19	6533.02
445.40	6424.48
445.61	6436.77
445.81	6635.42
446.02	6602.65
446.23	6610.84
446.44	6295.46
446.65	6713.24
446.86	6664.09
447.07	6637.47
447.28	6848.41
447.49	6633.37
447.70	6623.13
447.91	6842.26
448.12	6782.87
448.33	6823.83
448.54	6817.69
448.74	6711.19
448.95	6889.37
449.16	6791.06
449.37	7163.79
449.58	6848.41
449.79	7122.84
450.00	6750.10
450.21	7055.25
450.42	7126.93
450.63	7112.60
450.84	6981.53
451.05	7022.48
451.25	7231.38
451.46	7059.35
451.67	7030.68
451.88	7303.06
452.09	7368.59
452.30	7278.48
452.51	7229.33
452.72	7397.26
452.93	7616.40
453.13	7221.14
453.34	7270.29
453.55	7219.09
453.76	7358.35
453.97	7786.38
454.18	7595.92
454.39	7737.23
454.60	7597.96
454.81	7604.11
455.01	7899.02
455.22	7593.87
455.43	7726.99
455.64	7714.70
455.85	8060.80
456.06	8046.47
456.27	8021.89
456.48	7884.68
456.68	7909.26
456.89	7999.37
457.10	8105.86
457.31	8064.90
457.52	8044.42
457.73	8200.07
457.94	8300.42
458.14	8028.04
458.35	8658.81
458.56	8251.27
458.77	8226.69
458.98	8458.11
459.19	8429.44
459.39	8552.32
459.60	8642.43
459.81	8626.04
460.02	8724.35
460.23	8679.29
460.44	8998.77
460.65	8941.43
460.85	8984.44
461.06	8931.19
461.27	8681.34
461.48	9205.62
461.69	9181.04
461.89	8929.14
462.10	9203.57
462.31	8746.87
462.52	9203.57
462.73	9293.68
462.94	9195.38
463.14	9332.59
463.35	9140.08
463.56	9535.34
463.77	9719.66
463.98	9244.53
464.18	9228.15
464.39	9598.83
464.60	9858.92
464.81	9711.47
465.02	9744.24
465.23	9846.63
465.43	9715.56
465.64	10127.21
465.85	9817.96
466.06	9889.64
466.27	10286.95
466.47	10151.78
466.68	10205.03
466.89	10110.82
467.10	10448.74
467.30	10254.18
467.51	10493.79
467.72	10717.02
467.93	10393.44
468.14	10467.17
468.34	10821.47
468.55	10837.85
468.76	10770.27
468.97	10704.73
469.17	11054.94
469.38	10975.06
469.59	11204.44
469.80	11095.89
470.01	11177.81
470.21	11177.81
470.42	11437.91
470.63	11339.60
470.84	11218.77
471.04	11784.01
471.25	11513.68
471.46	11530.06
471.67	11808.59
471.87	11751.24
472.08	12007.24
472.29	12035.91
472.50	11712.33
472.70	11929.42
472.91	11890.51
473.12	12080.97
473.33	12351.30
473.53	12373.83
473.74	12476.23
473.95	12599.10
474.16	12826.43
474.36	12619.58
474.57	12973.88
474.78	12990.27
474.99	13014.84
475.19	13176.63
475.40	13207.35
475.61	13410.10
475.81	13227.83
476.02	13385.52
476.23	13315.89
476.44	13358.90
476.64	13862.70
476.85	13891.37
477.06	13965.10
477.27	14069.55
477.47	14200.62
477.68	14069.55
477.89	14233.38
478.09	14309.16
478.30	14325.54
478.51	14407.46
478.71	14704.42
478.92	14647.07
479.13	14833.44
479.34	15083.29
479.54	15021.85
479.75	15159.06
479.96	14958.36
480.16	15032.09
480.37	15302.42
480.58	15435.54
480.78	15632.15
480.99	15413.01
481.20	15687.44
481.41	15707.92
481.61	15939.34
481.82	16041.74
482.03	16078.60
482.23	15965.96
482.44	16412.42
482.65	16342.79
482.85	16557.83
483.06	16563.97
483.27	16393.99
483.47	16600.83
483.68	16932.61
483.89	16787.20
484.09	16563.97
484.30	16895.74
484.51	17377.01
484.71	17420.02
484.92	17391.35
485.13	17577.72
485.33	17493.75
485.54	17532.66
485.75	17862.38
485.95	17835.76
486.16	17856.24
486.37	18128.62
486.57	18099.95
486.78	18140.91
486.98	18134.76
487.19	18482.92
487.40	18595.56
487.60	18325.22
487.81	18710.24
488.02	18620.13
488.22	18661.09
488.43	18620.13
488.64	18915.04
488.84	19039.97
489.05	19183.32
489.25	19195.61
489.46	19191.52
489.67	19384.02
489.87	19582.68
490.08	19642.07
490.29	19588.82
490.49	19799.76
490.70	19709.65
490.90	19979.98
491.11	19627.73
491.32	19945.17
491.52	20086.48
491.73	20221.64
491.94	20274.89
492.14	20205.26
492.35	20426.44
492.55	20731.59
492.76	20592.33
492.97	20743.88
493.17	20707.01
493.38	20868.80
493.58	21173.95
493.79	21071.55
494.00	20924.10
494.20	21241.53
494.41	21343.93
494.61	21325.50
494.82	21628.60
495.02	21673.65
495.23	21614.26
495.44	21788.34
495.64	21722.80
495.85	21960.37
496.05	22081.20
496.26	21724.85
496.47	22058.67
496.67	21874.35
496.88	22521.51
497.08	22206.13
497.29	22556.33
497.49	22404.78
497.70	22640.29
497.91	22445.74
498.11	22560.42
498.32	22841.00
498.52	22726.31
498.73	23185.05
498.93	22916.77
499.14	23209.63
499.34	23199.39
499.55	23293.60
499.76	23041.70
499.96	23381.66
500.17	23410.33
500.37	23658.14
500.58	23424.67
500.78	23959.19
500.99	23561.88
501.19	23936.66
501.40	23910.04
501.60	23692.95
501.81	23864.98
502.02	23987.86
502.22	23801.49
502.43	24030.87
502.63	24266.38
502.84	24477.32
503.04	24254.09
503.25	24657.54
503.45	24555.15
503.66	24567.43
503.86	24866.44
504.07	24772.23
504.27	24938.12
504.48	25251.45
504.68	24964.74
504.89	25020.03
505.09	25007.75
505.30	24905.35
505.50	24917.64
505.71	25247.36
505.91	25532.03
506.12	25218.69
506.32	25495.16
506.53	25450.11
506.73	25325.18
506.94	25896.56
507.14	25798.26
507.35	25689.72
507.55	25466.49
507.76	26203.76
507.96	25613.95
508.17	25638.52
508.37	26156.66
508.58	25728.63
508.78	25921.14
508.99	26254.96
509.19	26240.62
509.40	26080.88
509.60	26101.36
509.81	26205.81
510.01	26379.89
510.22	26334.83
510.42	26742.38
510.63	26687.08
510.83	26543.72
511.04	26746.47
511.24	26797.67
511.44	26844.77
511.65	26883.69
511.85	27113.06
512.06	26955.36
512.26	27076.19
512.47	27125.35
512.67	27180.64
512.88	27070.05
513.08	26871.40
513.29	27596.38
513.49	27401.82
513.69	27709.02
513.90	27715.16
514.10	27373.15
514.31	27688.54
514.51	27872.85
514.72	27252.32
514.92	27604.57
515.13	27913.81
515.33	28128.85
515.53	28233.30
515.74	28188.24
515.94	28206.67
516.15	28235.35
516.35	28186.19
516.56	28608.08
516.76	28333.65
516.96	28728.91
517.17	28501.58
517.37	28317.26
517.58	28474.96
517.78	28722.76
517.99	28710.47
518.19	29052.48
518.39	28984.90
518.60	28884.55
518.80	28952.13
519.01	29148.74
519.21	29056.58
519.41	29326.91
519.62	28964.42
519.82	29214.27
520.03	29386.30
520.23	29533.76
520.43	29574.72
520.64	29926.97
520.84	30103.09
521.05	29752.89
521.25	30150.20
521.45	30027.32
521.66	30064.18
521.86	30086.71
522.07	30283.31
522.27	30023.22
522.47	30189.11
522.68	30987.82
522.88	30408.24
523.08	30391.86
523.29	30686.76
523.49	30864.94
523.70	30860.84
523.90	30922.28
524.10	30699.05
524.31	31270.43
524.51	30936.62
524.71	31675.93
524.92	31317.54
525.12	31305.25
525.33	31557.15
525.53	31608.35
525.73	31958.55
525.94	31712.80
526.14	31792.67
526.34	32048.66
526.55	31997.46
526.75	32208.40
526.95	32124.44
527.16	32243.22
527.36	32345.62
527.56	32779.79
527.77	32828.94
527.97	32515.60
528.17	32886.28
528.38	32798.22
528.58	33199.62
528.78	33029.64
528.99	32943.63
529.19	33730.05
529.39	33013.26
529.60	33584.64
529.80	33433.09
530.00	33560.06
530.21	33961.47
530.41	33951.23
530.61	33928.70
530.82	33738.24
531.02	33732.09
531.22	34090.49
531.43	34342.39
531.63	34510.32
531.83	34498.03
532.04	34932.20
532.24	34850.28
532.44	35165.67
532.64	34967.02
532.85	35339.75
533.05	35120.62
533.25	35345.89
533.46	35251.69
533.66	35399.14
533.86	35413.48
534.07	35720.67
534.27	35718.62
534.47	35919.32
534.67	35567.07
534.88	35882.46
535.08	36341.21
535.28	36414.93
535.49	36621.78
535.69	36699.60
535.89	36230.62
536.09	36572.63
536.30	36539.86
536.50	37090.76
536.70	36914.64
536.91	36580.82
537.11	37137.87
537.31	37174.73
537.51	37105.10
537.72	37553.60
537.92	37537.22
538.12	37428.68
538.32	37148.11
538.53	37860.80
538.73	38065.60
538.93	37764.54
539.13	37922.24
539.34	37907.90
539.54	37830.08
539.74	38507.96
539.94	38028.73
540.15	38081.98
540.35	38460.85
540.55	38378.93
540.75	38268.34
540.96	38610.35
541.16	38436.28
541.36	39138.73
541.56	38483.38
541.77	39046.57
541.97	38845.87
542.17	39232.94
542.37	39153.07
542.58	39200.17
542.78	39378.34
542.98	39474.60
543.18	39554.47
543.38	39667.11
543.59	39794.08
543.79	39374.25
543.99	39495.08
544.19	39411.11
544.40	39695.78
544.60	39886.24
544.80	40160.67
545.00	40084.89
545.20	40572.31
545.41	40228.25
545.61	39949.73
545.81	40322.46
546.01	40412.57
546.21	40314.26
546.42	40387.99
546.62	40639.89
546.82	40375.70
547.02	40533.40
547.22	40777.11
547.43	40580.50
547.63	41084.30
547.83	41239.95
548.03	40641.94
548.23	41031.05
548.44	40846.74
548.64	40691.09
548.84	41270.67
549.04	41639.30
549.24	41338.25
549.45	41162.12
549.65	41500.04
549.85	41604.49
550.05	41573.77
550.25	41278.86
550.45	41993.60
550.66	41563.53
550.86	41334.15
551.06	41538.95
551.26	41969.02
551.46	41790.85
551.66	42042.75
551.87	41719.17
552.07	42177.92
552.27	41868.67
552.47	41825.67
552.67	42141.05
552.87	42257.79
553.07	41983.36
553.28	42196.35
553.48	42560.89
553.68	42237.31
553.88	42634.61
554.08	42141.05
554.28	42304.89
554.48	42202.49
554.69	42517.88
554.89	42712.44
555.09	42597.75
555.29	42233.21
555.49	42704.24
555.69	42349.95
555.89	42792.31
556.10	43048.30
556.30	42726.77
556.50	42552.69
556.70	42581.37
556.90	43242.86
557.10	43003.25
557.30	42540.41
557.50	43206.00
557.70	43349.35
557.91	43165.04
558.11	43343.21
558.31	43160.94
558.51	42958.19
558.71	43386.22
558.91	42890.61
559.11	42900.85
559.31	42990.96
559.51	43058.54
559.72	43312.49
559.92	43517.29
560.12	43177.33
560.32	43677.03
560.52	43531.62
560.72	43586.92
560.92	43306.35
561.12	43812.20
561.32	43730.28
561.52	43568.49
561.72	43621.73
561.93	43484.52
562.13	43654.50
562.33	43277.68
562.53	44506.46
562.73	43820.39
562.93	43748.71
563.13	43810.15
563.33	43924.83
563.53	43615.59
563.73	43939.17
563.93	43973.98
564.13	44129.63
564.33	44137.82
564.53	43916.64
564.74	44201.31
564.94	44105.06
565.14	43953.51
565.34	44027.23
565.54	44182.88
565.74	44205.41
565.94	44668.25
566.14	44135.77
566.34	44391.77
566.54	44453.21
566.74	44291.42
566.94	44721.49
567.14	44324.19
567.34	44123.49
567.54	44615.00
567.74	44547.42
567.94	44344.67
568.14	45102.42
568.34	44973.39
568.54	44402.01
568.74	44977.49
568.94	44686.68
569.14	45059.41
569.34	45020.50
569.54	44963.15
569.75	44447.07
569.95	44875.09
570.15	45505.87
570.35	45260.11
570.55	44809.56
570.75	45372.75
570.95	45040.98
571.15	45110.61
571.35	45040.98
571.55	45268.30
571.75	45245.77
571.95	45378.89
572.15	45153.62
572.35	45264.21
572.55	45073.74
572.75	45514.06
572.95	45450.57
573.15	45178.19
573.35	45266.25
573.55	45499.72
573.75	44991.83
573.95	45325.64
574.15	45129.04
574.35	45897.03
574.55	45440.33
574.75	45368.65
574.95	45702.47
575.15	45749.57
575.34	45469.00
575.54	46136.64
575.74	46452.03
575.94	45958.47
576.14	46028.10
576.34	46116.16
576.54	46574.91
576.74	46134.59
576.94	45851.97
577.14	46232.89
577.34	46830.90
577.54	46073.15
577.74	46470.46
577.94	46615.86
578.14	46511.42
578.34	46921.01
578.54	46232.89
578.74	46574.91
578.94	46964.02
579.14	46726.46
579.34	46419.26
579.54	46628.15
579.74	47103.28
579.94	46855.48
580.13	47170.86
580.33	47080.75
580.53	47600.94
580.73	47334.70
580.93	46904.63
581.13	47281.45
581.33	47461.68
581.53	47596.84
581.73	47863.08
581.93	47465.77
582.13	47854.89
582.33	47705.38
582.53	47813.93
582.73	47889.70
582.92	48121.12
583.12	48055.59
583.32	47813.93
583.52	47992.10
583.72	48383.26
583.92	47529.26
584.12	48166.18
584.32	48651.55
584.52	47901.99
584.72	48188.70
584.92	48506.14
585.11	49100.05
585.31	48397.60
585.51	48536.86
585.71	48755.99
585.91	48823.58
586.11	48383.26
586.31	48241.95
586.51	48749.85
586.71	48768.28
586.91	48506.14
587.10	49208.59
587.30	49472.78
587.50	49255.70
587.70	49149.20
587.90	49231.12
588.10	49386.77
588.30	49020.18
588.50	49435.92
588.69	49257.74
588.89	49079.57
589.09	49304.85
589.29	49515.79
589.49	49878.28
589.69	49411.34
589.89	49888.52
590.08	49501.45
590.28	49538.32
590.48	49607.95
590.68	49540.36
590.88	49354.00
591.08	49573.13
591.28	49868.04
591.47	50238.72
591.67	49933.57
591.87	50126.08
592.07	50033.92
592.27	50121.99
592.47	50216.19
592.67	49929.48
592.86	50486.53
593.06	49925.38
593.26	50150.66
593.46	50420.99
593.66	50189.57
593.86	50617.60
594.05	50789.62
594.25	51145.97
594.45	50539.77
594.65	50507.01
594.85	50365.70
595.05	51012.85
595.24	51053.81
595.44	51035.38
595.64	51045.62
595.84	50887.93
596.04	50881.78
596.23	51256.56
596.43	51645.68
596.63	51074.29
596.83	50877.69
597.03	51520.75
597.22	51479.79
597.42	52051.17
597.62	51617.00
597.82	51578.09
598.02	51840.23
598.21	51887.34
598.41	51705.07
598.61	51875.05
598.81	52073.70
599.01	52327.65
599.20	52368.61
599.40	51954.92
599.60	52255.97
599.80	52174.05
600.00	52344.03
600.19	52565.21
600.39	52120.80
600.59	52741.34
600.79	52298.98
600.98	52620.51
601.18	53054.68
601.38	52901.08
601.58	52735.20
601.78	52882.65
601.97	52933.85
602.17	53720.27
602.37	53492.94
602.57	52739.29
602.76	53431.50
602.96	52856.03
603.16	53796.04
603.36	53380.31
603.55	53548.24
603.75	53544.14
603.95	53777.61
604.15	53673.16
604.34	53839.05
604.54	54019.27
604.74	53974.22
604.94	54056.14
605.13	53894.35
605.33	54236.36
605.53	53880.01
605.73	54467.78
605.92	53857.48
606.12	54484.16
606.32	54492.35
606.52	54623.42
606.71	54338.75
606.91	54551.74
607.11	54432.96
607.30	54674.62
607.50	54807.74
607.70	54654.14
607.90	54486.21
608.09	54363.33
608.29	54852.80
608.49	55141.56
608.68	54736.06
608.88	55252.15
609.08	55106.74
609.28	55448.75
609.47	54944.95
609.67	55620.78
609.87	55534.77
610.06	55661.74
610.26	55497.91
610.46	55317.68
610.66	54850.75
610.85	55200.95
611.05	55340.21
611.25	55514.29
611.44	55465.14
611.64	55483.57
611.84	55786.67
612.03	55434.42
612.23	55776.43
612.43	55395.51
612.62	55522.48
612.82	55866.54
613.02	55899.31
613.21	55825.58
613.41	55454.90
613.61	55538.86
613.80	55411.89
614.00	55940.27
614.20	55678.13
614.39	56163.50
614.59	55762.09
614.79	55817.39
614.98	55723.18
615.18	55788.72
615.38	56046.76
615.57	55934.12
615.77	56194.21
615.97	55923.88
616.16	56278.18
616.36	56190.12
616.56	56460.45
616.75	55991.47
616.95	56095.91
617.15	55915.69
617.34	56126.63
617.54	56018.09
617.74	56304.80
617.93	56065.19
618.13	56052.90
618.32	56106.15
618.52	56509.60
618.72	55915.69
618.91	56149.16
619.11	56210.60
619.31	56114.34
619.50	55989.42
619.70	56175.78
619.90	56290.47
620.09	56149.16
620.29	56222.89
620.48	56556.70
620.68	56849.56
620.88	56212.65
621.07	56202.41
621.27	56167.59
621.46	56018.09
621.66	56163.50
621.86	56368.29
622.05	55770.28
622.25	56591.52
622.44	56018.09
622.64	56399.01
622.84	56339.62
623.03	56116.39
623.23	56325.28
623.42	56294.56
623.62	56425.64
623.82	56652.96
624.01	56319.14
624.21	56505.51
624.40	56280.23
624.60	56394.92
624.80	56386.72
624.99	56226.98
625.19	56181.93
625.38	56497.31
625.58	56380.58
625.77	56349.86
625.97	56511.65
626.17	56005.80
626.36	56183.97
626.56	56011.95
626.75	56071.34
626.95	56767.65
627.14	56124.58
627.34	56487.07
627.54	56188.07
627.73	56579.23
627.93	56265.89
628.12	56050.86
628.32	56212.65
628.51	55776.43
628.71	56325.28
628.90	55846.06
629.10	56439.97
629.30	56409.25
629.49	56411.30
629.69	56149.16
629.88	55788.72
630.08	56630.43
630.27	56454.31
630.47	56399.01
630.66	56114.34
630.86	56386.72
631.05	56358.05
631.25	56382.63
631.44	56810.65
631.64	56321.19
631.84	56568.99
632.03	56784.03
632.23	56513.70
632.42	56849.56
632.62	56566.94
632.81	56011.95
633.01	56245.41
633.20	56765.60
633.40	56837.28
633.59	56659.10
633.79	56122.54
633.98	56470.69
634.18	56575.14
634.37	56652.96
634.57	56384.68
634.76	56915.10
634.96	56650.91
635.15	57083.03
635.35	56216.74
635.54	56173.73
635.74	56761.50
635.93	56378.53
636.13	56263.85
636.32	57005.21
636.52	56300.71
636.71	56540.32
636.91	56614.05
637.10	56411.30
637.30	56800.41
637.49	56544.42
637.69	56200.36
637.88	57167.00
638.08	56243.37
638.27	56663.20
638.46	56489.12
638.66	56040.62
638.85	56747.17
639.05	56583.33
639.24	56824.99
639.44	56689.82
639.63	56693.92
639.83	56306.85
640.02	56972.44
640.22	56734.88
640.41	56908.96
640.61	56198.31
640.80	56542.37
640.99	56652.96
641.19	57037.98
641.38	56622.24
641.58	56530.08
641.77	56665.25
641.97	56597.66
642.16	56679.58
642.36	56624.29
642.55	57033.88
642.74	56784.03
642.94	57226.39
643.13	56497.31
643.33	56923.29
643.52	56683.68
643.72	57218.20
643.91	57046.17
644.10	56919.20
644.30	56984.73
644.49	56579.23
644.69	57171.10
644.88	56747.17
645.08	56509.60
645.27	56988.83
645.46	56599.71
645.66	56954.01
645.85	56698.01
646.05	57103.51
646.24	56890.52
646.43	56824.99
646.63	56693.92
646.82	57289.88
647.02	57246.87
647.21	57193.62
647.40	56992.92
647.60	57474.20
647.79	56972.44
647.99	57056.41
648.18	56579.23
648.37	57048.22
648.57	57113.75
648.76	56857.76
648.96	56908.96
649.15	57506.96
649.34	57433.24
649.54	57056.41
649.73	56636.58
649.92	56888.48
650.12	56894.62
650.31	57506.96
650.51	57064.60
650.70	57210.01
650.89	56943.77
651.09	57511.06
651.28	57005.21
651.47	57437.33
651.67	57457.81
651.86	57506.96
652.06	56687.78
652.25	57539.73
652.44	57238.68
652.64	56646.82
652.83	57013.40
653.02	56638.62
653.22	56919.20
653.41	56984.73
653.60	56845.47
653.80	57080.98
653.99	57363.60
654.18	57156.76
654.38	57070.75
654.57	57136.28
654.76	57072.79
654.96	57060.51
655.15	56751.26
655.34	57078.94
655.54	56679.58
655.73	57238.68
655.92	56956.06
656.12	56665.25
656.31	57224.34
656.50	56931.48
656.70	56933.53
656.89	56792.22
657.08	56990.87
657.28	56841.37
657.47	57083.03
657.66	57111.70
657.86	56564.90
658.05	57103.51
658.24	57349.27
658.43	56841.37
658.63	57478.29
658.82	57203.86
659.01	56898.72
659.21	57193.62
659.40	57296.02
659.59	56962.20
659.79	57230.49
659.98	57087.13
660.17	57279.64
660.36	57396.37
660.56	57009.31
660.75	57556.11
660.94	57357.46
661.14	57306.26
661.33	56695.97
661.52	56792.22
661.71	57214.10
661.91	56685.73
662.10	57365.65
662.29	56794.27
662.49	56964.25
662.68	57171.10
662.87	57050.27
663.06	57191.58
663.26	57384.08
663.45	57177.24
663.64	56837.28
663.83	57291.93
664.03	57361.56
664.22	57031.83
664.41	57218.20
664.60	56714.40
664.80	56898.72
664.99	57459.86
665.18	57017.50
665.37	57058.46
665.57	57027.74
665.76	57078.94
665.95	57095.32
666.14	56759.45
666.34	57123.99
666.53	56939.68
666.72	56863.90
666.91	56321.19
667.11	56546.47
667.30	56585.38
667.49	56810.65
667.68	56685.73
667.87	56966.30
668.07	56986.78
668.26	56767.65
668.45	56855.71
668.64	56599.71
668.84	57046.17
669.03	56591.52
669.22	56923.29
669.41	56593.57
669.60	56800.41
669.80	56816.80
669.99	56915.10
670.18	56894.62
670.37	56636.58
670.57	56939.68
670.76	56489.12
670.95	56401.06
671.14	56683.68
671.33	57058.46
671.53	56591.52
671.72	56751.26
671.91	56857.76
672.10	56618.14
672.29	56612.00
672.48	56638.62
672.68	56761.50
672.87	56446.11
673.06	56235.17
673.25	56628.38
673.44	56542.37
673.64	55878.83
673.83	56349.86
674.02	56310.95
674.21	56243.37
674.40	56603.81
674.59	56067.24
674.79	55948.46
674.98	56114.34
675.17	56298.66
675.36	56249.51
675.55	56507.55
675.74	56181.93
675.94	55893.16
676.13	56575.14
676.32	56691.87
676.51	56853.66
676.70	56573.09
676.89	55927.98
677.08	56284.33
677.28	56329.38
677.47	56792.22
677.66	56517.79
677.85	56214.69
678.04	56493.22
678.23	56452.26
678.42	56183.97
678.62	56325.28
678.81	56607.90
679.00	56145.06
679.19	56532.13
679.38	56134.82
679.57	56249.51
679.76	56067.24
679.96	56532.13
680.15	56482.98
680.34	56192.17
680.53	55674.03
680.72	56427.68
680.91	56399.01
681.10	56104.10
681.29	56251.56
681.48	55809.20
681.68	55934.12
681.87	55780.52
682.06	56050.86
682.25	56059.05
682.44	56022.19
682.63	56343.72
682.82	56083.62
683.01	55850.16
683.20	55440.56
683.39	55979.18
683.59	55536.82
683.78	55538.86
683.97	55436.47
684.16	55426.23
684.35	55471.28
684.54	55174.33
684.73	55567.54
684.92	55311.54
685.11	55616.69
685.30	55393.46
685.49	55940.27
685.69	55485.62
685.88	55764.14
686.07	55487.67
686.26	55506.10
686.45	55665.84
686.64	55743.66
686.83	55563.44
687.02	55676.08
687.21	55915.69
687.40	55751.85
687.59	55612.59
687.78	55585.97
687.97	55999.66
688.16	55475.38
688.35	55321.78
688.54	55362.74
688.74	55143.61
688.93	55266.48
689.12	55004.34
689.31	55207.09
689.50	55710.89
689.69	54992.06
689.88	54920.38
690.07	55049.40
690.26	55381.17
690.45	55465.14
690.64	55325.88
690.83	55620.78
691.02	54924.47
691.21	55168.18
691.40	55203.00
691.59	54828.22
691.78	55526.58
691.97	55606.45
692.16	55155.89
692.35	55246.00
692.54	55067.83
692.73	55067.83
692.92	55129.27
693.11	55559.34
693.30	54869.18
693.49	55211.19
693.68	54680.77
693.87	54525.12
694.06	54672.57
694.25	54901.95
694.44	55213.24
694.63	54860.99
694.82	54965.43
695.01	54875.32
695.20	54772.92
695.39	54834.36
695.58	54494.40
695.77	54510.78
695.96	54715.58
696.15	54670.53
696.34	54516.93
696.53	54451.39
696.72	54871.23
696.91	54584.51
697.10	54334.66
697.29	54668.48
697.48	54719.68
697.67	54400.19
697.86	54326.47
698.05	54498.50
698.24	54637.76
698.43	54222.02
698.62	54338.75
698.81	54441.15
699.00	54650.05
699.19	54031.56
699.38	54246.60
699.57	54039.75
699.76	54811.84
699.95	53978.31
700.14	53847.24
700.32	54144.20
700.51	54568.13
700.70	54564.03
700.89	54748.35
701.08	54598.85
701.27	54303.94
701.46	54547.65
701.65	53585.10
701.84	54160.58
702.03	54011.08
702.22	54136.01
702.41	53689.55
702.60	53998.79
702.79	53966.02
702.98	53945.54
703.17	54199.49
703.35	53882.06
703.54	53632.21
703.73	53722.32
703.92	53945.54
704.11	53712.08
704.30	53574.86
704.49	53701.84
704.68	53630.16
704.87	53730.51
705.06	53597.39
705.25	53402.83
705.43	53681.36
705.62	53828.81
705.81	53705.93
706.00	53814.47
706.19	53466.32
706.38	53333.20
706.57	53460.18
706.76	53152.98
706.95	53572.81
707.14	53001.43
707.32	53482.70
707.51	53419.22
707.70	53279.96
707.89	53337.30
708.08	53222.61
708.27	53544.14
708.46	53447.89
708.65	53085.40
708.84	53470.42
709.02	53548.24
709.21	53400.79
709.40	53271.76
709.59	53206.23
709.78	52942.04
709.97	53492.94
710.16	53005.53
710.34	52942.04
710.53	53148.88
710.72	53157.08
710.91	53118.17
711.10	53175.51
711.29	52966.62
711.48	52956.38
711.66	53169.36
711.85	52964.57
712.04	53245.14
712.23	52800.73
712.42	53005.53
712.61	52976.86
712.80	52966.62
712.98	52690.14
713.17	52780.25
713.36	52917.46
713.55	52606.17
713.74	52475.10
713.93	52939.99
714.11	52645.08
714.30	52487.39
714.49	52505.82
714.68	52286.69
714.87	52663.52
715.06	52704.48
715.24	52096.23
715.43	52337.89
715.62	52108.52
715.81	52421.86
716.00	52526.30
716.18	52278.50
716.37	51913.96
716.56	51524.85
716.75	52485.34
716.94	52124.90
717.12	51799.27
717.31	51946.73
717.50	52147.43
717.69	51827.95
717.88	52184.29
718.06	52221.16
718.25	52466.91
718.44	51717.35
718.63	51926.25
718.82	51614.96
719.00	52051.17
719.19	51827.95
719.38	51500.27
719.57	51363.06
719.76	51211.51
719.94	51741.93
720.13	51438.83
720.32	51379.44
720.51	51631.34
720.69	51617.00
720.88	51188.98
721.07	51404.02
721.26	51082.48
721.44	51035.38
721.63	50988.28
721.82	50572.54
722.01	50930.93
722.20	50883.83
722.38	51164.40
722.57	50613.50
722.76	50636.03
722.95	50343.17
723.13	50484.48
723.32	50713.85
723.51	50373.89
723.70	50371.84
723.88	50423.04
724.07	49685.77
724.26	50568.44
724.44	49986.82
724.63	50496.77
724.82	50584.83
725.01	50169.09
725.19	49892.61
725.38	50013.44
725.57	50005.25
725.76	50631.93
725.94	49931.53
726.13	49911.05
726.32	49986.82
726.51	49841.42
726.69	50156.80
726.88	50107.65
727.07	49655.05
727.25	49814.79
727.44	49566.99
727.63	49741.06
727.82	49911.05
728.00	49749.26
728.19	49669.39
728.38	49702.15
728.56	49497.36
728.75	49755.40
728.94	49444.11
729.12	49857.80
729.31	49976.58
729.50	49954.05
729.69	49921.29
729.87	49880.33
730.06	49796.36
730.25	49497.36
730.43	50429.18
730.62	49421.58
730.81	50105.60
730.99	49919.24
731.18	49911.05
731.37	49820.94
731.55	49648.91
731.74	50060.55
731.93	49753.35
732.11	49673.48
732.30	49773.83
732.49	49589.52
732.67	49956.10
732.86	50025.73
733.05	49642.76
733.23	49157.39
733.42	49831.18
733.61	49440.01
733.79	49972.49
733.98	49853.70
734.17	49653.00
734.35	49566.99
734.54	49769.74
734.73	49825.03
734.91	49542.41
735.10	49454.35
735.29	49773.83
735.47	49052.95
735.66	49566.99
735.84	49632.52
736.03	48864.53
736.22	49646.86
736.40	49231.12
736.59	49575.18
736.78	49499.40
736.96	49552.65
737.15	49356.05
737.33	49087.76
737.52	49153.30
737.71	49167.63
737.89	49011.99
738.08	49007.89
738.27	48641.31
738.45	49366.29
738.64	49351.95
738.82	48880.92
739.01	49159.44
739.20	49157.39
739.38	49368.33
739.57	49153.30
739.75	49016.08
739.94	49501.45
740.13	48909.59
740.31	48567.58
740.50	49038.61
740.68	48954.64
740.87	48672.03
741.06	49460.49
741.24	48645.40
741.43	48629.02
741.61	48641.31
741.80	48532.76
741.99	48641.31
742.17	48192.80
742.36	48649.50
742.54	48669.98
742.73	48612.63
742.91	48592.15
743.10	48639.26
743.29	48563.48
743.47	48295.20
743.66	48405.79
743.84	48657.69
744.03	48272.67
744.21	47953.19
744.40	48766.23
744.59	48297.25
744.77	48229.66
744.96	48551.20
745.14	48395.55
745.33	48643.35
745.51	48180.51
745.70	48495.90
745.88	48528.67
746.07	48342.30
746.26	47863.08
746.44	48170.27
746.63	47576.36
746.81	48129.31
747.00	47920.42
747.18	48432.41
747.37	48020.77
747.55	47985.96
747.74	47867.17
747.92	47543.59
748.11	48012.58
748.29	47947.04
748.48	47809.83
748.66	47537.45
748.85	47533.35
749.03	47629.61
749.22	47945.00
749.41	47232.30
749.59	47791.40
749.78	47217.97
749.96	46796.09
750.15	46970.16
750.33	47430.96
750.52	47566.12
750.70	46986.55
750.89	47373.61
751.07	46814.52
751.26	47031.60
751.44	46968.12
751.63	47138.10
751.81	47402.28
752.00	46933.30
752.18	46900.53
752.37	46736.69
752.55	46583.10
752.74	46527.80
752.92	46540.09
753.10	46626.10
753.29	46390.59
753.47	46617.91
753.66	46429.50
753.84	46968.12
754.03	46535.99
754.21	46445.88
754.40	46353.72
754.58	46816.57
754.77	46067.01
754.95	46513.47
755.14	46382.40
755.32	46167.36
755.51	45808.96
755.69	46038.34
755.88	46275.90
756.06	45942.08
756.24	45823.30
756.43	45503.82
756.61	46128.45
756.80	45733.19
756.98	45671.75
757.17	45831.49
757.35	45716.81
757.54	45665.61
757.72	45942.08
757.90	45622.60
758.09	45585.74
758.27	45485.39
758.46	45147.47
758.64	45190.48
758.83	45708.61
759.01	45407.56
759.19	45577.54
759.38	44801.36
759.56	45811.01
759.75	45423.95
759.93	45358.41
760.12	45210.96
760.30	45063.50
760.48	45184.33
760.67	45049.17
760.85	45213.01
761.04	45626.70
761.22	45264.21
761.40	45086.03
761.59	44952.91
761.77	44756.31
761.96	45024.59
762.14	44434.78
762.32	44619.10
762.51	44598.62
762.69	44459.35
762.88	44438.87
763.06	44477.79
763.24	44637.53
763.43	44535.13
763.61	44713.30
763.80	44471.64
763.98	44559.70
764.16	44471.64
764.35	44189.02
764.53	44127.58
764.72	44553.56
764.90	44012.90
765.08	44019.04
765.27	44246.36
765.45	43912.55
765.63	43562.34
765.82	44627.29
766.00	43572.58
766.18	43834.72
766.37	43935.07
766.55	43554.15
766.74	43890.02
766.92	43365.74
767.10	43187.56
767.29	43865.44
767.47	42997.10
767.65	43476.33
767.84	42947.95
768.02	43509.10
768.20	42898.80
768.39	43289.96
768.57	43357.55
768.75	43130.22
768.94	43457.90
769.12	43279.72
769.30	43025.78
769.49	42935.66
769.67	43005.30
769.85	42313.08
770.04	42403.19
770.22	42837.36
770.40	42134.91
770.59	42020.22
770.77	42556.79
770.95	42667.38
771.14	42521.98
771.32	42208.64
771.50	41764.23
771.69	42057.09
771.87	42378.62
772.05	42386.81
772.24	42009.98
772.42	41909.63
772.60	41807.23
772.78	41723.27
772.97	41842.05
773.15	41950.59
773.33	42114.43
773.52	41557.38
773.70	41717.12
773.88	41889.15
774.07	41112.97
774.25	41733.51
774.43	42087.81
774.61	41553.29
774.80	41846.15
774.98	41715.08
775.16	41846.15
775.34	41758.08
775.53	41678.21
775.71	41328.01
775.89	41493.89
776.08	41946.50
776.26	41567.62
776.44	41942.40
776.62	41610.63
776.81	41756.03
776.99	42112.38
777.17	42034.56
777.35	41999.74
777.54	41819.52
777.72	42128.77
777.90	41708.93
778.08	41989.50
778.27	42050.94
778.45	42362.23
778.63	42403.19
778.81	41901.44
779.00	42767.73
779.18	41926.02
779.36	42360.19
779.54	41774.47
779.73	41584.01
779.91	41719.17
780.09	41866.63
780.27	42261.88
780.46	42237.31
780.64	42319.23
780.82	41878.91
781.00	42306.94
781.19	42222.97
781.37	42524.02
781.55	42685.81
781.73	42534.26
781.91	42251.64
782.10	42386.81
782.28	42165.63
782.46	42108.29
782.64	42462.58
782.82	42331.51
783.01	42468.73
783.19	42151.29
783.37	42567.03
783.55	42651.00
783.74	42585.46
783.92	42392.95
784.10	42861.94
784.28	42845.55
784.46	42124.67
784.64	42046.85
784.83	42276.22
785.01	42513.78
785.19	42392.95
785.37	42474.87
785.55	42481.02
785.74	42087.81
785.92	42423.67
786.10	42229.12
786.28	42065.28
786.46	42009.98
786.64	41715.08
786.83	42104.19
787.01	41983.36
787.19	41825.67
787.37	41889.15
787.55	41887.10
787.74	41960.83
787.92	41614.72
788.10	41672.07
788.28	41414.02
788.46	41477.51
788.64	41721.22
788.82	41954.69
789.01	41518.47
789.19	41516.42
789.37	41303.43
789.55	41194.89
789.73	41072.01
789.91	40762.77
790.09	41491.85
790.28	40805.78
790.46	40770.96
790.64	40621.46
790.82	40742.29
791.00	40412.57
791.18	40850.83
791.36	40605.08
791.55	40723.86
791.73	40412.57
791.91	40199.58
792.09	40238.49
792.27	40285.59
792.45	39984.54
792.63	40177.05
792.81	39646.63
793.00	39847.33
793.18	39974.30
793.36	39271.85
793.54	39521.70
793.72	39757.22
793.90	39671.20
794.08	39077.29
794.26	39794.08
794.44	38942.13
794.62	38976.94
794.81	39476.65
794.99	38960.56
795.17	38690.23
795.35	38450.61
795.53	38946.22
795.71	39253.42
795.89	38593.97
796.07	38442.42
796.25	38399.41
796.43	38241.72
796.61	37967.29
796.80	37799.36
796.98	38147.51
797.16	38049.21
797.34	37901.76
797.52	37420.48
797.70	38073.79
797.88	37885.37
798.06	37393.86
798.24	37608.90
798.42	37537.22
798.60	37268.94
798.78	37389.77
798.96	37338.57
799.14	37070.28
799.32	37285.32
799.51	36687.31
799.69	36877.77
799.87	37023.18
800.05	36705.74
800.23	36941.26
800.41	36320.73
800.59	36437.46
800.77	36546.00
800.95	36163.03
801.13	36445.65
801.31	36044.25
801.49	36048.35
801.67	35937.76
801.85	35966.43
802.03	35829.21
802.21	35595.74
802.39	35569.12
802.57	35683.81
802.75	35372.52
802.93	35368.42
803.11	35358.18
803.29	35323.36
803.47	34659.82
803.65	35184.10
803.83	35061.22
804.01	35007.98
804.19	34881.00
804.37	34770.41
804.55	34610.67
804.73	34809.32
804.91	34549.23
805.09	34629.10
805.27	34393.59
805.45	34252.28
805.63	34260.47
805.81	34266.61
805.99	34348.53
806.17	34717.17
806.35	34452.98
806.53	34090.49
806.71	33897.98
806.89	34119.16
807.07	33662.46
807.25	33897.98
807.43	33302.02
807.61	33740.29
807.79	33512.96
807.97	33261.06
808.15	33349.12
808.33	33150.47
808.51	33113.61
808.69	32880.14
808.87	32894.47
809.05	32939.53
809.23	32851.47
809.41	32486.93
809.59	32753.16
809.77	33248.77
809.95	32476.69
810.13	32779.79
810.31	32531.98
810.49	32316.95
810.67	32744.97
810.84	32323.09
811.02	32495.12
811.20	32097.81
811.38	32290.32
811.56	31966.74
811.74	31833.63
811.92	32028.18
812.10	32144.92
812.28	32253.46
812.46	31759.90
812.64	31807.00
812.82	32011.80
813.00	31723.04
813.18	31538.72
813.36	31313.44
813.53	31317.54
813.71	31100.45
813.89	31202.85
814.07	31399.46
814.25	31405.60
814.43	31307.30
814.61	31026.73
814.79	30862.89
814.97	30823.98
815.15	30807.59
815.33	30703.15
815.50	30588.46
815.68	30604.84
815.86	30953.00
816.04	30498.35
816.22	30424.62
816.40	30557.74
816.58	30228.02
816.76	30381.62
816.94	30297.65
817.11	30021.17
817.29	30209.59
817.47	29935.16
817.65	30287.41
817.83	30213.68
818.01	30035.51
818.19	29697.59
818.37	29615.68
818.54	29802.04
818.72	29687.36
818.90	29546.05
819.08	29531.71
819.26	29802.04
819.44	29361.73
819.62	29517.37
819.80	29326.91
819.97	29548.09
820.15	29226.56
820.33	29077.06
820.51	29492.80
820.69	28868.17
820.87	29244.99
821.05	29318.72
821.22	28749.39
821.40	29132.36
821.58	28837.45
821.76	28900.94
821.94	28663.37
822.12	28833.35
822.29	28714.57
822.47	28481.10
822.65	28708.43
822.83	28655.18
823.01	28438.09
823.19	28917.32
823.36	28368.46
823.54	28460.62
823.72	28337.74
823.90	28390.99
824.08	27909.72
824.25	28204.63
824.43	28184.15
824.61	27999.83
824.79	28274.26
824.97	27764.31
825.15	28071.51
825.32	27842.14
825.50	27997.78
825.68	27477.60
825.86	28139.09
826.04	28227.15
826.21	27932.25
826.39	27616.86
826.57	27612.76
826.75	27553.37
826.93	27477.60
827.10	27266.66
827.28	27819.61
827.46	27729.50
827.64	27567.71
827.81	27176.55
827.99	27324.00
828.17	27250.27
828.35	27180.64
828.53	27262.56
828.70	27022.95
828.88	27104.87
829.06	27309.66
829.24	27356.77
829.41	27248.22
829.59	27446.88
829.77	27121.25
829.95	27108.96
830.12	27160.16
830.30	26773.10
830.48	26936.93
830.66	26695.27
830.84	26965.60
831.01	26562.15
831.19	26697.32
831.37	26547.82
831.55	26728.04
831.72	26865.25
831.90	26908.26
832.08	26666.60
832.25	26478.19
832.43	26515.05
832.61	26338.93
832.79	26236.53
832.96	26418.80
833.14	26388.08
833.32	26127.99
833.50	26302.06
833.67	26267.25
833.85	26426.99
834.03	26259.06
834.20	26132.08
834.38	26146.42
834.56	26383.98
834.74	25898.61
834.91	26052.21
835.09	26119.79
835.27	25671.29
835.44	25738.87
835.62	25464.44
835.80	25644.66
835.98	25693.82
836.15	25738.87
836.33	25572.99
836.51	26031.73
836.68	25847.41
836.86	25671.29
837.04	25388.67
837.21	25548.41
837.39	25636.47
837.57	25417.34
837.75	25759.35
837.92	25405.05
838.10	25446.01
838.28	25190.02
838.45	25312.89
838.63	25405.05
838.81	25083.52
838.98	25048.71
839.16	24997.51
839.34	24954.50
839.51	25206.40
839.69	24895.11
839.87	24874.63
840.04	24901.25
840.22	25122.43
840.40	25259.65
840.57	24884.87
840.75	24983.17
840.93	24471.18
841.10	24753.80
841.28	25124.48
841.46	24561.29
841.63	25126.53
841.81	24823.43
841.98	24680.07
842.16	24897.16
842.34	24786.57
842.51	24579.72
842.69	24657.54
842.87	24479.37
843.04	24620.68
843.22	24360.59
843.40	24071.82
843.57	24456.84
843.75	24444.56
843.92	24401.55
844.10	24405.64
844.28	24348.30
844.45	24413.84
844.63	24417.93
844.81	24282.77
844.98	24411.79
845.16	24317.58
845.33	23944.85
845.51	24192.65
845.69	24151.70
845.86	23969.43
846.04	24014.48
846.21	24075.92
846.39	24243.85
846.57	23924.37
846.74	23809.68
846.92	23635.61
847.09	23723.67
847.27	23645.85
847.45	23666.33
847.62	23783.06
847.80	23895.70
847.97	23660.18
848.15	23615.13
848.32	23553.69
848.50	23692.95
848.68	23402.14
848.85	23414.43
849.03	23408.28
849.20	23606.94
849.38	23289.50
849.56	23209.63
849.73	23252.64
849.91	23140.00
850.08	23496.35
850.26	23281.31
850.43	23209.63
850.61	23031.46
850.78	22988.45
850.96	23187.10
851.14	22959.78
851.31	23346.84
851.49	22742.69
851.66	23004.83
851.84	23080.61
852.01	22810.28
852.19	22957.73
852.36	22789.80
852.54	22834.85
852.71	22845.09
852.89	22795.94
853.07	23080.61
853.24	22746.79
853.42	22951.59
853.59	22494.89
853.77	22800.04
853.94	22980.26
854.12	22935.20
854.29	22458.03
854.47	22644.39
854.64	22675.11
854.82	22582.95
854.99	22410.92
855.17	22630.05
855.34	22720.17
855.52	22326.96
855.69	22814.37
855.87	22224.56
856.04	22226.60
856.22	22541.99
856.39	22224.56
856.57	22390.44
856.74	22406.83
856.92	22173.36
857.09	22011.57
857.27	22187.69
857.44	22175.41
857.62	22169.26
857.79	22159.02
857.97	22132.40
858.14	22202.03
858.32	22060.72
858.49	22038.19
858.67	21919.41
858.84	21536.44
859.02	22034.10
859.19	21989.04
859.37	21839.54
859.54	21655.22
859.72	21860.02
859.89	21743.28
860.06	22056.62
860.24	21726.90
860.41	21829.30
860.59	21509.82
860.76	21882.55
860.94	21456.57
861.11	21685.94
861.29	21665.46
861.46	21612.21
861.64	21477.05
861.81	21364.41
861.98	21253.82
862.16	21339.83
862.33	21192.38
862.51	21288.64
862.68	21438.14
862.86	21294.78
863.03	21137.09
863.21	21229.24
863.38	21153.47
863.55	21087.93
863.73	21180.09
863.90	21049.02
864.08	21036.74
864.25	21063.36
864.43	21194.43
864.60	20932.29
864.77	20899.52
864.95	21001.92
865.12	20672.20
865.30	20973.25
865.47	20621.00
865.64	20840.13
865.82	21022.40
865.99	21018.30
866.17	20727.49
866.34	20889.28
866.51	20238.03
866.69	20573.89
866.86	20487.88
867.04	20580.04
867.21	20727.49
867.38	20549.32
867.56	20289.23
867.73	20350.67
867.91	20422.34
868.08	20526.79
868.25	20303.56
868.43	20213.45
868.60	20238.03
868.78	20188.88
868.95	20414.15
869.12	20264.65
869.30	20164.30
869.47	20235.98
869.64	19902.16
869.82	20049.61
869.99	20014.80
870.16	20078.29
870.34	20268.75
870.51	20076.24
870.69	20049.61
870.86	20000.46
871.03	19963.60
871.21	19977.94
871.38	20084.43
871.55	19740.37
871.73	19836.63
871.90	19584.73
872.07	19627.73
872.25	19564.25
872.42	19484.37
872.59	19496.66
872.77	19443.42
872.94	19443.42
873.11	19668.69
873.29	19691.22
873.46	19558.10
873.63	19191.52
873.81	19488.47
873.98	19392.22
874.15	19259.10
874.33	19179.23
874.50	19144.41
874.67	19205.85
874.85	19123.93
875.02	19029.73
875.19	18898.66
875.37	18892.51
875.54	18747.11
875.71	18941.66
875.88	18763.49
876.06	19001.05
876.23	18724.58
876.40	18669.28
876.58	18769.63
876.75	18790.11
876.92	18513.64
877.10	18601.70
877.27	18634.47
877.44	18493.16
877.61	18695.91
877.79	18396.90
877.96	18304.74
878.13	18433.77
878.31	18210.54
878.48	18317.03
878.65	18237.16
878.82	18106.09
879.00	18308.84
879.17	18042.60
879.34	18147.05
879.51	17944.30
879.69	18306.79
879.86	18030.32
880.03	17995.50
880.21	17909.49
880.38	18024.17
880.55	17932.01
880.72	17938.16
880.90	17895.15
881.07	17757.94
881.24	17970.93
881.41	17923.82
881.59	17878.77
881.76	17835.76
881.93	17473.27
882.10	17565.43
882.28	17755.89
882.45	17559.28
882.62	17424.12
882.79	17630.96
882.96	17200.89
883.14	17442.55
883.31	17481.46
883.48	17600.24
883.65	17598.20
883.83	17590.00
884.00	17524.47
884.17	17553.14
884.34	17524.47
884.51	17348.34
884.69	17207.03
884.86	17235.70
885.03	17395.45
885.20	17125.11
885.38	17286.90
885.55	17260.28
885.72	17002.24
885.89	17067.77
886.06	17135.35
886.24	17184.51
886.41	17164.03
886.58	17219.32
886.75	17342.20
886.92	16803.58
887.10	17073.92
887.27	16707.33
887.44	17096.44
887.61	17180.41
887.78	17166.07
887.95	17006.33
888.13	16809.73
888.30	16903.93
888.47	16922.37
888.64	16881.41
888.81	16992.00
888.99	16740.10
889.16	16643.84
889.33	16834.30
889.50	16586.50
889.67	16387.85
889.84	16574.21
890.01	16766.72
890.19	16742.14
890.36	16699.14
890.53	16447.24
890.70	16236.30
890.87	16305.93
891.04	16146.19
891.22	16310.02
891.39	16555.78
891.56	16199.43
891.73	16334.60
891.90	16248.58
892.07	16219.91
892.24	16078.60
892.42	16158.47
892.59	16097.03
892.76	16006.92
892.93	16326.41
893.10	16070.41
893.27	15851.28
893.44	15716.11
893.61	15718.16
893.79	16062.22
893.96	15998.73
894.13	16099.08
894.30	15986.44
894.47	16101.13
894.64	16043.79
894.81	15820.56
894.98	16035.60
895.15	16185.10
895.33	16000.78
895.50	15869.71
895.67	15984.40
895.84	15959.82
896.01	15863.57
896.18	15906.57
896.35	15937.29
896.52	15687.44
896.69	15976.20
896.86	15628.05
897.04	15843.09
897.21	15736.59
897.38	15656.72
897.55	15922.96
897.72	15894.29
897.89	15828.75
898.06	15898.38
898.23	15912.72
898.40	15902.48
898.57	15834.89
898.74	15904.53
898.91	15968.01
899.08	15703.82
899.26	15861.52
899.43	15730.45
899.60	15759.12
899.77	15920.91
899.94	15496.98
900.11	15660.82
900.28	15847.18
900.45	15591.19
900.62	15638.29
900.79	15884.05
900.96	15769.36
901.13	15841.04
901.30	15716.11
901.47	15714.06
901.64	15806.22
901.81	15847.18
901.98	15673.10
902.15	15869.71
902.32	15607.57
902.49	15808.27
902.66	15834.89
902.83	15630.10
903.01	15691.54
903.18	15697.68
903.35	15734.54
903.52	15609.62
903.69	15685.39
903.86	15740.69
904.03	15714.06
904.20	15703.82
904.37	15939.34
904.54	15785.74
904.71	15779.60
904.88	15730.45
905.05	15421.20
905.22	15691.54
905.39	15746.83
905.56	15660.82
905.73	15556.37
905.90	15644.43
906.07	15662.86
906.24	15591.19
906.41	15798.03
906.58	15550.23
906.75	15646.48
906.92	15615.76
907.09	15662.86
907.26	15804.17
907.43	15589.14
907.60	15671.06
907.77	15621.91
907.93	15724.30
908.10	15582.99
908.27	15568.66
908.44	15580.95
908.61	15429.40
908.78	15642.39
908.95	15316.76
909.12	15658.77
909.29	15480.60
909.46	15345.43
909.63	15507.22
909.80	15566.61
909.97	15472.40
910.14	15476.50
910.31	15701.78
910.48	15464.21
910.65	15435.54
910.82	15415.06
910.99	15578.90
911.16	15290.13
911.33	15279.89
911.50	15501.08
911.66	15451.92
911.83	15300.37
912.00	15329.05
912.17	14976.80
912.34	15019.80
912.51	15247.13
912.68	15085.34
912.85	15134.49
913.02	15277.85
913.19	15175.45
913.36	15224.60
913.53	15091.48
913.70	15122.20
913.86	15347.48
914.03	15027.99
914.20	14915.36
914.37	15038.23
914.54	14728.99
914.71	15116.06
914.88	14757.66
915.05	14888.73
915.22	14876.44
915.39	14681.89
915.55	14911.26
915.72	14810.91
915.89	14704.42
916.06	14407.46
916.23	14509.86
916.40	14540.58
916.57	14227.24
916.74	14225.19
916.91	14309.16
917.07	14212.90
917.24	14298.92
917.41	14296.87
917.58	14247.72
917.75	14288.68
917.92	14239.53
918.09	14114.60
918.26	14280.49
918.42	14036.78
918.59	13999.91
918.76	14004.01
918.93	13776.69
919.10	13707.05
919.27	13911.85
919.44	14204.71
919.60	13995.82
919.77	13870.89
919.94	13733.68
920.11	13844.27
920.28	13709.10
920.45	13602.61
920.61	13496.11
920.78	13594.42
920.95	13539.12
921.12	13698.86
921.29	13221.69
921.46	13248.31
921.62	13205.30
921.79	13451.06
921.96	13092.66
922.13	13313.84
922.30	13264.69
922.47	13012.79
922.63	12963.64
922.80	12965.69
922.97	13076.28
923.14	12861.24
923.31	12795.71
923.47	12803.90
923.64	12881.72
923.81	12578.62
923.98	12713.79
924.15	12773.18
924.32	12447.55
924.48	12541.76
924.65	12652.35
924.82	12582.72
924.99	12191.56
925.15	12238.66
925.32	12500.80
925.49	12021.58
925.66	12263.24
925.83	12181.32
925.99	12003.14
926.16	11990.86
926.33	12183.37
926.50	11835.21
926.67	11984.71
926.83	11943.75
927.00	11784.01
927.17	11587.41
927.34	11718.48
927.50	11722.57
927.67	11777.87
927.84	11478.86
928.01	11515.73
928.17	11425.62
928.34	11364.18
928.51	11460.43
928.68	11425.62
928.84	11401.04
929.01	11122.52
929.18	11216.72
929.35	11439.95
929.51	11218.77
929.68	10915.67
929.85	10991.45
930.02	10960.73
930.18	10872.67
930.35	10911.58
930.52	10856.28
930.69	10741.60
930.85	10936.15
931.02	10596.19
931.19	10753.88
931.36	10426.21
931.52	10626.91
931.69	10870.62
931.86	10342.24
932.02	10516.32
932.19	10471.26
932.36	10393.44
932.53	10366.82
932.69	10141.54
932.86	10135.40
933.03	10352.48
933.19	9946.98
933.36	10024.81
933.53	10149.73
933.70	10049.38
933.86	10073.96
934.03	9912.17
934.20	9916.26
934.36	9955.18
934.53	9772.91
934.70	9508.72
934.86	9609.07
935.03	9408.37
935.20	9463.66
935.36	9551.73
935.53	9484.14
935.70	9195.38
935.86	9297.78
936.03	9162.61
936.20	8861.56
936.36	8937.34
936.53	8820.60
936.70	8816.51
936.86	8822.65
937.03	8818.55
937.20	8587.13
937.36	8460.16
937.53	8335.23
937.70	8193.92
937.86	8060.80
938.03	7974.79
938.20	8130.44
938.36	8028.04
938.53	8005.51
938.70	7737.23
938.86	7753.61
939.03	7610.25
939.20	7579.53
939.36	7425.93
939.53	7352.21
939.70	7393.17
939.86	7143.32
940.03	7174.03
940.19	7085.97
940.36	7057.30
940.53	6989.72
940.69	6733.72
940.86	6717.34
941.03	6743.96
941.19	6692.76
941.36	6524.83
941.52	6496.16
941.69	6518.68
941.86	6490.01
942.02	6406.05
942.19	6195.11
942.35	6426.53
942.52	6191.01
942.69	6090.66
942.85	6133.67
943.02	5918.63
943.18	6131.62
943.35	5928.87
943.52	5988.26
943.68	5857.19
943.85	6000.55
944.01	5861.29
944.18	5654.44
944.35	5828.52
944.51	5762.98
944.68	5627.82
944.84	5648.30
945.01	5595.05
945.17	5754.79
945.34	5584.81
945.51	5597.10
945.67	5590.95
945.84	5762.98
946.00	5547.95
946.17	5666.73
946.33	5414.83
946.50	5597.10
946.67	5666.73
946.83	5353.39
947.00	5533.61
947.16	5386.16
947.33	5484.46
947.49	5380.01
947.66	5482.41
947.82	5502.89
947.99	5500.84
948.16	5558.19
948.32	5533.61
948.49	5599.15
948.65	5515.18
948.82	5427.12
948.98	5433.26
949.15	5388.21
949.31	5470.12
949.48	5349.29
949.64	5418.93
949.81	5550.00
949.97	5433.26
950.14	5545.90
950.30	5441.45
950.47	5525.42
950.63	5386.16
950.80	5560.24
950.96	5455.79
951.13	5504.94
951.30	5361.58
951.46	5562.28
951.63	5539.76
951.79	5588.91
951.96	5595.05
952.12	5504.94
952.29	5527.47
952.45	5377.97
952.62	5582.76
952.78	5388.21
952.94	5527.47
953.11	5568.43
953.27	5314.48
953.44	5646.25
953.60	5593.00
953.77	5623.72
953.93	5625.77
954.10	5541.80
954.26	5593.00
954.43	5574.57
954.59	5572.52
954.76	5670.83
954.92	5697.45
955.09	5543.85
955.25	5646.25
955.42	5550.00
955.58	5681.07
955.75	5488.56
955.91	5744.55
956.07	5625.77
956.24	5715.88
956.40	5537.71
956.57	5691.31
956.73	5529.52
956.90	5517.23
957.06	5449.64
957.23	5412.78
957.39	5574.57
957.56	5562.28
957.72	5582.76
957.88	5556.14
958.05	5605.29
958.21	5713.83
958.38	5482.41
958.54	5593.00
958.71	5709.74
958.87	5607.34
959.03	5625.77
959.20	5717.93
959.36	5556.14
959.53	5425.07
959.69	5547.95
959.85	5664.68
960.02	5431.21
960.18	5568.43
960.35	5523.37
960.51	5697.45
960.68	5593.00
960.84	5523.37
961.00	5611.43
961.17	5425.07
961.33	5701.54
961.50	5451.69
961.66	5648.30
961.82	5599.15
961.99	5588.91
962.15	5513.13
962.31	5525.42
962.48	5457.84
962.64	5621.67
962.81	5517.23
962.97	5539.76
963.13	5605.29
963.30	5558.19
963.46	5556.14
963.62	5529.52
963.79	5486.51
963.95	5547.95
964.12	5552.04
964.28	5468.08
964.44	5416.88
964.61	5613.48
964.77	5437.36
964.93	5441.45
965.10	5455.79
965.26	5375.92
965.42	5380.01
965.59	5431.21
965.75	5361.58
965.92	5339.05
966.08	5371.82
966.24	5453.74
966.41	5492.65
966.57	5502.89
966.73	5351.34
966.90	5554.09
967.06	5347.25
967.22	5345.20
967.39	5320.62
967.55	5353.39
967.71	5287.86
967.88	5171.12
968.04	5353.39
968.20	5437.36
968.37	5214.13
968.53	5296.05
968.69	5263.28
968.85	5281.71
969.02	5224.37
969.18	5234.61
969.34	5267.38
969.51	5281.71
969.67	5310.38
969.83	5201.84
970.00	5287.86
970.16	5144.50
970.32	5255.09
970.48	5355.44
970.65	5076.91
970.81	5056.43
970.97	5238.70
971.14	4970.42
971.30	5185.46
971.46	5056.43
971.63	5064.63
971.79	5283.76
971.95	5050.29
972.11	4988.85
972.28	5099.44
972.44	5087.15
972.60	4894.65
972.76	5205.94
972.93	4945.84
973.09	5097.39
973.25	5097.39
973.42	5003.19
973.58	5119.92
973.74	4988.85
973.90	5027.76
974.07	4908.98
974.23	5050.29
974.39	4919.22
974.55	4958.13
974.72	4777.91
974.88	4865.97
975.04	4935.60
975.20	4908.98
975.37	4929.46
975.53	4837.30
975.69	4849.59
975.85	4724.66
976.01	4843.45
976.18	4794.29
976.34	4880.31
976.50	4759.48
976.66	4716.47
976.83	4816.82
976.99	4687.80
977.15	4769.72
977.31	4491.20
977.47	4743.10
977.64	4759.48
977.80	4679.61
977.96	4747.19
978.12	4599.74
978.29	4552.63
978.45	4605.88
978.61	4667.32
978.77	4695.99
978.93	4534.20
979.10	4622.27
979.26	4550.59
979.42	4562.87
979.58	4313.02
979.74	4503.48
979.91	4499.39
980.07	4534.20
980.23	4677.56
980.39	4501.44
980.55	4452.28
980.71	4509.63
980.88	4480.96
981.04	4552.63
981.20	4435.90
981.36	4509.63
981.52	4419.52
981.68	4341.69
981.85	4437.95
982.01	4550.59
982.17	4362.17
982.33	4353.98
982.49	4433.85
982.65	4353.98
982.82	4302.78
982.98	4411.32
983.14	4270.01
983.30	4317.12
983.46	4530.11
983.62	4294.59
983.79	4239.30
983.95	4306.88
984.11	4104.13
984.27	4302.78
984.43	4243.39
984.59	4245.44
984.75	4265.92
984.91	4161.47
985.08	4290.49
985.24	4325.31
985.40	4091.84
985.56	4104.13
985.72	4403.13
985.88	4243.39
986.04	4278.21
986.20	4071.36
986.37	4054.98
986.53	4143.04
986.69	4097.99
986.85	4052.93
987.01	4024.26
987.17	4095.94
987.33	4061.12
987.49	3987.40
987.65	3991.49
987.82	4005.83
987.98	3891.14
988.14	4073.41
988.30	3989.44
988.46	4122.56
988.62	3928.00
988.78	3893.19
988.94	3954.63
989.10	3921.86
989.26	3899.33
989.42	3928.00
989.59	3801.03
989.75	3827.65
989.91	3770.31
990.07	3770.31
990.23	3858.37
990.39	3803.08
990.55	3753.93
990.71	3704.78
990.87	3829.70
991.03	3903.43
991.19	3825.61
991.35	3786.69
991.51	3798.98
991.67	3901.38
991.83	3774.41
992.00	3770.31
992.16	3837.89
992.32	3743.69
992.48	3825.61
992.64	3626.95
992.80	3588.04
992.96	3678.15
993.12	3688.39
993.28	3717.06
993.44	3674.06
993.60	3727.30
993.76	3665.86
993.92	3694.54
994.08	3727.30
994.24	3655.62
994.40	3600.33
994.56	3592.14
994.72	3624.90
994.88	3487.69
995.04	3563.47
995.20	3590.09
995.36	3475.40
995.52	3557.32
995.68	3592.14
995.84	3504.07
996.00	3585.99
996.16	3475.40
996.32	3530.70
996.48	3401.68
996.64	3528.65
996.80	3362.76
996.96	3502.03
997.12	3508.17
997.28	3428.30
997.44	3325.90
997.60	3387.34
997.76	3387.34
997.92	3438.54
998.08	3416.01
998.24	3323.85
998.40	3360.72
998.56	3385.29
998.72	3344.33
998.88	3309.52
999.04	3334.09
999.20	3387.34
999.36	3248.08
999.52	3432.40
999.68	3256.27
999.84	3309.52
1000.00	3350.48
1000.16	3362.76
1000.32	3256.27
1000.48	3360.72
1000.64	3239.89
1000.80	3147.73
1000.95	3114.96
1001.11	3203.02
1001.27	3145.68
1001.43	3188.69
1001.59	3127.25
1001.75	3248.08
1001.91	3237.84
1002.07	3168.21
1002.23	3051.47
1002.39	3192.78
1002.55	3119.06
1002.71	3057.62
1002.87	3102.67
1003.03	3182.54
1003.19	3026.90
1003.34	3180.50
1003.50	3055.57
1003.66	3059.67
1003.82	3123.15
1003.98	3012.56
1004.14	3084.24
1004.30	3067.86
1004.46	3069.91
1004.62	3049.43
1004.78	3059.67
1004.94	3071.95
1005.09	3049.43
1005.25	3051.47
1005.41	3000.27
1005.57	2969.55
1005.73	2961.36
1005.89	3065.81
1006.05	3047.38
1006.21	3065.81
1006.37	2891.73
1006.52	2895.83
1006.68	2895.83
1006.84	2912.21
1007.00	2891.73
1007.16	2983.89
1007.32	2844.63
1007.48	2971.60
1007.64	2904.02
1007.79	2922.45
1007.95	2828.24
1008.11	2949.08
1008.27	2908.12
1008.43	2879.44
1008.59	2848.72
1008.75	2904.02
1008.91	2967.51
1009.06	2783.19
1009.22	2914.26
1009.38	2781.14
1009.54	2889.68
1009.70	2707.41
1009.86	2756.57
1010.01	2846.68
1010.17	2699.22
1010.33	2842.58
1010.49	2762.71
1010.65	2795.48
1010.81	2863.06
1010.96	2844.63
1011.12	2676.70
1011.28	2678.74
1011.44	2754.52
1011.60	2631.64
1011.76	2662.36
1011.91	2795.48
1012.07	2635.74
1012.23	2656.22
1012.39	2635.74
1012.55	2713.56
1012.71	2633.69
1012.86	2635.74
1013.02	2664.41
1013.18	2715.61
1013.34	2539.48
1013.50	2615.26
1013.65	2668.50
1013.81	2607.06
1013.97	2596.82
1014.13	2609.11
1014.29	2584.54
1014.44	2756.57
1014.60	2574.30
1014.76	2588.63
1014.92	2639.83
1015.07	2652.12
1015.23	2547.67
1015.39	2512.86
1015.55	2600.92
1015.71	2551.77
1015.86	2541.53
1016.02	2508.76
1016.18	2428.89
1016.34	2576.34
1016.49	2527.19
1016.65	2570.20
1016.81	2486.23
1016.97	2506.71
1017.12	2529.24
1017.28	2441.18
1017.44	2406.36
1017.60	2418.65
1017.75	2500.57
1017.91	2504.67
1018.07	2441.18
1018.23	2445.27
1018.38	2279.39
1018.54	2459.61
1018.70	2461.66
1018.86	2453.47
1019.01	2392.03
1019.17	2414.56
1019.33	2465.75
1019.49	2486.23
1019.64	2527.19
1019.80	2387.93
1019.96	2437.08
1020.12	2414.56
1020.27	2330.59
1020.43	2371.55
1020.59	2344.92
1020.74	2443.23
1020.90	2406.36
1021.06	2203.61
1021.22	2328.54
1021.37	2361.31
1021.53	2314.20
1021.69	2346.97
1021.84	2244.57
1022.00	2308.06
1022.16	2359.26
1022.31	2299.87
1022.47	2303.96
1022.63	2306.01
1022.79	2160.61
1022.94	2230.24
1023.10	2408.41
1023.26	2275.29
1023.41	2207.71
1023.57	2242.53
1023.73	2232.29
1023.88	2312.16
1024.04	2213.85
1024.20	2256.86
1024.35	2297.82
1024.51	2232.29
1024.67	2215.90
1024.82	2301.92
1024.98	2185.18
1025.14	2285.53
1025.29	2314.20
1025.45	2191.33
1025.61	2125.79
1025.76	2160.61
1025.92	2144.22
1026.08	2238.43
1026.23	2236.38
1026.39	2215.90
1026.55	2125.79
1026.70	2146.27
1026.86	2183.13
1027.02	2271.20
1027.17	2099.17
1027.33	2193.37
1027.48	2125.79
1027.64	2164.70
1027.80	2181.09
1027.95	2174.94
1028.11	2011.11
1028.27	2197.47
1028.42	2172.89
1028.58	2019.30
1028.73	2078.69
1028.89	2076.64
1029.05	2142.18
1029.20	2111.46
>>>>>End Processed Spectral Data<<<<<
