SpectraSuite Data File
++++++++++++++++++++++++++++++++++++
Date: Fri Jun 02 14:52:25 CEST 2017
User: INFO_000
Dark Spectrum Present: No
Reference Spectrum Present: No
Number of Sampled Component Spectra: 1
Spectrometers: USB4H00879
Integration Time (usec): 80000 (USB4H00879)
Spectra Averaged: 1 (USB4H00879)
Boxcar Smoothing: 0 (USB4H00879)
Correct for Electrical Dark: No (USB4H00879)
Strobe/Lamp Enabled: No (USB4H00879)
Correct for Detector Non-linearity: No (USB4H00879)
Correct for Stray Light: No (USB4H00879)
Number of Pixels in Processed Spectrum: 3648
>>>>>Begin Processed Spectral Data<<<<<
345.13	1284.08
345.34	1284.08
345.56	1284.08
345.78	1230.83
345.99	1298.41
346.21	1730.53
346.42	1683.43
346.64	1634.28
346.86	1757.16
347.07	1669.09
347.29	1720.29
347.50	1603.56
347.72	1656.81
347.94	1779.68
348.15	1597.42
348.37	1572.84
348.59	1722.34
348.80	1626.09
349.02	1765.35
349.23	1853.41
349.45	1845.22
349.67	1877.99
349.88	1744.87
350.10	1994.72
350.31	1916.90
350.53	1800.16
350.75	1943.52
350.96	1806.31
351.18	1830.88
351.39	1814.50
351.61	1820.64
351.82	1912.80
352.04	1869.80
352.26	1863.65
352.47	1904.61
352.69	1890.28
352.90	1761.25
353.12	1828.84
353.34	1822.69
353.55	1949.67
353.77	1882.08
353.98	1933.28
354.20	1804.26
354.41	1890.28
354.63	1941.47
354.85	2002.91
355.06	1853.41
355.28	1806.31
355.49	1912.80
355.71	1955.81
355.92	1832.93
356.14	1980.39
356.35	1912.80
356.57	1841.12
356.79	1953.76
357.00	1869.80
357.22	1906.66
357.43	1867.75
357.65	1964.00
357.86	1849.32
358.08	1931.23
358.29	1908.71
358.51	2050.02
358.72	2004.96
358.94	1974.24
359.16	1875.94
359.37	1916.90
359.59	2019.30
359.80	1953.76
360.02	1990.63
360.23	1970.15
360.45	2037.73
360.66	1957.86
360.88	1875.94
361.09	1943.52
361.31	1957.86
361.52	1968.10
361.74	2029.54
361.95	2090.98
362.17	2027.49
362.38	2093.02
362.60	2033.63
362.81	2088.93
363.03	1920.99
363.24	2025.44
363.46	2148.32
363.67	1994.72
363.89	1992.67
364.10	2076.64
364.32	1947.62
364.53	2113.50
364.75	1916.90
364.96	2088.93
365.18	2064.35
365.39	2045.92
365.61	1941.47
365.82	2064.35
366.04	2056.16
366.25	1941.47
366.47	2125.79
366.68	2062.30
366.90	1935.33
367.11	2039.78
367.33	2088.93
367.54	2129.89
367.76	1996.77
367.97	2140.13
368.19	2088.93
368.40	2068.45
368.62	1998.82
368.83	2031.58
369.05	2023.39
369.26	2043.87
369.48	2000.87
369.69	1972.19
369.91	2060.26
370.12	2070.50
370.33	2074.59
370.55	1929.19
370.76	2009.06
370.98	2117.60
371.19	2090.98
371.41	2047.97
371.62	2076.64
371.84	2035.68
372.05	2160.61
372.27	2084.83
372.48	2142.18
372.69	2072.54
372.91	2166.75
373.12	2181.09
373.34	2082.78
373.55	2129.89
373.77	2162.66
373.98	2148.32
374.20	2148.32
374.41	2271.20
374.62	2187.23
374.84	2246.62
375.05	2176.99
375.27	2150.37
375.48	2158.56
375.70	2170.85
375.91	2252.77
376.12	2301.92
376.34	2179.04
376.55	2232.29
376.77	2265.05
376.98	2146.27
377.19	2183.13
377.41	2131.94
377.62	2297.82
377.84	2234.33
378.05	2310.11
378.27	2199.52
378.48	2330.59
378.69	2365.40
378.91	2254.81
379.12	2271.20
379.34	2289.63
379.55	2230.24
379.76	2295.77
379.98	2246.62
380.19	2217.95
380.41	2318.30
380.62	2330.59
380.83	2232.29
381.05	2193.37
381.26	2402.27
381.47	2299.87
381.69	2246.62
381.90	2373.60
382.12	2367.45
382.33	2336.73
382.54	2297.82
382.76	2289.63
382.97	2324.44
383.19	2279.39
383.40	2428.89
383.61	2336.73
383.83	2314.20
384.04	2318.30
384.25	2432.99
384.47	2416.60
384.68	2428.89
384.89	2273.25
385.11	2363.36
385.32	2371.55
385.54	2355.16
385.75	2361.31
385.96	2453.47
386.18	2424.80
386.39	2465.75
386.60	2410.46
386.82	2426.84
387.03	2351.07
387.24	2521.05
387.46	2602.97
387.67	2568.15
387.88	2607.06
388.10	2502.62
388.31	2576.34
388.52	2672.60
388.74	2510.81
388.95	2459.61
389.16	2539.48
389.38	2551.77
389.59	2721.75
389.80	2648.02
390.02	2562.01
390.23	2623.45
390.44	2574.30
390.66	2650.07
390.87	2586.58
391.08	2678.74
391.30	2756.57
391.51	2688.98
391.72	2707.41
391.94	2711.51
392.15	2656.22
392.36	2637.78
392.58	2598.87
392.79	2691.03
393.00	2617.30
393.22	2818.00
393.43	2863.06
393.64	2822.10
393.85	2805.72
394.07	2727.89
394.28	2752.47
394.49	2799.57
394.71	2772.95
394.92	2871.25
395.13	2766.81
395.35	2656.22
395.56	2793.43
395.77	2707.41
395.98	2760.66
396.20	2879.44
396.41	2863.06
396.62	2936.79
396.84	2852.82
397.05	2850.77
397.26	2977.75
397.47	2861.01
397.69	2924.50
397.90	3057.62
398.11	2906.07
398.32	2973.65
398.54	2881.49
398.75	2908.12
398.96	2926.55
399.18	3100.62
399.39	2957.27
399.60	3035.09
399.81	3006.42
400.03	3030.99
400.24	3286.99
400.45	2957.27
400.66	3106.77
400.88	3057.62
401.09	3219.41
401.30	3080.14
401.51	3237.84
401.73	3098.58
401.94	3223.50
402.15	3145.68
402.36	3186.64
402.58	3172.30
402.79	3211.22
403.00	3192.78
403.21	3289.04
403.43	3182.54
403.64	3182.54
403.85	3157.97
404.06	3250.13
404.27	3160.02
404.49	3235.79
404.70	3200.98
404.91	3301.33
405.12	3219.41
405.34	3203.02
405.55	3430.35
405.76	3289.04
405.97	3227.60
406.19	3446.73
406.40	3332.05
406.61	3377.10
406.82	3483.59
407.03	3336.14
407.25	3186.64
407.46	3432.40
407.67	3344.33
407.88	3483.59
408.09	3313.61
408.31	3325.90
408.52	3403.72
408.73	3315.66
408.94	3348.43
409.15	3368.91
409.37	3424.20
409.58	3499.98
409.79	3495.88
410.00	3637.19
410.21	3508.17
410.43	3430.35
410.64	3518.41
410.85	3567.56
411.06	3610.57
411.27	3477.45
411.48	3641.29
411.70	3682.25
411.91	3596.23
412.12	3706.82
412.33	3655.62
412.54	3639.24
412.76	3731.40
412.97	3665.86
413.18	3561.42
413.39	3565.51
413.60	3760.07
413.81	3731.40
414.03	3637.19
414.24	3710.92
414.45	3856.33
414.66	3612.62
414.87	3780.55
415.08	3801.03
415.30	3739.59
415.51	3776.45
415.72	3712.97
415.93	3780.55
416.14	3874.76
416.35	3917.76
416.56	3975.11
416.78	3854.28
416.99	3899.33
417.20	3909.57
417.41	4028.35
417.62	4001.73
417.83	4077.51
418.04	3899.33
418.26	3971.01
418.47	4130.75
418.68	3995.59
418.89	4030.40
419.10	4079.55
419.31	3983.30
419.52	4067.27
419.73	4132.80
419.95	4122.56
420.16	3968.96
420.37	3987.40
420.58	4122.56
420.79	4022.21
421.00	4126.66
421.21	4249.54
421.42	4143.04
421.63	4218.82
421.85	4165.57
422.06	4370.37
422.27	4284.35
422.48	4284.35
422.69	4313.02
422.90	4290.49
423.11	4384.70
423.32	4483.00
423.53	4505.53
423.75	4431.80
423.96	4540.35
424.17	4382.65
424.38	4599.74
424.59	4530.11
424.80	4745.14
425.01	4523.96
425.22	4599.74
425.43	4530.11
425.64	4724.66
425.85	4679.61
426.06	4718.52
426.28	4718.52
426.49	4706.23
426.70	4558.78
426.91	4640.70
427.12	4841.40
427.33	4759.48
427.54	4757.43
427.75	4845.49
427.96	4941.75
428.17	4829.11
428.38	4923.32
428.59	4956.08
428.80	4845.49
429.01	5035.96
429.23	4933.56
429.44	5173.17
429.65	5089.20
429.86	5107.63
430.07	4925.36
430.28	5017.52
430.49	5029.81
430.70	5234.61
430.91	5201.84
431.12	5060.53
431.33	5298.10
431.54	5248.94
431.75	5218.22
431.96	5220.27
432.17	5187.50
432.38	5314.48
432.59	5435.31
432.80	5377.97
433.01	5466.03
433.22	5451.69
433.43	5375.92
433.64	5357.49
433.85	5431.21
434.06	5631.91
434.27	5470.12
434.49	5529.52
434.70	5601.19
434.91	5550.00
435.12	5568.43
435.33	5676.97
435.54	5519.28
435.75	5431.21
435.96	5554.09
436.17	5478.32
436.38	5719.98
436.59	5588.91
436.80	5597.10
437.01	5900.20
437.22	5771.18
437.43	5713.83
437.64	5533.61
437.85	5826.47
438.06	5830.57
438.27	5726.12
438.48	5679.02
438.69	5810.09
438.90	5838.76
439.11	5713.83
439.32	6041.51
439.53	5793.70
439.74	5949.35
439.95	6000.55
440.16	5955.49
440.37	6053.80
440.57	5978.02
440.78	6172.58
440.99	6084.52
441.20	5943.21
441.41	5990.31
441.62	5992.36
441.83	5961.64
442.04	6227.87
442.25	6125.47
442.46	6031.27
442.67	6027.17
442.88	6582.17
443.09	6129.57
443.30	6225.82
443.51	6219.68
443.72	6430.62
443.93	6184.87
444.14	6412.19
444.35	6289.31
444.56	6422.43
444.77	6227.87
444.98	6330.27
445.19	6360.99
445.40	6582.17
445.61	6475.68
445.81	6541.21
446.02	6559.64
446.23	6561.69
446.44	6338.46
446.65	6543.26
446.86	6483.87
447.07	6623.13
447.28	6731.67
447.49	6834.07
447.70	6614.94
447.91	6784.92
448.12	6647.71
448.33	6791.06
448.54	6803.35
448.74	6666.14
448.95	6606.75
449.16	6827.93
449.37	6959.00
449.58	6911.89
449.79	6997.91
450.00	6848.41
450.21	6795.16
450.42	7217.04
450.63	6967.19
450.84	6924.18
451.05	7102.36
451.25	7065.49
451.46	6971.29
451.67	7184.27
451.88	7258.00
452.09	7301.01
452.30	7171.99
452.51	7143.32
452.72	7405.46
452.93	7509.90
453.13	7161.75
453.34	7274.38
453.55	7366.54
453.76	7258.00
453.97	7577.48
454.18	7495.57
454.39	7618.44
454.60	7495.57
454.81	7514.00
455.01	7763.85
455.22	7479.18
455.43	7692.17
455.64	8046.47
455.85	7987.08
456.06	8120.20
456.27	7956.36
456.48	8003.46
456.68	7888.78
456.89	8091.52
457.10	8220.55
457.31	8013.70
457.52	8081.28
457.73	8329.09
457.94	8470.40
458.14	8001.41
458.35	8492.93
458.56	8419.20
458.77	8251.27
458.98	8480.64
459.19	8368.00
459.39	8515.45
459.60	8673.15
459.81	8474.49
460.02	8851.32
460.23	8580.99
460.44	9047.93
460.65	8761.21
460.85	9017.21
461.06	8879.99
461.27	8851.32
461.48	9066.36
461.69	9320.31
461.89	8904.57
462.10	9127.80
462.31	8988.53
462.52	8974.20
462.73	8976.25
462.94	9410.42
463.14	9467.76
463.35	9447.28
463.56	9662.32
463.77	9463.66
463.98	9297.78
464.18	9420.66
464.39	9641.84
464.60	9664.36
464.81	9889.64
465.02	9672.56
465.23	10143.59
465.43	9985.90
465.64	10217.32
465.85	9932.65
466.06	9924.46
466.27	10323.81
466.47	10291.04
466.68	10299.23
466.89	10119.01
467.10	10481.50
467.30	10422.11
467.51	10594.14
467.72	10825.56
467.93	10245.99
468.14	10798.94
468.34	10684.25
468.55	10977.11
468.76	10858.33
468.97	10684.25
469.17	10915.67
469.38	11034.46
469.59	11282.26
469.80	10958.68
470.01	11192.15
470.21	11089.75
470.42	11464.53
470.63	11544.40
470.84	11415.38
471.04	11550.54
471.25	11511.63
471.46	11640.65
471.67	12003.14
471.87	11863.88
472.08	11880.27
472.29	12189.51
472.50	11976.52
472.70	12017.48
472.91	12250.95
473.12	12302.15
473.33	12345.16
473.53	12529.47
473.74	12496.71
473.95	12719.93
474.16	12689.21
474.36	12439.36
474.57	12869.44
474.78	13178.68
474.99	12824.38
475.19	12988.22
475.40	13418.29
475.61	13340.47
475.81	13555.51
476.02	13678.38
476.23	13666.10
476.44	13745.97
476.64	13918.00
476.85	13889.32
477.06	13872.94
477.27	13911.85
477.47	14249.77
477.68	14163.75
477.89	14452.52
478.09	14292.77
478.30	14382.88
478.51	14376.74
478.71	14724.90
478.92	14939.93
479.13	14976.80
479.34	15183.64
479.54	14954.27
479.75	15046.43
479.96	15081.24
480.16	15148.82
480.37	15707.92
480.58	15435.54
480.78	15705.87
480.99	15636.24
481.20	15644.43
481.41	15757.07
481.61	15781.65
481.82	16248.58
482.03	16039.69
482.23	16094.99
482.44	16400.13
482.65	16465.67
482.85	16494.34
483.06	16826.11
483.27	16736.00
483.47	16705.28
483.68	16660.23
483.89	16729.86
484.09	16860.93
484.30	16865.02
484.51	17147.64
484.71	17282.81
484.92	17155.83
485.13	17450.74
485.33	17440.50
485.54	17440.50
485.75	17669.87
485.95	17983.21
486.16	17997.55
486.37	17913.58
486.57	17942.25
486.78	17878.77
486.98	18263.79
487.19	18255.59
487.40	18603.75
487.60	18214.63
487.81	18646.76
488.02	18431.72
488.22	18431.72
488.43	18702.05
488.64	19035.87
488.84	18775.78
489.05	19017.44
489.25	19068.64
489.46	19441.37
489.67	19347.16
489.87	19488.47
490.08	19424.98
490.29	19498.71
490.49	19736.27
490.70	19812.05
490.90	20088.53
491.11	20113.10
491.32	19805.91
491.52	19850.96
491.73	20012.75
491.94	20303.56
492.14	20113.10
492.35	20629.19
492.55	20600.52
492.76	20588.23
492.97	20786.88
493.17	20690.63
493.38	20934.34
493.58	21106.37
493.79	21032.64
494.00	21176.00
494.20	21188.28
494.41	21219.00
494.61	21325.50
494.82	21307.07
495.02	21280.44
495.23	21372.60
495.44	21462.71
495.64	21857.97
495.85	21737.14
496.05	21909.17
496.26	21675.70
496.47	22240.94
496.67	21923.51
496.88	22191.79
497.08	21698.23
497.29	22617.77
497.49	22257.32
497.70	22417.07
497.91	22392.49
498.11	22464.17
498.32	22593.19
498.52	22861.48
498.73	23013.02
498.93	22922.91
499.14	22992.55
499.34	23223.97
499.55	23137.95
499.76	23002.78
499.96	23168.67
500.17	23275.16
500.37	23250.59
500.58	23275.16
500.78	23426.71
500.99	23553.69
501.19	23754.39
501.40	23969.43
501.60	23576.22
501.81	23656.09
502.02	23740.05
502.22	23936.66
502.43	24120.98
502.63	24108.69
502.84	24356.49
503.04	23971.47
503.25	23985.81
503.45	24258.19
503.66	24233.61
503.86	24628.87
504.07	24856.20
504.27	24495.75
504.48	24938.12
504.68	25024.13
504.89	24946.31
505.09	25155.20
505.30	24938.12
505.50	24884.87
505.71	24917.64
505.91	25257.60
506.12	25267.84
506.32	25558.65
506.53	25304.70
506.73	25269.89
506.94	25452.16
507.14	25757.30
507.35	25820.79
507.55	25636.47
507.76	25673.34
507.96	25785.97
508.17	25796.21
508.37	25988.72
508.58	25976.44
508.78	26007.16
508.99	26236.53
509.19	25917.04
509.40	26334.83
509.60	26326.64
509.81	26037.87
510.01	26285.68
510.22	26259.06
510.42	26627.69
510.63	26566.25
510.83	26556.01
511.04	26728.04
511.24	26789.48
511.44	26703.46
511.65	26859.11
511.85	26730.09
512.06	26793.58
512.26	27207.26
512.47	27108.96
512.67	27334.24
512.88	27022.95
513.08	26920.55
513.29	27299.42
513.49	27407.97
513.69	27307.62
513.90	27635.29
514.10	27545.18
514.31	27612.76
514.51	27420.25
514.72	27442.78
514.92	27676.25
515.13	27594.33
515.33	27932.25
515.53	28286.54
515.74	27870.81
515.94	28214.87
516.15	28169.81
516.35	27838.04
516.56	28491.34
516.76	27995.73
516.96	28087.89
517.17	28704.33
517.37	28696.14
517.58	28458.57
517.78	28808.78
517.99	28886.60
518.19	28945.99
518.39	29017.67
518.60	29132.36
518.80	28986.95
519.01	29382.21
519.21	29326.91
519.41	29255.23
519.62	29253.19
519.82	29638.20
520.03	29687.36
520.23	29468.22
520.43	29572.67
520.64	30142.00
520.84	29722.17
521.05	29769.27
521.25	30006.84
521.45	30254.64
521.66	30131.76
521.86	29994.55
522.07	30307.89
522.27	30373.42
522.47	30680.62
522.68	30557.74
522.88	30522.93
523.08	30895.66
523.29	30869.03
523.49	30959.14
523.70	31374.88
523.90	31165.99
524.10	31245.86
524.31	31104.55
524.51	30846.51
524.71	31598.11
524.92	31491.62
525.12	31608.35
525.33	31673.88
525.53	31954.46
525.73	32003.61
525.94	32065.05
526.14	32077.33
526.34	32126.49
526.55	32284.18
526.75	32513.55
526.95	32531.98
527.16	32792.08
527.36	32464.40
527.56	32671.25
527.77	33134.09
527.97	32988.68
528.17	32878.09
528.38	33099.27
528.58	33314.31
528.78	33275.40
528.99	33646.08
529.19	33623.55
529.39	33451.52
529.60	33895.93
529.80	33502.72
530.00	33902.07
530.21	33865.21
530.41	34190.84
530.61	34047.48
530.82	34342.39
531.02	33746.43
531.22	34381.30
531.43	34559.47
531.63	34756.08
531.83	34928.11
532.04	35180.01
532.24	34713.07
532.44	35124.71
532.64	35589.60
532.85	35321.32
533.05	35468.77
533.25	35440.10
533.46	35249.64
533.66	35831.26
533.86	35902.94
534.07	36179.42
534.27	36066.78
534.47	36324.82
534.67	36623.83
534.88	35935.71
535.08	36124.12
535.28	36363.73
535.49	36167.13
535.69	36820.43
535.89	36756.94
536.09	36988.36
536.30	37383.62
536.50	37412.29
536.70	36896.20
536.91	37119.43
537.11	37502.40
537.31	37465.54
537.51	37576.13
537.72	37475.78
537.92	37641.67
538.12	38004.16
538.32	37625.28
538.53	38090.17
538.73	37737.92
538.93	37950.91
539.13	38540.72
539.34	38096.31
539.54	38159.80
539.74	38550.96
539.94	38360.50
540.15	38434.23
540.35	38694.32
540.55	38686.13
540.75	38825.39
540.96	38950.32
541.16	38741.42
541.36	39216.55
541.56	38903.21
541.77	39466.41
541.97	39060.91
542.17	39529.89
542.37	39546.28
542.58	39210.41
542.78	39382.44
542.98	39531.94
543.18	39560.61
543.38	40074.65
543.59	39927.20
543.79	39728.55
543.99	39605.67
544.19	39630.24
544.40	39667.11
544.60	40252.83
544.80	40426.90
545.00	39826.85
545.20	40484.25
545.41	40334.74
545.61	40355.22
545.81	40623.51
546.01	40646.04
546.21	40465.81
546.42	40881.55
546.62	40738.19
546.82	40537.49
547.02	40818.07
547.22	40947.09
547.43	40981.90
547.63	40998.29
547.83	41119.12
548.03	40818.07
548.23	41461.13
548.44	41119.12
548.64	41155.98
548.84	41432.46
549.04	41149.84
549.24	41432.46
549.45	41786.75
549.65	41313.67
549.85	41444.74
550.05	41723.27
550.25	41588.10
550.45	42079.61
550.66	41932.16
550.86	41309.58
551.06	41911.68
551.26	41993.60
551.46	41581.96
551.66	41735.56
551.87	42098.05
552.07	42026.37
552.27	41948.54
552.47	42149.24
552.67	41868.67
552.87	42562.93
553.07	42329.47
553.28	42519.93
553.48	42200.44
553.68	42233.21
553.88	43046.26
554.08	42567.03
554.28	42366.33
554.48	42192.25
554.69	42833.27
554.89	42696.05
555.09	42415.48
555.29	42882.42
555.49	42409.34
555.69	42857.84
555.89	42607.99
556.10	43085.17
556.30	42526.07
556.50	42802.55
556.70	42687.86
556.90	43472.23
557.10	42837.36
557.30	42730.87
557.50	43087.21
557.70	42990.96
557.91	43621.73
558.11	43222.38
558.31	43169.13
558.51	43025.78
558.71	43130.22
558.91	43347.31
559.11	43187.56
559.31	43144.56
559.51	42988.91
559.72	43015.54
559.92	43296.11
560.12	42988.91
560.32	43595.11
560.52	43406.70
560.72	43335.02
560.92	43851.11
561.12	43629.93
561.32	43900.26
561.52	43509.10
561.72	43740.52
561.93	43363.69
562.13	43720.04
562.33	43382.12
562.53	44197.21
562.73	43324.78
562.93	43482.47
563.13	43777.38
563.33	43728.23
563.53	44197.21
563.73	43662.69
563.93	43713.89
564.13	44311.90
564.33	43765.09
564.53	44131.68
564.74	44045.66
564.94	43793.76
565.14	43924.83
565.34	43609.45
565.54	43865.44
565.74	43627.88
565.94	44698.97
566.14	43842.92
566.34	43859.30
566.54	44748.12
566.74	43752.80
566.94	43967.84
567.14	44135.77
567.34	44082.53
567.54	44520.79
567.74	44041.57
567.94	44309.85
568.14	44651.86
568.34	44926.29
568.54	44363.10
568.74	44721.49
568.94	44725.59
569.14	44895.57
569.34	44402.01
569.54	45100.37
569.75	44250.46
569.95	44506.46
570.15	44965.20
570.35	45208.91
570.55	44766.55
570.75	45157.71
570.95	44801.36
571.15	45006.16
571.35	45075.79
571.55	45088.08
571.75	44660.05
571.95	45104.46
572.15	44752.21
572.35	45122.90
572.55	44733.78
572.75	45043.02
572.95	45241.68
573.15	45327.69
573.35	44729.69
573.55	45026.64
573.75	45167.95
573.95	45602.12
574.15	45088.08
574.35	45620.55
574.55	45763.91
574.75	45292.88
574.95	45600.07
575.15	45350.22
575.34	45600.07
575.54	45677.90
575.74	45688.13
575.94	46077.25
576.14	45792.58
576.34	46277.95
576.54	46308.67
576.74	46296.38
576.94	45847.88
577.14	46017.86
577.34	46531.90
577.54	45555.02
577.74	46507.32
577.94	46300.48
578.14	46345.53
578.34	46736.69
578.54	45806.92
578.74	45991.23
578.94	46587.19
579.14	46015.81
579.34	46251.33
579.54	46335.29
579.74	46880.05
579.94	46540.09
580.13	47201.58
580.33	47080.75
580.53	47174.96
580.73	46884.15
580.93	47242.54
581.13	46812.47
581.33	47420.72
581.53	47353.13
581.73	46998.83
581.93	47265.07
582.13	47537.45
582.33	47455.53
582.53	47033.65
582.73	47240.50
582.92	47637.80
583.12	47643.94
583.32	47641.90
583.52	47689.00
583.72	48147.75
583.92	47772.97
584.12	48092.45
584.32	48272.67
584.52	47746.34
584.72	48147.75
584.92	48215.33
585.11	48522.52
585.31	48100.64
585.51	48385.31
585.71	48354.59
585.91	48551.20
586.11	48186.66
586.31	48080.16
586.51	48581.91
586.71	48649.50
586.91	48747.80
587.10	48674.07
587.30	48854.29
587.50	48917.78
587.70	49098.00
587.90	49296.66
588.10	49171.73
588.30	48426.27
588.50	49440.01
588.69	48985.36
588.89	49077.52
589.09	49456.40
589.29	49411.34
589.49	49585.42
589.69	49206.55
589.89	49915.14
590.08	49548.56
590.28	49562.89
590.48	49478.92
590.68	49528.08
590.88	49739.02
591.08	49435.92
591.28	49857.80
591.47	50099.46
591.67	49769.74
591.87	49736.97
592.07	49958.15
592.27	50074.88
592.47	49997.06
592.67	50177.28
592.86	49929.48
593.06	50138.37
593.26	50484.48
593.46	50636.03
593.66	50644.22
593.86	50502.91
594.05	50615.55
594.25	50926.84
594.45	50382.08
594.65	50613.50
594.85	50619.64
595.05	50726.14
595.24	51201.27
595.44	50975.99
595.64	50754.81
595.84	50971.89
596.04	51125.49
596.23	51182.84
596.43	51821.80
596.63	51141.88
596.83	51713.26
597.03	51778.79
597.22	51762.41
597.42	51950.82
597.62	51750.12
597.82	51991.78
598.02	51967.21
598.21	52114.66
598.41	51350.77
598.61	52186.34
598.81	51891.43
599.01	52413.66
599.20	52090.09
599.40	52407.52
599.60	52274.40
599.80	52217.06
600.00	52630.75
600.19	53177.56
600.39	52518.11
600.59	53114.07
600.79	52618.46
600.98	52761.82
601.18	53400.79
601.38	52890.84
601.58	52759.77
601.78	52964.57
601.97	52942.04
602.17	53466.32
602.37	53564.62
602.57	53494.99
602.76	53908.68
602.96	53595.34
603.16	53802.19
603.36	53247.19
603.55	53695.69
603.75	53740.75
603.95	54187.21
604.15	54002.89
604.34	53957.83
604.54	54355.14
604.74	54373.57
604.94	54437.06
605.13	54498.50
605.33	54363.33
605.53	54269.12
605.73	55084.22
605.92	54461.63
606.12	54488.26
606.32	54826.17
606.52	55026.87
606.71	54920.38
606.91	54705.34
607.11	54617.28
607.30	54865.08
607.50	54924.47
607.70	55047.35
607.90	54947.00
608.09	54957.24
608.29	54881.47
608.49	55004.34
608.68	55293.11
608.88	55252.15
609.08	55534.77
609.28	55553.20
609.47	55186.61
609.67	56040.62
609.87	55688.37
610.06	55612.59
610.26	55282.87
610.46	55903.40
610.66	55727.28
610.85	55545.01
611.05	55708.85
611.25	55706.80
611.44	55612.59
611.64	55776.43
611.84	55714.99
612.03	55456.95
612.23	55413.94
612.43	55700.65
612.62	55985.32
612.82	56548.51
613.02	56554.66
613.21	56081.58
613.41	55786.67
613.61	56073.38
613.80	55964.84
614.00	56112.30
614.20	56323.24
614.39	56446.11
614.59	56077.48
614.79	55997.61
614.98	56341.67
615.18	56247.46
615.38	56308.90
615.57	56317.09
615.77	56636.58
615.97	56718.49
616.16	56530.08
616.36	56222.89
616.56	57015.45
616.75	56366.24
616.95	56642.72
617.15	56444.07
617.34	56523.94
617.54	56433.83
617.74	56673.44
617.93	56908.96
618.13	56384.68
618.32	56595.62
618.52	56331.43
618.72	56792.22
618.91	56200.36
619.11	56587.42
619.31	56841.37
619.50	56407.20
619.70	56237.22
619.90	57009.31
620.09	56646.82
620.29	56589.47
620.48	56589.47
620.68	56882.33
620.88	56306.85
621.07	56251.56
621.27	57140.38
621.46	56358.05
621.66	56751.26
621.86	56671.39
622.05	56779.93
622.25	57490.58
622.44	56665.25
622.64	57031.83
622.84	56962.20
623.03	56810.65
623.23	56849.56
623.42	56614.05
623.62	56769.69
623.82	57128.09
624.01	56364.20
624.21	57138.33
624.40	56751.26
624.60	56603.81
624.80	56683.68
624.99	56370.34
625.19	56306.85
625.38	56573.09
625.58	56833.18
625.77	56562.85
625.97	56648.86
626.17	56489.12
626.36	56366.24
626.56	56786.08
626.75	56106.15
626.95	56892.57
627.14	56456.35
627.34	56941.72
627.54	56636.58
627.73	56456.35
627.93	57238.68
628.12	56728.73
628.32	56552.61
628.51	56376.48
628.71	56974.49
628.90	56714.40
629.10	56269.99
629.30	56638.62
629.49	56784.03
629.69	56550.56
629.88	56822.94
630.08	56970.39
630.27	57023.64
630.47	56679.58
630.66	56751.26
630.86	57283.73
631.05	56497.31
631.25	56812.70
631.44	56638.62
631.64	56718.49
631.84	56698.01
632.03	56949.92
632.23	56444.07
632.42	57177.24
632.62	56814.75
632.81	56652.96
633.01	56730.78
633.20	56980.63
633.40	56843.42
633.59	56415.40
633.79	56706.21
633.98	56722.59
634.18	57218.20
634.37	56485.03
634.57	56970.39
634.76	56972.44
634.96	56820.89
635.15	57140.38
635.35	56771.74
635.54	56908.96
635.74	56972.44
635.93	56464.55
636.13	57089.18
636.32	57275.54
636.52	56767.65
636.71	57062.55
636.91	56906.91
637.10	56861.85
637.30	56841.37
637.49	57228.44
637.69	57048.22
637.88	56986.78
638.08	56571.04
638.27	57119.90
638.46	56755.36
638.66	56792.22
638.85	56313.00
639.05	56958.11
639.24	56890.52
639.44	56554.66
639.63	56890.52
639.83	56634.53
640.02	56358.05
640.22	56544.42
640.41	57248.92
640.61	56755.36
640.80	56888.48
640.99	56661.15
641.19	57273.49
641.38	56831.13
641.58	57298.07
641.77	56738.97
641.97	56712.35
642.16	56949.92
642.36	56906.91
642.55	57357.46
642.74	56620.19
642.94	57046.17
643.13	56538.27
643.33	57033.88
643.52	56949.92
643.72	57193.62
643.91	56482.98
644.10	57244.82
644.30	57001.11
644.49	56685.73
644.69	56794.27
644.88	57017.50
645.08	56915.10
645.27	56800.41
645.46	56661.15
645.66	57453.72
645.85	56521.89
646.05	57089.18
646.24	57128.09
646.43	56949.92
646.63	57281.69
646.82	57230.49
647.02	57078.94
647.21	57373.84
647.40	57013.40
647.60	57203.86
647.79	57222.29
647.99	57220.25
648.18	56978.59
648.37	57496.72
648.57	57359.51
648.76	57040.03
648.96	56876.19
649.15	57095.32
649.34	57212.06
649.54	57425.04
649.73	56892.57
649.92	57414.80
650.12	57515.15
650.31	57148.57
650.51	57527.44
650.70	57289.88
650.89	56857.76
651.09	57388.18
651.28	57162.90
651.47	57105.56
651.67	57316.50
651.86	57580.69
652.06	56708.25
652.25	56837.28
652.44	57146.52
652.64	57083.03
652.83	56886.43
653.02	57058.46
653.22	56857.76
653.41	56943.77
653.60	56405.16
653.80	56818.84
653.99	57085.08
654.18	57150.62
654.38	56882.33
654.57	57164.95
654.76	56827.04
654.96	56902.81
655.15	56495.27
655.34	56775.84
655.54	56568.99
655.73	56681.63
655.92	56976.54
656.12	56695.97
656.31	56882.33
656.50	57052.31
656.70	56837.28
656.89	56710.30
657.08	56865.95
657.28	56845.47
657.47	56816.80
657.66	56923.29
657.86	56595.62
658.05	57087.13
658.24	56972.44
658.43	56949.92
658.63	56925.34
658.82	56960.15
659.01	57259.16
659.21	56890.52
659.40	57193.62
659.59	56734.88
659.79	56976.54
659.98	57320.60
660.17	57240.73
660.36	56880.28
660.56	56765.60
660.75	56837.28
660.94	57107.61
661.14	56902.81
661.33	56698.01
661.52	56472.74
661.71	57009.31
661.91	56681.63
662.10	56435.87
662.29	56751.26
662.49	57095.32
662.68	56501.41
662.87	57060.51
663.06	56894.62
663.26	56568.99
663.45	57402.52
663.64	56462.50
663.83	57027.74
664.03	57021.59
664.22	57140.38
664.41	56865.95
664.60	56263.85
664.80	56589.47
664.99	56464.55
665.18	57160.86
665.37	56313.00
665.57	57246.87
665.76	56364.20
665.95	56804.51
666.14	56464.55
666.34	56685.73
666.53	56628.38
666.72	56216.74
666.91	56507.55
667.11	56243.37
667.30	56372.39
667.49	56368.29
667.68	56368.29
667.87	56626.34
668.07	56605.86
668.26	56110.25
668.45	56534.18
668.64	56337.57
668.84	56992.92
669.03	56679.58
669.22	56368.29
669.41	56558.75
669.60	56835.23
669.80	56091.82
669.99	56448.16
670.18	56413.35
670.37	56583.33
670.57	56513.70
670.76	56194.21
670.95	56630.43
671.14	56669.34
671.33	56525.99
671.53	56708.25
671.72	56933.53
671.91	56558.75
672.10	56272.04
672.29	56652.96
672.48	56333.48
672.68	56925.34
672.87	56120.49
673.06	56110.25
673.25	56337.57
673.44	56390.82
673.64	56143.02
673.83	55944.36
674.02	56188.07
674.21	55790.76
674.40	56450.21
674.59	55731.37
674.79	56288.42
674.98	55534.77
675.17	56022.19
675.36	55749.81
675.55	56001.71
675.74	55870.64
675.94	55485.62
676.13	56093.86
676.32	56294.56
676.51	56360.10
676.70	56394.92
676.89	55932.07
677.08	56474.79
677.28	55964.84
677.47	56499.36
677.66	56218.79
677.85	56261.80
678.04	56427.68
678.23	56253.61
678.42	56016.04
678.62	55825.58
678.81	56624.29
679.00	55733.42
679.19	56413.35
679.38	55958.70
679.57	55964.84
679.76	55850.16
679.96	56272.04
680.15	56112.30
680.34	55661.74
680.53	55870.64
680.72	56136.87
680.91	56204.45
681.10	55999.66
681.29	55768.24
681.48	55663.79
681.68	55506.10
681.87	55956.65
682.06	55577.78
682.25	55626.93
682.44	55770.28
682.63	55827.63
682.82	55659.69
683.01	55633.07
683.20	55405.75
683.39	55891.12
683.59	55401.65
683.78	55755.95
683.97	55502.00
684.16	55383.22
684.35	54826.17
684.54	55407.79
684.73	55432.37
684.92	55317.68
685.11	54926.52
685.30	55200.95
685.49	55631.02
685.69	55403.70
685.88	55174.33
686.07	55260.34
686.26	55487.67
686.45	54985.91
686.64	55514.29
686.83	55286.96
687.02	55256.24
687.21	55366.84
687.40	55661.74
687.59	55188.66
687.78	55413.94
687.97	55540.91
688.16	54836.41
688.35	54975.67
688.54	55141.56
688.74	55590.06
688.93	55213.24
689.12	55246.00
689.31	55176.37
689.50	55362.74
689.69	54836.41
689.88	54699.20
690.07	55147.70
690.26	54826.17
690.45	55596.21
690.64	54826.17
690.83	55112.89
691.02	55055.54
691.21	54856.89
691.40	54779.07
691.59	55260.34
691.78	54658.24
691.97	55151.80
692.16	55006.39
692.35	54783.16
692.54	54820.03
692.73	55082.17
692.92	54740.16
693.11	54949.05
693.30	54770.88
693.49	55336.12
693.68	54516.93
693.87	54494.40
694.06	54607.04
694.25	54203.59
694.44	55211.19
694.63	54836.41
694.82	54777.02
695.01	54543.55
695.20	54830.27
695.39	54654.14
695.58	54338.75
695.77	54254.79
695.96	54744.25
696.15	54580.42
696.34	54666.43
696.53	54596.80
696.72	54394.05
696.91	54715.58
697.10	54891.71
697.29	54738.11
697.48	54559.94
697.67	54631.61
697.86	53982.41
698.05	54131.91
698.24	54899.90
698.43	54203.59
698.62	54531.26
698.81	53982.41
699.00	54654.14
699.19	53777.61
699.38	54457.54
699.57	53916.87
699.76	54285.51
699.95	53982.41
700.14	53882.06
700.32	54105.29
700.51	53822.67
700.70	54115.53
700.89	54551.74
701.08	54269.12
701.27	54121.67
701.46	54637.76
701.65	54138.05
701.84	54041.80
702.03	54045.90
702.22	53722.32
702.41	54049.99
702.60	54232.26
702.79	54088.90
702.98	53728.46
703.17	54049.99
703.35	53701.84
703.54	53798.09
703.73	54090.95
703.92	53912.78
704.11	53466.32
704.30	53427.41
704.49	53949.64
704.68	53302.48
704.87	53753.04
705.06	53564.62
705.25	53296.34
705.43	53513.42
705.62	53425.36
705.81	53478.61
706.00	53349.59
706.19	53167.32
706.38	53232.85
706.57	53279.96
706.76	53275.86
706.95	53587.15
707.14	53501.14
707.32	53218.52
707.51	53091.54
707.70	53390.55
707.89	53789.90
708.08	53451.98
708.27	53652.69
708.46	53822.67
708.65	53327.06
708.84	53505.23
709.02	53337.30
709.21	53263.57
709.40	53519.57
709.59	53026.01
709.78	53148.88
709.97	53705.93
710.16	53126.36
710.34	53394.64
710.53	53449.94
710.72	53056.73
710.91	53501.14
711.10	53163.22
711.29	53331.15
711.48	53439.70
711.66	53087.45
711.85	52954.33
712.04	53171.41
712.23	53073.11
712.42	52966.62
712.61	53392.59
712.80	53132.50
712.98	52636.89
713.17	52626.65
713.36	53361.87
713.55	53081.30
713.74	52962.52
713.93	53021.91
714.11	52765.91
714.30	52405.47
714.49	52810.97
714.68	52573.41
714.87	52710.62
715.06	52782.30
715.24	52929.75
715.43	52524.25
715.62	52075.75
715.81	52532.45
716.00	52344.03
716.18	52092.13
716.37	52425.95
716.56	52485.34
716.75	53060.82
716.94	52483.30
717.12	51737.83
717.31	52972.76
717.50	52163.81
717.69	52163.81
717.88	52518.11
718.06	52307.17
718.25	52405.47
718.44	52180.20
718.63	52262.11
718.82	51942.63
719.00	52094.18
719.19	51786.99
719.38	51897.58
719.57	51199.22
719.76	51436.78
719.94	51760.36
720.13	51770.60
720.32	51735.79
720.51	51535.09
720.69	51721.45
720.88	51768.55
721.07	51010.81
721.26	51213.55
721.44	51107.06
721.63	51328.24
721.82	51029.24
722.01	51363.06
722.20	51166.45
722.38	51037.43
722.57	50615.55
722.76	51035.38
722.95	50803.96
723.13	50810.10
723.32	50722.04
723.51	50719.99
723.70	50562.30
723.88	50896.12
724.07	50296.06
724.26	51105.01
724.44	50507.01
724.63	50765.05
724.82	50853.11
725.01	50173.19
725.19	50558.20
725.38	50623.74
725.57	50263.30
725.76	50271.49
725.94	50414.85
726.13	50115.84
726.32	50693.37
726.51	50595.07
726.69	50650.36
726.88	50547.96
727.07	50341.12
727.25	49800.46
727.44	50572.54
727.63	50203.91
727.82	50103.56
728.00	50107.65
728.19	49927.43
728.38	50259.20
728.56	49730.83
728.75	49990.92
728.94	49941.77
729.12	50314.50
729.31	50277.63
729.50	49865.99
729.69	50502.91
729.87	50132.23
730.06	49771.78
730.25	50070.79
730.43	50468.09
730.62	49894.66
730.81	50238.72
730.99	50035.97
731.18	49956.10
731.37	50541.82
731.55	50308.35
731.74	50500.86
731.93	49767.69
732.11	50074.88
732.30	50205.95
732.49	50308.35
732.67	50011.40
732.86	50289.92
733.05	50197.76
733.23	49687.82
733.42	49796.36
733.61	50058.50
733.79	50240.77
733.98	50279.68
734.17	50001.16
734.35	49792.26
734.54	49978.63
734.73	50226.43
734.91	50420.99
735.10	49816.84
735.29	50025.73
735.47	49485.07
735.66	49775.88
735.84	49931.53
736.03	49599.76
736.22	50576.64
736.40	49829.13
736.59	50017.54
736.78	49902.85
736.96	49583.37
737.15	49679.63
737.33	49513.74
737.52	49456.40
737.71	49663.24
737.89	49364.24
738.08	49296.66
738.27	49421.58
738.45	49726.73
738.64	49779.98
738.82	49354.00
739.01	49517.84
739.20	49329.42
739.38	49636.62
739.57	49970.44
739.75	49579.28
739.94	49329.42
740.13	49370.38
740.31	49341.71
740.50	49288.46
740.68	49112.34
740.87	49442.06
741.06	49442.06
741.24	49016.08
741.43	49052.95
741.61	49128.72
741.80	48915.73
741.99	48936.21
742.17	48866.58
742.36	48850.20
742.54	49093.91
742.73	49018.13
742.91	48995.60
743.10	49083.67
743.29	49251.60
743.47	49018.13
743.66	48846.10
743.84	49229.07
744.03	49001.75
744.21	48770.33
744.40	49059.09
744.59	48571.67
744.77	48246.05
744.96	48579.87
745.14	48755.99
745.33	48835.86
745.51	48020.77
745.70	48758.04
745.88	48557.34
746.07	48381.21
746.26	48315.68
746.44	48579.87
746.63	48483.61
746.81	48799.00
747.00	48141.60
747.18	48452.89
747.37	48190.75
747.55	48409.89
747.74	48348.45
747.92	47963.43
748.11	48211.23
748.29	48090.40
748.48	48004.39
748.66	47451.44
748.85	48004.39
749.03	47932.71
749.22	48033.06
749.41	47443.24
749.59	48018.72
749.78	47551.79
749.96	47349.04
750.15	47707.43
750.33	47586.60
750.52	47584.55
750.70	47371.57
750.89	47344.94
751.07	47359.28
751.26	47985.96
751.44	47895.85
751.63	47226.16
751.81	47265.07
752.00	47301.93
752.18	47207.73
752.37	47273.26
752.55	46988.60
752.74	47009.07
752.92	47080.75
753.10	46677.30
753.29	47269.17
753.47	46712.12
753.66	46992.69
753.84	46878.00
754.03	46810.42
754.21	46640.44
754.40	46568.76
754.58	46597.43
754.77	46271.81
754.95	46267.71
755.14	46193.98
755.32	46480.70
755.51	46558.52
755.69	46423.36
755.88	46335.29
756.06	46677.30
756.24	46218.56
756.43	45958.47
756.61	46419.26
756.80	46003.52
756.98	46241.09
757.17	45878.60
757.35	46142.78
757.54	45921.60
757.72	46038.34
757.90	45700.42
758.09	45774.15
758.27	45997.38
758.46	45577.54
758.64	45454.67
758.83	46097.73
759.01	45542.73
759.19	45741.38
759.38	45565.26
759.56	45786.44
759.75	45929.80
759.93	45505.87
760.12	45415.76
760.30	45765.96
760.48	45106.51
760.67	45466.95
760.85	45497.67
761.04	45438.28
761.22	45393.23
761.40	45223.25
761.59	44991.83
761.77	44696.92
761.96	44959.06
762.14	45249.87
762.32	44889.43
762.51	44686.68
762.69	44836.18
762.88	44635.48
763.06	44821.84
763.24	44504.41
763.43	45188.43
763.61	44645.72
763.80	44610.90
763.98	44797.27
764.16	44801.36
764.35	44242.27
764.53	44055.90
764.72	44682.58
764.90	44162.40
765.08	44311.90
765.27	44619.10
765.45	44186.97
765.63	43627.88
765.82	44168.54
766.00	43541.86
766.18	43769.19
766.37	44160.35
766.55	43429.23
766.74	44328.28
766.92	43730.28
767.10	43724.13
767.29	43838.82
767.47	43162.99
767.65	43654.50
767.84	42984.82
768.02	43410.79
768.20	43492.71
768.39	43236.72
768.57	43470.18
768.75	42874.23
768.94	43400.55
769.12	43169.13
769.30	42571.13
769.49	43324.78
769.67	42468.73
769.85	42362.23
770.04	42808.69
770.22	42308.99
770.40	42876.27
770.59	42585.46
770.77	42505.59
770.95	42714.48
771.14	42616.18
771.32	42034.56
771.50	42173.82
771.69	42290.55
771.87	42464.63
772.05	41983.36
772.24	42210.68
772.42	41923.97
772.60	42169.72
772.78	42012.03
772.97	41647.49
773.15	41987.46
773.33	41657.73
773.52	41745.80
773.70	42222.97
773.88	42073.47
774.07	42040.70
774.25	41745.80
774.43	42071.42
774.61	41962.88
774.80	41870.72
774.98	41747.84
775.16	41993.60
775.34	41629.06
775.53	41917.82
775.71	42052.99
775.89	41889.15
776.08	41952.64
776.26	41760.13
776.44	41567.62
776.62	41932.16
776.81	41538.95
776.99	41989.50
777.17	41629.06
777.35	41688.45
777.54	42112.38
777.72	41581.96
777.90	41805.19
778.08	42044.80
778.27	42061.18
778.45	41973.12
778.63	42642.81
778.81	41749.89
779.00	42671.48
779.18	42182.01
779.36	42378.62
779.54	41940.35
779.73	41960.83
779.91	42370.43
780.09	42120.57
780.27	42392.95
780.46	42253.69
780.64	42481.02
780.82	42491.26
781.00	41719.17
781.19	42130.81
781.37	42302.84
781.55	42216.83
781.73	42524.02
781.91	41966.98
782.10	42222.97
782.28	42120.57
782.46	42257.79
782.64	42704.24
782.82	42194.30
783.01	42755.44
783.19	42440.06
783.37	42532.22
783.55	42368.38
783.74	42544.50
783.92	42075.52
784.10	42632.57
784.28	42440.06
784.46	42161.53
784.64	42272.12
784.83	42546.55
785.01	42540.41
785.19	42751.35
785.37	42554.74
785.55	42562.93
785.74	41778.56
785.92	41809.28
786.10	41837.95
786.28	42448.25
786.46	42108.29
786.64	41946.50
786.83	42055.04
787.01	41817.47
787.19	41864.58
787.37	41700.74
787.55	41919.87
787.74	41504.13
787.92	41852.29
788.10	41334.15
788.28	41440.65
788.46	41340.30
788.64	41489.80
788.82	41596.29
789.01	41350.54
789.19	41641.35
789.37	41231.75
789.55	41162.12
789.73	41106.83
789.91	40940.94
790.09	41198.99
790.28	40889.74
790.46	40537.49
790.64	40928.66
790.82	40981.90
791.00	40406.42
791.18	40224.15
791.36	40668.56
791.55	40545.69
791.73	40418.71
791.91	39916.96
792.09	40179.10
792.27	40189.34
792.45	40275.35
792.63	40088.99
792.81	39826.85
793.00	39660.96
793.18	39693.73
793.36	39951.77
793.54	39392.68
793.72	39515.56
793.90	39179.69
794.08	39253.42
794.26	39370.15
794.44	39015.85
794.62	38929.84
794.81	39148.97
794.99	38512.05
795.17	38882.73
795.35	38966.70
795.53	38839.73
795.71	39095.72
795.89	38403.51
796.07	38389.17
796.25	38086.07
796.43	38413.75
796.61	38055.36
796.80	38006.20
796.98	38069.69
797.16	37467.59
797.34	37772.74
797.52	37942.72
797.70	38288.82
797.88	37619.14
798.06	37541.32
798.24	37463.49
798.42	37234.12
798.60	36713.94
798.78	37062.09
798.96	36967.88
799.14	37195.21
799.32	36773.33
799.51	36855.25
799.69	36867.53
799.87	37088.71
800.05	36232.66
800.23	36462.04
800.41	36158.94
800.59	36507.09
800.77	36357.59
800.95	35943.90
801.13	36011.48
801.31	36066.78
801.49	35886.56
801.67	35730.91
801.85	35726.81
802.03	35599.84
802.21	35413.48
802.39	35390.95
802.57	35505.63
802.75	35145.19
802.93	35489.25
803.11	35053.03
803.29	34901.48
803.47	35012.07
803.65	34622.96
803.83	34858.48
804.01	34846.19
804.19	34450.93
804.37	34264.57
804.55	34651.63
804.73	34688.49
804.91	34461.17
805.09	34541.04
805.27	34106.87
805.45	34379.25
805.63	33945.08
805.81	33748.48
805.99	34166.26
806.17	34215.41
806.35	34153.97
806.53	33986.04
806.71	33611.26
806.89	33490.43
807.07	33619.46
807.25	33402.37
807.43	33168.90
807.61	33351.17
807.79	32935.43
807.97	32925.19
808.15	33103.37
808.33	32869.90
808.51	32873.99
808.69	32957.96
808.87	32798.22
809.05	32730.64
809.23	32601.61
809.41	32624.14
809.59	32323.09
809.77	32482.83
809.95	32421.39
810.13	32732.68
810.31	32368.15
810.49	32527.89
810.67	32114.20
810.84	32032.28
811.02	32255.51
811.20	31804.95
811.38	31860.25
811.56	31487.52
811.74	31612.45
811.92	31686.17
812.10	31782.43
812.28	31503.90
812.46	31669.79
812.64	31716.89
812.82	31268.39
813.00	31186.47
813.18	31147.56
813.36	31127.08
813.53	31469.09
813.71	31061.54
813.89	31209.00
814.07	31114.79
814.25	30905.90
814.43	30815.79
814.61	30762.54
814.79	30877.22
814.97	30547.50
815.15	31039.01
815.33	30651.95
815.50	30301.75
815.68	30563.89
815.86	30801.45
816.04	30146.10
816.22	30381.62
816.40	30195.25
816.58	30142.00
816.76	30277.17
816.94	30529.07
817.11	29972.02
817.29	30201.40
817.47	30092.85
817.65	29632.06
817.83	29926.97
818.01	29687.36
818.19	29744.70
818.37	29861.43
818.54	29365.82
818.72	29099.59
818.90	29357.63
819.08	29654.59
819.26	29519.42
819.44	29484.61
819.62	29171.27
819.80	29165.12
819.97	29476.41
820.15	29017.67
820.33	28935.75
820.51	29036.10
820.69	28763.72
820.87	29179.46
821.05	29322.82
821.22	28790.34
821.40	28661.32
821.58	28718.67
821.76	28767.82
821.94	28737.10
822.12	29212.23
822.29	28728.91
822.47	28665.42
822.65	28618.32
822.83	28446.29
823.01	28352.08
823.19	28421.71
823.36	28081.75
823.54	28155.47
823.72	28083.80
823.90	28370.51
824.08	28085.84
824.25	28071.51
824.43	28134.99
824.61	28051.03
824.79	28087.89
824.97	28014.16
825.15	28122.71
825.32	27915.86
825.50	27729.50
825.68	27809.37
825.86	27897.43
826.04	27852.38
826.21	27432.54
826.39	27426.40
826.57	27666.01
826.75	27334.24
826.93	27500.12
827.10	27573.85
827.28	27285.09
827.46	27350.62
827.64	27094.63
827.81	27197.02
827.99	27436.64
828.17	27010.66
828.35	27207.26
828.53	27440.73
828.70	27145.83
828.88	26953.32
829.06	26977.89
829.24	27246.18
829.41	26971.75
829.59	27102.82
829.77	27006.56
829.95	27025.00
830.12	26580.59
830.30	27065.96
830.48	26654.31
830.66	26670.70
830.84	26779.24
831.01	26965.60
831.19	26971.75
831.37	26433.13
831.55	26318.45
831.72	26328.69
831.90	26633.83
832.08	26418.80
832.25	26285.68
832.43	26365.55
832.61	26232.43
832.79	26041.97
832.96	26127.99
833.14	26132.08
833.32	26605.16
833.50	26400.37
833.67	26154.61
833.85	26148.46
834.03	25749.11
834.20	26314.35
834.38	26461.80
834.56	26232.43
834.74	25675.38
834.91	26168.94
835.09	25878.13
835.27	25663.10
835.44	25896.56
835.62	25155.20
835.80	25501.31
835.98	25460.35
836.15	25775.73
836.33	25458.30
836.51	25458.30
836.68	25091.71
836.86	25448.06
837.04	25716.34
837.21	25343.61
837.39	25558.65
837.57	25568.89
837.75	25466.49
837.92	25169.54
838.10	25226.88
838.28	24960.64
838.45	25142.91
838.63	25060.99
838.81	25353.85
838.98	24774.28
839.16	24874.63
839.34	25073.28
839.51	24917.64
839.69	24499.85
839.87	24657.54
840.04	25134.72
840.22	25079.43
840.40	24925.83
840.57	24372.88
840.75	24702.60
840.93	24598.15
841.10	24649.35
841.28	24936.07
841.46	24874.63
841.63	24895.11
841.81	24573.58
841.98	24372.88
842.16	24612.49
842.34	24553.10
842.51	24221.33
842.69	24843.91
842.87	24452.75
843.04	24774.28
843.22	24221.33
843.40	24370.83
843.57	24327.82
843.75	24430.22
843.92	24129.17
844.10	24186.51
844.28	24280.72
844.45	24024.72
844.63	24247.95
844.81	24219.28
844.98	24002.19
845.16	24266.38
845.33	24022.67
845.51	24262.29
845.69	23928.47
845.86	23834.26
846.04	23676.57
846.21	23979.67
846.39	23856.79
846.57	23889.56
846.74	23711.38
846.92	23600.79
847.09	23637.66
847.27	23625.37
847.45	23553.69
847.62	23846.55
847.80	23842.45
847.97	23498.39
848.15	23727.77
848.32	23461.53
848.50	23606.94
848.68	23271.07
848.85	23248.54
849.03	23219.87
849.20	23705.24
849.38	23170.72
849.56	23576.22
849.73	23299.74
849.91	23285.40
850.08	23608.98
850.26	23234.21
850.43	23240.35
850.61	23258.78
850.78	22965.92
850.96	23144.09
851.14	22955.68
851.31	23029.41
851.49	22918.82
851.66	22851.24
851.84	22931.11
852.01	23008.93
852.19	22947.49
852.36	22906.53
852.54	22822.56
852.71	22927.01
852.89	22785.70
853.07	22634.15
853.24	22722.21
853.42	22867.62
853.59	22781.60
853.77	22886.05
853.94	22836.90
854.12	22986.40
854.29	22462.12
854.47	22718.12
854.64	22603.43
854.82	22605.48
854.99	22554.28
855.17	22544.04
855.34	22337.20
855.52	22359.72
855.69	22775.46
855.87	22560.42
856.04	22245.04
856.22	22587.05
856.39	22103.73
856.57	22312.62
856.74	22437.55
856.92	22154.93
857.09	21984.94
857.27	22081.20
857.44	22240.94
857.62	22394.54
857.79	22146.73
857.97	21943.99
858.14	21931.70
858.32	22087.34
858.49	21989.04
858.67	21927.60
858.84	21798.58
859.02	21894.83
859.19	21946.03
859.37	21667.51
859.54	21735.09
859.72	21776.05
859.89	21833.39
860.06	21896.88
860.24	21710.52
860.41	21860.02
860.59	21620.41
860.76	21817.01
860.94	21399.23
861.11	21765.81
861.29	21522.10
861.46	21622.45
861.64	21345.98
861.81	21288.64
861.98	21556.92
862.16	21245.63
862.33	21165.76
862.51	21405.37
862.68	21538.49
862.86	21354.17
863.03	21272.25
863.21	21198.52
863.38	21163.71
863.55	20987.58
863.73	21241.53
863.90	20899.52
864.08	21216.96
864.25	21143.23
864.43	21231.29
864.60	20973.25
864.77	20833.99
864.95	20686.53
865.12	20864.71
865.30	20915.90
865.47	20891.33
865.64	20672.20
865.82	20850.37
865.99	21018.30
866.17	20893.38
866.34	20778.69
866.51	20557.51
866.69	20553.41
866.86	20762.31
867.04	20678.34
867.21	20592.33
867.38	20526.79
867.56	20496.07
867.73	20614.85
867.91	20221.64
868.08	20625.09
868.25	20188.88
868.43	20037.33
868.60	20266.70
868.78	20111.05
868.95	20514.50
869.12	20127.44
869.30	20135.63
869.47	20451.02
869.64	19814.10
869.82	20078.29
869.99	20178.64
870.16	20156.11
870.34	19918.54
870.51	20213.45
870.69	19791.57
870.86	19994.32
871.03	20201.16
871.21	19902.16
871.38	19930.83
871.55	19971.79
871.73	19816.15
871.90	19664.60
872.07	19582.68
872.25	19717.84
872.42	19537.62
872.59	19551.96
872.77	19572.44
872.94	19535.57
873.11	19715.80
873.29	19547.86
873.46	19646.16
873.63	19316.44
873.81	19304.15
873.98	19097.31
874.15	19207.90
874.33	19160.80
874.50	18945.76
874.67	19334.87
874.85	18951.90
875.02	19136.22
875.19	18865.89
875.37	18835.17
875.54	18853.60
875.71	18824.93
875.88	18968.29
876.06	19056.35
876.23	19099.36
876.40	18738.91
876.58	18695.91
876.75	18849.50
876.92	18595.56
877.10	18616.04
877.27	18613.99
877.44	18775.78
877.61	18730.72
877.79	18667.24
877.96	18462.44
878.13	18464.49
878.31	18362.09
878.48	18284.26
878.65	18298.60
878.82	18040.56
879.00	18083.56
879.17	18335.46
879.34	18364.14
879.51	18116.33
879.69	18155.24
879.86	17962.73
880.03	18065.13
880.21	17899.25
880.38	17862.38
880.55	17952.49
880.72	18069.23
880.90	17880.82
881.07	18034.41
881.24	17862.38
881.41	17925.87
881.59	17954.54
881.76	18177.77
881.93	17878.77
882.10	17653.49
882.28	17610.48
882.45	17698.55
882.62	17747.70
882.79	17688.31
882.96	17401.59
883.14	17620.72
883.31	17444.60
883.48	17526.52
883.65	17579.76
883.83	17682.16
884.00	17536.76
884.17	17405.69
884.34	17426.17
884.51	17225.47
884.69	17293.05
884.86	17510.13
885.03	17379.06
885.20	17035.00
885.38	17428.21
885.55	17196.79
885.72	17551.09
885.89	17043.20
886.06	17188.60
886.24	17274.62
886.41	17309.43
886.58	17401.59
886.75	17358.58
886.92	17082.11
887.10	17051.39
887.27	16953.09
887.44	17194.75
887.61	17161.98
887.78	17252.09
887.95	17309.43
888.13	16731.90
888.30	16807.68
888.47	17049.34
888.64	16969.47
888.81	16785.15
888.99	16787.20
889.16	16789.25
889.33	16668.42
889.50	16582.40
889.67	16860.93
889.84	16727.81
890.01	16768.77
890.19	16486.15
890.36	16772.86
890.53	16539.40
890.70	16527.11
890.87	16527.11
891.04	16631.55
891.22	16559.88
891.39	16525.06
891.56	16332.55
891.73	16387.85
891.90	16459.52
892.07	16414.47
892.24	16297.74
892.42	16006.92
892.59	16111.37
892.76	16000.78
892.93	16045.84
893.10	16211.72
893.27	16142.09
893.44	16060.17
893.61	15908.62
893.79	16199.43
893.96	16041.74
894.13	16197.38
894.30	16240.39
894.47	15922.96
894.64	16258.82
894.81	16357.13
894.98	16074.51
895.15	16181.00
895.33	16054.03
895.50	16144.14
895.67	16338.69
895.84	16090.89
896.01	16133.90
896.18	15912.72
896.35	16135.95
896.52	16156.43
896.69	16002.83
896.86	15877.90
897.04	16074.51
897.21	16187.14
897.38	15755.02
897.55	15974.16
897.72	15976.20
897.89	15734.54
898.06	16178.95
898.23	16221.96
898.40	15875.85
898.57	16017.16
898.74	15757.07
898.91	16064.27
899.08	15886.09
899.26	15955.72
899.43	16078.60
899.60	15617.81
899.77	15998.73
899.94	15806.22
900.11	15716.11
900.28	15714.06
900.45	15542.03
900.62	15849.23
900.79	15892.24
900.96	15707.92
901.13	15974.16
901.30	15818.51
901.47	15650.58
901.64	15681.30
901.81	15763.22
901.98	15777.55
902.15	16008.97
902.32	15775.50
902.49	15963.92
902.66	15630.10
902.83	15712.02
903.01	15877.90
903.18	15847.18
903.35	15802.13
903.52	15582.99
903.69	15773.46
903.86	15853.33
904.03	15832.85
904.20	15748.88
904.37	15832.85
904.54	15759.12
904.71	15554.32
904.88	15728.40
905.05	15621.91
905.22	15822.61
905.39	15728.40
905.56	15765.26
905.73	15705.87
905.90	15707.92
906.07	15699.73
906.24	15701.78
906.41	15759.12
906.58	15890.19
906.75	15677.20
906.92	15576.85
907.09	15677.20
907.26	15701.78
907.43	15763.22
907.60	15714.06
907.77	15941.39
907.93	15734.54
908.10	15585.04
908.27	15748.88
908.44	15752.98
908.61	15593.23
908.78	15658.77
908.95	15568.66
909.12	15730.45
909.29	15556.37
909.46	15478.55
909.63	15654.67
909.80	15779.60
909.97	15861.52
910.14	15527.70
910.31	15509.27
910.48	15699.73
910.65	15499.03
910.82	15400.72
910.99	15634.19
911.16	15714.06
911.33	15472.40
911.50	15601.43
911.66	15376.15
911.83	15685.39
912.00	15185.69
912.17	15408.92
912.34	15288.09
912.51	15382.29
912.68	15138.58
912.85	15165.21
913.02	15290.13
913.19	15208.22
913.36	15238.94
913.53	15216.41
913.70	14974.75
913.86	15144.73
914.03	15097.63
914.20	15085.34
914.37	15021.85
914.54	15126.30
914.71	15060.76
914.88	15296.28
915.05	14950.17
915.22	14786.33
915.39	14927.64
915.55	14774.05
915.72	14989.08
915.89	14847.77
916.06	14808.86
916.23	14677.79
916.40	14898.97
916.57	14569.25
916.74	14636.83
916.91	14331.69
917.07	14489.38
917.24	14411.56
917.41	14397.22
917.58	14288.68
917.75	14559.01
917.92	14210.86
918.09	14309.16
918.26	14090.02
918.42	14083.88
918.59	14069.55
918.76	13969.19
918.93	14040.87
919.10	14110.50
919.27	14071.59
919.44	14208.81
919.60	14126.89
919.77	13731.63
919.94	13782.83
920.11	13897.52
920.28	13807.41
920.45	13618.99
920.61	13682.48
920.78	13659.95
920.95	13563.70
921.12	13643.57
921.29	13426.48
921.46	13618.99
921.62	13137.72
921.79	13369.14
921.96	13049.66
922.13	13246.26
922.30	13129.53
922.47	13199.16
922.63	13274.93
922.80	13109.05
922.97	13088.57
923.14	12644.16
923.31	13117.24
923.47	12699.45
923.64	13053.75
923.81	12742.46
923.98	12922.68
924.15	12699.45
924.32	12599.10
924.48	12730.17
924.65	12597.06
924.82	12488.51
924.99	12537.66
925.15	12320.58
925.32	12611.39
925.49	12166.98
925.66	12226.37
925.83	12320.58
925.99	12132.17
926.16	11984.71
926.33	12042.06
926.50	11939.66
926.67	12064.58
926.83	11966.28
927.00	11939.66
927.17	11786.06
927.34	11605.84
927.50	11724.62
927.67	12044.10
927.84	11755.34
928.01	11767.63
928.17	11511.63
928.34	11607.89
928.51	11398.99
928.68	11478.86
928.84	11349.84
929.01	11272.02
929.18	11306.84
929.35	11235.16
929.51	11466.58
929.68	11143.00
929.85	11149.14
930.02	11130.71
930.18	10880.86
930.35	11040.60
930.52	10819.42
930.69	10934.11
930.85	10698.59
931.02	10999.64
931.19	10671.97
931.36	10690.40
931.52	10702.68
931.69	10702.68
931.86	10577.76
932.02	10575.71
932.19	10559.33
932.36	10506.08
932.53	10495.84
932.69	10409.83
932.86	10381.15
933.03	10379.11
933.19	10235.75
933.36	10121.06
933.53	10432.35
933.70	9834.35
933.86	10088.29
934.03	9912.17
934.20	9758.57
934.36	9985.90
934.53	9635.69
934.70	9631.60
934.86	9615.21
935.03	9549.68
935.20	9367.41
935.36	9445.23
935.53	9432.94
935.70	9105.27
935.86	9285.49
936.03	9099.13
936.20	9142.13
936.36	8908.66
936.53	8818.55
936.70	8925.05
936.86	8990.58
937.03	8849.27
937.20	8521.60
937.36	8736.63
937.53	8499.07
937.70	8335.23
937.86	8329.09
938.03	8181.64
938.20	8216.45
938.36	7882.63
938.53	7937.93
938.70	7786.38
938.86	7874.44
939.03	7655.31
939.20	7503.76
939.36	7501.71
939.53	7391.12
939.70	7726.99
939.86	7167.89
940.03	7311.25
940.19	6991.77
940.36	7008.15
940.53	6985.62
940.69	6834.07
940.86	6797.21
941.03	6543.26
941.19	6782.87
941.36	6619.04
941.52	6780.82
941.69	6496.16
941.86	6586.27
942.02	6377.37
942.19	6295.46
942.35	6428.57
942.52	6270.88
942.69	6082.47
942.85	5990.31
943.02	6162.34
943.18	6057.89
943.35	6023.08
943.52	6006.69
943.68	5990.31
943.85	5851.05
944.01	5781.42
944.18	5842.85
944.35	5945.25
944.51	5752.74
944.68	5611.43
944.84	5590.95
945.01	5679.02
945.17	5644.20
945.34	5521.32
945.51	5599.15
945.67	5613.48
945.84	5719.98
946.00	5521.32
946.17	5687.21
946.33	5486.51
946.50	5601.19
946.67	5451.69
946.83	5463.98
947.00	5580.71
947.16	5369.77
947.33	5337.01
947.49	5435.31
947.66	5363.63
947.82	5513.13
947.99	5504.94
948.16	5554.09
948.32	5400.49
948.49	5509.04
948.65	5586.86
948.82	5513.13
948.98	5474.22
949.15	5375.92
949.31	5539.76
949.48	5541.80
949.64	5558.19
949.81	5461.93
949.97	5433.26
950.14	5484.46
950.30	5418.93
950.47	5500.84
950.63	5472.17
950.80	5576.62
950.96	5498.80
951.13	5478.32
951.30	5552.04
951.46	5443.50
951.63	5681.07
951.79	5570.48
951.96	5568.43
952.12	5529.52
952.29	5488.56
952.45	5603.24
952.62	5597.10
952.78	5525.42
952.94	5597.10
953.11	5472.17
953.27	5388.21
953.44	5558.19
953.60	5562.28
953.77	5545.90
953.93	5496.75
954.10	5476.27
954.26	5560.24
954.43	5521.32
954.59	5717.93
954.76	5605.29
954.92	5488.56
955.09	5435.31
955.25	5519.28
955.42	5556.14
955.58	5738.41
955.75	5590.95
955.91	5576.62
956.07	5689.26
956.24	5691.31
956.40	5758.89
956.57	5738.41
956.73	5676.97
956.90	5703.59
957.06	5689.26
957.23	5576.62
957.39	5605.29
957.56	5492.65
957.72	5410.73
957.88	5384.11
958.05	5789.61
958.21	5564.33
958.38	5672.87
958.54	5697.45
958.71	5767.08
958.87	5580.71
959.03	5527.47
959.20	5654.44
959.36	5490.60
959.53	5650.35
959.69	5648.30
959.85	5672.87
960.02	5466.03
960.18	5550.00
960.35	5722.02
960.51	5699.50
960.68	5652.39
960.84	5633.96
961.00	5613.48
961.17	5642.15
961.33	5670.83
961.50	5480.36
961.66	5615.53
961.82	5529.52
961.99	5562.28
962.15	5533.61
962.31	5437.36
962.48	5466.03
962.64	5476.27
962.81	5517.23
962.97	5525.42
963.13	5648.30
963.30	5466.03
963.46	5517.23
963.62	5478.32
963.79	5611.43
963.95	5472.17
964.12	5558.19
964.28	5531.56
964.44	5480.36
964.61	5564.33
964.77	5400.49
964.93	5468.08
965.10	5504.94
965.26	5416.88
965.42	5408.69
965.59	5402.54
965.75	5515.18
965.92	5345.20
966.08	5541.80
966.24	5470.12
966.41	5420.97
966.57	5447.60
966.73	5461.93
966.90	5373.87
967.06	5431.21
967.22	5398.45
967.39	5449.64
967.55	5263.28
967.71	5382.06
967.88	5257.14
968.04	5326.77
968.20	5126.07
968.37	5326.77
968.53	5300.14
968.69	5259.18
968.85	5283.76
969.02	5384.11
969.18	5281.71
969.34	5201.84
969.51	5402.54
969.67	5244.85
969.83	5132.21
970.00	5226.42
970.16	5314.48
970.32	5074.87
970.48	5197.74
970.65	5095.35
970.81	5126.07
970.97	5081.01
971.14	5019.57
971.30	5121.97
971.46	5097.39
971.63	5138.35
971.79	5144.50
971.95	5107.63
972.11	4876.21
972.28	5105.59
972.44	4939.70
972.60	5017.52
972.76	5146.55
972.93	5085.11
973.09	4919.22
973.25	5017.52
973.42	4929.46
973.58	5099.44
973.74	5064.63
973.90	4892.60
974.07	4939.70
974.23	4947.89
974.39	4999.09
974.55	4829.11
974.72	4935.60
974.88	4739.00
975.04	4868.02
975.20	4775.86
975.37	4943.80
975.53	4878.26
975.69	5015.48
975.85	4921.27
976.01	4687.80
976.18	4765.62
976.34	4794.29
976.50	4792.25
976.66	4818.87
976.83	4728.76
976.99	4761.53
977.15	4788.15
977.31	4595.64
977.47	4720.57
977.64	4734.90
977.80	4634.55
977.96	4710.33
978.12	4632.51
978.29	4569.02
978.45	4517.82
978.61	4569.02
978.77	4607.93
978.93	4550.59
979.10	4650.94
979.26	4640.70
979.42	4546.49
979.58	4489.15
979.74	4624.31
979.91	4624.31
980.07	4579.26
980.23	4542.39
980.39	4638.65
980.55	4511.68
980.71	4464.57
980.88	4534.20
981.04	4577.21
981.20	4501.44
981.36	4493.24
981.52	4456.38
981.68	4403.13
981.85	4593.59
982.01	4417.47
982.17	4339.65
982.33	4452.28
982.49	4407.23
982.65	4394.94
982.82	4470.72
982.98	4423.61
983.14	4227.01
983.30	4517.82
983.46	4358.08
983.62	4288.45
983.79	4265.92
983.95	4220.86
984.11	4267.97
984.27	4222.91
984.43	4140.99
984.59	4323.26
984.75	4333.50
984.91	4200.38
985.08	4274.11
985.24	4108.23
985.40	4151.23
985.56	4194.24
985.72	4138.94
985.88	4288.45
986.04	4153.28
986.20	4147.14
986.37	4100.03
986.53	4057.03
986.69	4200.38
986.85	4014.02
987.01	3940.29
987.17	4036.55
987.33	4083.65
987.49	4009.92
987.65	4233.15
987.82	4030.40
987.98	3977.16
988.14	4095.94
988.30	4003.78
988.46	3985.35
988.62	3977.16
988.78	3862.47
988.94	4016.07
989.10	3903.43
989.26	3819.46
989.42	3936.20
989.59	3948.48
989.75	3854.28
989.91	3803.08
990.07	3784.65
990.23	3805.13
990.39	3825.61
990.55	3936.20
990.71	3790.79
990.87	3772.36
991.03	3917.76
991.19	3788.74
991.35	3841.99
991.51	3903.43
991.67	3725.26
991.83	3833.80
992.00	3868.61
992.16	3733.45
992.32	3899.33
992.48	3784.65
992.64	3624.90
992.80	3733.45
992.96	3706.82
993.12	3762.12
993.28	3657.67
993.44	3616.71
993.60	3651.53
993.76	3801.03
993.92	3698.63
994.08	3751.88
994.24	3590.09
994.40	3592.14
994.56	3715.02
994.72	3663.82
994.88	3551.18
995.04	3524.55
995.20	3514.31
995.36	3495.88
995.52	3635.14
995.68	3528.65
995.84	3485.64
996.00	3647.43
996.16	3475.40
996.32	3477.45
996.48	3526.60
996.64	3442.64
996.80	3477.45
996.96	3477.45
997.12	3354.57
997.28	3385.29
997.44	3428.30
997.60	3407.82
997.76	3440.59
997.92	3416.01
998.08	3514.31
998.24	3309.52
998.40	3475.40
998.56	3469.26
998.72	3383.24
998.88	3403.72
999.04	3223.50
999.20	3377.10
999.36	3211.22
999.52	3395.53
999.68	3243.98
999.84	3303.37
1000.00	3346.38
1000.16	3407.82
1000.32	3239.89
1000.48	3348.43
1000.64	3180.50
1000.80	3293.13
1000.95	3166.16
1001.11	3209.17
1001.27	3162.06
1001.43	3147.73
1001.59	3223.50
1001.75	3219.41
1001.91	3219.41
1002.07	3231.69
1002.23	3141.58
1002.39	3239.89
1002.55	3182.54
1002.71	3164.11
1002.87	3084.24
1003.03	3121.10
1003.19	3088.34
1003.34	3030.99
1003.50	3041.23
1003.66	3129.30
1003.82	3190.74
1003.98	2965.46
1004.14	3061.71
1004.30	3080.14
1004.46	2951.12
1004.62	2973.65
1004.78	2863.06
1004.94	2979.79
1005.09	3016.66
1005.25	3022.80
1005.41	2983.89
1005.57	2928.60
1005.73	3076.05
1005.89	2965.46
1006.05	2875.35
1006.21	2987.99
1006.37	2889.68
1006.52	2965.46
1006.68	2926.55
1006.84	2990.03
1007.00	2842.58
1007.16	2965.46
1007.32	2936.79
1007.48	2953.17
1007.64	3035.09
1007.79	2865.11
1007.95	2750.42
1008.11	2990.03
1008.27	2879.44
1008.43	2846.68
1008.59	2775.00
1008.75	2801.62
1008.91	2893.78
1009.06	2811.86
1009.22	2766.81
1009.38	2908.12
1009.54	2850.77
1009.70	2826.20
1009.86	2877.40
1010.01	2910.16
1010.17	2711.51
1010.33	2770.90
1010.49	2818.00
1010.65	2811.86
1010.81	2742.23
1010.96	2760.66
1011.12	2783.19
1011.28	2705.37
1011.44	2768.85
1011.60	2613.21
1011.76	2629.59
1011.91	2752.47
1012.07	2625.50
1012.23	2549.72
1012.39	2648.02
1012.55	2707.41
1012.71	2639.83
1012.86	2590.68
1013.02	2629.59
1013.18	2625.50
1013.34	2574.30
1013.50	2715.61
1013.65	2691.03
1013.81	2549.72
1013.97	2551.77
1014.13	2629.59
1014.29	2623.45
1014.44	2711.51
1014.60	2527.19
1014.76	2641.88
1014.92	2586.58
1015.07	2602.97
1015.23	2607.06
1015.39	2566.10
1015.55	2607.06
1015.71	2580.44
1015.86	2609.11
1016.02	2551.77
1016.18	2512.86
1016.34	2471.90
1016.49	2596.82
1016.65	2559.96
1016.81	2537.43
1016.97	2488.28
1017.12	2559.96
1017.28	2525.15
1017.44	2435.03
1017.60	2451.42
1017.75	2398.17
1017.91	2334.68
1018.07	2555.86
1018.23	2389.98
1018.38	2396.12
1018.54	2435.03
1018.70	2408.41
1018.86	2346.97
1019.01	2379.74
1019.17	2410.46
1019.33	2459.61
1019.49	2398.17
1019.64	2432.99
1019.80	2402.27
1019.96	2445.27
1020.12	2404.32
1020.27	2318.30
1020.43	2314.20
1020.59	2373.60
1020.74	2367.45
1020.90	2357.21
1021.06	2324.44
1021.22	2461.66
1021.37	2297.82
1021.53	2285.53
1021.69	2340.83
1021.84	2281.44
1022.00	2365.40
1022.16	2312.16
1022.31	2351.07
1022.47	2385.88
1022.63	2400.22
1022.79	2248.67
1022.94	2293.72
1023.10	2400.22
1023.26	2303.96
1023.41	2301.92
1023.57	2181.09
1023.73	2349.02
1023.88	2224.09
1024.04	2215.90
1024.20	2217.95
1024.35	2336.73
1024.51	2199.52
1024.67	2209.76
1024.82	2285.53
1024.98	2189.28
1025.14	2256.86
1025.29	2125.79
1025.45	2314.20
1025.61	2140.13
1025.76	2203.61
1025.92	2248.67
1026.08	2215.90
1026.23	2215.90
1026.39	2267.10
1026.55	2211.81
1026.70	2203.61
1026.86	2201.57
1027.02	2121.70
1027.17	2174.94
1027.33	2183.13
1027.48	2068.45
1027.64	2131.94
1027.80	2103.26
1027.95	2232.29
1028.11	2095.07
1028.27	2220.00
1028.42	2197.47
1028.58	2019.30
1028.73	2111.46
1028.89	2072.54
1029.05	2209.76
1029.20	2199.52
>>>>>End Processed Spectral Data<<<<<
