SpectraSuite Data File
++++++++++++++++++++++++++++++++++++
Date: Fri Jun 02 14:49:30 CEST 2017
User: INFO_000
Dark Spectrum Present: No
Reference Spectrum Present: No
Number of Sampled Component Spectra: 1
Spectrometers: USB4H00879
Integration Time (usec): 80000 (USB4H00879)
Spectra Averaged: 1 (USB4H00879)
Boxcar Smoothing: 0 (USB4H00879)
Correct for Electrical Dark: No (USB4H00879)
Strobe/Lamp Enabled: No (USB4H00879)
Correct for Detector Non-linearity: No (USB4H00879)
Correct for Stray Light: No (USB4H00879)
Number of Pixels in Processed Spectrum: 3648
>>>>>Begin Processed Spectral Data<<<<<
345.13	1325.04
345.34	1325.04
345.56	1325.04
345.78	1308.65
345.99	1300.46
346.21	1714.15
346.42	1765.35
346.64	1705.96
346.86	1734.63
347.07	1681.38
347.29	1705.96
347.50	1681.38
347.72	1695.72
347.94	1761.25
348.15	1560.55
348.37	1642.47
348.59	1656.81
348.80	1589.22
349.02	1740.77
349.23	1863.65
349.45	1820.64
349.67	1923.04
349.88	1789.92
350.10	1918.95
350.31	1818.60
350.53	1806.31
350.75	1972.19
350.96	1814.50
351.18	1894.37
351.39	1841.12
351.61	1832.93
351.82	1908.71
352.04	1863.65
352.26	1761.25
352.47	1910.75
352.69	1933.28
352.90	1765.35
353.12	1888.23
353.34	1875.94
353.55	2002.91
353.77	1914.85
353.98	1900.52
354.20	1851.36
354.41	1961.95
354.63	2043.87
354.85	2029.54
355.06	1972.19
355.28	1740.77
355.49	1898.47
355.71	1923.04
355.92	1849.32
356.14	1873.89
356.35	1920.99
356.57	1949.67
356.79	1910.75
357.00	1896.42
357.22	1908.71
357.43	1796.07
357.65	1947.62
357.86	1910.75
358.08	1918.95
358.29	1925.09
358.51	1953.76
358.72	1990.63
358.94	1910.75
359.16	1914.85
359.37	1929.19
359.59	1923.04
359.80	2017.25
360.02	1937.38
360.23	1964.00
360.45	1966.05
360.66	2019.30
360.88	1920.99
361.09	1945.57
361.31	1980.39
361.52	1961.95
361.74	2033.63
361.95	2074.59
362.17	1957.86
362.38	1988.58
362.60	2047.97
362.81	1902.56
363.03	1923.04
363.24	1961.95
363.46	2076.64
363.67	1972.19
363.89	1998.82
364.10	2062.30
364.32	1920.99
364.53	2039.78
364.75	1886.18
364.96	2019.30
365.18	1982.43
365.39	1992.67
365.61	1994.72
365.82	2088.93
366.04	2041.82
366.25	1976.29
366.47	2101.22
366.68	1996.77
366.90	1996.77
367.11	2062.30
367.33	2043.87
367.54	2004.96
367.76	2060.26
367.97	2064.35
368.19	2097.12
368.40	2080.74
368.62	2078.69
368.83	2000.87
369.05	2052.06
369.26	1980.39
369.48	2047.97
369.69	1984.48
369.91	2084.83
370.12	1986.53
370.33	2060.26
370.55	1935.33
370.76	2082.78
370.98	2164.70
371.19	2093.02
371.41	2019.30
371.62	2095.07
371.84	2035.68
372.05	2217.95
372.27	2017.25
372.48	1992.67
372.69	2131.94
372.91	2156.51
373.12	2158.56
373.34	2072.54
373.55	2133.98
373.77	2142.18
373.98	2068.45
374.20	2203.61
374.41	2293.72
374.62	2129.89
374.84	2109.41
375.05	2127.84
375.27	2111.46
375.48	2119.65
375.70	2084.83
375.91	2211.81
376.12	2260.96
376.34	2187.23
376.55	2199.52
376.77	2150.37
376.98	2109.41
377.19	2201.57
377.41	2156.51
377.62	2131.94
377.84	2181.09
378.05	2303.96
378.27	2162.66
378.48	2308.06
378.69	2281.44
378.91	2349.02
379.12	2203.61
379.34	2191.33
379.55	2238.43
379.76	2328.54
379.98	2244.57
380.19	2236.38
380.41	2230.24
380.62	2283.49
380.83	2277.34
381.05	2217.95
381.26	2375.64
381.47	2303.96
381.69	2293.72
381.90	2412.51
382.12	2330.59
382.33	2232.29
382.54	2248.67
382.76	2379.74
382.97	2328.54
383.19	2312.16
383.40	2359.26
383.61	2240.48
383.83	2303.96
384.04	2291.68
384.25	2379.74
384.47	2445.27
384.68	2412.51
384.89	2215.90
385.11	2301.92
385.32	2351.07
385.54	2381.79
385.75	2363.36
385.96	2394.08
386.18	2344.92
386.39	2410.46
386.60	2295.77
386.82	2500.57
387.03	2420.70
387.24	2484.19
387.46	2410.46
387.67	2568.15
387.88	2482.14
388.10	2437.08
388.31	2482.14
388.52	2576.34
388.74	2559.96
388.95	2463.71
389.16	2514.91
389.38	2512.86
389.59	2574.30
389.80	2521.05
390.02	2545.63
390.23	2506.71
390.44	2396.12
390.66	2486.23
390.87	2500.57
391.08	2553.82
391.30	2637.78
391.51	2709.46
391.72	2731.99
391.94	2609.11
392.15	2627.54
392.36	2656.22
392.58	2639.83
392.79	2635.74
393.00	2645.98
393.22	2766.81
393.43	2754.52
393.64	2783.19
393.85	2883.54
394.07	2652.12
394.28	2736.09
394.49	2707.41
394.71	2750.42
394.92	2875.35
395.13	2697.17
395.35	2678.74
395.56	2756.57
395.77	2729.94
395.98	2826.20
396.20	2875.35
396.41	2793.43
396.62	2873.30
396.84	2721.75
397.05	2826.20
397.26	2977.75
397.47	2998.23
397.69	2734.04
397.90	3057.62
398.11	2955.22
398.32	2885.59
398.54	2826.20
398.75	2803.67
398.96	2887.64
399.18	2992.08
399.39	2928.60
399.60	2977.75
399.81	2879.44
400.03	2928.60
400.24	3233.74
400.45	3020.75
400.66	3092.43
400.88	3039.19
401.09	3074.00
401.30	3106.77
401.51	3205.07
401.73	3043.28
401.94	3084.24
402.15	3149.78
402.36	3035.09
402.58	2955.22
402.79	3102.67
403.00	3176.40
403.21	3129.30
403.43	3223.50
403.64	3225.55
403.85	3088.34
404.06	3323.85
404.27	3194.83
404.49	3178.45
404.70	3102.67
404.91	3205.07
405.12	3194.83
405.34	3246.03
405.55	3352.52
405.76	3200.98
405.97	3252.17
406.19	3370.96
406.40	3147.73
406.61	3397.58
406.82	3313.61
407.03	3346.38
407.25	3272.65
407.46	3434.44
407.67	3332.05
407.88	3461.07
408.09	3364.81
408.31	3321.81
408.52	3448.78
408.73	3368.91
408.94	3428.30
409.15	3418.06
409.37	3448.78
409.58	3450.83
409.79	3430.35
410.00	3518.41
410.21	3407.82
410.43	3452.88
410.64	3344.33
410.85	3620.81
411.06	3510.22
411.27	3569.61
411.48	3514.31
411.70	3483.59
411.91	3428.30
412.12	3608.52
412.33	3463.12
412.54	3491.79
412.76	3698.63
412.97	3688.39
413.18	3575.75
413.39	3569.61
413.60	3770.31
413.81	3620.81
414.03	3569.61
414.24	3585.99
414.45	3813.32
414.66	3542.99
414.87	3731.40
415.08	3588.04
415.30	3721.16
415.51	3776.45
415.72	3678.15
415.93	3669.96
416.14	3776.45
416.35	3729.35
416.56	3790.79
416.78	3809.22
416.99	3848.13
417.20	3887.04
417.41	3866.56
417.62	3880.90
417.83	3827.65
418.04	3932.10
418.26	3917.76
418.47	3837.89
418.68	4081.60
418.89	3968.96
419.10	4067.27
419.31	4196.29
419.52	4071.36
419.73	3944.39
419.95	4091.84
420.16	3993.54
420.37	4022.21
420.58	4124.61
420.79	4071.36
421.00	4040.64
421.21	4110.27
421.42	4083.65
421.63	3999.68
421.85	4052.93
422.06	4227.01
422.27	4181.95
422.48	4235.20
422.69	4220.86
422.90	4261.82
423.11	4106.18
423.32	4300.73
423.53	4433.85
423.75	4356.03
423.96	4431.80
424.17	4321.21
424.38	4577.21
424.59	4378.56
424.80	4440.00
425.01	4464.57
425.22	4464.57
425.43	4403.13
425.64	4573.11
425.85	4712.38
426.06	4642.75
426.28	4573.11
426.49	4435.90
426.70	4560.83
426.91	4581.31
427.12	4681.66
427.33	4644.79
427.54	4786.10
427.75	4620.22
427.96	4663.22
428.17	4712.38
428.38	4835.25
428.59	4859.83
428.80	4728.76
429.01	4765.62
429.23	4788.15
429.44	4892.60
429.65	4927.41
429.86	4982.71
430.07	4882.36
430.28	4845.49
430.49	4939.70
430.70	5107.63
430.91	5054.39
431.12	4929.46
431.33	5115.83
431.54	5212.08
431.75	5031.86
431.96	5072.82
432.17	5050.29
432.38	5050.29
432.59	5486.51
432.80	5093.30
433.01	5349.29
433.22	5212.08
433.43	5271.47
433.64	5304.24
433.85	5312.43
434.06	5341.10
434.27	5109.68
434.49	5316.53
434.70	5558.19
434.91	5443.50
435.12	5322.67
435.33	5484.46
435.54	5543.85
435.75	5351.34
435.96	5353.39
436.17	5484.46
436.38	5578.67
436.59	5683.11
436.80	5484.46
437.01	5810.09
437.22	5681.07
437.43	5717.93
437.64	5463.98
437.85	5732.26
438.06	5672.87
438.27	5547.95
438.48	5506.99
438.69	5775.27
438.90	5883.81
439.11	5687.21
439.32	5803.94
439.53	5672.87
439.74	5865.38
439.95	5873.57
440.16	5752.74
440.37	5937.06
440.57	5691.31
440.78	6051.75
440.99	6033.32
441.20	6018.98
441.41	5760.94
441.62	5859.24
441.83	5859.24
442.04	6068.13
442.25	6066.08
442.46	5994.40
442.67	6238.11
442.88	6373.28
443.09	6000.55
443.30	6000.55
443.51	6107.04
443.72	6254.50
443.93	5980.07
444.14	6516.64
444.35	6000.55
444.56	6150.05
444.77	6279.07
444.98	6145.95
445.19	6180.77
445.40	6340.51
445.61	6315.94
445.81	6471.58
446.02	6457.25
446.23	6287.26
446.44	6295.46
446.65	6487.96
446.86	6492.06
447.07	6383.52
447.28	6776.73
447.49	6713.24
447.70	6567.84
447.91	6514.59
448.12	6535.07
448.33	6684.57
448.54	6594.46
448.74	6653.85
448.95	6776.73
449.16	6668.19
449.37	6832.02
449.58	6694.81
449.79	7073.68
450.00	6680.47
450.21	6809.50
450.42	6866.84
450.63	7018.39
450.84	6883.22
451.05	6944.66
451.25	6866.84
451.46	6924.18
451.67	7128.98
451.88	7292.82
452.09	7098.26
452.30	6956.95
452.51	7241.62
452.72	7159.70
452.93	7446.41
453.13	7069.59
453.34	7081.88
453.55	7251.86
453.76	7282.58
453.97	7606.16
454.18	7487.37
454.39	7557.00
454.60	7356.30
454.81	7393.17
455.01	7620.49
455.22	7391.12
455.43	7511.95
455.64	7616.40
455.85	7907.21
456.06	7964.55
456.27	7661.45
456.48	7673.74
456.68	7899.02
456.89	7782.28
457.10	7958.41
457.31	7956.36
457.52	7802.76
457.73	8085.38
457.94	8159.11
458.14	7901.06
458.35	8277.89
458.56	8279.94
458.77	8118.15
458.98	8220.55
459.19	8288.13
459.39	8544.13
459.60	8492.93
459.81	8185.73
460.02	8398.72
460.23	8357.76
460.44	8587.13
460.65	8650.62
460.85	8720.25
461.06	8695.68
461.27	8525.69
461.48	8912.76
461.69	8853.37
461.89	8632.19
462.10	8611.71
462.31	8802.17
462.52	8816.51
462.73	8759.16
462.94	9156.47
463.14	9164.66
463.35	8912.76
463.56	9441.14
463.77	9273.20
463.98	9109.36
464.18	9228.15
464.39	9475.95
464.60	9478.00
464.81	9475.95
465.02	9367.41
465.23	9662.32
465.43	9625.45
465.64	9856.87
465.85	9801.58
466.06	9553.77
466.27	10047.33
466.47	9949.03
466.68	10078.05
466.89	10084.20
467.10	10186.60
467.30	9830.25
467.51	10241.89
467.72	10387.30
467.93	10004.33
468.14	10317.67
468.34	10520.42
468.55	10420.06
468.76	10538.85
468.97	10395.49
469.17	10772.32
469.38	10651.49
469.59	10907.48
469.80	10774.36
470.01	10678.11
470.21	10880.86
470.42	11138.90
470.63	11245.40
470.84	11020.12
471.04	11200.34
471.25	11298.64
471.46	11407.19
471.67	11509.58
471.87	11409.23
472.08	11511.63
472.29	12005.19
472.50	11460.43
472.70	11431.76
472.91	11671.37
473.12	11884.36
473.33	12093.26
473.53	12048.20
473.74	11915.08
473.95	12273.48
474.16	12128.07
474.36	12255.04
474.57	12508.99
474.78	12721.98
474.99	12502.85
475.19	12652.35
475.40	12767.04
475.61	12855.10
475.81	12879.68
476.02	13289.27
476.23	12928.83
476.44	13072.18
476.64	13549.36
476.85	13682.48
477.06	13289.27
477.27	13649.71
477.47	13774.64
477.68	13563.70
477.89	13788.97
478.09	13918.00
478.30	13811.50
478.51	13930.28
478.71	14118.70
478.92	14108.46
479.13	14124.84
479.34	14237.48
479.54	14282.53
479.75	14247.72
479.96	14395.17
480.16	14800.67
480.37	14780.19
480.58	14911.26
480.78	15107.87
480.99	14868.25
481.20	15361.81
481.41	15107.87
481.61	15537.94
481.82	15535.89
482.03	15558.42
482.23	15468.31
482.44	15525.65
482.65	15763.22
482.85	15916.81
483.06	16002.83
483.27	15933.20
483.47	16066.31
483.68	16176.91
483.89	16273.16
484.09	16154.38
484.30	16318.22
484.51	16699.14
484.71	16875.26
484.92	16748.29
485.13	16684.80
485.33	17049.34
485.54	16918.27
485.75	17229.56
485.95	17227.51
486.16	17198.84
486.37	17512.18
486.57	17360.63
486.78	17420.02
486.98	17592.05
487.19	17792.75
487.40	17768.18
487.60	17747.70
487.81	18259.69
488.02	18093.80
488.22	18030.32
488.43	18302.70
488.64	18292.46
488.84	18515.69
489.05	18376.42
489.25	18558.69
489.46	18652.90
489.67	18650.85
489.87	19042.01
490.08	18831.07
490.29	18935.52
490.49	19224.28
490.70	19341.02
490.90	19244.76
491.11	19123.93
491.32	19408.60
491.52	19605.20
491.73	19746.51
491.94	19898.06
492.14	19842.77
492.35	19734.23
492.55	19955.41
492.76	19932.88
492.97	20225.74
493.17	20240.08
493.38	20590.28
493.58	20598.47
493.79	20684.48
494.00	20582.09
494.20	20700.87
494.41	20913.86
494.61	21001.92
494.82	20993.73
495.02	21020.35
495.23	21151.42
495.44	21182.14
495.64	21300.92
495.85	21343.93
496.05	21425.85
496.26	21491.38
496.47	21591.73
496.67	21421.75
496.88	21913.27
497.08	21601.97
497.29	21956.27
497.49	21870.26
497.70	21978.80
497.91	22181.55
498.11	22306.48
498.32	22249.13
498.52	22386.35
498.73	22734.50
498.93	22816.42
499.14	22765.22
499.34	22970.02
499.55	22730.41
499.76	22595.24
499.96	23017.12
500.17	22857.38
500.37	23244.45
500.58	23205.53
500.78	23340.70
500.99	23381.66
501.19	23426.71
501.40	23387.80
501.60	23488.15
501.81	23244.45
502.02	23578.26
502.22	23496.35
502.43	23883.41
502.63	23830.16
502.84	23991.95
503.04	23994.00
503.25	24030.87
503.45	24057.49
503.66	24344.20
503.86	24178.32
504.07	24606.34
504.27	24299.15
504.48	24567.43
504.68	24546.95
504.89	24841.86
505.09	24594.06
505.30	24546.95
505.50	25007.75
505.71	24917.64
505.91	25065.09
506.12	25007.75
506.32	25118.34
506.53	25161.34
506.73	25325.18
506.94	25624.18
507.14	25298.56
507.35	25390.72
507.55	25509.50
507.76	25427.58
507.96	25556.60
508.17	25855.61
508.37	25472.64
508.58	25898.61
508.78	25794.17
508.99	26148.46
509.19	26179.18
509.40	25908.85
509.60	25986.68
509.81	26336.88
510.01	25947.76
510.22	26201.71
510.42	26162.80
510.63	26295.92
510.83	26144.37
511.04	26453.61
511.24	26302.06
511.44	26439.28
511.65	26701.42
511.85	26515.05
512.06	26705.51
512.26	26553.96
512.47	26693.22
512.67	26682.98
512.88	27170.40
513.08	26971.75
513.29	27092.58
513.49	26986.08
513.69	26924.65
513.90	27041.38
514.10	27498.08
514.31	27119.20
514.51	27434.59
514.72	27123.30
514.92	27371.10
515.13	27199.07
515.33	27489.88
515.53	27668.06
515.74	27604.57
515.94	27979.35
516.15	27792.98
516.35	27655.77
516.56	27899.48
516.76	27932.25
516.96	27782.74
517.17	28030.55
517.37	28032.60
517.58	28026.45
517.78	28221.01
517.99	28073.56
518.19	28436.05
518.39	28544.59
518.60	28462.67
518.80	28395.09
519.01	28829.26
519.21	28759.63
519.41	28765.77
519.62	28384.85
519.82	29032.00
520.03	28870.22
520.23	28667.47
520.43	28591.69
520.64	29040.20
520.84	29220.42
521.05	29040.20
521.25	29613.63
521.45	29161.03
521.66	29779.51
521.86	29627.96
522.07	29498.94
522.27	29560.38
522.47	29419.07
522.68	29826.62
522.88	29527.61
523.08	30273.07
523.29	29963.83
523.49	29931.06
523.70	30127.67
523.90	30230.07
524.10	30291.51
524.31	30307.89
524.51	30088.76
524.71	30895.66
524.92	30451.25
525.12	31043.11
525.33	30531.12
525.53	31090.21
525.73	31192.61
525.94	31090.21
526.14	30856.75
526.34	31096.36
526.55	31241.76
526.75	31043.11
526.95	31352.35
527.16	31491.62
527.36	31634.97
527.56	31409.70
527.77	31686.17
527.97	31610.40
528.17	31690.27
528.38	32106.01
528.58	32151.06
528.78	32095.77
528.99	32056.85
529.19	32218.64
529.39	32239.12
529.60	32624.14
529.80	32503.31
530.00	32208.40
530.21	32626.19
530.41	32941.58
530.61	32618.00
530.82	32820.75
531.02	32673.29
531.22	33271.30
531.43	33156.61
531.63	32878.09
531.83	33129.99
532.04	33564.16
532.24	33019.40
532.44	33680.89
532.64	33924.60
532.85	34094.58
533.05	34014.71
533.25	34119.16
533.46	34067.96
533.66	34229.75
533.86	34201.08
534.07	34565.62
534.27	34395.64
534.47	34332.15
534.67	35061.22
534.88	34424.31
535.08	34598.38
535.28	34702.83
535.49	34782.70
535.69	35626.46
535.89	35259.88
536.09	35444.20
536.30	35401.19
536.50	35241.45
536.70	35241.45
536.91	36068.83
537.11	35456.48
537.31	35364.32
537.51	35769.82
537.72	35935.71
537.92	36117.98
538.12	36136.41
538.32	36273.62
538.53	36115.93
538.73	36287.96
538.93	36218.33
539.13	36208.09
539.34	36541.91
539.54	36449.75
539.74	36910.54
539.94	36933.07
540.15	36539.86
540.35	37242.31
540.55	36980.17
540.75	37123.53
540.96	36894.16
541.16	37213.64
541.36	37342.66
541.56	37340.61
541.77	37631.43
541.97	37455.30
542.17	37619.14
542.37	38098.36
542.58	37932.48
542.78	37930.43
542.98	38000.06
543.18	38251.96
543.38	38448.57
543.59	38131.13
543.79	37688.77
543.99	38401.46
544.19	38487.48
544.40	37901.76
544.60	38553.01
544.80	38819.25
545.00	38600.12
545.20	38946.22
545.41	38366.65
545.61	38337.98
545.81	39165.35
546.01	39097.77
546.21	38503.86
546.42	38993.32
546.62	39183.79
546.82	38981.04
547.02	39564.71
547.22	39247.27
547.43	39105.96
547.63	39509.41
547.83	39650.72
548.03	39282.09
548.23	40097.18
548.44	39925.15
548.64	39673.25
548.84	39814.56
549.04	39523.75
549.24	39916.96
549.45	40691.09
549.65	39585.19
549.85	39986.59
550.05	40514.97
550.25	40007.07
550.45	41026.96
550.66	40336.79
550.86	40222.11
551.06	40687.00
551.26	40725.91
551.46	40789.39
551.66	40588.69
551.87	40277.40
552.07	40674.71
552.27	40619.41
552.47	41276.81
552.67	40732.05
552.87	40723.86
553.07	40928.66
553.28	41186.70
553.48	41219.47
553.68	41315.72
553.88	41555.33
554.08	41454.98
554.28	41399.69
554.48	41330.06
554.69	41588.10
554.89	41317.77
555.09	41424.26
555.29	41131.40
555.49	41856.39
555.69	41340.30
555.89	41948.54
556.10	41713.03
556.30	41801.09
556.50	42016.13
556.70	41586.05
556.90	42034.56
557.10	42096.00
557.30	41637.25
557.50	42423.67
557.70	42073.47
557.91	42087.81
558.11	42073.47
558.31	42354.04
558.51	42282.36
558.71	42386.81
558.91	42302.84
559.11	42399.10
559.31	42747.25
559.51	42186.11
559.72	42517.88
559.92	42968.43
560.12	42524.02
560.32	42599.80
560.52	42397.05
560.72	42257.79
560.92	42712.44
561.12	42663.28
561.32	43156.85
561.52	42644.85
561.72	43201.90
561.93	43076.97
562.13	43060.59
562.33	42802.55
562.53	43431.27
562.73	42616.18
562.93	43122.03
563.13	43171.18
563.33	43222.38
563.53	43482.47
563.73	43130.22
563.93	43478.38
564.13	43832.68
564.33	43386.22
564.53	43644.26
564.74	43556.20
564.94	43224.43
565.14	43662.69
565.34	43234.67
565.54	43748.71
565.74	43869.54
565.94	43949.41
566.14	43386.22
566.34	43748.71
566.54	44289.37
566.74	43531.62
566.94	43789.67
567.14	43910.50
567.34	44062.05
567.54	44119.39
567.74	44143.97
567.94	43836.77
568.14	43885.92
568.34	44516.70
568.54	44318.04
568.74	44432.73
568.94	44324.19
569.14	44340.57
569.34	44318.04
569.54	44471.64
569.75	44408.15
569.95	44318.04
570.15	45022.54
570.35	44701.01
570.55	44883.28
570.75	44393.82
570.95	44533.08
571.15	45102.42
571.35	44584.28
571.55	44719.45
571.75	44584.28
571.95	44877.14
572.15	44475.74
572.35	45172.05
572.55	44827.99
572.75	45126.99
572.95	44930.39
573.15	45167.95
573.35	45110.61
573.55	45155.66
573.75	45311.31
573.95	45493.58
574.15	45389.13
574.35	45167.95
574.55	45503.82
574.75	45159.76
574.95	45622.60
575.15	45350.22
575.34	45659.46
575.54	45905.22
575.74	45927.75
575.94	45837.64
576.14	45524.30
576.34	45899.08
576.54	46431.55
576.74	45993.28
576.94	45950.27
577.14	45905.22
577.34	46503.23
577.54	45641.03
577.74	46200.13
577.94	46138.69
578.14	46153.02
578.34	46341.44
578.54	45681.99
578.74	46189.89
578.94	46462.27
579.14	46200.13
579.34	46464.32
579.54	46503.23
579.74	46812.47
579.94	47058.23
580.13	46675.26
580.33	46716.22
580.53	46535.99
580.73	47179.06
580.93	46779.70
581.13	47078.71
581.33	47158.58
581.53	47523.11
581.73	46828.85
581.93	46908.72
582.13	47410.48
582.33	47490.35
582.53	47232.30
582.73	47248.69
582.92	46904.63
583.12	47496.49
583.32	47584.55
583.52	47426.86
583.72	47684.90
583.92	47506.73
584.12	47486.25
584.32	47725.86
584.52	47813.93
584.72	47908.13
584.92	47637.80
585.11	48434.46
585.31	48397.60
585.51	47725.86
585.71	47760.68
585.91	47994.15
586.11	47910.18
586.31	47822.12
586.51	47981.86
586.71	48315.68
586.91	48313.63
587.10	48575.77
587.30	48254.24
587.50	48321.82
587.70	48700.70
587.90	48899.35
588.10	48616.73
588.30	48223.52
588.50	48602.39
588.69	48536.86
588.89	48426.27
589.09	48825.62
589.29	48604.44
589.49	49208.59
589.69	48618.78
589.89	49251.60
590.08	49132.82
590.28	49394.96
590.48	48430.36
590.68	48979.22
590.88	49188.11
591.08	49102.10
591.28	48733.46
591.47	49265.94
591.67	48973.08
591.87	49126.67
592.07	48780.57
592.27	49265.94
592.47	49337.62
592.67	49657.10
592.86	49329.42
593.06	49493.26
593.26	49483.02
593.46	49446.16
593.66	49726.73
593.86	49653.00
594.05	49933.57
594.25	49706.25
594.45	49450.25
594.65	49607.95
594.85	49607.95
595.05	50300.16
595.24	50162.95
595.44	49933.57
595.64	50025.73
595.84	50443.52
596.04	49898.76
596.23	50414.85
596.43	50091.27
596.63	49943.81
596.83	50208.00
597.03	50623.74
597.22	50660.60
597.42	50449.66
597.62	50877.69
597.82	50570.49
598.02	50285.82
598.21	50703.61
598.41	50271.49
598.61	50853.11
598.81	50681.08
599.01	50926.84
599.20	50509.05
599.40	50967.80
599.60	51270.90
599.80	51363.06
600.00	50992.37
600.19	51442.93
600.39	51168.50
600.59	51432.69
600.79	51514.61
600.98	51223.79
601.18	51606.76
601.38	51819.75
601.58	51852.52
601.78	51850.47
601.97	51778.79
602.17	51887.34
602.37	51909.86
602.57	51959.02
602.76	52018.41
602.96	51686.64
603.16	51889.38
603.36	51983.59
603.55	52524.25
603.75	51971.30
603.95	52481.25
604.15	52161.76
604.34	52411.62
604.54	52530.40
604.74	52329.70
604.94	52251.87
605.13	52278.50
605.33	52737.24
605.53	52307.17
605.73	52706.52
605.92	52511.97
606.12	52989.14
606.32	53013.72
606.52	52700.38
606.71	52892.89
606.91	53198.04
607.11	52755.68
607.30	53159.12
607.50	53007.58
607.70	53249.24
607.90	53120.21
608.09	52925.66
608.29	53355.73
608.49	53179.60
608.68	53126.36
608.88	53458.13
609.08	53228.76
609.28	53396.69
609.47	53224.66
609.67	53873.87
609.87	53355.73
610.06	53548.24
610.26	53744.84
610.46	53456.08
610.66	53335.25
610.85	53570.77
611.05	53834.95
611.25	53712.08
611.44	53654.73
611.64	54045.90
611.84	53531.86
612.03	53241.04
612.23	53705.93
612.43	53814.47
612.62	53759.18
612.82	54416.58
613.02	53738.70
613.21	53732.56
613.41	53992.65
613.61	53818.57
613.80	53660.88
614.00	54084.81
614.20	53861.58
614.39	53830.86
614.59	53894.35
614.79	53826.76
614.98	54093.00
615.18	54230.21
615.38	54338.75
615.57	53779.66
615.77	54101.19
615.97	53978.31
616.16	54078.66
616.36	54156.49
616.56	54607.04
616.75	54213.83
616.95	53904.59
617.15	54129.86
617.34	54093.00
617.54	53910.73
617.74	54621.37
617.93	54500.54
618.13	53877.96
618.32	54600.89
618.52	53951.69
618.72	54891.71
618.91	54465.73
619.11	54027.46
619.31	54238.40
619.50	54209.73
619.70	53908.68
619.90	54168.77
620.09	54643.90
620.29	54164.68
620.48	54414.53
620.68	54377.67
620.88	54471.87
621.07	54660.29
621.27	54090.95
621.46	54305.99
621.66	54369.47
621.86	54228.16
622.05	54093.00
622.25	54555.84
622.44	54412.48
622.64	54277.32
622.84	54547.65
623.03	54527.17
623.23	54467.78
623.42	54281.41
623.62	54561.98
623.82	54557.89
624.01	54346.95
624.21	54768.83
624.40	54525.12
624.60	54181.06
624.80	54328.52
624.99	54353.09
625.19	54246.60
625.38	54588.61
625.58	54729.92
625.77	54682.81
625.97	55125.17
626.17	54039.75
626.36	54713.53
626.56	54748.35
626.75	54043.85
626.95	54953.15
627.14	54414.53
627.34	54836.41
627.54	54406.34
627.73	54531.26
627.93	54656.19
628.12	54580.42
628.32	54525.12
628.51	54459.58
628.71	54668.48
628.90	54600.89
629.10	54420.67
629.30	54734.01
629.49	54908.09
629.69	54926.52
629.88	54920.38
630.08	54723.77
630.27	55260.34
630.47	54893.75
630.66	54412.48
630.86	54674.62
631.05	54471.87
631.25	55088.31
631.44	54803.64
631.64	54566.08
631.84	54951.10
632.03	55203.00
632.23	55299.25
632.42	55301.30
632.62	54590.66
632.81	54811.84
633.01	54883.51
633.20	55227.57
633.40	54985.91
633.59	54893.75
633.79	54707.39
633.98	54805.69
634.18	54850.75
634.37	55043.26
634.57	55465.14
634.76	55151.80
634.96	54785.21
635.15	55243.96
635.35	55243.96
635.54	55096.50
635.74	55461.04
635.93	54768.83
636.13	55438.51
636.32	55440.56
636.52	55180.47
636.71	55188.66
636.91	55139.51
637.10	55430.32
637.30	55499.95
637.49	55430.32
637.69	54797.50
637.88	55801.00
638.08	54940.86
638.27	55180.47
638.46	55063.74
638.66	55198.90
638.85	55354.55
639.05	55979.18
639.24	55481.52
639.44	55522.48
639.63	55532.72
639.83	55631.02
640.02	55203.00
640.22	55289.01
640.41	55588.02
640.61	55153.85
640.80	55887.02
640.99	55385.27
641.19	55620.78
641.38	55794.86
641.58	55379.12
641.77	55493.81
641.97	55336.12
642.16	55616.69
642.36	55590.06
642.55	56239.27
642.74	55172.28
642.94	55993.51
643.13	55340.21
643.33	55868.59
643.52	55811.24
643.72	56067.24
643.91	55911.59
644.10	56073.38
644.30	56089.77
644.49	55483.57
644.69	55575.73
644.88	55592.11
645.08	55596.21
645.27	55817.39
645.46	55583.92
645.66	56057.00
645.85	55946.41
646.05	55874.73
646.24	56157.35
646.43	56052.90
646.63	56249.51
646.82	55829.68
647.02	55973.03
647.21	55952.55
647.40	55921.83
647.60	56550.56
647.79	56521.89
647.99	56382.63
648.18	55688.37
648.37	56507.55
648.57	56028.33
648.76	55940.27
648.96	56140.97
649.15	56251.56
649.34	56431.78
649.54	56087.72
649.73	55790.76
649.92	56009.90
650.12	55948.46
650.31	56325.28
650.51	56642.72
650.70	56581.28
650.89	56347.81
651.09	56943.77
651.28	56147.11
651.47	56429.73
651.67	55964.84
651.86	56956.06
652.06	55889.07
652.25	56683.68
652.44	56472.74
652.64	55970.99
652.83	56057.00
653.02	56253.61
653.22	56102.06
653.41	56544.42
653.60	56339.62
653.80	56095.91
653.99	56736.93
654.18	56175.78
654.38	56077.48
654.57	56145.06
654.76	56175.78
654.96	55968.94
655.15	56353.96
655.34	56093.86
655.54	55874.73
655.73	56489.12
655.92	56538.27
656.12	56798.37
656.31	56231.08
656.50	56509.60
656.70	56601.76
656.89	56517.79
657.08	56851.61
657.28	56159.40
657.47	56147.11
657.66	56560.80
657.86	56065.19
658.05	56151.21
658.24	56521.89
658.43	56050.86
658.63	56560.80
658.82	56548.51
659.01	56820.89
659.21	56423.59
659.40	56509.60
659.59	56237.22
659.79	56663.20
659.98	56638.62
660.17	56945.82
660.36	56079.53
660.56	56335.52
660.75	56399.01
660.94	56489.12
661.14	56382.63
661.33	56388.77
661.52	56116.39
661.71	56587.42
661.91	55942.31
662.10	56057.00
662.29	56638.62
662.49	56392.87
662.68	56464.55
662.87	56872.09
663.06	56534.18
663.26	56710.30
663.45	56353.96
663.64	56546.47
663.83	57080.98
664.03	56210.60
664.22	56167.59
664.41	56521.89
664.60	56472.74
664.80	56673.44
664.99	56435.87
665.18	56847.52
665.37	56059.05
665.57	56530.08
665.76	56333.48
665.95	56444.07
666.14	56224.93
666.34	56200.36
666.53	56235.17
666.72	56163.50
666.91	56407.20
667.11	56341.67
667.30	56468.64
667.49	56100.01
667.68	56245.41
667.87	56136.87
668.07	56599.71
668.26	56079.53
668.45	56257.70
668.64	55948.46
668.84	56779.93
669.03	56304.80
669.22	56226.98
669.41	56220.84
669.60	56435.87
669.80	55710.89
669.99	56306.85
670.18	56169.64
670.37	56126.63
670.57	56638.62
670.76	56190.12
670.95	56505.51
671.14	56267.94
671.33	55669.93
671.53	56472.74
671.72	56372.39
671.91	56265.89
672.10	56040.62
672.29	56532.13
672.48	55653.55
672.68	56325.28
672.87	56097.96
673.06	55438.51
673.25	55760.05
673.44	55678.13
673.64	55719.09
673.83	55807.15
674.02	55514.29
674.21	55919.79
674.40	55745.71
674.59	55710.89
674.79	56089.77
674.98	55391.41
675.17	55921.83
675.36	55540.91
675.55	55788.72
675.74	55620.78
675.94	55653.55
676.13	55915.69
676.32	55768.24
676.51	56237.22
676.70	55729.33
676.89	55821.48
677.08	56173.73
677.28	55622.83
677.47	56040.62
677.66	55813.29
677.85	55741.61
678.04	56042.66
678.23	55874.73
678.42	56149.16
678.62	55469.23
678.81	56104.10
679.00	55727.28
679.19	56620.19
679.38	55366.84
679.57	55563.44
679.76	55895.21
679.96	55733.42
680.15	55975.08
680.34	55700.65
680.53	55293.11
680.72	55737.52
680.91	55590.06
681.10	55624.88
681.29	55745.71
681.48	55352.50
681.68	55076.02
681.87	55495.86
682.06	55600.30
682.25	54736.06
682.44	55217.33
682.63	55481.52
682.82	55047.35
683.01	55076.02
683.20	54820.03
683.39	55336.12
683.59	55194.81
683.78	54701.25
683.97	54992.06
684.16	55254.20
684.35	54899.90
684.54	55151.80
684.73	55395.51
684.92	55061.69
685.11	55008.44
685.30	55370.93
685.49	55319.73
685.69	55090.36
685.88	54650.05
686.07	54697.15
686.26	54987.96
686.45	55069.88
686.64	54885.56
686.83	55024.82
687.02	55344.31
687.21	55135.41
687.40	54877.37
687.59	54738.11
687.78	54756.54
687.97	55235.77
688.16	54846.65
688.35	54680.77
688.54	54551.74
688.74	54432.96
688.93	54527.17
689.12	54670.53
689.31	55012.54
689.50	54613.18
689.69	54465.73
689.88	54250.69
690.07	54613.18
690.26	54338.75
690.45	54996.15
690.64	54441.15
690.83	54553.79
691.02	54295.75
691.21	54289.60
691.40	54539.46
691.59	54467.78
691.78	54054.09
691.97	54594.75
692.16	54121.67
692.35	54369.47
692.54	54789.31
692.73	54420.67
692.92	54006.98
693.11	54494.40
693.30	54107.33
693.49	54293.70
693.68	54398.15
693.87	54052.04
694.06	53607.63
694.25	53503.18
694.44	54103.24
694.63	53943.50
694.82	54084.81
695.01	53918.92
695.20	53781.71
695.39	53802.19
695.58	53888.20
695.77	53658.83
695.96	53837.00
696.15	53863.63
696.34	53728.46
696.53	53521.62
696.72	54523.07
696.91	53945.54
697.10	53701.84
697.29	53601.49
697.48	54039.75
697.67	53986.50
697.86	53155.03
698.05	53376.21
698.24	54068.42
698.43	53224.66
698.62	53724.36
698.81	53212.37
699.00	53773.52
699.19	53509.33
699.38	53808.33
699.57	53523.66
699.76	54017.22
699.95	53523.66
700.14	53376.21
700.32	53511.38
700.51	53548.24
700.70	53417.17
700.89	53417.17
701.08	53509.33
701.27	53103.83
701.46	53658.83
701.65	53013.72
701.84	53394.64
702.03	53195.99
702.22	53122.26
702.41	53347.54
702.60	53275.86
702.79	52995.29
702.98	52896.98
703.17	53261.52
703.35	52958.42
703.54	52651.23
703.73	53230.80
703.92	52686.04
704.11	53060.82
704.30	53038.29
704.49	52937.94
704.68	52671.71
704.87	52741.34
705.06	52796.63
705.25	52491.49
705.43	52659.42
705.62	52731.10
705.81	52686.04
706.00	52616.41
706.19	52206.82
706.38	52393.18
706.57	52434.14
706.76	52028.65
706.95	52534.49
707.14	52479.20
707.32	52458.72
707.51	52135.14
707.70	52317.41
707.89	52401.38
708.08	52608.22
708.27	52477.15
708.46	52786.39
708.65	52233.44
708.84	51940.58
709.02	52360.42
709.21	52665.56
709.40	52315.36
709.59	51987.69
709.78	52274.40
709.97	52638.94
710.16	52172.00
710.34	52083.94
710.53	51991.78
710.72	51723.50
710.91	51975.40
711.10	52077.80
711.29	52403.42
711.48	52059.37
711.66	51774.70
711.85	51580.14
712.04	51729.64
712.23	51776.75
712.42	51938.54
712.61	51709.16
712.80	52028.65
712.98	51954.92
713.17	51430.64
713.36	52004.07
713.55	52026.60
713.74	51713.26
713.93	51737.83
714.11	51782.89
714.30	51492.08
714.49	51520.75
714.68	51512.56
714.87	51750.12
715.06	51653.87
715.24	51477.74
715.43	51479.79
715.62	51305.71
715.81	51059.96
716.00	51639.53
716.18	51451.12
716.37	51033.33
716.56	51068.15
716.75	51289.33
716.94	50998.52
717.12	51385.58
717.31	51307.76
717.50	51268.85
717.69	50849.02
717.88	50978.04
718.06	51066.10
718.25	51600.62
718.44	50951.41
718.63	50386.18
718.82	50703.61
719.00	50898.17
719.19	50724.09
719.38	50820.34
719.57	50494.72
719.76	50238.72
719.94	49872.14
720.13	50629.88
720.32	50662.65
720.51	50640.12
720.69	50029.83
720.88	50240.77
721.07	50355.46
721.26	49796.36
721.44	49978.63
721.63	50095.36
721.82	49566.99
722.01	49796.36
722.20	49960.20
722.38	49855.75
722.57	49476.88
722.76	50142.47
722.95	49747.21
723.13	49691.91
723.32	49313.04
723.51	49411.34
723.70	49304.85
723.88	50152.71
724.07	49407.25
724.26	49589.52
724.44	49343.76
724.63	49616.14
724.82	49693.96
725.01	49593.61
725.19	49046.80
725.38	49489.16
725.57	48794.90
725.76	49220.88
725.94	48989.46
726.13	49108.24
726.32	49122.58
726.51	48559.39
726.69	49358.09
726.88	49071.38
727.07	48825.62
727.25	48747.80
727.44	48743.70
727.63	49077.52
727.82	49050.90
728.00	49304.85
728.19	49028.37
728.38	49415.44
728.56	48520.48
728.75	49007.89
728.94	48549.15
729.12	49028.37
729.31	49153.30
729.50	48809.24
729.69	49380.62
729.87	48952.60
730.06	48811.29
730.25	48850.20
730.43	48856.34
730.62	48604.44
730.81	48960.79
730.99	49067.28
731.18	48602.39
731.37	49335.57
731.55	48725.27
731.74	49351.95
731.93	48850.20
732.11	48872.73
732.30	49114.39
732.49	48749.85
732.67	48801.05
732.86	48559.39
733.05	49233.17
733.23	48194.85
733.42	48598.30
733.61	48549.15
733.79	48751.90
733.98	48952.60
734.17	48440.60
734.35	48807.19
734.54	48637.21
734.73	49089.81
734.91	48145.70
735.10	48237.86
735.29	48905.49
735.47	48364.83
735.66	48440.60
735.84	48405.79
736.03	48211.23
736.22	48682.27
736.40	48291.10
736.59	48452.89
736.78	48268.58
736.96	48676.12
737.15	48436.51
737.33	47879.46
737.52	48373.02
737.71	48233.76
737.89	47990.05
738.08	48080.16
738.27	47895.85
738.45	48526.62
738.64	48090.40
738.82	47787.30
739.01	48241.95
739.20	48387.36
739.38	47807.78
739.57	48321.82
739.75	48037.16
739.94	48018.72
740.13	47602.99
740.31	47951.14
740.50	47664.42
740.68	48043.30
740.87	47582.51
741.06	48004.39
741.24	47863.08
741.43	47400.24
741.61	47992.10
741.80	47281.45
741.99	47459.63
742.17	47488.30
742.36	47617.32
742.54	47494.44
742.73	47666.47
742.91	47820.07
743.10	47273.26
743.29	47709.48
743.47	47719.72
743.66	47154.48
743.84	47750.44
744.03	47129.90
744.21	47383.85
744.40	47766.82
744.59	47469.87
744.77	46923.06
744.96	46923.06
745.14	47570.22
745.33	47512.88
745.51	46757.17
745.70	47177.01
745.88	47326.51
746.07	47285.55
746.26	46650.68
746.44	46863.67
746.63	46933.30
746.81	47027.51
747.00	46923.06
747.18	46955.83
747.37	46767.41
747.55	46611.77
747.74	47215.92
747.92	46724.41
748.11	46708.02
748.29	46701.88
748.48	46636.34
748.66	46867.76
748.85	46175.55
749.03	46042.43
749.22	46720.31
749.41	46329.15
749.59	46335.29
749.78	46421.31
749.96	45870.40
750.15	46241.09
750.33	46368.06
750.52	45952.32
750.70	46349.63
750.89	46095.68
751.07	45737.29
751.26	46144.83
751.44	46081.34
751.63	46196.03
751.81	45544.78
752.00	45684.04
752.18	45843.78
752.37	45942.08
752.55	45217.10
752.74	45618.50
752.92	45649.22
753.10	45235.53
753.29	45503.82
753.47	45364.56
753.66	45231.44
753.84	45688.13
754.03	45505.87
754.21	45311.31
754.40	45446.47
754.58	45647.18
754.77	45446.47
754.95	45030.74
755.14	45043.02
755.32	45102.42
755.51	44746.07
755.69	44438.87
755.88	44897.62
756.06	45098.32
756.24	44709.21
756.43	45239.63
756.61	44684.63
756.80	44887.38
756.98	44455.26
757.17	44721.49
757.35	44793.17
757.54	44770.64
757.72	44844.37
757.90	44330.33
758.09	44260.70
758.27	44635.48
758.46	44289.37
758.64	44457.31
758.83	44651.86
759.01	44385.63
759.19	44047.71
759.38	44272.99
759.56	44649.81
759.75	44582.23
759.93	44281.18
760.12	43924.83
760.30	44195.17
760.48	43744.61
760.67	43824.48
760.85	44135.77
761.04	44354.91
761.22	43924.83
761.40	43855.20
761.59	44133.73
761.77	43349.35
761.96	43543.91
762.14	43394.41
762.32	43769.19
762.51	43076.97
762.69	43531.62
762.88	43750.76
763.06	43644.26
763.24	43912.55
763.43	43748.71
763.61	43265.39
763.80	43443.56
763.98	43144.56
764.16	43539.82
764.35	42831.22
764.53	42685.81
764.72	42909.04
764.90	43079.02
765.08	43384.17
765.27	42913.14
765.45	42743.16
765.63	42466.68
765.82	42933.62
766.00	42272.12
766.18	42747.25
766.37	42784.12
766.55	42804.59
766.74	42714.48
766.92	42220.92
767.10	42222.97
767.29	42157.44
767.47	41868.67
767.65	42270.08
767.84	42012.03
768.02	42286.46
768.20	41727.36
768.39	42171.77
768.57	42012.03
768.75	41973.12
768.94	42020.22
769.12	42177.92
769.30	41579.91
769.49	41833.86
769.67	41731.46
769.85	41303.43
770.04	41538.95
770.22	42061.18
770.40	41110.92
770.59	41715.08
770.77	41350.54
770.95	41516.42
771.14	41450.89
771.32	40863.12
771.50	41014.67
771.69	40947.09
771.87	41323.91
772.05	41047.44
772.24	40736.15
772.42	40988.05
772.60	40822.16
772.78	40562.07
772.97	40426.90
773.15	41072.01
773.33	40506.77
773.52	40670.61
773.70	40568.21
773.88	40861.07
774.07	40629.65
774.25	40715.67
774.43	40842.64
774.61	40586.64
774.80	40885.65
774.98	40695.19
775.16	40484.25
775.34	40699.28
775.53	40484.25
775.71	40961.42
775.89	40869.26
776.08	40699.28
776.26	40660.37
776.44	40891.79
776.62	40332.70
776.81	40439.19
776.99	40465.81
777.17	40576.40
777.35	40562.07
777.54	41067.92
777.72	40748.43
777.90	40394.14
778.08	41104.78
778.27	40832.40
778.45	41074.06
778.63	41117.07
778.81	40955.28
779.00	41170.32
779.18	41160.08
779.36	41133.45
779.54	40779.15
779.73	40664.47
779.91	40988.05
780.09	40830.35
780.27	41215.37
780.46	41082.25
780.64	41379.21
780.82	40869.26
781.00	41119.12
781.19	41104.78
781.37	41233.80
781.55	41504.13
781.73	41807.23
781.91	40926.61
782.10	41457.03
782.28	41352.58
782.46	41295.24
782.64	41799.04
782.82	40881.55
783.01	41639.30
783.19	41862.53
783.37	41471.37
783.55	41360.78
783.74	41549.19
783.92	40992.14
784.10	41653.64
784.28	41178.51
784.46	41274.76
784.64	41311.63
784.83	41250.19
785.01	41676.16
785.19	41528.71
785.37	41481.61
785.55	40977.81
785.74	41004.43
785.92	41096.59
786.10	41203.08
786.28	40826.26
786.46	40805.78
786.64	40809.87
786.83	40904.08
787.01	40977.81
787.19	40861.07
787.37	40936.85
787.55	40768.91
787.74	40773.01
787.92	40623.51
788.10	40355.22
788.28	40537.49
788.46	40641.94
788.64	40113.56
788.82	40727.95
789.01	40773.01
789.19	40478.10
789.37	40672.66
789.55	40246.68
789.73	40357.27
789.91	40058.27
790.09	40273.31
790.28	39976.35
790.46	39519.65
790.64	39994.78
790.82	39845.28
791.00	39490.98
791.18	39656.87
791.36	39593.38
791.55	39845.28
791.73	39564.71
791.91	39075.24
792.09	39597.48
792.27	39318.95
792.45	38989.23
792.63	39568.80
792.81	39052.72
793.00	39122.35
793.18	38956.46
793.36	38878.64
793.54	38440.37
793.72	38798.77
793.90	38833.58
794.08	38344.12
794.26	38385.08
794.44	38340.02
794.62	38124.99
794.81	38272.44
794.99	38102.46
795.17	38397.37
795.35	37672.39
795.53	38104.51
795.71	38071.74
795.89	37701.06
796.07	37522.88
796.25	37666.24
796.43	37250.50
796.61	37283.27
796.80	37428.68
796.98	37518.79
797.16	37180.87
797.34	37045.71
797.52	36740.56
797.70	37213.64
797.88	36758.99
798.06	36660.69
798.24	36945.36
798.42	36931.02
798.60	36591.06
798.78	36513.23
798.96	36935.12
799.14	35915.23
799.32	36271.57
799.51	35806.69
799.69	35972.57
799.87	36306.39
800.05	36070.87
800.23	36175.32
800.41	35677.66
800.59	35751.39
800.77	35634.66
800.95	35501.54
801.13	35507.68
801.31	35306.98
801.49	35286.50
801.67	35241.45
801.85	35032.55
802.03	35114.47
802.21	34637.30
802.39	34805.23
802.57	34979.31
802.75	35022.31
802.93	34848.24
803.11	34844.14
803.29	34364.92
803.47	34379.25
803.65	34530.80
803.83	34207.22
804.01	34481.65
804.19	34102.78
804.37	33854.97
804.55	34321.91
804.73	33562.11
804.91	34199.03
805.09	33879.55
805.27	33988.09
805.45	34029.05
805.63	33764.86
805.81	33715.71
805.99	33635.84
806.17	33760.76
806.35	33553.92
806.53	33228.29
806.71	33539.58
806.89	33271.30
807.07	33433.09
807.25	33537.54
807.43	32908.81
807.61	33205.77
807.79	32755.21
807.97	32773.64
808.15	32792.08
808.33	32505.36
808.51	32599.57
808.69	32577.04
808.87	32466.45
809.05	32613.90
809.23	32306.71
809.41	32118.29
809.59	31983.13
809.77	32099.86
809.95	31923.74
810.13	32114.20
810.31	31612.45
810.49	31987.22
810.67	31991.32
810.84	31893.02
811.02	31802.91
811.20	31596.06
811.38	31409.70
811.56	31096.36
811.74	31260.20
811.92	31194.66
812.10	31075.88
812.28	31604.25
812.46	31137.32
812.64	31274.53
812.82	30965.29
813.00	31419.94
813.18	31036.97
813.36	31125.03
813.53	30660.14
813.71	30936.62
813.89	31112.74
814.07	30707.24
814.25	30957.10
814.43	30643.76
814.61	30830.12
814.79	30582.32
814.97	30701.10
815.15	30748.20
815.33	30062.13
815.50	29935.16
815.68	30412.34
815.86	30350.90
816.04	30400.05
816.22	30389.81
816.40	30086.71
816.58	30109.24
816.76	29955.64
816.94	29763.13
817.11	30002.74
817.29	29830.71
817.47	29460.03
817.65	29570.62
817.83	29646.40
818.01	29640.25
818.19	29765.18
818.37	29574.72
818.54	29292.10
818.72	29425.22
818.90	29449.79
819.08	29320.77
819.26	29376.06
819.44	29257.28
819.62	29058.63
819.80	29212.23
819.97	29111.88
820.15	28927.56
820.33	28851.78
820.51	29081.16
820.69	28491.34
820.87	28769.86
821.05	28948.04
821.22	28819.02
821.40	28784.20
821.58	28468.81
821.76	28571.21
821.94	28616.27
822.12	28812.87
822.29	28708.43
822.47	28556.88
822.65	28644.94
822.83	28421.71
823.01	28315.22
823.19	28341.84
823.36	28272.21
823.54	28208.72
823.72	27930.20
823.90	28153.43
824.08	28098.13
824.25	28134.99
824.43	27975.25
824.61	28085.84
824.79	27979.35
824.97	28014.16
825.15	28012.12
825.32	28005.97
825.50	27766.36
825.68	27776.60
825.86	28022.36
826.04	28112.47
826.21	27483.74
826.39	27498.08
826.57	27469.40
826.75	27326.05
826.93	27287.14
827.10	27530.84
827.28	27401.82
827.46	27184.74
827.64	27315.81
827.81	27037.28
827.99	27086.43
828.17	27016.80
828.35	27350.62
828.53	27049.57
828.70	26838.63
828.88	26703.46
829.06	26984.04
829.24	27004.52
829.41	26863.21
829.59	26787.43
829.77	26957.41
829.95	26906.21
830.12	26869.35
830.30	26981.99
830.48	26855.01
830.66	26721.90
830.84	26873.45
831.01	26367.60
831.19	26895.97
831.37	26592.87
831.55	26326.64
831.72	26455.66
831.90	26566.25
832.08	26582.63
832.25	26465.90
832.43	26500.72
832.61	26109.55
832.79	26435.18
832.96	26283.63
833.14	26203.76
833.32	26449.52
833.50	26306.16
833.67	25896.56
833.85	26295.92
834.03	25984.63
834.20	26070.64
834.38	26097.27
834.56	26293.87
834.74	25794.17
834.91	25849.46
835.09	26248.82
835.27	25833.08
835.44	25648.76
835.62	25558.65
835.80	25675.38
835.98	25663.10
836.15	25724.54
836.33	25364.09
836.51	25968.24
836.68	25544.31
836.86	25659.00
837.04	25888.37
837.21	25484.92
837.39	25491.07
837.57	25640.57
837.75	25396.86
837.92	25560.70
838.10	25448.06
838.28	25118.34
838.45	25374.33
838.63	25400.96
838.81	25460.35
838.98	24944.26
839.16	25345.66
839.34	25323.13
839.51	25079.43
839.69	24960.64
839.87	24764.04
840.04	25081.47
840.22	25118.34
840.40	24858.24
840.57	24587.91
840.75	25063.04
840.93	24665.74
841.10	24999.55
841.28	24792.71
841.46	24923.78
841.63	24891.01
841.81	24829.57
841.98	24788.61
842.16	24895.11
842.34	24893.06
842.51	24479.37
842.69	24657.54
842.87	24401.55
843.04	24546.95
843.22	24215.18
843.40	24317.58
843.57	24481.42
843.75	24680.07
843.92	24350.35
844.10	24381.07
844.28	24417.93
844.45	24565.39
844.63	24266.38
844.81	24348.30
844.98	24598.15
845.16	24198.80
845.33	24327.82
845.51	24024.72
845.69	24092.30
845.86	23854.74
846.04	24043.15
846.21	23869.08
846.39	24114.83
846.57	23867.03
846.74	23961.23
846.92	24006.29
847.09	23770.77
847.27	23621.27
847.45	23778.97
847.62	24032.91
847.80	23754.39
847.97	23695.00
848.15	23772.82
848.32	23424.67
848.50	24094.35
848.68	23420.57
848.85	23363.23
849.03	23168.67
849.20	23453.34
849.38	23355.04
849.56	23348.89
849.73	23465.63
849.91	23490.20
850.08	23477.91
850.26	23150.24
850.43	23144.09
850.61	23144.09
850.78	23092.90
850.96	22824.61
851.14	22943.39
851.31	23172.77
851.49	22894.24
851.66	23176.86
851.84	23373.47
852.01	23424.67
852.19	22947.49
852.36	22912.67
852.54	22900.39
852.71	22865.57
852.89	22974.11
853.07	22980.26
853.24	23322.27
853.42	22935.20
853.59	23090.85
853.77	22963.87
853.94	23113.38
854.12	23004.83
854.29	22541.99
854.47	22683.30
854.64	22744.74
854.82	22750.88
854.99	22550.18
855.17	22765.22
855.34	22587.05
855.52	22599.34
855.69	22716.07
855.87	22482.60
856.04	22378.15
856.22	22652.58
856.39	22580.90
856.57	22404.78
856.74	22236.84
856.92	22329.00
857.09	22175.41
857.27	22439.59
857.44	22378.15
857.62	22245.04
857.79	22034.10
857.97	22251.18
858.14	22056.62
858.32	21866.16
858.49	22138.54
858.67	21700.28
858.84	21982.90
859.02	22185.65
859.19	21915.31
859.37	22052.53
859.54	21778.10
859.72	22156.97
859.89	22040.24
860.06	21970.61
860.24	21776.05
860.41	21952.18
860.59	21749.43
860.76	21784.24
860.94	21599.93
861.11	21604.02
861.29	21952.18
861.46	21743.28
861.64	21409.47
861.81	21518.01
861.98	21370.55
862.16	21409.47
862.33	21249.72
862.51	21380.79
862.68	21601.97
862.86	21444.28
863.03	21348.03
863.21	21362.36
863.38	21460.66
863.55	21296.83
863.73	21073.60
863.90	21251.77
864.08	21159.61
864.25	21112.51
864.43	21176.00
864.60	21081.79
864.77	21118.65
864.95	20999.87
865.12	20876.99
865.30	20989.63
865.47	20819.65
865.64	20963.01
865.82	20979.39
865.99	21102.27
866.17	20522.69
866.34	20887.23
866.51	20805.31
866.69	21034.69
866.86	20897.47
867.04	20612.81
867.21	20582.09
867.38	20707.01
867.56	20440.78
867.73	20354.76
867.91	20365.00
868.08	20491.98
868.25	20205.26
868.43	20289.23
868.60	20137.68
868.78	20319.95
868.95	20555.46
869.12	20481.74
869.30	20152.01
869.47	20219.60
869.64	19971.79
869.82	20203.21
869.99	20131.53
870.16	20225.74
870.34	20059.85
870.51	20287.18
870.69	20002.51
870.86	19959.50
871.03	20186.83
871.21	19750.61
871.38	20164.30
871.55	19857.10
871.73	19928.78
871.90	19764.95
872.07	19633.88
872.25	19621.59
872.42	19609.30
872.59	19533.53
872.77	19576.53
872.94	19633.88
873.11	19480.28
873.29	19695.32
873.46	19361.50
873.63	19594.96
873.81	19427.03
873.98	19316.44
874.15	19234.52
874.33	19273.43
874.50	19068.64
874.67	18990.81
874.85	18931.42
875.02	19107.55
875.19	18810.59
875.37	18767.59
875.54	18982.62
875.71	19130.08
875.88	18851.55
876.06	18865.89
876.23	18804.45
876.40	18589.41
876.58	18691.81
876.75	18812.64
876.92	18605.80
877.10	18826.98
877.27	18474.73
877.44	18314.98
877.61	18439.91
877.79	18452.20
877.96	18282.22
878.13	18276.07
878.31	18110.19
878.48	18058.99
878.65	18188.01
878.82	18206.44
879.00	18083.56
879.17	18073.32
879.34	18263.79
879.51	18069.23
879.69	18032.36
879.86	17950.45
880.03	18007.79
880.21	18024.17
880.38	18130.67
880.55	18032.36
880.72	17772.27
880.90	18095.85
881.07	17719.03
881.24	17882.86
881.41	17786.61
881.59	17770.22
881.76	17596.15
881.93	17553.14
882.10	17592.05
882.28	17659.63
882.45	17528.56
882.62	17661.68
882.79	17835.76
882.96	17391.35
883.14	17596.15
883.31	17669.87
883.48	17215.23
883.65	17514.23
883.83	17379.06
884.00	17438.45
884.17	17233.66
884.34	17458.93
884.51	17231.61
884.69	17184.51
884.86	17217.27
885.03	17202.94
885.20	17006.33
885.38	17219.32
885.55	17381.11
885.72	17491.70
885.89	16885.50
886.06	17323.77
886.24	17016.57
886.41	17041.15
886.58	17213.18
886.75	17151.74
886.92	17133.31
887.10	17045.24
887.27	17090.30
887.44	16805.63
887.61	17350.39
887.78	16789.25
887.95	16879.36
888.13	16592.64
888.30	16643.84
888.47	16801.54
888.64	16721.66
888.81	16494.34
888.99	16586.50
889.16	16682.75
889.33	16785.15
889.50	16609.03
889.67	16518.92
889.84	16332.55
890.01	16707.33
890.19	16568.07
890.36	16408.33
890.53	16463.62
890.70	16164.62
890.87	16576.26
891.04	16502.53
891.22	16193.29
891.39	16152.33
891.56	16287.50
891.73	16152.33
891.90	15894.29
892.07	16230.15
892.24	16281.35
892.42	16101.13
892.59	16178.95
892.76	15925.00
892.93	16170.76
893.10	16051.98
893.27	15929.10
893.44	15986.44
893.61	15787.79
893.79	16033.55
893.96	16011.02
894.13	16051.98
894.30	15941.39
894.47	15984.40
894.64	16099.08
894.81	16133.90
894.98	16064.27
895.15	15841.04
895.33	15882.00
895.50	15818.51
895.67	16031.50
895.84	15861.52
896.01	15863.57
896.18	15527.70
896.35	15937.29
896.52	15744.78
896.69	15644.43
896.86	15699.73
897.04	15593.23
897.21	15824.65
897.38	16029.45
897.55	15517.46
897.72	15902.48
897.89	15580.95
898.06	15658.77
898.23	15709.97
898.40	15836.94
898.57	15507.22
898.74	15748.88
898.91	15636.24
899.08	15671.06
899.26	15791.89
899.43	15630.10
899.60	15664.91
899.77	15599.38
899.94	15462.16
900.11	15433.49
900.28	15433.49
900.45	15413.01
900.62	15402.77
900.79	15834.89
900.96	15697.68
901.13	15361.81
901.30	15505.17
901.47	15372.05
901.64	15632.15
901.81	15732.50
901.98	15525.65
902.15	15777.55
902.32	15507.22
902.49	15486.74
902.66	15615.76
902.83	15458.07
903.01	15626.00
903.18	15468.31
903.35	15476.50
903.52	15615.76
903.69	15603.47
903.86	15650.58
904.03	15544.08
904.20	15523.60
904.37	15648.53
904.54	15482.64
904.71	15425.30
904.88	15298.33
905.05	15462.16
905.22	15415.06
905.39	15318.81
905.56	15283.99
905.73	15437.59
905.90	15427.35
906.07	15363.86
906.24	15439.64
906.41	15322.90
906.58	15343.38
906.75	15421.20
906.92	15195.93
907.09	15367.96
907.26	15431.44
907.43	15417.11
907.60	15240.98
907.77	15275.80
907.93	15415.06
908.10	15337.24
908.27	15343.38
908.44	15376.15
908.61	15066.91
908.78	15322.90
908.95	15521.56
909.12	14997.28
909.29	15494.93
909.46	15380.25
909.63	15451.92
909.80	15347.48
909.97	15318.81
910.14	15224.60
910.31	15265.56
910.48	15283.99
910.65	14984.99
910.82	15089.43
910.99	15226.65
911.16	15154.97
911.33	15308.57
911.50	15142.68
911.66	14925.60
911.83	15032.09
912.00	15077.15
912.17	14665.50
912.34	14958.36
912.51	14798.62
912.68	14696.22
912.85	14800.67
913.02	14929.69
913.19	14839.58
913.36	14696.22
913.53	14722.85
913.70	14847.77
913.86	15036.19
914.03	14673.70
914.20	14706.46
914.37	14436.13
914.54	14501.67
914.71	14569.25
914.88	14479.14
915.05	14376.74
915.22	14315.30
915.39	14274.34
915.55	14405.41
915.72	14245.67
915.89	14307.11
916.06	14298.92
916.23	14227.24
916.40	14071.59
916.57	14114.60
916.74	14092.07
916.91	14036.78
917.07	13936.43
917.24	14008.11
917.41	14001.96
917.58	13932.33
917.75	13846.32
917.92	13588.27
918.09	13905.71
918.26	13840.17
918.42	13973.29
918.59	13772.59
918.76	13766.45
918.93	13743.92
919.10	13363.00
919.27	13467.44
919.44	13600.56
919.60	13686.58
919.77	13190.97
919.94	13471.54
920.11	13549.36
920.28	13483.83
920.45	13266.74
920.61	13410.10
920.78	13098.81
920.95	13094.71
921.12	13086.52
921.29	13078.33
921.46	13070.14
921.62	12986.17
921.79	13125.43
921.96	12977.98
922.13	12793.66
922.30	12875.58
922.47	12767.04
922.63	12703.55
922.80	12758.85
922.97	12623.68
923.14	12422.98
923.31	12404.55
923.47	12498.75
923.64	12709.69
923.81	12388.16
923.98	12439.36
924.15	12156.74
924.32	12166.98
924.48	12437.31
924.65	12275.52
924.82	12209.99
924.99	11949.90
925.15	11992.90
925.32	12066.63
925.49	12087.11
925.66	11984.71
925.83	11673.42
925.99	11718.48
926.16	11724.62
926.33	11673.42
926.50	11462.48
926.67	11669.33
926.83	11575.12
927.00	11806.54
927.17	11243.35
927.34	11171.67
927.50	11276.12
927.67	11497.30
927.84	11259.73
928.01	11294.55
928.17	11005.78
928.34	11151.19
928.51	11116.37
928.68	10993.50
928.84	10997.59
929.01	10798.94
929.18	10954.58
929.35	10882.91
929.51	10895.19
929.68	10753.88
929.85	10598.24
930.02	10579.81
930.18	10737.50
930.35	10524.51
930.52	10559.33
930.69	10551.14
930.85	10362.72
931.02	10346.34
931.19	10428.26
931.36	10180.45
931.52	10432.35
931.69	10364.77
931.86	10223.46
932.02	10133.35
932.19	10119.01
932.36	9901.93
932.53	9987.94
932.69	10233.70
932.86	10084.20
933.03	9992.04
933.19	9627.50
933.36	9744.24
933.53	9946.98
933.70	9744.24
933.86	9629.55
934.03	9588.59
934.20	9471.86
934.36	9590.64
934.53	9228.15
934.70	9293.68
934.86	9207.67
935.03	9039.73
935.20	9224.05
935.36	9256.82
935.53	9121.65
935.70	9049.97
935.86	9043.83
936.03	8732.54
936.20	8617.85
936.36	8716.16
936.53	8720.25
936.70	8558.46
936.86	8757.11
937.03	8419.20
937.20	8089.48
937.36	8308.61
937.53	7899.02
937.70	7997.32
937.86	7925.64
938.03	7833.48
938.20	7905.16
938.36	7780.23
938.53	7696.27
938.70	7446.41
938.86	7497.61
939.03	7425.93
939.20	7217.04
939.36	7305.10
939.53	7319.44
939.70	7477.13
939.86	7032.72
940.03	7090.07
940.19	6563.74
940.36	6791.06
940.53	6700.95
940.69	6498.20
940.86	6610.84
941.03	6551.45
941.19	6389.66
941.36	6358.94
941.52	6338.46
941.69	6207.39
941.86	6176.67
942.02	6137.76
942.19	6090.66
942.35	6148.00
942.52	6131.62
942.69	6010.79
942.85	6072.23
943.02	6027.17
943.18	5926.82
943.35	5697.45
943.52	5801.90
943.68	5605.29
943.85	5826.47
944.01	5619.63
944.18	5541.80
944.35	5646.25
944.51	5490.60
944.68	5312.43
944.84	5511.08
945.01	5400.49
945.17	5406.64
945.34	5408.69
945.51	5525.42
945.67	5380.01
945.84	5423.02
946.00	5363.63
946.17	5304.24
946.33	5244.85
946.50	5382.06
946.67	5375.92
946.83	5294.00
947.00	5314.48
947.16	5271.47
947.33	5218.22
947.49	5300.14
947.66	5107.63
947.82	5343.15
947.99	5312.43
948.16	5281.71
948.32	5218.22
948.49	5328.81
948.65	5291.95
948.82	5326.77
948.98	5224.37
949.15	5113.78
949.31	5160.88
949.48	5210.03
949.64	5205.94
949.81	5138.35
949.97	5236.66
950.14	5238.70
950.30	5347.25
950.47	5408.69
950.63	5302.19
950.80	5246.90
950.96	5230.51
951.13	5285.81
951.30	5222.32
951.46	5316.53
951.63	5386.16
951.79	5294.00
951.96	5408.69
952.12	5398.45
952.29	5367.73
952.45	5287.86
952.62	5199.79
952.78	5269.42
952.94	5382.06
953.11	5291.95
953.27	5250.99
953.44	5363.63
953.60	5416.88
953.77	5265.33
953.93	5361.58
954.10	5312.43
954.26	5377.97
954.43	5244.85
954.59	5390.25
954.76	5461.93
954.92	5435.31
955.09	5298.10
955.25	5369.77
955.42	5334.96
955.58	5498.80
955.75	5492.65
955.91	5443.50
956.07	5373.87
956.24	5580.71
956.40	5320.62
956.57	5509.04
956.73	5492.65
956.90	5468.08
957.06	5339.05
957.23	5248.94
957.39	5406.64
957.56	5330.86
957.72	5332.91
957.88	5435.31
958.05	5525.42
958.21	5496.75
958.38	5396.40
958.54	5369.77
958.71	5511.08
958.87	5369.77
959.03	5347.25
959.20	5568.43
959.36	5439.40
959.53	5392.30
959.69	5351.34
959.85	5492.65
960.02	5359.53
960.18	5373.87
960.35	5277.62
960.51	5447.60
960.68	5363.63
960.84	5418.93
961.00	5337.01
961.17	5392.30
961.33	5416.88
961.50	5339.05
961.66	5408.69
961.82	5318.57
961.99	5459.88
962.15	5345.20
962.31	5271.47
962.48	5427.12
962.64	5478.32
962.81	5394.35
962.97	5470.12
963.13	5433.26
963.30	5273.52
963.46	5347.25
963.62	5199.79
963.79	5171.12
963.95	5337.01
964.12	5226.42
964.28	5371.82
964.44	5449.64
964.61	5369.77
964.77	5273.52
964.93	5396.40
965.10	5386.16
965.26	5218.22
965.42	5248.94
965.59	5148.59
965.75	5214.13
965.92	5337.01
966.08	5218.22
966.24	5234.61
966.41	5109.68
966.57	5234.61
966.73	5250.99
966.90	5326.77
967.06	5164.98
967.22	5281.71
967.39	5111.73
967.55	5197.74
967.71	5113.78
967.88	5128.11
968.04	5042.10
968.20	5070.77
968.37	5117.87
968.53	5068.72
968.69	5167.03
968.85	5040.05
969.02	5154.74
969.18	5207.98
969.34	4958.13
969.51	4999.09
969.67	5185.46
969.83	5054.39
970.00	5216.18
970.16	4900.79
970.32	5038.00
970.48	5058.48
970.65	5093.30
970.81	5035.96
970.97	4947.89
971.14	4929.46
971.30	5001.14
971.46	4956.08
971.63	5029.81
971.79	5027.76
971.95	5027.76
972.11	4829.11
972.28	4937.65
972.44	4943.80
972.60	4763.58
972.76	4868.02
972.93	4736.95
973.09	4939.70
973.25	4767.67
973.42	4853.69
973.58	4954.04
973.74	4835.25
973.90	4861.88
974.07	4886.45
974.23	4833.21
974.39	4816.82
974.55	4685.75
974.72	4767.67
974.88	4722.62
975.04	4720.57
975.20	4700.09
975.37	4777.91
975.53	4577.21
975.69	4704.18
975.85	4640.70
976.01	4706.23
976.18	4646.84
976.34	4601.79
976.50	4591.55
976.66	4796.34
976.83	4665.27
976.99	4569.02
977.15	4624.31
977.31	4601.79
977.47	4761.53
977.64	4566.97
977.80	4538.30
977.96	4566.97
978.12	4536.25
978.29	4558.78
978.45	4429.76
978.61	4509.63
978.77	4462.52
978.93	4530.11
979.10	4558.78
979.26	4505.53
979.42	4366.27
979.58	4280.25
979.74	4433.85
979.91	4341.69
980.07	4458.43
980.23	4421.56
980.39	4317.12
980.55	4319.17
980.71	4360.13
980.88	4325.31
981.04	4452.28
981.20	4224.96
981.36	4497.34
981.52	4294.59
981.68	4274.11
981.85	4280.25
982.01	4222.91
982.17	4286.40
982.33	4353.98
982.49	4345.79
982.65	4294.59
982.82	4184.00
982.98	4161.47
983.14	4089.79
983.30	4196.29
983.46	4202.43
983.62	4130.75
983.79	4091.84
983.95	4245.44
984.11	4042.69
984.27	4120.51
984.43	4179.90
984.59	4165.57
984.75	4204.48
984.91	4091.84
985.08	4216.77
985.24	4089.79
985.40	4003.78
985.56	4020.16
985.72	4179.90
985.88	4151.23
986.04	4091.84
986.20	3915.72
986.37	3983.30
986.53	4048.83
986.69	3817.41
986.85	3915.72
987.01	3846.09
987.17	4048.83
987.33	3928.00
987.49	3913.67
987.65	3997.64
987.82	3907.52
987.98	3899.33
988.14	3977.16
988.30	3971.01
988.46	3805.13
988.62	3876.80
988.78	3878.85
988.94	3817.41
989.10	3684.30
989.26	3758.02
989.42	3776.45
989.59	3717.06
989.75	3780.55
989.91	3821.51
990.07	3600.33
990.23	3817.41
990.39	3751.88
990.55	3706.82
990.71	3712.97
990.87	3786.69
991.03	3798.98
991.19	3600.33
991.35	3715.02
991.51	3647.43
991.67	3758.02
991.83	3661.77
992.00	3665.86
992.16	3731.40
992.32	3678.15
992.48	3631.05
992.64	3555.27
992.80	3692.49
992.96	3717.06
993.12	3592.14
993.28	3518.41
993.44	3590.09
993.60	3639.24
993.76	3573.71
993.92	3502.03
994.08	3598.28
994.24	3491.79
994.40	3661.77
994.56	3647.43
994.72	3514.31
994.88	3502.03
995.04	3510.22
995.20	3585.99
995.36	3456.97
995.52	3567.56
995.68	3532.75
995.84	3387.34
996.00	3471.31
996.16	3481.55
996.32	3440.59
996.48	3364.81
996.64	3514.31
996.80	3307.47
996.96	3452.88
997.12	3456.97
997.28	3346.38
997.44	3196.88
997.60	3350.48
997.76	3352.52
997.92	3377.10
998.08	3379.15
998.24	3186.64
998.40	3368.91
998.56	3391.44
998.72	3235.79
998.88	3289.04
999.04	3203.02
999.20	3332.05
999.36	3209.17
999.52	3350.48
999.68	3198.93
999.84	3225.55
1000.00	3239.89
1000.16	3289.04
1000.32	3252.17
1000.48	3276.75
1000.64	3141.58
1000.80	3182.54
1000.95	3162.06
1001.11	3114.96
1001.27	3123.15
1001.43	3192.78
1001.59	3071.95
1001.75	3096.53
1001.91	3172.30
1002.07	3145.68
1002.23	3106.77
1002.39	3028.95
1002.55	3074.00
1002.71	3108.82
1002.87	3071.95
1003.03	2961.36
1003.19	3051.47
1003.34	3121.10
1003.50	3018.71
1003.66	3119.06
1003.82	3082.19
1003.98	3008.47
1004.14	3098.58
1004.30	3037.14
1004.46	2965.46
1004.62	2955.22
1004.78	2996.18
1004.94	3074.00
1005.09	3000.27
1005.25	2990.03
1005.41	2938.84
1005.57	2869.20
1005.73	2971.60
1005.89	2793.43
1006.05	3028.95
1006.21	2967.51
1006.37	2838.48
1006.52	2850.77
1006.68	2854.87
1006.84	3006.42
1007.00	2781.14
1007.16	2912.21
1007.32	2895.83
1007.48	2930.64
1007.64	2947.03
1007.79	2818.00
1007.95	2793.43
1008.11	2904.02
1008.27	2791.38
1008.43	2764.76
1008.59	2777.05
1008.75	2826.20
1008.91	2828.24
1009.06	2740.18
1009.22	2834.39
1009.38	2756.57
1009.54	2748.37
1009.70	2740.18
1009.86	2789.33
1010.01	2805.72
1010.17	2709.46
1010.33	2756.57
1010.49	2707.41
1010.65	2791.38
1010.81	2639.83
1010.96	2738.13
1011.12	2568.15
1011.28	2617.30
1011.44	2781.14
1011.60	2625.50
1011.76	2789.33
1011.91	2764.76
1012.07	2693.08
1012.23	2568.15
1012.39	2631.64
1012.55	2717.65
1012.71	2615.26
1012.86	2572.25
1013.02	2629.59
1013.18	2613.21
1013.34	2541.53
1013.50	2668.50
1013.65	2629.59
1013.81	2617.30
1013.97	2566.10
1014.13	2623.45
1014.29	2488.28
1014.44	2643.93
1014.60	2514.91
1014.76	2461.66
1014.92	2594.78
1015.07	2684.89
1015.23	2543.58
1015.39	2455.51
1015.55	2547.67
1015.71	2519.00
1015.86	2484.19
1016.02	2383.84
1016.18	2519.00
1016.34	2445.27
1016.49	2527.19
1016.65	2502.62
1016.81	2527.19
1016.97	2447.32
1017.12	2469.85
1017.28	2447.32
1017.44	2402.27
1017.60	2478.04
1017.75	2439.13
1017.91	2488.28
1018.07	2486.23
1018.23	2367.45
1018.38	2355.16
1018.54	2437.08
1018.70	2410.46
1018.86	2430.94
1019.01	2420.70
1019.17	2392.03
1019.33	2478.04
1019.49	2420.70
1019.64	2445.27
1019.80	2486.23
1019.96	2465.75
1020.12	2428.89
1020.27	2363.36
1020.43	2416.60
1020.59	2293.72
1020.74	2408.41
1020.90	2344.92
1021.06	2349.02
1021.22	2308.06
1021.37	2256.86
1021.53	2308.06
1021.69	2306.01
1021.84	2295.77
1022.00	2328.54
1022.16	2240.48
1022.31	2238.43
1022.47	2404.32
1022.63	2373.60
1022.79	2246.62
1022.94	2232.29
1023.10	2332.64
1023.26	2203.61
1023.41	2301.92
1023.57	2150.37
1023.73	2179.04
1023.88	2357.21
1024.04	2093.02
1024.20	2129.89
1024.35	2320.35
1024.51	2240.48
1024.67	2201.57
1024.82	2242.53
1024.98	2109.41
1025.14	2174.94
1025.29	2230.24
1025.45	2269.15
1025.61	2197.47
1025.76	2224.09
1025.92	2246.62
1026.08	2236.38
1026.23	2168.80
1026.39	2234.33
1026.55	2246.62
1026.70	2131.94
1026.86	2150.37
1027.02	2258.91
1027.17	2142.18
1027.33	2082.78
1027.48	2066.40
1027.64	2115.55
1027.80	2095.07
1027.95	2228.19
1028.11	2076.64
1028.27	2203.61
1028.42	2084.83
1028.58	2121.70
1028.73	2017.25
1028.89	2101.22
1029.05	2238.43
1029.20	2207.71
>>>>>End Processed Spectral Data<<<<<
