SpectraSuite Data File
++++++++++++++++++++++++++++++++++++
Date: Fri Jun 02 14:49:25 CEST 2017
User: INFO_000
Dark Spectrum Present: No
Reference Spectrum Present: No
Number of Sampled Component Spectra: 1
Spectrometers: USB4H00879
Integration Time (usec): 80000 (USB4H00879)
Spectra Averaged: 1 (USB4H00879)
Boxcar Smoothing: 0 (USB4H00879)
Correct for Electrical Dark: No (USB4H00879)
Strobe/Lamp Enabled: No (USB4H00879)
Correct for Detector Non-linearity: No (USB4H00879)
Correct for Stray Light: No (USB4H00879)
Number of Pixels in Processed Spectrum: 3648
>>>>>Begin Processed Spectral Data<<<<<
345.13	1300.46
345.34	1300.46
345.56	1300.46
345.78	1296.36
345.99	1263.60
346.21	1654.76
346.42	1708.01
346.64	1611.75
346.86	1810.40
347.07	1638.38
347.29	1626.09
347.50	1615.85
347.72	1630.18
347.94	1834.98
348.15	1542.12
348.37	1644.52
348.59	1654.76
348.80	1673.19
349.02	1834.98
349.23	1900.52
349.45	1779.68
349.67	1839.08
349.88	1791.97
350.10	1933.28
350.31	1806.31
350.53	1837.03
350.75	1937.38
350.96	1812.45
351.18	1861.60
351.39	1787.88
351.61	1753.06
351.82	1839.08
352.04	1834.98
352.26	1822.69
352.47	1845.22
352.69	1898.47
352.90	1796.07
353.12	1875.94
353.34	1830.88
353.55	1871.84
353.77	1847.27
353.98	1751.01
354.20	1910.75
354.41	1888.23
354.63	1978.34
354.85	2060.26
355.06	1888.23
355.28	1802.21
355.49	1855.46
355.71	1918.95
355.92	1849.32
356.14	1927.14
356.35	1894.37
356.57	1855.46
356.79	1908.71
357.00	1896.42
357.22	1933.28
357.43	1853.41
357.65	1961.95
357.86	1785.83
358.08	1869.80
358.29	1902.56
358.51	1943.52
358.72	2007.01
358.94	1966.05
359.16	1914.85
359.37	1966.05
359.59	1916.90
359.80	2027.49
360.02	1906.66
360.23	1949.67
360.45	1982.43
360.66	1953.76
360.88	1900.52
361.09	1933.28
361.31	2011.11
361.52	1908.71
361.74	2011.11
361.95	2007.01
362.17	2060.26
362.38	2074.59
362.60	2066.40
362.81	1978.34
363.03	1986.53
363.24	1976.29
363.46	2095.07
363.67	1988.58
363.89	2019.30
364.10	2041.82
364.32	1908.71
364.53	2035.68
364.75	1953.76
364.96	1994.72
365.18	2017.25
365.39	1957.86
365.61	1982.43
365.82	2086.88
366.04	2033.63
366.25	1964.00
366.47	2027.49
366.68	2056.16
366.90	1982.43
367.11	2144.22
367.33	2084.83
367.54	2047.97
367.76	1943.52
367.97	2043.87
368.19	1998.82
368.40	2090.98
368.62	1970.15
368.83	1974.24
369.05	2056.16
369.26	1992.67
369.48	2007.01
369.69	2037.73
369.91	2101.22
370.12	2090.98
370.33	1996.77
370.55	1998.82
370.76	2093.02
370.98	2133.98
371.19	1980.39
371.41	2039.78
371.62	2047.97
371.84	2082.78
372.05	2166.75
372.27	2045.92
372.48	2099.17
372.69	2088.93
372.91	2170.85
373.12	2166.75
373.34	2062.30
373.55	2068.45
373.77	2101.22
373.98	2095.07
374.20	2111.46
374.41	2185.18
374.62	2142.18
374.84	2072.54
375.05	2142.18
375.27	2138.08
375.48	2142.18
375.70	2224.09
375.91	2236.38
376.12	2193.37
376.34	2191.33
376.55	2090.98
376.77	2211.81
376.98	2027.49
377.19	2138.08
377.41	2090.98
377.62	2191.33
377.84	2267.10
378.05	2228.19
378.27	2138.08
378.48	2224.09
378.69	2269.15
378.91	2297.82
379.12	2146.27
379.34	2191.33
379.55	2322.40
379.76	2222.05
379.98	2263.01
380.19	2215.90
380.41	2316.25
380.62	2273.25
380.83	2250.72
381.05	2172.89
381.26	2381.79
381.47	2273.25
381.69	2310.11
381.90	2490.33
382.12	2242.53
382.33	2207.71
382.54	2254.81
382.76	2279.39
382.97	2301.92
383.19	2254.81
383.40	2404.32
383.61	2291.68
383.83	2277.34
384.04	2340.83
384.25	2369.50
384.47	2389.98
384.68	2428.89
384.89	2209.76
385.11	2267.10
385.32	2310.11
385.54	2389.98
385.75	2353.12
385.96	2355.16
386.18	2422.75
386.39	2353.12
386.60	2291.68
386.82	2392.03
387.03	2402.27
387.24	2418.65
387.46	2375.64
387.67	2455.51
387.88	2613.21
388.10	2461.66
388.31	2385.88
388.52	2537.43
388.74	2498.52
388.95	2559.96
389.16	2453.47
389.38	2422.75
389.59	2580.44
389.80	2611.16
390.02	2553.82
390.23	2535.39
390.44	2529.24
390.66	2564.06
390.87	2531.29
391.08	2562.01
391.30	2686.94
391.51	2584.54
391.72	2600.92
391.94	2623.45
392.15	2631.64
392.36	2637.78
392.58	2539.48
392.79	2611.16
393.00	2684.89
393.22	2713.56
393.43	2768.85
393.64	2764.76
393.85	2783.19
394.07	2711.51
394.28	2688.98
394.49	2731.99
394.71	2764.76
394.92	2783.19
395.13	2686.94
395.35	2742.23
395.56	2787.29
395.77	2809.81
395.98	2818.00
396.20	2818.00
396.41	2783.19
396.62	2934.74
396.84	2820.05
397.05	2873.30
397.26	2858.96
397.47	2967.51
397.69	2756.57
397.90	3000.27
398.11	2969.55
398.32	2873.30
398.54	2844.63
398.75	2883.54
398.96	2912.21
399.18	2963.41
399.39	2983.89
399.60	2967.51
399.81	2987.99
400.03	2891.73
400.24	3299.28
400.45	2901.97
400.66	3100.62
400.88	2963.41
401.09	3147.73
401.30	3026.90
401.51	3192.78
401.73	3164.11
401.94	3106.77
402.15	3082.19
402.36	3119.06
402.58	3055.57
402.79	3117.01
403.00	3071.95
403.21	3162.06
403.43	3149.78
403.64	3207.12
403.85	3053.52
404.06	3139.54
404.27	2994.13
404.49	3258.32
404.70	3174.35
404.91	3231.69
405.12	3190.74
405.34	3246.03
405.55	3459.02
405.76	3237.84
405.97	3209.17
406.19	3182.54
406.40	3084.24
406.61	3237.84
406.82	3346.38
407.03	3209.17
407.25	3282.89
407.46	3366.86
407.67	3549.13
407.88	3495.88
408.09	3252.17
408.31	3237.84
408.52	3448.78
408.73	3379.15
408.94	3387.34
409.15	3413.96
409.37	3467.21
409.58	3452.88
409.79	3399.63
410.00	3583.95
410.21	3465.16
410.43	3461.07
410.64	3340.24
410.85	3461.07
411.06	3510.22
411.27	3536.84
411.48	3487.69
411.70	3510.22
411.91	3573.71
412.12	3651.53
412.33	3649.48
412.54	3489.74
412.76	3575.75
412.97	3590.09
413.18	3592.14
413.39	3739.59
413.60	3678.15
413.81	3592.14
414.03	3629.00
414.24	3633.10
414.45	3780.55
414.66	3604.42
414.87	3837.89
415.08	3717.06
415.30	3706.82
415.51	3647.43
415.72	3690.44
415.93	3758.02
416.14	3774.41
416.35	3811.27
416.56	3803.08
416.78	3874.76
416.99	3813.32
417.20	3743.69
417.41	3835.85
417.62	3850.18
417.83	3854.28
418.04	3893.19
418.26	3968.96
418.47	3862.47
418.68	3968.96
418.89	3874.76
419.10	4083.65
419.31	3950.53
419.52	4073.41
419.73	4087.75
419.95	4052.93
420.16	3911.62
420.37	3962.82
420.58	3977.16
420.79	3889.09
421.00	3915.72
421.21	4032.45
421.42	3946.44
421.63	4001.73
421.85	4091.84
422.06	4165.57
422.27	4132.80
422.48	4093.89
422.69	4329.41
422.90	4202.43
423.11	4249.54
423.32	4247.49
423.53	4259.78
423.75	4341.69
423.96	4401.08
424.17	4292.54
424.38	4431.80
424.59	4278.21
424.80	4620.22
425.01	4360.13
425.22	4382.65
425.43	4382.65
425.64	4573.11
425.85	4534.20
426.06	4474.81
426.28	4429.76
426.49	4374.46
426.70	4583.35
426.91	4620.22
427.12	4566.97
427.33	4618.17
427.54	4616.12
427.75	4652.98
427.96	4763.58
428.17	4601.79
428.38	4685.75
428.59	4872.12
428.80	4718.52
429.01	4808.63
429.23	4722.62
429.44	4908.98
429.65	4865.97
429.86	4878.26
430.07	4847.54
430.28	4872.12
430.49	4888.50
430.70	5066.67
430.91	4997.04
431.12	4954.04
431.33	5250.99
431.54	4960.18
431.75	5031.86
431.96	5179.31
432.17	5042.10
432.38	5107.63
432.59	5222.32
432.80	5228.46
433.01	5164.98
433.22	5064.63
433.43	5201.84
433.64	5197.74
433.85	5238.70
434.06	5224.37
434.27	5195.70
434.49	5072.82
434.70	5445.55
434.91	5429.17
435.12	5382.06
435.33	5488.56
435.54	5416.88
435.75	5181.36
435.96	5427.12
436.17	5382.06
436.38	5431.21
436.59	5513.13
436.80	5474.22
437.01	5767.08
437.22	5785.51
437.43	5656.49
437.64	5406.64
437.85	5648.30
438.06	5855.14
438.27	5636.01
438.48	5679.02
438.69	5697.45
438.90	5744.55
439.11	5605.29
439.32	5857.19
439.53	5562.28
439.74	5812.14
439.95	5859.24
440.16	5805.99
440.37	5760.94
440.57	5730.22
440.78	5994.40
440.99	6027.17
441.20	5957.54
441.41	5916.58
441.62	5769.13
441.83	5838.76
442.04	5857.19
442.25	6014.88
442.46	5986.21
442.67	6158.24
442.88	6541.21
443.09	5992.36
443.30	6154.15
443.51	6023.08
443.72	6242.21
443.93	6195.11
444.14	6328.22
444.35	6209.44
444.56	6217.63
444.77	6244.26
444.98	6307.74
445.19	6442.91
445.40	6299.55
445.61	6367.13
445.81	6578.08
446.02	6365.09
446.23	6434.72
446.44	6283.17
446.65	6502.30
446.86	6438.81
447.07	6496.16
447.28	6629.27
447.49	6635.42
447.70	6502.30
447.91	6700.95
448.12	6653.85
448.33	6840.22
448.54	6621.08
448.74	6614.94
448.95	6721.43
449.16	6760.34
449.37	6989.72
449.58	6719.39
449.79	6918.04
450.00	6868.89
450.21	6973.33
450.42	6827.93
450.63	7061.40
450.84	6991.77
451.05	7010.20
451.25	6944.66
451.46	6889.37
451.67	7002.01
451.88	7219.09
452.09	7155.60
452.30	7192.47
452.51	7008.15
452.72	7182.23
452.93	7589.77
453.13	7133.08
453.34	7206.80
453.55	7315.34
453.76	7278.48
453.97	7507.85
454.18	7405.46
454.39	7419.79
454.60	7557.00
454.81	7440.27
455.01	7565.20
455.22	7331.73
455.43	7614.35
455.64	7804.81
455.85	7839.62
456.06	8056.71
456.27	7612.30
456.48	7686.03
456.68	7817.10
456.89	7913.35
457.10	7841.67
457.31	7989.13
457.52	7917.45
457.73	7997.32
457.94	8054.66
458.14	7919.50
458.35	8388.48
458.56	8181.64
458.77	7958.41
458.98	8044.42
459.19	8417.15
459.39	8296.32
459.60	8249.22
459.81	8247.17
460.02	8238.98
460.23	8300.42
460.44	8464.25
460.65	8525.69
460.85	8421.25
461.06	8560.51
461.27	8480.64
461.48	8793.98
461.69	8984.44
461.89	8550.27
462.10	8634.24
462.31	8462.21
462.52	8781.69
462.73	8834.94
462.94	9090.93
463.14	9013.11
463.35	8847.22
463.56	9305.97
463.77	9219.96
463.98	9140.08
464.18	9140.08
464.39	9406.32
464.60	9463.66
464.81	9258.87
465.02	9125.75
465.23	9631.60
465.43	9529.20
465.64	9564.01
465.85	9551.73
466.06	9521.01
466.27	9684.84
466.47	9803.63
466.68	9701.23
466.89	9723.76
467.10	9848.68
467.30	9781.10
467.51	9895.78
467.72	10239.84
467.93	9838.44
468.14	10102.63
468.34	10059.62
468.55	10329.95
468.76	10336.10
468.97	10063.72
469.17	10504.03
469.38	10473.31
469.59	10825.56
469.80	10530.66
470.01	10684.25
470.21	10674.01
470.42	10841.95
470.63	10909.53
470.84	10784.60
471.04	11044.70
471.25	10862.43
471.46	10979.16
471.67	11333.46
471.87	11255.64
472.08	11261.78
472.29	11663.18
472.50	11134.81
472.70	11405.14
472.91	11564.88
473.12	11693.90
473.33	11820.88
473.53	11994.95
473.74	11898.70
473.95	12042.06
474.16	12216.13
474.36	12191.56
474.57	12308.29
474.78	12664.64
474.99	12263.24
475.19	12281.67
475.40	12719.93
475.61	12756.80
475.81	12799.80
476.02	13078.33
476.23	12857.15
476.44	13049.66
476.64	13225.78
476.85	13299.51
477.06	13293.37
477.27	13551.41
477.47	13500.21
477.68	13354.80
477.89	13608.75
478.09	13827.88
478.30	13854.51
478.51	13598.51
478.71	14208.81
478.92	14044.97
479.13	14210.86
479.34	14257.96
479.54	14401.32
479.75	14436.13
479.96	14583.59
480.16	14475.04
480.37	14663.46
480.58	14692.13
480.78	15023.90
480.99	15314.71
481.20	15171.35
481.41	15142.68
481.61	15292.18
481.82	15527.70
482.03	15396.63
482.23	15345.43
482.44	15914.77
482.65	15941.39
482.85	15865.61
483.06	15974.16
483.27	16004.88
483.47	16217.86
483.68	16281.35
483.89	16377.61
484.09	16338.69
484.30	16574.21
484.51	16453.38
484.71	16629.51
484.92	16705.28
485.13	16981.76
485.33	16891.65
485.54	17204.99
485.75	17196.79
485.95	17176.31
486.16	17254.14
486.37	17786.61
486.57	17577.72
486.78	17454.84
486.98	17540.85
487.19	17852.14
487.40	17983.21
487.60	17737.46
487.81	18302.70
488.02	18171.63
488.22	17905.39
488.43	18022.12
488.64	18339.56
488.84	18462.44
489.05	18677.48
489.25	18509.54
489.46	18880.22
489.67	18925.28
489.87	19109.60
490.08	18718.43
490.29	18853.60
490.49	19400.41
490.70	19173.08
490.90	19541.72
491.11	19269.34
491.32	19437.27
491.52	19562.20
491.73	19627.73
491.94	20018.89
492.14	19853.01
492.35	19873.49
492.55	19992.27
492.76	20307.66
492.97	20430.54
493.17	20305.61
493.38	20551.37
493.58	20821.70
493.79	20795.07
494.00	20365.00
494.20	20666.05
494.41	20975.30
494.61	21128.89
494.82	20989.63
495.02	21112.51
495.23	21300.92
495.44	21266.11
495.64	21225.15
495.85	21620.41
496.05	21534.39
496.26	21259.96
496.47	21835.44
496.67	21321.40
496.88	21708.47
497.08	21513.91
497.29	22095.53
497.49	21679.80
497.70	21997.23
497.91	22195.89
498.11	22423.21
498.32	22308.52
498.52	22408.87
498.73	22623.91
498.93	22554.28
499.14	22566.57
499.34	22843.04
499.55	23092.90
499.76	22865.57
499.96	22765.22
500.17	22826.66
500.37	23037.60
500.58	22900.39
500.78	23269.02
500.99	23252.64
501.19	23539.35
501.40	23002.78
501.60	23441.05
501.81	23103.14
502.02	23490.20
502.22	23404.19
502.43	23805.59
502.63	23688.85
502.84	23807.64
503.04	23606.94
503.25	23781.01
503.45	23920.28
503.66	24188.56
503.86	23787.16
504.07	23901.84
504.27	23826.07
504.48	24577.67
504.68	24340.11
504.89	24370.83
505.09	24659.59
505.30	24610.44
505.50	24360.59
505.71	24628.87
505.91	24776.33
506.12	24692.36
506.32	24880.77
506.53	24800.90
506.73	24909.44
506.94	25099.90
507.14	25024.13
507.35	25196.16
507.55	24985.22
507.76	25222.78
507.96	25495.16
508.17	25063.04
508.37	25314.94
508.58	25392.76
508.78	25456.25
508.99	25726.58
509.19	25685.62
509.40	25351.81
509.60	25407.10
509.81	25734.78
510.01	25407.10
510.22	25753.21
510.42	25808.50
510.63	25855.61
510.83	26097.27
511.04	25849.46
511.24	25884.28
511.44	25980.53
511.65	26191.47
511.85	26078.83
512.06	26220.14
512.26	26265.20
512.47	26494.57
512.67	26271.34
512.88	26308.21
513.08	25874.04
513.29	26605.16
513.49	26457.71
513.69	26857.06
513.90	26586.73
514.10	26859.11
514.31	26701.42
514.51	26791.53
514.72	27213.41
514.92	26783.34
515.13	27088.48
515.33	26998.37
515.53	27053.67
515.74	27334.24
515.94	27362.91
516.15	27135.59
516.35	26955.36
516.56	27395.68
516.76	27334.24
516.96	27324.00
517.17	27526.75
517.37	27371.10
517.58	27340.38
517.78	27567.71
517.99	27625.05
518.19	27977.30
518.39	27930.20
518.60	28188.24
518.80	28100.18
519.01	28124.75
519.21	28364.37
519.41	28431.95
519.62	28128.85
519.82	28483.15
520.03	28399.18
520.23	28206.67
520.43	28366.42
520.64	28706.38
520.84	28929.61
521.05	28681.80
521.25	28939.85
521.45	28808.78
521.66	29189.70
521.86	29228.61
522.07	28886.60
522.27	29097.54
522.47	29273.67
522.68	29279.81
522.88	29562.43
523.08	29697.59
523.29	29914.68
523.49	29568.57
523.70	29572.67
523.90	29996.60
524.10	29732.41
524.31	30058.04
524.51	29756.99
524.71	30506.54
524.92	30332.47
525.12	30762.54
525.33	30248.50
525.53	30680.62
525.73	30584.37
525.94	30514.73
526.14	30492.21
526.34	30955.05
526.55	30729.77
526.75	30758.44
526.95	31477.28
527.16	30987.82
527.36	31045.16
527.56	31489.57
527.77	31620.64
527.97	31522.34
528.17	31737.37
528.38	31950.36
528.58	32099.86
528.78	31864.35
528.99	32044.57
529.19	32409.11
529.39	31864.35
529.60	32345.62
529.80	32069.14
530.00	32486.93
530.21	32407.06
530.41	32499.22
530.61	32572.94
530.82	32507.41
531.02	32724.49
531.22	33156.61
531.43	32951.82
531.63	33439.23
531.83	33678.85
532.04	33908.22
532.24	33123.85
532.44	33848.83
532.64	34065.91
532.85	34180.60
533.05	33754.62
533.25	33805.82
533.46	33486.34
533.66	34665.97
533.86	34358.77
534.07	34711.02
534.27	34584.05
534.47	34840.04
534.67	34878.96
534.88	34940.39
535.08	34942.44
535.28	35079.66
535.49	35206.63
535.69	35259.88
535.89	35476.96
536.09	35337.70
536.30	35659.23
536.50	35513.83
536.70	36128.22
536.91	35470.82
537.11	35935.71
537.31	35993.05
537.51	35806.69
537.72	36480.47
537.92	36341.21
538.12	36589.01
538.32	36462.04
538.53	36699.60
538.73	36419.03
538.93	36425.17
539.13	36634.06
539.34	36904.40
539.54	37023.18
539.74	37086.67
539.94	36939.21
540.15	36974.03
540.35	37328.33
540.55	37346.76
540.75	37408.20
540.96	37580.23
541.16	37397.96
541.36	37316.04
541.56	37809.60
541.77	37881.28
541.97	37426.63
542.17	37842.37
542.37	38116.79
542.58	37946.81
542.78	37688.77
542.98	38200.76
543.18	38368.69
543.38	38698.42
543.59	38663.60
543.79	38372.79
543.99	38194.62
544.19	38436.28
544.40	38467.00
544.60	39122.35
544.80	39124.40
545.00	38897.07
545.20	39542.18
545.41	38993.32
545.61	39173.55
545.81	39277.99
546.01	39364.01
546.21	39095.72
546.42	38923.69
546.62	39169.45
546.82	39167.40
547.02	39638.44
547.22	39603.62
547.43	39314.86
547.63	39507.37
547.83	39396.77
548.03	39417.25
548.23	39910.82
548.44	39955.87
548.64	40060.32
548.84	39841.18
549.04	39560.61
549.24	39994.78
549.45	40164.76
549.65	39767.46
549.85	39888.29
550.05	40459.67
550.25	40523.16
550.45	40652.18
550.66	39964.06
550.86	40271.26
551.06	40977.81
551.26	40621.46
551.46	40508.82
551.66	40682.90
551.87	40555.93
552.07	40846.74
552.27	40666.52
552.47	40988.05
552.67	40723.86
552.87	40832.40
553.07	40873.36
553.28	40899.98
553.48	41198.99
553.68	40830.35
553.88	41375.11
554.08	40787.35
554.28	41438.60
554.48	40695.19
554.69	41446.79
554.89	41076.11
555.09	41225.61
555.29	41092.49
555.49	41317.77
555.69	41198.99
555.89	41387.40
556.10	41690.50
556.30	41592.20
556.50	41567.62
556.70	41440.65
556.90	41645.44
557.10	41768.32
557.30	41237.90
557.50	41745.80
557.70	41850.24
557.91	42145.15
558.11	41792.90
558.31	41946.50
558.51	41670.02
558.71	42239.36
558.91	42155.39
559.11	42214.78
559.31	41842.05
559.51	41733.51
559.72	41956.74
559.92	42337.66
560.12	42194.30
560.32	42444.15
560.52	42245.50
560.72	41899.39
560.92	42034.56
561.12	42069.37
561.32	42978.67
561.52	42550.65
561.72	42825.07
561.93	42009.98
562.13	42319.23
562.33	42255.74
562.53	42898.80
562.73	42153.34
562.93	42589.56
563.13	42667.38
563.33	41977.22
563.53	42786.16
563.73	42376.57
563.93	42491.26
564.13	43027.82
564.33	42708.34
564.53	42605.94
564.74	43044.21
564.94	42401.14
565.14	42454.39
565.34	42853.75
565.54	42790.26
565.74	42997.10
565.94	43066.73
566.14	42984.82
566.34	42673.52
566.54	43521.38
566.74	42876.27
566.94	43060.59
567.14	43281.77
567.34	43189.61
567.54	43408.75
567.74	42890.61
567.94	42632.57
568.14	43277.68
568.34	43480.42
568.54	43218.28
568.74	43185.52
568.94	43294.06
569.14	43814.24
569.34	43498.86
569.54	43728.23
569.75	43142.51
569.95	43529.58
570.15	43818.34
570.35	43769.19
570.55	43722.08
570.75	43742.56
570.95	43877.73
571.15	44072.29
571.35	43742.56
571.55	44234.08
571.75	43855.20
571.95	44393.82
572.15	44070.24
572.35	44301.66
572.55	44391.77
572.75	44225.89
572.95	44514.65
573.15	44053.86
573.35	44334.43
573.55	43986.27
573.75	44262.75
573.95	44784.98
574.15	44457.31
574.35	44514.65
574.55	44248.41
574.75	44203.36
574.95	44760.40
575.15	44510.55
575.34	45032.78
575.54	44723.54
575.74	44633.43
575.94	44901.71
576.14	44758.36
576.34	45190.48
576.54	45501.77
576.74	44762.45
576.94	44864.85
577.14	45233.49
577.34	45421.90
577.54	45038.93
577.74	45393.23
577.94	45620.55
578.14	45292.88
578.34	45452.62
578.54	45008.21
578.74	45346.12
578.94	45649.22
579.14	45360.46
579.34	45376.84
579.54	46058.82
579.74	46101.82
579.94	45868.36
580.13	45935.94
580.33	45970.75
580.53	46085.44
580.73	46216.51
580.93	46105.92
581.13	46230.85
581.33	46810.42
581.53	46474.55
581.73	46488.89
581.93	46155.07
582.13	46521.66
582.33	46699.83
582.53	46513.47
582.73	46914.87
582.92	46683.45
583.12	46945.59
583.32	46685.50
583.52	46558.52
583.72	46949.68
583.92	46863.67
584.12	47199.54
584.32	47430.96
584.52	47359.28
584.72	46904.63
584.92	47512.88
585.11	47705.38
585.31	47453.48
585.51	47916.32
585.71	47559.98
585.91	47619.37
586.11	47529.26
586.31	48033.06
586.51	48110.88
586.71	47709.48
586.91	48119.07
587.10	48229.66
587.30	47963.43
587.50	48463.13
587.70	48031.01
587.90	48114.98
588.10	48575.77
588.30	48104.74
588.50	48487.71
588.69	48475.42
588.89	48330.01
589.09	48571.67
589.29	48612.63
589.49	48866.58
589.69	48407.84
589.89	48989.46
590.08	49112.34
590.28	48989.46
590.48	48794.90
590.68	48825.62
590.88	48493.85
591.08	49231.12
591.28	48946.45
591.47	49601.80
591.67	49440.01
591.87	49534.22
592.07	49304.85
592.27	49298.70
592.47	49259.79
592.67	49575.18
592.86	49442.06
593.06	49755.40
593.26	49841.42
593.46	50085.12
593.66	49712.39
593.86	49734.92
594.05	50046.21
594.25	50296.06
594.45	50117.89
594.65	50210.05
594.85	49673.48
595.05	50515.20
595.24	50414.85
595.44	50091.27
595.64	50697.47
595.84	50306.30
596.04	50539.77
596.23	50722.04
596.43	50740.47
596.63	50810.10
596.83	50480.38
597.03	51025.14
597.22	51098.87
597.42	50967.80
597.62	50789.62
597.82	51092.72
598.02	51160.31
598.21	51387.63
598.41	51139.83
598.61	51371.25
598.81	51289.33
599.01	51713.26
599.20	51315.95
599.40	51131.64
599.60	51688.68
599.80	51559.66
600.00	51786.99
600.19	52188.39
600.39	51879.14
600.59	52053.22
600.79	51870.95
600.98	51786.99
601.18	52610.27
601.38	52290.79
601.58	52172.00
601.78	52645.08
601.97	52575.45
602.17	52360.42
602.37	52643.04
602.57	52509.92
602.76	52823.26
602.96	52434.14
603.16	52876.51
603.36	52931.80
603.55	52860.12
603.75	53294.29
603.95	52819.16
604.15	52817.11
604.34	52610.27
604.54	53488.85
604.74	53183.70
604.94	53236.95
605.13	53234.90
605.33	53138.65
605.53	52872.41
605.73	53834.95
605.92	53400.79
606.12	53738.70
606.32	53523.66
606.52	53750.99
606.71	53474.51
606.91	54006.98
607.11	53325.01
607.30	53910.73
607.50	53503.18
607.70	53966.02
607.90	53558.48
608.09	53839.05
608.29	53804.24
608.49	54150.34
608.68	53902.54
608.88	53916.87
609.08	54260.93
609.28	54572.22
609.47	53837.00
609.67	54355.14
609.87	54367.43
610.06	54375.62
610.26	54721.72
610.46	54392.00
610.66	54299.84
610.85	54342.85
611.05	53843.15
611.25	54643.90
611.44	54383.81
611.64	54394.05
611.84	54060.23
612.03	54594.75
612.23	54318.28
612.43	54797.50
612.62	54383.81
612.82	54764.73
613.02	54834.36
613.21	54451.39
613.41	54189.25
613.61	55221.43
613.80	54113.48
614.00	54777.02
614.20	54897.85
614.39	54584.51
614.59	54459.58
614.79	54711.49
614.98	54672.57
615.18	54695.10
615.38	54770.88
615.57	54289.60
615.77	54881.47
615.97	54490.30
616.16	54377.67
616.36	54523.07
616.56	54764.73
616.75	54949.05
616.95	54582.46
617.15	54441.15
617.34	54758.59
617.54	54502.59
617.74	54740.16
617.93	54824.12
618.13	54258.88
618.32	54828.22
618.52	54154.44
618.72	54375.62
618.91	54707.39
619.11	54330.56
619.31	54594.75
619.50	54586.56
619.70	54572.22
619.90	54625.47
620.09	54705.34
620.29	54531.26
620.48	54289.60
620.68	55043.26
620.88	54224.07
621.07	55014.58
621.27	54727.87
621.46	54056.14
621.66	54518.98
621.86	54604.99
622.05	54523.07
622.25	54979.77
622.44	54541.50
622.64	54297.80
622.84	54697.15
623.03	54154.44
623.23	54598.85
623.42	54037.70
623.62	54103.24
623.82	54359.23
624.01	54256.84
624.21	54066.38
624.40	54570.18
624.60	54281.41
624.80	54054.09
624.99	54375.62
625.19	53787.85
625.38	54416.58
625.58	54287.56
625.77	54004.94
625.97	54262.98
626.17	54082.76
626.36	53488.85
626.56	53824.71
626.75	53408.98
626.95	54500.54
627.14	54420.67
627.34	54742.20
627.54	53925.07
627.73	53998.79
627.93	53802.19
628.12	53673.16
628.32	54144.20
628.51	54060.23
628.71	54144.20
628.90	53548.24
629.10	53769.42
629.30	53945.54
629.49	53738.70
629.69	53851.34
629.88	54172.87
630.08	54252.74
630.27	54146.25
630.47	54041.80
630.66	53857.48
630.86	54043.85
631.05	53769.42
631.25	54351.04
631.44	53863.63
631.64	53908.68
631.84	54056.14
632.03	54033.61
632.23	53937.35
632.42	53955.78
632.62	53953.74
632.81	53468.37
633.01	54097.09
633.20	54361.28
633.40	54271.17
633.59	53789.90
633.79	53501.14
633.98	53736.65
634.18	53927.11
634.37	54015.18
634.57	54082.76
634.76	54625.47
634.96	53652.69
635.15	54254.79
635.35	53974.22
635.54	53820.62
635.74	54056.14
635.93	54037.70
636.13	54508.74
636.32	54359.23
636.52	53556.43
636.71	53898.44
636.91	54072.52
637.10	54029.51
637.30	54199.49
637.49	53828.81
637.69	54076.61
637.88	54396.10
638.08	53925.07
638.27	54033.61
638.46	53468.37
638.66	53867.72
638.85	54013.13
639.05	53732.56
639.24	54250.69
639.44	53593.29
639.63	53804.24
639.83	54009.03
640.02	54267.08
640.22	54152.39
640.41	54279.36
640.61	53806.28
640.80	54209.73
640.99	54023.37
641.19	54582.46
641.38	53847.24
641.58	54193.35
641.77	54015.18
641.97	54076.61
642.16	53798.09
642.36	54328.52
642.55	54189.25
642.74	53808.33
642.94	54588.61
643.13	54006.98
643.33	54301.89
643.52	54346.95
643.72	54291.65
643.91	54428.87
644.10	54099.14
644.30	54486.21
644.49	54346.95
644.69	54475.97
644.88	54441.15
645.08	53998.79
645.27	54230.21
645.46	54326.47
645.66	54478.02
645.85	54336.71
646.05	54172.87
646.24	54809.79
646.43	54684.86
646.63	54650.05
646.82	54686.91
647.02	54508.74
647.21	54643.90
647.40	54471.87
647.60	54854.84
647.79	54887.61
647.99	54762.68
648.18	54285.51
648.37	54748.35
648.57	55149.75
648.76	54707.39
648.96	54133.96
649.15	54766.78
649.34	55203.00
649.54	54838.46
649.73	54621.37
649.92	54893.75
650.12	55014.58
650.31	55030.97
650.51	55030.97
650.70	55145.65
650.89	54940.86
651.09	54975.67
651.28	54918.33
651.47	54887.61
651.67	54662.33
651.86	55745.71
652.06	54351.04
652.25	55248.05
652.44	55080.12
652.64	54533.31
652.83	54957.24
653.02	54539.46
653.22	55082.17
653.41	55119.03
653.60	54936.76
653.80	54934.71
653.99	55071.93
654.18	54912.19
654.38	54903.99
654.57	55184.57
654.76	55149.75
654.96	55348.40
655.15	55121.08
655.34	55256.24
655.54	54441.15
655.73	54838.46
655.92	55598.26
656.12	55014.58
656.31	55411.89
656.50	55809.20
656.70	55336.12
656.89	55465.14
657.08	55436.47
657.28	55563.44
657.47	55387.31
657.66	55172.28
657.86	55319.73
658.05	55600.30
658.24	55391.41
658.43	55372.98
658.63	55706.80
658.82	55375.03
659.01	55354.55
659.21	55772.33
659.40	55440.56
659.59	55596.21
659.79	55878.83
659.98	55807.15
660.17	55635.12
660.36	55663.79
660.56	56022.19
660.75	55934.12
660.94	55817.39
661.14	55952.55
661.33	55784.62
661.52	55534.77
661.71	56124.58
661.91	55520.43
662.10	55504.05
662.29	55927.98
662.49	55772.33
662.68	55944.36
662.87	55874.73
663.06	55731.37
663.26	55362.74
663.45	56005.80
663.64	56159.40
663.83	56536.23
664.03	55934.12
664.22	55962.79
664.41	56063.14
664.60	56022.19
664.80	55768.24
664.99	56063.14
665.18	56071.34
665.37	56315.04
665.57	55964.84
665.76	55985.32
665.95	56429.73
666.14	56167.59
666.34	55841.96
666.53	56104.10
666.72	55805.10
666.91	55960.75
667.11	55817.39
667.30	56376.48
667.49	55774.38
667.68	56358.05
667.87	55671.98
668.07	56403.11
668.26	56132.78
668.45	56284.33
668.64	55682.22
668.84	56984.73
669.03	56306.85
669.22	56255.65
669.41	56173.73
669.60	56540.32
669.80	56317.09
669.99	56568.99
670.18	56237.22
670.37	56822.94
670.57	56923.29
670.76	56296.61
670.95	56757.41
671.14	56444.07
671.33	56341.67
671.53	56667.30
671.72	56716.45
671.91	56126.63
672.10	56351.91
672.29	56190.12
672.48	56276.13
672.68	56480.93
672.87	56169.64
673.06	56614.05
673.25	56530.08
673.44	56439.97
673.64	56016.04
673.83	56427.68
674.02	55927.98
674.21	56132.78
674.40	56681.63
674.59	56106.15
674.79	56392.87
674.98	55813.29
675.17	56521.89
675.36	55913.64
675.55	56390.82
675.74	56212.65
675.94	56403.11
676.13	56585.38
676.32	56601.76
676.51	56923.29
676.70	56474.79
676.89	56464.55
677.08	56767.65
677.28	56155.30
677.47	56560.80
677.66	56587.42
677.85	56591.52
678.04	56743.07
678.23	56552.61
678.42	56870.04
678.62	56284.33
678.81	56816.80
679.00	56698.01
679.19	57435.28
679.38	56743.07
679.57	56591.52
679.76	56448.16
679.96	56847.52
680.15	56730.78
680.34	56253.61
680.53	56939.68
680.72	56816.80
680.91	56890.52
681.10	56546.47
681.29	56710.30
681.48	56607.90
681.68	56700.06
681.87	56226.98
682.06	56267.94
682.25	56054.95
682.44	56681.63
682.63	56542.37
682.82	55696.56
683.01	56628.38
683.20	55751.85
683.39	56204.45
683.59	56003.75
683.78	56083.62
683.97	55973.03
684.16	56546.47
684.35	55784.62
684.54	56456.35
684.73	56274.09
684.92	55954.60
685.11	55805.10
685.30	55850.16
685.49	56399.01
685.69	56194.21
685.88	56208.55
686.07	55973.03
686.26	56165.54
686.45	56364.20
686.64	56296.61
686.83	55993.51
687.02	56163.50
687.21	56374.44
687.40	56124.58
687.59	56290.47
687.78	56149.16
687.97	56114.34
688.16	55899.31
688.35	56220.84
688.54	55846.06
688.74	56239.27
688.93	55991.47
689.12	56224.93
689.31	56235.17
689.50	56192.17
689.69	55690.41
689.88	55284.92
690.07	56136.87
690.26	55770.28
690.45	55819.44
690.64	56138.92
690.83	55784.62
691.02	55387.31
691.21	55803.05
691.40	55473.33
691.59	55827.63
691.78	55463.09
691.97	55964.84
692.16	55671.98
692.35	55970.99
692.54	55667.89
692.73	55608.50
692.92	55469.23
693.11	55571.63
693.30	55248.05
693.49	55622.83
693.68	55334.07
693.87	55092.41
694.06	55112.89
694.25	55510.19
694.44	54727.87
694.63	55284.92
694.82	55418.03
695.01	55211.19
695.20	55268.53
695.39	55356.60
695.58	54979.77
695.77	54707.39
695.96	55149.75
696.15	55432.37
696.34	55112.89
696.53	54973.63
696.72	54639.81
696.91	54672.57
697.10	54760.64
697.29	55219.38
697.48	55219.38
697.67	55196.85
697.86	54865.08
698.05	54254.79
698.24	54885.56
698.43	54166.73
698.62	54863.03
698.81	54467.78
699.00	54916.28
699.19	54637.76
699.38	54633.66
699.57	54291.65
699.76	54609.09
699.95	54359.23
700.14	54052.04
700.32	54678.72
700.51	54230.21
700.70	54709.44
700.89	54623.42
701.08	54607.04
701.27	54236.36
701.46	54723.77
701.65	53589.20
701.84	54203.59
702.03	54072.52
702.22	54465.73
702.41	53996.74
702.60	54377.67
702.79	54279.36
702.98	53742.80
703.17	54021.32
703.35	53847.24
703.54	53716.17
703.73	54019.27
703.92	53853.39
704.11	53415.12
704.30	53230.80
704.49	53275.86
704.68	53134.55
704.87	53757.13
705.06	53357.78
705.25	53425.36
705.43	53267.67
705.62	53533.90
705.81	53253.33
706.00	53380.31
706.19	52821.21
706.38	52886.74
706.57	53216.47
706.76	53501.14
706.95	53214.42
707.14	52958.42
707.32	53105.88
707.51	52810.97
707.70	53159.12
707.89	52985.05
708.08	52559.07
708.27	52714.72
708.46	53042.39
708.65	52684.00
708.84	52802.78
709.02	52614.37
709.21	52374.75
709.40	52911.32
709.59	52534.49
709.78	52235.49
709.97	52475.10
710.16	52520.16
710.34	52346.08
710.53	52073.70
710.72	52163.81
710.91	52415.71
711.10	51819.75
711.29	52483.30
711.48	52348.13
711.66	52081.89
711.85	51946.73
712.04	51903.72
712.23	51762.41
712.42	51723.50
712.61	51993.83
712.80	51823.85
712.98	51911.91
713.17	51819.75
713.36	52055.27
713.55	51549.42
713.74	51891.43
713.93	51713.26
714.11	51596.52
714.30	51764.46
714.49	51074.29
714.68	51582.19
714.87	51279.09
715.06	51631.34
715.24	51565.81
715.43	51365.10
715.62	50988.28
715.81	51309.81
716.00	51666.16
716.18	51262.71
716.37	50728.19
716.56	50693.37
716.75	51369.20
716.94	50986.23
717.12	50205.95
717.31	50789.62
717.50	50943.22
717.69	50613.50
717.88	50898.17
718.06	50617.60
718.25	50672.89
718.44	50562.30
718.63	50994.42
718.82	50550.01
719.00	50396.42
719.19	50386.18
719.38	49845.51
719.57	49745.16
719.76	49495.31
719.94	49708.30
720.13	49825.03
720.32	49886.47
720.51	49900.81
720.69	49509.64
720.88	49691.91
721.07	49708.30
721.26	49044.76
721.44	49327.38
721.63	49526.03
721.82	49116.43
722.01	48968.98
722.20	49646.86
722.38	48868.63
722.57	48624.92
722.76	49138.96
722.95	49009.94
723.13	48563.48
723.32	48633.11
723.51	48639.26
723.70	48602.39
723.88	48495.90
724.07	48465.18
724.26	48284.96
724.44	47963.43
724.63	48602.39
724.82	48530.72
725.01	48422.17
725.19	48401.69
725.38	48280.86
725.57	48323.87
725.76	48248.10
725.94	47705.38
726.13	47904.04
726.32	47990.05
726.51	48110.88
726.69	48366.88
726.88	48244.00
727.07	47983.91
727.25	47420.72
727.44	47433.00
727.63	48024.87
727.82	47494.44
728.00	47762.73
728.19	47617.32
728.38	47775.02
728.56	47574.31
728.75	47648.04
728.94	47390.00
729.12	47768.87
729.31	47623.47
729.50	47332.65
729.69	47865.13
729.87	47621.42
730.06	47693.10
730.25	47332.65
730.43	47674.66
730.62	47099.19
730.81	47340.85
730.99	47410.48
731.18	47164.72
731.37	47514.92
731.55	47592.75
731.74	47639.85
731.93	47342.89
732.11	47402.28
732.30	47433.00
732.49	46902.58
732.67	46935.35
732.86	47402.28
733.05	47322.41
733.23	47072.56
733.42	47285.55
733.61	46871.86
733.79	47303.98
733.98	47611.18
734.17	46953.78
734.35	47115.57
734.54	46787.89
734.73	47412.52
734.91	47205.68
735.10	47076.66
735.29	47027.51
735.47	46587.19
735.66	47121.71
735.84	46972.21
736.03	46708.02
736.22	47377.71
736.40	46955.83
736.59	46990.64
736.78	46785.85
736.96	46765.37
737.15	46802.23
737.33	46806.33
737.52	46642.49
737.71	46552.38
737.89	46351.68
738.08	46228.80
738.27	46308.67
738.45	46720.31
738.64	46697.78
738.82	46318.91
739.01	46226.75
739.20	46601.53
739.38	46449.98
739.57	46617.91
739.75	46411.07
739.94	46257.47
740.13	46603.58
740.31	46363.96
740.50	46204.22
740.68	46077.25
740.87	46363.96
741.06	46007.62
741.24	46294.33
741.43	45712.71
741.61	46073.15
741.80	45751.62
741.99	45589.83
742.17	45706.57
742.36	45606.22
742.54	46019.91
742.73	45743.43
742.91	46077.25
743.10	45716.81
743.29	46165.31
743.47	46005.57
743.66	45561.16
743.84	45909.32
744.03	45792.58
744.21	45514.06
744.40	46134.59
744.59	45448.52
744.77	45647.18
744.96	45180.24
745.14	45823.30
745.33	45686.09
745.51	45487.43
745.70	45458.76
745.88	45346.12
746.07	45413.71
746.26	44784.98
746.44	45296.97
746.63	45460.81
746.81	45507.91
747.00	45274.45
747.18	45131.09
747.37	45493.58
747.55	45106.51
747.74	45503.82
747.92	45262.16
748.11	45170.00
748.29	45055.31
748.48	45083.98
748.66	44516.70
748.85	45231.44
749.03	45110.61
749.22	44412.25
749.41	44678.49
749.59	44965.20
749.78	44997.97
749.96	44541.27
750.15	44399.96
750.33	44821.84
750.52	44670.29
750.70	44793.17
750.89	44615.00
751.07	44408.15
751.26	44209.50
751.44	44318.04
751.63	44592.47
751.81	44535.13
752.00	44254.56
752.18	44483.93
752.37	44201.31
752.55	44266.84
752.74	43898.21
752.92	44279.13
753.10	43586.92
753.29	44485.98
753.47	44387.67
753.66	43922.79
753.84	43930.98
754.03	44289.37
754.21	43926.88
754.40	44062.05
754.58	44279.13
754.77	44189.02
754.95	43396.46
755.14	43617.64
755.32	43482.47
755.51	43541.86
755.69	43494.76
755.88	43824.48
756.06	43771.24
756.24	43924.83
756.43	43644.26
756.61	43597.16
756.80	43418.99
756.98	43539.82
757.17	43697.51
757.35	43408.75
757.54	43273.58
757.72	43259.24
757.90	43472.23
758.09	43009.39
758.27	43136.37
758.46	43275.63
758.64	43482.47
758.83	43613.54
759.01	43195.76
759.19	43521.38
759.38	43666.79
759.56	43599.21
759.75	43306.35
759.93	43447.66
760.12	42646.90
760.30	43339.11
760.48	43330.92
760.67	42939.76
760.85	42812.79
761.04	42859.89
761.22	43427.18
761.40	42988.91
761.59	42755.44
761.77	42929.52
761.96	42917.23
762.14	42823.03
762.32	42560.89
762.51	42564.98
762.69	42554.74
762.88	42603.89
763.06	42739.06
763.24	42622.33
763.43	42906.99
763.61	42063.23
763.80	42499.45
763.98	42274.17
764.16	42567.03
764.35	43023.73
764.53	42007.94
764.72	42505.59
764.90	42370.43
765.08	42261.88
765.27	42327.42
765.45	41827.71
765.63	41614.72
765.82	42245.50
766.00	42335.61
766.18	42069.37
766.37	42339.71
766.55	41895.30
766.74	42022.27
766.92	42018.17
767.10	41887.10
767.29	41887.10
767.47	41422.22
767.65	42014.08
767.84	41325.96
768.02	41997.70
768.20	41383.30
768.39	41942.40
768.57	41645.44
768.75	41735.56
768.94	41463.18
769.12	41444.74
769.30	41166.22
769.49	41432.46
769.67	41309.58
769.85	40867.22
770.04	41440.65
770.22	40942.99
770.40	41164.17
770.59	40648.08
770.77	41184.65
770.95	41328.01
771.14	41012.62
771.32	40275.35
771.50	40189.34
771.69	40795.54
771.87	41178.51
772.05	40945.04
772.24	40467.86
772.42	40818.07
772.60	40490.39
772.78	40715.67
772.97	40263.07
773.15	40807.83
773.33	40414.62
773.52	40285.59
773.70	40787.35
773.88	40959.38
774.07	40523.16
774.25	40654.23
774.43	41178.51
774.61	40840.59
774.80	40541.59
774.98	40514.97
775.16	40809.87
775.34	40848.78
775.53	40418.71
775.71	40820.11
775.89	40482.20
776.08	40789.39
776.26	40783.25
776.44	41096.59
776.62	40687.00
776.81	40902.03
776.99	41256.33
777.17	40762.77
777.35	40842.64
777.54	41366.92
777.72	40809.87
777.90	40904.08
778.08	41006.48
778.27	41100.68
778.45	41303.43
778.63	41354.63
778.81	40920.46
779.00	41485.70
779.18	41143.69
779.36	41497.99
779.54	41368.97
779.73	40928.66
779.91	41377.16
780.09	41274.76
780.27	41627.01
780.46	41459.08
780.64	42108.29
780.82	41516.42
781.00	41536.90
781.19	41784.71
781.37	41600.39
781.55	41690.50
781.73	41807.23
781.91	41588.10
782.10	41782.66
782.28	42007.94
782.46	42005.89
782.64	41848.19
782.82	41536.90
783.01	42153.34
783.19	42321.27
783.37	42071.42
783.55	41649.54
783.74	41921.92
783.92	42157.44
784.10	42159.48
784.28	42208.64
784.46	41983.36
784.64	41401.74
784.83	42014.08
785.01	42100.09
785.19	41688.45
785.37	42333.56
785.55	41872.77
785.74	41319.82
785.92	41536.90
786.10	41952.64
786.28	41997.70
786.46	41588.10
786.64	41315.72
786.83	41604.49
787.01	41928.06
787.19	41919.87
787.37	41833.86
787.55	41778.56
787.74	41530.76
787.92	41547.14
788.10	41565.57
788.28	41035.15
788.46	41418.12
788.64	41141.64
788.82	41704.84
789.01	41164.17
789.19	41715.08
789.37	41239.95
789.55	41735.56
789.73	40963.47
789.91	40750.48
790.09	41067.92
790.28	40988.05
790.46	40646.04
790.64	40738.19
790.82	40517.01
791.00	40357.27
791.18	40570.26
791.36	40740.24
791.55	40721.81
791.73	40863.12
791.91	40211.87
792.09	40517.01
792.27	40025.50
792.45	40605.08
792.63	40381.85
792.81	39890.34
793.00	39869.86
793.18	39994.78
793.36	39769.51
793.54	39775.65
793.72	39876.00
793.90	39777.70
794.08	39269.80
794.26	39660.96
794.44	39124.40
794.62	39142.83
794.81	39335.34
794.99	39163.31
795.17	39316.90
795.35	39028.14
795.53	39617.96
795.71	39292.33
795.89	38659.51
796.07	39153.07
796.25	38575.54
796.43	38460.85
796.61	38206.90
796.80	38323.64
796.98	38239.67
797.16	38385.08
797.34	38317.50
797.52	37725.63
797.70	38176.19
797.88	37805.50
798.06	37682.62
798.24	38114.75
798.42	37983.68
798.60	37664.19
798.78	37406.15
798.96	37805.50
799.14	37207.50
799.32	37723.58
799.51	37430.72
799.69	37621.19
799.87	37092.81
800.05	36994.51
800.23	37010.89
800.41	36865.49
800.59	36855.25
800.77	36967.88
800.95	36378.07
801.13	36697.55
801.31	36359.64
801.49	37313.99
801.67	36238.81
801.85	36261.33
802.03	36107.74
802.21	36533.71
802.39	35966.43
802.57	36101.59
802.75	36249.05
802.93	35816.93
803.11	35591.65
803.29	35646.94
803.47	35466.72
803.65	35440.10
803.83	35403.24
804.01	35470.82
804.19	35120.62
804.37	34995.69
804.55	35061.22
804.73	35161.58
804.91	34981.35
805.09	34866.67
805.27	35073.51
805.45	34977.26
805.63	35278.31
805.81	34717.17
805.99	34760.17
806.17	34852.33
806.35	34192.89
806.53	34436.59
806.71	34721.26
806.89	34397.68
807.07	34166.26
807.25	34371.06
807.43	34127.35
807.61	34291.19
807.79	33877.50
807.97	34178.55
808.15	33863.16
808.33	33814.01
808.51	33684.99
808.69	33613.31
808.87	33357.32
809.05	33312.26
809.23	33187.33
809.41	33267.20
809.59	33256.96
809.77	33656.32
809.95	33160.71
810.13	33521.15
810.31	33076.74
810.49	32947.72
810.67	32722.44
810.84	32962.06
811.02	32857.61
811.20	32001.56
811.38	32802.32
811.56	32026.14
811.74	32701.96
811.92	32339.47
812.10	32531.98
812.28	32513.55
812.46	32331.28
812.64	32468.50
812.82	31968.79
813.00	32122.39
813.18	32243.22
813.36	31923.74
813.53	31770.14
813.71	32132.63
813.89	31864.35
814.07	32112.15
814.25	32005.66
814.43	31602.21
814.61	31708.70
814.79	31508.00
814.97	31407.65
815.15	31370.79
815.33	31094.31
815.50	31184.42
815.68	31219.24
815.86	31303.20
816.04	31057.45
816.22	31137.32
816.40	31139.36
816.58	31026.73
816.76	30928.42
816.94	30748.20
817.11	30654.00
817.29	30572.08
817.47	30594.61
817.65	30311.99
817.83	30856.75
818.01	30422.58
818.19	30496.30
818.37	30422.58
818.54	30205.49
818.72	30344.75
818.90	30451.25
819.08	30125.62
819.26	30176.82
819.44	29785.66
819.62	29832.76
819.80	30070.33
819.97	30070.33
820.15	30043.70
820.33	29589.05
820.51	29759.03
820.69	29472.32
820.87	29734.46
821.05	29853.24
821.22	29457.98
821.40	29609.53
821.58	29312.58
821.76	29476.41
821.94	29218.37
822.12	28956.23
822.29	29519.42
822.47	29367.87
822.65	29320.77
822.83	29077.06
823.01	28956.23
823.19	28794.44
823.36	28868.17
823.54	28505.68
823.72	28892.74
823.90	28759.63
824.08	28724.81
824.25	28716.62
824.43	28595.79
824.61	28522.06
824.79	28606.03
824.97	28347.98
825.15	28638.80
825.32	28565.07
825.50	27860.57
825.68	28151.38
825.86	28337.74
826.04	28567.12
826.21	28096.08
826.39	27962.97
826.57	28057.17
826.75	27885.14
826.93	27649.63
827.10	27919.96
827.28	28038.74
827.46	27985.49
827.64	27919.96
827.81	27852.38
827.99	27870.81
828.17	27754.07
828.35	27405.92
828.53	27459.16
828.70	27504.22
828.88	27315.81
829.06	27721.30
829.24	27623.00
829.41	27393.63
829.59	27702.87
829.77	27356.77
829.95	27416.16
830.12	26916.45
830.30	27004.52
830.48	27377.25
830.66	27301.47
830.84	27434.59
831.01	27096.67
831.19	26846.82
831.37	26633.83
831.55	26828.39
831.72	26748.52
831.90	26887.78
832.08	27086.43
832.25	26637.93
832.43	26414.70
832.61	26265.20
832.79	26459.76
832.96	26388.08
833.14	26609.26
833.32	26713.70
833.50	26437.23
833.67	26379.89
833.85	26224.24
834.03	26070.64
834.20	26127.99
834.38	26265.20
834.56	26586.73
834.74	26437.23
834.91	26365.55
835.09	25874.04
835.27	26039.92
835.44	25818.74
835.62	25599.61
835.80	25677.43
835.98	25886.32
836.15	25777.78
836.33	25593.47
836.51	25925.24
836.68	25853.56
836.86	25763.45
837.04	25495.16
837.21	25777.78
837.39	25374.33
837.57	25828.98
837.75	25630.33
837.92	25173.63
838.10	25708.15
838.28	25374.33
838.45	25306.75
838.63	25161.34
838.81	25204.35
838.98	25052.80
839.16	25026.18
839.34	25269.89
839.51	25009.79
839.69	24698.50
839.87	24772.23
840.04	24940.16
840.22	25118.34
840.40	24923.78
840.57	24614.54
840.75	25063.04
840.93	24628.87
841.10	24686.22
841.28	25106.05
841.46	24710.79
841.63	24645.26
841.81	24749.70
841.98	24405.64
842.16	24557.19
842.34	24731.27
842.51	24454.79
842.69	24749.70
842.87	24262.29
843.04	24440.46
843.22	24409.74
843.40	24389.26
843.57	24202.89
843.75	24487.56
843.92	24475.27
844.10	24280.72
844.28	24323.72
844.45	24178.32
844.63	24303.25
844.81	23979.67
844.98	23918.23
845.16	24092.30
845.33	24194.70
845.51	23936.66
845.69	23678.61
845.86	23856.79
846.04	23506.59
846.21	23602.84
846.39	23899.80
846.57	23729.81
846.74	23852.69
846.92	23512.73
847.09	23541.40
847.27	23406.23
847.45	23371.42
847.62	23721.62
847.80	23486.11
847.97	23346.84
848.15	23244.45
848.32	23406.23
848.50	23604.89
848.68	23445.15
848.85	23180.96
849.03	22793.89
849.20	23013.02
849.38	23230.11
849.56	23144.09
849.73	22879.91
849.91	23197.34
850.08	23135.90
850.26	22920.87
850.43	23101.09
850.61	22898.34
850.78	22509.22
850.96	22603.43
851.14	22353.58
851.31	22855.33
851.49	22765.22
851.66	22947.49
851.84	22470.31
852.01	22638.25
852.19	22515.37
852.36	22556.33
852.54	22783.65
852.71	22617.77
852.89	22306.48
853.07	22539.94
853.24	22503.08
853.42	22515.37
853.59	22533.80
853.77	22498.98
853.94	22460.07
854.12	22431.40
854.29	22273.71
854.47	22091.44
854.64	22535.85
854.82	22347.44
854.99	22382.25
855.17	22197.93
855.34	22167.21
855.52	22034.10
855.69	22290.09
855.87	21995.18
856.04	21800.63
856.22	21853.87
856.39	21542.58
856.57	22042.29
856.74	21651.13
856.92	21962.42
857.09	21487.29
857.27	21479.10
857.44	21923.51
857.62	21825.20
857.79	21614.26
857.97	21640.89
858.14	21745.33
858.32	21567.16
858.49	21528.25
858.67	21411.51
858.84	21368.51
859.02	21286.59
859.19	21194.43
859.37	21163.71
859.54	21184.19
859.72	21413.56
859.89	21145.28
860.06	21515.96
860.24	21044.93
860.41	21436.09
860.59	20899.52
860.76	21364.41
860.94	20801.22
861.11	21184.19
861.29	21208.76
861.46	21108.41
861.64	20707.01
861.81	20852.42
861.98	21012.16
862.16	20840.13
862.33	20455.11
862.51	20627.14
862.68	20508.36
862.86	20621.00
863.03	20471.50
863.21	20821.70
863.38	20491.98
863.55	20541.13
863.73	20659.91
863.90	20252.36
864.08	20381.38
864.25	20711.11
864.43	20391.62
864.60	20553.41
864.77	20291.27
864.95	20365.00
865.12	20272.84
865.30	20389.58
865.47	20180.68
865.64	20410.06
865.82	20358.86
865.99	20414.15
866.17	20129.48
866.34	20293.32
866.51	19879.63
866.69	20084.43
866.86	19963.60
867.04	20244.17
867.21	19900.11
867.38	19865.30
867.56	19963.60
867.73	19357.40
867.91	19754.71
868.08	19703.51
868.25	19590.87
868.43	19648.21
868.60	19324.63
868.78	19617.49
868.95	19617.49
869.12	19521.24
869.30	19465.94
869.47	19588.82
869.64	19197.66
869.82	19369.69
869.99	19304.15
870.16	19578.58
870.34	19361.50
870.51	19582.68
870.69	19046.11
870.86	19500.76
871.03	19545.81
871.21	19177.18
871.38	19365.59
871.55	19050.21
871.73	19046.11
871.90	18931.42
872.07	18763.49
872.25	18968.29
872.42	18804.45
872.59	18851.55
872.77	19058.40
872.94	18820.83
873.11	18855.65
873.29	18810.59
873.46	18501.35
873.63	18732.77
873.81	18657.00
873.98	18364.14
874.15	18697.95
874.33	18542.31
874.50	18288.36
874.67	18339.56
874.85	18212.59
875.02	18001.65
875.19	18386.66
875.37	18169.58
875.54	17964.78
875.71	18298.60
875.88	18122.48
876.06	18286.31
876.23	17950.45
876.40	17993.45
876.58	18190.06
876.75	18048.75
876.92	17503.99
877.10	17921.77
877.27	17850.10
877.44	17780.46
877.61	17563.38
877.79	17792.75
877.96	17680.11
878.13	17716.98
878.31	17563.38
878.48	17635.06
878.65	17663.73
878.82	17436.41
879.00	17178.36
879.17	17180.41
879.34	17186.55
879.51	17495.80
879.69	17311.48
879.86	17051.39
880.03	17250.04
880.21	17223.42
880.38	17067.77
880.55	17372.92
880.72	17121.02
880.90	17102.59
881.07	17125.11
881.24	17055.48
881.41	17258.23
881.59	16955.13
881.76	16887.55
881.93	16914.17
882.10	16801.54
882.28	16912.13
882.45	16893.69
882.62	16881.41
882.79	16742.14
882.96	16559.88
883.14	16969.47
883.31	17114.87
883.48	16781.06
883.65	16830.21
883.83	16883.45
884.00	16830.21
884.17	16654.08
884.34	16674.56
884.51	16568.07
884.69	16688.90
884.86	16400.13
885.03	16543.49
885.20	16504.58
885.38	16568.07
885.55	16252.68
885.72	16387.85
885.89	16353.03
886.06	16221.96
886.24	16293.64
886.41	16305.93
886.58	16572.16
886.75	16555.78
886.92	16365.32
887.10	16445.19
887.27	16195.34
887.44	16318.22
887.61	16430.85
887.78	16289.54
887.95	16434.95
888.13	16082.70
888.30	16328.45
888.47	16140.04
888.64	16320.26
888.81	16119.56
888.99	16160.52
889.16	15765.26
889.33	15894.29
889.50	15742.74
889.67	16066.31
889.84	15836.94
890.01	15849.23
890.19	15925.00
890.36	15705.87
890.53	15712.02
890.70	15453.97
890.87	15660.82
891.04	15564.56
891.22	15935.24
891.39	15576.85
891.56	15628.05
891.73	15525.65
891.90	15417.11
892.07	15429.40
892.24	15701.78
892.42	15574.80
892.59	15564.56
892.76	15513.36
892.93	15281.94
893.10	15542.03
893.27	15386.39
893.44	15392.53
893.61	15486.74
893.79	15709.97
893.96	15277.85
894.13	15413.01
894.30	15527.70
894.47	15273.75
894.64	15447.83
894.81	15429.40
894.98	15329.05
895.15	15265.56
895.33	15152.92
895.50	15238.94
895.67	15503.12
895.84	15300.37
896.01	15314.71
896.18	15116.06
896.35	15247.13
896.52	15114.01
896.69	15003.42
896.86	15075.10
897.04	15154.97
897.21	15343.38
897.38	15146.78
897.55	15353.62
897.72	15193.88
897.89	15107.87
898.06	15361.81
898.23	15120.15
898.40	15120.15
898.57	15302.42
898.74	15331.09
898.91	15064.86
899.08	15294.23
899.26	15197.98
899.43	15478.55
899.60	15232.79
899.77	15292.18
899.94	15128.35
900.11	15120.15
900.28	15185.69
900.45	15085.34
900.62	14882.59
900.79	15365.91
900.96	15265.56
901.13	15206.17
901.30	14968.60
901.47	14845.73
901.64	15273.75
901.81	15062.81
901.98	14995.23
902.15	15355.67
902.32	14839.58
902.49	15003.42
902.66	15290.13
902.83	15234.84
903.01	15066.91
903.18	14968.60
903.35	15251.22
903.52	15114.01
903.69	15218.46
903.86	15103.77
904.03	14944.03
904.20	15161.11
904.37	15152.92
904.54	15189.78
904.71	15099.67
904.88	15138.58
905.05	14827.29
905.22	14823.20
905.39	15040.28
905.56	15181.59
905.73	14989.08
905.90	14966.56
906.07	15122.20
906.24	15013.66
906.41	14884.64
906.58	15154.97
906.75	14952.22
906.92	14939.93
907.09	14886.68
907.26	15068.95
907.43	14720.80
907.60	15171.35
907.77	15124.25
907.93	14927.64
908.10	15019.80
908.27	14997.28
908.44	14591.78
908.61	14683.94
908.78	14886.68
908.95	15109.91
909.12	14925.60
909.29	14982.94
909.46	14958.36
909.63	15075.10
909.80	15095.58
909.97	14884.64
910.14	14884.64
910.31	14923.55
910.48	14763.81
910.65	14800.67
910.82	14759.71
910.99	14946.08
911.16	14774.05
911.33	14999.32
911.50	14765.85
911.66	14626.59
911.83	14769.95
912.00	14618.40
912.17	14804.77
912.34	14487.33
912.51	14653.22
912.68	14542.63
912.85	14669.60
913.02	14475.04
913.19	14522.15
913.36	14499.62
913.53	14395.17
913.70	14155.56
913.86	14581.54
914.03	14335.78
914.20	14413.60
914.37	14464.80
914.54	14536.48
914.71	14397.22
914.88	14411.56
915.05	14284.58
915.22	14178.09
915.39	14233.38
915.55	14255.91
915.72	14186.28
915.89	14143.27
916.06	14034.73
916.23	13920.04
916.40	14077.74
916.57	13942.57
916.74	13897.52
916.91	13887.28
917.07	13629.23
917.24	13954.86
917.41	13793.07
917.58	14036.78
917.75	13801.26
917.92	13530.93
918.09	13719.34
918.26	13696.82
918.42	13827.88
918.59	13375.28
918.76	13477.68
918.93	13311.80
919.10	13387.57
919.27	13469.49
919.44	13377.33
919.60	13258.55
919.77	13457.20
919.94	13301.56
920.11	13236.02
920.28	13233.97
920.45	13182.77
920.61	13078.33
920.78	13193.01
920.95	12949.31
921.12	13029.18
921.29	12832.57
921.46	12963.64
921.62	12705.60
921.79	12689.21
921.96	12955.45
922.13	12769.09
922.30	12660.54
922.47	12920.63
922.63	12541.76
922.80	12709.69
922.97	12541.76
923.14	12275.52
923.31	12629.82
923.47	12392.26
923.64	12572.48
923.81	12226.37
923.98	12154.69
924.15	12326.72
924.32	12365.64
924.48	12367.68
924.65	12218.18
924.82	12130.12
924.99	11956.04
925.15	11743.05
925.32	12035.91
925.49	11796.30
925.66	11882.31
925.83	11906.89
925.99	11876.17
926.16	11827.02
926.33	11800.40
926.50	11618.13
926.67	11974.47
926.83	11575.12
927.00	11702.09
927.17	11480.91
927.34	11261.78
927.50	11431.76
927.67	11468.62
927.84	11503.44
928.01	11241.30
928.17	11302.74
928.34	11124.57
928.51	11325.27
928.68	10968.92
928.84	11145.05
929.01	10798.94
929.18	10823.51
929.35	10884.95
929.51	10866.52
929.68	10524.51
929.85	10809.18
930.02	10823.51
930.18	10827.61
930.35	10633.05
930.52	10571.61
930.69	10628.96
930.85	10530.66
931.02	10547.04
931.19	10536.80
931.36	10434.40
931.52	10473.31
931.69	10493.79
931.86	10237.80
932.02	10258.28
932.19	10264.42
932.36	10026.86
932.53	10243.94
932.69	9981.80
932.86	9922.41
933.03	10065.77
933.19	9848.68
933.36	9856.87
933.53	9777.00
933.70	9756.52
933.86	9721.71
934.03	9774.95
934.20	9734.00
934.36	9742.19
934.53	9322.35
934.70	9271.15
934.86	9422.70
935.03	9219.96
935.20	9289.59
935.36	9156.47
935.53	8902.52
935.70	9006.97
935.86	9146.23
936.03	8830.84
936.20	8691.58
936.36	8681.34
936.53	8664.96
936.70	8636.28
936.86	8775.55
937.03	8546.17
937.20	8378.24
937.36	8425.34
937.53	8204.16
937.70	8232.83
937.86	8001.41
938.03	8134.53
938.20	7968.65
938.36	7835.53
938.53	7663.50
938.70	7604.11
938.86	7669.64
939.03	7532.43
939.20	7597.96
939.36	7372.69
939.53	7325.58
939.70	7339.92
939.86	7016.34
940.03	7030.68
940.19	6846.36
940.36	6913.94
940.53	6926.23
940.69	6703.00
940.86	6582.17
941.03	6684.57
941.19	6504.35
941.36	6557.60
941.52	6385.57
941.69	6301.60
941.86	6199.20
942.02	6283.17
942.19	6262.69
942.35	6135.71
942.52	5982.12
942.69	6061.99
942.85	5894.05
943.02	6047.65
943.18	5943.21
943.35	5869.48
943.52	5824.42
943.68	5840.81
943.85	5705.64
944.01	5648.30
944.18	5636.01
944.35	5738.41
944.51	5734.31
944.68	5560.24
944.84	5623.72
945.01	5623.72
945.17	5558.19
945.34	5601.19
945.51	5529.52
945.67	5445.55
945.84	5414.83
946.00	5300.14
946.17	5513.13
946.33	5492.65
946.50	5400.49
946.67	5365.68
946.83	5330.86
947.00	5398.45
947.16	5463.98
947.33	5386.16
947.49	5380.01
947.66	5316.53
947.82	5320.62
947.99	5365.68
948.16	5314.48
948.32	5308.34
948.49	5363.63
948.65	5463.98
948.82	5304.24
948.98	5435.31
949.15	5373.87
949.31	5453.74
949.48	5396.40
949.64	5398.45
949.81	5351.34
949.97	5371.82
950.14	5461.93
950.30	5248.94
950.47	5484.46
950.63	5322.67
950.80	5351.34
950.96	5238.70
951.13	5427.12
951.30	5445.55
951.46	5435.31
951.63	5476.27
951.79	5541.80
951.96	5515.18
952.12	5275.57
952.29	5535.66
952.45	5363.63
952.62	5506.99
952.78	5470.12
952.94	5484.46
953.11	5369.77
953.27	5404.59
953.44	5597.10
953.60	5519.28
953.77	5521.32
953.93	5396.40
954.10	5543.85
954.26	5468.08
954.43	5400.49
954.59	5633.96
954.76	5558.19
954.92	5412.78
955.09	5556.14
955.25	5474.22
955.42	5459.88
955.58	5767.08
955.75	5492.65
955.91	5570.48
956.07	5531.56
956.24	5480.36
956.40	5590.95
956.57	5623.72
956.73	5584.81
956.90	5580.71
957.06	5433.26
957.23	5525.42
957.39	5457.84
957.56	5550.00
957.72	5472.17
957.88	5550.00
958.05	5687.21
958.21	5734.31
958.38	5468.08
958.54	5414.83
958.71	5636.01
958.87	5629.87
959.03	5531.56
959.20	5511.08
959.36	5408.69
959.53	5457.84
959.69	5511.08
959.85	5670.83
960.02	5550.00
960.18	5697.45
960.35	5566.38
960.51	5593.00
960.68	5496.75
960.84	5558.19
961.00	5558.19
961.17	5480.36
961.33	5572.52
961.50	5550.00
961.66	5461.93
961.82	5582.76
961.99	5650.35
962.15	5523.37
962.31	5425.07
962.48	5455.79
962.64	5517.23
962.81	5572.52
962.97	5515.18
963.13	5552.04
963.30	5396.40
963.46	5486.51
963.62	5476.27
963.79	5324.72
963.95	5482.41
964.12	5289.90
964.28	5431.21
964.44	5441.45
964.61	5406.64
964.77	5484.46
964.93	5582.76
965.10	5459.88
965.26	5371.82
965.42	5437.36
965.59	5398.45
965.75	5412.78
965.92	5554.09
966.08	5449.64
966.24	5308.34
966.41	5191.60
966.57	5375.92
966.73	5377.97
966.90	5445.55
967.06	5291.95
967.22	5255.09
967.39	5250.99
967.55	5250.99
967.71	5306.29
967.88	5322.67
968.04	5244.85
968.20	5201.84
968.37	5236.66
968.53	5341.10
968.69	5267.38
968.85	5384.11
969.02	5277.62
969.18	5236.66
969.34	5246.90
969.51	5226.42
969.67	5242.80
969.83	5148.59
970.00	5273.52
970.16	5312.43
970.32	5140.40
970.48	5314.48
970.65	5130.16
970.81	5150.64
970.97	5140.40
971.14	5068.72
971.30	5160.88
971.46	5017.52
971.63	5066.67
971.79	5160.88
971.95	5095.35
972.11	4798.39
972.28	5130.16
972.44	5038.00
972.60	5046.20
972.76	5101.49
972.93	4904.89
973.09	5040.05
973.25	5009.33
973.42	5058.48
973.58	5107.63
973.74	4941.75
973.90	4943.80
974.07	4943.80
974.23	4990.90
974.39	4966.32
974.55	4782.01
974.72	4779.96
974.88	4759.48
975.04	4908.98
975.20	4890.55
975.37	4933.56
975.53	4749.24
975.69	4820.92
975.85	4786.10
976.01	4800.44
976.18	4800.44
976.34	4691.90
976.50	4820.92
976.66	4890.55
976.83	4808.63
976.99	4702.14
977.15	4788.15
977.31	4644.79
977.47	4706.23
977.64	4677.56
977.80	4556.73
977.96	4718.52
978.12	4775.86
978.29	4579.26
978.45	4550.59
978.61	4585.40
978.77	4665.27
978.93	4642.75
979.10	4652.98
979.26	4698.04
979.42	4505.53
979.58	4437.95
979.74	4530.11
979.91	4507.58
980.07	4566.97
980.23	4415.42
980.39	4370.37
980.55	4540.35
980.71	4442.04
980.88	4349.89
981.04	4419.52
981.20	4349.89
981.36	4587.45
981.52	4421.56
981.68	4362.17
981.85	4415.42
982.01	4409.28
982.17	4423.61
982.33	4302.78
982.49	4517.82
982.65	4300.73
982.82	4366.27
982.98	4255.68
983.14	4243.39
983.30	4462.52
983.46	4450.24
983.62	4384.70
983.79	4304.83
983.95	4292.54
984.11	4143.04
984.27	4378.56
984.43	4329.41
984.59	4247.49
984.75	4272.06
984.91	4214.72
985.08	4286.40
985.24	4188.10
985.40	4171.71
985.56	4177.86
985.72	4095.94
985.88	4319.17
986.04	4067.27
986.20	3993.54
986.37	4247.49
986.53	3997.64
986.69	4159.42
986.85	4001.73
987.01	4147.14
987.17	4124.61
987.33	3983.30
987.49	4040.64
987.65	4065.22
987.82	3952.58
987.98	3821.51
988.14	4067.27
988.30	3925.96
988.46	3973.06
988.62	3921.86
988.78	3913.67
988.94	4149.18
989.10	3917.76
989.26	3876.80
989.42	3923.91
989.59	3809.22
989.75	3821.51
989.91	3940.29
990.07	3706.82
990.23	3762.12
990.39	3803.08
990.55	3753.93
990.71	3749.83
990.87	3928.00
991.03	3985.35
991.19	3676.10
991.35	3723.21
991.51	3854.28
991.67	3907.52
991.83	3686.34
992.00	3866.56
992.16	3725.26
992.32	3749.83
992.48	3766.21
992.64	3620.81
992.80	3649.48
992.96	3667.91
993.12	3743.69
993.28	3737.54
993.44	3749.83
993.60	3725.26
993.76	3616.71
993.92	3624.90
994.08	3772.36
994.24	3653.58
994.40	3567.56
994.56	3629.00
994.72	3618.76
994.88	3594.19
995.04	3520.46
995.20	3493.83
995.36	3534.79
995.52	3542.99
995.68	3598.28
995.84	3440.59
996.00	3600.33
996.16	3309.52
996.32	3418.06
996.48	3446.73
996.64	3624.90
996.80	3407.82
996.96	3571.66
997.12	3481.55
997.28	3387.34
997.44	3377.10
997.60	3512.27
997.76	3387.34
997.92	3459.02
998.08	3393.48
998.24	3319.76
998.40	3366.86
998.56	3387.34
998.72	3330.00
998.88	3440.59
999.04	3309.52
999.20	3471.31
999.36	3311.57
999.52	3364.81
999.68	3334.09
999.84	3336.14
1000.00	3297.23
1000.16	3305.42
1000.32	3184.59
1000.48	3332.05
1000.64	3190.74
1000.80	3227.60
1000.95	3155.92
1001.11	3209.17
1001.27	3059.67
1001.43	3229.65
1001.59	3200.98
1001.75	3039.19
1001.91	3145.68
1002.07	3233.74
1002.23	3131.34
1002.39	3022.80
1002.55	3172.30
1002.71	3139.54
1002.87	3076.05
1003.03	3061.71
1003.19	3033.04
1003.34	3100.62
1003.50	3080.14
1003.66	3123.15
1003.82	3262.41
1003.98	3076.05
1004.14	3106.77
1004.30	2987.99
1004.46	2971.60
1004.62	3037.14
1004.78	3002.32
1004.94	3088.34
1005.09	3057.62
1005.25	2996.18
1005.41	3022.80
1005.57	3076.05
1005.73	2967.51
1005.89	2822.10
1006.05	3055.57
1006.21	2953.17
1006.37	2861.01
1006.52	2957.27
1006.68	2936.79
1006.84	2959.31
1007.00	2830.29
1007.16	2996.18
1007.32	2842.58
1007.48	3033.04
1007.64	2904.02
1007.79	2877.40
1007.95	2844.63
1008.11	2891.73
1008.27	2928.60
1008.43	2901.97
1008.59	2951.12
1008.75	2885.59
1008.91	2934.74
1009.06	2795.48
1009.22	2899.92
1009.38	2914.26
1009.54	2799.57
1009.70	2703.32
1009.86	2766.81
1010.01	2871.25
1010.17	2709.46
1010.33	2764.76
1010.49	2742.23
1010.65	2805.72
1010.81	2701.27
1010.96	2752.47
1011.12	2803.67
1011.28	2695.13
1011.44	2715.61
1011.60	2627.54
1011.76	2637.78
1011.91	2752.47
1012.07	2537.43
1012.23	2611.16
1012.39	2588.63
1012.55	2756.57
1012.71	2652.12
1012.86	2643.93
1013.02	2641.88
1013.18	2602.97
1013.34	2691.03
1013.50	2635.74
1013.65	2633.69
1013.81	2555.86
1013.97	2578.39
1014.13	2621.40
1014.29	2588.63
1014.44	2713.56
1014.60	2588.63
1014.76	2598.87
1014.92	2590.68
1015.07	2598.87
1015.23	2566.10
1015.39	2486.23
1015.55	2498.52
1015.71	2547.67
1015.86	2525.15
1016.02	2521.05
1016.18	2432.99
1016.34	2494.43
1016.49	2633.69
1016.65	2500.57
1016.81	2447.32
1016.97	2568.15
1017.12	2473.95
1017.28	2367.45
1017.44	2453.47
1017.60	2394.08
1017.75	2527.19
1017.91	2463.71
1018.07	2420.70
1018.23	2504.67
1018.38	2379.74
1018.54	2430.94
1018.70	2525.15
1018.86	2346.97
1019.01	2430.94
1019.17	2445.27
1019.33	2551.77
1019.49	2521.05
1019.64	2422.75
1019.80	2346.97
1019.96	2428.89
1020.12	2394.08
1020.27	2396.12
1020.43	2369.50
1020.59	2441.18
1020.74	2516.95
1020.90	2504.67
1021.06	2265.05
1021.22	2537.43
1021.37	2320.35
1021.53	2301.92
1021.69	2346.97
1021.84	2281.44
1022.00	2273.25
1022.16	2222.05
1022.31	2349.02
1022.47	2363.36
1022.63	2301.92
1022.79	2234.33
1022.94	2275.29
1023.10	2357.21
1023.26	2248.67
1023.41	2191.33
1023.57	2308.06
1023.73	2398.17
1023.88	2301.92
1024.04	2232.29
1024.20	2242.53
1024.35	2308.06
1024.51	2195.42
1024.67	2220.00
1024.82	2328.54
1024.98	2217.95
1025.14	2211.81
1025.29	2254.81
1025.45	2338.78
1025.61	2166.75
1025.76	2215.90
1025.92	2179.04
1026.08	2142.18
1026.23	2176.99
1026.39	2183.13
1026.55	2209.76
1026.70	2111.46
1026.86	2203.61
1027.02	2246.62
1027.17	2172.89
1027.33	2109.41
1027.48	2142.18
1027.64	2025.44
1027.80	2054.11
1027.95	2172.89
1028.11	2062.30
1028.27	2162.66
1028.42	2160.61
1028.58	2146.27
1028.73	2101.22
1028.89	1992.67
1029.05	2211.81
1029.20	2172.89
>>>>>End Processed Spectral Data<<<<<
