SpectraSuite Data File
++++++++++++++++++++++++++++++++++++
Date: Fri Jun 02 14:49:25 CEST 2017
User: INFO_000
Dark Spectrum Present: No
Reference Spectrum Present: No
Number of Sampled Component Spectra: 1
Spectrometers: USB4H00879
Integration Time (usec): 80000 (USB4H00879)
Spectra Averaged: 1 (USB4H00879)
Boxcar Smoothing: 0 (USB4H00879)
Correct for Electrical Dark: No (USB4H00879)
Strobe/Lamp Enabled: No (USB4H00879)
Correct for Detector Non-linearity: No (USB4H00879)
Correct for Stray Light: No (USB4H00879)
Number of Pixels in Processed Spectrum: 3648
>>>>>Begin Processed Spectral Data<<<<<
345.13	1327.08
345.34	1327.08
345.56	1327.08
345.78	1255.40
345.99	1308.65
346.21	1806.31
346.42	1726.44
346.64	1642.47
346.86	1839.08
347.07	1677.29
347.29	1701.86
347.50	1628.14
347.72	1644.52
347.94	1712.10
348.15	1593.32
348.37	1642.47
348.59	1732.58
348.80	1730.53
349.02	1802.21
349.23	1855.46
349.45	1933.28
349.67	1871.84
349.88	1849.32
350.10	2011.11
350.31	1894.37
350.53	1830.88
350.75	2000.87
350.96	1802.21
351.18	1871.84
351.39	1896.42
351.61	1697.77
351.82	1929.19
352.04	1877.99
352.26	1888.23
352.47	1916.90
352.69	1849.32
352.90	1710.05
353.12	1832.93
353.34	1787.88
353.55	1828.84
353.77	1816.55
353.98	1830.88
354.20	1863.65
354.41	1880.04
354.63	1886.18
354.85	1945.57
355.06	1964.00
355.28	1746.92
355.49	1857.51
355.71	1875.94
355.92	1822.69
356.14	1925.09
356.35	1785.83
356.57	1884.13
356.79	1900.52
357.00	1853.41
357.22	1935.33
357.43	1886.18
357.65	1943.52
357.86	1896.42
358.08	1884.13
358.29	1904.61
358.51	2041.82
358.72	2000.87
358.94	1925.09
359.16	1945.57
359.37	1925.09
359.59	1855.46
359.80	1941.47
360.02	2021.35
360.23	2023.39
360.45	1996.77
360.66	1920.99
360.88	1824.74
361.09	1949.67
361.31	1978.34
361.52	1939.43
361.74	2078.69
361.95	2064.35
362.17	2041.82
362.38	2097.12
362.60	2000.87
362.81	1990.63
363.03	1912.80
363.24	1988.58
363.46	2041.82
363.67	1982.43
363.89	1964.00
364.10	2021.35
364.32	1953.76
364.53	2027.49
364.75	1880.04
364.96	2078.69
365.18	2029.54
365.39	1978.34
365.61	1923.04
365.82	2168.80
366.04	2062.30
366.25	1941.47
366.47	2002.91
366.68	2064.35
366.90	2082.78
367.11	2070.50
367.33	2121.70
367.54	2099.17
367.76	2060.26
367.97	2127.84
368.19	2052.06
368.40	2097.12
368.62	2004.96
368.83	2023.39
369.05	2117.60
369.26	1974.24
369.48	1912.80
369.69	2013.15
369.91	2109.41
370.12	2052.06
370.33	2119.65
370.55	1966.05
370.76	1992.67
370.98	2111.46
371.19	1998.82
371.41	2000.87
371.62	2011.11
371.84	2002.91
372.05	2242.53
372.27	2082.78
372.48	2117.60
372.69	2109.41
372.91	2160.61
373.12	2066.40
373.34	2076.64
373.55	2166.75
373.77	2111.46
373.98	2009.06
374.20	2189.28
374.41	2222.05
374.62	2162.66
374.84	2154.46
375.05	2222.05
375.27	2131.94
375.48	2236.38
375.70	2191.33
375.91	2187.23
376.12	2293.72
376.34	2166.75
376.55	2166.75
376.77	2168.80
376.98	2174.94
377.19	2115.55
377.41	2154.46
377.62	2189.28
377.84	2330.59
378.05	2387.93
378.27	2224.09
378.48	2269.15
378.69	2361.31
378.91	2312.16
379.12	2154.46
379.34	2256.86
379.55	2297.82
379.76	2260.96
379.98	2211.81
380.19	2273.25
380.41	2303.96
380.62	2314.20
380.83	2213.85
381.05	2199.52
381.26	2369.50
381.47	2295.77
381.69	2306.01
381.90	2410.46
382.12	2320.35
382.33	2265.05
382.54	2197.47
382.76	2275.29
382.97	2330.59
383.19	2154.46
383.40	2334.68
383.61	2256.86
383.83	2260.96
384.04	2277.34
384.25	2353.12
384.47	2310.11
384.68	2392.03
384.89	2273.25
385.11	2404.32
385.32	2301.92
385.54	2369.50
385.75	2351.07
385.96	2383.84
386.18	2387.93
386.39	2342.88
386.60	2377.69
386.82	2367.45
387.03	2363.36
387.24	2406.36
387.46	2367.45
387.67	2453.47
387.88	2512.86
388.10	2437.08
388.31	2465.75
388.52	2512.86
388.74	2437.08
388.95	2512.86
389.16	2510.81
389.38	2461.66
389.59	2600.92
389.80	2637.78
390.02	2510.81
390.23	2617.30
390.44	2539.48
390.66	2592.73
390.87	2551.77
391.08	2537.43
391.30	2625.50
391.51	2613.21
391.72	2705.37
391.94	2596.82
392.15	2543.58
392.36	2682.84
392.58	2529.24
392.79	2576.34
393.00	2617.30
393.22	2740.18
393.43	2734.04
393.64	2852.82
393.85	2729.94
394.07	2605.02
394.28	2715.61
394.49	2740.18
394.71	2754.52
394.92	2809.81
395.13	2666.46
395.35	2742.23
395.56	2797.53
395.77	2754.52
395.98	2781.14
396.20	2869.20
396.41	2795.48
396.62	2811.86
396.84	2936.79
397.05	2858.96
397.26	2760.66
397.47	3061.71
397.69	2772.95
397.90	3024.85
398.11	2947.03
398.32	2910.16
398.54	2871.25
398.75	2869.20
398.96	2959.31
399.18	3037.14
399.39	2981.84
399.60	3092.43
399.81	2897.88
400.03	2936.79
400.24	3362.76
400.45	2994.13
400.66	3078.10
400.88	3002.32
401.09	3299.28
401.30	3100.62
401.51	3114.96
401.73	3051.47
401.94	3117.01
402.15	3090.38
402.36	3102.67
402.58	3104.72
402.79	3170.26
403.00	3147.73
403.21	3125.20
403.43	3190.74
403.64	3264.46
403.85	3037.14
404.06	3301.33
404.27	3100.62
404.49	3174.35
404.70	3190.74
404.91	3319.76
405.12	3291.09
405.34	3213.26
405.55	3237.84
405.76	3094.48
405.97	3203.02
406.19	3444.68
406.40	3194.83
406.61	3250.13
406.82	3309.52
407.03	3289.04
407.25	3241.93
407.46	3344.33
407.67	3383.24
407.88	3403.72
408.09	3370.96
408.31	3268.56
408.52	3360.72
408.73	3397.58
408.94	3364.81
409.15	3297.23
409.37	3502.03
409.58	3510.22
409.79	3422.16
410.00	3448.78
410.21	3405.77
410.43	3389.39
410.64	3373.00
410.85	3424.20
411.06	3534.79
411.27	3518.41
411.48	3626.95
411.70	3469.26
411.91	3645.38
412.12	3567.56
412.33	3520.46
412.54	3448.78
412.76	3553.23
412.97	3581.90
413.18	3530.70
413.39	3567.56
413.60	3569.61
413.81	3721.16
414.03	3618.76
414.24	3631.05
414.45	3766.21
414.66	3502.03
414.87	3737.54
415.08	3674.06
415.30	3682.25
415.51	3743.69
415.72	3583.95
415.93	3739.59
416.14	3798.98
416.35	3809.22
416.56	3813.32
416.78	3665.86
416.99	3880.90
417.20	3809.22
417.41	3958.72
417.62	3923.91
417.83	3887.04
418.04	3839.94
418.26	3887.04
418.47	3899.33
418.68	4032.45
418.89	3960.77
419.10	4046.79
419.31	3993.54
419.52	4097.99
419.73	4024.26
419.95	4065.22
420.16	3928.00
420.37	4050.88
420.58	4147.14
420.79	3987.40
421.00	4040.64
421.21	4171.71
421.42	4083.65
421.63	4118.47
421.85	4095.94
422.06	4110.27
422.27	4214.72
422.48	4165.57
422.69	4163.52
422.90	4286.40
423.11	4302.78
423.32	4231.10
423.53	4405.18
423.75	4337.60
423.96	4399.04
424.17	4276.16
424.38	4493.24
424.59	4429.76
424.80	4511.68
425.01	4278.21
425.22	4442.04
425.43	4417.47
425.64	4489.15
425.85	4665.27
426.06	4630.46
426.28	4452.28
426.49	4483.00
426.70	4452.28
426.91	4601.79
427.12	4655.03
427.33	4526.01
427.54	4491.20
427.75	4677.56
427.96	4771.77
428.17	4751.29
428.38	4876.21
428.59	4816.82
428.80	4714.42
429.01	4923.32
429.23	4786.10
429.44	5003.19
429.65	4857.78
429.86	4974.52
430.07	4753.34
430.28	4806.58
430.49	4995.00
430.70	5097.39
430.91	5160.88
431.12	4974.52
431.33	5074.87
431.54	5205.94
431.75	4988.85
431.96	5074.87
432.17	5064.63
432.38	5128.11
432.59	5244.85
432.80	5185.46
433.01	5318.57
433.22	5234.61
433.43	5291.95
433.64	5152.69
433.85	5164.98
434.06	5365.68
434.27	5169.07
434.49	5230.51
434.70	5390.25
434.91	5461.93
435.12	5517.23
435.33	5300.14
435.54	5322.67
435.75	5367.73
435.96	5486.51
436.17	5449.64
436.38	5519.28
436.59	5476.27
436.80	5609.39
437.01	5705.64
437.22	5738.41
437.43	5664.68
437.64	5451.69
437.85	5859.24
438.06	5762.98
438.27	5785.51
438.48	5719.98
438.69	5889.96
438.90	5838.76
439.11	5627.82
439.32	5754.79
439.53	5805.99
439.74	5818.28
439.95	5863.33
440.16	5691.31
440.37	5844.90
440.57	5789.61
440.78	5889.96
440.99	6096.80
441.20	5877.67
441.41	5791.66
441.62	5959.59
441.83	5941.16
442.04	6033.32
442.25	6104.99
442.46	6041.51
442.67	6055.84
442.88	6496.16
443.09	6025.12
443.30	5955.49
443.51	6139.81
443.72	6326.18
443.93	5969.83
444.14	6352.80
444.35	5900.20
444.56	6164.39
444.77	6297.50
444.98	6100.90
445.19	6348.70
445.40	6320.03
445.61	6375.33
445.81	6408.09
446.02	6408.09
446.23	6303.65
446.44	6107.04
446.65	6369.18
446.86	6369.18
447.07	6594.46
447.28	6442.91
447.49	6631.32
447.70	6377.37
447.91	6670.23
448.12	6508.44
448.33	6627.23
448.54	6666.14
448.74	6631.32
448.95	6653.85
449.16	6703.00
449.37	6989.72
449.58	6799.26
449.79	6909.85
450.00	6674.33
450.21	6760.34
450.42	6899.61
450.63	7040.92
450.84	6895.51
451.05	6971.29
451.25	6948.76
451.46	6891.41
451.67	7088.02
451.88	7071.64
452.09	7069.59
452.30	7002.01
452.51	7016.34
452.72	7315.34
452.93	7384.98
453.13	6975.38
453.34	7118.74
453.55	7237.52
453.76	7147.41
453.97	7501.71
454.18	7384.98
454.39	7204.75
454.60	7298.96
454.81	7403.41
455.01	7563.15
455.22	7206.80
455.43	7425.93
455.64	7747.47
455.85	7739.27
456.06	7960.45
456.27	7794.57
456.48	7600.01
456.68	7694.22
456.89	7741.32
457.10	7696.27
457.31	7868.30
457.52	7823.24
457.73	7843.72
457.94	8271.75
458.14	7892.87
458.35	8402.82
458.56	8177.54
458.77	8032.13
458.98	8155.01
459.19	8191.88
459.39	8243.07
459.60	8480.64
459.81	8251.27
460.02	8554.37
460.23	8380.29
460.44	8644.48
460.65	8654.72
460.85	8587.13
461.06	8447.87
461.27	8443.78
461.48	8740.73
461.69	8820.60
461.89	8728.44
462.10	8906.62
462.31	8773.50
462.52	8945.53
462.73	8933.24
462.94	9179.00
463.14	9031.54
463.35	9009.01
463.56	9412.46
463.77	9375.60
463.98	9019.25
464.18	9336.69
464.39	9463.66
464.60	9647.98
464.81	9320.31
465.02	9535.34
465.23	9785.19
465.43	9457.52
465.64	10006.38
465.85	9664.36
466.06	9641.84
466.27	10047.33
466.47	9903.98
466.68	10030.95
466.89	9725.80
467.10	10221.41
467.30	10170.21
467.51	10368.87
467.72	10495.84
467.93	9940.84
468.14	10295.14
468.34	10387.30
468.55	10450.78
468.76	10553.18
468.97	10325.86
469.17	10815.32
469.38	10661.73
469.59	10794.84
469.80	10651.49
470.01	10551.14
470.21	10800.99
470.42	11018.07
470.63	11226.96
470.84	10921.82
471.04	11134.81
471.25	11306.84
471.46	11177.81
471.67	11751.24
471.87	11413.33
472.08	11349.84
472.29	11902.79
472.50	11433.81
472.70	11437.91
472.91	11640.65
473.12	11726.67
473.33	11876.17
473.53	11904.84
473.74	11882.31
473.95	12183.37
474.16	12324.68
474.36	12384.07
474.57	12396.35
474.78	12519.23
474.99	12404.55
475.19	12445.51
475.40	12830.52
475.61	12838.72
475.81	12908.35
476.02	13342.52
476.23	12898.11
476.44	13012.79
476.64	13369.14
476.85	13502.26
477.06	13301.56
477.27	13477.68
477.47	13618.99
477.68	13528.88
477.89	13633.33
478.09	13537.07
478.30	13805.36
478.51	13668.14
478.71	13936.43
478.92	14147.37
479.13	14272.29
479.34	14368.55
479.54	14524.19
479.75	14389.03
479.96	14335.78
480.16	14661.41
480.37	14905.12
480.58	14765.85
480.78	15132.44
480.99	14962.46
481.20	15214.36
481.41	15204.12
481.61	15357.72
481.82	15544.08
482.03	15218.46
482.23	15171.35
482.44	15736.59
482.65	15941.39
482.85	15886.09
483.06	15857.42
483.27	15712.02
483.47	15947.53
483.68	16025.36
483.89	16191.24
484.09	16084.75
484.30	16281.35
484.51	16377.61
484.71	16738.05
484.92	16480.00
485.13	16674.56
485.33	16844.54
485.54	16740.10
485.75	17049.34
485.95	17200.89
486.16	17159.93
486.37	17241.85
486.57	17270.52
486.78	17399.54
486.98	17465.08
487.19	17618.68
487.40	17825.52
487.60	17776.37
487.81	17899.25
488.02	17780.46
488.22	17864.43
488.43	18048.75
488.64	18052.84
488.84	18188.01
489.05	18454.25
489.25	18333.42
489.46	18714.34
489.67	18661.09
489.87	18726.63
490.08	19009.25
490.29	18890.46
490.49	19158.75
490.70	19017.44
490.90	19068.64
491.11	19136.22
491.32	19418.84
491.52	19181.28
491.73	19599.06
491.94	19484.37
492.14	19617.49
492.35	19508.95
492.55	19941.07
492.76	20049.61
492.97	20221.64
493.17	20195.02
493.38	20203.21
493.58	20174.54
493.79	20465.35
494.00	20428.49
494.20	20332.23
494.41	20741.83
494.61	20911.81
494.82	20858.56
495.02	20588.23
495.23	21126.85
495.44	20903.62
495.64	21180.09
495.85	21206.72
496.05	21470.90
496.26	21458.62
496.47	21405.37
496.67	21548.73
496.88	21821.11
497.08	21497.53
497.29	21950.13
497.49	21669.56
497.70	22042.29
497.91	22027.95
498.11	22273.71
498.32	22408.87
498.52	22253.23
498.73	22484.65
498.93	22490.79
499.14	22560.42
499.34	22392.49
499.55	22589.10
499.76	22503.08
499.96	23066.27
500.17	22879.91
500.37	23342.75
500.58	23045.79
500.78	23088.80
500.99	23410.33
501.19	23264.92
501.40	23451.29
501.60	23320.22
501.81	23574.17
502.02	23436.95
502.22	23385.76
502.43	23795.35
502.63	24088.21
502.84	24112.78
503.04	23963.28
503.25	24092.30
503.45	24243.85
503.66	24145.55
503.86	24118.93
504.07	24624.78
504.27	24235.66
504.48	24473.23
504.68	24606.34
504.89	24587.91
505.09	24716.93
505.30	24579.72
505.50	24911.49
505.71	24997.51
505.91	24852.10
506.12	24774.28
506.32	24891.01
506.53	25216.64
506.73	25265.79
506.94	25546.36
507.14	25319.04
507.35	25663.10
507.55	25601.66
507.76	25599.61
507.96	25525.88
508.17	25650.81
508.37	25503.35
508.58	25687.67
508.78	25785.97
508.99	26095.22
509.19	26117.75
509.40	25910.90
509.60	26222.19
509.81	26214.00
510.01	26318.45
510.22	26156.66
510.42	26326.64
510.63	26451.56
510.83	26392.17
511.04	26426.99
511.24	26543.72
511.44	26703.46
511.65	26476.14
511.85	26715.75
512.06	26994.28
512.26	26715.75
512.47	26928.74
512.67	26949.22
512.88	26996.32
513.08	26676.84
513.29	27467.36
513.49	27102.82
513.69	27276.90
513.90	27145.83
514.10	27471.45
514.31	27309.66
514.51	27496.03
514.72	27205.22
514.92	27467.36
515.13	27502.17
515.33	27618.91
515.53	27735.64
515.74	27657.82
515.94	27825.75
516.15	27633.24
516.35	27647.58
516.56	28008.02
516.76	27944.53
516.96	27776.60
517.17	28020.31
517.37	28175.95
517.58	28089.94
517.78	28169.81
517.99	28321.36
518.19	28640.84
518.39	28442.19
518.60	28610.12
518.80	28546.64
519.01	28704.33
519.21	28831.30
519.41	28761.67
519.62	28503.63
519.82	28769.86
520.03	28919.37
520.23	29111.88
520.43	28669.51
520.64	29451.84
520.84	29134.40
521.05	28841.54
521.25	29290.05
521.45	29453.89
521.66	29445.69
521.86	29509.18
522.07	29742.65
522.27	29865.53
522.47	29765.18
522.68	30031.41
522.88	29843.00
523.08	30101.04
523.29	29904.44
523.49	30234.16
523.70	30019.13
523.90	30099.00
524.10	30244.40
524.31	30088.76
524.51	29914.68
524.71	30477.87
524.92	30504.49
525.12	30447.15
525.33	30764.59
525.53	30961.19
525.73	31086.12
525.94	30778.92
526.14	30989.86
526.34	30801.45
526.55	31094.31
526.75	30993.96
526.95	31204.90
527.16	31366.69
527.36	31192.61
527.56	31211.04
527.77	31553.05
527.97	31755.80
528.17	31657.50
528.38	31852.06
528.58	31751.71
528.78	31723.04
528.99	31667.74
529.19	32161.30
529.39	31616.54
529.60	32136.73
529.80	32149.01
530.00	32112.15
530.21	32380.43
530.41	32828.94
530.61	32638.48
530.82	32747.02
531.02	32628.24
531.22	32943.63
531.43	32704.01
531.63	32599.57
531.83	33129.99
532.04	33410.56
532.24	32849.42
532.44	33674.75
532.64	33232.39
532.85	33547.78
533.05	33547.78
533.25	33691.13
533.46	33502.72
533.66	33703.42
533.86	33451.52
534.07	34637.30
534.27	34131.45
534.47	34575.86
534.67	33938.94
534.88	34203.13
535.08	34432.50
535.28	34328.05
535.49	34549.23
535.69	34614.77
535.89	34743.79
536.09	34885.10
536.30	34993.64
536.50	34907.63
536.70	35141.10
536.91	35423.72
537.11	35110.38
537.31	35558.88
537.51	35321.32
537.72	35757.53
537.92	36036.06
538.12	35739.10
538.32	35902.94
538.53	35911.13
538.73	35952.09
538.93	36261.33
539.13	35933.66
539.34	36208.09
539.54	36113.88
539.74	36586.96
539.94	36302.29
540.15	36160.98
540.35	36574.67
540.55	36632.02
540.75	36758.99
540.96	36785.61
541.16	36629.97
541.36	36589.01
541.56	37078.47
541.77	37332.42
541.97	37123.53
542.17	37074.38
542.37	37205.45
542.58	37313.99
542.78	37361.09
542.98	37195.21
543.18	37627.33
543.38	38159.80
543.59	38036.92
543.79	37891.52
543.99	37805.50
544.19	38028.73
544.40	37756.35
544.60	38550.96
544.80	38024.64
545.00	38256.06
545.20	38911.41
545.41	38335.93
545.61	38231.48
545.81	38720.95
546.01	38901.17
546.21	38628.79
546.42	38753.71
546.62	39085.48
546.82	38467.00
547.02	38804.91
547.22	39134.63
547.43	39116.20
547.63	38978.99
547.83	39234.99
548.03	38917.55
548.23	39462.31
548.44	39366.06
548.64	39339.43
548.84	39505.32
549.04	39228.84
549.24	39677.35
549.45	40052.12
549.65	39785.89
549.85	39861.66
550.05	40045.98
550.25	39568.80
550.45	40162.72
550.66	40283.55
550.86	40000.93
551.06	40504.73
551.26	39832.99
551.46	40326.55
551.66	40514.97
551.87	40226.20
552.07	40752.53
552.27	40451.48
552.47	40646.04
552.67	40607.12
552.87	40809.87
553.07	40816.02
553.28	41092.49
553.48	41002.38
553.68	40936.85
553.88	41526.66
554.08	40953.23
554.28	41356.68
554.48	41477.51
554.69	41237.90
554.89	41244.04
555.09	41225.61
555.29	41690.50
555.49	41538.95
555.69	41383.30
555.89	41385.35
556.10	41667.97
556.30	41325.96
556.50	42104.19
556.70	41753.99
556.90	42243.45
557.10	41784.71
557.30	41799.04
557.50	42073.47
557.70	41901.44
557.91	42096.00
558.11	42261.88
558.31	42564.98
558.51	42474.87
558.71	42438.01
558.91	42501.50
559.11	42483.06
559.31	42325.37
559.51	42304.89
559.72	42653.05
559.92	42601.85
560.12	42524.02
560.32	42575.22
560.52	42759.54
560.72	43132.27
560.92	42712.44
561.12	42927.47
561.32	43345.26
561.52	42784.12
561.72	43459.94
561.93	42839.41
562.13	43335.02
562.33	42978.67
562.53	43754.85
562.73	42913.14
562.93	43763.04
563.13	43257.20
563.33	43138.41
563.53	43408.75
563.73	43216.24
563.93	43599.21
564.13	43548.01
564.33	43591.01
564.53	43640.17
564.74	43781.48
564.94	43324.78
565.14	43771.24
565.34	43500.90
565.54	43799.91
565.74	43855.20
565.94	44217.69
566.14	44123.49
566.34	43588.97
566.54	44080.48
566.74	43722.08
566.94	44111.20
567.14	44012.90
567.34	44021.09
567.54	44318.04
567.74	44084.58
567.94	44152.16
568.14	44279.13
568.34	44375.39
568.54	44113.25
568.74	44510.55
568.94	44526.94
569.14	44385.63
569.34	44547.42
569.54	44535.13
569.75	44471.64
569.95	44463.45
570.15	45235.53
570.35	44463.45
570.55	44705.11
570.75	44721.49
570.95	44436.83
571.15	44772.69
571.35	45165.90
571.55	45165.90
571.75	44522.84
571.95	45110.61
572.15	44866.90
572.35	44928.34
572.55	45206.86
572.75	44787.03
572.95	45030.74
573.15	45401.42
573.35	45577.54
573.55	45108.56
573.75	44922.19
573.95	45315.40
574.15	45243.73
574.35	45376.84
574.55	45561.16
574.75	45542.73
574.95	45784.39
575.15	45290.83
575.34	45077.84
575.54	45612.36
575.74	45722.95
575.94	45833.54
576.14	45876.55
576.34	45747.53
576.54	45995.33
576.74	46001.47
576.94	46026.05
577.14	46058.82
577.34	46189.89
577.54	45854.02
577.74	46495.03
577.94	46349.63
578.14	46411.07
578.34	46267.71
578.54	45741.38
578.74	45985.09
578.94	46515.51
579.14	46243.13
579.34	46030.15
579.54	46492.99
579.74	46652.73
579.94	46615.86
580.13	46589.24
580.33	46830.90
580.53	46896.44
580.73	46662.97
580.93	46652.73
581.13	46716.22
581.33	46937.40
581.53	47226.16
581.73	46976.31
581.93	47084.85
582.13	47004.98
582.33	47017.27
582.53	47224.11
582.73	46964.02
582.92	47338.80
583.12	47406.38
583.32	46880.05
583.52	46927.16
583.72	47326.51
583.92	47678.76
584.12	47607.08
584.32	47932.71
584.52	47543.59
584.72	47738.15
584.92	47695.14
585.11	48155.94
585.31	47623.47
585.51	48260.38
585.71	47516.97
585.91	48035.11
586.11	47371.57
586.31	47609.13
586.51	48000.29
586.71	47887.65
586.91	48477.47
587.10	48254.24
587.30	48174.37
587.50	48035.11
587.70	48035.11
587.90	48229.66
588.10	48127.27
588.30	47725.86
588.50	48510.24
588.69	48471.32
588.89	48469.28
589.09	48489.76
589.29	48708.89
589.49	48334.11
589.69	48612.63
589.89	48747.80
590.08	48649.50
590.28	48721.18
590.48	48196.90
590.68	48432.41
590.88	48993.56
591.08	48901.40
591.28	48207.14
591.47	49141.01
591.67	49243.41
591.87	49063.19
592.07	48710.94
592.27	48940.31
592.47	48805.14
592.67	48758.04
592.86	49419.53
593.06	48958.74
593.26	49407.25
593.46	48968.98
593.66	49032.47
593.86	49474.83
594.05	49083.67
594.25	49323.28
594.45	49390.86
594.65	49683.72
594.85	48928.02
595.05	49521.93
595.24	49429.77
595.44	49452.30
595.64	49599.76
595.84	49904.90
596.04	49812.74
596.23	49919.24
596.43	50136.32
596.63	49739.02
596.83	49857.80
597.03	50248.96
597.22	50251.01
597.42	50156.80
597.62	50740.47
597.82	50625.79
598.02	50212.10
598.21	50386.18
598.41	49657.10
598.61	50371.84
598.81	50275.58
599.01	50484.48
599.20	50459.90
599.40	50248.96
599.60	50851.06
599.80	50814.20
600.00	50533.63
600.19	50918.65
600.39	50425.09
600.59	51076.34
600.79	50955.51
600.98	50838.78
601.18	51283.19
601.38	51369.20
601.58	51229.94
601.78	51598.57
601.97	51342.58
602.17	51393.78
602.37	51180.79
602.57	51246.32
602.76	51688.68
602.96	51565.81
603.16	51924.20
603.36	51703.02
603.55	51799.27
603.75	51399.92
603.95	52016.36
604.15	51791.08
604.34	51858.66
604.54	52176.10
604.74	52272.35
604.94	51860.71
605.13	51997.93
605.33	52311.27
605.53	51879.14
605.73	52507.87
605.92	52258.02
606.12	52843.74
606.32	52917.46
606.52	52491.49
606.71	52706.52
606.91	52796.63
607.11	52227.30
607.30	52806.87
607.50	52966.62
607.70	53253.33
607.90	52331.75
608.09	52724.96
608.29	52643.04
608.49	52954.33
608.68	52581.60
608.88	53003.48
609.08	53200.08
609.28	53236.95
609.47	52917.46
609.67	53019.86
609.87	53404.88
610.06	53318.87
610.26	53269.72
610.46	53484.75
610.66	53077.21
610.85	53722.32
611.05	53581.01
611.25	53513.42
611.44	53163.22
611.64	53652.69
611.84	53114.07
612.03	53212.37
612.23	53730.51
612.43	53945.54
612.62	53185.75
612.82	53839.05
613.02	53566.67
613.21	53675.21
613.41	53476.56
613.61	53746.89
613.80	53179.60
614.00	53880.01
614.20	53918.92
614.39	54142.15
614.59	53748.94
614.79	54250.69
614.98	53998.79
615.18	54080.71
615.38	54031.56
615.57	53525.71
615.77	54179.01
615.97	54486.21
616.16	53914.83
616.36	53781.71
616.56	54219.97
616.75	54197.44
616.95	54242.50
617.15	54185.16
617.34	54002.89
617.54	54183.11
617.74	54342.85
617.93	54187.21
618.13	53920.97
618.32	54170.82
618.52	54633.66
618.72	54361.28
618.91	54385.86
619.11	54361.28
619.31	54486.21
619.50	54564.03
619.70	54146.25
619.90	54785.21
620.09	54731.96
620.29	54009.03
620.48	54588.61
620.68	54848.70
620.88	54336.71
621.07	54707.39
621.27	54539.46
621.46	53777.61
621.66	54553.79
621.86	54027.46
622.05	54297.80
622.25	54834.36
622.44	54705.34
622.64	54486.21
622.84	54992.06
623.03	53839.05
623.23	54260.93
623.42	54762.68
623.62	54607.04
623.82	54992.06
624.01	54613.18
624.21	54621.37
624.40	55006.39
624.60	54484.16
624.80	54918.33
624.99	54572.22
625.19	54250.69
625.38	54725.82
625.58	54451.39
625.77	54910.14
625.97	55227.57
626.17	54742.20
626.36	54531.26
626.56	54856.89
626.75	54113.48
626.95	54856.89
627.14	55096.50
627.34	55309.49
627.54	54682.81
627.73	54727.87
627.93	54496.45
628.12	54133.96
628.32	54531.26
628.51	54613.18
628.71	54701.25
628.90	54156.49
629.10	55045.30
629.30	54621.37
629.49	54637.76
629.69	54670.53
629.88	54645.95
630.08	55325.88
630.27	55112.89
630.47	54688.96
630.66	54924.47
630.86	55203.00
631.05	54545.60
631.25	55477.43
631.44	55014.58
631.64	54934.71
631.84	54785.21
632.03	55411.89
632.23	55127.22
632.42	54867.13
632.62	54942.91
632.81	54260.93
633.01	54998.20
633.20	55506.10
633.40	55131.32
633.59	55403.70
633.79	54572.22
633.98	54959.29
634.18	55024.82
634.37	55289.01
634.57	55063.74
634.76	55465.14
634.96	55221.43
635.15	55278.77
635.35	55051.45
635.54	54727.87
635.74	55190.71
635.93	55278.77
636.13	55491.76
636.32	55616.69
636.52	55159.99
636.71	55432.37
636.91	55311.54
637.10	55424.18
637.30	55338.16
637.49	55409.84
637.69	55139.51
637.88	55655.60
638.08	55192.76
638.27	55655.60
638.46	55080.12
638.66	54992.06
638.85	55309.49
639.05	55137.46
639.24	55592.11
639.44	55344.31
639.63	55135.41
639.83	55502.00
640.02	55354.55
640.22	55325.88
640.41	55733.42
640.61	55026.87
640.80	55702.70
640.99	54908.09
641.19	55758.00
641.38	55252.15
641.58	55387.31
641.77	55473.33
641.97	55518.38
642.16	55530.67
642.36	55436.47
642.55	55762.09
642.74	55313.59
642.94	56179.88
643.13	55172.28
643.33	55669.93
643.52	55839.92
643.72	56153.26
643.91	55235.77
644.10	55801.00
644.30	55792.81
644.49	56165.54
644.69	56057.00
644.88	55813.29
645.08	54830.27
645.27	55542.96
645.46	55440.56
645.66	55739.57
645.85	55096.50
646.05	55895.21
646.24	56059.05
646.43	55862.44
646.63	56325.28
646.82	55891.12
647.02	55960.75
647.21	55827.63
647.40	55907.50
647.60	56077.48
647.79	55848.11
647.99	55727.28
648.18	55944.36
648.37	56407.20
648.57	55934.12
648.76	55862.44
648.96	55475.38
649.15	55778.48
649.34	55985.32
649.54	55915.69
649.73	55743.66
649.92	56018.09
650.12	55798.96
650.31	55825.58
650.51	56059.05
650.70	56718.49
650.89	55749.81
651.09	56323.24
651.28	56267.94
651.47	55862.44
651.67	56333.48
651.86	56362.15
652.06	55458.99
652.25	56292.52
652.44	55688.37
652.64	55669.93
652.83	55993.51
653.02	56196.26
653.22	55930.03
653.41	55850.16
653.60	55407.79
653.80	55919.79
653.99	55803.05
654.18	55665.84
654.38	55778.48
654.57	56024.23
654.76	55710.89
654.96	55923.88
655.15	55874.73
655.34	56540.32
655.54	55291.06
655.73	56052.90
655.92	55735.47
656.12	55637.17
656.31	56253.61
656.50	56091.82
656.70	55903.40
656.89	55760.05
657.08	56013.99
657.28	56091.82
657.47	56079.53
657.66	55876.78
657.86	56097.96
658.05	55796.91
658.24	56143.02
658.43	55637.17
658.63	56267.94
658.82	56001.71
659.01	55909.55
659.21	55970.99
659.40	55919.79
659.59	55770.28
659.79	56067.24
659.98	56177.83
660.17	56147.11
660.36	56095.91
660.56	55872.68
660.75	55907.50
660.94	55731.37
661.14	56216.74
661.33	55866.54
661.52	55547.06
661.71	56239.27
661.91	55801.00
662.10	55727.28
662.29	55766.19
662.49	55903.40
662.68	55813.29
662.87	55581.87
663.06	56112.30
663.26	55821.48
663.45	55954.60
663.64	55862.44
663.83	56644.77
664.03	56206.50
664.22	56038.57
664.41	55850.16
664.60	55714.99
664.80	55981.23
664.99	55989.42
665.18	55862.44
665.37	55977.13
665.57	56149.16
665.76	55782.57
665.95	56196.26
666.14	55436.47
666.34	55823.53
666.53	55624.88
666.72	55579.82
666.91	55514.29
667.11	55489.71
667.30	55588.02
667.49	55694.51
667.68	55342.26
667.87	55063.74
668.07	55622.83
668.26	55579.82
668.45	55485.62
668.64	55125.17
668.84	55899.31
669.03	55878.83
669.22	55805.10
669.41	55770.28
669.60	56097.96
669.80	55446.71
669.99	56151.21
670.18	55303.35
670.37	55841.96
670.57	55954.60
670.76	55518.38
670.95	55551.15
671.14	55749.81
671.33	55534.77
671.53	55938.22
671.72	55708.85
671.91	55573.68
672.10	55305.40
672.29	55164.09
672.48	55190.71
672.68	55794.86
672.87	55272.63
673.06	55622.83
673.25	55463.09
673.44	55180.47
673.64	55194.81
673.83	55391.41
674.02	55116.98
674.21	54867.13
674.40	55260.34
674.59	55135.41
674.79	55198.90
674.98	55035.06
675.17	55166.13
675.36	55076.02
675.55	55645.36
675.74	55098.55
675.94	55037.11
676.13	55289.01
676.32	55395.51
676.51	55477.43
676.70	55456.95
676.89	55454.90
677.08	55731.37
677.28	55106.74
677.47	55284.92
677.66	54785.21
677.85	54977.72
678.04	55344.31
678.23	55671.98
678.42	55760.05
678.62	55477.43
678.81	55241.91
679.00	55090.36
679.19	55735.47
679.38	54877.37
679.57	55047.35
679.76	55229.62
679.96	55528.62
680.15	55198.90
680.34	55219.38
680.53	55473.33
680.72	55231.67
680.91	55088.31
681.10	55159.99
681.29	55381.17
681.48	54998.20
681.68	55219.38
681.87	55432.37
682.06	54951.10
682.25	54822.08
682.44	54965.43
682.63	55141.56
682.82	54639.81
683.01	54543.55
683.20	54326.47
683.39	55057.59
683.59	54928.57
683.78	54564.03
683.97	54797.50
684.16	54617.28
684.35	54400.19
684.54	54762.68
684.73	55035.06
684.92	54453.44
685.11	54619.33
685.30	54824.12
685.49	54875.32
685.69	54844.60
685.88	55092.41
686.07	54957.24
686.26	54680.77
686.45	54574.27
686.64	55088.31
686.83	54678.72
687.02	54742.20
687.21	54774.97
687.40	55010.49
687.59	54561.98
687.78	54703.29
687.97	55080.12
688.16	54615.23
688.35	54166.73
688.54	54795.45
688.74	54320.32
688.93	54652.09
689.12	54500.54
689.31	54502.59
689.50	54496.45
689.69	54514.88
689.88	54199.49
690.07	54584.51
690.26	54400.19
690.45	54422.72
690.64	54437.06
690.83	54236.36
691.02	54318.28
691.21	54199.49
691.40	54574.27
691.59	54512.83
691.78	54432.96
691.97	54830.27
692.16	53982.41
692.35	54060.23
692.54	54473.92
692.73	54303.94
692.92	54277.32
693.11	54504.64
693.30	54326.47
693.49	54301.89
693.68	54209.73
693.87	54432.96
694.06	53816.52
694.25	53804.24
694.44	53662.93
694.63	54363.33
694.82	53904.59
695.01	54359.23
695.20	54105.29
695.39	54027.46
695.58	54199.49
695.77	53929.16
695.96	53705.93
696.15	54334.66
696.34	54015.18
696.53	54095.05
696.72	54590.66
696.91	53753.04
697.10	54295.75
697.29	54029.51
697.48	54330.56
697.67	53560.53
697.86	53630.16
698.05	54031.56
698.24	54107.33
698.43	53687.50
698.62	53789.90
698.81	53783.76
699.00	54121.67
699.19	54019.27
699.38	53986.50
699.57	53583.05
699.76	54316.23
699.95	53396.69
700.14	53460.18
700.32	53771.47
700.51	53898.44
700.70	54148.29
700.89	53996.74
701.08	53765.32
701.27	53781.71
701.46	53791.95
701.65	53368.02
701.84	53230.80
702.03	53101.78
702.22	53476.56
702.41	53601.49
702.60	53908.68
702.79	53421.26
702.98	53099.73
703.17	53763.28
703.35	53152.98
703.54	53562.57
703.73	53757.13
703.92	53384.40
704.11	53339.35
704.30	52933.85
704.49	53144.79
704.68	52931.80
704.87	53167.32
705.06	53064.92
705.25	53023.96
705.43	53347.54
705.62	53253.33
705.81	53392.59
706.00	53191.89
706.19	52991.19
706.38	52749.53
706.57	52837.59
706.76	53130.45
706.95	52563.17
707.14	52712.67
707.32	53114.07
707.51	52675.80
707.70	52540.64
707.89	52896.98
708.08	52360.42
708.27	53279.96
708.46	53277.91
708.65	53130.45
708.84	53036.25
709.02	52987.10
709.21	52862.17
709.40	52597.98
709.59	52657.37
709.78	52524.25
709.97	52978.90
710.16	52446.43
710.34	52880.60
710.53	52964.57
710.72	52493.54
710.91	52669.66
711.10	52180.20
711.29	52876.51
711.48	52813.02
711.66	52182.24
711.85	52309.22
712.04	52610.27
712.23	52614.37
712.42	52288.74
712.61	52374.75
712.80	52458.72
712.98	52313.31
713.17	52319.46
713.36	52550.88
713.55	52409.57
713.74	52118.76
713.93	52417.76
714.11	52602.08
714.30	51621.10
714.49	52264.16
714.68	52301.03
714.87	52270.31
715.06	52446.43
715.24	51688.68
715.43	51739.88
715.62	51774.70
715.81	51873.00
716.00	51905.77
716.18	51336.43
716.37	51461.36
716.56	51395.82
716.75	52075.75
716.94	51451.12
717.12	51723.50
717.31	51524.85
717.50	51657.96
717.69	51438.83
717.88	51631.34
718.06	51451.12
718.25	52176.10
718.44	51434.74
718.63	51326.19
718.82	50984.18
719.00	51117.30
719.19	51227.89
719.38	50943.22
719.57	50496.77
719.76	50271.49
719.94	50650.36
720.13	50783.48
720.32	51109.11
720.51	50554.11
720.69	50883.83
720.88	50611.45
721.07	50562.30
721.26	49794.31
721.44	50314.50
721.63	50566.40
721.82	50418.94
722.01	50109.70
722.20	50060.55
722.38	50148.61
722.57	49880.33
722.76	50181.38
722.95	49882.37
723.13	50121.99
723.32	49820.94
723.51	49745.16
723.70	49771.78
723.88	49808.65
724.07	49872.14
724.26	49644.81
724.44	49159.44
724.63	50121.99
724.82	49935.62
725.01	49347.86
725.19	49655.05
725.38	49644.81
725.57	49081.62
725.76	49874.18
725.94	49042.71
726.13	49480.97
726.32	49069.33
726.51	48977.17
726.69	49483.02
726.88	49460.49
727.07	48872.73
727.25	48837.91
727.44	49337.62
727.63	48782.62
727.82	49071.38
728.00	48948.50
728.19	48979.22
728.38	49048.85
728.56	48657.69
728.75	48995.60
728.94	48682.27
729.12	49321.23
729.31	48925.97
729.50	48993.56
729.69	49288.46
729.87	49194.26
730.06	48942.36
730.25	48962.84
730.43	49310.99
730.62	48936.21
730.81	49020.18
730.99	48979.22
731.18	48839.96
731.37	48586.01
731.55	49192.21
731.74	48796.95
731.93	48862.49
732.11	48712.98
732.30	48346.40
732.49	48608.54
732.67	48438.56
732.86	48481.56
733.05	48418.08
733.23	48399.65
733.42	48524.57
733.61	48706.84
733.79	48559.39
733.98	48551.20
734.17	48305.44
734.35	48624.92
734.54	48622.87
734.73	49173.78
734.91	48596.25
735.10	48260.38
735.29	48612.63
735.47	48006.44
735.66	48297.25
735.84	48307.49
736.03	48022.82
736.22	48436.51
736.40	48436.51
736.59	48289.06
736.78	48157.99
736.96	48549.15
737.15	48121.12
737.33	47834.41
737.52	48020.77
737.71	47766.82
737.89	47555.88
738.08	47373.61
738.27	47858.98
738.45	48309.53
738.64	47809.83
738.82	47877.41
739.01	48012.58
739.20	47605.03
739.38	47797.54
739.57	47879.46
739.75	47848.74
739.94	47613.23
740.13	47371.57
740.31	47344.94
740.50	47330.61
740.68	47582.51
740.87	47338.80
741.06	47344.94
741.24	47418.67
741.43	47469.87
741.61	47508.78
741.80	47297.84
741.99	47215.92
742.17	47037.75
742.36	47177.01
742.54	47148.34
742.73	47125.81
742.91	47195.44
743.10	47134.00
743.29	47234.35
743.47	46884.15
743.66	47052.08
743.84	47281.45
744.03	47019.31
744.21	47000.88
744.40	46880.05
744.59	46757.17
744.77	46535.99
744.96	46826.81
745.14	46622.01
745.33	46630.20
745.51	46554.43
745.70	46634.30
745.88	46660.92
746.07	46474.55
746.26	46177.60
746.44	46161.22
746.63	46634.30
746.81	46445.88
747.00	46067.01
747.18	46212.41
747.37	46069.06
747.55	46540.09
747.74	46701.88
747.92	46028.10
748.11	46185.79
748.29	46077.25
748.48	45925.70
748.66	45905.22
748.85	45927.75
749.03	45624.65
749.22	45727.05
749.41	46038.34
749.59	46064.96
749.78	45749.57
749.96	45223.25
750.15	45622.60
750.33	45591.88
750.52	45442.38
750.70	45706.57
750.89	45524.30
751.07	44748.12
751.26	45192.53
751.44	45352.27
751.63	45223.25
751.81	45364.56
752.00	44954.96
752.18	45333.84
752.37	45342.03
752.55	44744.02
752.74	44701.01
752.92	44903.76
753.10	44830.04
753.29	45327.69
753.47	44854.61
753.66	44483.93
753.84	45274.45
754.03	44481.88
754.21	44158.30
754.40	44907.86
754.58	44735.83
754.77	44510.55
754.95	44064.10
755.14	44391.77
755.32	44311.90
755.51	44252.51
755.69	44143.97
755.88	44010.85
756.06	43875.68
756.24	44090.72
756.43	43947.36
756.61	43795.81
756.80	44031.33
756.98	43967.84
757.17	43756.90
757.35	43695.46
757.54	43930.98
757.72	44008.80
757.90	43779.43
758.09	44096.86
758.27	43857.25
758.46	43423.08
758.64	43605.35
758.83	44045.66
759.01	43736.42
759.19	43224.43
759.38	43404.65
759.56	43388.27
759.75	43552.10
759.93	43273.58
760.12	42833.27
760.30	43201.90
760.48	43496.81
760.67	42997.10
760.85	43242.86
761.04	43414.89
761.22	42820.98
761.40	42933.62
761.59	43165.04
761.77	42866.03
761.96	42894.71
762.14	42761.59
762.32	42769.78
762.51	43074.93
762.69	42730.87
762.88	42737.01
763.06	42923.38
763.24	42423.67
763.43	42517.88
763.61	42268.03
763.80	42564.98
763.98	42575.22
764.16	42595.70
764.35	42468.73
764.53	41735.56
764.72	42038.65
764.90	42120.57
765.08	42034.56
765.27	42341.75
765.45	41584.01
765.63	41524.61
765.82	41864.58
766.00	41842.05
766.18	41788.80
766.37	42429.82
766.55	42358.14
766.74	41880.96
766.92	41817.47
767.10	41653.64
767.29	41657.73
767.47	41057.68
767.65	41758.08
767.84	41201.04
768.02	41452.94
768.20	40957.33
768.39	41434.50
768.57	41147.79
768.75	41029.01
768.94	41444.74
769.12	41178.51
769.30	40629.65
769.49	41088.40
769.67	40852.88
769.85	40502.68
770.04	40963.47
770.22	40527.25
770.40	40578.45
770.59	40562.07
770.77	41053.58
770.95	40392.09
771.14	40238.49
771.32	40056.22
771.50	40170.91
771.69	40531.35
771.87	40609.17
772.05	40312.22
772.24	39900.58
772.42	39921.05
772.60	40175.00
772.78	39736.74
772.97	39994.78
773.15	39927.20
773.33	40054.17
773.52	39577.00
773.70	40068.51
773.88	39941.53
774.07	39601.57
774.25	39712.16
774.43	39632.29
774.61	39663.01
774.80	39953.82
774.98	40017.31
775.16	40007.07
775.34	40277.40
775.53	39765.41
775.71	40244.63
775.89	40492.44
776.08	40213.91
776.26	40123.80
776.44	39959.97
776.62	40109.47
776.81	39810.46
776.99	39951.77
777.17	40416.66
777.35	39992.73
777.54	40428.95
777.72	40271.26
777.90	40301.98
778.08	39962.01
778.27	40203.67
778.45	40197.53
778.63	40387.99
778.81	39761.31
779.00	41069.97
779.18	40334.74
779.36	40400.28
779.54	40000.93
779.73	40316.31
779.91	40508.82
780.09	40545.69
780.27	40654.23
780.46	40639.89
780.64	40261.02
780.82	40455.57
781.00	40496.53
781.19	40680.85
781.37	40871.31
781.55	40928.66
781.73	40828.30
781.91	40461.72
782.10	40392.09
782.28	40557.97
782.46	40754.58
782.64	41053.58
782.82	40717.71
783.01	40863.12
783.19	40670.61
783.37	40938.90
783.55	40732.05
783.74	40971.66
783.92	40498.58
784.10	41342.35
784.28	40754.58
784.46	40760.72
784.64	40584.60
784.83	40973.71
785.01	40947.09
785.19	40777.11
785.37	41096.59
785.55	40588.69
785.74	40465.81
785.92	40502.68
786.10	40750.48
786.28	40848.78
786.46	40582.55
786.64	40340.89
786.83	40711.57
787.01	40740.24
787.19	40586.64
787.37	40594.84
787.55	40514.97
787.74	40351.13
787.92	40420.76
788.10	40338.84
788.28	39740.83
788.46	40258.97
788.64	40142.24
788.82	40371.61
789.01	40148.38
789.19	40398.23
789.37	39886.24
789.55	40080.80
789.73	39708.07
789.91	39695.78
790.09	40197.53
790.28	39433.64
790.46	39998.88
790.64	39847.33
790.82	39738.79
791.00	39736.74
791.18	39458.21
791.36	39228.84
791.55	39470.50
791.73	39290.28
791.91	39413.16
792.09	39630.24
792.27	38864.30
792.45	39560.61
792.63	38890.93
792.81	38460.85
793.00	38700.47
793.18	39024.04
793.36	38442.42
793.54	38870.45
793.72	38155.71
793.90	38204.86
794.08	38237.62
794.26	38593.97
794.44	38272.44
794.62	38129.08
794.81	38229.43
794.99	37909.95
795.17	38184.38
795.35	37807.55
795.53	38053.31
795.71	38403.51
795.89	37938.62
796.07	37481.92
796.25	37770.69
796.43	37406.15
796.61	37221.83
796.80	37209.54
796.98	37260.74
797.16	37338.57
797.34	37295.56
797.52	37076.43
797.70	37596.61
797.88	36382.16
798.06	37141.96
798.24	36885.97
798.42	36494.80
798.60	37047.75
798.78	36406.74
798.96	36748.75
799.14	36642.26
799.32	36490.71
799.51	36195.80
799.69	36722.13
799.87	36650.45
800.05	36154.84
800.23	36603.35
800.41	35855.84
800.59	36038.11
800.77	35993.05
800.95	35524.07
801.13	35921.37
801.31	35710.43
801.49	35792.35
801.67	35526.11
801.85	35638.75
802.03	35333.60
802.21	35192.30
802.39	35165.67
802.57	34899.44
802.75	34926.06
802.93	35050.99
803.11	34739.69
803.29	35020.27
803.47	34514.42
803.65	34698.73
803.83	34913.77
804.01	34528.75
804.19	34477.55
804.37	34004.47
804.55	34160.12
804.73	33852.92
804.91	34356.72
805.09	34168.31
805.27	34014.71
805.45	34399.73
805.63	34227.70
805.81	33930.75
805.99	34362.87
806.17	34020.86
806.35	34192.89
806.53	33799.68
806.71	33879.55
806.89	33592.83
807.07	33920.51
807.25	33437.19
807.43	33467.91
807.61	33568.26
807.79	33687.04
807.97	33101.32
808.15	33103.37
808.33	33256.96
808.51	33086.98
808.69	32998.92
808.87	32792.08
809.05	32802.32
809.23	32732.68
809.41	32413.20
809.59	32419.35
809.77	32738.83
809.95	32273.94
810.13	32472.59
810.31	32331.28
810.49	32353.81
810.67	32390.67
810.84	32169.49
811.02	32345.62
811.20	32030.23
811.38	31944.22
811.56	31735.32
811.74	31999.51
811.92	31919.64
812.10	31893.02
812.28	32224.79
812.46	31827.48
812.64	31876.63
812.82	31772.19
813.00	31919.64
813.18	31839.77
813.36	31794.71
813.53	31682.08
813.71	31327.78
813.89	31028.77
814.07	31430.18
814.25	31610.40
814.43	31241.76
814.61	31311.39
814.79	31321.63
814.97	30934.57
815.15	31100.45
815.33	30721.58
815.50	30699.05
815.68	30492.21
815.86	31227.43
816.04	30400.05
816.22	30694.96
816.40	30598.70
816.58	30807.59
816.76	30273.07
816.94	30668.33
817.11	30293.55
817.29	30410.29
817.47	30359.09
817.65	30230.07
817.83	30467.63
818.01	30019.13
818.19	30207.54
818.37	30455.34
818.54	29943.35
818.72	29836.86
818.90	30365.23
819.08	30070.33
819.26	29793.85
819.44	29826.62
819.62	29939.26
819.80	29834.81
819.97	29814.33
820.15	29707.83
820.33	29527.61
820.51	29625.92
820.69	29298.24
820.87	29584.96
821.05	29630.01
821.22	29316.67
821.40	29380.16
821.58	29273.67
821.76	29417.02
821.94	29122.12
822.12	28816.97
822.29	29118.02
822.47	29132.36
822.65	29193.79
822.83	29216.32
823.01	28968.52
823.19	29226.56
823.36	28735.05
823.54	28800.58
823.72	28499.53
823.90	28487.25
824.08	28933.70
824.25	28849.74
824.43	28601.93
824.61	28624.46
824.79	28663.37
824.97	28573.26
825.15	28733.00
825.32	28184.15
825.50	27901.53
825.68	28274.26
825.86	28403.28
826.04	28487.25
826.21	28030.55
826.39	28567.12
826.57	28290.64
826.75	28180.05
826.93	28063.32
827.10	28143.19
827.28	28288.59
827.46	28208.72
827.64	28104.28
827.81	27881.05
827.99	28255.82
828.17	27772.50
828.35	27704.92
828.53	27840.09
828.70	27698.78
828.88	27741.78
829.06	27729.50
829.24	27932.25
829.41	27756.12
829.59	27639.39
829.77	27772.50
829.95	27532.89
830.12	27362.91
830.30	27682.39
830.48	27383.39
830.66	27745.88
830.84	27317.86
831.01	27287.14
831.19	27510.36
831.37	27307.62
831.55	27170.40
831.72	27197.02
831.90	27317.86
832.08	26934.88
832.25	26889.83
832.43	27268.70
832.61	26707.56
832.79	26689.13
832.96	26881.64
833.14	26725.99
833.32	26992.23
833.50	27080.29
833.67	26783.34
833.85	26498.67
834.03	26601.07
834.20	26926.69
834.38	26769.00
834.56	26717.80
834.74	26353.26
834.91	26674.79
835.09	26566.25
835.27	26099.31
835.44	26486.38
835.62	25941.62
835.80	25964.15
835.98	26429.04
836.15	26117.75
836.33	26207.86
836.51	26293.87
836.68	25980.53
836.86	26146.42
837.04	26226.29
837.21	26127.99
837.39	26144.37
837.57	26250.86
837.75	26291.82
837.92	25876.09
838.10	25460.35
838.28	25790.07
838.45	25988.72
838.63	25761.40
838.81	25747.06
838.98	25425.53
839.16	25687.67
839.34	25687.67
839.51	25708.15
839.69	25521.79
839.87	25374.33
840.04	25663.10
840.22	25640.57
840.40	25489.02
840.57	25345.66
840.75	25558.65
840.93	24972.93
841.10	25339.52
841.28	25710.20
841.46	25325.18
841.63	25585.27
841.81	25005.70
841.98	25364.09
842.16	25183.87
842.34	25230.98
842.51	24684.17
842.69	25063.04
842.87	24811.14
843.04	24907.40
843.22	24757.89
843.40	25071.23
843.57	24618.63
843.75	24747.65
843.92	24913.54
844.10	25022.08
844.28	24706.70
844.45	25052.80
844.63	25243.26
844.81	24739.46
844.98	24745.61
845.16	24391.31
845.33	24520.33
845.51	24524.43
845.69	24635.02
845.86	24350.35
846.04	24274.57
846.21	24080.02
846.39	24084.11
846.57	24266.38
846.74	24137.36
846.92	24655.50
847.09	24272.53
847.27	24284.81
847.45	24225.42
847.62	24305.29
847.80	24026.77
847.97	24178.32
848.15	24080.02
848.32	23934.61
848.50	24198.80
848.68	23846.55
848.85	23815.83
849.03	23680.66
849.20	23854.74
849.38	23684.76
849.56	23568.02
849.73	23621.27
849.91	23795.35
850.08	24045.20
850.26	23717.53
850.43	23817.88
850.61	23715.48
850.78	23322.27
850.96	23406.23
851.14	22912.67
851.31	23457.43
851.49	23328.41
851.66	23660.18
851.84	23266.97
852.01	23578.26
852.19	23373.47
852.36	23166.62
852.54	23060.13
852.71	23293.60
852.89	23402.14
853.07	23271.07
853.24	22994.59
853.42	22994.59
853.59	23316.12
853.77	23072.42
853.94	23015.07
854.12	23342.75
854.29	22912.67
854.47	23076.51
854.64	22800.04
854.82	22886.05
854.99	22812.32
855.17	22863.52
855.34	22746.79
855.52	22922.91
855.69	22603.43
855.87	22711.97
856.04	22437.55
856.22	22216.36
856.39	22136.49
856.57	22478.50
856.74	22490.79
856.92	22722.21
857.09	22240.94
857.27	22492.84
857.44	22613.67
857.62	22222.51
857.79	22668.97
857.97	22177.45
858.14	22513.32
858.32	22322.86
858.49	22384.30
858.67	22073.01
858.84	21806.77
859.02	21974.70
859.19	22218.41
859.37	21817.01
859.54	22034.10
859.72	22257.32
859.89	21923.51
860.06	21933.75
860.24	21892.79
860.41	22134.45
860.59	21845.68
860.76	21931.70
860.94	21472.95
861.11	21872.31
861.29	21604.02
861.46	21880.50
861.64	21518.01
861.81	21372.60
861.98	21431.99
862.16	21475.00
862.33	21296.83
862.51	21214.91
862.68	21477.05
862.86	21370.55
863.03	21460.66
863.21	21413.56
863.38	21143.23
863.55	21298.88
863.73	21051.07
863.90	21114.56
864.08	21055.17
864.25	21098.17
864.43	21049.02
864.60	21237.44
864.77	20735.68
864.95	21159.61
865.12	20879.04
865.30	20883.14
865.47	20647.62
865.64	20840.13
865.82	20895.43
865.99	20895.43
866.17	20692.68
866.34	21026.50
866.51	20143.82
866.69	20891.33
866.86	20408.01
867.04	20893.38
867.21	20440.78
867.38	20649.67
867.56	20354.76
867.73	20399.82
867.91	20270.79
868.08	20248.27
868.25	20213.45
868.43	20213.45
868.60	20129.48
868.78	20131.53
868.95	20223.69
869.12	20139.72
869.30	19990.22
869.47	20227.79
869.64	20031.18
869.82	19812.05
869.99	19926.74
870.16	20160.20
870.34	19973.84
870.51	20117.20
870.69	19734.23
870.86	19650.26
871.03	19853.01
871.21	19779.28
871.38	20090.57
871.55	19658.45
871.73	19654.36
871.90	19603.16
872.07	19424.98
872.25	19250.91
872.42	19336.92
872.59	19396.31
872.77	19381.98
872.94	19201.76
873.11	19105.50
873.29	19226.33
873.46	19195.61
873.63	19357.40
873.81	19228.38
873.98	19085.02
874.15	19089.12
874.33	18573.03
874.50	18839.26
874.67	18980.57
874.85	18521.83
875.02	18585.32
875.19	18599.65
875.37	18515.69
875.54	18439.91
875.71	18433.77
875.88	18507.49
876.06	18829.02
876.23	18798.31
876.40	18390.76
876.58	18343.66
876.75	18269.93
876.92	18677.48
877.10	18200.30
877.27	18169.58
877.44	18075.37
877.61	18190.06
877.79	18140.91
877.96	18024.17
878.13	17882.86
878.31	17764.08
878.48	18065.13
878.65	17780.46
878.82	17966.83
879.00	18120.43
879.17	17802.99
879.34	17805.04
879.51	17751.79
879.69	17735.41
879.86	17940.21
880.03	17585.91
880.21	17495.80
880.38	17628.92
880.55	17622.77
880.72	17493.75
880.90	17497.84
881.07	17434.36
881.24	17497.84
881.41	17452.79
881.59	17344.25
881.76	17407.73
881.93	17145.59
882.10	17202.94
882.28	17114.87
882.45	17389.30
882.62	17202.94
882.79	17168.12
882.96	17024.76
883.14	17170.17
883.31	17313.53
883.48	17024.76
883.65	17182.46
883.83	17305.34
884.00	17014.52
884.17	16762.62
884.34	17067.77
884.51	16834.30
884.69	16948.99
884.86	16916.22
885.03	17071.87
885.20	16467.72
885.38	16828.16
885.55	16697.09
885.72	16582.40
885.89	16731.90
886.06	16635.65
886.24	16623.36
886.41	16699.14
886.58	16670.47
886.75	16748.29
886.92	16391.94
887.10	16799.49
887.27	16561.92
887.44	16443.14
887.61	16543.49
887.78	16641.79
887.95	16502.53
888.13	16375.56
888.30	16164.62
888.47	16168.71
888.64	16289.54
888.81	16361.22
888.99	16252.68
889.16	16156.43
889.33	16166.67
889.50	15994.64
889.67	16156.43
889.84	16111.37
890.01	15931.15
890.19	16011.02
890.36	16002.83
890.53	15965.96
890.70	15705.87
890.87	15705.87
891.04	15691.54
891.22	15931.15
891.39	15738.64
891.56	15720.21
891.73	15464.21
891.90	15597.33
892.07	15546.13
892.24	15566.61
892.42	15533.84
892.59	15628.05
892.76	15367.96
892.93	15449.88
893.10	15697.68
893.27	15492.88
893.44	15232.79
893.61	15406.87
893.79	15838.99
893.96	15376.15
894.13	15451.92
894.30	15349.53
894.47	15535.89
894.64	15605.52
894.81	15343.38
894.98	15154.97
895.15	15410.96
895.33	15302.42
895.50	15173.40
895.67	15437.59
895.84	15359.77
896.01	15382.29
896.18	15212.31
896.35	15351.57
896.52	15079.19
896.69	14946.08
896.86	15257.37
897.04	15087.39
897.21	15007.52
897.38	15165.21
897.55	15099.67
897.72	15159.06
897.89	15152.92
898.06	15253.27
898.23	15105.82
898.40	14976.80
898.57	15281.94
898.74	15361.81
898.91	15054.62
899.08	15218.46
899.26	15132.44
899.43	15152.92
899.60	15148.82
899.77	15175.45
899.94	14958.36
900.11	15093.53
900.28	15154.97
900.45	14874.40
900.62	15040.28
900.79	15212.31
900.96	15259.42
901.13	15197.98
901.30	14688.03
901.47	14870.30
901.64	15073.05
901.81	15077.15
901.98	14931.74
902.15	14860.06
902.32	14931.74
902.49	15148.82
902.66	15107.87
902.83	15027.99
903.01	15093.53
903.18	15159.06
903.35	14931.74
903.52	14933.79
903.69	15095.58
903.86	15003.42
904.03	14837.53
904.20	15058.71
904.37	15025.95
904.54	14806.81
904.71	14751.52
904.88	14839.58
905.05	15032.09
905.22	14884.64
905.39	14929.69
905.56	14817.05
905.73	14837.53
905.90	14872.35
906.07	14960.41
906.24	14724.90
906.41	14802.72
906.58	14939.93
906.75	14937.88
906.92	14884.64
907.09	14948.12
907.26	14733.09
907.43	14690.08
907.60	14767.90
907.77	14882.59
907.93	14843.68
908.10	14978.84
908.27	14870.30
908.44	14593.83
908.61	14612.26
908.78	14663.46
908.95	14882.59
909.12	14878.49
909.29	14624.54
909.46	14749.47
909.63	14849.82
909.80	14563.11
909.97	14743.33
910.14	14602.02
910.31	14780.19
910.48	14573.35
910.65	14675.74
910.82	14630.69
910.99	14688.03
911.16	14714.66
911.33	14583.59
911.50	14429.99
911.66	14337.83
911.83	14403.36
912.00	14452.52
912.17	14460.71
912.34	14567.20
912.51	14118.70
912.68	14294.82
912.85	14458.66
913.02	14184.23
913.19	14171.94
913.36	14280.49
913.53	14393.12
913.70	14051.11
913.86	14321.45
914.03	14042.92
914.20	13989.67
914.37	14202.66
914.54	14311.21
914.71	14337.83
914.88	13985.58
915.05	13883.18
915.22	14096.17
915.39	14067.50
915.55	14010.15
915.72	13788.97
915.89	13879.08
916.06	13825.84
916.23	13915.95
916.40	13680.43
916.57	13657.90
916.74	13735.73
916.91	13418.29
917.07	13295.41
917.24	13436.72
917.41	13485.87
917.58	13668.14
917.75	13512.50
917.92	13410.10
918.09	13555.51
918.26	13375.28
918.42	13387.57
918.59	13184.82
918.76	13309.75
918.93	13115.19
919.10	13041.46
919.27	13088.57
919.44	13231.93
919.60	13293.37
919.77	12941.11
919.94	12894.01
920.11	12990.27
920.28	13029.18
920.45	13029.18
920.61	12877.63
920.78	12777.28
920.95	12582.72
921.12	12783.42
921.29	12498.75
921.46	12638.02
921.62	12523.33
921.79	12535.62
921.96	12496.71
922.13	12459.84
922.30	12564.29
922.47	12461.89
922.63	12564.29
922.80	12334.92
922.97	12138.31
923.14	12207.94
923.31	12457.79
923.47	12064.58
923.64	12361.54
923.81	11753.29
923.98	11843.40
924.15	11861.84
924.32	11913.03
924.48	11927.37
924.65	12009.29
924.82	11812.68
924.99	11583.31
925.15	11464.53
925.32	11693.90
925.49	11536.21
925.66	11636.56
925.83	11433.81
925.99	11452.24
926.16	11530.06
926.33	11421.52
926.50	11208.53
926.67	11478.86
926.83	11208.53
927.00	11372.37
927.17	11218.77
927.34	11267.92
927.50	11171.67
927.67	11251.54
927.84	11136.85
928.01	11208.53
928.17	10956.63
928.34	11069.27
928.51	10874.71
928.68	10686.30
928.84	11030.36
929.01	10663.77
929.18	10581.85
929.35	10663.77
929.51	10473.31
929.68	10479.46
929.85	10512.22
930.02	10518.37
930.18	10434.40
930.35	10448.74
930.52	10409.83
930.69	10327.91
930.85	10377.06
931.02	10291.04
931.19	10084.20
931.36	10139.49
931.52	10092.39
931.69	10248.04
931.86	9924.46
932.02	9873.26
932.19	9852.78
932.36	9987.94
932.53	9742.19
932.69	9777.00
932.86	9873.26
933.03	9705.32
933.19	9615.21
933.36	9817.96
933.53	9670.51
933.70	9541.49
933.86	9686.89
934.03	9391.98
934.20	9377.65
934.36	9404.27
934.53	8976.25
934.70	9140.08
934.86	9004.92
935.03	8888.18
935.20	8994.68
935.36	9117.56
935.53	8808.31
935.70	8767.35
935.86	8728.44
936.03	8628.09
936.20	8503.17
936.36	8603.52
936.53	8398.72
936.70	8392.58
936.86	8509.31
937.03	8331.14
937.20	8128.39
937.36	8193.92
937.53	7901.06
937.70	8091.52
937.86	7829.38
938.03	7780.23
938.20	7741.32
938.36	7692.17
938.53	7575.44
938.70	7434.13
938.86	7645.07
939.03	7442.32
939.20	7264.15
939.36	7090.07
939.53	7225.23
939.70	7260.05
939.86	6748.06
940.03	6860.70
940.19	6795.16
940.36	6811.54
940.53	6629.27
940.69	6561.69
940.86	6647.71
941.03	6418.33
941.19	6262.69
941.36	6317.98
941.52	6242.21
941.69	6156.19
941.86	6096.80
942.02	6113.19
942.19	6043.56
942.35	5988.26
942.52	5875.62
942.69	5857.19
942.85	5787.56
943.02	5869.48
943.18	5867.43
943.35	5734.31
943.52	5644.20
943.68	5652.39
943.85	5595.05
944.01	5543.85
944.18	5412.78
944.35	5590.95
944.51	5402.54
944.68	5476.27
944.84	5525.42
945.01	5361.58
945.17	5492.65
945.34	5560.24
945.51	5328.81
945.67	5420.97
945.84	5291.95
946.00	5326.77
946.17	5445.55
946.33	5312.43
946.50	5341.10
946.67	5357.49
946.83	5341.10
947.00	5390.25
947.16	5232.56
947.33	5212.08
947.49	5128.11
947.66	5242.80
947.82	5339.05
947.99	5320.62
948.16	5281.71
948.32	5230.51
948.49	5279.66
948.65	5228.46
948.82	5214.13
948.98	5214.13
949.15	5154.74
949.31	5263.28
949.48	5294.00
949.64	5191.60
949.81	5261.23
949.97	5205.94
950.14	5296.05
950.30	5242.80
950.47	5435.31
950.63	5244.85
950.80	5365.68
950.96	5388.21
951.13	5248.94
951.30	5308.34
951.46	5283.76
951.63	5380.01
951.79	5484.46
951.96	5517.23
952.12	5337.01
952.29	5435.31
952.45	5334.96
952.62	5332.91
952.78	5506.99
952.94	5474.22
953.11	5330.86
953.27	5316.53
953.44	5517.23
953.60	5308.34
953.77	5298.10
953.93	5478.32
954.10	5337.01
954.26	5318.57
954.43	5373.87
954.59	5361.58
954.76	5439.40
954.92	5318.57
955.09	5412.78
955.25	5361.58
955.42	5363.63
955.58	5550.00
955.75	5406.64
955.91	5373.87
956.07	5447.60
956.24	5414.83
956.40	5535.66
956.57	5595.05
956.73	5400.49
956.90	5408.69
957.06	5418.93
957.23	5386.16
957.39	5506.99
957.56	5416.88
957.72	5437.36
957.88	5357.49
958.05	5597.10
958.21	5433.26
958.38	5550.00
958.54	5488.56
958.71	5631.91
958.87	5357.49
959.03	5380.01
959.20	5457.84
959.36	5416.88
959.53	5451.69
959.69	5304.24
959.85	5529.52
960.02	5330.86
960.18	5390.25
960.35	5578.67
960.51	5629.87
960.68	5504.94
960.84	5408.69
961.00	5345.20
961.17	5470.12
961.33	5439.40
961.50	5521.32
961.66	5412.78
961.82	5353.39
961.99	5488.56
962.15	5392.30
962.31	5451.69
962.48	5443.50
962.64	5566.38
962.81	5466.03
962.97	5353.39
963.13	5406.64
963.30	5365.68
963.46	5310.38
963.62	5396.40
963.79	5294.00
963.95	5318.57
964.12	5369.77
964.28	5439.40
964.44	5418.93
964.61	5314.48
964.77	5351.34
964.93	5459.88
965.10	5349.29
965.26	5212.08
965.42	5291.95
965.59	5384.11
965.75	5337.01
965.92	5339.05
966.08	5384.11
966.24	5308.34
966.41	5322.67
966.57	5222.32
966.73	5302.19
966.90	5259.18
967.06	5236.66
967.22	5418.93
967.39	5218.22
967.55	5226.42
967.71	5242.80
967.88	5234.61
968.04	5384.11
968.20	5195.70
968.37	5242.80
968.53	5115.83
968.69	5109.68
968.85	5214.13
969.02	5302.19
969.18	5140.40
969.34	5218.22
969.51	5300.14
969.67	5152.69
969.83	5083.06
970.00	5205.94
970.16	5164.98
970.32	5173.17
970.48	5232.56
970.65	5207.98
970.81	5148.59
970.97	5011.38
971.14	5025.72
971.30	5150.64
971.46	5169.07
971.63	4966.32
971.79	4995.00
971.95	5001.14
972.11	4986.80
972.28	5099.44
972.44	5091.25
972.60	4913.08
972.76	4972.47
972.93	4995.00
973.09	5134.26
973.25	5035.96
973.42	4861.88
973.58	4894.65
973.74	4968.37
973.90	5072.82
974.07	4802.49
974.23	4845.49
974.39	4878.26
974.55	4890.55
974.72	4773.82
974.88	4722.62
975.04	4759.48
975.20	4794.29
975.37	4841.40
975.53	4788.15
975.69	4726.71
975.85	4829.11
976.01	4730.81
976.18	4700.09
976.34	4702.14
976.50	4695.99
976.66	4726.71
976.83	4843.45
976.99	4779.96
977.15	4841.40
977.31	4622.27
977.47	4679.61
977.64	4710.33
977.80	4747.19
977.96	4663.22
978.12	4718.52
978.29	4581.31
978.45	4497.34
978.61	4560.83
978.77	4657.08
978.93	4480.96
979.10	4429.76
979.26	4583.35
979.42	4589.50
979.58	4450.24
979.74	4503.48
979.91	4569.02
980.07	4413.37
980.23	4591.55
980.39	4456.38
980.55	4442.04
980.71	4448.19
980.88	4413.37
981.04	4403.13
981.20	4425.66
981.36	4501.44
981.52	4403.13
981.68	4310.97
981.85	4378.56
982.01	4288.45
982.17	4364.22
982.33	4372.41
982.49	4337.60
982.65	4329.41
982.82	4386.75
982.98	4306.88
983.14	4202.43
983.30	4396.99
983.46	4270.01
983.62	4229.06
983.79	4237.25
983.95	4270.01
984.11	4104.13
984.27	4233.15
984.43	4249.54
984.59	4190.14
984.75	4313.02
984.91	4177.86
985.08	4259.78
985.24	4263.87
985.40	4130.75
985.56	4145.09
985.72	4245.44
985.88	4165.57
986.04	4120.51
986.20	4001.73
986.37	4114.37
986.53	4009.92
986.69	4220.86
986.85	4116.42
987.01	3960.77
987.17	4059.07
987.33	4016.07
987.49	3979.20
987.65	4063.17
987.82	4016.07
987.98	3995.59
988.14	3993.54
988.30	3925.96
988.46	3964.87
988.62	3899.33
988.78	3874.76
988.94	3893.19
989.10	3889.09
989.26	3860.42
989.42	3862.47
989.59	3872.71
989.75	3809.22
989.91	3850.18
990.07	3811.27
990.23	3831.75
990.39	3846.09
990.55	3909.57
990.71	3721.16
990.87	3829.70
991.03	3848.13
991.19	3749.83
991.35	3776.45
991.51	3772.36
991.67	3780.55
991.83	3772.36
992.00	3700.68
992.16	3805.13
992.32	3821.51
992.48	3827.65
992.64	3665.86
992.80	3727.30
992.96	3667.91
993.12	3731.40
993.28	3735.50
993.44	3590.09
993.60	3637.19
993.76	3768.26
993.92	3661.77
994.08	3721.16
994.24	3784.65
994.40	3600.33
994.56	3618.76
994.72	3622.86
994.88	3524.55
995.04	3633.10
995.20	3596.23
995.36	3610.57
995.52	3497.93
995.68	3499.98
995.84	3456.97
996.00	3635.14
996.16	3542.99
996.32	3532.75
996.48	3536.84
996.64	3655.62
996.80	3448.78
996.96	3553.23
997.12	3526.60
997.28	3379.15
997.44	3411.92
997.60	3469.26
997.76	3395.53
997.92	3403.72
998.08	3491.79
998.24	3387.34
998.40	3391.44
998.56	3475.40
998.72	3227.60
998.88	3373.00
999.04	3336.14
999.20	3411.92
999.36	3334.09
999.52	3491.79
999.68	3387.34
999.84	3397.58
1000.00	3350.48
1000.16	3352.52
1000.32	3246.03
1000.48	3485.64
1000.64	3186.64
1000.80	3198.93
1000.95	3174.35
1001.11	3282.89
1001.27	3114.96
1001.43	3266.51
1001.59	3151.82
1001.75	3153.87
1001.91	3248.08
1002.07	3188.69
1002.23	3104.72
1002.39	3155.92
1002.55	3086.29
1002.71	3121.10
1002.87	3155.92
1003.03	3051.47
1003.19	3135.44
1003.34	3192.78
1003.50	3145.68
1003.66	3227.60
1003.82	3160.02
1003.98	3020.75
1004.14	3049.43
1004.30	3074.00
1004.46	3055.57
1004.62	3065.81
1004.78	3076.05
1004.94	3055.57
1005.09	3088.34
1005.25	3071.95
1005.41	3000.27
1005.57	2985.94
1005.73	3022.80
1005.89	2906.07
1006.05	3024.85
1006.21	3016.66
1006.37	2912.21
1006.52	2930.64
1006.68	2842.58
1006.84	2994.13
1007.00	2916.31
1007.16	2977.75
1007.32	2826.20
1007.48	2969.55
1007.64	2854.87
1007.79	2863.06
1007.95	2797.53
1008.11	2953.17
1008.27	2854.87
1008.43	2834.39
1008.59	2830.29
1008.75	2766.81
1008.91	2811.86
1009.06	2758.61
1009.22	2854.87
1009.38	2834.39
1009.54	2781.14
1009.70	2834.39
1009.86	2865.11
1010.01	2858.96
1010.17	2731.99
1010.33	2889.68
1010.49	2789.33
1010.65	2877.40
1010.81	2721.75
1010.96	2748.37
1011.12	2736.09
1011.28	2703.32
1011.44	2762.71
1011.60	2746.33
1011.76	2691.03
1011.91	2766.81
1012.07	2731.99
1012.23	2600.92
1012.39	2635.74
1012.55	2703.32
1012.71	2668.50
1012.86	2605.02
1013.02	2639.83
1013.18	2619.35
1013.34	2678.74
1013.50	2664.41
1013.65	2686.94
1013.81	2598.87
1013.97	2615.26
1014.13	2707.41
1014.29	2572.25
1014.44	2656.22
1014.60	2529.24
1014.76	2605.02
1014.92	2609.11
1015.07	2691.03
1015.23	2633.69
1015.39	2541.53
1015.55	2557.91
1015.71	2541.53
1015.86	2486.23
1016.02	2584.54
1016.18	2498.52
1016.34	2592.73
1016.49	2445.27
1016.65	2586.58
1016.81	2478.04
1016.97	2521.05
1017.12	2584.54
1017.28	2555.86
1017.44	2408.41
1017.60	2482.14
1017.75	2443.23
1017.91	2484.19
1018.07	2475.99
1018.23	2490.33
1018.38	2475.99
1018.54	2336.73
1018.70	2418.65
1018.86	2353.12
1019.01	2398.17
1019.17	2408.41
1019.33	2478.04
1019.49	2430.94
1019.64	2449.37
1019.80	2381.79
1019.96	2498.52
1020.12	2422.75
1020.27	2365.40
1020.43	2430.94
1020.59	2363.36
1020.74	2392.03
1020.90	2473.95
1021.06	2250.72
1021.22	2340.83
1021.37	2387.93
1021.53	2287.58
1021.69	2387.93
1021.84	2308.06
1022.00	2328.54
1022.16	2342.88
1022.31	2318.30
1022.47	2387.93
1022.63	2332.64
1022.79	2179.04
1022.94	2289.63
1023.10	2408.41
1023.26	2291.68
1023.41	2322.40
1023.57	2222.05
1023.73	2314.20
1023.88	2271.20
1024.04	2185.18
1024.20	2183.13
1024.35	2248.67
1024.51	2236.38
1024.67	2215.90
1024.82	2287.58
1024.98	2133.98
1025.14	2283.49
1025.29	2189.28
1025.45	2279.39
1025.61	2148.32
1025.76	2146.27
1025.92	2215.90
1026.08	2260.96
1026.23	2220.00
1026.39	2260.96
1026.55	2115.55
1026.70	2258.91
1026.86	2211.81
1027.02	2176.99
1027.17	2125.79
1027.33	2156.51
1027.48	2125.79
1027.64	2203.61
1027.80	2195.42
1027.95	2176.99
1028.11	2039.78
1028.27	2074.59
1028.42	2187.23
1028.58	2080.74
1028.73	2127.84
1028.89	2101.22
1029.05	2224.09
1029.20	2109.41
>>>>>End Processed Spectral Data<<<<<
