SpectraSuite Data File
++++++++++++++++++++++++++++++++++++
Date: Fri Jun 02 14:49:29 CEST 2017
User: INFO_000
Dark Spectrum Present: No
Reference Spectrum Present: No
Number of Sampled Component Spectra: 1
Spectrometers: USB4H00879
Integration Time (usec): 80000 (USB4H00879)
Spectra Averaged: 1 (USB4H00879)
Boxcar Smoothing: 0 (USB4H00879)
Correct for Electrical Dark: No (USB4H00879)
Strobe/Lamp Enabled: No (USB4H00879)
Correct for Detector Non-linearity: No (USB4H00879)
Correct for Stray Light: No (USB4H00879)
Number of Pixels in Processed Spectrum: 3648
>>>>>Begin Processed Spectral Data<<<<<
345.13	1300.46
345.34	1300.46
345.56	1300.46
345.78	1279.98
345.99	1327.08
346.21	1753.06
346.42	1763.30
346.64	1652.71
346.86	1742.82
347.07	1720.29
347.29	1658.85
347.50	1626.09
347.72	1660.90
347.94	1708.01
348.15	1552.36
348.37	1593.32
348.59	1665.00
348.80	1665.00
349.02	1701.86
349.23	1832.93
349.45	1802.21
349.67	1867.75
349.88	1853.41
350.10	1966.05
350.31	1859.56
350.53	1789.92
350.75	1947.62
350.96	1796.07
351.18	1882.08
351.39	1748.97
351.61	1855.46
351.82	1904.61
352.04	1884.13
352.26	1751.01
352.47	1816.55
352.69	1839.08
352.90	1724.39
353.12	1816.55
353.34	1837.03
353.55	1939.43
353.77	1863.65
353.98	1871.84
354.20	1828.84
354.41	1886.18
354.63	2000.87
354.85	2009.06
355.06	1912.80
355.28	1847.27
355.49	1888.23
355.71	1822.69
355.92	1847.27
356.14	1931.23
356.35	1855.46
356.57	1867.75
356.79	1933.28
357.00	1894.37
357.22	2013.15
357.43	1845.22
357.65	1867.75
357.86	1839.08
358.08	1929.19
358.29	1953.76
358.51	1957.86
358.72	1847.27
358.94	1966.05
359.16	1945.57
359.37	1947.62
359.59	1951.71
359.80	1941.47
360.02	1910.75
360.23	1974.24
360.45	1949.67
360.66	1916.90
360.88	1900.52
361.09	1898.47
361.31	2029.54
361.52	1935.33
361.74	2060.26
361.95	2033.63
362.17	1974.24
362.38	2086.88
362.60	2023.39
362.81	2031.58
363.03	1988.58
363.24	1998.82
363.46	2125.79
363.67	1951.71
363.89	1918.95
364.10	2013.15
364.32	1888.23
364.53	2064.35
364.75	1978.34
364.96	2027.49
365.18	2029.54
365.39	2023.39
365.61	2027.49
365.82	2062.30
366.04	2047.97
366.25	1927.14
366.47	2105.31
366.68	2093.02
366.90	1986.53
367.11	2136.03
367.33	2086.88
367.54	2154.46
367.76	2039.78
367.97	2095.07
368.19	2076.64
368.40	2113.50
368.62	1990.63
368.83	1945.57
369.05	2027.49
369.26	2015.20
369.48	1974.24
369.69	1953.76
369.91	2054.11
370.12	2050.02
370.33	2144.22
370.55	1929.19
370.76	2019.30
370.98	2082.78
371.19	1992.67
371.41	2043.87
371.62	2152.42
371.84	2027.49
372.05	2115.55
372.27	2031.58
372.48	1980.39
372.69	2027.49
372.91	2166.75
373.12	2136.03
373.34	2121.70
373.55	2138.08
373.77	2195.42
373.98	2111.46
374.20	2199.52
374.41	2207.71
374.62	2170.85
374.84	2222.05
375.05	2170.85
375.27	2154.46
375.48	2113.50
375.70	2166.75
375.91	2232.29
376.12	2240.48
376.34	2136.03
376.55	2240.48
376.77	2213.85
376.98	2011.11
377.19	2140.13
377.41	2185.18
377.62	2160.61
377.84	2263.01
378.05	2279.39
378.27	2142.18
378.48	2363.36
378.69	2338.78
378.91	2306.01
379.12	2154.46
379.34	2254.81
379.55	2359.26
379.76	2367.45
379.98	2183.13
380.19	2222.05
380.41	2246.62
380.62	2271.20
380.83	2275.29
381.05	2226.14
381.26	2498.52
381.47	2191.33
381.69	2295.77
381.90	2359.26
382.12	2314.20
382.33	2295.77
382.54	2312.16
382.76	2297.82
382.97	2326.49
383.19	2314.20
383.40	2351.07
383.61	2265.05
383.83	2295.77
384.04	2295.77
384.25	2461.66
384.47	2416.60
384.68	2289.63
384.89	2377.69
385.11	2248.67
385.32	2351.07
385.54	2410.46
385.75	2377.69
385.96	2506.71
386.18	2443.23
386.39	2424.80
386.60	2416.60
386.82	2379.74
387.03	2383.84
387.24	2488.28
387.46	2400.22
387.67	2449.37
387.88	2455.51
388.10	2478.04
388.31	2527.19
388.52	2564.06
388.74	2512.86
388.95	2451.42
389.16	2447.32
389.38	2432.99
389.59	2531.29
389.80	2617.30
390.02	2598.87
390.23	2674.65
390.44	2523.10
390.66	2600.92
390.87	2525.15
391.08	2586.58
391.30	2705.37
391.51	2578.39
391.72	2703.32
391.94	2645.98
392.15	2658.26
392.36	2645.98
392.58	2568.15
392.79	2535.39
393.00	2623.45
393.22	2746.33
393.43	2664.41
393.64	2789.33
393.85	2752.47
394.07	2629.59
394.28	2795.48
394.49	2625.50
394.71	2799.57
394.92	2906.07
395.13	2863.06
395.35	2783.19
395.56	2682.84
395.77	2686.94
395.98	2959.31
396.20	2904.02
396.41	2830.29
396.62	2893.78
396.84	2740.18
397.05	2795.48
397.26	2852.82
397.47	2881.49
397.69	2795.48
397.90	3069.91
398.11	2885.59
398.32	2846.68
398.54	2867.16
398.75	2838.48
398.96	2981.84
399.18	3053.52
399.39	3014.61
399.60	3063.76
399.81	2959.31
400.03	2977.75
400.24	3239.89
400.45	2912.21
400.66	3024.85
400.88	2965.46
401.09	3200.98
401.30	2969.55
401.51	3260.37
401.73	3164.11
401.94	3088.34
402.15	3170.26
402.36	3106.77
402.58	3110.86
402.79	3221.45
403.00	3184.59
403.21	3102.67
403.43	3119.06
403.64	3223.50
403.85	3098.58
404.06	3184.59
404.27	3125.20
404.49	3305.42
404.70	3084.24
404.91	3360.72
405.12	3217.36
405.34	3215.31
405.55	3420.11
405.76	3127.25
405.97	3137.49
406.19	3342.28
406.40	3307.47
406.61	3334.09
406.82	3379.15
407.03	3293.13
407.25	3295.18
407.46	3354.57
407.67	3416.01
407.88	3362.76
408.09	3356.62
408.31	3368.91
408.52	3426.25
408.73	3416.01
408.94	3364.81
409.15	3428.30
409.37	3456.97
409.58	3440.59
409.79	3534.79
410.00	3559.37
410.21	3416.01
410.43	3383.24
410.64	3399.63
410.85	3442.64
411.06	3672.01
411.27	3461.07
411.48	3624.90
411.70	3471.31
411.91	3461.07
412.12	3680.20
412.33	3588.04
412.54	3618.76
412.76	3635.14
412.97	3602.38
413.18	3477.45
413.39	3661.77
413.60	3678.15
413.81	3592.14
414.03	3590.09
414.24	3669.96
414.45	3798.98
414.66	3549.13
414.87	3727.30
415.08	3719.11
415.30	3743.69
415.51	3819.46
415.72	3739.59
415.93	3719.11
416.14	3694.54
416.35	3686.34
416.56	3844.04
416.78	3825.61
416.99	3766.21
417.20	3825.61
417.41	3844.04
417.62	3872.71
417.83	3985.35
418.04	3864.52
418.26	3854.28
418.47	3950.53
418.68	3950.53
418.89	3915.72
419.10	4157.38
419.31	3915.72
419.52	3934.15
419.73	3878.85
419.95	4016.07
420.16	3973.06
420.37	4050.88
420.58	4091.84
420.79	3891.14
421.00	4089.79
421.21	4157.38
421.42	4030.40
421.63	3997.64
421.85	4071.36
422.06	4222.91
422.27	4140.99
422.48	4050.88
422.69	4247.49
422.90	4276.16
423.11	4235.20
423.32	4188.10
423.53	4466.62
423.75	4208.58
423.96	4325.31
424.17	4360.13
424.38	4530.11
424.59	4300.73
424.80	4460.48
425.01	4339.65
425.22	4317.12
425.43	4431.80
425.64	4638.65
425.85	4569.02
426.06	4669.37
426.28	4478.91
426.49	4429.76
426.70	4577.21
426.91	4673.46
427.12	4747.19
427.33	4614.07
427.54	4718.52
427.75	4663.22
427.96	4755.38
428.17	4624.31
428.38	4851.64
428.59	4849.59
428.80	4761.53
429.01	4816.82
429.23	4751.29
429.44	5033.91
429.65	4863.93
429.86	4857.78
430.07	4716.47
430.28	4884.41
430.49	5001.14
430.70	5029.81
430.91	5038.00
431.12	5046.20
431.33	5207.98
431.54	5240.75
431.75	5107.63
431.96	5185.46
432.17	5175.22
432.38	5046.20
432.59	5410.73
432.80	5269.42
433.01	5238.70
433.22	5398.45
433.43	5463.98
433.64	5326.77
433.85	5283.76
434.06	5398.45
434.27	5156.79
434.49	5449.64
434.70	5291.95
434.91	5373.87
435.12	5506.99
435.33	5513.13
435.54	5457.84
435.75	5414.83
435.96	5451.69
436.17	5490.60
436.38	5601.19
436.59	5832.62
436.80	5509.04
437.01	5646.25
437.22	5740.46
437.43	5496.75
437.64	5466.03
437.85	5693.35
438.06	5808.04
438.27	5687.21
438.48	5597.10
438.69	5834.66
438.90	5865.38
439.11	5734.31
439.32	5738.41
439.53	5885.86
439.74	5975.97
439.95	5935.01
440.16	5898.15
440.37	5846.95
440.57	5939.11
440.78	5900.20
440.99	5920.68
441.20	5908.39
441.41	5885.86
441.62	6066.08
441.83	5967.78
442.04	6039.46
442.25	6041.51
442.46	6000.55
442.67	6143.91
442.88	6354.85
443.09	6029.22
443.30	6037.41
443.51	6197.15
443.72	6348.70
443.93	6010.79
444.14	6354.85
444.35	6123.43
444.56	6229.92
444.77	6174.63
444.98	6254.50
445.19	6367.13
445.40	6332.32
445.61	6305.70
445.81	6397.85
446.02	6516.64
446.23	6477.73
446.44	6358.94
446.65	6492.06
446.86	6397.85
447.07	6496.16
447.28	6598.56
447.49	6653.85
447.70	6545.31
447.91	6592.41
448.12	6516.64
448.33	6846.36
448.54	6670.23
448.74	6537.12
448.95	6737.82
449.16	6490.01
449.37	6858.65
449.58	6713.24
449.79	6823.83
450.00	6651.80
450.21	6731.67
450.42	6907.80
450.63	7069.59
450.84	6856.60
451.05	6963.09
451.25	6694.81
451.46	6827.93
451.67	7051.16
451.88	7059.35
452.09	7026.58
452.30	6891.41
452.51	7020.44
452.72	7217.04
452.93	7456.65
453.13	6864.79
453.34	7061.40
453.55	7151.51
453.76	7229.33
453.97	7389.07
454.18	7253.91
454.39	7374.74
454.60	7415.69
454.81	7368.59
455.01	7597.96
455.22	7225.23
455.43	7616.40
455.64	7704.46
455.85	7632.78
456.06	7907.21
456.27	7739.27
456.48	7583.63
456.68	7755.66
456.89	7720.84
457.10	8011.65
457.31	7860.10
457.52	7790.47
457.73	7944.07
457.94	8292.23
458.14	7958.41
458.35	8310.66
458.56	8126.34
458.77	8036.23
458.98	8157.06
459.19	8243.07
459.39	8384.38
459.60	8327.04
459.81	8288.13
460.02	8652.67
460.23	8419.20
460.44	8728.44
460.65	8554.37
460.85	8677.24
461.06	8652.67
461.27	8458.11
461.48	8886.14
461.69	8994.68
461.89	8662.91
462.10	8865.66
462.31	8783.74
462.52	8806.27
462.73	9121.65
462.94	9293.68
463.14	8974.20
463.35	8931.19
463.56	9590.64
463.77	9351.03
463.98	9213.81
464.18	9279.35
464.39	9482.10
464.60	9631.60
464.81	9592.69
465.02	9535.34
465.23	9758.57
465.43	9369.46
465.64	9969.51
465.85	9770.86
466.06	9711.47
466.27	10008.42
466.47	9998.18
466.68	10002.28
466.89	10164.07
467.10	10131.30
467.30	10024.81
467.51	9985.90
467.72	10430.30
467.93	10045.29
468.14	10383.20
468.34	10465.12
468.55	10518.37
468.76	10530.66
468.97	10569.57
469.17	10749.79
469.38	10921.82
469.59	10985.30
469.80	10841.95
470.01	10927.96
470.21	10784.60
470.42	11040.60
470.63	11054.94
470.84	11054.94
471.04	11188.05
471.25	11325.27
471.46	11425.62
471.67	11831.12
471.87	11591.50
472.08	11534.16
472.29	11839.31
472.50	11405.14
472.70	11689.81
472.91	11822.92
473.12	11827.02
473.33	11986.76
473.53	12388.16
473.74	12091.21
473.95	12281.67
474.16	12255.04
474.36	12476.23
474.57	12531.52
474.78	12699.45
474.99	12347.20
475.19	12504.90
475.40	12949.31
475.61	12945.21
475.81	13082.42
476.02	13240.12
476.23	12959.55
476.44	13182.77
476.64	13334.32
476.85	13807.41
477.06	13733.68
477.27	13680.43
477.47	13649.71
477.68	13758.25
477.89	13881.13
478.09	13965.10
478.30	13907.76
478.51	14020.39
478.71	14092.07
478.92	14270.25
479.13	14206.76
479.34	14513.95
479.54	14575.39
479.75	14473.00
479.96	14591.78
480.16	14800.67
480.37	14808.86
480.58	15259.42
480.78	15173.40
480.99	15111.96
481.20	15214.36
481.41	15245.08
481.61	15413.01
481.82	15521.56
482.03	15576.85
482.23	15580.95
482.44	15642.39
482.65	15865.61
482.85	15707.92
483.06	15984.40
483.27	15918.86
483.47	15853.33
483.68	16137.99
483.89	16396.04
484.09	16260.87
484.30	16486.15
484.51	16566.02
484.71	16535.30
484.92	16668.42
485.13	16875.26
485.33	17037.05
485.54	16862.97
485.75	16963.33
485.95	17329.91
486.16	17336.06
486.37	17436.41
486.57	17329.91
486.78	17282.81
486.98	17293.05
487.19	17602.29
487.40	17747.70
487.60	17929.97
487.81	17731.31
488.02	17964.78
488.22	17979.12
488.43	18235.11
488.64	18259.69
488.84	18325.22
489.05	18413.29
489.25	18487.01
489.46	18632.42
489.67	18618.08
489.87	18648.80
490.08	18904.80
490.29	18892.51
490.49	19164.89
490.70	19267.29
490.90	19205.85
491.11	19318.49
491.32	19351.26
491.52	19332.82
491.73	19711.70
491.94	19543.77
492.14	19609.30
492.35	19900.11
492.55	19721.94
492.76	19621.59
492.97	19947.22
493.17	19791.57
493.38	19898.06
493.58	20041.42
493.79	20305.61
494.00	20242.12
494.20	20399.82
494.41	20520.65
494.61	20715.20
494.82	20881.09
495.02	20565.70
495.23	20797.12
495.44	20854.47
495.64	21317.31
495.85	21147.33
496.05	21223.10
496.26	21178.04
496.47	21677.75
496.67	21585.59
496.88	21761.72
497.08	21452.47
497.29	22013.62
497.49	22042.29
497.70	21974.70
497.91	22019.76
498.11	22310.57
498.32	22023.86
498.52	22431.40
498.73	22150.83
498.93	22177.45
499.14	22443.69
499.34	22488.74
499.55	22816.42
499.76	22730.41
499.96	22955.68
500.17	22804.13
500.37	23002.78
500.58	22867.62
500.78	23279.26
500.99	23430.81
501.19	23430.81
501.40	23287.45
501.60	23127.71
501.81	23377.56
502.02	23398.04
502.22	23221.92
502.43	23766.68
502.63	23862.93
502.84	23854.74
503.04	23869.08
503.25	23950.99
503.45	24143.50
503.66	24288.91
503.86	23985.81
504.07	24442.51
504.27	24192.65
504.48	24483.47
504.68	25015.94
504.89	24839.81
505.09	24915.59
505.30	24876.68
505.50	24809.09
505.71	24805.00
505.91	24663.69
506.12	25071.23
506.32	25190.02
506.53	25173.63
506.73	25403.00
506.94	25468.54
507.14	25396.86
507.35	25241.21
507.55	25462.40
507.76	25640.57
507.96	25405.05
508.17	25556.60
508.37	25816.69
508.58	25609.85
508.78	26033.78
508.99	26228.34
509.19	25904.76
509.40	26285.68
509.60	26189.42
509.81	26220.14
510.01	26197.62
510.22	26066.55
510.42	26300.01
510.63	26746.47
510.83	26277.49
511.04	26592.87
511.24	26781.29
511.44	26783.34
511.65	26891.88
511.85	26660.46
512.06	26834.53
512.26	27068.00
512.47	26947.17
512.67	26994.28
512.88	27020.90
513.08	26639.98
513.29	27244.13
513.49	27450.97
513.69	27303.52
513.90	27266.66
514.10	27158.11
514.31	27295.33
514.51	27553.37
514.72	27319.90
514.92	27350.62
515.13	27762.26
515.33	27831.90
515.53	27924.05
515.74	27850.33
515.94	27987.54
516.15	27805.27
516.35	27944.53
516.56	28055.12
516.76	28071.51
516.96	28251.73
517.17	28477.01
517.37	28239.44
517.58	28208.72
517.78	28456.53
517.99	28507.72
518.19	28872.26
518.39	28833.35
518.60	28886.60
518.80	28714.57
519.01	29009.48
519.21	28778.06
519.41	29201.99
519.62	29072.96
519.82	29103.68
520.03	29027.91
520.23	29249.09
520.43	29355.58
520.64	29613.63
520.84	29687.36
521.05	29277.76
521.25	29558.33
521.45	29769.27
521.66	29537.85
521.86	29896.25
522.07	29515.33
522.27	30111.28
522.47	29697.59
522.68	30027.32
522.88	29689.40
523.08	30252.59
523.29	30115.38
523.49	30541.36
523.70	30756.39
523.90	30936.62
524.10	30420.53
524.31	30787.11
524.51	30576.17
524.71	30744.11
524.92	30516.78
525.12	30903.85
525.33	31008.29
525.53	30981.67
525.73	30922.28
525.94	31309.35
526.14	30881.32
526.34	31333.92
526.55	31464.99
526.75	31518.24
526.95	31841.82
527.16	31428.13
527.36	31381.03
527.56	31708.70
527.77	31847.96
527.97	31933.98
528.17	31626.78
528.38	32060.95
528.58	31979.03
528.78	32073.24
528.99	32157.21
529.19	32220.69
529.39	32243.22
529.60	32747.02
529.80	32392.72
530.00	32282.13
530.21	32364.05
530.41	33103.37
530.61	32730.64
530.82	32845.32
531.02	32837.13
531.22	32996.87
531.43	32755.21
531.63	33211.91
531.83	33250.82
532.04	33625.60
532.24	33580.54
532.44	33756.67
532.64	33549.82
532.85	33781.24
533.05	33914.36
533.25	33895.93
533.46	33713.66
533.66	34184.69
533.86	33996.28
534.07	34274.80
534.27	34121.21
534.47	34493.94
534.67	34659.82
534.88	34596.34
535.08	34743.79
535.28	34625.01
535.49	34901.48
535.69	34895.34
535.89	35223.01
536.09	34854.38
536.30	35304.93
536.50	35149.29
536.70	35022.31
536.91	35841.50
537.11	35509.73
537.31	35554.79
537.51	35456.48
537.72	35472.87
537.92	35818.97
538.12	36013.53
538.32	35804.64
538.53	35886.56
538.73	35958.24
538.93	35974.62
539.13	35784.16
539.34	36214.23
539.54	36060.63
539.74	36734.42
539.94	36148.70
540.15	36218.33
540.35	36992.46
540.55	36554.19
540.75	36726.22
540.96	36888.01
541.16	37086.67
541.36	36689.36
541.56	36763.09
541.77	37092.81
541.97	36922.83
542.17	37168.58
542.37	37426.63
542.58	37361.09
542.78	37330.37
542.98	37422.53
543.18	37690.82
543.38	37793.22
543.59	38075.84
543.79	37590.47
543.99	37686.72
544.19	37660.10
544.40	37936.57
544.60	38053.31
544.80	38149.56
545.00	38450.61
545.20	38645.17
545.41	38032.83
545.61	38372.79
545.81	38532.53
546.01	38473.14
546.21	38481.33
546.42	38589.88
546.62	38768.05
546.82	38659.51
547.02	38915.50
547.22	39181.74
547.43	38809.01
547.63	38794.67
547.83	39056.81
548.03	38784.43
548.23	39372.20
548.44	38989.23
548.64	39366.06
548.84	39216.55
549.04	39706.02
549.24	39196.07
549.45	39939.49
549.65	39269.80
549.85	39474.60
550.05	40207.77
550.25	40314.26
550.45	40037.79
550.66	39757.22
550.86	39900.58
551.06	40326.55
551.26	40308.12
551.46	40168.86
551.66	40625.56
551.87	40289.69
552.07	40633.75
552.27	40390.04
552.47	40699.28
552.67	40490.39
552.87	40658.32
553.07	40764.82
553.28	40848.78
553.48	40871.31
553.68	40912.27
553.88	41213.32
554.08	41362.82
554.28	41035.15
554.48	40947.09
554.69	41407.88
554.89	41311.63
555.09	41192.84
555.29	41153.93
555.49	41457.03
555.69	41557.38
555.89	41500.04
556.10	41919.87
556.30	41348.49
556.50	41690.50
556.70	41758.08
556.90	41981.31
557.10	42093.95
557.30	41475.46
557.50	42050.94
557.70	41876.86
557.91	42210.68
558.11	42089.85
558.31	42681.72
558.51	42440.06
558.71	42950.00
558.91	42440.06
559.11	42251.64
559.31	42468.73
559.51	42304.89
559.72	42173.82
559.92	42550.65
560.12	42571.13
560.32	42751.35
560.52	42179.96
560.72	42993.01
560.92	42749.30
561.12	42665.33
561.32	43316.59
561.52	42810.74
561.72	43132.27
561.93	43068.78
562.13	43206.00
562.33	42847.60
562.53	43197.80
562.73	43040.11
562.93	43187.56
563.13	43261.29
563.33	43359.59
563.53	43574.63
563.73	43162.99
563.93	43832.68
564.13	43984.22
564.33	43793.76
564.53	43615.59
564.74	43824.48
564.94	43926.88
565.14	43844.96
565.34	43728.23
565.54	43984.22
565.74	43611.49
565.94	44379.48
566.14	43988.32
566.34	43781.48
566.54	44639.57
566.74	43982.18
566.94	44295.52
567.14	44524.89
567.34	44025.18
567.54	44361.05
567.74	44406.11
567.94	44508.50
568.14	44856.66
568.34	44969.30
568.54	44502.36
568.74	44911.95
568.94	44760.40
569.14	44977.49
569.34	44633.43
569.54	44701.01
569.75	44602.71
569.95	44858.71
570.15	45049.17
570.35	44940.63
570.55	44918.10
570.75	45106.51
570.95	45063.50
571.15	45161.81
571.35	45049.17
571.55	45790.53
571.75	45444.43
571.95	45073.74
572.15	44858.71
572.35	45382.99
572.55	45436.23
572.75	45309.26
572.95	45512.01
573.15	45583.69
573.35	45720.90
573.55	45460.81
573.75	45638.98
573.95	45745.48
574.15	45493.58
574.35	45604.17
574.55	45579.59
574.75	45768.01
574.95	46214.46
575.15	45856.07
575.34	45970.75
575.54	46222.65
575.74	46243.13
575.94	46218.56
576.14	46282.05
576.34	46437.69
576.54	46937.40
576.74	46214.46
576.94	46695.74
577.14	46540.09
577.34	46906.68
577.54	46253.37
577.74	46441.79
577.94	46837.05
578.14	46445.88
578.34	46732.60
578.54	46323.01
578.74	46966.07
578.94	46984.50
579.14	46775.61
579.34	46767.41
579.54	46904.63
579.74	46996.79
579.94	47476.01
580.13	47121.71
580.33	47146.29
580.53	47115.57
580.73	47131.95
580.93	47326.51
581.13	47246.64
581.33	47635.75
581.53	47447.34
581.73	47453.48
581.93	47252.78
582.13	47949.09
582.33	47633.71
582.53	47643.94
582.73	47691.05
582.92	47695.14
583.12	47740.20
583.32	47955.24
583.52	47123.76
583.72	48268.58
583.92	47758.63
584.12	47957.28
584.32	48276.77
584.52	47793.45
584.72	48268.58
584.92	48184.61
585.11	48518.43
585.31	48336.16
585.51	48323.87
585.71	48317.73
585.91	48669.98
586.11	48207.14
586.31	48262.43
586.51	48575.77
586.71	48395.55
586.91	48600.35
587.10	48420.13
587.30	48786.71
587.50	48678.17
587.70	49042.71
587.90	48839.96
588.10	48850.20
588.30	48801.05
588.50	48887.06
588.69	48669.98
588.89	48459.04
589.09	48846.10
589.29	48755.99
589.49	49429.77
589.69	49046.80
589.89	49450.25
590.08	49124.63
590.28	49241.36
590.48	48985.36
590.68	49337.62
590.88	49409.29
591.08	49046.80
591.28	48540.96
591.47	49605.90
591.67	49280.27
591.87	49089.81
592.07	49550.60
592.27	49337.62
592.47	49779.98
592.67	49456.40
592.86	49679.63
593.06	49493.26
593.26	49708.30
593.46	49489.16
593.66	49753.35
593.86	49763.59
594.05	49462.54
594.25	50081.03
594.45	49634.57
594.65	49870.09
594.85	49700.11
595.05	49880.33
595.24	49921.29
595.44	49415.44
595.64	49702.15
595.84	49976.58
596.04	49591.56
596.23	49976.58
596.43	50369.79
596.63	50099.46
596.83	50683.13
597.03	50373.89
597.22	50341.12
597.42	49894.66
597.62	50306.30
597.82	50181.38
598.02	50156.80
598.21	50435.33
598.41	49720.59
598.61	50783.48
598.81	50730.23
599.01	50791.67
599.20	50689.27
599.40	50533.63
599.60	51201.27
599.80	50582.78
600.00	50746.62
600.19	51299.57
600.39	50822.39
600.59	51234.03
600.79	50746.62
600.98	50902.26
601.18	50945.27
601.38	51156.21
601.58	51717.35
601.78	51457.26
601.97	51506.41
602.17	51563.76
602.37	51281.14
602.57	51272.95
602.76	51655.92
602.96	51072.24
603.16	51545.33
603.36	51561.71
603.55	51963.11
603.75	51412.21
603.95	51838.18
604.15	51764.46
604.34	51711.21
604.54	52010.21
604.74	52057.32
604.94	51881.19
605.13	52126.95
605.33	51885.29
605.53	51530.99
605.73	52061.41
605.92	52208.87
606.12	52329.70
606.32	52333.79
606.52	52237.54
606.71	52395.23
606.91	52458.72
607.11	51995.88
607.30	52511.97
607.50	52399.33
607.70	52786.39
607.90	52704.48
608.09	52704.48
608.29	52698.33
608.49	53261.52
608.68	52675.80
608.88	52569.31
609.08	53228.76
609.28	52935.90
609.47	52839.64
609.67	53421.26
609.87	52878.55
610.06	53370.07
610.26	53378.26
610.46	53200.08
610.66	52862.17
610.85	53431.50
611.05	53118.17
611.25	53425.36
611.44	52917.46
611.64	53449.94
611.84	53286.10
612.03	53408.98
612.23	53392.59
612.43	53474.51
612.62	53286.10
612.82	53529.81
613.02	53654.73
613.21	53400.79
613.41	53394.64
613.61	53882.06
613.80	53155.03
614.00	53714.12
614.20	53800.14
614.39	53718.22
614.59	54097.09
614.79	53658.83
614.98	53540.05
615.18	53732.56
615.38	53841.10
615.57	53787.85
615.77	53849.29
615.97	54248.64
616.16	53753.04
616.36	53982.41
616.56	53757.13
616.75	54211.78
616.95	53634.25
617.15	53869.77
617.34	53943.50
617.54	53867.72
617.74	54447.30
617.93	54361.28
618.13	54017.22
618.32	54310.08
618.52	53912.78
618.72	54152.39
618.91	53806.28
619.11	54074.57
619.31	54170.82
619.50	53689.55
619.70	53896.39
619.90	54183.11
620.09	54129.86
620.29	54265.03
620.48	54201.54
620.68	54377.67
620.88	53908.68
621.07	54043.85
621.27	54703.29
621.46	53992.65
621.66	53806.28
621.86	53970.12
622.05	54158.53
622.25	54293.70
622.44	54371.52
622.64	54211.78
622.84	54736.06
623.03	54172.87
623.23	53959.88
623.42	53945.54
623.62	54469.82
623.82	54242.50
624.01	54414.53
624.21	54527.17
624.40	54457.54
624.60	54729.92
624.80	54447.30
624.99	54410.43
625.19	54095.05
625.38	54439.11
625.58	54768.83
625.77	54942.91
625.97	55014.58
626.17	54039.75
626.36	54588.61
626.56	54473.92
626.75	54105.29
626.95	54549.70
627.14	54650.05
627.34	54629.57
627.54	54955.19
627.73	54588.61
627.93	54510.78
628.12	54611.13
628.32	55428.27
628.51	54514.88
628.71	54715.58
628.90	54944.95
629.10	54688.96
629.30	54828.22
629.49	54570.18
629.69	54793.40
629.88	54568.13
630.08	55342.26
630.27	54891.71
630.47	54920.38
630.66	54914.23
630.86	54985.91
631.05	54418.63
631.25	54990.01
631.44	54998.20
631.64	54525.12
631.84	55164.09
632.03	55848.11
632.23	55401.65
632.42	55366.84
632.62	55317.68
632.81	55059.64
633.01	55184.57
633.20	55174.33
633.40	55348.40
633.59	55260.34
633.79	54940.86
633.98	55352.50
634.18	55272.63
634.37	54903.99
634.57	55213.24
634.76	55706.80
634.96	55712.94
635.15	55588.02
635.35	55057.59
635.54	55207.09
635.74	55866.54
635.93	55049.40
636.13	56050.86
636.32	55927.98
636.52	55348.40
636.71	55620.78
636.91	55862.44
637.10	55864.49
637.30	55907.50
637.49	55485.62
637.69	55424.18
637.88	55942.31
638.08	55772.33
638.27	55497.91
638.46	55329.97
638.66	55508.14
638.85	55721.13
639.05	55493.81
639.24	55567.54
639.44	55456.95
639.63	55854.25
639.83	55997.61
640.02	55516.34
640.22	55432.37
640.41	56050.86
640.61	55588.02
640.80	55626.93
640.99	55616.69
641.19	56091.82
641.38	55663.79
641.58	55854.25
641.77	55786.67
641.97	55948.46
642.16	56169.64
642.36	55970.99
642.55	56204.45
642.74	55903.40
642.94	56407.20
643.13	55534.77
643.33	56136.87
643.52	56239.27
643.72	55932.07
643.91	55856.30
644.10	55510.19
644.30	56364.20
644.49	56095.91
644.69	56345.76
644.88	56276.13
645.08	55932.07
645.27	56525.99
645.46	55827.63
645.66	56181.93
645.85	56519.84
646.05	56212.65
646.24	56110.25
646.43	55932.07
646.63	56683.68
646.82	56454.31
647.02	56470.69
647.21	56145.06
647.40	56376.48
647.60	56597.66
647.79	56429.73
647.99	56573.09
648.18	56261.80
648.37	56751.26
648.57	56224.93
648.76	56927.39
648.96	56091.82
649.15	56640.67
649.34	56712.35
649.54	56458.40
649.73	56616.10
649.92	56341.67
650.12	56579.23
650.31	56460.45
650.51	56495.27
650.70	56513.70
650.89	56519.84
651.09	57144.47
651.28	57078.94
651.47	56525.99
651.67	56761.50
651.86	57009.31
652.06	56100.01
652.25	56317.09
652.44	56353.96
652.64	56495.27
652.83	56386.72
653.02	56362.15
653.22	56261.80
653.41	55905.45
653.60	56239.27
653.80	56585.38
653.99	56650.91
654.18	56198.31
654.38	56333.48
654.57	56259.75
654.76	56298.66
654.96	56409.25
655.15	56542.37
655.34	57015.45
655.54	56106.15
655.73	56472.74
655.92	56530.08
656.12	56384.68
656.31	56394.92
656.50	56710.30
656.70	56491.17
656.89	56347.81
657.08	56544.42
657.28	56112.30
657.47	56532.13
657.66	56374.44
657.86	56444.07
658.05	56616.10
658.24	56802.46
658.43	56218.79
658.63	56751.26
658.82	56554.66
659.01	56657.06
659.21	56829.08
659.40	56513.70
659.59	56175.78
659.79	56718.49
659.98	56349.86
660.17	56337.57
660.36	56802.46
660.56	56691.87
660.75	56558.75
660.94	56239.27
661.14	56186.02
661.33	56632.48
661.52	56083.62
661.71	56587.42
661.91	56106.15
662.10	55753.90
662.29	56525.99
662.49	56104.10
662.68	56087.72
662.87	56673.44
663.06	56442.02
663.26	56503.46
663.45	56507.55
663.64	56026.28
663.83	56738.97
664.03	56902.81
664.22	56374.44
664.41	56587.42
664.60	56304.80
664.80	56181.93
664.99	56034.47
665.18	56206.50
665.37	55915.69
665.57	56407.20
665.76	55784.62
665.95	56374.44
666.14	56317.09
666.34	55934.12
666.53	56013.99
666.72	55962.79
666.91	55620.78
667.11	55714.99
667.30	56018.09
667.49	55966.89
667.68	55766.19
667.87	55614.64
668.07	56097.96
668.26	56018.09
668.45	55616.69
668.64	55817.39
668.84	56687.78
669.03	56061.10
669.22	55841.96
669.41	55755.95
669.60	56001.71
669.80	55893.16
669.99	56407.20
670.18	55514.29
670.37	55766.19
670.57	56147.11
670.76	55565.49
670.95	55975.08
671.14	56175.78
671.33	55760.05
671.53	56296.61
671.72	56022.19
671.91	56118.44
672.10	55674.03
672.29	55379.12
672.48	55497.91
672.68	56194.21
672.87	55682.22
673.06	55678.13
673.25	55407.79
673.44	55637.17
673.64	55385.27
673.83	55436.47
674.02	55319.73
674.21	54922.43
674.40	55485.62
674.59	55297.20
674.79	55272.63
674.98	55280.82
675.17	55663.79
675.36	55076.02
675.55	55618.74
675.74	55147.70
675.94	55465.14
676.13	55575.73
676.32	55282.87
676.51	55895.21
676.70	55694.51
676.89	55368.88
677.08	55776.43
677.28	55323.83
677.47	55727.28
677.66	55518.38
677.85	55379.12
678.04	55346.36
678.23	55448.75
678.42	55456.95
678.62	55362.74
678.81	55325.88
679.00	55547.06
679.19	55747.76
679.38	55325.88
679.57	55221.43
679.76	55264.44
679.96	55467.19
680.15	55372.98
680.34	55594.16
680.53	54908.09
680.72	55243.96
680.91	54955.19
681.10	55260.34
681.29	55182.52
681.48	54871.23
681.68	54770.88
681.87	54928.57
682.06	55080.12
682.25	54633.66
682.44	55176.37
682.63	55293.11
682.82	54891.71
683.01	55071.93
683.20	54424.77
683.39	54969.53
683.59	54650.05
683.78	55094.46
683.97	54762.68
684.16	54561.98
684.35	54625.47
684.54	55119.03
684.73	55125.17
684.92	54371.52
685.11	54791.36
685.30	54533.31
685.49	54715.58
685.69	54633.66
685.88	54641.85
686.07	54596.80
686.26	54621.37
686.45	54727.87
686.64	54828.22
686.83	54850.75
687.02	54674.62
687.21	54699.20
687.40	54648.00
687.59	54650.05
687.78	54621.37
687.97	55088.31
688.16	54492.35
688.35	54353.09
688.54	54609.09
688.74	54623.42
688.93	54828.22
689.12	54334.66
689.31	54379.71
689.50	54545.60
689.69	54381.76
689.88	54029.51
690.07	54211.78
690.26	54342.85
690.45	54418.63
690.64	54469.82
690.83	54006.98
691.02	54133.96
691.21	53853.39
691.40	54195.40
691.59	54551.74
691.78	54478.02
691.97	54437.06
692.16	54045.90
692.35	54414.53
692.54	54041.80
692.73	54297.80
692.92	54068.42
693.11	54379.71
693.30	53707.98
693.49	54062.28
693.68	54348.99
693.87	53787.85
694.06	53900.49
694.25	54142.15
694.44	53654.73
694.63	53957.83
694.82	53941.45
695.01	53826.76
695.20	53814.47
695.39	53726.41
695.58	53857.48
695.77	53728.46
695.96	53738.70
696.15	54183.11
696.34	53730.51
696.53	53488.85
696.72	54080.71
696.91	54015.18
697.10	53847.24
697.29	53834.95
697.48	53746.89
697.67	53482.70
697.86	53216.47
698.05	53781.71
698.24	53810.38
698.43	53370.07
698.62	54049.99
698.81	53615.82
699.00	53859.53
699.19	53062.87
699.38	53497.04
699.57	53535.95
699.76	54146.25
699.95	52962.52
700.14	53028.05
700.32	53353.68
700.51	53671.12
700.70	53869.77
700.89	53494.99
701.08	53570.77
701.27	53523.66
701.46	54078.66
701.65	53038.29
701.84	53646.54
702.03	53458.13
702.22	53079.25
702.41	53050.58
702.60	53318.87
702.79	53234.90
702.98	52792.54
703.17	53019.86
703.35	52700.38
703.54	53077.21
703.73	53126.36
703.92	53148.88
704.11	52882.65
704.30	52772.06
704.49	52872.41
704.68	53007.58
704.87	52978.90
705.06	53050.58
705.25	52892.89
705.43	52958.42
705.62	53189.84
705.81	52999.38
706.00	52815.07
706.19	52540.64
706.38	52780.25
706.57	52417.76
706.76	52786.39
706.95	52819.16
707.14	52731.10
707.32	52706.52
707.51	52384.99
707.70	53013.72
707.89	53107.93
708.08	52772.06
708.27	52266.21
708.46	53146.84
708.65	52806.87
708.84	52813.02
709.02	52475.10
709.21	52581.60
709.40	52389.09
709.59	52624.60
709.78	52700.38
709.97	52655.32
710.16	52352.23
710.34	52550.88
710.53	52571.36
710.72	52229.35
710.91	52626.65
711.10	52370.66
711.29	52690.14
711.48	52436.19
711.66	52612.32
711.85	52325.60
712.04	52137.19
712.23	52335.84
712.42	52344.03
712.61	52669.66
712.80	52436.19
712.98	52632.80
713.17	51809.51
713.36	52384.99
713.55	51893.48
713.74	52282.59
713.93	52483.30
714.11	51950.82
714.30	51967.21
714.49	52122.85
714.68	52397.28
714.87	51975.40
715.06	52495.58
715.24	51987.69
715.43	52147.43
715.62	51670.25
715.81	51758.31
716.00	52038.89
716.18	51698.92
716.37	51565.81
716.56	51574.00
716.75	52022.50
716.94	51786.99
717.12	51375.34
717.31	51786.99
717.50	51852.52
717.69	51365.10
717.88	51754.22
718.06	51344.62
718.25	51635.44
718.44	51324.14
718.63	51205.36
718.82	50754.81
719.00	51471.60
719.19	50806.01
719.38	51107.06
719.57	50881.78
719.76	50509.05
719.94	50328.83
720.13	50609.40
720.32	50787.58
720.51	50789.62
720.69	50738.43
720.88	50595.07
721.07	50595.07
721.26	50277.63
721.44	50189.57
721.63	50369.79
721.82	50140.42
722.01	50441.47
722.20	50373.89
722.38	50097.41
722.57	49863.94
722.76	50140.42
722.95	50287.87
723.13	50048.26
723.32	49853.70
723.51	49820.94
723.70	50089.22
723.88	49853.70
724.07	49839.37
724.26	49878.28
724.44	49231.12
724.63	49732.87
724.82	49734.92
725.01	49356.05
725.19	49603.85
725.38	49853.70
725.57	49620.23
725.76	49595.66
725.94	49208.59
726.13	49610.00
726.32	49722.63
726.51	49523.98
726.69	49607.95
726.88	49259.79
727.07	49622.28
727.25	49167.63
727.44	49136.91
727.63	49055.00
727.82	49302.80
728.00	49347.86
728.19	49169.68
728.38	49788.17
728.56	49394.96
728.75	49278.22
728.94	49263.89
729.12	49327.38
729.31	49620.23
729.50	49157.39
729.69	49485.07
729.87	48874.77
730.06	49057.04
730.25	49061.14
730.43	49603.85
730.62	48835.86
730.81	48870.68
730.99	49257.74
731.18	49100.05
731.37	48864.53
731.55	49298.70
731.74	49710.35
731.93	49255.70
732.11	49378.57
732.30	48995.60
732.49	49083.67
732.67	49009.94
732.86	49003.80
733.05	49196.31
733.23	48735.51
733.42	48878.87
733.61	48936.21
733.79	49257.74
733.98	48917.78
734.17	49165.59
734.35	49229.07
734.54	49208.59
734.73	49327.38
734.91	48835.86
735.10	48565.53
735.29	48907.54
735.47	48739.61
735.66	48590.11
735.84	48518.43
736.03	48649.50
736.22	49112.34
736.40	48241.95
736.59	49036.56
736.78	48162.08
736.96	48282.91
737.15	48678.17
737.33	48616.73
737.52	48475.42
737.71	48586.01
737.89	48375.07
738.08	47815.97
738.27	48395.55
738.45	48299.30
738.64	48198.94
738.82	48151.84
739.01	48446.75
739.20	48317.73
739.38	48012.58
739.57	48510.24
739.75	48160.03
739.94	47883.56
740.13	47965.48
740.31	47738.15
740.50	47955.24
740.68	47934.76
740.87	47570.22
741.06	48035.11
741.24	47887.65
741.43	47617.32
741.61	47674.66
741.80	47631.66
741.99	47852.84
742.17	47367.47
742.36	47682.86
742.54	47191.34
742.73	47791.40
742.91	47592.75
743.10	46937.40
743.29	47785.25
743.47	47281.45
743.66	47363.37
743.84	47584.55
744.03	47344.94
744.21	46953.78
744.40	47588.65
744.59	47101.23
744.77	47134.00
744.96	47052.08
745.14	46966.07
745.33	47191.34
745.51	47035.70
745.70	47035.70
745.88	47134.00
746.07	46683.45
746.26	46656.82
746.44	46763.32
746.63	46880.05
746.81	46908.72
747.00	46626.10
747.18	46753.08
747.37	46665.02
747.55	46546.23
747.74	46716.22
747.92	46677.30
748.11	46210.37
748.29	46460.22
748.48	46390.59
748.66	46482.75
748.85	46253.37
749.03	46163.26
749.22	46316.86
749.41	46179.65
749.59	46241.09
749.78	46134.59
749.96	45442.38
750.15	45813.06
750.33	45983.04
750.52	45890.88
750.70	45944.13
750.89	45579.59
751.07	45659.46
751.26	45741.38
751.44	45536.59
751.63	45268.30
751.81	45475.15
752.00	45585.74
752.18	45399.37
752.37	45329.74
752.55	44940.63
752.74	45385.04
752.92	45020.50
753.10	45036.88
753.29	45290.83
753.47	45163.85
753.66	44612.95
753.84	45184.33
754.03	44995.92
754.21	44866.90
754.40	45274.45
754.58	45206.86
754.77	45075.79
754.95	44545.37
755.14	44557.66
755.32	44711.25
755.51	44774.74
755.69	44262.75
755.88	44811.60
756.06	44461.40
756.24	44592.47
756.43	44352.86
756.61	44328.28
756.80	43867.49
756.98	44221.79
757.17	44289.37
757.35	44504.41
757.54	44399.96
757.72	44526.94
757.90	43994.46
758.09	44254.56
758.27	44217.69
758.46	44137.82
758.64	44115.29
758.83	43978.08
759.01	44084.58
759.19	43875.68
759.38	43834.72
759.56	43963.75
759.75	43634.02
759.93	43189.61
760.12	43562.34
760.30	43621.73
760.48	43484.52
760.67	43138.41
760.85	43576.68
761.04	43218.28
761.22	43373.93
761.40	42929.52
761.59	43302.25
761.77	43091.31
761.96	43275.63
762.14	43197.80
762.32	42804.59
762.51	42681.72
762.69	42833.27
762.88	42845.55
763.06	43058.54
763.24	42952.05
763.43	42734.96
763.61	43087.21
763.80	42595.70
763.98	42440.06
764.16	42429.82
764.35	41854.34
764.53	42407.29
764.72	42427.77
764.90	42456.44
765.08	42685.81
765.27	42397.05
765.45	42239.36
765.63	41883.01
765.82	42128.77
766.00	41829.76
766.18	42200.44
766.37	42055.04
766.55	42016.13
766.74	42220.92
766.92	41608.58
767.10	41670.02
767.29	41727.36
767.47	41538.95
767.65	41844.10
767.84	41383.30
768.02	41563.53
768.20	41178.51
768.39	41618.82
768.57	41710.98
768.75	41618.82
768.94	40932.75
769.12	41428.36
769.30	41221.52
769.49	41205.13
769.67	40908.18
769.85	40656.28
770.04	40877.46
770.22	40723.86
770.40	40424.86
770.59	40492.44
770.77	40842.64
770.95	40527.25
771.14	40519.06
771.32	40230.30
771.50	39982.49
771.69	40134.04
771.87	40449.43
772.05	40523.16
772.24	39951.77
772.42	40207.77
772.60	40424.86
772.78	40136.09
772.97	39972.25
773.15	40160.67
773.33	39765.41
773.52	39802.27
773.70	40021.41
773.88	40127.90
774.07	39949.73
774.25	39794.08
774.43	40160.67
774.61	40060.32
774.80	39951.77
774.98	40070.56
775.16	40318.36
775.34	40125.85
775.53	39574.95
775.71	40426.90
775.89	39986.59
776.08	39814.56
776.26	39794.08
776.44	39927.20
776.62	40000.93
776.81	39916.96
776.99	40342.94
777.17	40431.00
777.35	40037.79
777.54	40396.18
777.72	40117.66
777.90	39925.15
778.08	40410.52
778.27	40252.83
778.45	40521.11
778.63	40670.61
778.81	40215.96
779.00	40646.04
779.18	40449.43
779.36	40742.29
779.54	40121.76
779.73	40719.76
779.91	40760.72
780.09	40693.14
780.27	40568.21
780.46	40656.28
780.64	40228.25
780.82	40600.98
781.00	40228.25
781.19	40512.92
781.37	40975.76
781.55	40963.47
781.73	40971.66
781.91	40533.40
782.10	40852.88
782.28	40668.56
782.46	40637.84
782.64	40924.56
782.82	41108.88
783.01	40965.52
783.19	40969.61
783.37	40910.22
783.55	40756.63
783.74	41016.72
783.92	40938.90
784.10	41022.86
784.28	41000.33
784.46	40773.01
784.64	40822.16
784.83	40834.45
785.01	41272.71
785.19	40971.66
785.37	40764.82
785.55	41141.64
785.74	40746.39
785.92	40195.48
786.10	40615.32
786.28	40822.16
786.46	40424.86
786.64	40390.04
786.83	40564.12
787.01	40498.58
787.19	40297.88
787.37	40433.05
787.55	40656.28
787.74	40256.92
787.92	40142.24
788.10	40107.42
788.28	40199.58
788.46	40387.99
788.64	39929.25
788.82	40625.56
789.01	40385.94
789.19	40234.39
789.37	40263.07
789.55	40220.06
789.73	40017.31
789.91	39945.63
790.09	39767.46
790.28	39441.83
790.46	39394.73
790.64	39861.66
790.82	39474.60
791.00	39353.77
791.18	39505.32
791.36	39742.88
791.55	39417.25
791.73	38886.83
791.91	39077.29
792.09	39306.66
792.27	38778.29
792.45	39255.46
792.63	39032.24
792.81	38962.61
793.00	38792.62
793.18	38768.05
793.36	38847.92
793.54	38446.52
793.72	38409.65
793.90	38456.76
794.08	38235.58
794.26	38581.68
794.44	38346.17
794.62	38337.98
794.81	37887.42
794.99	37952.96
795.17	37758.40
795.35	37846.46
795.53	38090.17
795.71	38124.99
795.89	37803.46
796.07	37672.39
796.25	37580.23
796.43	37279.18
796.61	37156.30
796.80	37297.61
796.98	37010.89
797.16	36898.25
797.34	37066.19
797.52	36955.60
797.70	36912.59
797.88	36924.88
798.06	36580.82
798.24	36826.57
798.42	36832.72
798.60	36609.49
798.78	36462.04
798.96	36492.76
799.14	36046.30
799.32	36703.70
799.51	36296.15
799.69	36691.41
799.87	36279.77
800.05	35810.78
800.23	35780.06
800.41	35888.60
800.59	35747.29
800.77	35698.14
800.95	35321.32
801.13	35671.52
801.31	35081.70
801.49	35528.16
801.67	35212.77
801.85	35423.72
802.03	34944.49
802.21	35030.51
802.39	34790.89
802.57	34842.09
802.75	35120.62
802.93	34979.31
803.11	34444.79
803.29	35014.12
803.47	34629.10
803.65	34616.82
803.83	34510.32
804.01	34659.82
804.19	34076.15
804.37	34123.26
804.55	34149.88
804.73	34153.97
804.91	34033.14
805.09	34211.32
805.27	33971.71
805.45	34084.34
805.63	34123.26
805.81	33998.33
805.99	34104.82
806.17	33818.11
806.35	33816.06
806.53	33437.19
806.71	33494.53
806.89	33752.57
807.07	33492.48
807.25	33519.10
807.43	33455.62
807.61	33484.29
807.79	33019.40
807.97	32783.88
808.15	32923.15
808.33	32779.79
808.51	32851.47
808.69	33261.06
808.87	32597.52
809.05	32663.05
809.23	32519.70
809.41	32257.56
809.59	32378.39
809.77	32818.70
809.95	32224.79
810.13	32421.39
810.31	32425.49
810.49	32384.53
810.67	31727.13
810.84	32269.84
811.02	32071.19
811.20	31739.42
811.38	32046.62
811.56	31915.54
811.74	31776.28
811.92	31477.28
812.10	31866.39
812.28	32040.47
812.46	31639.07
812.64	31688.22
812.82	31532.57
813.00	31821.34
813.18	31673.88
813.36	31503.90
813.53	31340.07
813.71	31174.18
813.89	30774.83
814.07	31317.54
814.25	31424.03
814.43	31139.36
814.61	31204.90
814.79	30746.15
814.97	30885.42
815.15	30797.35
815.33	30432.82
815.50	30565.93
815.68	30688.81
815.86	30823.98
816.04	30398.00
816.22	30418.48
816.40	30393.90
816.58	30260.79
816.76	30203.44
816.94	30461.49
817.11	30451.25
817.29	30610.99
817.47	29824.57
817.65	29836.86
817.83	30066.23
818.01	29957.69
818.19	30058.04
818.37	30295.60
818.54	30107.19
818.72	29568.57
818.90	30111.28
819.08	29888.06
819.26	29818.42
819.44	29699.64
819.62	29781.56
819.80	29730.36
819.97	29541.95
820.15	29531.71
820.33	29369.92
820.51	29642.30
820.69	29294.14
820.87	29326.91
821.05	29257.28
821.22	29228.61
821.40	29382.21
821.58	29312.58
821.76	29027.91
821.94	29132.36
822.12	28921.41
822.29	28890.70
822.47	28956.23
822.65	29242.95
822.83	29197.89
823.01	28937.80
823.19	29060.68
823.36	28927.56
823.54	28638.80
823.72	28941.89
823.90	28796.49
824.08	28673.61
824.25	28997.19
824.43	28434.00
824.61	28814.92
824.79	28757.58
824.97	28745.29
825.15	28218.96
825.32	28436.05
825.50	28470.86
825.68	28175.95
825.86	28499.53
826.04	28309.07
826.21	27965.01
826.39	28128.85
826.57	27952.73
826.75	27987.54
826.93	27960.92
827.10	28114.52
827.28	28192.34
827.46	27807.32
827.64	28040.79
827.81	27663.96
827.99	27897.43
828.17	27850.33
828.35	27907.67
828.53	27835.99
828.70	27493.98
828.88	27778.65
829.06	27752.02
829.24	27915.86
829.41	27627.10
829.59	27735.64
829.77	27467.36
829.95	27252.32
830.12	27338.33
830.30	27608.67
830.48	27416.16
830.66	27580.00
830.84	27324.00
831.01	27289.18
831.19	27293.28
831.37	27027.04
831.55	27012.71
831.72	27297.38
831.90	27377.25
832.08	27051.62
832.25	27106.91
832.43	27156.07
832.61	26904.17
832.79	26861.16
832.96	27057.76
833.14	26973.80
833.32	27043.43
833.50	26975.84
833.67	27199.07
833.85	26916.45
834.03	26347.12
834.20	26590.83
834.38	26723.94
834.56	26949.22
834.74	26451.56
834.91	26609.26
835.09	26330.73
835.27	26269.30
835.44	26470.00
835.62	25802.36
835.80	26160.75
835.98	26332.78
836.15	26257.01
836.33	26414.70
836.51	26287.73
836.68	26220.14
836.86	26142.32
837.04	26162.80
837.21	26148.46
837.39	26244.72
837.57	26529.39
837.75	26394.22
837.92	26136.18
838.10	26101.36
838.28	25620.09
838.45	26162.80
838.63	25953.91
838.81	26154.61
838.98	26035.83
839.16	25589.37
839.34	25185.92
839.51	25486.97
839.69	25620.09
839.87	25474.68
840.04	25321.09
840.22	26064.50
840.40	25441.92
840.57	25304.70
840.75	25517.69
840.93	25161.34
841.10	25439.87
841.28	25409.15
841.46	25503.35
841.63	25577.08
841.81	25388.67
841.98	25151.10
842.16	25206.40
842.34	25044.61
842.51	24907.40
842.69	25151.10
842.87	24907.40
843.04	25273.98
843.22	24995.46
843.40	25058.95
843.57	24944.26
843.75	25233.02
843.92	25013.89
844.10	24895.11
844.28	24821.38
844.45	24774.28
844.63	24729.22
844.81	24622.73
844.98	24514.19
845.16	24934.02
845.33	24827.53
845.51	24538.76
845.69	24678.02
845.86	24374.92
846.04	24743.56
846.21	24264.33
846.39	24272.53
846.57	24239.76
846.74	24430.22
846.92	24282.77
847.09	24200.85
847.27	23985.81
847.45	24409.74
847.62	24639.11
847.80	24362.64
847.97	24102.54
848.15	24307.34
848.32	23883.41
848.50	24163.98
848.68	23783.06
848.85	23957.14
849.03	23758.49
849.20	23787.16
849.38	23774.87
849.56	24037.01
849.73	23518.87
849.91	23684.76
850.08	24264.33
850.26	23637.66
850.43	23901.84
850.61	23809.68
850.78	23717.53
850.96	23715.48
851.14	23201.44
851.31	23645.85
851.49	23387.80
851.66	23494.30
851.84	23127.71
852.01	23565.98
852.19	23492.25
852.36	23410.33
852.54	23301.79
852.71	23199.39
852.89	23174.81
853.07	23060.13
853.24	23484.06
853.42	23172.77
853.59	23518.87
853.77	23008.93
853.94	23291.55
854.12	23461.53
854.29	23025.31
854.47	22992.55
854.64	23260.83
854.82	23019.17
854.99	22941.35
855.17	23058.08
855.34	22894.24
855.52	22894.24
855.69	23197.34
855.87	22841.00
856.04	22517.42
856.22	22914.72
856.39	22548.14
856.57	22730.41
856.74	22546.09
856.92	22656.68
857.09	22513.32
857.27	22554.28
857.44	22591.14
857.62	22466.22
857.79	22572.71
857.97	22523.56
858.14	22533.80
858.32	22300.33
858.49	22605.48
858.67	22357.67
858.84	21999.28
859.02	22351.53
859.19	22316.72
859.37	21946.03
859.54	21925.55
859.72	22279.85
859.89	22281.90
860.06	22118.06
860.24	21880.50
860.41	22372.01
860.59	21862.07
860.76	22044.34
860.94	21735.09
861.11	21931.70
861.29	21986.99
861.46	21704.37
861.64	21339.83
861.81	21534.39
861.98	21726.90
862.16	21511.86
862.33	21345.98
862.51	21522.10
862.68	21513.91
862.86	21386.94
863.03	21610.17
863.21	21370.55
863.38	21464.76
863.55	21163.71
863.73	21317.31
863.90	21497.53
864.08	21229.24
864.25	21098.17
864.43	20958.91
864.60	21270.20
864.77	20995.78
864.95	21145.28
865.12	20936.38
865.30	21237.44
865.47	20848.32
865.64	20952.77
865.82	21229.24
865.99	21053.12
866.17	20977.34
866.34	20981.44
866.51	20502.22
866.69	20973.25
866.86	20870.85
867.04	20989.63
867.21	20709.06
867.38	20661.96
867.56	20340.43
867.73	20274.89
867.91	20242.12
868.08	20735.68
868.25	20387.53
868.43	20379.34
868.60	20018.89
868.78	19941.07
868.95	20483.78
869.12	20002.51
869.30	19990.22
869.47	20287.18
869.64	19926.74
869.82	20289.23
869.99	20070.09
870.16	20266.70
870.34	20078.29
870.51	20008.65
870.69	19828.43
870.86	20000.46
871.03	19764.95
871.21	19949.26
871.38	19977.94
871.55	19840.72
871.73	19549.91
871.90	19576.53
872.07	19633.88
872.25	19410.65
872.42	19474.13
872.59	19283.67
872.77	19529.43
872.94	19816.15
873.11	19599.06
873.29	19472.09
873.46	19375.83
873.63	19584.73
873.81	19134.17
873.98	19144.41
874.15	19216.09
874.33	19031.77
874.50	18900.70
874.67	19142.36
874.85	18984.67
875.02	19097.31
875.19	18800.35
875.37	18691.81
875.54	18601.70
875.71	18910.94
875.88	18700.00
876.06	18753.25
876.23	18607.84
876.40	18538.21
876.58	18347.75
876.75	18491.11
876.92	18239.21
877.10	18835.17
877.27	18411.24
877.44	18323.18
877.61	18036.46
877.79	18218.73
877.96	18194.15
878.13	18136.81
878.31	18194.15
878.48	18130.67
878.65	18013.93
878.82	17719.03
879.00	18052.84
879.17	17882.86
879.34	18046.70
879.51	17854.19
879.69	17817.33
879.86	17813.23
880.03	17841.90
880.21	17565.43
880.38	17628.92
880.55	17938.16
880.72	17475.32
880.90	17727.22
881.07	17624.82
881.24	17473.27
881.41	17542.90
881.59	17377.01
881.76	17338.10
881.93	17325.82
882.10	17186.55
882.28	17110.78
882.45	17438.45
882.62	17331.96
882.79	17444.60
882.96	16957.18
883.14	17454.84
883.31	17336.06
883.48	17073.92
883.65	17182.46
883.83	17463.03
884.00	17002.24
884.17	17073.92
884.34	16973.56
884.51	17166.07
884.69	17014.52
884.86	16965.37
885.03	16674.56
885.20	16789.25
885.38	16961.28
885.55	16576.26
885.72	17241.85
885.89	16580.36
886.06	16787.20
886.24	16512.77
886.41	16742.14
886.58	17123.07
886.75	16699.14
886.92	16600.83
887.10	16559.88
887.27	16494.34
887.44	16570.12
887.61	16703.23
887.78	16752.38
887.95	16555.78
888.13	16486.15
888.30	16258.82
888.47	16262.92
888.64	16514.82
888.81	16441.09
888.99	16641.79
889.16	16240.39
889.33	16154.38
889.50	16181.00
889.67	16051.98
889.84	16062.22
890.01	16090.89
890.19	16146.19
890.36	16172.81
890.53	16082.70
890.70	15935.24
890.87	15992.59
891.04	15802.13
891.22	15849.23
891.39	15974.16
891.56	16019.21
891.73	15855.37
891.90	15750.93
892.07	15406.87
892.24	15965.96
892.42	15468.31
892.59	15419.16
892.76	15453.97
892.93	15642.39
893.10	15650.58
893.27	15441.68
893.44	15550.23
893.61	15419.16
893.79	15626.00
893.96	15507.22
894.13	15634.19
894.30	15644.43
894.47	15339.29
894.64	15728.40
894.81	15451.92
894.98	15542.03
895.15	15523.60
895.33	15519.51
895.50	15408.92
895.67	15296.28
895.84	15511.32
896.01	15390.49
896.18	15357.72
896.35	15470.36
896.52	15370.01
896.69	15224.60
896.86	15314.71
897.04	15281.94
897.21	15163.16
897.38	15161.11
897.55	15064.86
897.72	15265.56
897.89	15322.90
898.06	15537.94
898.23	15277.85
898.40	15245.08
898.57	15200.02
898.74	15329.05
898.91	15183.64
899.08	15310.61
899.26	15290.13
899.43	15046.43
899.60	14956.32
899.77	15298.33
899.94	15210.26
900.11	14956.32
900.28	15230.74
900.45	14954.27
900.62	15163.16
900.79	15118.11
900.96	15193.88
901.13	14989.08
901.30	14980.89
901.47	15093.53
901.64	15144.73
901.81	15087.39
901.98	14864.16
902.15	15175.45
902.32	14952.22
902.49	15089.43
902.66	15339.29
902.83	15128.35
903.01	14962.46
903.18	15105.82
903.35	15109.91
903.52	15212.31
903.69	15027.99
903.86	15099.67
904.03	14933.79
904.20	15234.84
904.37	15298.33
904.54	14960.41
904.71	14720.80
904.88	14731.04
905.05	14937.88
905.22	15046.43
905.39	14974.75
905.56	14759.71
905.73	14733.09
905.90	14638.88
906.07	15044.38
906.24	14847.77
906.41	14976.80
906.58	15159.06
906.75	14851.87
906.92	14716.70
907.09	15038.23
907.26	14784.29
907.43	14683.94
907.60	14888.73
907.77	14929.69
907.93	14765.85
908.10	15001.37
908.27	14921.50
908.44	14546.72
908.61	14749.47
908.78	14970.65
908.95	14821.15
909.12	14534.43
909.29	14749.47
909.46	14747.42
909.63	14860.06
909.80	15007.52
909.97	14806.81
910.14	14845.73
910.31	14954.27
910.48	14806.81
910.65	14745.38
910.82	14595.87
910.99	14843.68
911.16	14839.58
911.33	14640.93
911.50	14563.11
911.66	14497.57
911.83	14626.59
912.00	14589.73
912.17	14429.99
912.34	14219.05
912.51	14429.99
912.68	14475.04
912.85	14325.54
913.02	14446.37
913.19	14212.90
913.36	14364.45
913.53	14501.67
913.70	14270.25
913.86	14368.55
914.03	14298.92
914.20	14120.74
914.37	14272.29
914.54	14188.33
914.71	14077.74
914.88	13946.67
915.05	14147.37
915.22	14087.98
915.39	14030.63
915.55	14081.83
915.72	13864.75
915.89	14026.54
916.06	13813.55
916.23	13799.21
916.40	13815.60
916.57	13942.57
916.74	13694.77
916.91	13764.40
917.07	13494.07
917.24	13559.60
917.41	13461.30
917.58	13401.91
917.75	13621.04
917.92	13365.04
918.09	13297.46
918.26	13467.44
918.42	13418.29
918.59	13305.65
918.76	13127.48
918.93	13209.40
919.10	13197.11
919.27	13117.24
919.44	13086.52
919.60	13010.75
919.77	13043.51
919.94	13109.05
920.11	12904.25
920.28	13082.42
920.45	12873.53
920.61	12910.40
920.78	12592.96
920.95	12859.20
921.12	12771.13
921.29	12711.74
921.46	12664.64
921.62	12629.82
921.79	12633.92
921.96	12474.18
922.13	12394.31
922.30	12508.99
922.47	12285.76
922.63	12408.64
922.80	12443.46
922.97	12271.43
923.14	12238.66
923.31	12201.80
923.47	12189.51
923.64	12113.74
923.81	12001.10
923.98	11892.55
924.15	11968.33
924.32	12242.76
924.48	12023.62
924.65	11761.48
924.82	11837.26
924.99	11790.16
925.15	11585.36
925.32	11708.24
925.49	11546.45
925.66	11480.91
925.83	11548.50
925.99	11540.30
926.16	11718.48
926.33	11712.33
926.50	11269.97
926.67	11362.13
926.83	11327.32
927.00	11151.19
927.17	11241.30
927.34	11097.94
927.50	11028.31
927.67	11294.55
927.84	10925.91
928.01	10993.50
928.17	10809.18
928.34	10921.82
928.51	10710.88
928.68	10823.51
928.84	10651.49
929.01	10725.21
929.18	10692.44
929.35	10708.83
929.51	10643.29
929.68	10553.18
929.85	10520.42
930.02	10334.05
930.18	10391.39
930.35	10370.91
930.52	10299.23
930.69	10311.52
930.85	10248.04
931.02	10258.28
931.19	10182.50
931.36	10162.02
931.52	10202.98
931.69	10276.71
931.86	10076.01
932.02	9867.11
932.19	9828.20
932.36	9799.53
932.53	9801.58
932.69	9949.03
932.86	9695.08
933.03	9686.89
933.19	9473.90
933.36	9623.41
933.53	9541.49
933.70	9418.61
933.86	9508.72
934.03	9404.27
934.20	9131.89
934.36	9457.52
934.53	9119.60
934.70	8902.52
934.86	9105.27
935.03	9049.97
935.20	8998.77
935.36	8916.86
935.53	8761.21
935.70	8798.07
935.86	8941.43
936.03	8470.40
936.20	8458.11
936.36	8593.28
936.53	8437.63
936.70	8507.26
936.86	8271.75
937.03	8359.81
937.20	7960.45
937.36	8071.04
937.53	7872.39
937.70	7864.20
937.86	7751.56
938.03	7776.14
938.20	7896.97
938.36	7456.65
938.53	7565.20
938.70	7413.65
938.86	7468.94
939.03	7331.73
939.20	7366.54
939.36	7264.15
939.53	7104.40
939.70	7395.22
939.86	7040.92
940.03	6731.67
940.19	6537.12
940.36	6786.97
940.53	6571.93
940.69	6588.32
940.86	6524.83
941.03	6447.01
941.19	6387.61
941.36	6360.99
941.52	6334.37
941.69	6152.10
941.86	6197.15
942.02	6180.77
942.19	6006.69
942.35	6127.52
942.52	5988.26
942.69	5814.18
942.85	5836.71
943.02	5853.09
943.18	5754.79
943.35	5756.84
943.52	5715.88
943.68	5590.95
943.85	5625.77
944.01	5607.34
944.18	5527.47
944.35	5633.96
944.51	5525.42
944.68	5367.73
944.84	5480.36
945.01	5435.31
945.17	5515.18
945.34	5390.25
945.51	5394.35
945.67	5418.93
945.84	5320.62
946.00	5353.39
946.17	5308.34
946.33	5300.14
946.50	5302.19
946.67	5294.00
946.83	5226.42
947.00	5410.73
947.16	5240.75
947.33	5228.46
947.49	5322.67
947.66	5230.51
947.82	5191.60
947.99	5228.46
948.16	5228.46
948.32	5289.90
948.49	5265.33
948.65	5369.77
948.82	5236.66
948.98	5250.99
949.15	5220.27
949.31	5361.58
949.48	5261.23
949.64	5310.38
949.81	5281.71
949.97	5271.47
950.14	5294.00
950.30	5220.27
950.47	5259.18
950.63	5263.28
950.80	5349.29
950.96	5330.86
951.13	5279.66
951.30	5330.86
951.46	5392.30
951.63	5459.88
951.79	5220.27
951.96	5451.69
952.12	5283.76
952.29	5337.01
952.45	5375.92
952.62	5404.59
952.78	5337.01
952.94	5337.01
953.11	5197.74
953.27	5203.89
953.44	5324.72
953.60	5396.40
953.77	5406.64
953.93	5347.25
954.10	5367.73
954.26	5365.68
954.43	5353.39
954.59	5330.86
954.76	5582.76
954.92	5382.06
955.09	5517.23
955.25	5392.30
955.42	5478.32
955.58	5486.51
955.75	5386.16
955.91	5496.75
956.07	5355.44
956.24	5470.12
956.40	5607.34
956.57	5500.84
956.73	5392.30
956.90	5437.36
957.06	5375.92
957.23	5459.88
957.39	5406.64
957.56	5496.75
957.72	5287.86
957.88	5425.07
958.05	5590.95
958.21	5523.37
958.38	5365.68
958.54	5339.05
958.71	5474.22
958.87	5353.39
959.03	5382.06
959.20	5271.47
959.36	5402.54
959.53	5314.48
959.69	5271.47
959.85	5408.69
960.02	5343.15
960.18	5361.58
960.35	5281.71
960.51	5353.39
960.68	5353.39
960.84	5590.95
961.00	5443.50
961.17	5377.97
961.33	5326.77
961.50	5480.36
961.66	5343.15
961.82	5369.77
961.99	5377.97
962.15	5482.41
962.31	5459.88
962.48	5394.35
962.64	5470.12
962.81	5400.49
962.97	5506.99
963.13	5459.88
963.30	5404.59
963.46	5306.29
963.62	5306.29
963.79	5359.53
963.95	5341.10
964.12	5384.11
964.28	5330.86
964.44	5222.32
964.61	5314.48
964.77	5312.43
964.93	5558.19
965.10	5523.37
965.26	5312.43
965.42	5416.88
965.59	5298.10
965.75	5322.67
965.92	5386.16
966.08	5277.62
966.24	5343.15
966.41	5099.44
966.57	5298.10
966.73	5224.37
966.90	5406.64
967.06	5349.29
967.22	5304.24
967.39	5218.22
967.55	5121.97
967.71	5156.79
967.88	5236.66
968.04	5287.86
968.20	5177.26
968.37	5195.70
968.53	5154.74
968.69	5283.76
968.85	5199.79
969.02	5234.61
969.18	5177.26
969.34	5216.18
969.51	5283.76
969.67	5181.36
969.83	4986.80
970.00	5334.96
970.16	5091.25
970.32	5087.15
970.48	5052.34
970.65	5029.81
970.81	5042.10
970.97	5040.05
971.14	4947.89
971.30	5083.06
971.46	4925.36
971.63	5103.54
971.79	5029.81
971.95	4874.17
972.11	5027.76
972.28	4976.56
972.44	5005.24
972.60	4882.36
972.76	4970.42
972.93	4900.79
973.09	4923.32
973.25	4966.32
973.42	4964.28
973.58	4978.61
973.74	4982.71
973.90	4968.37
974.07	4878.26
974.23	4892.60
974.39	4818.87
974.55	4898.74
974.72	4767.67
974.88	4771.77
975.04	4902.84
975.20	4908.98
975.37	4857.78
975.53	4855.73
975.69	4796.34
975.85	4722.62
976.01	4679.61
976.18	4708.28
976.34	4726.71
976.50	4753.34
976.66	4865.97
976.83	4675.51
976.99	4585.40
977.15	4751.29
977.31	4698.04
977.47	4720.57
977.64	4650.94
977.80	4739.00
977.96	4677.56
978.12	4526.01
978.29	4534.20
978.45	4603.83
978.61	4440.00
978.77	4579.26
978.93	4493.24
979.10	4523.96
979.26	4433.85
979.42	4564.92
979.58	4376.51
979.74	4472.76
979.91	4538.30
980.07	4407.23
980.23	4474.81
980.39	4450.24
980.55	4302.78
980.71	4566.97
980.88	4384.70
981.04	4267.97
981.20	4360.13
981.36	4472.76
981.52	4376.51
981.68	4284.35
981.85	4501.44
982.01	4390.84
982.17	4364.22
982.33	4419.52
982.49	4419.52
982.65	4298.69
982.82	4362.17
982.98	4360.13
983.14	4319.17
983.30	4353.98
983.46	4353.98
983.62	4353.98
983.79	4198.34
983.95	4274.11
984.11	4114.37
984.27	4233.15
984.43	4288.45
984.59	4186.05
984.75	4341.69
984.91	4321.21
985.08	4249.54
985.24	4140.99
985.40	4040.64
985.56	4175.81
985.72	4280.25
985.88	4126.66
986.04	4132.80
986.20	4059.07
986.37	4140.99
986.53	4095.94
986.69	4095.94
986.85	4024.26
987.01	4159.42
987.17	4087.75
987.33	4040.64
987.49	3968.96
987.65	4054.98
987.82	3989.44
987.98	3882.95
988.14	3964.87
988.30	3944.39
988.46	3999.68
988.62	3846.09
988.78	4034.50
988.94	3948.48
989.10	3887.04
989.26	3915.72
989.42	3878.85
989.59	3669.96
989.75	3839.94
989.91	3829.70
990.07	3715.02
990.23	3815.37
990.39	3952.58
990.55	3899.33
990.71	3729.35
990.87	3749.83
991.03	3977.16
991.19	3749.83
991.35	3762.12
991.51	3731.40
991.67	3758.02
991.83	3751.88
992.00	3710.92
992.16	3770.31
992.32	3821.51
992.48	3792.84
992.64	3612.62
992.80	3755.97
992.96	3755.97
993.12	3682.25
993.28	3635.14
993.44	3702.73
993.60	3688.39
993.76	3657.67
993.92	3745.73
994.08	3813.32
994.24	3731.40
994.40	3579.85
994.56	3725.26
994.72	3561.42
994.88	3620.81
995.04	3743.69
995.20	3465.16
995.36	3612.62
995.52	3473.36
995.68	3583.95
995.84	3512.27
996.00	3598.28
996.16	3416.01
996.32	3616.71
996.48	3516.36
996.64	3497.93
996.80	3473.36
996.96	3522.51
997.12	3510.22
997.28	3436.49
997.44	3413.96
997.60	3407.82
997.76	3469.26
997.92	3477.45
998.08	3393.48
998.24	3297.23
998.40	3471.31
998.56	3499.98
998.72	3280.85
998.88	3330.00
999.04	3272.65
999.20	3319.76
999.36	3344.33
999.52	3334.09
999.68	3272.65
999.84	3268.56
1000.00	3252.17
1000.16	3373.00
1000.32	3071.95
1000.48	3405.77
1000.64	3264.46
1000.80	3174.35
1000.95	3252.17
1001.11	3321.81
1001.27	3127.25
1001.43	3266.51
1001.59	3162.06
1001.75	3227.60
1001.91	3172.30
1002.07	3145.68
1002.23	3157.97
1002.39	3194.83
1002.55	3133.39
1002.71	3088.34
1002.87	3030.99
1003.03	3117.01
1003.19	3078.10
1003.34	3106.77
1003.50	3188.69
1003.66	3178.45
1003.82	3135.44
1003.98	3092.43
1004.14	3188.69
1004.30	2992.08
1004.46	3033.04
1004.62	3076.05
1004.78	3162.06
1004.94	2990.03
1005.09	3094.48
1005.25	3090.38
1005.41	2834.39
1005.57	3088.34
1005.73	2949.08
1005.89	2994.13
1006.05	3092.43
1006.21	3102.67
1006.37	2920.40
1006.52	3002.32
1006.68	2897.88
1006.84	2977.75
1007.00	2912.21
1007.16	2951.12
1007.32	2947.03
1007.48	2940.88
1007.64	2912.21
1007.79	2910.16
1007.95	2885.59
1008.11	3016.66
1008.27	2877.40
1008.43	2895.83
1008.59	2858.96
1008.75	2867.16
1008.91	2828.24
1009.06	2916.31
1009.22	2873.30
1009.38	2852.82
1009.54	2822.10
1009.70	2764.76
1009.86	2842.58
1010.01	2906.07
1010.17	2775.00
1010.33	2901.97
1010.49	2805.72
1010.65	2924.50
1010.81	2725.85
1010.96	2789.33
1011.12	2795.48
1011.28	2629.59
1011.44	2824.15
1011.60	2748.37
1011.76	2693.08
1011.91	2727.89
1012.07	2697.17
1012.23	2684.89
1012.39	2703.32
1012.55	2717.65
1012.71	2645.98
1012.86	2643.93
1013.02	2703.32
1013.18	2668.50
1013.34	2633.69
1013.50	2699.22
1013.65	2709.46
1013.81	2516.95
1013.97	2539.48
1014.13	2695.13
1014.29	2699.22
1014.44	2707.41
1014.60	2574.30
1014.76	2535.39
1014.92	2590.68
1015.07	2648.02
1015.23	2639.83
1015.39	2580.44
1015.55	2529.24
1015.71	2590.68
1015.86	2543.58
1016.02	2631.64
1016.18	2441.18
1016.34	2564.06
1016.49	2531.29
1016.65	2580.44
1016.81	2465.75
1016.97	2525.15
1017.12	2521.05
1017.28	2400.22
1017.44	2443.23
1017.60	2459.61
1017.75	2576.34
1017.91	2535.39
1018.07	2596.82
1018.23	2605.02
1018.38	2471.90
1018.54	2389.98
1018.70	2443.23
1018.86	2385.88
1019.01	2471.90
1019.17	2473.95
1019.33	2521.05
1019.49	2457.56
1019.64	2478.04
1019.80	2432.99
1019.96	2432.99
1020.12	2412.51
1020.27	2334.68
1020.43	2461.66
1020.59	2369.50
1020.74	2465.75
1020.90	2389.98
1021.06	2314.20
1021.22	2328.54
1021.37	2361.31
1021.53	2371.55
1021.69	2457.56
1021.84	2375.64
1022.00	2365.40
1022.16	2416.60
1022.31	2351.07
1022.47	2418.65
1022.63	2402.27
1022.79	2232.29
1022.94	2244.57
1023.10	2389.98
1023.26	2338.78
1023.41	2295.77
1023.57	2248.67
1023.73	2322.40
1023.88	2289.63
1024.04	2197.47
1024.20	2263.01
1024.35	2242.53
1024.51	2260.96
1024.67	2176.99
1024.82	2324.44
1024.98	2189.28
1025.14	2240.48
1025.29	2246.62
1025.45	2267.10
1025.61	2189.28
1025.76	2183.13
1025.92	2252.77
1026.08	2295.77
1026.23	2258.91
1026.39	2248.67
1026.55	2146.27
1026.70	2140.13
1026.86	2181.09
1027.02	2215.90
1027.17	2172.89
1027.33	2203.61
1027.48	2133.98
1027.64	2324.44
1027.80	2084.83
1027.95	2195.42
1028.11	2058.21
1028.27	2220.00
1028.42	2170.85
1028.58	2101.22
1028.73	2174.94
1028.89	2023.39
1029.05	2226.14
1029.20	2146.27
>>>>>End Processed Spectral Data<<<<<
