SpectraSuite Data File
++++++++++++++++++++++++++++++++++++
Date: Fri Jun 02 14:49:26 CEST 2017
User: INFO_000
Dark Spectrum Present: No
Reference Spectrum Present: No
Number of Sampled Component Spectra: 1
Spectrometers: USB4H00879
Integration Time (usec): 80000 (USB4H00879)
Spectra Averaged: 1 (USB4H00879)
Boxcar Smoothing: 0 (USB4H00879)
Correct for Electrical Dark: No (USB4H00879)
Strobe/Lamp Enabled: No (USB4H00879)
Correct for Detector Non-linearity: No (USB4H00879)
Correct for Stray Light: No (USB4H00879)
Number of Pixels in Processed Spectrum: 3648
>>>>>Begin Processed Spectral Data<<<<<
345.13	1282.03
345.34	1282.03
345.56	1282.03
345.78	1314.80
345.99	1296.36
346.21	1765.35
346.42	1658.85
346.64	1699.81
346.86	1763.30
347.07	1658.85
347.29	1714.15
347.50	1671.14
347.72	1708.01
347.94	1742.82
348.15	1511.40
348.37	1632.23
348.59	1691.62
348.80	1615.85
349.02	1783.78
349.23	1851.36
349.45	1845.22
349.67	1826.79
349.88	1832.93
350.10	1939.43
350.31	1900.52
350.53	1818.60
350.75	1904.61
350.96	1744.87
351.18	1851.36
351.39	1839.08
351.61	1759.21
351.82	1955.81
352.04	1961.95
352.26	1796.07
352.47	1929.19
352.69	1947.62
352.90	1742.82
353.12	1892.32
353.34	1884.13
353.55	1959.91
353.77	1945.57
353.98	1802.21
354.20	1845.22
354.41	1925.09
354.63	1949.67
354.85	2050.02
355.06	1929.19
355.28	1796.07
355.49	1849.32
355.71	1861.60
355.92	1898.47
356.14	1966.05
356.35	1834.98
356.57	1886.18
356.79	1937.38
357.00	1867.75
357.22	1959.91
357.43	1830.88
357.65	1902.56
357.86	1888.23
358.08	1978.34
358.29	1931.23
358.51	1986.53
358.72	1923.04
358.94	1890.28
359.16	1953.76
359.37	1953.76
359.59	1988.58
359.80	1923.04
360.02	1961.95
360.23	1916.90
360.45	1959.91
360.66	1914.85
360.88	1837.03
361.09	1943.52
361.31	2093.02
361.52	1957.86
361.74	2058.21
361.95	2043.87
362.17	1839.08
362.38	2095.07
362.60	2011.11
362.81	1945.57
363.03	1894.37
363.24	1943.52
363.46	2050.02
363.67	2054.11
363.89	1949.67
364.10	1988.58
364.32	2017.25
364.53	2037.73
364.75	1910.75
364.96	1984.48
365.18	2058.21
365.39	1994.72
365.61	1929.19
365.82	2195.42
366.04	2045.92
366.25	1912.80
366.47	2101.22
366.68	2013.15
366.90	1925.09
367.11	2035.68
367.33	2068.45
367.54	2058.21
367.76	2009.06
367.97	2131.94
368.19	2074.59
368.40	2037.73
368.62	2029.54
368.83	1890.28
369.05	2031.58
369.26	2004.96
369.48	2002.91
369.69	1964.00
369.91	2133.98
370.12	1972.19
370.33	2115.55
370.55	1970.15
370.76	2045.92
370.98	2060.26
371.19	2009.06
371.41	1994.72
371.62	2015.20
371.84	2009.06
372.05	2131.94
372.27	1955.81
372.48	2041.82
372.69	2080.74
372.91	2179.04
373.12	2127.84
373.34	2150.37
373.55	2191.33
373.77	2121.70
373.98	2093.02
374.20	2211.81
374.41	2269.15
374.62	2093.02
374.84	2131.94
375.05	2181.09
375.27	2181.09
375.48	2160.61
375.70	2150.37
375.91	2199.52
376.12	2215.90
376.34	2099.17
376.55	2191.33
376.77	2203.61
376.98	2131.94
377.19	2162.66
377.41	2133.98
377.62	2195.42
377.84	2234.33
378.05	2303.96
378.27	2217.95
378.48	2342.88
378.69	2377.69
378.91	2256.86
379.12	2236.38
379.34	2222.05
379.55	2322.40
379.76	2281.44
379.98	2213.85
380.19	2164.70
380.41	2236.38
380.62	2275.29
380.83	2248.67
381.05	2248.67
381.26	2365.40
381.47	2252.77
381.69	2220.00
381.90	2385.88
382.12	2346.97
382.33	2314.20
382.54	2250.72
382.76	2273.25
382.97	2260.96
383.19	2191.33
383.40	2375.64
383.61	2234.33
383.83	2289.63
384.04	2330.59
384.25	2394.08
384.47	2404.32
384.68	2267.10
384.89	2310.11
385.11	2299.87
385.32	2379.74
385.54	2389.98
385.75	2383.84
385.96	2400.22
386.18	2475.99
386.39	2441.18
386.60	2312.16
386.82	2400.22
387.03	2459.61
387.24	2506.71
387.46	2512.86
387.67	2457.56
387.88	2480.09
388.10	2543.58
388.31	2406.36
388.52	2541.53
388.74	2539.48
388.95	2351.07
389.16	2463.71
389.38	2439.13
389.59	2721.75
389.80	2572.25
390.02	2519.00
390.23	2555.86
390.44	2531.29
390.66	2504.67
390.87	2480.09
391.08	2609.11
391.30	2609.11
391.51	2662.36
391.72	2668.50
391.94	2666.46
392.15	2500.57
392.36	2635.74
392.58	2633.69
392.79	2605.02
393.00	2633.69
393.22	2748.37
393.43	2807.77
393.64	2846.68
393.85	2775.00
394.07	2705.37
394.28	2740.18
394.49	2748.37
394.71	2746.33
394.92	2818.00
395.13	2695.13
395.35	2686.94
395.56	2801.62
395.77	2787.29
395.98	2820.05
396.20	2891.73
396.41	2756.57
396.62	2875.35
396.84	2777.05
397.05	2914.26
397.26	2891.73
397.47	2901.97
397.69	2904.02
397.90	2996.18
398.11	2828.24
398.32	2863.06
398.54	2854.87
398.75	2881.49
398.96	2893.78
399.18	3059.67
399.39	3006.42
399.60	2985.94
399.81	2838.48
400.03	2936.79
400.24	3219.41
400.45	2985.94
400.66	2930.64
400.88	3047.38
401.09	3221.45
401.30	3057.62
401.51	3147.73
401.73	3043.28
401.94	3129.30
402.15	3166.16
402.36	3149.78
402.58	3172.30
402.79	3258.32
403.00	3162.06
403.21	3180.50
403.43	3262.41
403.64	3282.89
403.85	3051.47
404.06	3121.10
404.27	3080.14
404.49	3157.97
404.70	3139.54
404.91	3248.08
405.12	3303.37
405.34	3221.45
405.55	3356.62
405.76	3098.58
405.97	3231.69
406.19	3360.72
406.40	3248.08
406.61	3319.76
406.82	3323.85
407.03	3313.61
407.25	3305.42
407.46	3358.67
407.67	3407.82
407.88	3456.97
408.09	3424.20
408.31	3330.00
408.52	3284.94
408.73	3254.22
408.94	3342.28
409.15	3407.82
409.37	3456.97
409.58	3549.13
409.79	3495.88
410.00	3502.03
410.21	3377.10
410.43	3489.74
410.64	3485.64
410.85	3497.93
411.06	3461.07
411.27	3450.83
411.48	3645.38
411.70	3481.55
411.91	3553.23
412.12	3629.00
412.33	3553.23
412.54	3534.79
412.76	3735.50
412.97	3649.48
413.18	3553.23
413.39	3633.10
413.60	3719.11
413.81	3672.01
414.03	3569.61
414.24	3577.80
414.45	3747.78
414.66	3536.84
414.87	3745.73
415.08	3710.92
415.30	3645.38
415.51	3762.12
415.72	3723.21
415.93	3733.45
416.14	3753.93
416.35	3938.24
416.56	3768.26
416.78	3796.93
416.99	3878.85
417.20	3940.29
417.41	3823.56
417.62	3930.05
417.83	3827.65
418.04	3798.98
418.26	3919.81
418.47	3844.04
418.68	3925.96
418.89	3960.77
419.10	4118.47
419.31	3962.82
419.52	4177.86
419.73	3936.20
419.95	4050.88
420.16	3934.15
420.37	3956.68
420.58	4040.64
420.79	3948.48
421.00	3952.58
421.21	4061.12
421.42	4159.42
421.63	4048.83
421.85	4106.18
422.06	4083.65
422.27	4132.80
422.48	4247.49
422.69	4097.99
422.90	4214.72
423.11	4155.33
423.32	4306.88
423.53	4343.74
423.75	4310.97
423.96	4337.60
424.17	4372.41
424.38	4431.80
424.59	4446.14
424.80	4399.04
425.01	4366.27
425.22	4257.73
425.43	4356.03
425.64	4601.79
425.85	4521.92
426.06	4605.88
426.28	4372.41
426.49	4394.94
426.70	4456.38
426.91	4493.24
427.12	4464.57
427.33	4673.46
427.54	4499.39
427.75	4698.04
427.96	4685.75
428.17	4601.79
428.38	4782.01
428.59	4865.97
428.80	4827.06
429.01	4753.34
429.23	4802.49
429.44	4960.18
429.65	4902.84
429.86	4939.70
430.07	4827.06
430.28	4798.39
430.49	4966.32
430.70	4927.41
430.91	5107.63
431.12	4753.34
431.33	5121.97
431.54	5021.62
431.75	4974.52
431.96	5048.24
432.17	4999.09
432.38	5062.58
432.59	5345.20
432.80	5087.15
433.01	5183.41
433.22	5267.38
433.43	5236.66
433.64	5189.55
433.85	5236.66
434.06	5277.62
434.27	5146.55
434.49	5371.82
434.70	5386.16
434.91	5386.16
435.12	5377.97
435.33	5304.24
435.54	5459.88
435.75	5160.88
435.96	5345.20
436.17	5341.10
436.38	5611.43
436.59	5601.19
436.80	5369.77
437.01	5656.49
437.22	5658.54
437.43	5588.91
437.64	5435.31
437.85	5615.53
438.06	5787.56
438.27	5693.35
438.48	5717.93
438.69	5775.27
438.90	5636.01
439.11	5646.25
439.32	5785.51
439.53	5838.76
439.74	5722.02
439.95	5867.43
440.16	5861.29
440.37	5889.96
440.57	5849.00
440.78	5889.96
440.99	6047.65
441.20	5910.44
441.41	5896.10
441.62	5883.81
441.83	5814.18
442.04	6162.34
442.25	6096.80
442.46	6066.08
442.67	6191.01
442.88	6393.76
443.09	6055.84
443.30	6031.27
443.51	6178.72
443.72	6354.85
443.93	6041.51
444.14	6332.32
444.35	6131.62
444.56	6360.99
444.77	6244.26
444.98	6348.70
445.19	6406.05
445.40	6494.11
445.61	6166.43
445.81	6565.79
446.02	6385.57
446.23	6352.80
446.44	6201.25
446.65	6465.44
446.86	6578.08
447.07	6547.36
447.28	6700.95
447.49	6569.88
447.70	6703.00
447.91	6700.95
448.12	6694.81
448.33	6684.57
448.54	6819.74
448.74	6580.12
448.95	6842.26
449.16	6631.32
449.37	7190.42
449.58	6680.47
449.79	7063.44
450.00	6703.00
450.21	6938.52
450.42	7104.40
450.63	6938.52
450.84	6965.14
451.05	7028.63
451.25	6965.14
451.46	6979.48
451.67	7208.85
451.88	7157.65
452.09	7131.03
452.30	7081.88
452.51	7145.36
452.72	7178.13
452.93	7452.56
453.13	7174.03
453.34	6942.61
453.55	7425.93
453.76	7376.78
453.97	7550.86
454.18	7303.06
454.39	7579.53
454.60	7489.42
454.81	7532.43
455.01	7573.39
455.22	7346.06
455.43	7612.30
455.64	7802.76
455.85	7839.62
456.06	8019.85
456.27	7634.83
456.48	7565.20
456.68	7786.38
456.89	7769.99
457.10	7884.68
457.31	7917.45
457.52	7810.95
457.73	7995.27
457.94	8040.33
458.14	7833.48
458.35	8288.13
458.56	8343.42
458.77	8234.88
458.98	8302.47
459.19	8136.58
459.39	8236.93
459.60	8425.34
459.81	8271.75
460.02	8513.41
460.23	8525.69
460.44	8515.45
460.65	8734.59
460.85	8537.98
461.06	8546.17
461.27	8384.38
461.48	8845.18
461.69	8910.71
461.89	8468.35
462.10	8667.00
462.31	8537.98
462.52	8701.82
462.73	8769.40
462.94	9045.88
463.14	8859.51
463.35	8863.61
463.56	9437.04
463.77	9293.68
463.98	8914.81
464.18	8994.68
464.39	9365.36
464.60	9226.10
464.81	9428.85
465.02	9434.99
465.23	9529.20
465.43	9314.16
465.64	9672.56
465.85	9774.95
466.06	9443.18
466.27	10022.76
466.47	9561.97
466.68	9863.02
466.89	9766.76
467.10	9846.63
467.30	9758.57
467.51	9983.85
467.72	10153.83
467.93	9758.57
468.14	9977.70
468.34	10168.16
468.55	10241.89
468.76	10221.41
468.97	10102.63
469.17	10440.54
469.38	10430.30
469.59	10614.62
469.80	10280.80
470.01	10698.59
470.21	10626.91
470.42	10973.02
470.63	11245.40
470.84	11013.98
471.04	11075.42
471.25	10997.59
471.46	11194.20
471.67	11296.60
471.87	10899.29
472.08	11396.95
472.29	11485.01
472.50	11124.57
472.70	11415.38
472.91	11525.97
473.12	11706.19
473.33	11759.44
473.53	12148.55
473.74	11638.61
473.95	12193.61
474.16	12169.03
474.36	12023.62
474.57	12386.12
474.78	12474.18
474.99	12308.29
475.19	12179.27
475.40	12824.38
475.61	12726.08
475.81	12869.44
476.02	13090.62
476.23	12773.18
476.44	13035.32
476.64	13324.08
476.85	13307.70
477.06	13180.73
477.27	13547.31
477.47	13580.08
477.68	13731.63
477.89	13696.82
478.09	13803.31
478.30	13758.25
478.51	13862.70
478.71	13889.32
478.92	14042.92
479.13	14208.81
479.34	14360.36
479.54	14210.86
479.75	14399.27
479.96	14487.33
480.16	14630.69
480.37	14661.41
480.58	15134.49
480.78	15210.26
480.99	15027.99
481.20	15052.57
481.41	15294.23
481.61	15109.91
481.82	15580.95
482.03	15357.72
482.23	15462.16
482.44	15759.12
482.65	15920.91
482.85	15963.92
483.06	15863.57
483.27	16008.97
483.47	16047.88
483.68	16283.40
483.89	16318.22
484.09	16193.29
484.30	16525.06
484.51	16559.88
484.71	16690.95
484.92	16379.65
485.13	16951.04
485.33	17266.42
485.54	16867.07
485.75	17227.51
485.95	17565.43
486.16	17434.36
486.37	17626.87
486.57	17389.30
486.78	17633.01
486.98	17614.58
487.19	17880.82
487.40	18065.13
487.60	17817.33
487.81	18122.48
488.02	18091.76
488.22	18136.81
488.43	18581.22
488.64	18552.55
488.84	18685.67
489.05	18777.83
489.25	18665.19
489.46	18943.71
489.67	19056.35
489.87	19154.65
490.08	19322.59
490.29	19220.19
490.49	19615.44
490.70	19511.00
490.90	19756.75
491.11	19517.14
491.32	19676.88
491.52	19775.19
491.73	19672.79
491.94	20063.95
492.14	19867.34
492.35	20047.57
492.55	20057.81
492.76	20328.14
492.97	20575.94
493.17	20367.05
493.38	20575.94
493.58	20954.82
493.79	20725.44
494.00	20504.26
494.20	20590.28
494.41	21102.27
494.61	21124.80
494.82	21141.18
495.02	21186.24
495.23	21219.00
495.44	21405.37
495.64	21606.07
495.85	21335.74
496.05	21640.89
496.26	21444.28
496.47	22220.46
496.67	21753.52
496.88	22275.76
497.08	21630.65
497.29	22214.32
497.49	22236.84
497.70	22189.74
497.91	22572.71
498.11	22513.32
498.32	22281.90
498.52	22447.79
498.73	22994.59
498.93	22554.28
499.14	22777.51
499.34	22849.19
499.55	23033.50
499.76	22746.79
499.96	23314.08
500.17	23101.09
500.37	22888.10
500.58	23185.05
500.78	23211.68
500.99	23361.18
501.19	23615.13
501.40	23299.74
501.60	23322.27
501.81	23746.20
502.02	23643.80
502.22	23479.96
502.43	23611.03
502.63	23916.18
502.84	23934.61
503.04	24116.88
503.25	24037.01
503.45	23842.45
503.66	24600.20
503.86	24094.35
504.07	24262.29
504.27	24151.70
504.48	24534.67
504.68	24225.42
504.89	24827.53
505.09	24540.81
505.30	24600.20
505.50	24491.66
505.71	24706.70
505.91	24710.79
506.12	24714.89
506.32	24727.17
506.53	24794.76
506.73	24913.54
506.94	24837.76
507.14	24913.54
507.35	25333.37
507.55	25269.89
507.76	25392.76
507.96	25056.90
508.17	25345.66
508.37	25392.76
508.58	25224.83
508.78	25431.68
508.99	25517.69
509.19	25843.32
509.40	25519.74
509.60	25319.04
509.81	25788.02
510.01	25634.42
510.22	25597.56
510.42	25906.80
510.63	26082.93
510.83	25806.45
511.04	26216.05
511.24	25900.66
511.44	25824.89
511.65	26078.83
511.85	26009.20
512.06	26101.36
512.26	26492.52
512.47	26400.37
512.67	26470.00
512.88	26281.58
513.08	26349.17
513.29	26496.62
513.49	26189.42
513.69	26510.96
513.90	26488.43
514.10	26877.54
514.31	26742.38
514.51	26828.39
514.72	26830.44
514.92	26990.18
515.13	26912.36
515.33	26920.55
515.53	27156.07
515.74	26920.55
515.94	27387.49
516.15	26961.51
516.35	26871.40
516.56	27602.52
516.76	27098.72
516.96	27412.06
517.17	27670.11
517.37	27313.76
517.58	27463.26
517.78	27459.16
517.99	27465.31
518.19	27889.24
518.39	27813.46
518.60	28186.19
518.80	27872.85
519.01	27885.14
519.21	28120.66
519.41	27911.77
519.62	28005.97
519.82	28356.18
520.03	28214.87
520.23	28640.84
520.43	28143.19
520.64	28812.87
520.84	28804.68
521.05	28505.68
521.25	29099.59
521.45	28933.70
521.66	28974.66
521.86	28843.59
522.07	29011.53
522.27	29052.48
522.47	28989.00
522.68	29369.92
522.88	29171.27
523.08	29607.48
523.29	29613.63
523.49	29525.57
523.70	29619.77
523.90	29955.64
524.10	29924.92
524.31	29736.51
524.51	29644.35
524.71	30113.33
524.92	30144.05
525.12	30430.77
525.33	30281.27
525.53	30484.01
525.73	30809.64
525.94	30596.65
526.14	30610.99
526.34	30543.41
526.55	30979.62
526.75	30897.70
526.95	31317.54
527.16	31206.95
527.36	31245.86
527.56	31522.34
527.77	31655.45
527.97	31551.01
528.17	31362.59
528.38	31606.30
528.58	31733.28
528.78	31958.55
528.99	31919.64
529.19	32146.97
529.39	32120.34
529.60	32132.63
529.80	32224.79
530.00	32265.75
530.21	32785.93
530.41	32693.77
530.61	32431.63
530.82	32577.04
531.02	32876.04
531.22	32986.63
531.43	33213.96
531.63	33578.50
531.83	33547.78
532.04	33752.57
532.24	33517.06
532.44	33707.52
532.64	33719.81
532.85	34160.12
533.05	33668.61
533.25	34127.35
533.46	33738.24
533.66	34393.59
533.86	34188.79
534.07	34428.40
534.27	34328.05
534.47	34598.38
534.67	35194.34
534.88	34700.78
535.08	35175.91
535.28	35247.59
535.49	35012.07
535.69	35517.92
535.89	35345.89
536.09	35581.41
536.30	35366.37
536.50	35937.76
536.70	35536.35
536.91	35567.07
537.11	35929.56
537.31	36140.50
537.51	35972.57
537.72	36560.34
537.92	36466.13
538.12	36865.49
538.32	36160.98
538.53	36976.08
538.73	36525.52
538.93	36578.77
539.13	37014.99
539.34	36337.11
539.54	36724.18
539.74	37066.19
539.94	37090.76
540.15	36976.08
540.35	37158.34
540.55	37199.30
540.75	37537.22
540.96	37891.52
541.16	37684.67
541.36	37733.82
541.56	37500.36
541.77	38149.56
541.97	37852.61
542.17	38026.68
542.37	38223.29
542.58	38297.02
542.78	38383.03
542.98	38348.21
543.18	38600.12
543.38	38888.88
543.59	38733.23
543.79	38430.13
543.99	38569.40
544.19	38702.51
544.40	38942.13
544.60	39017.90
544.80	39030.19
545.00	39560.61
545.20	39210.41
545.41	39003.56
545.61	39433.64
545.81	40099.23
546.01	39568.80
546.21	39634.34
546.42	39515.56
546.62	39749.03
546.82	39275.94
547.02	39734.69
547.22	39722.40
547.43	39734.69
547.63	39693.73
547.83	40117.66
548.03	39630.24
548.23	40101.28
548.44	40244.63
548.64	39753.12
548.84	40371.61
549.04	39978.40
549.24	40371.61
549.45	40986.00
549.65	40574.36
549.85	40605.08
550.05	40723.86
550.25	40521.11
550.45	40981.90
550.66	40492.44
550.86	40656.28
551.06	40723.86
551.26	40580.50
551.46	41057.68
551.66	40983.95
551.87	40887.70
552.07	41094.54
552.27	41059.73
552.47	40932.75
552.67	41377.16
552.87	41395.59
553.07	41229.71
553.28	41477.51
553.48	41721.22
553.68	41205.13
553.88	41588.10
554.08	41078.16
554.28	41518.47
554.48	41428.36
554.69	41690.50
554.89	41764.23
555.09	41665.92
555.29	41514.37
555.49	41923.97
555.69	41725.32
555.89	41969.02
556.10	42149.24
556.30	41674.12
556.50	42397.05
556.70	41743.75
556.90	41674.12
557.10	42134.91
557.30	41907.58
557.50	42200.44
557.70	41977.22
557.91	42136.96
558.11	42397.05
558.31	42540.41
558.51	42204.54
558.71	42059.13
558.91	42313.08
559.11	41919.87
559.31	42268.03
559.51	42108.29
559.72	42556.79
559.92	42497.40
560.12	42468.73
560.32	42642.81
560.52	42110.33
560.72	42421.62
560.92	42384.76
561.12	42425.72
561.32	42409.34
561.52	42274.17
561.72	42638.71
561.93	42493.30
562.13	42814.83
562.33	42667.38
562.53	42851.70
562.73	42526.07
562.93	42620.28
563.13	42728.82
563.33	42739.06
563.53	42636.66
563.73	42741.11
563.93	42642.81
564.13	43179.37
564.33	43193.71
564.53	42837.36
564.74	43023.73
564.94	42591.61
565.14	42995.06
565.34	43066.73
565.54	42866.03
565.74	42898.80
565.94	43255.15
566.14	42671.48
566.34	42970.48
566.54	43240.81
566.74	42937.71
566.94	43136.37
567.14	43277.68
567.34	43119.98
567.54	43687.27
567.74	43259.24
567.94	43074.93
568.14	43543.91
568.34	43674.98
568.54	43414.89
568.74	43441.51
568.94	43541.86
569.14	43605.35
569.34	43535.72
569.54	43226.48
569.75	43238.76
569.95	43832.68
570.15	44041.57
570.35	43775.33
570.55	43810.15
570.75	43820.39
570.95	43877.73
571.15	43586.92
571.35	43531.62
571.55	44025.18
571.75	43720.04
571.95	44217.69
572.15	43939.17
572.35	44023.14
572.55	43701.61
572.75	43992.42
572.95	43912.55
573.15	44115.29
573.35	44176.73
573.55	44219.74
573.75	44385.63
573.95	44135.77
574.15	44234.08
574.35	44354.91
574.55	44447.07
574.75	44332.38
574.95	44148.06
575.15	44275.04
575.34	44725.59
575.54	44969.30
575.74	44533.08
575.94	44758.36
576.14	44692.82
576.34	45079.89
576.54	45079.89
576.74	44961.11
576.94	44729.69
577.14	44858.71
577.34	45509.96
577.54	44809.56
577.74	45071.70
577.94	45190.48
578.14	45204.81
578.34	45342.03
578.54	44993.87
578.74	45503.82
578.94	45542.73
579.14	45313.36
579.34	45374.80
579.54	45350.22
579.74	46003.52
579.94	45696.33
580.13	45886.79
580.33	45514.06
580.53	46181.70
580.73	46093.63
580.93	46202.18
581.13	45888.84
581.33	46210.37
581.53	46419.26
581.73	46359.87
581.93	46353.72
582.13	46312.77
582.33	46556.47
582.53	46677.30
582.73	46613.82
582.92	46552.38
583.12	47052.08
583.32	46484.79
583.52	46421.31
583.72	46495.03
583.92	46880.05
584.12	46800.18
584.32	46839.09
584.52	46914.87
584.72	47220.02
584.92	47076.66
585.11	47301.93
585.31	47254.83
585.51	47504.68
585.71	46927.16
585.91	47705.38
586.11	47437.10
586.31	47582.51
586.51	47539.50
586.71	47398.19
586.91	47678.76
587.10	47633.71
587.30	48125.22
587.50	47908.13
587.70	47863.08
587.90	47838.50
588.10	48127.27
588.30	48121.12
588.50	48332.06
588.69	48203.04
588.89	48076.07
589.09	48098.59
589.29	48399.65
589.49	48989.46
589.69	47988.00
589.89	48971.03
590.08	49034.52
590.28	48776.47
590.48	48432.41
590.68	49052.95
590.88	48848.15
591.08	49179.92
591.28	48715.03
591.47	49190.16
591.67	48909.59
591.87	48915.73
592.07	49161.49
592.27	49239.31
592.47	49470.73
592.67	49403.15
592.86	49587.47
593.06	49521.93
593.26	49777.93
593.46	49730.83
593.66	50181.38
593.86	49626.38
594.05	50027.78
594.25	50109.70
594.45	50044.16
594.65	49861.90
594.85	49730.83
595.05	50279.68
595.24	50224.39
595.44	50304.26
595.64	49882.37
595.84	50308.35
596.04	50490.62
596.23	50500.86
596.43	50867.45
596.63	50660.60
596.83	50570.49
597.03	51002.61
597.22	50941.17
597.42	50674.94
597.62	51164.40
597.82	51207.41
598.02	51270.90
598.21	51299.57
598.41	51090.68
598.61	51510.51
598.81	51422.45
599.01	51565.81
599.20	51252.47
599.40	51404.02
599.60	51612.91
599.80	52090.09
600.00	52276.45
600.19	52036.84
600.39	51733.74
600.59	52411.62
600.79	52163.81
600.98	52116.71
601.18	52245.73
601.38	52468.96
601.58	52434.14
601.78	52356.32
601.97	52462.82
602.17	52649.18
602.37	52847.83
602.57	52362.46
602.76	52966.62
602.96	52763.87
603.16	52804.83
603.36	52632.80
603.55	53316.82
603.75	52925.66
603.95	53109.97
604.15	53470.42
604.34	52884.70
604.54	53443.79
604.74	52993.24
604.94	53370.07
605.13	53226.71
605.33	53599.44
605.53	53028.05
605.73	53769.42
605.92	53505.23
606.12	53482.70
606.32	53773.52
606.52	53992.65
606.71	53818.57
606.91	54222.02
607.11	53816.52
607.30	53800.14
607.50	54484.16
607.70	54049.99
607.90	53916.87
608.09	54047.94
608.29	54426.82
608.49	54260.93
608.68	54203.59
608.88	54217.92
609.08	54334.66
609.28	54326.47
609.47	54093.00
609.67	54512.83
609.87	54279.36
610.06	54944.95
610.26	54209.73
610.46	54551.74
610.66	54355.14
610.85	54834.36
611.05	54590.66
611.25	55055.54
611.44	54940.86
611.64	54867.13
611.84	54770.88
612.03	54486.21
612.23	54867.13
612.43	54854.84
612.62	54719.68
612.82	55010.49
613.02	54723.77
613.21	54867.13
613.41	54406.34
613.61	55129.27
613.80	54656.19
614.00	55311.54
614.20	54830.27
614.39	54785.21
614.59	55180.47
614.79	54699.20
614.98	54699.20
615.18	54932.67
615.38	55465.14
615.57	55243.96
615.77	55356.60
615.97	55065.78
616.16	55090.36
616.36	54793.40
616.56	55284.92
616.75	55729.33
616.95	54768.83
617.15	54879.42
617.34	55098.55
617.54	54938.81
617.74	55203.00
617.93	55428.27
618.13	55006.39
618.32	55329.97
618.52	55008.44
618.72	55186.61
618.91	55131.32
619.11	54944.95
619.31	55037.11
619.50	55336.12
619.70	54641.85
619.90	55407.79
620.09	55237.81
620.29	55094.46
620.48	54727.87
620.68	55225.53
620.88	54754.49
621.07	54830.27
621.27	55006.39
621.46	54607.04
621.66	55084.22
621.86	54842.56
622.05	54701.25
622.25	54793.40
622.44	54252.74
622.64	54877.37
622.84	54977.72
623.03	54674.62
623.23	55033.02
623.42	54437.06
623.62	55194.81
623.82	55215.29
624.01	54770.88
624.21	55205.05
624.40	55188.66
624.60	54717.63
624.80	54549.70
624.99	54930.62
625.19	54359.23
625.38	55155.89
625.58	54873.27
625.77	54645.95
625.97	54383.81
626.17	54101.19
626.36	54875.32
626.56	54953.15
626.75	54150.34
626.95	54967.48
627.14	54572.22
627.34	55051.45
627.54	54217.92
627.73	54678.72
627.93	54740.16
628.12	54156.49
628.32	54482.11
628.51	54244.55
628.71	54559.94
628.90	54641.85
629.10	54121.67
629.30	54160.58
629.49	54373.57
629.69	54525.12
629.88	54467.78
630.08	54660.29
630.27	54930.62
630.47	54359.23
630.66	54277.32
630.86	54584.51
631.05	54154.44
631.25	54504.64
631.44	54510.78
631.64	54408.39
631.84	54381.76
632.03	54625.47
632.23	54205.64
632.42	54494.40
632.62	54359.23
632.81	53802.19
633.01	54518.98
633.20	54346.95
633.40	54248.64
633.59	54252.74
633.79	54244.55
633.98	54224.07
634.18	54322.37
634.37	54619.33
634.57	54033.61
634.76	54852.80
634.96	54125.77
635.15	54537.41
635.35	54617.28
635.54	53968.07
635.74	54535.36
635.93	54518.98
636.13	54437.06
636.32	54025.42
636.52	54320.32
636.71	54191.30
636.91	54355.14
637.10	54478.02
637.30	53824.71
637.49	54011.08
637.69	54199.49
637.88	54887.61
638.08	54162.63
638.27	54189.25
638.46	53902.54
638.66	53800.14
638.85	54400.19
639.05	54351.04
639.24	54426.82
639.44	54031.56
639.63	53939.40
639.83	54539.46
640.02	54090.95
640.22	54260.93
640.41	54314.18
640.61	53982.41
640.80	54322.37
640.99	54093.00
641.19	54504.64
641.38	54242.50
641.58	54185.16
641.77	54011.08
641.97	54330.56
642.16	53927.11
642.36	54262.98
642.55	54670.53
642.74	53791.95
642.94	54965.43
643.13	53959.88
643.33	54492.35
643.52	54484.16
643.72	54430.91
643.91	54453.44
644.10	54525.12
644.30	54353.09
644.49	54142.15
644.69	54473.92
644.88	54408.39
645.08	54269.12
645.27	54371.52
645.46	54027.46
645.66	54168.77
645.85	54527.17
646.05	54138.05
646.24	54586.56
646.43	54645.95
646.63	54731.96
646.82	54672.57
647.02	54287.56
647.21	54604.99
647.40	54457.54
647.60	54910.14
647.79	54613.18
647.99	54676.67
648.18	54551.74
648.37	54969.53
648.57	54674.62
648.76	54267.08
648.96	54367.43
649.15	54699.20
649.34	54566.08
649.54	54766.78
649.73	54826.17
649.92	55139.51
650.12	54508.74
650.31	55110.84
650.51	54768.83
650.70	54920.38
650.89	54535.36
651.09	55514.29
651.28	55035.06
651.47	54662.33
651.67	54604.99
651.86	55080.12
652.06	54207.68
652.25	54787.26
652.44	54695.10
652.64	54639.81
652.83	54666.43
653.02	54553.79
653.22	54676.67
653.41	54817.98
653.60	54469.82
653.80	54547.65
653.99	54854.84
654.18	54738.11
654.38	54799.55
654.57	54711.49
654.76	54981.82
654.96	54844.60
655.15	54811.84
655.34	54740.16
655.54	54586.56
655.73	54795.45
655.92	55221.43
656.12	54770.88
656.31	55076.02
656.50	55205.05
656.70	54357.19
656.89	54928.57
657.08	55049.40
657.28	54670.53
657.47	55164.09
657.66	55131.32
657.86	54854.84
658.05	54758.59
658.24	55121.08
658.43	54799.55
658.63	55184.57
658.82	54922.43
659.01	55313.59
659.21	55094.46
659.40	55190.71
659.59	54926.52
659.79	55186.61
659.98	55573.68
660.17	55483.57
660.36	55229.62
660.56	55305.40
660.75	55502.00
660.94	55168.18
661.14	55377.08
661.33	54705.34
661.52	54891.71
661.71	55291.06
661.91	54990.01
662.10	55143.61
662.29	56083.62
662.49	55317.68
662.68	55243.96
662.87	55157.94
663.06	55475.38
663.26	55188.66
663.45	55186.61
663.64	55162.04
663.83	55801.00
664.03	55788.72
664.22	55774.38
664.41	55921.83
664.60	55719.09
664.80	55719.09
664.99	55555.25
665.18	55424.18
665.37	55438.51
665.57	55639.22
665.76	55493.81
665.95	55884.97
666.14	55729.33
666.34	55620.78
666.53	55461.04
666.72	55594.16
666.91	55203.00
667.11	55811.24
667.30	55639.22
667.49	55727.28
667.68	55530.67
667.87	55387.31
668.07	55970.99
668.26	55831.72
668.45	55927.98
668.64	55784.62
668.84	56128.68
669.03	56317.09
669.22	56136.87
669.41	55880.88
669.60	56097.96
669.80	55825.58
669.99	56214.69
670.18	55729.33
670.37	56007.85
670.57	55850.16
670.76	55772.33
670.95	56114.34
671.14	56081.58
671.33	55592.11
671.53	56603.81
671.72	55995.56
671.91	56005.80
672.10	55897.26
672.29	56040.62
672.48	55807.15
672.68	56620.19
672.87	56022.19
673.06	55991.47
673.25	55921.83
673.44	56075.43
673.64	55841.96
673.83	55884.97
674.02	55786.67
674.21	55401.65
674.40	56165.54
674.59	56044.71
674.79	55649.45
674.98	56085.67
675.17	56065.19
675.36	55643.31
675.55	56366.24
675.74	55659.69
675.94	55995.56
676.13	56132.78
676.32	56499.36
676.51	56450.21
676.70	55989.42
676.89	56407.20
677.08	56448.16
677.28	55942.31
677.47	56394.92
677.66	56726.69
677.85	56401.06
678.04	56902.81
678.23	56550.56
678.42	56562.85
678.62	56167.59
678.81	56640.67
679.00	56777.89
679.19	56968.35
679.38	56108.20
679.57	56411.30
679.76	56532.13
679.96	56491.17
680.15	56278.18
680.34	56192.17
680.53	56523.94
680.72	56423.59
680.91	56622.24
681.10	56313.00
681.29	56382.63
681.48	56376.48
681.68	56095.91
681.87	56335.52
682.06	56718.49
682.25	55987.37
682.44	56110.25
682.63	56460.45
682.82	55954.60
683.01	56493.22
683.20	56157.35
683.39	56360.10
683.59	55727.28
683.78	55905.45
683.97	55991.47
684.16	56300.71
684.35	55987.37
684.54	56247.46
684.73	56192.17
684.92	55897.26
685.11	56431.78
685.30	55768.24
685.49	56456.35
685.69	56380.58
685.88	55997.61
686.07	56075.43
686.26	56276.13
686.45	56509.60
686.64	56186.02
686.83	56333.48
687.02	56030.38
687.21	56251.56
687.40	56169.64
687.59	56300.71
687.78	55981.23
687.97	56468.64
688.16	56269.99
688.35	55862.44
688.54	56132.78
688.74	56300.71
688.93	56161.45
689.12	56036.52
689.31	55895.21
689.50	56153.26
689.69	55862.44
689.88	55510.19
690.07	55930.03
690.26	56050.86
690.45	55907.50
690.64	55850.16
690.83	55379.12
691.02	55651.50
691.21	55930.03
691.40	55729.33
691.59	55997.61
691.78	55606.45
691.97	56085.67
692.16	55379.12
692.35	56046.76
692.54	55585.97
692.73	55942.31
692.92	55821.48
693.11	55934.12
693.30	55708.85
693.49	56046.76
693.68	55719.09
693.87	55387.31
694.06	55588.02
694.25	55246.00
694.44	55407.79
694.63	55919.79
694.82	55520.43
695.01	55575.73
695.20	55379.12
695.39	55571.63
695.58	55491.76
695.77	55241.91
695.96	55194.81
696.15	55725.23
696.34	55418.03
696.53	55456.95
696.72	55030.97
696.91	55213.24
697.10	55479.47
697.29	55100.60
697.48	55276.72
697.67	55071.93
697.86	55323.83
698.05	54705.34
698.24	55078.07
698.43	54869.18
698.62	55014.58
698.81	54650.05
699.00	55280.82
699.19	54967.48
699.38	55176.37
699.57	54594.75
699.76	55473.33
699.95	54715.58
700.14	54654.14
700.32	54742.20
700.51	55006.39
700.70	54715.58
700.89	55190.71
701.08	54903.99
701.27	54910.14
701.46	55151.80
701.65	53765.32
701.84	54670.53
702.03	54850.75
702.22	54584.51
702.41	54551.74
702.60	54555.84
702.79	54670.53
702.98	54310.08
703.17	54863.03
703.35	54170.82
703.54	53750.99
703.73	54822.08
703.92	54174.92
704.11	54174.92
704.30	53963.98
704.49	54265.03
704.68	53845.19
704.87	53982.41
705.06	53664.97
705.25	53611.73
705.43	53744.84
705.62	54142.15
705.81	54080.71
706.00	53900.49
706.19	53406.93
706.38	53284.05
706.57	53695.69
706.76	53378.26
706.95	53611.73
707.14	53478.61
707.32	52966.62
707.51	53253.33
707.70	53544.14
707.89	53167.32
708.08	53138.65
708.27	53511.38
708.46	53593.29
708.65	53343.44
708.84	53542.10
709.02	53617.87
709.21	53427.41
709.40	53357.78
709.59	53128.41
709.78	52780.25
709.97	53181.65
710.16	52233.44
710.34	52827.35
710.53	53105.88
710.72	52878.55
710.91	53173.46
711.10	52956.38
711.29	52753.63
711.48	52436.19
711.66	52845.79
711.85	52327.65
712.04	52849.88
712.23	52792.54
712.42	52438.24
712.61	52571.36
712.80	52638.94
712.98	52718.81
713.17	52731.10
713.36	52245.73
713.55	52337.89
713.74	52296.93
713.93	52606.17
714.11	52268.26
714.30	51789.03
714.49	52022.50
714.68	52120.80
714.87	52278.50
715.06	52368.61
715.24	51746.03
715.43	51776.75
715.62	51289.33
715.81	51604.72
716.00	51459.31
716.18	51442.93
716.37	51277.04
716.56	51336.43
716.75	51678.44
716.94	51680.49
717.12	51240.18
717.31	51670.25
717.50	51422.45
717.69	51287.28
717.88	51471.60
718.06	51272.95
718.25	51674.35
718.44	50777.34
718.63	51041.53
718.82	50803.96
719.00	50838.78
719.19	50840.82
719.38	50746.62
719.57	50638.08
719.76	50195.71
719.94	50306.30
720.13	49839.37
720.32	50746.62
720.51	50445.57
720.69	49892.61
720.88	50191.62
721.07	50193.67
721.26	49175.83
721.44	49691.91
721.63	50001.16
721.82	49589.52
722.01	49521.93
722.20	49960.20
722.38	49587.47
722.57	49020.18
722.76	49530.12
722.95	49405.20
723.13	49108.24
723.32	49161.49
723.51	48715.03
723.70	48747.80
723.88	49179.92
724.07	48696.60
724.26	49128.72
724.44	48250.14
724.63	49005.84
724.82	48659.74
725.01	48641.31
725.19	48770.33
725.38	48567.58
725.57	48616.73
725.76	48540.96
725.94	48051.49
726.13	48422.17
726.32	48145.70
726.51	48401.69
726.69	48885.01
726.88	48282.91
727.07	48573.72
727.25	48010.53
727.44	48114.98
727.63	48690.46
727.82	48409.89
728.00	48229.66
728.19	48338.21
728.38	48127.27
728.56	47953.19
728.75	48487.71
728.94	47979.81
729.12	48219.42
729.31	47875.37
729.50	47904.04
729.69	48018.72
729.87	48176.42
730.06	47955.24
730.25	48069.92
730.43	47893.80
730.62	47590.70
730.81	47871.27
730.99	47779.11
731.18	47746.34
731.37	48153.89
731.55	47727.91
731.74	48211.23
731.93	47795.49
732.11	47781.16
732.30	47625.51
732.49	47559.98
732.67	47420.72
732.86	48037.16
733.05	47822.12
733.23	47392.04
733.42	47641.90
733.61	47666.47
733.79	47719.72
733.98	47742.25
734.17	47602.99
734.35	47144.24
734.54	47682.86
734.73	47709.48
734.91	47465.77
735.10	47078.71
735.29	47529.26
735.47	47027.51
735.66	47205.68
735.84	47146.29
736.03	46900.53
736.22	47439.15
736.40	47123.76
736.59	47011.12
736.78	46916.92
736.96	46861.62
737.15	47062.32
737.33	46699.83
737.52	46585.15
737.71	46595.38
737.89	46695.74
738.08	46437.69
738.27	46331.20
738.45	46888.24
738.64	46783.80
738.82	46634.30
739.01	46449.98
739.20	46292.29
739.38	46249.28
739.57	47187.25
739.75	46511.42
739.94	46482.75
740.13	46495.03
740.31	45909.32
740.50	46386.49
740.68	46343.48
740.87	46339.39
741.06	46538.04
741.24	45874.50
741.43	45894.98
741.61	46290.24
741.80	46011.71
741.99	45792.58
742.17	45849.92
742.36	45868.36
742.54	45919.56
742.73	45835.59
742.91	45907.27
743.10	45788.49
743.29	46200.13
743.47	45784.39
743.66	45528.39
743.84	45774.15
744.03	45770.05
744.21	45323.60
744.40	45573.45
744.59	45614.41
744.77	45524.30
744.96	45555.02
745.14	45595.98
745.33	45851.97
745.51	45456.71
745.70	45483.34
745.88	45317.45
746.07	45229.39
746.26	45258.06
746.44	45194.57
746.63	45118.80
746.81	45301.07
747.00	45161.81
747.18	45241.68
747.37	45409.61
747.55	45102.42
747.74	45487.43
747.92	44889.43
748.11	45194.57
748.29	45260.11
748.48	45200.72
748.66	44922.19
748.85	44766.55
749.03	44780.88
749.22	44506.46
749.41	44963.15
749.59	44719.45
749.78	44787.03
749.96	44164.45
750.15	44524.89
750.33	44586.33
750.52	44576.09
750.70	44506.46
750.89	44371.29
751.07	44086.62
751.26	44320.09
751.44	44072.29
751.63	44285.28
751.81	44123.49
752.00	44123.49
752.18	44352.86
752.37	44096.86
752.55	44010.85
752.74	43986.27
752.92	44109.15
753.10	43601.25
753.29	44113.25
753.47	43824.48
753.66	43832.68
753.84	44135.77
754.03	43877.73
754.21	43789.67
754.40	43959.65
754.58	43597.16
754.77	43625.83
754.95	43203.95
755.14	43378.03
755.32	43349.35
755.51	43318.64
755.69	43302.25
755.88	43867.49
756.06	43494.76
756.24	43173.23
756.43	43437.42
756.61	43459.94
756.80	43220.33
756.98	43103.60
757.17	43029.87
757.35	43103.60
757.54	42915.19
757.72	43423.08
757.90	43113.84
758.09	42726.77
758.27	42941.81
758.46	42222.97
758.64	42894.71
758.83	43224.43
759.01	43185.52
759.19	42698.10
759.38	42902.90
759.56	43122.03
759.75	42698.10
759.93	42560.89
760.12	42589.56
760.30	43173.23
760.48	43101.55
760.67	42855.79
760.85	42579.32
761.04	42827.12
761.22	42898.80
761.40	42921.33
761.59	42573.17
761.77	42444.15
761.96	42530.17
762.14	42714.48
762.32	42042.75
762.51	42046.85
762.69	41987.46
762.88	42134.91
763.06	42124.67
763.24	42268.03
763.43	42108.29
763.61	42202.49
763.80	42157.44
763.98	42079.61
764.16	42161.53
764.35	42046.85
764.53	41524.61
764.72	42112.38
764.90	42237.31
765.08	41934.21
765.27	41911.68
765.45	41854.34
765.63	41395.59
765.82	41840.00
766.00	41479.56
766.18	41817.47
766.37	42052.99
766.55	41442.70
766.74	41743.75
766.92	41190.80
767.10	41321.87
767.29	41358.73
767.47	41241.99
767.65	41426.31
767.84	40879.50
768.02	41704.84
768.20	40768.91
768.39	41194.89
768.57	41674.12
768.75	41164.17
768.94	41231.75
769.12	41207.18
769.30	41289.10
769.49	40830.35
769.67	40639.89
769.85	40523.16
770.04	40897.94
770.22	40719.76
770.40	40693.14
770.59	40600.98
770.77	40668.56
770.95	40648.08
771.14	40609.17
771.32	40510.87
771.50	40162.72
771.69	40684.95
771.87	40752.53
772.05	40215.96
772.24	40088.99
772.42	40711.57
772.60	40412.57
772.78	39957.92
772.97	40154.52
773.15	40568.21
773.33	39968.16
773.52	40033.69
773.70	39888.29
773.88	40506.77
774.07	40074.65
774.25	40496.53
774.43	40269.21
774.61	40541.59
774.80	40490.39
774.98	40105.37
775.16	40594.84
775.34	40191.39
775.53	40224.15
775.71	40621.46
775.89	40277.40
776.08	40236.44
776.26	40824.21
776.44	40113.56
776.62	40222.11
776.81	40404.38
776.99	40363.42
777.17	40230.30
777.35	40467.86
777.54	40959.38
777.72	40576.40
777.90	40017.31
778.08	40723.86
778.27	40560.02
778.45	40797.59
778.63	41094.54
778.81	40390.04
779.00	41575.81
779.18	41090.44
779.36	41317.77
779.54	40633.75
779.73	40705.43
779.91	40979.85
780.09	41043.34
780.27	41194.89
780.46	40973.71
780.64	41315.72
780.82	41235.85
781.00	40889.74
781.19	41332.11
781.37	41313.67
781.55	41555.33
781.73	41694.60
781.91	41198.99
782.10	41031.05
782.28	41393.54
782.46	41336.20
782.64	41514.37
782.82	41041.29
783.01	41624.96
783.19	41512.33
783.37	41745.80
783.55	41383.30
783.74	41690.50
783.92	41248.14
784.10	41895.30
784.28	41713.03
784.46	41538.95
784.64	41643.40
784.83	41723.27
785.01	41997.70
785.19	41700.74
785.37	41997.70
785.55	41641.35
785.74	41397.64
785.92	41215.37
786.10	41676.16
786.28	41608.58
786.46	41715.08
786.64	41383.30
786.83	41383.30
787.01	41483.66
787.19	41303.43
787.37	41586.05
787.55	41332.11
787.74	41137.55
787.92	41446.79
788.10	41166.22
788.28	41174.41
788.46	41295.24
788.64	41084.30
788.82	41602.44
789.01	41426.31
789.19	41325.96
789.37	41082.25
789.55	41123.21
789.73	40783.25
789.91	40932.75
790.09	41149.84
790.28	40885.65
790.46	40385.94
790.64	40973.71
790.82	40885.65
791.00	40115.61
791.18	40254.87
791.36	40600.98
791.55	40871.31
791.73	40078.75
791.91	39939.49
792.09	40095.13
792.27	39792.03
792.45	40301.98
792.63	40361.37
792.81	39982.49
793.00	40066.46
793.18	39613.86
793.36	39755.17
793.54	39683.49
793.72	39497.13
793.90	39652.77
794.08	39204.27
794.26	39392.68
794.44	39296.42
794.62	39101.87
794.81	39482.79
794.99	39224.75
795.17	39155.11
795.35	38935.98
795.53	39214.51
795.71	39120.30
795.89	38612.40
796.07	38426.04
796.25	38573.49
796.43	38245.82
796.61	38081.98
796.80	37780.93
796.98	38682.03
797.16	38188.47
797.34	38219.19
797.52	38294.97
797.70	38376.89
797.88	38192.57
798.06	37762.50
798.24	37555.65
798.42	37596.61
798.60	37416.39
798.78	37885.37
798.96	37676.48
799.14	37514.69
799.32	37508.55
799.51	37178.82
799.69	37258.70
799.87	37371.33
800.05	37537.22
800.23	37223.88
800.41	37289.42
800.59	36834.77
800.77	36576.72
800.95	36625.87
801.13	36625.87
801.31	36408.79
801.49	36744.66
801.67	36322.77
801.85	36341.21
802.03	36144.60
802.21	36060.63
802.39	36015.58
802.57	36355.54
802.75	36234.71
802.93	36120.02
803.11	36066.78
803.29	35739.10
803.47	35540.45
803.65	35943.90
803.83	35501.54
804.01	35595.74
804.19	35079.66
804.37	35464.67
804.55	35233.25
804.73	35012.07
804.91	35159.53
805.09	35292.65
805.27	35309.03
805.45	35145.19
805.63	34962.92
805.81	35190.25
805.99	35204.58
806.17	35259.88
806.35	34881.00
806.53	34702.83
806.71	34770.41
806.89	34534.90
807.07	34459.12
807.25	34635.25
807.43	34131.45
807.61	34295.28
807.79	34338.29
807.97	33633.79
808.15	33822.20
808.33	33807.87
808.51	33975.80
808.69	33902.07
808.87	33871.36
809.05	33674.75
809.23	33601.02
809.41	33418.75
809.59	33560.06
809.77	33637.89
809.95	33381.89
810.13	33365.51
810.31	33342.98
810.49	32917.00
810.67	33064.46
810.84	33203.72
811.02	33031.69
811.20	32681.49
811.38	32941.58
811.56	32687.63
811.74	32550.42
811.92	32654.86
812.10	32771.60
812.28	33013.26
812.46	32704.01
812.64	32603.66
812.82	32542.22
813.00	32228.88
813.18	32355.86
813.36	32255.51
813.53	32063.00
813.71	32333.33
813.89	32108.05
814.07	31858.20
814.25	32153.11
814.43	31811.10
814.61	31890.97
814.79	31725.08
814.97	31735.32
815.15	31755.80
815.33	31436.32
815.50	30971.43
815.68	31471.14
815.86	31628.83
816.04	31292.96
816.22	31540.77
816.40	31329.83
816.58	31141.41
816.76	31028.77
816.94	30838.31
817.11	31309.35
817.29	30836.27
817.47	30887.46
817.65	30805.55
817.83	30963.24
818.01	30957.10
818.19	30862.89
818.37	30651.95
818.54	30221.87
818.72	30299.70
818.90	30359.09
819.08	30350.90
819.26	30598.70
819.44	30453.30
819.62	30314.03
819.80	30238.26
819.97	30268.98
820.15	29879.86
820.33	29697.59
820.51	30076.47
820.69	29603.39
820.87	30148.15
821.05	29873.72
821.22	29486.65
821.40	29578.81
821.58	29777.47
821.76	29298.24
821.94	29244.99
822.12	29570.62
822.29	29871.67
822.47	29564.48
822.65	29859.38
822.83	29713.98
823.01	29697.59
823.19	29490.75
823.36	29173.31
823.54	29115.97
823.72	29091.40
823.90	29148.74
824.08	28778.06
824.25	29046.34
824.43	28685.90
824.61	28759.63
824.79	28806.73
824.97	28689.99
825.15	28708.43
825.32	28964.42
825.50	28474.96
825.68	28687.95
825.86	28857.93
826.04	28589.64
826.21	28241.49
826.39	28520.01
826.57	28395.09
826.75	28466.77
826.93	28102.23
827.10	28458.57
827.28	28440.14
827.46	28169.81
827.64	28429.90
827.81	27938.39
827.99	28208.72
828.17	27840.09
828.35	27698.78
828.53	28040.79
828.70	27528.80
828.88	27850.33
829.06	28141.14
829.24	27942.49
829.41	27752.02
829.59	28032.60
829.77	27475.55
829.95	27686.49
830.12	27422.30
830.30	27405.92
830.48	27582.04
830.66	27680.35
830.84	27223.65
831.01	27379.29
831.19	27135.59
831.37	27326.05
831.55	27418.21
831.72	27031.14
831.90	27211.36
832.08	27168.35
832.25	27047.52
832.43	27090.53
832.61	26699.37
832.79	26623.59
832.96	26685.03
833.14	26881.64
833.32	26957.41
833.50	26912.36
833.67	26766.95
833.85	26642.03
834.03	26654.31
834.20	26668.65
834.38	26826.34
834.56	26619.50
834.74	26328.69
834.91	26603.11
835.09	26502.76
835.27	26207.86
835.44	26381.93
835.62	25915.00
835.80	25751.16
835.98	26148.46
836.15	26355.31
836.33	26027.63
836.51	26461.80
836.68	25826.93
836.86	26365.55
837.04	26343.02
837.21	25986.68
837.39	26244.72
837.57	26068.59
837.75	26152.56
837.92	25788.02
838.10	25851.51
838.28	25534.07
838.45	25544.31
838.63	25568.89
838.81	25411.20
838.98	25396.86
839.16	25241.21
839.34	25523.83
839.51	25648.76
839.69	25247.36
839.87	24989.31
840.04	25380.48
840.22	25570.94
840.40	25454.20
840.57	24966.79
840.75	25130.62
840.93	24948.36
841.10	24927.88
841.28	25341.57
841.46	25216.64
841.63	25050.75
841.81	25060.99
841.98	25040.51
842.16	25149.06
842.34	24997.51
842.51	24610.44
842.69	25190.02
842.87	24637.06
843.04	24759.94
843.22	24340.11
843.40	24387.21
843.57	24495.75
843.75	24895.11
843.92	24616.58
844.10	24333.96
844.28	24549.00
844.45	24419.98
844.63	24446.60
844.81	24362.64
844.98	24469.13
845.16	24229.52
845.33	24247.95
845.51	24405.64
845.69	24184.46
845.86	24215.18
846.04	23682.71
846.21	24159.89
846.39	24127.12
846.57	23869.08
846.74	23955.09
846.92	23946.90
847.09	23903.89
847.27	23690.90
847.45	23778.97
847.62	23864.98
847.80	23815.83
847.97	23778.97
848.15	23606.94
848.32	23778.97
848.50	23502.49
848.68	23527.06
848.85	23776.92
849.03	23234.21
849.20	23426.71
849.38	23541.40
849.56	23701.14
849.73	23056.03
849.91	23477.91
850.08	23381.66
850.26	23176.86
850.43	23168.67
850.61	23156.38
850.78	22933.15
850.96	22896.29
851.14	23000.74
851.31	23271.07
851.49	22638.25
851.66	23051.94
851.84	22763.17
852.01	22824.61
852.19	22824.61
852.36	22763.17
852.54	22912.67
852.71	22912.67
852.89	22671.01
853.07	22740.64
853.24	22525.61
853.42	22746.79
853.59	22458.03
853.77	22337.20
853.94	22689.45
854.12	22853.28
854.29	22355.63
854.47	22283.95
854.64	22263.47
854.82	22398.63
854.99	22369.96
855.17	22472.36
855.34	22107.82
855.52	22218.41
855.69	22388.39
855.87	22030.00
856.04	21681.85
856.22	22267.56
856.39	21960.37
856.57	22195.89
856.74	21704.37
856.92	21952.18
857.09	21880.50
857.27	21669.56
857.44	22070.96
857.62	21984.94
857.79	21970.61
857.97	21870.26
858.14	21796.53
858.32	22068.91
858.49	21794.48
858.67	21671.61
858.84	21505.72
859.02	21456.57
859.19	21585.59
859.37	21515.96
859.54	21475.00
859.72	21565.11
859.89	21552.82
860.06	21411.51
860.24	21489.34
860.41	21540.54
860.59	21434.04
860.76	21286.59
860.94	20905.66
861.11	21280.44
861.29	21290.68
861.46	21016.26
861.64	20924.10
861.81	21280.44
861.98	20954.82
862.16	20909.76
862.33	20764.36
862.51	20668.10
862.68	20960.96
862.86	20793.03
863.03	21003.97
863.21	20588.23
863.38	20842.18
863.55	20725.44
863.73	20694.72
863.90	20612.81
864.08	20881.09
864.25	20801.22
864.43	20504.26
864.60	20565.70
864.77	20571.85
864.95	20383.43
865.12	20106.96
865.30	20496.07
865.47	20410.06
865.64	20420.30
865.82	20393.67
865.99	20608.71
866.17	20076.24
866.34	20348.62
866.51	19963.60
866.69	20123.34
866.86	20115.15
867.04	19826.39
867.21	19932.88
867.38	19914.45
867.56	19728.08
867.73	19756.75
867.91	19635.92
868.08	19791.57
868.25	19855.06
868.43	19990.22
868.60	19695.32
868.78	19500.76
868.95	19752.66
869.12	19494.61
869.30	19523.29
869.47	19695.32
869.64	19453.66
869.82	19476.18
869.99	19293.91
870.16	19771.09
870.34	19429.08
870.51	19404.50
870.69	19164.89
870.86	19424.98
871.03	19361.50
871.21	19015.39
871.38	19324.63
871.55	19183.32
871.73	19193.56
871.90	18622.18
872.07	19039.97
872.25	18800.35
872.42	18999.01
872.59	19105.50
872.77	19160.80
872.94	18826.98
873.11	18630.37
873.29	18880.22
873.46	18804.45
873.63	18738.91
873.81	18675.43
873.98	18337.51
874.15	18487.01
874.33	18321.13
874.50	18413.29
874.67	18587.36
874.85	18183.91
875.02	18202.35
875.19	18292.46
875.37	18241.26
875.54	18294.50
875.71	18179.82
875.88	17872.62
876.06	18063.08
876.23	18093.80
876.40	17966.83
876.58	18075.37
876.75	17985.26
876.92	17757.94
877.10	17993.45
877.27	17968.88
877.44	17829.62
877.61	17639.15
877.79	17542.90
877.96	17860.34
878.13	17665.78
878.31	17610.48
878.48	17319.67
878.65	17323.77
878.82	17618.68
879.00	17506.04
879.17	17551.09
879.34	17454.84
879.51	17385.21
879.69	17200.89
879.86	17139.45
880.03	17487.61
880.21	17098.49
880.38	17250.04
880.55	17415.93
880.72	17118.97
880.90	17350.39
881.07	17024.76
881.24	17307.38
881.41	17198.84
881.59	16987.90
881.76	16948.99
881.93	16979.71
882.10	16705.28
882.28	16996.09
882.45	17092.35
882.62	16946.94
882.79	16867.07
882.96	16598.79
883.14	16953.09
883.31	16783.10
883.48	16590.59
883.65	16695.04
883.83	16887.55
884.00	16441.09
884.17	16645.89
884.34	16850.69
884.51	16510.72
884.69	16420.61
884.86	16717.57
885.03	16647.94
885.20	16174.86
885.38	16516.87
885.55	16307.98
885.72	16162.57
885.89	16283.40
886.06	16537.35
886.24	16318.22
886.41	16379.65
886.58	16498.44
886.75	16482.05
886.92	16240.39
887.10	16295.69
887.27	16205.58
887.44	16232.20
887.61	16312.07
887.78	16236.30
887.95	16283.40
888.13	16129.80
888.30	16080.65
888.47	16084.75
888.64	16066.31
888.81	15828.75
888.99	16066.31
889.16	15949.58
889.33	15884.05
889.50	15838.99
889.67	15841.04
889.84	15611.67
890.01	15884.05
890.19	15699.73
890.36	15691.54
890.53	15658.77
890.70	15650.58
890.87	15806.22
891.04	15779.60
891.22	15650.58
891.39	15595.28
891.56	15456.02
891.73	15415.06
891.90	15626.00
892.07	15423.25
892.24	15406.87
892.42	15419.16
892.59	15273.75
892.76	15462.16
892.93	15099.67
893.10	15433.49
893.27	15265.56
893.44	15335.19
893.61	15226.65
893.79	15433.49
893.96	15396.63
894.13	15298.33
894.30	15548.18
894.47	15255.32
894.64	15404.82
894.81	15066.91
894.98	15060.76
895.15	15130.39
895.33	15079.19
895.50	15130.39
895.67	15255.32
895.84	15310.61
896.01	15230.74
896.18	14987.04
896.35	15136.54
896.52	14950.17
896.69	15189.78
896.86	15218.46
897.04	15032.09
897.21	14966.56
897.38	15077.15
897.55	14884.64
897.72	14941.98
897.89	14939.93
898.06	14948.12
898.23	15126.30
898.40	15159.06
898.57	14954.27
898.74	15126.30
898.91	14841.63
899.08	15288.09
899.26	14984.99
899.43	15126.30
899.60	14831.39
899.77	15001.37
899.94	14769.95
900.11	14982.94
900.28	14870.30
900.45	14860.06
900.62	14903.07
900.79	15107.87
900.96	14843.68
901.13	14937.88
901.30	14946.08
901.47	14757.66
901.64	14898.97
901.81	14960.41
901.98	14901.02
902.15	15107.87
902.32	14671.65
902.49	14999.32
902.66	14915.36
902.83	14890.78
903.01	15071.00
903.18	14995.23
903.35	15046.43
903.52	14737.18
903.69	14939.93
903.86	15011.61
904.03	15025.95
904.20	15021.85
904.37	15122.20
904.54	14907.16
904.71	14823.20
904.88	14933.79
905.05	14993.18
905.22	14898.97
905.39	14774.05
905.56	14939.93
905.73	14624.54
905.90	14825.25
906.07	15120.15
906.24	15064.86
906.41	14907.16
906.58	14884.64
906.75	14958.36
906.92	14827.29
907.09	15046.43
907.26	14788.38
907.43	14845.73
907.60	14896.92
907.77	14894.88
907.93	14855.97
908.10	15036.19
908.27	14978.84
908.44	14796.57
908.61	14860.06
908.78	14769.95
908.95	14753.57
909.12	14796.57
909.29	14696.22
909.46	14937.88
909.63	15081.24
909.80	14858.01
909.97	14798.62
910.14	14663.46
910.31	14749.47
910.48	14548.77
910.65	14630.69
910.82	14735.14
910.99	14589.73
911.16	14528.29
911.33	14579.49
911.50	14642.98
911.66	14657.31
911.83	14739.23
912.00	14419.75
912.17	14323.49
912.34	14307.11
912.51	14395.17
912.68	14298.92
912.85	14440.23
913.02	14429.99
913.19	14221.10
913.36	14548.77
913.53	14348.07
913.70	14083.88
913.86	14321.45
914.03	14241.57
914.20	14184.23
914.37	14241.57
914.54	14130.98
914.71	14157.61
914.88	14143.27
915.05	14290.73
915.22	14145.32
915.39	14184.23
915.55	14251.81
915.72	13967.15
915.89	14038.83
916.06	13805.36
916.23	13872.94
916.40	13748.01
916.57	13905.71
916.74	13733.68
916.91	13893.42
917.07	13655.86
917.24	13698.86
917.41	13604.66
917.58	13768.49
917.75	13510.45
917.92	13276.98
918.09	13588.27
918.26	13315.89
918.42	13573.94
918.59	13309.75
918.76	13268.79
918.93	13164.34
919.10	13236.02
919.27	13160.25
919.44	13289.27
919.60	13418.29
919.77	13272.89
919.94	12963.64
920.11	13094.71
920.28	13010.75
920.45	13197.11
920.61	12963.64
920.78	12937.02
920.95	12775.23
921.12	12834.62
921.29	12715.84
921.46	12805.95
921.62	12914.49
921.79	12635.97
921.96	12758.85
922.13	12545.86
922.30	12584.77
922.47	12656.45
922.63	12627.78
922.80	12541.76
922.97	12511.04
923.14	12320.58
923.31	12474.18
923.47	12083.02
923.64	12574.53
923.81	12259.14
923.98	12201.80
924.15	12175.17
924.32	12058.44
924.48	12267.33
924.65	12298.05
924.82	11749.20
924.99	11859.79
925.15	11935.56
925.32	11775.82
925.49	11566.93
925.66	11704.14
925.83	11474.77
925.99	11646.80
926.16	11571.02
926.33	11505.49
926.50	11511.63
926.67	11595.60
926.83	11470.67
927.00	11624.27
927.17	11222.87
927.34	11151.19
927.50	11312.98
927.67	11306.84
927.84	11104.09
928.01	11138.90
928.17	11016.02
928.34	10927.96
928.51	10977.11
928.68	10968.92
928.84	10930.01
929.01	10856.28
929.18	10798.94
929.35	10841.95
929.51	10905.43
929.68	10403.68
929.85	10637.15
930.02	10647.39
930.18	10575.71
930.35	10563.42
930.52	10448.74
930.69	10454.88
930.85	10514.27
931.02	10235.75
931.19	10340.19
931.36	10405.73
931.52	10223.46
931.69	10252.13
931.86	10129.25
932.02	10170.21
932.19	10182.50
932.36	10084.20
932.53	9903.98
932.69	9799.53
932.86	10151.78
933.03	9975.66
933.19	9625.45
933.36	9828.20
933.53	9805.67
933.70	9664.36
933.86	9676.65
934.03	9647.98
934.20	9559.92
934.36	9592.69
934.53	9222.00
934.70	9275.25
934.86	9111.41
935.03	9215.86
935.20	9197.43
935.36	9004.92
935.53	8933.24
935.70	8882.04
935.86	9162.61
936.03	9045.88
936.20	8779.64
936.36	8562.56
936.53	8728.44
936.70	8556.41
936.86	8509.31
937.03	8408.96
937.20	8095.62
937.36	8308.61
937.53	8042.37
937.70	8017.80
937.86	7974.79
938.03	7841.67
938.20	7923.59
938.36	7776.14
938.53	7751.56
938.70	7726.99
938.86	7606.16
939.03	7503.76
939.20	7405.46
939.36	7376.78
939.53	7292.82
939.70	7370.64
939.86	7088.02
940.03	6981.53
940.19	6901.65
940.36	6899.61
940.53	6942.61
940.69	6750.10
940.86	6713.24
941.03	6522.78
941.19	6459.29
941.36	6434.72
941.52	6354.85
941.69	6283.17
941.86	6332.32
942.02	6176.67
942.19	6244.26
942.35	6008.74
942.52	6094.76
942.69	5990.31
942.85	5998.50
943.02	6021.03
943.18	6088.61
943.35	5820.33
943.52	5875.62
943.68	5687.21
943.85	5711.78
944.01	5636.01
944.18	5789.61
944.35	5779.37
944.51	5654.44
944.68	5543.85
944.84	5494.70
945.01	5597.10
945.17	5588.91
945.34	5558.19
945.51	5496.75
945.67	5550.00
945.84	5476.27
946.00	5277.62
946.17	5425.07
946.33	5515.18
946.50	5318.57
946.67	5418.93
946.83	5533.61
947.00	5463.98
947.16	5390.25
947.33	5250.99
947.49	5412.78
947.66	5441.45
947.82	5408.69
947.99	5349.29
948.16	5392.30
948.32	5359.53
948.49	5384.11
948.65	5386.16
948.82	5388.21
948.98	5306.29
949.15	5222.32
949.31	5433.26
949.48	5351.34
949.64	5279.66
949.81	5320.62
949.97	5443.50
950.14	5472.17
950.30	5365.68
950.47	5347.25
950.63	5431.21
950.80	5367.73
950.96	5337.01
951.13	5326.77
951.30	5402.54
951.46	5466.03
951.63	5535.66
951.79	5418.93
951.96	5513.13
952.12	5463.98
952.29	5410.73
952.45	5308.34
952.62	5564.33
952.78	5531.56
952.94	5443.50
953.11	5535.66
953.27	5488.56
953.44	5642.15
953.60	5539.76
953.77	5519.28
953.93	5543.85
954.10	5382.06
954.26	5476.27
954.43	5457.84
954.59	5556.14
954.76	5488.56
954.92	5578.67
955.09	5515.18
955.25	5541.80
955.42	5486.51
955.58	5662.63
955.75	5713.83
955.91	5574.57
956.07	5468.08
956.24	5640.11
956.40	5574.57
956.57	5719.98
956.73	5517.23
956.90	5599.15
957.06	5461.93
957.23	5525.42
957.39	5550.00
957.56	5617.58
957.72	5494.70
957.88	5550.00
958.05	5576.62
958.21	5687.21
958.38	5500.84
958.54	5519.28
958.71	5777.32
958.87	5537.71
959.03	5394.35
959.20	5554.09
959.36	5537.71
959.53	5527.47
959.69	5418.93
959.85	5488.56
960.02	5490.60
960.18	5435.31
960.35	5656.49
960.51	5660.59
960.68	5572.52
960.84	5572.52
961.00	5588.91
961.17	5392.30
961.33	5556.14
961.50	5480.36
961.66	5412.78
961.82	5500.84
961.99	5566.38
962.15	5613.48
962.31	5412.78
962.48	5392.30
962.64	5656.49
962.81	5414.83
962.97	5447.60
963.13	5420.97
963.30	5558.19
963.46	5418.93
963.62	5345.20
963.79	5414.83
963.95	5535.66
964.12	5345.20
964.28	5513.13
964.44	5326.77
964.61	5517.23
964.77	5556.14
964.93	5486.51
965.10	5328.81
965.26	5533.61
965.42	5330.86
965.59	5418.93
965.75	5271.47
965.92	5545.90
966.08	5418.93
966.24	5480.36
966.41	5359.53
966.57	5373.87
966.73	5367.73
966.90	5433.26
967.06	5441.45
967.22	5396.40
967.39	5244.85
967.55	5298.10
967.71	5398.45
967.88	5312.43
968.04	5318.57
968.20	5257.14
968.37	5183.41
968.53	5140.40
968.69	5330.86
968.85	5152.69
969.02	5320.62
969.18	5298.10
969.34	5218.22
969.51	5228.46
969.67	5318.57
969.83	5134.26
970.00	5205.94
970.16	5136.31
970.32	5195.70
970.48	5281.71
970.65	5154.74
970.81	5171.12
970.97	5095.35
971.14	4941.75
971.30	5175.22
971.46	5076.91
971.63	5207.98
971.79	5179.31
971.95	5101.49
972.11	5064.63
972.28	5021.62
972.44	5101.49
972.60	4986.80
972.76	5068.72
972.93	5009.33
973.09	5005.24
973.25	5074.87
973.42	5015.48
973.58	5089.20
973.74	5007.28
973.90	5054.39
974.07	5040.05
974.23	5025.72
974.39	4929.46
974.55	4802.49
974.72	4970.42
974.88	4773.82
975.04	4960.18
975.20	4874.17
975.37	4884.41
975.53	4767.67
975.69	4853.69
975.85	4868.02
976.01	4794.29
976.18	4833.21
976.34	4720.57
976.50	4784.06
976.66	4843.45
976.83	4734.90
976.99	4685.75
977.15	4741.05
977.31	4646.84
977.47	4732.86
977.64	4734.90
977.80	4648.89
977.96	4726.71
978.12	4716.47
978.29	4669.37
978.45	4536.25
978.61	4659.13
978.77	4763.58
978.93	4497.34
979.10	4587.45
979.26	4603.83
979.42	4501.44
979.58	4579.26
979.74	4493.24
979.91	4624.31
980.07	4513.72
980.23	4640.70
980.39	4493.24
980.55	4540.35
980.71	4368.32
980.88	4587.45
981.04	4521.92
981.20	4411.32
981.36	4407.23
981.52	4407.23
981.68	4378.56
981.85	4452.28
982.01	4362.17
982.17	4417.47
982.33	4345.79
982.49	4394.94
982.65	4298.69
982.82	4327.36
982.98	4458.43
983.14	4290.49
983.30	4257.73
983.46	4452.28
983.62	4384.70
983.79	4292.54
983.95	4255.68
984.11	4247.49
984.27	4364.22
984.43	4286.40
984.59	4306.88
984.75	4263.87
984.91	4216.77
985.08	4196.29
985.24	4136.90
985.40	4149.18
985.56	4198.34
985.72	4253.63
985.88	4292.54
986.04	4218.82
986.20	4231.10
986.37	4220.86
986.53	4034.50
986.69	4202.43
986.85	4110.27
987.01	3993.54
987.17	4071.36
987.33	4067.27
987.49	3903.43
987.65	3968.96
987.82	3979.20
987.98	4028.35
988.14	3946.44
988.30	4046.79
988.46	4014.02
988.62	3925.96
988.78	3907.52
988.94	3962.82
989.10	3932.10
989.26	3841.99
989.42	3850.18
989.59	3807.17
989.75	3936.20
989.91	3915.72
990.07	3753.93
990.23	3868.61
990.39	3885.00
990.55	3885.00
990.71	3755.97
990.87	3755.97
991.03	3850.18
991.19	3862.47
991.35	3844.04
991.51	3815.37
991.67	3956.68
991.83	3837.89
992.00	3811.27
992.16	3846.09
992.32	3868.61
992.48	3817.41
992.64	3624.90
992.80	3745.73
992.96	3674.06
993.12	3801.03
993.28	3676.10
993.44	3745.73
993.60	3708.87
993.76	3704.78
993.92	3692.49
994.08	3669.96
994.24	3655.62
994.40	3579.85
994.56	3702.73
994.72	3534.79
994.88	3606.47
995.04	3549.13
995.20	3600.33
995.36	3575.75
995.52	3618.76
995.68	3590.09
995.84	3461.07
996.00	3534.79
996.16	3565.51
996.32	3477.45
996.48	3583.95
996.64	3563.47
996.80	3397.58
996.96	3442.64
997.12	3403.72
997.28	3389.39
997.44	3401.68
997.60	3430.35
997.76	3354.57
997.92	3393.48
998.08	3442.64
998.24	3352.52
998.40	3405.77
998.56	3487.69
998.72	3203.02
998.88	3209.17
999.04	3327.95
999.20	3434.44
999.36	3465.16
999.52	3428.30
999.68	3266.51
999.84	3354.57
1000.00	3227.60
1000.16	3418.06
1000.32	3264.46
1000.48	3334.09
1000.64	3266.51
1000.80	3104.72
1000.95	3194.83
1001.11	3305.42
1001.27	3205.07
1001.43	3317.71
1001.59	3172.30
1001.75	3188.69
1001.91	3241.93
1002.07	3170.26
1002.23	3229.65
1002.39	3127.25
1002.55	3235.79
1002.71	3153.87
1002.87	3178.45
1003.03	3143.63
1003.19	3131.34
1003.34	3194.83
1003.50	3110.86
1003.66	3125.20
1003.82	3164.11
1003.98	3063.76
1004.14	3057.62
1004.30	2994.13
1004.46	2983.89
1004.62	3020.75
1004.78	3010.51
1004.94	3092.43
1005.09	3000.27
1005.25	3071.95
1005.41	2967.51
1005.57	3063.76
1005.73	2998.23
1005.89	2936.79
1006.05	3018.71
1006.21	2996.18
1006.37	2891.73
1006.52	2994.13
1006.68	2766.81
1006.84	3039.19
1007.00	2854.87
1007.16	2932.69
1007.32	2961.36
1007.48	2910.16
1007.64	2838.48
1007.79	2928.60
1007.95	2875.35
1008.11	2895.83
1008.27	2938.84
1008.43	2875.35
1008.59	2822.10
1008.75	2932.69
1008.91	2895.83
1009.06	2846.68
1009.22	2875.35
1009.38	2809.81
1009.54	2826.20
1009.70	2830.29
1009.86	2756.57
1010.01	2834.39
1010.17	2779.09
1010.33	2783.19
1010.49	2736.09
1010.65	2842.58
1010.81	2650.07
1010.96	2752.47
1011.12	2793.43
1011.28	2678.74
1011.44	2768.85
1011.60	2674.65
1011.76	2650.07
1011.91	2801.62
1012.07	2607.06
1012.23	2584.54
1012.39	2609.11
1012.55	2672.60
1012.71	2664.41
1012.86	2680.79
1013.02	2637.78
1013.18	2566.10
1013.34	2541.53
1013.50	2695.13
1013.65	2637.78
1013.81	2555.86
1013.97	2584.54
1014.13	2645.98
1014.29	2619.35
1014.44	2600.92
1014.60	2553.82
1014.76	2584.54
1014.92	2523.10
1015.07	2500.57
1015.23	2656.22
1015.39	2541.53
1015.55	2535.39
1015.71	2463.71
1015.86	2568.15
1016.02	2400.22
1016.18	2486.23
1016.34	2537.43
1016.49	2539.48
1016.65	2521.05
1016.81	2576.34
1016.97	2492.38
1017.12	2447.32
1017.28	2445.27
1017.44	2430.94
1017.60	2432.99
1017.75	2519.00
1017.91	2475.99
1018.07	2514.91
1018.23	2463.71
1018.38	2369.50
1018.54	2400.22
1018.70	2461.66
1018.86	2412.51
1019.01	2363.36
1019.17	2293.72
1019.33	2541.53
1019.49	2478.04
1019.64	2459.61
1019.80	2394.08
1019.96	2439.13
1020.12	2402.27
1020.27	2387.93
1020.43	2373.60
1020.59	2394.08
1020.74	2432.99
1020.90	2330.59
1021.06	2373.60
1021.22	2435.03
1021.37	2332.64
1021.53	2215.90
1021.69	2346.97
1021.84	2252.77
1022.00	2340.83
1022.16	2252.77
1022.31	2363.36
1022.47	2404.32
1022.63	2346.97
1022.79	2207.71
1022.94	2295.77
1023.10	2310.11
1023.26	2238.43
1023.41	2293.72
1023.57	2273.25
1023.73	2334.68
1023.88	2140.13
1024.04	2174.94
1024.20	2222.05
1024.35	2330.59
1024.51	2361.31
1024.67	2254.81
1024.82	2265.05
1024.98	2117.60
1025.14	2326.49
1025.29	2176.99
1025.45	2228.19
1025.61	2138.08
1025.76	2158.56
1025.92	2220.00
1026.08	2260.96
1026.23	2121.70
1026.39	2263.01
1026.55	2172.89
1026.70	2084.83
1026.86	2119.65
1027.02	2179.04
1027.17	2136.03
1027.33	2230.24
1027.48	2107.36
1027.64	2133.98
1027.80	2117.60
1027.95	2140.13
1028.11	2115.55
1028.27	2148.32
1028.42	2211.81
1028.58	2115.55
1028.73	2052.06
1028.89	2058.21
1029.05	2148.32
1029.20	2103.26
>>>>>End Processed Spectral Data<<<<<
