SpectraSuite Data File
++++++++++++++++++++++++++++++++++++
Date: Fri Jun 02 14:49:27 CEST 2017
User: INFO_000
Dark Spectrum Present: No
Reference Spectrum Present: No
Number of Sampled Component Spectra: 1
Spectrometers: USB4H00879
Integration Time (usec): 80000 (USB4H00879)
Spectra Averaged: 1 (USB4H00879)
Boxcar Smoothing: 0 (USB4H00879)
Correct for Electrical Dark: No (USB4H00879)
Strobe/Lamp Enabled: No (USB4H00879)
Correct for Detector Non-linearity: No (USB4H00879)
Correct for Stray Light: No (USB4H00879)
Number of Pixels in Processed Spectrum: 3648
>>>>>Begin Processed Spectral Data<<<<<
345.13	1267.69
345.34	1267.69
345.56	1267.69
345.78	1310.70
345.99	1255.40
346.21	1724.39
346.42	1640.42
346.64	1636.33
346.86	1767.40
347.07	1638.38
347.29	1718.25
347.50	1599.46
347.72	1697.77
347.94	1765.35
348.15	1525.74
348.37	1583.08
348.59	1705.96
348.80	1605.61
349.02	1765.35
349.23	1908.71
349.45	1822.69
349.67	1882.08
349.88	1820.64
350.10	1894.37
350.31	1830.88
350.53	1902.56
350.75	1937.38
350.96	1816.55
351.18	1906.66
351.39	1892.32
351.61	1847.27
351.82	1863.65
352.04	1892.32
352.26	1847.27
352.47	1863.65
352.69	1908.71
352.90	1787.88
353.12	1814.50
353.34	1826.79
353.55	1980.39
353.77	1945.57
353.98	1787.88
354.20	1896.42
354.41	1959.91
354.63	1900.52
354.85	2043.87
355.06	1929.19
355.28	1880.04
355.49	1931.23
355.71	1845.22
355.92	1808.36
356.14	1863.65
356.35	1929.19
356.57	1875.94
356.79	1935.33
357.00	1847.27
357.22	1959.91
357.43	1871.84
357.65	1925.09
357.86	1828.84
358.08	1970.15
358.29	1896.42
358.51	1964.00
358.72	2027.49
358.94	1906.66
359.16	1880.04
359.37	1910.75
359.59	1880.04
359.80	1980.39
360.02	2043.87
360.23	1964.00
360.45	2017.25
360.66	1953.76
360.88	1855.46
361.09	1925.09
361.31	1947.62
361.52	1937.38
361.74	2035.68
361.95	2093.02
362.17	1998.82
362.38	2045.92
362.60	1961.95
362.81	1976.29
363.03	1929.19
363.24	1964.00
363.46	2064.35
363.67	1978.34
363.89	2017.25
364.10	1984.48
364.32	1906.66
364.53	1976.29
364.75	1920.99
364.96	2007.01
365.18	1984.48
365.39	2041.82
365.61	1953.76
365.82	2144.22
366.04	2023.39
366.25	1964.00
366.47	1998.82
366.68	2086.88
366.90	1984.48
367.11	2039.78
367.33	2056.16
367.54	2050.02
367.76	2004.96
367.97	2183.13
368.19	2107.36
368.40	2015.20
368.62	2007.01
368.83	1951.71
369.05	2013.15
369.26	2021.35
369.48	1880.04
369.69	1978.34
369.91	2097.12
370.12	2035.68
370.33	2090.98
370.55	1968.10
370.76	1970.15
370.98	2078.69
371.19	2056.16
371.41	2019.30
371.62	2011.11
371.84	1998.82
372.05	2181.09
372.27	2007.01
372.48	2058.21
372.69	2109.41
372.91	2115.55
373.12	2181.09
373.34	2074.59
373.55	2109.41
373.77	2195.42
373.98	2183.13
374.20	2195.42
374.41	2287.58
374.62	2158.56
374.84	2090.98
375.05	2174.94
375.27	2213.85
375.48	2166.75
375.70	2164.70
375.91	2222.05
376.12	2291.68
376.34	2162.66
376.55	2170.85
376.77	2199.52
376.98	2109.41
377.19	2119.65
377.41	2123.74
377.62	2150.37
377.84	2195.42
378.05	2336.73
378.27	2199.52
378.48	2254.81
378.69	2396.12
378.91	2336.73
379.12	2297.82
379.34	2271.20
379.55	2338.78
379.76	2240.48
379.98	2152.42
380.19	2250.72
380.41	2258.91
380.62	2342.88
380.83	2271.20
381.05	2215.90
381.26	2312.16
381.47	2213.85
381.69	2236.38
381.90	2414.56
382.12	2291.68
382.33	2303.96
382.54	2220.00
382.76	2287.58
382.97	2260.96
383.19	2269.15
383.40	2301.92
383.61	2310.11
383.83	2256.86
384.04	2346.97
384.25	2367.45
384.47	2396.12
384.68	2273.25
384.89	2287.58
385.11	2381.79
385.32	2238.43
385.54	2324.44
385.75	2351.07
385.96	2394.08
386.18	2410.46
386.39	2402.27
386.60	2416.60
386.82	2523.10
387.03	2357.21
387.24	2535.39
387.46	2482.14
387.67	2519.00
387.88	2461.66
388.10	2525.15
388.31	2514.91
388.52	2623.45
388.74	2596.82
388.95	2467.80
389.16	2478.04
389.38	2467.80
389.59	2469.85
389.80	2605.02
390.02	2543.58
390.23	2590.68
390.44	2516.95
390.66	2539.48
390.87	2455.51
391.08	2547.67
391.30	2676.70
391.51	2672.60
391.72	2631.64
391.94	2650.07
392.15	2664.41
392.36	2736.09
392.58	2537.43
392.79	2592.73
393.00	2648.02
393.22	2678.74
393.43	2715.61
393.64	2643.93
393.85	2721.75
394.07	2598.87
394.28	2635.74
394.49	2707.41
394.71	2793.43
394.92	2781.14
395.13	2641.88
395.35	2670.55
395.56	2725.85
395.77	2793.43
395.98	2764.76
396.20	2820.05
396.41	2826.20
396.62	2834.39
396.84	2867.16
397.05	2727.89
397.26	2916.31
397.47	2944.98
397.69	2850.77
397.90	3022.80
398.11	2904.02
398.32	2932.69
398.54	2822.10
398.75	2875.35
398.96	2891.73
399.18	3022.80
399.39	2990.03
399.60	2940.88
399.81	2938.84
400.03	3004.37
400.24	3227.60
400.45	2904.02
400.66	3053.52
400.88	2926.55
401.09	3125.20
401.30	2932.69
401.51	3055.57
401.73	3117.01
401.94	3020.75
402.15	3149.78
402.36	3069.91
402.58	3155.92
402.79	3180.50
403.00	3096.53
403.21	3145.68
403.43	3176.40
403.64	3264.46
403.85	3057.62
404.06	3276.75
404.27	3133.39
404.49	3194.83
404.70	3143.63
404.91	3114.96
405.12	3276.75
405.34	3133.39
405.55	3358.67
405.76	3147.73
405.97	3143.63
406.19	3401.68
406.40	3211.22
406.61	3350.48
406.82	3311.57
407.03	3305.42
407.25	3166.16
407.46	3358.67
407.67	3467.21
407.88	3463.12
408.09	3346.38
408.31	3301.33
408.52	3385.29
408.73	3334.09
408.94	3375.05
409.15	3403.72
409.37	3430.35
409.58	3450.83
409.79	3493.83
410.00	3516.36
410.21	3332.05
410.43	3510.22
410.64	3424.20
410.85	3563.47
411.06	3567.56
411.27	3594.19
411.48	3520.46
411.70	3418.06
411.91	3606.47
412.12	3680.20
412.33	3604.42
412.54	3616.71
412.76	3792.84
412.97	3680.20
413.18	3522.51
413.39	3659.72
413.60	3674.06
413.81	3600.33
414.03	3573.71
414.24	3600.33
414.45	3753.93
414.66	3512.27
414.87	3708.87
415.08	3725.26
415.30	3708.87
415.51	3715.02
415.72	3755.97
415.93	3690.44
416.14	3755.97
416.35	3887.04
416.56	3778.50
416.78	3796.93
416.99	3862.47
417.20	3794.89
417.41	3862.47
417.62	3878.85
417.83	3903.43
418.04	3844.04
418.26	3854.28
418.47	3792.84
418.68	3944.39
418.89	3989.44
419.10	4097.99
419.31	3983.30
419.52	4087.75
419.73	4016.07
419.95	4136.90
420.16	4016.07
420.37	3977.16
420.58	4085.70
420.79	3815.37
421.00	4069.31
421.21	4145.09
421.42	3891.14
421.63	4165.57
421.85	4155.33
422.06	4220.86
422.27	4220.86
422.48	4222.91
422.69	4306.88
422.90	4218.82
423.11	4216.77
423.32	4245.44
423.53	4421.56
423.75	4358.08
423.96	4425.66
424.17	4362.17
424.38	4446.14
424.59	4390.84
424.80	4575.16
425.01	4212.67
425.22	4267.97
425.43	4472.76
425.64	4528.06
425.85	4542.39
426.06	4554.68
426.28	4546.49
426.49	4462.52
426.70	4511.68
426.91	4491.20
427.12	4521.92
427.33	4667.32
427.54	4503.48
427.75	4626.36
427.96	4689.85
428.17	4661.18
428.38	4675.51
428.59	4782.01
428.80	4771.77
429.01	4814.77
429.23	4708.28
429.44	4941.75
429.65	4820.92
429.86	4833.21
430.07	4825.01
430.28	4843.45
430.49	4872.12
430.70	4964.28
430.91	5009.33
431.12	4913.08
431.33	5142.45
431.54	5156.79
431.75	5087.15
431.96	5033.91
432.17	4974.52
432.38	5081.01
432.59	5218.22
432.80	5140.40
433.01	5214.13
433.22	5177.26
433.43	5345.20
433.64	5312.43
433.85	5167.03
434.06	5392.30
434.27	5275.57
434.49	5318.57
434.70	5468.08
434.91	5171.12
435.12	5431.21
435.33	5369.77
435.54	5330.86
435.75	5337.01
435.96	5384.11
436.17	5320.62
436.38	5539.76
436.59	5566.38
436.80	5447.60
437.01	5762.98
437.22	5726.12
437.43	5584.81
437.64	5414.83
437.85	5703.59
438.06	5769.13
438.27	5625.77
438.48	5664.68
438.69	5791.66
438.90	5756.84
439.11	5631.91
439.32	5765.03
439.53	5613.48
439.74	5830.57
439.95	5867.43
440.16	5875.62
440.37	5750.70
440.57	5689.26
440.78	5894.05
440.99	5898.15
441.20	5808.04
441.41	5748.65
441.62	6107.04
441.83	5793.70
442.04	6088.61
442.25	5939.11
442.46	6033.32
442.67	6139.81
442.88	6338.46
443.09	5943.21
443.30	5908.39
443.51	6229.92
443.72	6336.42
443.93	6109.09
444.14	6404.00
444.35	5982.12
444.56	6262.69
444.77	6270.88
444.98	6334.37
445.19	6303.65
445.40	6324.13
445.61	6221.73
445.81	6301.60
446.02	6500.25
446.23	6295.46
446.44	6350.75
446.65	6457.25
446.86	6401.95
447.07	6510.49
447.28	6623.13
447.49	6672.28
447.70	6496.16
447.91	6645.66
448.12	6508.44
448.33	6739.87
448.54	6752.15
448.74	6504.35
448.95	6780.82
449.16	6662.04
449.37	6983.57
449.58	6604.70
449.79	6932.37
450.00	6729.63
450.21	6766.49
450.42	7008.15
450.63	7079.83
450.84	6940.57
451.05	6946.71
451.25	7010.20
451.46	6840.22
451.67	7161.75
451.88	7239.57
452.09	7198.61
452.30	7081.88
452.51	6956.95
452.72	7155.60
452.93	7567.24
453.13	6901.65
453.34	7128.98
453.55	7352.21
453.76	7350.16
453.97	7567.24
454.18	7284.62
454.39	7671.69
454.60	7499.66
454.81	7321.49
455.01	7643.02
455.22	7329.68
455.43	7554.96
455.64	7688.07
455.85	7620.49
456.06	7989.13
456.27	7704.46
456.48	7817.10
456.68	7804.81
456.89	7794.57
457.10	7878.54
457.31	7972.74
457.52	7827.34
457.73	8079.24
457.94	8230.79
458.14	8093.57
458.35	8161.16
458.56	8357.76
458.77	8163.20
458.98	8202.11
459.19	8210.31
459.39	8447.87
459.60	8447.87
459.81	8359.81
460.02	8322.94
460.23	8417.15
460.44	8767.35
460.65	8613.76
460.85	8433.54
461.06	8882.04
461.27	8466.30
461.48	9043.83
461.69	8898.42
461.89	8656.76
462.10	8871.80
462.31	8658.81
462.52	8853.37
462.73	8935.29
462.94	9230.20
463.14	9152.37
463.35	9080.69
463.56	9269.11
463.77	9295.73
463.98	9164.66
464.18	9179.00
464.39	9449.33
464.60	9463.66
464.81	9463.66
465.02	9564.01
465.23	9641.84
465.43	9602.93
465.64	9729.90
465.85	9752.43
466.06	9596.78
466.27	9936.74
466.47	9879.40
466.68	9949.03
466.89	9908.07
467.10	9975.66
467.30	9770.86
467.51	10215.27
467.72	10231.65
467.93	9973.61
468.14	10194.79
468.34	10280.80
468.55	10426.21
468.76	10514.27
468.97	10407.78
469.17	10569.57
469.38	10833.75
469.59	10813.28
469.80	10762.08
470.01	10575.71
470.21	10866.52
470.42	10909.53
470.63	11079.51
470.84	10841.95
471.04	11241.30
471.25	11235.16
471.46	11235.16
471.67	11386.71
471.87	11280.21
472.08	11435.86
472.29	11798.35
472.50	11263.83
472.70	11349.84
472.91	11470.67
473.12	11845.45
473.33	11650.89
473.53	12027.72
473.74	11716.43
473.95	12042.06
474.16	12089.16
474.36	12003.14
474.57	12365.64
474.78	12427.07
474.99	12461.89
475.19	12465.99
475.40	12773.18
475.61	12785.47
475.81	12980.03
476.02	13129.53
476.23	12928.83
476.44	13090.62
476.64	13180.73
476.85	13506.35
477.06	13324.08
477.27	13297.46
477.47	13616.94
477.68	13403.96
477.89	13664.05
478.09	13559.60
478.30	13836.08
478.51	13819.69
478.71	14001.96
478.92	14092.07
479.13	14212.90
479.34	14315.30
479.54	14407.46
479.75	14513.95
479.96	14563.11
480.16	14544.67
480.37	14567.20
480.58	14747.42
480.78	15073.05
480.99	14892.83
481.20	15105.82
481.41	15251.22
481.61	15343.38
481.82	15478.55
482.03	15316.76
482.23	15275.80
482.44	15712.02
482.65	15834.89
482.85	15568.66
483.06	15716.11
483.27	15922.96
483.47	15843.09
483.68	15914.77
483.89	16283.40
484.09	16285.45
484.30	16484.10
484.51	16303.88
484.71	16506.63
484.92	16641.79
485.13	16789.25
485.33	16805.63
485.54	16805.63
485.75	16981.76
485.95	16994.04
486.16	17247.99
486.37	17413.88
486.57	16994.04
486.78	17297.14
486.98	17411.83
487.19	17673.97
487.40	17854.19
487.60	17561.33
487.81	17975.02
488.02	17891.06
488.22	18040.56
488.43	17991.41
488.64	18345.70
488.84	18333.42
489.05	18450.15
489.25	18257.64
489.46	18599.65
489.67	18444.01
489.87	19205.85
490.08	18843.36
490.29	18714.34
490.49	19097.31
490.70	19066.59
490.90	19287.77
491.11	19138.27
491.32	19459.80
491.52	19482.33
491.73	19435.22
491.94	19537.62
492.14	19613.40
492.35	19781.33
492.55	19840.72
492.76	19984.08
492.97	20039.37
493.17	20104.91
493.38	20168.40
493.58	20330.19
493.79	20395.72
494.00	20377.29
494.20	20547.27
494.41	20684.48
494.61	20909.76
494.82	20709.06
495.02	20885.19
495.23	21038.78
495.44	20979.39
495.64	21264.06
495.85	21163.71
496.05	21642.93
496.26	21544.63
496.47	21417.66
496.67	21262.01
496.88	21810.87
497.08	21339.83
497.29	21960.37
497.49	21849.78
497.70	21948.08
497.91	22171.31
498.11	22230.70
498.32	22245.04
498.52	22318.76
498.73	22202.03
498.93	22259.37
499.14	22716.07
499.34	22496.94
499.55	22728.36
499.76	22869.67
499.96	22884.00
500.17	22953.63
500.37	23088.80
500.58	23281.31
500.78	23096.99
500.99	23344.80
501.19	23279.26
501.40	23287.45
501.60	23101.09
501.81	23219.87
502.02	23195.29
502.22	23178.91
502.43	23432.86
502.63	23959.19
502.84	23916.18
503.04	23658.14
503.25	23893.65
503.45	24063.63
503.66	24370.83
503.86	23922.32
504.07	24336.01
504.27	24063.63
504.48	24499.85
504.68	24336.01
504.89	24809.09
505.09	24487.56
505.30	24551.05
505.50	24649.35
505.71	24780.42
505.91	24821.38
506.12	25060.99
506.32	24954.50
506.53	25161.34
506.73	25378.43
506.94	24921.73
507.14	25185.92
507.35	25208.45
507.55	25503.35
507.76	25468.54
507.96	25224.83
508.17	25581.18
508.37	25669.24
508.58	25642.62
508.78	25880.18
508.99	25685.62
509.19	25788.02
509.40	25896.56
509.60	25935.48
509.81	26089.07
510.01	26160.75
510.22	26003.06
510.42	26142.32
510.63	26367.60
510.83	26404.46
511.04	26443.37
511.24	26500.72
511.44	26005.11
511.65	26627.69
511.85	26340.97
512.06	26338.93
512.26	26941.03
512.47	26898.02
512.67	26566.25
512.88	26795.62
513.08	26793.58
513.29	26826.34
513.49	27194.98
513.69	27190.88
513.90	27252.32
514.10	27219.55
514.31	27432.54
514.51	27184.74
514.72	27188.83
514.92	27326.05
515.13	27731.54
515.33	27729.50
515.53	27790.94
515.74	27504.22
515.94	27608.67
516.15	27520.60
516.35	27631.19
516.56	27915.86
516.76	27586.14
516.96	27909.72
517.17	28059.22
517.37	28212.82
517.58	27977.30
517.78	28307.02
517.99	28229.20
518.19	28282.45
518.39	28436.05
518.60	28331.60
518.80	28364.37
519.01	28657.23
519.21	28847.69
519.41	28573.26
519.62	28571.21
519.82	29089.35
520.03	29038.15
520.23	28823.11
520.43	29021.77
520.64	29361.73
520.84	28927.56
521.05	29134.40
521.25	29384.26
521.45	29521.47
521.66	29566.52
521.86	29810.23
522.07	29646.40
522.27	29675.07
522.47	29576.76
522.68	29894.20
522.88	29922.87
523.08	30123.57
523.29	30113.33
523.49	29617.72
523.70	30432.82
523.90	30268.98
524.10	30447.15
524.31	30641.71
524.51	30324.27
524.71	30701.10
524.92	30545.45
525.12	30887.46
525.33	30506.54
525.53	30871.08
525.73	30907.94
525.94	31063.59
526.14	30740.01
526.34	31368.74
526.55	31213.09
526.75	30803.50
526.95	31499.81
527.16	31198.76
527.36	31262.24
527.56	31415.84
527.77	31708.70
527.97	31309.35
528.17	31753.76
528.38	31907.35
528.58	31747.61
528.78	31972.89
528.99	31841.82
529.19	32026.14
529.39	32075.29
529.60	32345.62
529.80	31931.93
530.00	32200.21
530.21	32503.31
530.41	32640.53
530.61	32503.31
530.82	32738.83
531.02	32806.41
531.22	32845.32
531.43	32767.50
531.63	33318.40
531.83	33281.54
532.04	33697.28
532.24	33183.24
532.44	33531.39
532.64	33601.02
532.85	33805.82
533.05	33517.06
533.25	33605.12
533.46	33928.70
533.66	34158.07
533.86	34162.17
534.07	34207.22
534.27	34102.78
534.47	34647.54
534.67	34272.76
534.88	34305.52
535.08	34137.59
535.28	34815.47
535.49	34608.62
535.69	35108.33
535.89	34885.10
536.09	35034.60
536.30	35403.24
536.50	35122.66
536.70	35388.90
536.91	34797.04
537.11	35585.50
537.31	35306.98
537.51	35276.26
537.72	35741.15
537.92	36031.96
538.12	35792.35
538.32	35605.98
538.53	35853.79
538.73	35657.18
538.93	36267.48
539.13	36158.94
539.34	36097.50
539.54	36132.31
539.74	36922.83
539.94	36380.12
540.15	36443.60
540.35	36748.75
540.55	36535.76
540.75	36916.68
540.96	37041.61
541.16	37103.05
541.36	36722.13
541.56	37156.30
541.77	37393.86
541.97	37103.05
542.17	37338.57
542.37	37088.71
542.58	37144.01
542.78	37445.06
542.98	37373.38
543.18	37656.00
543.38	37850.56
543.59	38184.38
543.79	37572.03
543.99	37819.84
544.19	38098.36
544.40	37684.67
544.60	38428.09
544.80	37975.48
545.00	38036.92
545.20	38544.82
545.41	38366.65
545.61	38211.00
545.81	38628.79
546.01	38589.88
546.21	38432.18
546.42	38604.21
546.62	39067.05
546.82	38759.86
547.02	38827.44
547.22	38794.67
547.43	39058.86
547.63	38663.60
547.83	38811.06
548.03	38714.80
548.23	39515.56
548.44	39097.77
548.64	39646.63
548.84	39708.07
549.04	39257.51
549.24	39269.80
549.45	39982.49
549.65	39517.60
549.85	39323.05
550.05	39577.00
550.25	39474.60
550.45	40551.83
550.66	39908.77
550.86	39818.66
551.06	39906.72
551.26	39871.90
551.46	39687.59
551.66	39951.77
551.87	39931.29
552.07	40512.92
552.27	40588.69
552.47	40306.07
552.67	40361.37
552.87	40791.44
553.07	40373.66
553.28	40498.58
553.48	41069.97
553.68	40494.49
553.88	40928.66
554.08	41104.78
554.28	40785.30
554.48	40740.24
554.69	40658.32
554.89	40865.17
555.09	40572.31
555.29	40820.11
555.49	41483.66
555.69	41422.22
555.89	41149.84
556.10	41887.10
556.30	41383.30
556.50	41438.60
556.70	41229.71
556.90	41749.89
557.10	41606.53
557.30	41688.45
557.50	41508.23
557.70	41778.56
557.91	41788.80
558.11	41661.83
558.31	42179.96
558.51	41731.46
558.71	42315.13
558.91	42184.06
559.11	41436.55
559.31	41964.93
559.51	41993.60
559.72	41862.53
559.92	42225.02
560.12	41934.21
560.32	42165.63
560.52	42016.13
560.72	42376.57
560.92	42599.80
561.12	42521.98
561.32	42874.23
561.52	41864.58
561.72	42808.69
561.93	42620.28
562.13	42794.36
562.33	42235.26
562.53	43093.36
562.73	42562.93
562.93	43031.92
563.13	42655.09
563.33	42931.57
563.53	43177.33
563.73	42620.28
563.93	43091.31
564.13	43695.46
564.33	42724.72
564.53	43193.71
564.74	43472.23
564.94	42775.92
565.14	43341.16
565.34	43326.83
565.54	43742.56
565.74	42933.62
565.94	43689.32
566.14	43300.20
566.34	43826.53
566.54	43752.80
566.74	43574.63
566.94	43505.00
567.14	43816.29
567.34	43814.24
567.54	44297.56
567.74	43797.86
567.94	43474.28
568.14	44064.10
568.34	44367.20
568.54	44139.87
568.74	44203.36
568.94	43984.22
569.14	44277.08
569.34	43705.70
569.54	44098.91
569.75	43879.78
569.95	44555.61
570.15	44854.61
570.35	44498.26
570.55	44602.71
570.75	44467.55
570.95	44547.42
571.15	44316.00
571.35	44717.40
571.55	44748.12
571.75	44672.34
571.95	44737.88
572.15	44393.82
572.35	45143.38
572.55	44696.92
572.75	44649.81
572.95	44873.04
573.15	44954.96
573.35	45163.85
573.55	44866.90
573.75	44903.76
573.95	45593.93
574.15	45026.64
574.35	45616.46
574.55	45112.66
574.75	45280.59
574.95	45421.90
575.15	45448.52
575.34	45704.52
575.54	45690.18
575.74	45897.03
575.94	45948.23
576.14	45528.39
576.34	46060.87
576.54	45987.14
576.74	45743.43
576.94	46089.54
577.14	46214.46
577.34	46425.40
577.54	45874.50
577.74	46376.25
577.94	46255.42
578.14	46302.53
578.34	46601.53
578.54	46097.73
578.74	46267.71
578.94	46835.00
579.14	46552.38
579.34	46509.37
579.54	46589.24
579.74	46925.11
579.94	46613.82
580.13	47170.86
580.33	47312.17
580.53	47244.59
580.73	47203.63
580.93	47469.87
581.13	47289.65
581.33	47453.48
581.53	47107.38
581.73	47101.23
581.93	47576.36
582.13	47469.87
582.33	47629.61
582.53	47363.37
582.73	48014.63
582.92	47891.75
583.12	47818.02
583.32	47420.72
583.52	47330.61
583.72	47668.52
583.92	47830.31
584.12	47658.28
584.32	48424.22
584.52	48080.16
584.72	47736.10
584.92	48059.68
585.11	48350.49
585.31	48157.99
585.51	48291.10
585.71	48153.89
585.91	48442.65
586.11	48192.80
586.31	48252.19
586.51	48604.44
586.71	48784.66
586.91	48956.69
587.10	49009.94
587.30	48964.88
587.50	48698.65
587.70	48944.41
587.90	48387.36
588.10	48676.12
588.30	48563.48
588.50	48860.44
588.69	49274.13
588.89	48504.09
589.09	49085.72
589.29	49079.57
589.49	49423.63
589.69	48643.35
589.89	49175.83
590.08	48874.77
590.28	49052.95
590.48	49003.80
590.68	49009.94
590.88	49409.29
591.08	49562.89
591.28	48831.77
591.47	49489.16
591.67	49523.98
591.87	49433.87
592.07	49618.19
592.27	49573.13
592.47	49489.16
592.67	49380.62
592.86	49532.17
593.06	49497.36
593.26	49763.59
593.46	49739.02
593.66	49857.80
593.86	49997.06
594.05	50267.39
594.25	50050.31
594.45	50271.49
594.65	50234.63
594.85	49616.14
595.05	50160.90
595.24	50255.11
595.44	50242.82
595.64	50492.67
595.84	50218.24
596.04	50119.94
596.23	49937.67
596.43	50476.29
596.63	50124.04
596.83	50078.98
597.03	50693.37
597.22	50617.60
597.42	50695.42
597.62	50617.60
597.82	50588.92
598.02	50406.65
598.21	51016.95
598.41	50775.29
598.61	50932.98
598.81	50627.84
599.01	51287.28
599.20	51033.33
599.40	50803.96
599.60	50943.22
599.80	50951.41
600.00	50930.93
600.19	51361.01
600.39	50986.23
600.59	51680.49
600.79	51467.50
600.98	51420.40
601.18	51809.51
601.38	51361.01
601.58	51518.70
601.78	51197.17
601.97	51043.57
602.17	51676.40
602.37	51320.05
602.57	51500.27
602.76	51608.81
602.96	51463.41
603.16	51778.79
603.36	51651.82
603.55	52186.34
603.75	51588.33
603.95	52266.21
604.15	52042.98
604.34	52280.55
604.54	52129.00
604.74	52208.87
604.94	51813.61
605.13	52065.51
605.33	52634.84
605.53	52090.09
605.73	52593.89
605.92	52286.69
606.12	52638.94
606.32	52526.30
606.52	52436.19
606.71	52131.04
606.91	52911.32
607.11	52841.69
607.30	52794.59
607.50	52989.14
607.70	53069.01
607.90	52614.37
608.09	52810.97
608.29	52669.66
608.49	52884.70
608.68	52843.74
608.88	53255.38
609.08	53003.48
609.28	53036.25
609.47	52862.17
609.67	53245.14
609.87	53216.47
610.06	53204.18
610.26	53001.43
610.46	53243.09
610.66	52993.24
610.85	53279.96
611.05	53064.92
611.25	53398.74
611.44	53058.77
611.64	53581.01
611.84	53017.82
612.03	53097.69
612.23	53220.56
612.43	53603.53
612.62	52823.26
612.82	53583.05
613.02	53058.77
613.21	53249.24
613.41	53030.10
613.61	53361.87
613.80	53284.05
614.00	53687.50
614.20	53476.56
614.39	53361.87
614.59	54002.89
614.79	53703.88
614.98	53222.61
615.18	53617.87
615.38	53810.38
615.57	53396.69
615.77	53669.07
615.97	53441.74
616.16	53445.84
616.36	53497.04
616.56	53794.00
616.75	53458.13
616.95	53120.21
617.15	53013.72
617.34	53925.07
617.54	53806.28
617.74	54058.18
617.93	53769.42
618.13	53429.46
618.32	53839.05
618.52	53597.39
618.72	53687.50
618.91	53228.76
619.11	53386.45
619.31	53474.51
619.50	53576.91
619.70	53437.65
619.90	53693.64
620.09	53753.04
620.29	53847.24
620.48	53669.07
620.68	54379.71
620.88	53619.92
621.07	53476.56
621.27	54002.89
621.46	53458.13
621.66	53593.29
621.86	53341.39
622.05	53359.83
622.25	54267.08
622.44	53021.91
622.64	53673.16
622.84	53695.69
623.03	53515.47
623.23	53365.97
623.42	53408.98
623.62	53859.53
623.82	53826.76
624.01	53521.62
624.21	53945.54
624.40	53511.38
624.60	53787.85
624.80	53859.53
624.99	54015.18
625.19	53417.17
625.38	54140.10
625.58	53611.73
625.77	53392.59
625.97	53785.80
626.17	53185.75
626.36	54252.74
626.56	54105.29
626.75	53159.12
626.95	54191.30
627.14	54027.46
627.34	54645.95
627.54	53712.08
627.73	53640.40
627.93	54121.67
628.12	53339.35
628.32	53507.28
628.51	54074.57
628.71	53857.48
628.90	53992.65
629.10	53959.88
629.30	53761.23
629.49	54088.90
629.69	53501.14
629.88	53591.25
630.08	54004.94
630.27	54047.94
630.47	53826.76
630.66	54043.85
630.86	54006.98
631.05	53757.13
631.25	54371.52
631.44	54269.12
631.64	53896.39
631.84	53867.72
632.03	54715.58
632.23	54174.92
632.42	54260.93
632.62	54465.73
632.81	53746.89
633.01	54383.81
633.20	54310.08
633.40	54197.44
633.59	54424.77
633.79	53632.21
633.98	54066.38
634.18	53931.21
634.37	54619.33
634.57	54009.03
634.76	54375.62
634.96	54064.33
635.15	54428.87
635.35	54256.84
635.54	54377.67
635.74	54377.67
635.93	54066.38
636.13	54568.13
636.32	54781.12
636.52	53736.65
636.71	54586.56
636.91	54453.44
637.10	54817.98
637.30	54588.61
637.49	54469.82
637.69	54383.81
637.88	54758.59
638.08	54367.43
638.27	54805.69
638.46	54928.57
638.66	54328.52
638.85	54824.12
639.05	54838.46
639.24	54940.86
639.44	54908.09
639.63	55153.85
639.83	54940.86
640.02	54973.63
640.22	54594.75
640.41	54674.62
640.61	54619.33
640.80	54891.71
640.99	54441.15
641.19	55360.69
641.38	54576.32
641.58	55172.28
641.77	54750.40
641.97	55139.51
642.16	54969.53
642.36	54885.56
642.55	55428.27
642.74	54858.94
642.94	55784.62
643.13	54791.36
643.33	55925.93
643.52	55538.86
643.72	55278.77
643.91	55522.48
644.10	55270.58
644.30	55495.86
644.49	55510.19
644.69	55602.35
644.88	55825.58
645.08	55008.44
645.27	55788.72
645.46	55176.37
645.66	56001.71
645.85	55225.53
646.05	55596.21
646.24	55604.40
646.43	55221.43
646.63	56130.73
646.82	55930.03
647.02	55864.49
647.21	56061.10
647.40	55893.16
647.60	55809.20
647.79	55936.17
647.99	55852.20
648.18	55788.72
648.37	56163.50
648.57	55942.31
648.76	56261.80
648.96	55628.98
649.15	56038.57
649.34	56077.48
649.54	56138.92
649.73	56081.58
649.92	56212.65
650.12	56239.27
650.31	56214.69
650.51	56218.79
650.70	56419.49
650.89	55917.74
651.09	56931.48
651.28	56048.81
651.47	56175.78
651.67	56095.91
651.86	56587.42
652.06	55907.50
652.25	56423.59
652.44	56050.86
652.64	56149.16
652.83	56304.80
653.02	56140.97
653.22	56243.37
653.41	55704.75
653.60	56298.66
653.80	56409.25
653.99	56216.74
654.18	56194.21
654.38	56095.91
654.57	56390.82
654.76	56331.43
654.96	56274.09
655.15	55835.82
655.34	56378.53
655.54	56263.85
655.73	56751.26
655.92	56222.89
656.12	56364.20
656.31	56784.03
656.50	56667.30
656.70	56308.90
656.89	56575.14
657.08	57068.70
657.28	56548.51
657.47	56423.59
657.66	56534.18
657.86	56577.18
658.05	56571.04
658.24	56849.56
658.43	56362.15
658.63	56648.86
658.82	56657.06
659.01	56689.82
659.21	56882.33
659.40	56749.21
659.59	56286.37
659.79	56818.84
659.98	56517.79
660.17	56480.93
660.36	56818.84
660.56	56902.81
660.75	56769.69
660.94	56921.24
661.14	56427.68
661.33	56607.90
661.52	56239.27
661.71	57160.86
661.91	55975.08
662.10	56188.07
662.29	56820.89
662.49	56513.70
662.68	56642.72
662.87	56769.69
663.06	56734.88
663.26	56763.55
663.45	56870.04
663.64	56554.66
663.83	57353.36
664.03	57072.79
664.22	56806.56
664.41	57058.46
664.60	56628.38
664.80	56835.23
664.99	56970.39
665.18	56528.03
665.37	56849.56
665.57	56898.72
665.76	56394.92
665.95	56646.82
666.14	56659.10
666.34	56546.47
666.53	56505.51
666.72	56573.09
666.91	56360.10
667.11	56431.78
667.30	56761.50
667.49	56671.39
667.68	56399.01
667.87	56358.05
668.07	56521.89
668.26	56702.11
668.45	56202.41
668.64	56054.95
668.84	57336.98
669.03	56919.20
669.22	56362.15
669.41	57150.62
669.60	56790.17
669.80	56730.78
669.99	56562.85
670.18	56423.59
670.37	56681.63
670.57	56902.81
670.76	56206.50
670.95	56794.27
671.14	56532.13
671.33	56378.53
671.53	56886.43
671.72	56992.92
671.91	56581.28
672.10	56255.65
672.29	56437.92
672.48	56366.24
672.68	56583.33
672.87	56454.31
673.06	56554.66
673.25	56145.06
673.44	56034.47
673.64	56335.52
673.83	56618.14
674.02	56575.14
674.21	56157.35
674.40	56378.53
674.59	56157.35
674.79	56288.42
674.98	56241.32
675.17	56554.66
675.36	56192.17
675.55	56366.24
675.74	55680.17
675.94	55624.88
676.13	56362.15
676.32	56331.43
676.51	56392.87
676.70	56560.80
676.89	55956.65
677.08	56214.69
677.28	56011.95
677.47	56407.20
677.66	56329.38
677.85	55936.17
678.04	56427.68
678.23	56507.55
678.42	56290.47
678.62	55735.47
678.81	56534.18
679.00	56149.16
679.19	56753.31
679.38	55780.52
679.57	56063.14
679.76	55932.07
679.96	56468.64
680.15	56153.26
680.34	55903.40
680.53	56073.38
680.72	56337.57
680.91	56116.39
681.10	55977.13
681.29	55583.92
681.48	55903.40
681.68	55606.45
681.87	56255.65
682.06	56167.59
682.25	55456.95
682.44	55731.37
682.63	55844.01
682.82	55616.69
683.01	55588.02
683.20	55162.04
683.39	55966.89
683.59	55737.52
683.78	55069.88
683.97	55055.54
684.16	55575.73
684.35	55192.76
684.54	55342.26
684.73	55614.64
684.92	55106.74
685.11	55293.11
685.30	55125.17
685.49	55485.62
685.69	55375.03
685.88	55180.47
686.07	55375.03
686.26	55194.81
686.45	55065.78
686.64	55485.62
686.83	54854.84
687.02	55434.42
687.21	55510.19
687.40	55092.41
687.59	55258.29
687.78	54957.24
687.97	55444.66
688.16	55116.98
688.35	54725.82
688.54	55375.03
688.74	54836.41
688.93	54787.26
689.12	55186.61
689.31	54916.28
689.50	55307.44
689.69	54152.39
689.88	54318.28
690.07	54940.86
690.26	54877.37
690.45	55006.39
690.64	54668.48
690.83	54619.33
691.02	54594.75
691.21	54310.08
691.40	54437.06
691.59	54170.82
691.78	54432.96
691.97	55022.78
692.16	54351.04
692.35	54527.17
692.54	54418.63
692.73	54367.43
692.92	54305.99
693.11	54371.52
693.30	53970.12
693.49	54183.11
693.68	54322.37
693.87	54023.37
694.06	53980.36
694.25	53892.30
694.44	53904.59
694.63	53908.68
694.82	54179.01
695.01	54170.82
695.20	53535.95
695.39	53847.24
695.58	54187.21
695.77	53540.05
695.96	54088.90
696.15	54023.37
696.34	53947.59
696.53	53920.97
696.72	54056.14
696.91	53959.88
697.10	54127.81
697.29	53294.29
697.48	53662.93
697.67	53767.37
697.86	53271.76
698.05	53839.05
698.24	53546.19
698.43	53390.55
698.62	53505.23
698.81	53478.61
699.00	53408.98
699.19	53341.39
699.38	53302.48
699.57	53019.86
699.76	53701.84
699.95	53269.72
700.14	52853.98
700.32	53349.59
700.51	53257.43
700.70	53589.20
700.89	53054.68
701.08	53251.28
701.27	52995.29
701.46	53226.71
701.65	52352.23
701.84	53124.31
702.03	53019.86
702.22	52935.90
702.41	52903.13
702.60	52690.14
702.79	52858.07
702.98	52559.07
703.17	52667.61
703.35	52671.71
703.54	52679.90
703.73	52761.82
703.92	52880.60
704.11	52911.32
704.30	52083.94
704.49	52401.38
704.68	52436.19
704.87	52307.17
705.06	52174.05
705.25	52393.18
705.43	52407.52
705.62	52722.91
705.81	52325.60
706.00	52282.59
706.19	52145.38
706.38	52131.04
706.57	51961.06
706.76	52110.56
706.95	52122.85
707.14	51907.82
707.32	51909.86
707.51	52206.82
707.70	51903.72
707.89	51926.25
708.08	51932.39
708.27	52628.70
708.46	52280.55
708.65	51936.49
708.84	52083.94
709.02	51975.40
709.21	51606.76
709.40	52208.87
709.59	51768.55
709.78	51639.53
709.97	52042.98
710.16	51447.02
710.34	51709.16
710.53	51494.13
710.72	51537.13
710.91	51918.06
711.10	51735.79
711.29	51754.22
711.48	51660.01
711.66	51381.49
711.85	51021.05
712.04	51027.19
712.23	51262.71
712.42	51598.57
712.61	51520.75
712.80	51596.52
712.98	51148.02
713.17	50902.26
713.36	51842.28
713.55	51182.84
713.74	51062.00
713.93	51064.05
714.11	51094.77
714.30	50488.57
714.49	51141.88
714.68	51203.31
714.87	51186.93
715.06	51148.02
715.24	50806.01
715.43	51012.85
715.62	50511.10
715.81	50830.58
716.00	50789.62
716.18	50525.44
716.37	50597.12
716.56	50568.44
716.75	50810.10
716.94	50861.30
717.12	49896.71
717.31	50439.42
717.50	50707.71
717.69	50062.60
717.88	50117.89
718.06	50283.78
718.25	50277.63
718.44	50349.31
718.63	50261.25
718.82	49847.56
719.00	50267.39
719.19	49814.79
719.38	49933.57
719.57	49616.14
719.76	49505.55
719.94	49610.00
720.13	49397.01
720.32	49904.90
720.51	49779.98
720.69	49587.47
720.88	49534.22
721.07	49407.25
721.26	49288.46
721.44	49657.10
721.63	49212.69
721.82	48780.57
722.01	49212.69
722.20	49241.36
722.38	48989.46
722.57	48577.82
722.76	48823.58
722.95	48891.16
723.13	48481.56
723.32	48538.91
723.51	48391.45
723.70	48340.25
723.88	48643.35
724.07	49114.39
724.26	49192.21
724.44	48207.14
724.63	48993.56
724.82	48928.02
725.01	48647.45
725.19	48387.36
725.38	48272.67
725.57	48518.43
725.76	48440.60
725.94	48264.48
726.13	48231.71
726.32	48168.22
726.51	48252.19
726.69	48297.25
726.88	48543.00
727.07	48244.00
727.25	48192.80
727.44	48125.22
727.63	48280.86
727.82	48053.54
728.00	48172.32
728.19	47973.67
728.38	48344.35
728.56	47760.68
728.75	48096.55
728.94	47719.72
729.12	48143.65
729.31	48352.54
729.50	48012.58
729.69	48131.36
729.87	47699.24
730.06	47957.28
730.25	47949.09
730.43	47938.85
730.62	47811.88
730.81	48004.39
730.99	48168.22
731.18	47437.10
731.37	48330.01
731.55	48260.38
731.74	48233.76
731.93	47578.41
732.11	48178.46
732.30	48272.67
732.49	47994.15
732.67	48227.62
732.86	48131.36
733.05	47895.85
733.23	47754.54
733.42	47613.23
733.61	47813.93
733.79	47967.52
733.98	48215.33
734.17	47858.98
734.35	47928.61
734.54	47979.81
734.73	48076.07
734.91	47609.13
735.10	47541.55
735.29	48502.04
735.47	47861.03
735.66	47629.61
735.84	47916.32
736.03	47277.36
736.22	47592.75
736.40	47394.09
736.59	47754.54
736.78	47613.23
736.96	47473.96
737.15	47326.51
737.33	47486.25
737.52	47381.80
737.71	47465.77
737.89	47508.78
738.08	47168.82
738.27	46933.30
738.45	47715.62
738.64	47803.69
738.82	47232.30
739.01	47134.00
739.20	47353.13
739.38	47258.93
739.57	47455.53
739.75	47189.30
739.94	47144.24
740.13	47355.18
740.31	47121.71
740.50	47226.16
740.68	47236.40
740.87	47084.85
741.06	47500.59
741.24	46867.76
741.43	46740.79
741.61	46945.59
741.80	47009.07
741.99	46759.22
742.17	46740.79
742.36	47150.38
742.54	46814.52
742.73	46835.00
742.91	46921.01
743.10	46306.62
743.29	46781.75
743.47	46820.66
743.66	46777.65
743.84	46873.91
744.03	46636.34
744.21	46695.74
744.40	46824.76
744.59	46480.70
744.77	46409.02
744.96	46710.07
745.14	46370.11
745.33	46691.64
745.51	46474.55
745.70	46171.46
745.88	46056.77
746.07	46810.42
746.26	46404.92
746.44	46073.15
746.63	46224.70
746.81	46363.96
747.00	46286.14
747.18	46427.45
747.37	46579.00
747.55	46413.12
747.74	46613.82
747.92	45940.04
748.11	46525.75
748.29	45995.33
748.48	46032.19
748.66	46193.98
748.85	45669.70
749.03	46196.03
749.22	46028.10
749.41	45735.24
749.59	45946.18
749.78	45829.44
749.96	45540.68
750.15	45503.82
750.33	45915.46
750.52	45905.22
750.70	45645.13
750.89	45516.11
751.07	44959.06
751.26	45208.91
751.44	45342.03
751.63	45614.41
751.81	45229.39
752.00	45290.83
752.18	45731.14
752.37	45260.11
752.55	45100.37
752.74	45227.34
752.92	45280.59
753.10	44883.28
753.29	45432.14
753.47	45167.95
753.66	44610.90
753.84	44946.77
754.03	44604.76
754.21	44787.03
754.40	45135.18
754.58	44856.66
754.77	45079.89
754.95	44471.64
755.14	44504.41
755.32	44506.46
755.51	44615.00
755.69	44141.92
755.88	44438.87
756.06	44780.88
756.24	44694.87
756.43	44438.87
756.61	44576.09
756.80	44668.25
756.98	44328.28
757.17	44539.22
757.35	44623.19
757.54	44438.87
757.72	44555.61
757.90	44184.93
758.09	43963.75
758.27	44238.17
758.46	43873.63
758.64	44174.69
758.83	44498.26
759.01	44129.63
759.19	43963.75
759.38	44098.91
759.56	44123.49
759.75	43955.55
759.93	44043.62
760.12	44066.14
760.30	44569.94
760.48	44113.25
760.67	43722.08
760.85	43910.50
761.04	44043.62
761.22	44119.39
761.40	43584.87
761.59	43765.09
761.77	43064.69
761.96	43859.30
762.14	43631.97
762.32	43509.10
762.51	43588.97
762.69	43263.34
762.88	43392.36
763.06	43451.75
763.24	43375.98
763.43	43380.07
763.61	43042.16
763.80	43242.86
763.98	42859.89
764.16	43132.27
764.35	42749.30
764.53	42691.96
764.72	42935.66
764.90	42775.92
765.08	42589.56
765.27	43119.98
765.45	42792.31
765.63	42550.65
765.82	42808.69
766.00	42333.56
766.18	42515.83
766.37	42827.12
766.55	42141.05
766.74	42462.58
766.92	42706.29
767.10	42278.27
767.29	42628.47
767.47	42186.11
767.65	42145.15
767.84	41860.48
768.02	42376.57
768.20	42169.72
768.39	42519.93
768.57	42429.82
768.75	42065.28
768.94	42460.54
769.12	41833.86
769.30	41510.28
769.49	41956.74
769.67	41991.55
769.85	41667.97
770.04	41735.56
770.22	41692.55
770.40	41385.35
770.59	41352.58
770.77	41579.91
770.95	41401.74
771.14	41276.81
771.32	41258.38
771.50	41041.29
771.69	41076.11
771.87	41346.44
772.05	41123.21
772.24	40940.94
772.42	40965.52
772.60	41033.10
772.78	40701.33
772.97	40740.24
773.15	41295.24
773.33	40961.42
773.52	40789.39
773.70	40924.56
773.88	40969.61
774.07	40953.23
774.25	40777.11
774.43	41133.45
774.61	40887.70
774.80	40887.70
774.98	40414.62
775.16	40928.66
775.34	41041.29
775.53	40674.71
775.71	41100.68
775.89	41162.12
776.08	40846.74
776.26	41037.20
776.44	40856.98
776.62	41022.86
776.81	41010.57
776.99	41127.31
777.17	41014.67
777.35	41207.18
777.54	41346.44
777.72	40850.83
777.90	41051.53
778.08	41342.35
778.27	41086.35
778.45	41276.81
778.63	41270.67
778.81	40961.42
779.00	41610.63
779.18	41153.93
779.36	41428.36
779.54	41190.80
779.73	40670.61
779.91	41495.94
780.09	41528.71
780.27	41508.23
780.46	41397.64
780.64	41762.18
780.82	41164.17
781.00	41151.88
781.19	41872.77
781.37	41776.51
781.55	41737.60
781.73	41796.99
781.91	41491.85
782.10	41459.08
782.28	41725.32
782.46	41772.42
782.64	41805.19
782.82	41489.80
783.01	41489.80
783.19	41784.71
783.37	42104.19
783.55	41784.71
783.74	41905.54
783.92	41057.68
784.10	42057.09
784.28	41624.96
784.46	41500.04
784.64	41516.42
784.83	41541.00
785.01	41833.86
785.19	41637.25
785.37	41932.16
785.55	41551.24
785.74	41305.48
785.92	41442.70
786.10	41461.13
786.28	41330.06
786.46	41385.35
786.64	40951.18
786.83	41285.00
787.01	41803.14
787.19	41547.14
787.37	41364.87
787.55	41452.94
787.74	41340.30
787.92	41362.82
788.10	40582.55
788.28	40703.38
788.46	41059.73
788.64	40902.03
788.82	41485.70
789.01	41174.41
789.19	40938.90
789.37	41137.55
789.55	40848.78
789.73	40553.88
789.91	40811.92
790.09	40330.65
790.28	40371.61
790.46	40492.44
790.64	40752.53
790.82	40441.24
791.00	40482.20
791.18	39667.11
791.36	40248.73
791.55	40539.54
791.73	39986.59
791.91	39634.34
792.09	39941.53
792.27	39937.44
792.45	39812.51
792.63	39366.06
792.81	39394.73
793.00	39413.16
793.18	39380.39
793.36	39214.51
793.54	39036.33
793.72	39075.24
793.90	38895.02
794.08	38837.68
794.26	39110.06
794.44	38888.88
794.62	38706.61
794.81	38987.18
794.99	38573.49
795.17	38280.63
795.35	38581.68
795.53	38264.25
795.71	38835.63
795.89	38344.12
796.07	38315.45
796.25	37569.99
796.43	37744.06
796.61	37828.03
796.80	37715.39
796.98	37762.50
797.16	37897.66
797.34	37615.04
797.52	37205.45
797.70	37838.27
797.88	37086.67
798.06	37418.44
798.24	37301.70
798.42	37203.40
798.60	37078.47
798.78	36971.98
798.96	37164.49
799.14	36513.23
799.32	36619.73
799.51	36484.56
799.69	36773.33
799.87	36738.51
800.05	36236.76
800.23	36376.02
800.41	36140.50
800.59	36306.39
800.77	36179.42
800.95	35761.63
801.13	36414.93
801.31	35978.72
801.49	36052.44
801.67	35872.22
801.85	35921.37
802.03	35235.30
802.21	35100.14
802.39	35479.01
802.57	35556.83
802.75	35241.45
802.93	35329.51
803.11	35055.08
803.29	35071.46
803.47	34635.25
803.65	34860.52
803.83	34725.36
804.01	34414.07
804.19	34348.53
804.37	34487.79
804.55	34475.51
804.73	34285.04
804.91	34305.52
805.09	34391.54
805.27	34504.18
805.45	34483.70
805.63	34219.51
805.81	34180.60
805.99	34229.75
806.17	34072.06
806.35	34176.50
806.53	33721.85
806.71	33861.12
806.89	33441.28
807.07	33754.62
807.25	34035.19
807.43	33715.71
807.61	33381.89
807.79	33287.68
807.97	33158.66
808.15	32738.83
808.33	33142.28
808.51	33039.88
808.69	32869.90
808.87	32931.34
809.05	32609.81
809.23	32400.91
809.41	32388.63
809.59	32642.57
809.77	32873.99
809.95	32423.44
810.13	32454.16
810.31	32402.96
810.49	32136.73
810.67	32259.60
810.84	32069.14
811.02	32200.21
811.20	31796.76
811.38	31933.98
811.56	31557.15
811.74	31587.87
811.92	31694.36
812.10	31702.56
812.28	31682.08
812.46	31776.28
812.64	31493.66
812.82	31551.01
813.00	31446.56
813.18	31389.22
813.36	31704.60
813.53	31055.40
813.71	31219.24
813.89	30963.24
814.07	31309.35
814.25	30998.06
814.43	31323.68
814.61	30922.28
814.79	30989.86
814.97	30666.28
815.15	30928.42
815.33	30615.08
815.50	30756.39
815.68	30686.76
815.86	30936.62
816.04	30402.10
816.22	30484.01
816.40	30156.34
816.58	30160.44
816.76	29843.00
816.94	30230.07
817.11	30152.24
817.29	29871.67
817.47	29953.59
817.65	29652.54
817.83	30330.42
818.01	29896.25
818.19	29865.53
818.37	30049.85
818.54	29716.03
818.72	29527.61
818.90	29740.60
819.08	29699.64
819.26	29576.76
819.44	29445.69
819.62	29267.52
819.80	29339.20
819.97	29337.15
820.15	29138.50
820.33	29075.01
820.51	29279.81
820.69	28816.97
820.87	29275.71
821.05	29322.82
821.22	28982.85
821.40	28864.07
821.58	28708.43
821.76	28915.27
821.94	28649.03
822.12	28579.40
822.29	28663.37
822.47	28423.76
822.65	29191.75
822.83	28458.57
823.01	28325.46
823.19	28556.88
823.36	28415.57
823.54	28085.84
823.72	28395.09
823.90	28292.69
824.08	28425.81
824.25	28091.99
824.43	28268.11
824.61	28124.75
824.79	28034.64
824.97	27881.05
825.15	27997.78
825.32	28059.22
825.50	27817.56
825.68	27532.89
825.86	27831.90
826.04	28247.63
826.21	27817.56
826.39	27709.02
826.57	27620.95
826.75	27635.29
826.93	27444.83
827.10	27356.77
827.28	27715.16
827.46	27661.91
827.64	27536.99
827.81	27309.66
827.99	27360.86
828.17	27072.10
828.35	27440.73
828.53	27182.69
828.70	27223.65
828.88	27098.72
829.06	27332.19
829.24	27233.89
829.41	27197.02
829.59	27303.52
829.77	26984.04
829.95	26756.71
830.12	26943.08
830.30	26936.93
830.48	26992.23
830.66	26533.48
830.84	26674.79
831.01	26662.51
831.19	26654.31
831.37	26576.49
831.55	26449.52
831.72	26668.65
831.90	26508.91
832.08	26599.02
832.25	26365.55
832.43	26338.93
832.61	26033.78
832.79	26297.97
832.96	25949.81
833.14	26492.52
833.32	26275.44
833.50	26388.08
833.67	26248.82
833.85	25953.91
834.03	26146.42
834.20	26101.36
834.38	26154.61
834.56	26082.93
834.74	25607.80
834.91	25898.61
835.09	26070.64
835.27	25816.69
835.44	25640.57
835.62	25347.71
835.80	25521.79
835.98	25687.67
836.15	26005.11
836.33	25652.86
836.51	25708.15
836.68	25607.80
836.86	25452.16
837.04	25405.05
837.21	25626.23
837.39	25237.12
837.57	25646.71
837.75	25486.97
837.92	25267.84
838.10	25118.34
838.28	25005.70
838.45	25357.95
838.63	25081.47
838.81	25218.69
838.98	25142.91
839.16	24833.67
839.34	25020.03
839.51	24850.05
839.69	24518.28
839.87	25034.37
840.04	24786.57
840.22	25017.99
840.40	24929.92
840.57	24462.99
840.75	24698.50
840.93	24755.85
841.10	24587.91
841.28	24817.29
841.46	24688.26
841.63	24841.86
841.81	24534.67
841.98	24362.64
842.16	24424.08
842.34	24549.00
842.51	24118.93
842.69	24848.00
842.87	24223.37
843.04	24538.76
843.22	24217.23
843.40	24305.29
843.57	24161.94
843.75	24192.65
843.92	24395.40
844.10	24231.57
844.28	24143.50
844.45	24362.64
844.63	24497.80
844.81	23950.99
844.98	24037.01
845.16	24282.77
845.33	24131.22
845.51	24034.96
845.69	23840.40
845.86	23938.71
846.04	23844.50
846.21	23844.50
846.39	23637.66
846.57	23629.46
846.74	23740.05
846.92	23701.14
847.09	23565.98
847.27	23406.23
847.45	23944.85
847.62	23719.57
847.80	23684.76
847.97	23402.14
848.15	23381.66
848.32	23443.10
848.50	23633.56
848.68	23142.05
848.85	23137.95
849.03	23185.05
849.20	23541.40
849.38	23162.53
849.56	22965.92
849.73	23154.33
849.91	23240.35
850.08	23434.91
850.26	23094.94
850.43	22978.21
850.61	22910.63
850.78	22658.73
850.96	22937.25
851.14	22855.33
851.31	22826.66
851.49	22748.84
851.66	22908.58
851.84	22564.52
852.01	22818.47
852.19	22591.14
852.36	22640.29
852.54	22845.09
852.71	22564.52
852.89	22785.70
853.07	22646.44
853.24	22699.69
853.42	22656.68
853.59	22705.83
853.77	22347.44
853.94	22771.36
854.12	22906.53
854.29	22382.25
854.47	22754.98
854.64	22288.04
854.82	22593.19
854.99	22363.82
855.17	22386.35
855.34	22488.74
855.52	22361.77
855.69	22316.72
855.87	22333.10
856.04	22156.97
856.22	22435.50
856.39	21835.44
856.57	22044.34
856.74	22208.17
856.92	21974.70
857.09	21728.95
857.27	21702.32
857.44	21911.22
857.62	21878.45
857.79	21970.61
857.97	21788.34
858.14	21581.49
858.32	21835.44
858.49	21960.37
858.67	21704.37
858.84	21700.28
859.02	21505.72
859.19	21610.17
859.37	21552.82
859.54	21411.51
859.72	21595.83
859.89	21569.21
860.06	21747.38
860.24	21378.75
860.41	21345.98
860.59	21401.27
860.76	21448.38
860.94	21059.26
861.11	21446.33
861.29	21368.51
861.46	21249.72
861.64	21186.24
861.81	21087.93
861.98	21208.76
862.16	21210.81
862.33	20956.86
862.51	21116.61
862.68	21137.09
862.86	21061.31
863.03	20895.43
863.21	21085.89
863.38	21053.12
863.55	20983.49
863.73	21118.65
863.90	20924.10
864.08	20879.04
864.25	20760.26
864.43	20702.92
864.60	20772.55
864.77	20547.27
864.95	20530.89
865.12	20723.40
865.30	20686.53
865.47	20504.26
865.64	20563.65
865.82	20549.32
865.99	20530.89
866.17	20356.81
866.34	20354.76
866.51	20319.95
866.69	20215.50
866.86	20520.65
867.04	20481.74
867.21	20453.06
867.38	19883.73
867.56	20109.01
867.73	19877.58
867.91	20027.09
868.08	19994.32
868.25	20059.85
868.43	19920.59
868.60	19853.01
868.78	19934.93
868.95	20127.44
869.12	19502.81
869.30	19676.88
869.47	19771.09
869.64	19631.83
869.82	19648.21
869.99	19640.02
870.16	19889.87
870.34	19537.62
870.51	19836.63
870.69	19506.90
870.86	19662.55
871.03	19539.67
871.21	19408.60
871.38	19814.10
871.55	19537.62
871.73	19285.72
871.90	19220.19
872.07	19443.42
872.25	19185.37
872.42	18976.48
872.59	19357.40
872.77	19119.84
872.94	19257.05
873.11	19035.87
873.29	18994.91
873.46	18962.14
873.63	19199.71
873.81	19054.30
873.98	18947.81
874.15	19060.45
874.33	18644.71
874.50	18640.61
874.67	18724.58
874.85	18560.74
875.02	18595.56
875.19	18353.90
875.37	18347.75
875.54	18560.74
875.71	18575.08
875.88	18530.02
876.06	18376.42
876.23	18577.12
876.40	18102.00
876.58	18263.79
876.75	18353.90
876.92	17907.44
877.10	18448.10
877.27	18382.57
877.44	18314.98
877.61	17854.19
877.79	17923.82
877.96	18104.04
878.13	17805.04
878.31	17800.94
878.48	17921.77
878.65	17823.47
878.82	17608.44
879.00	17796.85
879.17	17893.10
879.34	17829.62
879.51	17856.24
879.69	17860.34
879.86	17813.23
880.03	17719.03
880.21	17731.31
880.38	17405.69
880.55	17741.55
880.72	17479.41
880.90	17481.46
881.07	17366.78
881.24	17057.53
881.41	17309.43
881.59	16967.42
881.76	17254.14
881.93	17319.67
882.10	17151.74
882.28	17323.77
882.45	17342.20
882.62	17309.43
882.79	17284.86
882.96	16877.31
883.14	17168.12
883.31	17182.46
883.48	17147.64
883.65	17194.75
883.83	17094.40
884.00	17030.91
884.17	17045.24
884.34	16969.47
884.51	16959.23
884.69	16955.13
884.86	16656.13
885.03	16973.56
885.20	16303.88
885.38	16592.64
885.55	16697.09
885.72	16875.26
885.89	16658.18
886.06	16731.90
886.24	16727.81
886.41	16731.90
886.58	16920.32
886.75	16848.64
886.92	16340.74
887.10	16658.18
887.27	16563.97
887.44	16473.86
887.61	16869.12
887.78	16547.59
887.95	16545.54
888.13	16404.23
888.30	16238.34
888.47	16174.86
888.64	16299.78
888.81	16563.97
888.99	16377.61
889.16	16430.85
889.33	16240.39
889.50	16281.35
889.67	16291.59
889.84	15933.20
890.01	16291.59
890.19	16131.85
890.36	16094.99
890.53	16238.34
890.70	16101.13
890.87	15855.37
891.04	16115.47
891.22	16201.48
891.39	16086.79
891.56	15736.59
891.73	15832.85
891.90	15804.17
892.07	15763.22
892.24	15804.17
892.42	15722.26
892.59	15849.23
892.76	15693.58
892.93	15791.89
893.10	15730.45
893.27	15619.86
893.44	15589.14
893.61	15394.58
893.79	15765.26
893.96	15656.72
894.13	15535.89
894.30	15666.96
894.47	15597.33
894.64	15642.39
894.81	15609.62
894.98	15613.71
895.15	15662.86
895.33	15396.63
895.50	15548.18
895.67	15603.47
895.84	15421.20
896.01	15570.71
896.18	15511.32
896.35	15384.34
896.52	15566.61
896.69	15257.37
896.86	15544.08
897.04	15396.63
897.21	15386.39
897.38	15486.74
897.55	15437.59
897.72	15408.92
897.89	15392.53
898.06	15216.41
898.23	15453.97
898.40	15363.86
898.57	15322.90
898.74	15230.74
898.91	15386.39
899.08	15376.15
899.26	15476.50
899.43	15376.15
899.60	15253.27
899.77	15644.43
899.94	15232.79
900.11	15068.95
900.28	15306.52
900.45	15191.83
900.62	15204.12
900.79	15529.75
900.96	15298.33
901.13	15173.40
901.30	15437.59
901.47	15331.09
901.64	15183.64
901.81	15263.51
901.98	15271.70
902.15	15171.35
902.32	15200.02
902.49	15345.43
902.66	15298.33
902.83	15232.79
903.01	15189.78
903.18	15355.67
903.35	15306.52
903.52	15226.65
903.69	15312.66
903.86	15361.81
904.03	15388.44
904.20	15320.85
904.37	15308.57
904.54	15159.06
904.71	15161.11
904.88	15243.03
905.05	15159.06
905.22	15193.88
905.39	15085.34
905.56	15044.38
905.73	15165.21
905.90	15255.32
906.07	15234.84
906.24	15222.55
906.41	15091.48
906.58	15294.23
906.75	15220.50
906.92	15001.37
907.09	15152.92
907.26	15449.88
907.43	15150.87
907.60	15126.30
907.77	15124.25
907.93	15103.77
908.10	15247.13
908.27	15179.54
908.44	14874.40
908.61	15138.58
908.78	15044.38
908.95	15257.37
909.12	14954.27
909.29	15011.61
909.46	15060.76
909.63	15314.71
909.80	15173.40
909.97	15040.28
910.14	14915.36
910.31	14956.32
910.48	15159.06
910.65	15091.48
910.82	15171.35
910.99	14841.63
911.16	15015.71
911.33	14872.35
911.50	15048.47
911.66	14839.58
911.83	14907.16
912.00	14978.84
912.17	14577.44
912.34	14708.51
912.51	14649.12
912.68	14509.86
912.85	14587.68
913.02	14679.84
913.19	14599.97
913.36	14774.05
913.53	14499.62
913.70	14518.05
913.86	14747.42
914.03	14616.35
914.20	14454.56
914.37	14769.95
914.54	14677.79
914.71	14444.32
914.88	14452.52
915.05	14386.98
915.22	14188.33
915.39	14526.24
915.55	14036.78
915.72	14319.40
915.89	14217.00
916.06	14173.99
916.23	14116.65
916.40	14065.45
916.57	14018.35
916.74	14049.07
916.91	13911.85
917.07	13907.76
917.24	13741.87
917.41	13975.34
917.58	13803.31
917.75	13829.93
917.92	13727.53
918.09	13791.02
918.26	13821.74
918.42	13666.10
918.59	13584.18
918.76	13610.80
918.93	13469.49
919.10	13453.11
919.27	13385.52
919.44	13455.15
919.60	13475.63
919.77	13735.73
919.94	13274.93
920.11	13252.41
920.28	13340.47
920.45	13217.59
920.61	13444.91
920.78	12975.93
920.95	12998.46
921.12	12953.40
921.29	12873.53
921.46	12994.36
921.62	12810.04
921.79	12934.97
921.96	12711.74
922.13	12830.52
922.30	12701.50
922.47	12742.46
922.63	12527.42
922.80	12635.97
922.97	12463.94
923.14	12310.34
923.31	12441.41
923.47	12562.24
923.64	12689.21
923.81	12392.26
923.98	12498.75
924.15	11945.80
924.32	12349.25
924.48	12203.85
924.65	12123.98
924.82	12193.61
924.99	12191.56
925.15	11956.04
925.32	12040.01
925.49	11806.54
925.66	11814.73
925.83	11810.64
925.99	11757.39
926.16	12027.72
926.33	11708.24
926.50	11640.65
926.67	11736.91
926.83	11470.67
927.00	11564.88
927.17	11378.51
927.34	11280.21
927.50	11609.93
927.67	11312.98
927.84	11349.84
928.01	11056.98
928.17	11138.90
928.34	11333.46
928.51	11061.08
928.68	10930.01
928.84	11040.60
929.01	10848.09
929.18	10651.49
929.35	10858.33
929.51	10737.50
929.68	10682.20
929.85	10714.97
930.02	10698.59
930.18	10561.37
930.35	10688.35
930.52	10618.72
930.69	10600.29
930.85	10497.89
931.02	10280.80
931.19	10211.17
931.36	10336.10
931.52	10420.06
931.69	10319.71
931.86	10254.18
932.02	10168.16
932.19	10164.07
932.36	10188.64
932.53	10147.69
932.69	9836.39
932.86	10104.68
933.03	9883.50
933.19	9834.35
933.36	9842.54
933.53	9752.43
933.70	9676.65
933.86	9742.19
934.03	9582.45
934.20	9500.53
934.36	9596.78
934.53	9320.31
934.70	9373.55
934.86	9174.90
935.03	9144.18
935.20	9103.22
935.36	9222.00
935.53	9002.87
935.70	8918.90
935.86	8896.38
936.03	8949.62
936.20	8703.87
936.36	8677.24
936.53	8726.39
936.70	8513.41
936.86	8736.63
937.03	8394.62
937.20	8357.76
937.36	8333.18
937.53	7999.37
937.70	8200.07
937.86	7917.45
938.03	8023.94
938.20	7929.74
938.36	7692.17
938.53	7790.47
938.70	7468.94
938.86	7565.20
939.03	7358.35
939.20	7509.90
939.36	7356.30
939.53	7198.61
939.70	7417.74
939.86	6981.53
940.03	6897.56
940.19	6815.64
940.36	6907.80
940.53	6827.93
940.69	6733.72
940.86	6827.93
941.03	6578.08
941.19	6436.77
941.36	6383.52
941.52	6375.33
941.69	6240.16
941.86	6141.86
942.02	6180.77
942.19	6225.82
942.35	6180.77
942.52	6068.13
942.69	6021.03
942.85	5810.09
943.02	5949.35
943.18	5879.72
943.35	5719.98
943.52	5892.01
943.68	5828.52
943.85	5765.03
944.01	5621.67
944.18	5537.71
944.35	5713.83
944.51	5453.74
944.68	5511.08
944.84	5484.46
945.01	5586.86
945.17	5558.19
945.34	5517.23
945.51	5537.71
945.67	5595.05
945.84	5463.98
946.00	5380.01
946.17	5474.22
946.33	5314.48
946.50	5347.25
946.67	5441.45
946.83	5386.16
947.00	5291.95
947.16	5443.50
947.33	5246.90
947.49	5267.38
947.66	5345.20
947.82	5367.73
947.99	5203.89
948.16	5291.95
948.32	5074.87
948.49	5298.10
948.65	5509.04
948.82	5279.66
948.98	5287.86
949.15	5265.33
949.31	5488.56
949.48	5255.09
949.64	5334.96
949.81	5298.10
949.97	5271.47
950.14	5359.53
950.30	5294.00
950.47	5556.14
950.63	5220.27
950.80	5443.50
950.96	5472.17
951.13	5248.94
951.30	5220.27
951.46	5574.57
951.63	5439.40
951.79	5418.93
951.96	5435.31
952.12	5418.93
952.29	5451.69
952.45	5312.43
952.62	5382.06
952.78	5451.69
952.94	5291.95
953.11	5490.60
953.27	5279.66
953.44	5466.03
953.60	5400.49
953.77	5517.23
953.93	5361.58
954.10	5414.83
954.26	5535.66
954.43	5515.18
954.59	5580.71
954.76	5478.32
954.92	5386.16
955.09	5441.45
955.25	5349.29
955.42	5470.12
955.58	5613.48
955.75	5556.14
955.91	5554.09
956.07	5451.69
956.24	5441.45
956.40	5463.98
956.57	5586.86
956.73	5566.38
956.90	5556.14
957.06	5246.90
957.23	5423.02
957.39	5353.39
957.56	5564.33
957.72	5390.25
957.88	5433.26
958.05	5498.80
958.21	5679.02
958.38	5509.04
958.54	5515.18
958.71	5640.11
958.87	5423.02
959.03	5474.22
959.20	5384.11
959.36	5443.50
959.53	5380.01
959.69	5351.34
959.85	5351.34
960.02	5449.64
960.18	5427.12
960.35	5445.55
960.51	5504.94
960.68	5474.22
960.84	5574.57
961.00	5580.71
961.17	5384.11
961.33	5531.56
961.50	5554.09
961.66	5498.80
961.82	5408.69
961.99	5543.85
962.15	5441.45
962.31	5461.93
962.48	5351.34
962.64	5570.48
962.81	5302.19
962.97	5525.42
963.13	5457.84
963.30	5425.07
963.46	5367.73
963.62	5351.34
963.79	5334.96
963.95	5369.77
964.12	5513.13
964.28	5427.12
964.44	5265.33
964.61	5396.40
964.77	5455.79
964.93	5343.15
965.10	5345.20
965.26	5304.24
965.42	5429.17
965.59	5218.22
965.75	5248.94
965.92	5347.25
966.08	5556.14
966.24	5201.84
966.41	5298.10
966.57	5320.62
966.73	5318.57
966.90	5377.97
967.06	5306.29
967.22	5195.70
967.39	5191.60
967.55	5148.59
967.71	5257.14
967.88	5210.03
968.04	5191.60
968.20	5197.74
968.37	5230.51
968.53	5101.49
968.69	5177.26
968.85	5279.66
969.02	5226.42
969.18	5294.00
969.34	5130.16
969.51	5132.21
969.67	5259.18
969.83	5173.17
970.00	5078.96
970.16	5281.71
970.32	5101.49
970.48	5263.28
970.65	5027.76
970.81	5087.15
970.97	5152.69
971.14	5044.15
971.30	5128.11
971.46	5126.07
971.63	5058.48
971.79	5144.50
971.95	4974.52
972.11	4947.89
972.28	5050.29
972.44	5017.52
972.60	4872.12
972.76	4931.51
972.93	4913.08
973.09	4923.32
973.25	4937.65
973.42	4865.97
973.58	4988.85
973.74	4966.32
973.90	4798.39
974.07	4933.56
974.23	4925.36
974.39	4923.32
974.55	4886.45
974.72	4882.36
974.88	4739.00
975.04	4945.84
975.20	4652.98
975.37	4949.94
975.53	4706.23
975.69	4698.04
975.85	4685.75
976.01	4681.66
976.18	4839.35
976.34	4829.11
976.50	4779.96
976.66	4736.95
976.83	4708.28
976.99	4659.13
977.15	4761.53
977.31	4548.54
977.47	4683.70
977.64	4624.31
977.80	4618.17
977.96	4667.32
978.12	4589.50
978.29	4534.20
978.45	4632.51
978.61	4511.68
978.77	4714.42
978.93	4476.86
979.10	4546.49
979.26	4476.86
979.42	4464.57
979.58	4358.08
979.74	4591.55
979.91	4485.05
980.07	4403.13
980.23	4448.19
980.39	4376.51
980.55	4450.24
980.71	4464.57
980.88	4429.76
981.04	4386.75
981.20	4442.04
981.36	4296.64
981.52	4407.23
981.68	4464.57
981.85	4413.37
982.01	4382.65
982.17	4333.50
982.33	4251.58
982.49	4462.52
982.65	4210.62
982.82	4360.13
982.98	4212.67
983.14	4255.68
983.30	4386.75
983.46	4384.70
983.62	4274.11
983.79	4198.34
983.95	4126.66
984.11	4112.32
984.27	4128.70
984.43	4227.01
984.59	4192.19
984.75	4243.39
984.91	4188.10
985.08	4067.27
985.24	4095.94
985.40	4138.94
985.56	4204.48
985.72	4200.38
985.88	4165.57
986.04	4065.22
986.20	4065.22
986.37	4009.92
986.53	3905.48
986.69	4057.03
986.85	3991.49
987.01	4032.45
987.17	4104.13
987.33	3979.20
987.49	3923.91
987.65	4057.03
987.82	4061.12
987.98	3895.24
988.14	3968.96
988.30	3979.20
988.46	3895.24
988.62	3862.47
988.78	3870.66
988.94	3897.28
989.10	3862.47
989.26	3858.37
989.42	3780.55
989.59	3782.60
989.75	3770.31
989.91	3913.67
990.07	3723.21
990.23	3706.82
990.39	3796.93
990.55	3825.61
990.71	3731.40
990.87	3819.46
991.03	3862.47
991.19	3792.84
991.35	3803.08
991.51	3753.93
991.67	3835.85
991.83	3788.74
992.00	3698.63
992.16	3755.97
992.32	3743.69
992.48	3747.78
992.64	3608.52
992.80	3575.75
992.96	3620.81
993.12	3715.02
993.28	3639.24
993.44	3534.79
993.60	3540.94
993.76	3768.26
993.92	3669.96
994.08	3657.67
994.24	3637.19
994.40	3585.99
994.56	3565.51
994.72	3571.66
994.88	3624.90
995.04	3553.23
995.20	3573.71
995.36	3602.38
995.52	3555.27
995.68	3483.59
995.84	3534.79
996.00	3626.95
996.16	3420.11
996.32	3364.81
996.48	3522.51
996.64	3520.46
996.80	3344.33
996.96	3459.02
997.12	3508.17
997.28	3305.42
997.44	3362.76
997.60	3377.10
997.76	3463.12
997.92	3338.19
998.08	3432.40
998.24	3264.46
998.40	3375.05
998.56	3434.44
998.72	3284.94
998.88	3280.85
999.04	3235.79
999.20	3387.34
999.36	3266.51
999.52	3387.34
999.68	3192.78
999.84	3409.87
1000.00	3235.79
1000.16	3354.57
1000.32	3280.85
1000.48	3319.76
1000.64	3149.78
1000.80	3252.17
1000.95	3209.17
1001.11	3203.02
1001.27	3207.12
1001.43	3317.71
1001.59	3059.67
1001.75	3203.02
1001.91	3086.29
1002.07	2922.45
1002.23	3041.23
1002.39	3045.33
1002.55	3166.16
1002.71	3125.20
1002.87	3030.99
1003.03	3108.82
1003.19	3016.66
1003.34	3157.97
1003.50	3102.67
1003.66	3121.10
1003.82	3110.86
1003.98	3051.47
1004.14	3022.80
1004.30	3014.61
1004.46	2963.41
1004.62	3090.38
1004.78	3000.27
1004.94	2973.65
1005.09	3028.95
1005.25	3067.86
1005.41	2949.08
1005.57	2959.31
1005.73	2990.03
1005.89	2885.59
1006.05	2883.54
1006.21	2981.84
1006.37	2830.29
1006.52	2873.30
1006.68	2809.81
1006.84	3051.47
1007.00	2889.68
1007.16	3082.19
1007.32	2772.95
1007.48	2832.34
1007.64	2858.96
1007.79	3002.32
1007.95	2891.73
1008.11	2967.51
1008.27	2865.11
1008.43	2731.99
1008.59	2822.10
1008.75	2863.06
1008.91	2863.06
1009.06	2818.00
1009.22	2795.48
1009.38	2770.90
1009.54	2879.44
1009.70	2830.29
1009.86	2799.57
1010.01	2869.20
1010.17	2664.41
1010.33	2789.33
1010.49	2861.01
1010.65	2727.89
1010.81	2748.37
1010.96	2775.00
1011.12	2654.17
1011.28	2645.98
1011.44	2756.57
1011.60	2715.61
1011.76	2625.50
1011.91	2781.14
1012.07	2615.26
1012.23	2619.35
1012.39	2562.01
1012.55	2645.98
1012.71	2656.22
1012.86	2617.30
1013.02	2617.30
1013.18	2672.60
1013.34	2562.01
1013.50	2670.55
1013.65	2625.50
1013.81	2576.34
1013.97	2490.33
1014.13	2623.45
1014.29	2609.11
1014.44	2666.46
1014.60	2555.86
1014.76	2611.16
1014.92	2641.88
1015.07	2643.93
1015.23	2555.86
1015.39	2482.14
1015.55	2557.91
1015.71	2537.43
1015.86	2492.38
1016.02	2549.72
1016.18	2459.61
1016.34	2510.81
1016.49	2445.27
1016.65	2600.92
1016.81	2488.28
1016.97	2494.43
1017.12	2443.23
1017.28	2387.93
1017.44	2428.89
1017.60	2482.14
1017.75	2412.51
1017.91	2486.23
1018.07	2334.68
1018.23	2510.81
1018.38	2441.18
1018.54	2400.22
1018.70	2346.97
1018.86	2396.12
1019.01	2326.49
1019.17	2326.49
1019.33	2555.86
1019.49	2301.92
1019.64	2445.27
1019.80	2357.21
1019.96	2338.78
1020.12	2357.21
1020.27	2349.02
1020.43	2359.26
1020.59	2428.89
1020.74	2394.08
1020.90	2392.03
1021.06	2314.20
1021.22	2426.84
1021.37	2293.72
1021.53	2260.96
1021.69	2232.29
1021.84	2213.85
1022.00	2310.11
1022.16	2285.53
1022.31	2289.63
1022.47	2295.77
1022.63	2349.02
1022.79	2283.49
1022.94	2234.33
1023.10	2365.40
1023.26	2312.16
1023.41	2242.53
1023.57	2224.09
1023.73	2344.92
1023.88	2344.92
1024.04	2176.99
1024.20	2232.29
1024.35	2242.53
1024.51	2209.76
1024.67	2287.58
1024.82	2285.53
1024.98	2205.66
1025.14	2195.42
1025.29	2117.60
1025.45	2279.39
1025.61	2228.19
1025.76	2150.37
1025.92	2236.38
1026.08	2224.09
1026.23	2166.75
1026.39	2242.53
1026.55	2203.61
1026.70	2197.47
1026.86	2217.95
1027.02	2248.67
1027.17	2170.85
1027.33	2193.37
1027.48	2070.50
1027.64	2076.64
1027.80	2168.80
1027.95	2222.05
1028.11	2045.92
1028.27	2222.05
1028.42	2158.56
1028.58	2056.16
1028.73	2090.98
1028.89	2088.93
1029.05	2203.61
1029.20	2156.51
>>>>>End Processed Spectral Data<<<<<
