SpectraSuite Data File
++++++++++++++++++++++++++++++++++++
Date: Fri Jun 02 14:49:28 CEST 2017
User: INFO_000
Dark Spectrum Present: No
Reference Spectrum Present: No
Number of Sampled Component Spectra: 1
Spectrometers: USB4H00879
Integration Time (usec): 80000 (USB4H00879)
Spectra Averaged: 1 (USB4H00879)
Boxcar Smoothing: 0 (USB4H00879)
Correct for Electrical Dark: No (USB4H00879)
Strobe/Lamp Enabled: No (USB4H00879)
Correct for Detector Non-linearity: No (USB4H00879)
Correct for Stray Light: No (USB4H00879)
Number of Pixels in Processed Spectrum: 3648
>>>>>Begin Processed Spectral Data<<<<<
345.13	1318.89
345.34	1318.89
345.56	1318.89
345.78	1306.60
345.99	1302.51
346.21	1738.73
346.42	1665.00
346.64	1619.94
346.86	1847.27
347.07	1613.80
347.29	1691.62
347.50	1675.24
347.72	1689.57
347.94	1703.91
348.15	1597.42
348.37	1640.42
348.59	1687.53
348.80	1720.29
349.02	1830.88
349.23	1826.79
349.45	1900.52
349.67	1894.37
349.88	1820.64
350.10	1894.37
350.31	1814.50
350.53	1775.59
350.75	1986.53
350.96	1732.58
351.18	1949.67
351.39	1857.51
351.61	1775.59
351.82	1871.84
352.04	1964.00
352.26	1869.80
352.47	1916.90
352.69	1941.47
352.90	1734.63
353.12	1810.40
353.34	1849.32
353.55	2004.96
353.77	1927.14
353.98	1830.88
354.20	1796.07
354.41	1937.38
354.63	1961.95
354.85	2004.96
355.06	1855.46
355.28	1804.26
355.49	1841.12
355.71	1832.93
355.92	1880.04
356.14	1914.85
356.35	1920.99
356.57	1867.75
356.79	1908.71
357.00	1894.37
357.22	1992.67
357.43	1894.37
357.65	1933.28
357.86	1845.22
358.08	1890.28
358.29	1970.15
358.51	1974.24
358.72	1990.63
358.94	1861.60
359.16	1886.18
359.37	1890.28
359.59	1978.34
359.80	2019.30
360.02	1984.48
360.23	1964.00
360.45	1986.53
360.66	1935.33
360.88	1927.14
361.09	1947.62
361.31	1943.52
361.52	2009.06
361.74	2107.36
361.95	2086.88
362.17	2037.73
362.38	2117.60
362.60	2043.87
362.81	1961.95
363.03	1859.56
363.24	2023.39
363.46	2009.06
363.67	1988.58
363.89	1961.95
364.10	1945.57
364.32	1953.76
364.53	1992.67
364.75	1961.95
364.96	1939.43
365.18	1923.04
365.39	2080.74
365.61	1949.67
365.82	2086.88
366.04	2007.01
366.25	1970.15
366.47	2029.54
366.68	2019.30
366.90	1908.71
367.11	2045.92
367.33	2047.97
367.54	2125.79
367.76	2000.87
367.97	2125.79
368.19	1990.63
368.40	2000.87
368.62	1984.48
368.83	2039.78
369.05	2068.45
369.26	2054.11
369.48	1957.86
369.69	2035.68
369.91	2056.16
370.12	2035.68
370.33	2025.44
370.55	1974.24
370.76	2041.82
370.98	2152.42
371.19	2076.64
371.41	2015.20
371.62	2058.21
371.84	2062.30
372.05	2148.32
372.27	2097.12
372.48	2078.69
372.69	2070.50
372.91	2168.80
373.12	2142.18
373.34	2142.18
373.55	2158.56
373.77	2138.08
373.98	2097.12
374.20	2129.89
374.41	2250.72
374.62	2078.69
374.84	2154.46
375.05	2193.37
375.27	2158.56
375.48	2181.09
375.70	2150.37
375.91	2160.61
376.12	2289.63
376.34	2144.22
376.55	2158.56
376.77	2213.85
376.98	2099.17
377.19	2113.50
377.41	2174.94
377.62	2189.28
377.84	2269.15
378.05	2234.33
378.27	2123.74
378.48	2224.09
378.69	2328.54
378.91	2306.01
379.12	2238.43
379.34	2224.09
379.55	2260.96
379.76	2199.52
379.98	2119.65
380.19	2224.09
380.41	2263.01
380.62	2377.69
380.83	2242.53
381.05	2152.42
381.26	2385.88
381.47	2312.16
381.69	2275.29
381.90	2392.03
382.12	2289.63
382.33	2238.43
382.54	2361.31
382.76	2340.83
382.97	2228.19
383.19	2166.75
383.40	2402.27
383.61	2377.69
383.83	2281.44
384.04	2299.87
384.25	2283.49
384.47	2287.58
384.68	2445.27
384.89	2328.54
385.11	2303.96
385.32	2312.16
385.54	2310.11
385.75	2422.75
385.96	2400.22
386.18	2383.84
386.39	2404.32
386.60	2279.39
386.82	2404.32
387.03	2377.69
387.24	2535.39
387.46	2449.37
387.67	2500.57
387.88	2496.47
388.10	2465.75
388.31	2461.66
388.52	2555.86
388.74	2502.62
388.95	2500.57
389.16	2469.85
389.38	2428.89
389.59	2529.24
389.80	2590.68
390.02	2510.81
390.23	2645.98
390.44	2572.25
390.66	2500.57
390.87	2570.20
391.08	2494.43
391.30	2617.30
391.51	2588.63
391.72	2658.26
391.94	2617.30
392.15	2592.73
392.36	2547.67
392.58	2617.30
392.79	2594.78
393.00	2598.87
393.22	2580.44
393.43	2811.86
393.64	2822.10
393.85	2684.89
394.07	2557.91
394.28	2676.70
394.49	2742.23
394.71	2715.61
394.92	2861.01
395.13	2650.07
395.35	2695.13
395.56	2750.42
395.77	2787.29
395.98	2854.87
396.20	2668.50
396.41	2682.84
396.62	2936.79
396.84	2879.44
397.05	2801.62
397.26	2875.35
397.47	2924.50
397.69	2828.24
397.90	3100.62
398.11	2877.40
398.32	2944.98
398.54	2904.02
398.75	2981.84
398.96	2953.17
399.18	3102.67
399.39	2899.92
399.60	3004.37
399.81	2922.45
400.03	2908.12
400.24	3205.07
400.45	2953.17
400.66	3030.99
400.88	2963.41
401.09	3182.54
401.30	3076.05
401.51	3121.10
401.73	3104.72
401.94	3053.52
402.15	3012.56
402.36	3137.49
402.58	3157.97
402.79	3143.63
403.00	3139.54
403.21	3239.89
403.43	3180.50
403.64	3276.75
403.85	3041.23
404.06	3172.30
404.27	3133.39
404.49	3262.41
404.70	3166.16
404.91	3213.26
405.12	3205.07
405.34	3229.65
405.55	3280.85
405.76	3114.96
405.97	3299.28
406.19	3303.37
406.40	3264.46
406.61	3385.29
406.82	3299.28
407.03	3342.28
407.25	3303.37
407.46	3475.40
407.67	3373.00
407.88	3438.54
408.09	3295.18
408.31	3276.75
408.52	3338.19
408.73	3280.85
408.94	3338.19
409.15	3370.96
409.37	3596.23
409.58	3483.59
409.79	3469.26
410.00	3493.83
410.21	3399.63
410.43	3334.09
410.64	3465.16
410.85	3479.50
411.06	3459.02
411.27	3577.80
411.48	3733.45
411.70	3444.68
411.91	3616.71
412.12	3542.99
412.33	3598.28
412.54	3534.79
412.76	3583.95
412.97	3676.10
413.18	3510.22
413.39	3684.30
413.60	3626.95
413.81	3622.86
414.03	3631.05
414.24	3614.66
414.45	3815.37
414.66	3481.55
414.87	3682.25
415.08	3753.93
415.30	3704.78
415.51	3856.33
415.72	3635.14
415.93	3790.79
416.14	3727.30
416.35	3753.93
416.56	3794.89
416.78	3811.27
416.99	3862.47
417.20	3665.86
417.41	3882.95
417.62	3790.79
417.83	3841.99
418.04	3786.69
418.26	3925.96
418.47	3794.89
418.68	4075.46
418.89	3930.05
419.10	4032.45
419.31	4014.02
419.52	4100.03
419.73	3936.20
419.95	4001.73
420.16	3921.86
420.37	3903.43
420.58	4057.03
420.79	3866.56
421.00	3932.10
421.21	3995.59
421.42	4003.78
421.63	4009.92
421.85	4100.03
422.06	4184.00
422.27	4159.42
422.48	4138.94
422.69	4157.38
422.90	4192.19
423.11	4210.62
423.32	4284.35
423.53	4366.27
423.75	4243.39
423.96	4302.78
424.17	4378.56
424.38	4460.48
424.59	4263.87
424.80	4450.24
425.01	4483.00
425.22	4345.79
425.43	4405.18
425.64	4583.35
425.85	4620.22
426.06	4571.07
426.28	4523.96
426.49	4485.05
426.70	4517.82
426.91	4552.63
427.12	4691.90
427.33	4657.08
427.54	4704.18
427.75	4816.82
427.96	4779.96
428.17	4771.77
428.38	4763.58
428.59	4827.06
428.80	4808.63
429.01	4695.99
429.23	4820.92
429.44	4911.03
429.65	4995.00
429.86	4964.28
430.07	4812.73
430.28	4812.73
430.49	5054.39
430.70	5113.78
430.91	5025.72
431.12	4917.17
431.33	5107.63
431.54	5173.17
431.75	5130.16
431.96	5187.50
432.17	5103.54
432.38	5154.74
432.59	5353.39
432.80	5312.43
433.01	5306.29
433.22	5158.83
433.43	5289.90
433.64	5287.86
433.85	5156.79
434.06	5246.90
434.27	5353.39
434.49	5451.69
434.70	5468.08
434.91	5425.07
435.12	5330.86
435.33	5347.25
435.54	5416.88
435.75	5277.62
435.96	5388.21
436.17	5255.09
436.38	5597.10
436.59	5443.50
436.80	5517.23
437.01	5754.79
437.22	5818.28
437.43	5613.48
437.64	5564.33
437.85	5722.02
438.06	5765.03
438.27	5498.80
438.48	5644.20
438.69	5859.24
438.90	5752.74
439.11	5623.72
439.32	5885.86
439.53	5713.83
439.74	5836.71
439.95	5789.61
440.16	5947.30
440.37	5975.97
440.57	5769.13
440.78	5945.25
440.99	5959.59
441.20	5955.49
441.41	5744.55
441.62	5881.77
441.83	5918.63
442.04	5986.21
442.25	5967.78
442.46	5902.25
442.67	6178.72
442.88	6440.86
443.09	5951.40
443.30	6006.69
443.51	6150.05
443.72	6326.18
443.93	6098.85
444.14	6360.99
444.35	6135.71
444.56	6320.03
444.77	6242.21
444.98	6358.94
445.19	6363.04
445.40	6340.51
445.61	6303.65
445.81	6354.85
446.02	6442.91
446.23	6504.35
446.44	6111.14
446.65	6363.04
446.86	6459.29
447.07	6604.70
447.28	6778.78
447.49	6711.19
447.70	6410.14
447.91	6643.61
448.12	6705.05
448.33	6668.19
448.54	6629.27
448.74	6557.60
448.95	6698.91
449.16	6502.30
449.37	7045.01
449.58	6696.86
449.79	7010.20
450.00	6733.72
450.21	6918.04
450.42	6885.27
450.63	6834.07
450.84	6827.93
451.05	6940.57
451.25	7032.72
451.46	6963.09
451.67	7190.42
451.88	7249.81
452.09	7065.49
452.30	7051.16
452.51	7106.45
452.72	7096.21
452.93	7450.51
453.13	6948.76
453.34	7260.05
453.55	7313.30
453.76	7153.55
453.97	7683.98
454.18	7264.15
454.39	7530.38
454.60	7346.06
454.81	7223.19
455.01	7442.32
455.22	7217.04
455.43	7552.91
455.64	7585.68
455.85	7753.61
456.06	7806.86
456.27	7579.53
456.48	7659.40
456.68	7612.30
456.89	7741.32
457.10	7989.13
457.31	7849.86
457.52	7767.95
457.73	7745.42
457.94	8105.86
458.14	7843.72
458.35	8058.76
458.56	8050.57
458.77	7896.97
458.98	8234.88
459.19	8118.15
459.39	8386.43
459.60	8341.38
459.81	8359.81
460.02	8308.61
460.23	8474.49
460.44	8542.08
460.65	8558.46
460.85	8564.61
461.06	8695.68
461.27	8494.97
461.48	8939.38
461.69	8800.12
461.89	8406.91
462.10	8791.93
462.31	8546.17
462.52	8636.28
462.73	8691.58
462.94	9164.66
463.14	8879.99
463.35	9027.45
463.56	9385.84
463.77	9308.02
463.98	9105.27
464.18	9064.31
464.39	9539.44
464.60	9568.11
464.81	9582.45
465.02	9432.94
465.23	9697.13
465.43	9465.71
465.64	9578.35
465.85	9576.30
466.06	9492.34
466.27	9850.73
466.47	9740.14
466.68	9930.60
466.89	9887.59
467.10	10078.05
467.30	9652.08
467.51	10071.91
467.72	10350.43
467.93	9754.48
468.14	10301.28
468.34	10467.17
468.55	10467.17
468.76	10506.08
468.97	10354.53
469.17	10573.66
469.38	10653.53
469.59	10757.98
469.80	10551.14
470.01	10659.68
470.21	10837.85
470.42	10878.81
470.63	11079.51
470.84	11067.22
471.04	11247.44
471.25	11495.25
471.46	11132.76
471.67	11659.09
471.87	11394.90
472.08	11433.81
472.29	11788.11
472.50	11458.39
472.70	11583.31
472.91	11665.23
473.12	11704.14
473.33	11925.32
473.53	12080.97
473.74	11986.76
473.95	12259.14
474.16	12322.63
474.36	12312.39
474.57	12535.62
474.78	12535.62
474.99	12463.94
475.19	12613.44
475.40	12769.09
475.61	12758.85
475.81	12883.77
476.02	12994.36
476.23	12918.59
476.44	13008.70
476.64	13137.72
476.85	13387.57
477.06	13461.30
477.27	13524.79
477.47	13649.71
477.68	13727.53
477.89	13670.19
478.09	13692.72
478.30	13858.60
478.51	13825.84
478.71	14049.07
478.92	14268.20
479.13	14315.30
479.34	14534.43
479.54	14499.62
479.75	14556.96
479.96	14864.16
480.16	14544.67
480.37	14808.86
480.58	14817.05
480.78	15312.66
480.99	15175.45
481.20	15124.25
481.41	15367.96
481.61	15470.36
481.82	15652.63
482.03	15439.64
482.23	15458.07
482.44	15877.90
482.65	15709.97
482.85	16076.55
483.06	15963.92
483.27	15902.48
483.47	16019.21
483.68	16262.92
483.89	16428.81
484.09	16490.24
484.30	16484.10
484.51	16545.54
484.71	16469.76
484.92	16584.45
485.13	16989.95
485.33	16854.78
485.54	16930.56
485.75	17059.58
485.95	16985.85
486.16	17479.41
486.37	17356.54
486.57	17483.51
486.78	17430.26
486.98	17497.84
487.19	17618.68
487.40	17579.76
487.60	17809.14
487.81	17981.17
488.02	17768.18
488.22	17911.53
488.43	18329.32
488.64	18401.00
488.84	18575.08
489.05	18493.16
489.25	18323.18
489.46	18771.68
489.67	18730.72
489.87	18702.05
490.08	18876.13
490.29	19050.21
490.49	19050.21
490.70	19214.04
490.90	19343.06
491.11	19263.19
491.32	19441.37
491.52	19300.06
491.73	19549.91
491.94	19640.02
492.14	19732.18
492.35	19640.02
492.55	19898.06
492.76	19853.01
492.97	20156.11
493.17	20389.58
493.38	20416.20
493.58	20395.72
493.79	20362.95
494.00	20549.32
494.20	20543.17
494.41	20707.01
494.61	20590.28
494.82	20797.12
495.02	20670.15
495.23	20825.79
495.44	20940.48
495.64	21298.88
495.85	21190.33
496.05	21282.49
496.26	21194.43
496.47	21636.79
496.67	21352.12
496.88	21728.95
497.08	21391.03
497.29	21808.82
497.49	21767.86
497.70	21708.47
497.91	22103.73
498.11	22116.01
498.32	22316.72
498.52	22116.01
498.73	22458.03
498.93	22384.30
499.14	22310.57
499.34	22443.69
499.55	22642.34
499.76	22527.66
499.96	22853.28
500.17	22556.33
500.37	22986.40
500.58	22666.92
500.78	22965.92
500.99	23191.20
501.19	23369.37
501.40	23078.56
501.60	23393.95
501.81	22967.97
502.02	23170.72
502.22	23187.10
502.43	23561.88
502.63	23707.29
502.84	23783.06
503.04	23846.55
503.25	23697.05
503.45	23942.80
503.66	23996.05
503.86	23723.67
504.07	24196.75
504.27	23770.77
504.48	24323.72
504.68	24131.22
504.89	24368.78
505.09	24483.47
505.30	24399.50
505.50	24460.94
505.71	24702.60
505.91	24649.35
506.12	24575.62
506.32	24706.70
506.53	24788.61
506.73	24831.62
506.94	25020.03
507.14	24893.06
507.35	25017.99
507.55	25325.18
507.76	25206.40
507.96	25060.99
508.17	25198.21
508.37	25333.37
508.58	25603.71
508.78	25454.20
508.99	25716.34
509.19	25898.61
509.40	25792.12
509.60	25652.86
509.81	25597.56
510.01	25624.18
510.22	25925.24
510.42	26168.94
510.63	26265.20
510.83	26023.54
511.04	26150.51
511.24	26095.22
511.44	26302.06
511.65	26320.49
511.85	26713.70
512.06	26412.65
512.26	26467.95
512.47	26766.95
512.67	26562.15
512.88	26656.36
513.08	26310.25
513.29	26771.05
513.49	27047.52
513.69	26826.34
513.90	26953.32
514.10	26947.17
514.31	27151.97
514.51	27047.52
514.72	27264.61
514.92	27440.73
515.13	27477.60
515.33	27385.44
515.53	27502.17
515.74	27367.01
515.94	27225.70
516.15	28008.02
516.35	27510.36
516.56	27696.73
516.76	27618.91
516.96	28067.41
517.17	28003.92
517.37	27821.66
517.58	27729.50
517.78	28161.62
517.99	27995.73
518.19	28513.87
518.39	28128.85
518.60	28616.27
518.80	28552.78
519.01	28718.67
519.21	28548.68
519.41	28726.86
519.62	28460.62
519.82	28835.40
520.03	29113.92
520.23	29038.15
520.43	28753.48
520.64	29734.46
520.84	29369.92
521.05	29210.18
521.25	29494.85
521.45	29388.35
521.66	29322.82
521.86	29603.39
522.07	29298.24
522.27	29468.22
522.47	29269.57
522.68	30035.51
522.88	29736.51
523.08	29863.48
523.29	30281.27
523.49	29863.48
523.70	30187.06
523.90	30225.97
524.10	30262.83
524.31	30719.53
524.51	30260.79
524.71	30594.61
524.92	30690.86
525.12	31292.96
525.33	30895.66
525.53	31069.73
525.73	31147.56
525.94	31145.51
526.14	31039.01
526.34	31254.05
526.55	31501.86
526.75	31182.37
526.95	31534.62
527.16	31254.05
527.36	31581.73
527.56	31630.88
527.77	31825.43
527.97	32036.38
528.17	32017.94
528.38	32134.68
528.58	31966.74
528.78	32241.17
528.99	31999.51
529.19	32683.53
529.39	31993.37
529.60	32402.96
529.80	32673.29
530.00	32689.68
530.21	33015.30
530.41	33093.13
530.61	32910.86
530.82	33162.76
531.02	32701.96
531.22	33007.11
531.43	33228.29
531.63	33502.72
531.83	33609.22
532.04	33611.26
532.24	33328.64
532.44	34205.17
532.64	34024.95
532.85	33967.61
533.05	33969.66
533.25	34377.20
533.46	33787.39
533.66	34582.00
533.86	34182.65
534.07	34745.84
534.27	34614.77
534.47	35114.47
534.67	34797.04
534.88	34694.64
535.08	34854.38
535.28	34854.38
535.49	35216.87
535.69	35657.18
535.89	35519.97
536.09	35481.06
536.30	35491.30
536.50	35476.96
536.70	35958.24
536.91	35630.56
537.11	35780.06
537.31	35925.47
537.51	36058.59
537.72	35915.23
537.92	36077.02
538.12	36720.08
538.32	36281.81
538.53	36808.14
538.73	36244.95
538.93	36740.56
539.13	36566.48
539.34	36242.90
539.54	36247.00
539.74	36509.14
539.94	36904.40
540.15	36599.25
540.35	37381.57
540.55	36808.14
540.75	37092.81
540.96	37211.59
541.16	36990.41
541.36	37238.22
541.56	37383.62
541.77	37930.43
541.97	37281.22
542.17	37471.68
542.37	37801.41
542.58	37645.76
542.78	37600.71
542.98	37481.92
543.18	37952.96
543.38	38333.88
543.59	38231.48
543.79	37959.10
543.99	38071.74
544.19	38405.56
544.40	38100.41
544.60	38251.96
544.80	38147.51
545.00	38301.11
545.20	38761.90
545.41	38618.55
545.61	38698.42
545.81	38606.26
546.01	39030.19
546.21	38811.06
546.42	38935.98
546.62	39036.33
546.82	39005.61
547.02	38847.92
547.22	38954.41
547.43	39161.26
547.63	39126.44
547.83	39331.24
548.03	39249.32
548.23	39001.52
548.44	39402.92
548.64	39241.13
548.84	39742.88
549.04	39337.38
549.24	39673.25
549.45	39986.59
549.65	39724.45
549.85	39867.81
550.05	39888.29
550.25	39738.79
550.45	40203.67
550.66	39726.50
550.86	40105.37
551.06	39970.21
551.26	40134.04
551.46	40633.75
551.66	40553.88
551.87	40342.94
552.07	40482.20
552.27	40396.18
552.47	40654.23
552.67	40398.23
552.87	40766.87
553.07	40193.43
553.28	40506.77
553.48	40691.09
553.68	40588.69
553.88	41194.89
554.08	40580.50
554.28	40875.41
554.48	40600.98
554.69	40883.60
554.89	41145.74
555.09	41448.84
555.29	40453.53
555.49	41260.43
555.69	41219.47
555.89	41029.01
556.10	41112.97
556.30	41035.15
556.50	41203.08
556.70	41205.13
556.90	41526.66
557.10	41549.19
557.30	40975.76
557.50	41272.71
557.70	41631.11
557.91	41469.32
558.11	41334.15
558.31	41809.28
558.51	41727.36
558.71	41915.78
558.91	42093.95
559.11	41541.00
559.31	41825.67
559.51	41641.35
559.72	41813.38
559.92	41774.47
560.12	41825.67
560.32	42374.52
560.52	42108.29
560.72	42098.05
560.92	42198.40
561.12	42116.48
561.32	42372.47
561.52	41792.90
561.72	42667.38
561.93	42245.50
562.13	42286.46
562.33	41954.69
562.53	42814.83
562.73	42116.48
562.93	42648.95
563.13	42511.74
563.33	42411.38
563.53	42747.25
563.73	42517.88
563.93	42931.57
564.13	43373.93
564.33	42786.16
564.53	42767.73
564.74	43240.81
564.94	42626.42
565.14	43181.42
565.34	42810.74
565.54	43236.72
565.74	43036.02
565.94	43423.08
566.14	42624.37
566.34	42933.62
566.54	43593.06
566.74	42837.36
566.94	43441.51
567.14	43554.15
567.34	43208.04
567.54	43935.07
567.74	43541.86
567.94	43421.03
568.14	43664.74
568.34	44000.61
568.54	43701.61
568.74	43560.30
568.94	43625.83
569.14	43863.39
569.34	43582.82
569.54	43941.22
569.75	43849.06
569.95	43586.92
570.15	44416.35
570.35	44238.17
570.55	44100.96
570.75	43984.22
570.95	44574.04
571.15	44539.22
571.35	44039.52
571.55	44500.31
571.75	44356.96
571.95	44701.01
572.15	44346.72
572.35	44389.72
572.55	44670.29
572.75	44887.38
572.95	44801.36
573.15	44897.62
573.35	44887.38
573.55	44447.07
573.75	44547.42
573.95	45147.47
574.15	44678.49
574.35	44889.43
574.55	44807.51
574.75	45002.07
574.95	45057.36
575.15	44983.63
575.34	45366.60
575.54	45458.76
575.74	45671.75
575.94	45219.15
576.14	45469.00
576.34	45735.24
576.54	45665.61
576.74	45663.56
576.94	45745.48
577.14	45983.04
577.34	46312.77
577.54	45591.88
577.74	46015.81
577.94	46298.43
578.14	46693.69
578.34	46208.32
578.54	45659.46
578.74	46032.19
578.94	46552.38
579.14	46757.17
579.34	46200.13
579.54	46587.19
579.74	46540.09
579.94	46855.48
580.13	46892.34
580.33	46785.85
580.53	47158.58
580.73	46835.00
580.93	46630.20
581.13	46984.50
581.33	47056.18
581.53	47117.62
581.73	47203.63
581.93	47377.71
582.13	47246.64
582.33	47516.97
582.53	47521.07
582.73	47418.67
582.92	47564.07
583.12	47754.54
583.32	47373.61
583.52	47764.78
583.72	47555.88
583.92	47615.27
584.12	47498.54
584.32	48575.77
584.52	48004.39
584.72	47832.36
584.92	48272.67
585.11	48512.28
585.31	48332.06
585.51	48422.17
585.71	47899.94
585.91	48526.62
586.11	48237.86
586.31	47967.52
586.51	48057.63
586.71	48502.04
586.91	48780.57
587.10	49055.00
587.30	48706.84
587.50	49077.52
587.70	48833.81
587.90	49235.22
588.10	49167.63
588.30	49173.78
588.50	49024.28
588.69	49274.13
588.89	48645.40
589.09	49368.33
589.29	49382.67
589.49	49198.35
589.69	48973.08
589.89	49571.08
590.08	49460.49
590.28	49517.84
590.48	49599.76
590.68	49650.95
590.88	49675.53
591.08	49003.80
591.28	49263.89
591.47	49745.16
591.67	49906.95
591.87	50128.13
592.07	49564.94
592.27	49886.47
592.47	49870.09
592.67	49782.02
592.86	49960.20
593.06	50320.64
593.26	50156.80
593.46	49890.57
593.66	50154.75
593.86	50230.53
594.05	50568.44
594.25	50971.89
594.45	50353.41
594.65	50443.52
594.85	49939.72
595.05	50701.56
595.24	50711.80
595.44	50267.39
595.64	50689.27
595.84	50521.34
596.04	50341.12
596.23	50943.22
596.43	51107.06
596.63	50787.58
596.83	50750.71
597.03	50930.93
597.22	51330.29
597.42	51049.72
597.62	51107.06
597.82	50961.65
598.02	51213.55
598.21	51692.78
598.41	50980.09
598.61	51733.74
598.81	51320.05
599.01	51182.84
599.20	51324.14
599.40	51574.00
599.60	51907.82
599.80	51533.04
600.00	51680.49
600.19	51926.25
600.39	51301.62
600.59	52264.16
600.79	51930.34
600.98	51633.39
601.18	51854.57
601.38	51870.95
601.58	52020.45
601.78	52200.68
601.97	52245.73
602.17	52309.22
602.37	52786.39
602.57	51883.24
602.76	52655.32
602.96	51729.64
603.16	52489.44
603.36	52090.09
603.55	52632.80
603.75	52313.31
603.95	52487.39
604.15	52583.65
604.34	52444.38
604.54	52684.00
604.74	52778.20
604.94	53064.92
605.13	52935.90
605.33	53308.63
605.53	52896.98
605.73	53232.85
605.92	52772.06
606.12	53120.21
606.32	53284.05
606.52	53552.33
606.71	52950.23
606.91	53181.65
607.11	52978.90
607.30	53220.56
607.50	53208.28
607.70	53384.40
607.90	53269.72
608.09	53130.45
608.29	53406.93
608.49	53456.08
608.68	53486.80
608.88	53882.06
609.08	53363.92
609.28	53533.90
609.47	53333.20
609.67	54039.75
609.87	53566.67
610.06	54234.31
610.26	53853.39
610.46	53720.27
610.66	53222.61
610.85	53654.73
611.05	53286.10
611.25	53646.54
611.44	53492.94
611.64	53935.30
611.84	54250.69
612.03	53888.20
612.23	54033.61
612.43	54052.04
612.62	53464.27
612.82	54193.35
613.02	53986.50
613.21	53974.22
613.41	53597.39
613.61	53996.74
613.80	53898.44
614.00	53726.41
614.20	53679.31
614.39	54029.51
614.59	54154.44
614.79	54248.64
614.98	54164.68
615.18	53910.73
615.38	53890.25
615.57	53441.74
615.77	53761.23
615.97	54027.46
616.16	53667.02
616.36	53679.31
616.56	54037.70
616.75	53824.71
616.95	53331.15
617.15	53992.65
617.34	54449.35
617.54	53867.72
617.74	54027.46
617.93	54060.23
618.13	53507.28
618.32	53988.55
618.52	53943.50
618.72	53830.86
618.91	54072.52
619.11	53550.29
619.31	54023.37
619.50	54066.38
619.70	53503.18
619.90	53931.21
620.09	54279.36
620.29	53828.81
620.48	53859.53
620.68	54320.32
620.88	53310.67
621.07	53814.47
621.27	54088.90
621.46	53929.16
621.66	53601.49
621.86	54097.09
622.05	53562.57
622.25	53845.19
622.44	53755.08
622.64	53753.04
622.84	53408.98
623.03	53910.73
623.23	53714.12
623.42	53419.22
623.62	54049.99
623.82	54027.46
624.01	53929.16
624.21	54041.80
624.40	54191.30
624.60	53679.31
624.80	53871.82
624.99	53902.54
625.19	53484.75
625.38	53693.64
625.58	53720.27
625.77	53839.05
625.97	54310.08
626.17	53662.93
626.36	53951.69
626.56	53769.42
626.75	53564.62
626.95	54043.85
627.14	53699.79
627.34	53955.78
627.54	53781.71
627.73	54256.84
627.93	53824.71
628.12	53552.33
628.32	53882.06
628.51	53753.04
628.71	53802.19
628.90	53707.98
629.10	53310.67
629.30	53415.12
629.49	53566.67
629.69	53748.94
629.88	53888.20
630.08	53927.11
630.27	53839.05
630.47	53933.26
630.66	53773.52
630.86	54176.97
631.05	53703.88
631.25	54136.01
631.44	54392.00
631.64	53896.39
631.84	53746.89
632.03	54142.15
632.23	53853.39
632.42	54275.27
632.62	54148.29
632.81	53689.55
633.01	53732.56
633.20	54006.98
633.40	54105.29
633.59	54176.97
633.79	53615.82
633.98	53540.05
634.18	53849.29
634.37	53800.14
634.57	54240.45
634.76	53830.86
634.96	54154.44
635.15	53923.02
635.35	54019.27
635.54	53775.56
635.74	54043.85
635.93	53961.93
636.13	54195.40
636.32	54379.71
636.52	53769.42
636.71	54121.67
636.91	54219.97
637.10	54602.94
637.30	54199.49
637.49	53931.21
637.69	54338.75
637.88	54408.39
638.08	54060.23
638.27	54437.06
638.46	54260.93
638.66	53957.83
638.85	54093.00
639.05	54371.52
639.24	54293.70
639.44	54176.97
639.63	54465.73
639.83	54625.47
640.02	54348.99
640.22	54084.81
640.41	54529.22
640.61	54103.24
640.80	54860.99
640.99	54211.78
641.19	54568.13
641.38	54584.51
641.58	54955.19
641.77	54473.92
641.97	54201.54
642.16	54654.14
642.36	54801.60
642.55	54881.47
642.74	54478.02
642.94	55299.25
643.13	54551.74
643.33	54932.67
643.52	55391.41
643.72	55559.34
643.91	55018.68
644.10	54701.25
644.30	55502.00
644.49	54934.71
644.69	54965.43
644.88	54949.05
645.08	54623.42
645.27	54903.99
645.46	54813.88
645.66	54957.24
645.85	54959.29
646.05	54955.19
646.24	55141.56
646.43	55444.66
646.63	54977.72
646.82	55289.01
647.02	55334.07
647.21	55377.08
647.40	55596.21
647.60	55649.45
647.79	55383.22
647.99	55583.92
648.18	55096.50
648.37	56300.71
648.57	55569.58
648.76	55377.08
648.96	55096.50
649.15	55727.28
649.34	55188.66
649.54	55760.05
649.73	54967.48
649.92	56087.72
650.12	55547.06
650.31	55456.95
650.51	55612.59
650.70	55909.55
650.89	55778.48
651.09	56265.89
651.28	56048.81
651.47	55940.27
651.67	55729.33
651.86	56450.21
652.06	55686.32
652.25	56280.23
652.44	55927.98
652.64	55653.55
652.83	55831.72
653.02	55385.27
653.22	55710.89
653.41	55438.51
653.60	55958.70
653.80	55456.95
653.99	56005.80
654.18	55755.95
654.38	56106.15
654.57	56181.93
654.76	56042.66
654.96	56163.50
655.15	55801.00
655.34	55784.62
655.54	55780.52
655.73	56206.50
655.92	56415.40
656.12	56190.12
656.31	56519.84
656.50	56188.07
656.70	56186.02
656.89	56126.63
657.08	56456.35
657.28	56655.01
657.47	56210.60
657.66	56460.45
657.86	56042.66
658.05	56597.66
658.24	56116.39
658.43	56323.24
658.63	56267.94
658.82	56915.10
659.01	56530.08
659.21	56169.64
659.40	56556.70
659.59	56597.66
659.79	56716.45
659.98	56849.56
660.17	56794.27
660.36	56698.01
660.56	56284.33
660.75	56505.51
660.94	56673.44
661.14	56425.64
661.33	56620.19
661.52	56220.84
661.71	56923.29
661.91	56224.93
662.10	56319.14
662.29	57179.29
662.49	56622.24
662.68	56503.46
662.87	56728.73
663.06	56532.13
663.26	56812.70
663.45	56673.44
663.64	56444.07
663.83	56853.66
664.03	57142.42
664.22	57136.28
664.41	56794.27
664.60	56358.05
664.80	57154.71
664.99	56693.92
665.18	56911.00
665.37	56595.62
665.57	57087.13
665.76	56804.51
665.95	56741.02
666.14	56831.13
666.34	56798.37
666.53	56556.70
666.72	56405.16
666.91	56685.73
667.11	56845.47
667.30	56915.10
667.49	56403.11
667.68	56603.81
667.87	56448.16
668.07	56710.30
668.26	56880.28
668.45	56667.30
668.64	56534.18
668.84	57402.52
669.03	56919.20
669.22	56736.93
669.41	56937.63
669.60	57017.50
669.80	56652.96
669.99	57480.34
670.18	57025.69
670.37	56972.44
670.57	56962.20
670.76	56712.35
670.95	57275.54
671.14	57097.37
671.33	56487.07
671.53	57189.53
671.72	56874.14
671.91	56906.91
672.10	56814.75
672.29	56849.56
672.48	56818.84
672.68	57103.51
672.87	56736.93
673.06	56890.52
673.25	57001.11
673.44	57134.23
673.64	56779.93
673.83	56386.72
674.02	56669.34
674.21	56229.03
674.40	56874.14
674.59	56644.77
674.79	56673.44
674.98	56388.77
675.17	56589.47
675.36	56794.27
675.55	56876.19
675.74	56474.79
675.94	56157.35
676.13	56695.97
676.32	56857.76
676.51	57365.65
676.70	56710.30
676.89	56431.78
677.08	56665.25
677.28	56255.65
677.47	56755.36
677.66	56698.01
677.85	56528.03
678.04	56802.46
678.23	56992.92
678.42	56745.12
678.62	56390.82
678.81	57449.62
679.00	56587.42
679.19	57123.99
679.38	56241.32
679.57	56738.97
679.76	56673.44
679.96	56650.91
680.15	56423.59
680.34	56665.25
680.53	56128.68
680.72	56464.55
680.91	56734.88
681.10	56280.23
681.29	57177.24
681.48	56472.74
681.68	56335.52
681.87	56124.58
682.06	56439.97
682.25	56136.87
682.44	56665.25
682.63	56489.12
682.82	56163.50
683.01	55948.46
683.20	55676.08
683.39	56263.85
683.59	56214.69
683.78	55700.65
683.97	55747.76
684.16	55702.70
684.35	55514.29
684.54	55960.75
684.73	56294.56
684.92	55923.88
685.11	56087.72
685.30	55721.13
685.49	56038.57
685.69	55817.39
685.88	56503.46
686.07	55923.88
686.26	55520.43
686.45	55522.48
686.64	55671.98
686.83	55540.91
687.02	56210.60
687.21	55516.34
687.40	55661.74
687.59	55841.96
687.78	55432.37
687.97	55669.93
688.16	55755.95
688.35	55702.70
688.54	55069.88
688.74	55497.91
688.93	55102.65
689.12	55198.90
689.31	55614.64
689.50	55596.21
689.69	55278.77
689.88	54858.94
690.07	55504.05
690.26	55186.61
690.45	55471.28
690.64	55192.76
690.83	55190.71
691.02	55211.19
691.21	55352.50
691.40	54957.24
691.59	55194.81
691.78	54832.32
691.97	55137.46
692.16	55131.32
692.35	55258.29
692.54	55018.68
692.73	55246.00
692.92	54508.74
693.11	55192.76
693.30	54789.31
693.49	54586.56
693.68	55016.63
693.87	54932.67
694.06	54232.26
694.25	54701.25
694.44	54521.02
694.63	54295.75
694.82	54604.99
695.01	54639.81
695.20	54412.48
695.39	54457.54
695.58	54498.50
695.77	53802.19
695.96	54301.89
696.15	54277.32
696.34	54420.67
696.53	54277.32
696.72	54287.56
696.91	54402.24
697.10	54703.29
697.29	54062.28
697.48	54551.74
697.67	54097.09
697.86	54064.33
698.05	53810.38
698.24	54324.42
698.43	53667.02
698.62	53986.50
698.81	53789.90
699.00	54355.14
699.19	53621.97
699.38	54338.75
699.57	53673.16
699.76	54387.91
699.95	54039.75
700.14	53664.97
700.32	53531.86
700.51	53482.70
700.70	53847.24
700.89	53953.74
701.08	53605.58
701.27	53449.94
701.46	53871.82
701.65	53060.82
701.84	53720.27
702.03	53177.56
702.22	53441.74
702.41	53251.28
702.60	53329.11
702.79	53581.01
702.98	53210.32
703.17	53273.81
703.35	52800.73
703.54	53173.46
703.73	53462.22
703.92	52954.33
704.11	52798.68
704.30	52401.38
704.49	52724.96
704.68	52671.71
704.87	53050.58
705.06	52616.41
705.25	52651.23
705.43	53009.62
705.62	52899.03
705.81	52821.21
706.00	52804.83
706.19	52460.77
706.38	52548.83
706.57	52337.89
706.76	52049.13
706.95	52434.14
707.14	52255.97
707.32	51950.82
707.51	51942.63
707.70	52403.42
707.89	52315.36
708.08	52018.41
708.27	52382.94
708.46	52565.21
708.65	52288.74
708.84	52380.90
709.02	52077.80
709.21	52376.80
709.40	52049.13
709.59	51993.83
709.78	51549.42
709.97	52104.42
710.16	51815.66
710.34	51844.33
710.53	51709.16
710.72	51508.46
710.91	51752.17
711.10	51662.06
711.29	51434.74
711.48	51926.25
711.66	51819.75
711.85	51533.04
712.04	51352.82
712.23	51324.14
712.42	51404.02
712.61	51313.90
712.80	51506.41
712.98	51553.52
713.17	50990.33
713.36	51156.21
713.55	51180.79
713.74	51281.14
713.93	51361.01
714.11	50902.26
714.30	50926.84
714.49	50853.11
714.68	50844.92
714.87	51240.18
715.06	51274.99
715.24	50779.39
715.43	51105.01
715.62	50861.30
715.81	50246.91
716.00	51086.58
716.18	50224.39
716.37	50068.74
716.56	50453.76
716.75	50881.78
716.94	50263.30
717.12	50484.48
717.31	50701.56
717.50	50431.23
717.69	50566.40
717.88	50341.12
718.06	50337.02
718.25	50650.36
718.44	50046.21
718.63	49968.39
718.82	49937.67
719.00	49919.24
719.19	50128.13
719.38	49839.37
719.57	49358.09
719.76	49116.43
719.94	49515.79
720.13	49411.34
720.32	49673.48
720.51	49044.76
720.69	49831.18
720.88	49542.41
721.07	48993.56
721.26	48614.68
721.44	48973.08
721.63	49011.99
721.82	49202.45
722.01	49157.39
722.20	49214.74
722.38	48919.83
722.57	48790.81
722.76	48776.47
722.95	48485.66
723.13	48016.68
723.32	48839.96
723.51	48514.33
723.70	48426.27
723.88	48491.80
724.07	48403.74
724.26	48266.53
724.44	47887.65
724.63	48569.63
724.82	48244.00
725.01	48448.80
725.19	48385.31
725.38	48022.82
725.57	48186.66
725.76	48567.58
725.94	48190.75
726.13	48160.03
726.32	47840.55
726.51	47994.15
726.69	48082.21
726.88	47609.13
727.07	47895.85
727.25	48147.75
727.44	48141.60
727.63	47576.36
727.82	47811.88
728.00	47949.09
728.19	47863.08
728.38	48461.08
728.56	47297.84
728.75	47842.60
728.94	47842.60
729.12	47932.71
729.31	48067.87
729.50	47650.09
729.69	47729.96
729.87	47621.42
730.06	47648.04
730.25	47795.49
730.43	48209.18
730.62	47129.90
730.81	47789.35
730.99	47570.22
731.18	47275.31
731.37	47512.88
731.55	47754.54
731.74	47693.10
731.93	47711.53
732.11	47867.17
732.30	47476.01
732.49	47340.85
732.67	47617.32
732.86	47572.27
733.05	47478.06
733.23	47695.14
733.42	47328.56
733.61	47148.34
733.79	47551.79
733.98	47721.77
734.17	47394.09
734.35	47551.79
734.54	47285.55
734.73	47926.56
734.91	47465.77
735.10	47021.36
735.29	47545.64
735.47	47105.33
735.66	47224.11
735.84	47467.82
736.03	47168.82
736.22	47877.41
736.40	47199.54
736.59	47131.95
736.78	47242.54
736.96	47189.30
737.15	47293.74
737.33	46796.09
737.52	47045.94
737.71	47072.56
737.89	46806.33
738.08	46830.90
738.27	46785.85
738.45	47330.61
738.64	47260.97
738.82	47144.24
739.01	46785.85
739.20	46814.52
739.38	46777.65
739.57	46902.58
739.75	46955.83
739.94	46656.82
740.13	47136.05
740.31	46683.45
740.50	46505.27
740.68	46533.95
740.87	47146.29
741.06	46650.68
741.24	46669.11
741.43	46198.08
741.61	47072.56
741.80	46484.79
741.99	46568.76
742.17	46660.92
742.36	46646.58
742.54	46579.00
742.73	46540.09
742.91	46597.43
743.10	46179.65
743.29	46785.85
743.47	46667.06
743.66	46232.89
743.84	46275.90
744.03	46288.19
744.21	46296.38
744.40	46069.06
744.59	45909.32
744.77	45886.79
744.96	46290.24
745.14	46370.11
745.33	46130.50
745.51	45999.43
745.70	46122.30
745.88	46234.94
746.07	46228.80
746.26	46085.44
746.44	45661.51
746.63	45753.67
746.81	46294.33
747.00	46019.91
747.18	46282.05
747.37	45929.80
747.55	45813.06
747.74	46298.43
747.92	45712.71
748.11	45946.18
748.29	45784.39
748.48	45890.88
748.66	45825.35
748.85	45636.94
749.03	45696.33
749.22	46097.73
749.41	45722.95
749.59	45614.41
749.78	45632.84
749.96	45249.87
750.15	45671.75
750.33	45215.05
750.52	45620.55
750.70	45120.85
750.89	45122.90
751.07	44739.93
751.26	45421.90
751.44	45346.12
751.63	44922.19
751.81	44832.08
752.00	45008.21
752.18	45036.88
752.37	45131.09
752.55	45186.38
752.74	45073.74
752.92	44846.42
753.10	44631.38
753.29	45278.54
753.47	45055.31
753.66	44590.42
753.84	44864.85
754.03	44694.87
754.21	44649.81
754.40	44559.70
754.58	44639.57
754.77	44500.31
754.95	44510.55
755.14	44508.50
755.32	44461.40
755.51	44320.09
755.69	44516.70
755.88	44430.68
756.06	44344.67
756.24	44563.80
756.43	44391.77
756.61	44369.24
756.80	44406.11
756.98	44594.52
757.17	44158.30
757.35	44651.86
757.54	44387.67
757.72	44332.38
757.90	43887.97
758.09	43883.87
758.27	44103.01
758.46	43724.13
758.64	43898.21
758.83	44528.98
759.01	44150.11
759.19	44129.63
759.38	44207.45
759.56	44705.11
759.75	43738.47
759.93	43861.35
760.12	43941.22
760.30	44193.12
760.48	43367.79
760.67	43957.60
760.85	43717.99
761.04	44406.11
761.22	43332.97
761.40	43611.49
761.59	43539.82
761.77	43429.23
761.96	43271.53
762.14	43627.88
762.32	43119.98
762.51	43076.97
762.69	43367.79
762.88	43289.96
763.06	43144.56
763.24	43259.24
763.43	43652.45
763.61	43103.60
763.80	43132.27
763.98	42978.67
764.16	42898.80
764.35	43072.88
764.53	42597.75
764.72	43193.71
764.90	42816.88
765.08	43046.26
765.27	42906.99
765.45	42749.30
765.63	42732.92
765.82	42909.04
766.00	42612.09
766.18	42847.60
766.37	42812.79
766.55	42646.90
766.74	43091.31
766.92	42415.48
767.10	42444.15
767.29	42280.31
767.47	42050.94
767.65	42147.20
767.84	42257.79
768.02	42050.94
768.20	41846.15
768.39	42372.47
768.57	42274.17
768.75	42390.91
768.94	42331.51
769.12	41905.54
769.30	41878.91
769.49	41817.47
769.67	42104.19
769.85	41670.02
770.04	41704.84
770.22	41784.71
770.40	41289.10
770.59	41479.56
770.77	41934.21
770.95	41594.25
771.14	41311.63
771.32	41172.36
771.50	40889.74
771.69	40979.85
771.87	41459.08
772.05	41487.75
772.24	41115.02
772.42	41512.33
772.60	41053.58
772.78	40957.33
772.97	40693.14
773.15	41317.77
773.33	40938.90
773.52	40936.85
773.70	41094.54
773.88	41532.81
774.07	40971.66
774.25	41315.72
774.43	41026.96
774.61	40988.05
774.80	41188.75
774.98	41155.98
775.16	41176.46
775.34	40850.83
775.53	40807.83
775.71	41311.63
775.89	41231.75
776.08	41280.91
776.26	41190.80
776.44	40861.07
776.62	40949.14
776.81	41098.64
776.99	41252.23
777.17	41002.38
777.35	41397.64
777.54	41698.69
777.72	40912.27
777.90	41117.07
778.08	41614.72
778.27	41645.44
778.45	42194.30
778.63	41719.17
778.81	41559.43
779.00	42061.18
779.18	41614.72
779.36	41833.86
779.54	41543.05
779.73	41182.60
779.91	41272.71
780.09	41584.01
780.27	41784.71
780.46	41592.20
780.64	41682.31
780.82	41518.47
781.00	41508.23
781.19	41631.11
781.37	42190.20
781.55	41911.68
781.73	42038.65
781.91	41541.00
782.10	41934.21
782.28	42036.61
782.46	42382.71
782.64	41991.55
782.82	41733.51
783.01	42222.97
783.19	42243.45
783.37	42087.81
783.55	41942.40
783.74	42091.90
783.92	41756.03
784.10	42450.30
784.28	42243.45
784.46	41989.50
784.64	42026.37
784.83	42098.05
785.01	42425.72
785.19	42288.51
785.37	42263.93
785.55	42218.88
785.74	41497.99
785.92	41264.52
786.10	42134.91
786.28	41719.17
786.46	41555.33
786.64	41764.23
786.83	41676.16
787.01	41964.93
787.19	41940.35
787.37	42130.81
787.55	41676.16
787.74	41334.15
787.92	41696.64
788.10	41373.06
788.28	41379.21
788.46	41246.09
788.64	41004.43
788.82	41786.75
789.01	41444.74
789.19	41665.92
789.37	41467.27
789.55	41444.74
789.73	40904.08
789.91	41170.32
790.09	40854.93
790.28	40949.14
790.46	40564.12
790.64	40875.41
790.82	40801.68
791.00	40916.37
791.18	40510.87
791.36	40770.96
791.55	40811.92
791.73	39861.66
791.91	40005.02
792.09	40455.57
792.27	40183.19
792.45	40117.66
792.63	40035.74
792.81	39863.71
793.00	39746.98
793.18	39771.55
793.36	39703.97
793.54	39740.83
793.72	39675.30
793.90	39280.04
794.08	39329.19
794.26	39433.64
794.44	39302.57
794.62	39030.19
794.81	39462.31
794.99	38911.41
795.17	38862.26
795.35	39267.75
795.53	39075.24
795.71	39081.39
795.89	38651.31
796.07	38507.96
796.25	38505.91
796.43	38028.73
796.61	38143.42
796.80	38167.99
796.98	38512.05
797.16	37969.34
797.34	38475.19
797.52	38067.64
797.70	38196.67
797.88	37670.34
798.06	37711.30
798.24	37893.57
798.42	37860.80
798.60	37488.07
798.78	37348.81
798.96	37316.04
799.14	37109.19
799.32	37090.76
799.51	36828.62
799.69	37424.58
799.87	37379.53
800.05	36675.02
800.23	36963.79
800.41	36406.74
800.59	36789.71
800.77	36519.38
800.95	36464.08
801.13	36562.39
801.31	36191.70
801.49	36314.58
801.67	36298.20
801.85	36101.59
802.03	35890.65
802.21	35536.35
802.39	35524.07
802.57	35560.93
802.75	35591.65
802.93	35522.02
803.11	35517.92
803.29	35628.51
803.47	35268.07
803.65	35075.56
803.83	35407.33
804.01	34895.34
804.19	34565.62
804.37	34762.22
804.55	34639.34
804.73	34641.39
804.91	34221.56
805.09	34604.53
805.27	34678.25
805.45	34733.55
805.63	34743.79
805.81	34653.68
805.99	34215.41
806.17	34659.82
806.35	34520.56
806.53	34121.21
806.71	34315.76
806.89	34461.17
807.07	34301.43
807.25	34037.24
807.43	33615.36
807.61	33998.33
807.79	33367.55
807.97	33416.71
808.15	33273.35
808.33	33525.25
808.51	33431.04
808.69	33166.85
808.87	32927.24
809.05	32689.68
809.23	32914.95
809.41	32650.77
809.59	32683.53
809.77	32769.55
809.95	32652.81
810.13	32898.57
810.31	32609.81
810.49	32527.89
810.67	32372.24
810.84	32589.33
811.02	32380.43
811.20	32304.66
811.38	32169.49
811.56	31845.91
811.74	32267.80
811.92	31647.26
812.10	32368.15
812.28	32116.25
812.46	31976.98
812.64	31645.21
812.82	31548.96
813.00	31702.56
813.18	31827.48
813.36	31829.53
813.53	31479.33
813.71	31569.44
813.89	31393.31
814.07	31292.96
814.25	31524.38
814.43	31067.69
814.61	31448.61
814.79	30932.52
814.97	31032.87
815.15	30699.05
815.33	30524.97
815.50	30856.75
815.68	31036.97
815.86	30961.19
816.04	30340.66
816.22	30629.42
816.40	30481.97
816.58	30068.28
816.76	30469.68
816.94	30697.00
817.11	30547.50
817.29	30225.97
817.47	29863.48
817.65	30025.27
817.83	30381.62
818.01	29896.25
818.19	29978.17
818.37	29879.86
818.54	29785.66
818.72	29636.16
818.90	29705.79
819.08	29998.65
819.26	29675.07
819.44	29150.79
819.62	29367.87
819.80	29673.02
819.97	29341.25
820.15	29441.60
820.33	29206.08
820.51	29361.73
820.69	29089.35
820.87	29359.68
821.05	29185.60
821.22	28925.51
821.40	29097.54
821.58	28855.88
821.76	28696.14
821.94	28833.35
822.12	29095.49
822.29	29091.40
822.47	28765.77
822.65	28964.42
822.83	28913.22
823.01	28819.02
823.19	28319.31
823.36	28341.84
823.54	28515.92
823.72	28075.60
823.90	28405.33
824.08	28567.12
824.25	28452.43
824.43	28374.61
824.61	28331.60
824.79	28010.07
824.97	27885.14
825.15	28751.43
825.32	27854.42
825.50	27809.37
825.68	27876.95
825.86	27967.06
826.04	27956.82
826.21	27874.90
826.39	27700.83
826.57	27975.25
826.75	27348.57
826.93	27332.19
827.10	27676.25
827.28	27797.08
827.46	27762.26
827.64	27358.81
827.81	27362.91
827.99	27592.28
828.17	27467.36
828.35	26754.66
828.53	27418.21
828.70	27031.14
828.88	27051.62
829.06	26887.78
829.24	27371.10
829.41	26947.17
829.59	27436.64
829.77	26658.41
829.95	27199.07
830.12	26926.69
830.30	26574.44
830.48	26900.07
830.66	27059.81
830.84	26654.31
831.01	26752.62
831.19	26672.74
831.37	26568.30
831.55	26707.56
831.72	26449.52
831.90	26488.43
832.08	26713.70
832.25	26453.61
832.43	26084.98
832.61	26472.04
832.79	26224.24
832.96	26355.31
833.14	26095.22
833.32	26529.39
833.50	26127.99
833.67	26181.23
833.85	26103.41
834.03	26066.55
834.20	26211.95
834.38	26095.22
834.56	26152.56
834.74	25671.29
834.91	25871.99
835.09	25591.42
835.27	25605.75
835.44	25570.94
835.62	25699.96
835.80	25679.48
835.98	25603.71
836.15	25636.47
836.33	25460.35
836.51	25556.60
836.68	25155.20
836.86	25230.98
837.04	25536.12
837.21	25646.71
837.39	25788.02
837.57	25636.47
837.75	25364.09
837.92	25099.90
838.10	25446.01
838.28	24968.84
838.45	25159.30
838.63	24995.46
838.81	25140.86
838.98	24872.58
839.16	24868.48
839.34	25112.19
839.51	24712.84
839.69	24790.66
839.87	24786.57
840.04	24919.68
840.22	24800.90
840.40	24737.41
840.57	24583.82
840.75	24669.83
840.93	24647.30
841.10	24622.73
841.28	24958.60
841.46	24385.16
841.63	24639.11
841.81	24471.18
841.98	24485.51
842.16	24266.38
842.34	24299.15
842.51	23852.69
842.69	24495.75
842.87	24295.05
843.04	24381.07
843.22	24254.09
843.40	24051.34
843.57	23873.17
843.75	23971.47
843.92	23873.17
844.10	24059.54
844.28	24233.61
844.45	24163.98
844.63	24168.08
844.81	24118.93
844.98	23920.28
845.16	23907.99
845.33	23697.05
845.51	23922.32
845.69	23727.77
845.86	23791.25
846.04	23580.31
846.21	23647.90
846.39	23238.30
846.57	23785.11
846.74	23697.05
846.92	23506.59
847.09	23479.96
847.27	23242.40
847.45	23359.13
847.62	23406.23
847.80	23668.37
847.97	23455.39
848.15	23377.56
848.32	23600.79
848.50	23176.86
848.68	22767.27
848.85	23043.74
849.03	23170.72
849.20	23260.83
849.38	22967.97
849.56	22943.39
849.73	22748.84
849.91	23076.51
850.08	23107.23
850.26	22662.82
850.43	22851.24
850.61	22888.10
850.78	22429.35
850.96	22795.94
851.14	22744.74
851.31	22585.00
851.49	22699.69
851.66	22845.09
851.84	22996.64
852.01	22693.54
852.19	22695.59
852.36	22675.11
852.54	22437.55
852.71	22503.08
852.89	22396.59
853.07	22486.70
853.24	22382.25
853.42	22496.94
853.59	22345.39
853.77	22533.80
853.94	22443.69
854.12	22746.79
854.29	22097.58
854.47	22179.50
854.64	22267.56
854.82	22046.38
854.99	22318.76
855.17	22187.69
855.34	22347.44
855.52	22245.04
855.69	22142.64
855.87	22013.62
856.04	21817.01
856.22	22163.12
856.39	21665.46
856.57	22007.47
856.74	21591.73
856.92	21804.72
857.09	21438.14
857.27	21608.12
857.44	21741.24
857.62	21690.04
857.79	21917.36
857.97	22009.52
858.14	21626.55
858.32	21563.06
858.49	21817.01
858.67	21735.09
858.84	21470.90
859.02	21604.02
859.19	21327.55
859.37	21149.37
859.54	21436.09
859.72	21395.13
859.89	21360.31
860.06	21409.47
860.24	21366.46
860.41	21423.80
860.59	21399.23
860.76	21055.17
860.94	20934.34
861.11	21182.14
861.29	21135.04
861.46	21423.80
861.64	20778.69
861.81	20995.78
861.98	21063.36
862.16	20700.87
862.33	20741.83
862.51	20868.80
862.68	21053.12
862.86	20997.82
863.03	20618.95
863.21	20629.19
863.38	20707.01
863.55	20641.48
863.73	20481.74
863.90	20831.94
864.08	20602.57
864.25	20539.08
864.43	20557.51
864.60	20590.28
864.77	20444.87
864.95	20352.71
865.12	20508.36
865.30	20528.84
865.47	20360.91
865.64	20258.51
865.82	20553.41
865.99	20541.13
866.17	20205.26
866.34	20586.18
866.51	20252.36
866.69	20299.47
866.86	20287.18
867.04	20266.70
867.21	20195.02
867.38	20217.55
867.56	19975.89
867.73	20016.85
867.91	19975.89
868.08	20229.84
868.25	19785.43
868.43	19883.73
868.60	19400.41
868.78	19850.96
868.95	20004.56
869.12	19656.40
869.30	19537.62
869.47	19875.54
869.64	19529.43
869.82	19584.73
869.99	19588.82
870.16	19810.00
870.34	19914.45
870.51	19404.50
870.69	19431.13
870.86	19447.51
871.03	19664.60
871.21	19429.08
871.38	19390.17
871.55	19263.19
871.73	19322.59
871.90	18966.24
872.07	19082.97
872.25	19056.35
872.42	19019.49
872.59	18980.57
872.77	19132.12
872.94	18898.66
873.11	18999.01
873.29	19433.18
873.46	18779.87
873.63	18771.68
873.81	18882.27
873.98	18804.45
874.15	18532.07
874.33	18446.05
874.50	18509.54
874.67	18503.40
874.85	18372.33
875.02	18579.17
875.19	18546.40
875.37	18312.94
875.54	18034.41
875.71	18276.07
875.88	18112.24
876.06	18286.31
876.23	18038.51
876.40	18075.37
876.58	18296.55
876.75	18321.13
876.92	18046.70
877.10	17981.17
877.27	18194.15
877.44	17891.06
877.61	17903.34
877.79	18118.38
877.96	17708.79
878.13	17854.19
878.31	17854.19
878.48	17766.13
878.65	17704.69
878.82	17680.11
879.00	17751.79
879.17	17643.25
879.34	17864.43
879.51	17596.15
879.69	17659.63
879.86	17653.49
880.03	17712.88
880.21	17352.44
880.38	17442.55
880.55	17360.63
880.72	17319.67
880.90	17319.67
881.07	17116.92
881.24	17331.96
881.41	17374.97
881.59	17356.54
881.76	17336.06
881.93	17180.41
882.10	17184.51
882.28	17086.20
882.45	17151.74
882.62	17131.26
882.79	17272.57
882.96	16940.80
883.14	17331.96
883.31	17252.09
883.48	17172.22
883.65	17088.25
883.83	17184.51
884.00	16981.76
884.17	16994.04
884.34	17037.05
884.51	16555.78
884.69	17139.45
884.86	16834.30
885.03	16783.10
885.20	16664.32
885.38	17047.29
885.55	16715.52
885.72	16477.96
885.89	16578.31
886.06	16559.88
886.24	16418.57
886.41	16434.95
886.58	16674.56
886.75	16779.01
886.92	16494.34
887.10	16588.55
887.27	16340.74
887.44	16510.72
887.61	16658.18
887.78	16641.79
887.95	16568.07
888.13	16324.36
888.30	16426.76
888.47	16465.67
888.64	16531.20
888.81	16215.82
888.99	16404.23
889.16	16375.56
889.33	16320.26
889.50	16121.61
889.67	16037.64
889.84	16207.62
890.01	16230.15
890.19	16117.51
890.36	16109.32
890.53	16008.97
890.70	15982.35
890.87	16049.93
891.04	16004.88
891.22	16158.47
891.39	15994.64
891.56	15990.54
891.73	15773.46
891.90	15832.85
892.07	15888.14
892.24	15793.94
892.42	15693.58
892.59	15998.73
892.76	15820.56
892.93	15611.67
893.10	15798.03
893.27	15539.99
893.44	15507.22
893.61	15363.86
893.79	15847.18
893.96	15468.31
894.13	15505.17
894.30	15494.93
894.47	15689.49
894.64	15757.07
894.81	15521.56
894.98	15630.10
895.15	15574.80
895.33	15361.81
895.50	15394.58
895.67	15443.73
895.84	15486.74
896.01	15525.65
896.18	15308.57
896.35	15453.97
896.52	15273.75
896.69	15200.02
896.86	15386.39
897.04	15478.55
897.21	15558.42
897.38	15288.09
897.55	15208.22
897.72	15597.33
897.89	15259.42
898.06	15458.07
898.23	15208.22
898.40	15310.61
898.57	15599.38
898.74	15400.72
898.91	15433.49
899.08	15531.80
899.26	15378.20
899.43	15308.57
899.60	15376.15
899.77	15343.38
899.94	15402.77
900.11	15259.42
900.28	15347.48
900.45	15175.45
900.62	15251.22
900.79	15435.54
900.96	15417.11
901.13	15400.72
901.30	15437.59
901.47	15191.83
901.64	15333.14
901.81	15677.20
901.98	15314.71
902.15	15451.92
902.32	15183.64
902.49	15417.11
902.66	15621.91
902.83	15150.87
903.01	15236.89
903.18	15380.25
903.35	15396.63
903.52	15327.00
903.69	15462.16
903.86	15433.49
904.03	15329.05
904.20	15275.80
904.37	15521.56
904.54	15111.96
904.71	15263.51
904.88	15310.61
905.05	15228.70
905.22	15150.87
905.39	15089.43
905.56	15355.67
905.73	15230.74
905.90	15283.99
906.07	15283.99
906.24	15306.52
906.41	15337.24
906.58	15492.88
906.75	15191.83
906.92	15130.39
907.09	15253.27
907.26	15281.94
907.43	15210.26
907.60	15224.60
907.77	15376.15
907.93	14964.51
908.10	15238.94
908.27	15361.81
908.44	14987.04
908.61	15038.23
908.78	14962.46
908.95	15040.28
909.12	14921.50
909.29	15234.84
909.46	14982.94
909.63	15187.74
909.80	15001.37
909.97	15083.29
910.14	14980.89
910.31	14995.23
910.48	15202.07
910.65	15111.96
910.82	14843.68
910.99	15019.80
911.16	14821.15
911.33	14829.34
911.50	14984.99
911.66	14733.09
911.83	14923.55
912.00	14815.01
912.17	14507.81
912.34	14757.66
912.51	14808.86
912.68	14704.42
912.85	14634.78
913.02	14733.09
913.19	14653.22
913.36	14839.58
913.53	14860.06
913.70	14485.28
913.86	14794.53
914.03	14827.29
914.20	14669.60
914.37	14595.87
914.54	14495.52
914.71	14559.01
914.88	14561.06
915.05	14524.19
915.22	14384.93
915.39	14429.99
915.55	14296.87
915.72	14255.91
915.89	14268.20
916.06	14128.94
916.23	14280.49
916.40	14010.15
916.57	13963.05
916.74	14339.88
916.91	14047.02
917.07	13895.47
917.24	13750.06
917.41	14026.54
917.58	13786.93
917.75	13829.93
917.92	13707.05
918.09	13709.10
918.26	13756.21
918.42	13850.41
918.59	13754.16
918.76	13610.80
918.93	13410.10
919.10	13588.27
919.27	13565.74
919.44	13631.28
919.60	13469.49
919.77	13608.75
919.94	13422.39
920.11	13494.07
920.28	13516.59
920.45	13266.74
920.61	13111.10
920.78	13369.14
920.95	13008.70
921.12	13098.81
921.29	12959.55
921.46	13084.47
921.62	12957.50
921.79	13082.42
921.96	12707.65
922.13	13053.75
922.30	13137.72
922.47	12703.55
922.63	12906.30
922.80	12654.40
922.97	12879.68
923.14	12535.62
923.31	12631.87
923.47	12363.59
923.64	12726.08
923.81	12443.46
923.98	12377.92
924.15	12336.96
924.32	12316.48
924.48	12189.51
924.65	12144.45
924.82	12193.61
924.99	12255.04
925.15	11999.05
925.32	12285.76
925.49	11894.60
925.66	11884.36
925.83	11933.51
925.99	11812.68
926.16	11898.70
926.33	11814.73
926.50	11652.94
926.67	11802.44
926.83	11665.23
927.00	11706.19
927.17	11800.40
927.34	11521.87
927.50	11464.53
927.67	11605.84
927.84	11437.91
928.01	11454.29
928.17	11386.71
928.34	11278.16
928.51	11091.80
928.68	10981.21
928.84	11136.85
929.01	10921.82
929.18	10858.33
929.35	10923.87
929.51	10964.82
929.68	10956.63
929.85	10680.16
930.02	10848.09
930.18	10594.14
930.35	10602.33
930.52	10817.37
930.69	10569.57
930.85	10714.97
931.02	10430.30
931.19	10594.14
931.36	10403.68
931.52	10424.16
931.69	10411.87
931.86	10291.04
932.02	10276.71
932.19	10352.48
932.36	10215.27
932.53	10317.67
932.69	10112.87
932.86	10229.60
933.03	9967.46
933.19	9740.14
933.36	9662.32
933.53	9942.89
933.70	9809.77
933.86	9817.96
934.03	9805.67
934.20	9375.60
934.36	9490.29
934.53	9375.60
934.70	9428.85
934.86	9283.44
935.03	9023.35
935.20	9287.54
935.36	9121.65
935.53	8961.91
935.70	8980.34
935.86	9023.35
936.03	9009.01
936.20	8667.00
936.36	8728.44
936.53	8671.10
936.70	8722.30
936.86	8710.01
937.03	8431.49
937.20	8277.89
937.36	8370.05
937.53	8200.07
937.70	8124.29
937.86	7786.38
938.03	8107.91
938.20	8007.56
938.36	7849.86
938.53	7767.95
938.70	7640.97
938.86	7612.30
939.03	7477.13
939.20	7462.80
939.36	7516.05
939.53	7301.01
939.70	7557.00
939.86	7075.73
940.03	7034.77
940.19	6975.38
940.36	6952.85
940.53	6795.16
940.69	6610.84
940.86	6868.89
941.03	6537.12
941.19	6432.67
941.36	6502.30
941.52	6530.97
941.69	6410.14
941.86	6340.51
942.02	6326.18
942.19	6184.87
942.35	6289.31
942.52	6164.39
942.69	6219.68
942.85	5824.42
943.02	5990.31
943.18	5840.81
943.35	5889.96
943.52	5738.41
943.68	5795.75
943.85	5892.01
944.01	5699.50
944.18	5615.53
944.35	5615.53
944.51	5539.76
944.68	5570.48
944.84	5461.93
945.01	5478.32
945.17	5504.94
945.34	5418.93
945.51	5394.35
945.67	5459.88
945.84	5529.52
946.00	5443.50
946.17	5408.69
946.33	5470.12
946.50	5466.03
946.67	5498.80
946.83	5337.01
947.00	5638.06
947.16	5351.34
947.33	5222.32
947.49	5285.81
947.66	5312.43
947.82	5443.50
947.99	5273.52
948.16	5418.93
948.32	5302.19
948.49	5294.00
948.65	5394.35
948.82	5568.43
948.98	5386.16
949.15	5320.62
949.31	5410.73
949.48	5337.01
949.64	5357.49
949.81	5488.56
949.97	5314.48
950.14	5541.80
950.30	5214.13
950.47	5492.65
950.63	5371.82
950.80	5300.14
950.96	5466.03
951.13	5427.12
951.30	5420.97
951.46	5449.64
951.63	5576.62
951.79	5433.26
951.96	5496.75
952.12	5402.54
952.29	5461.93
952.45	5318.57
952.62	5345.20
952.78	5463.98
952.94	5445.55
953.11	5261.23
953.27	5345.20
953.44	5590.95
953.60	5556.14
953.77	5506.99
953.93	5539.76
954.10	5496.75
954.26	5588.91
954.43	5576.62
954.59	5564.33
954.76	5449.64
954.92	5502.89
955.09	5468.08
955.25	5472.17
955.42	5617.58
955.58	5552.04
955.75	5478.32
955.91	5580.71
956.07	5511.08
956.24	5525.42
956.40	5607.34
956.57	5547.95
956.73	5519.28
956.90	5406.64
957.06	5572.52
957.23	5294.00
957.39	5326.77
957.56	5535.66
957.72	5445.55
957.88	5533.61
958.05	5580.71
958.21	5711.78
958.38	5449.64
958.54	5595.05
958.71	5566.38
958.87	5525.42
959.03	5396.40
959.20	5330.86
959.36	5490.60
959.53	5371.82
959.69	5468.08
959.85	5500.84
960.02	5437.36
960.18	5478.32
960.35	5480.36
960.51	5531.56
960.68	5511.08
960.84	5558.19
961.00	5435.31
961.17	5459.88
961.33	5588.91
961.50	5408.69
961.66	5451.69
961.82	5486.51
961.99	5486.51
962.15	5500.84
962.31	5386.16
962.48	5435.31
962.64	5597.10
962.81	5398.45
962.97	5390.25
963.13	5476.27
963.30	5433.26
963.46	5425.07
963.62	5406.64
963.79	5322.67
963.95	5402.54
964.12	5418.93
964.28	5441.45
964.44	5494.70
964.61	5496.75
964.77	5529.52
964.93	5480.36
965.10	5373.87
965.26	5373.87
965.42	5480.36
965.59	5318.57
965.75	5556.14
965.92	5457.84
966.08	5308.34
966.24	5513.13
966.41	5408.69
966.57	5351.34
966.73	5341.10
966.90	5394.35
967.06	5267.38
967.22	5230.51
967.39	5281.71
967.55	5230.51
967.71	5312.43
967.88	5308.34
968.04	5185.46
968.20	5117.87
968.37	5044.15
968.53	5203.89
968.69	5199.79
968.85	5214.13
969.02	5207.98
969.18	5216.18
969.34	5185.46
969.51	5236.66
969.67	5257.14
969.83	5279.66
970.00	5164.98
970.16	5214.13
970.32	5210.03
970.48	5121.97
970.65	5072.82
970.81	5019.57
970.97	5142.45
971.14	4966.32
971.30	5197.74
971.46	5152.69
971.63	5056.43
971.79	5152.69
971.95	4984.76
972.11	4929.46
972.28	4915.12
972.44	5001.14
972.60	5001.14
972.76	4954.04
972.93	4904.89
973.09	5052.34
973.25	4988.85
973.42	4841.40
973.58	5003.19
973.74	4863.93
973.90	4941.75
974.07	4974.52
974.23	4951.99
974.39	4804.53
974.55	4863.93
974.72	4945.84
974.88	4691.90
975.04	4851.64
975.20	4829.11
975.37	4782.01
975.53	4843.45
975.69	4802.49
975.85	4798.39
976.01	4708.28
976.18	4661.18
976.34	4689.85
976.50	4685.75
976.66	4794.29
976.83	4736.95
976.99	4657.08
977.15	4771.77
977.31	4532.15
977.47	4777.91
977.64	4661.18
977.80	4622.27
977.96	4624.31
978.12	4603.83
978.29	4624.31
978.45	4415.42
978.61	4491.20
978.77	4607.93
978.93	4573.11
979.10	4556.73
979.26	4605.88
979.42	4601.79
979.58	4472.76
979.74	4526.01
979.91	4605.88
980.07	4288.45
980.23	4495.29
980.39	4370.37
980.55	4425.66
980.71	4499.39
980.88	4472.76
981.04	4413.37
981.20	4374.46
981.36	4423.61
981.52	4433.85
981.68	4282.30
981.85	4394.94
982.01	4333.50
982.17	4370.37
982.33	4452.28
982.49	4362.17
982.65	4206.53
982.82	4321.21
982.98	4382.65
983.14	4202.43
983.30	4247.49
983.46	4440.00
983.62	4321.21
983.79	4175.81
983.95	4149.18
984.11	4173.76
984.27	4128.70
984.43	4198.34
984.59	4202.43
984.75	4231.10
984.91	4116.42
985.08	4116.42
985.24	3985.35
985.40	4091.84
985.56	4007.87
985.72	4159.42
985.88	4136.90
986.04	4108.23
986.20	4034.50
986.37	4110.27
986.53	3964.87
986.69	4059.07
986.85	3993.54
987.01	3981.25
987.17	4106.18
987.33	3993.54
987.49	3938.24
987.65	4155.33
987.82	3911.62
987.98	3895.24
988.14	3952.58
988.30	3866.56
988.46	3885.00
988.62	3837.89
988.78	3866.56
988.94	3854.28
989.10	3952.58
989.26	3809.22
989.42	3944.39
989.59	3870.66
989.75	3948.48
989.91	3958.72
990.07	3768.26
990.23	3772.36
990.39	3755.97
990.55	3852.23
990.71	3776.45
990.87	3948.48
991.03	3721.16
991.19	3661.77
991.35	3735.50
991.51	3786.69
991.67	3819.46
991.83	3739.59
992.00	3774.41
992.16	3809.22
992.32	3688.39
992.48	3696.58
992.64	3592.14
992.80	3710.92
992.96	3688.39
993.12	3688.39
993.28	3680.20
993.44	3653.58
993.60	3641.29
993.76	3655.62
993.92	3620.81
994.08	3721.16
994.24	3639.24
994.40	3633.10
994.56	3678.15
994.72	3530.70
994.88	3567.56
995.04	3499.98
995.20	3567.56
995.36	3452.88
995.52	3610.57
995.68	3594.19
995.84	3342.28
996.00	3563.47
996.16	3479.50
996.32	3467.21
996.48	3350.48
996.64	3590.09
996.80	3420.11
996.96	3428.30
997.12	3405.77
997.28	3381.20
997.44	3420.11
997.60	3364.81
997.76	3301.33
997.92	3338.19
998.08	3403.72
998.24	3325.90
998.40	3377.10
998.56	3385.29
998.72	3286.99
998.88	3325.90
999.04	3194.83
999.20	3444.68
999.36	3250.13
999.52	3418.06
999.68	3229.65
999.84	3248.08
1000.00	3340.24
1000.16	3379.15
1000.32	3190.74
1000.48	3377.10
1000.64	3139.54
1000.80	3168.21
1000.95	3035.09
1001.11	3198.93
1001.27	3096.53
1001.43	3262.41
1001.59	3076.05
1001.75	3108.82
1001.91	3172.30
1002.07	3088.34
1002.23	3102.67
1002.39	3112.91
1002.55	3160.02
1002.71	3172.30
1002.87	3049.43
1003.03	2979.79
1003.19	3059.67
1003.34	3145.68
1003.50	2942.93
1003.66	3182.54
1003.82	3065.81
1003.98	3059.67
1004.14	3024.85
1004.30	3084.24
1004.46	3018.71
1004.62	3067.86
1004.78	2908.12
1004.94	3049.43
1005.09	3071.95
1005.25	3108.82
1005.41	3057.62
1005.57	2901.97
1005.73	2940.88
1005.89	2953.17
1006.05	3039.19
1006.21	2942.93
1006.37	2789.33
1006.52	2867.16
1006.68	2801.62
1006.84	2944.98
1007.00	2910.16
1007.16	2877.40
1007.32	2883.54
1007.48	2920.40
1007.64	2883.54
1007.79	2934.74
1007.95	2858.96
1008.11	2854.87
1008.27	2787.29
1008.43	2803.67
1008.59	2766.81
1008.75	2883.54
1008.91	2703.32
1009.06	2811.86
1009.22	2871.25
1009.38	2772.95
1009.54	2701.27
1009.70	2715.61
1009.86	2770.90
1010.01	2873.30
1010.17	2805.72
1010.33	2805.72
1010.49	2740.18
1010.65	2813.91
1010.81	2826.20
1010.96	2793.43
1011.12	2697.17
1011.28	2666.46
1011.44	2762.71
1011.60	2727.89
1011.76	2711.51
1011.91	2711.51
1012.07	2688.98
1012.23	2598.87
1012.39	2633.69
1012.55	2783.19
1012.71	2709.46
1012.86	2650.07
1013.02	2631.64
1013.18	2510.81
1013.34	2643.93
1013.50	2709.46
1013.65	2781.14
1013.81	2506.71
1013.97	2553.82
1014.13	2582.49
1014.29	2580.44
1014.44	2707.41
1014.60	2545.63
1014.76	2566.10
1014.92	2564.06
1015.07	2557.91
1015.23	2611.16
1015.39	2484.19
1015.55	2471.90
1015.71	2543.58
1015.86	2408.41
1016.02	2506.71
1016.18	2443.23
1016.34	2500.57
1016.49	2445.27
1016.65	2564.06
1016.81	2463.71
1016.97	2471.90
1017.12	2519.00
1017.28	2430.94
1017.44	2387.93
1017.60	2482.14
1017.75	2539.48
1017.91	2451.42
1018.07	2404.32
1018.23	2426.84
1018.38	2367.45
1018.54	2424.80
1018.70	2426.84
1018.86	2502.62
1019.01	2439.13
1019.17	2285.53
1019.33	2443.23
1019.49	2344.92
1019.64	2430.94
1019.80	2349.02
1019.96	2379.74
1020.12	2414.56
1020.27	2281.44
1020.43	2318.30
1020.59	2418.65
1020.74	2420.70
1020.90	2367.45
1021.06	2207.71
1021.22	2371.55
1021.37	2387.93
1021.53	2269.15
1021.69	2265.05
1021.84	2252.77
1022.00	2387.93
1022.16	2260.96
1022.31	2289.63
1022.47	2297.82
1022.63	2322.40
1022.79	2213.85
1022.94	2242.53
1023.10	2387.93
1023.26	2220.00
1023.41	2211.81
1023.57	2189.28
1023.73	2303.96
1023.88	2293.72
1024.04	2160.61
1024.20	2174.94
1024.35	2220.00
1024.51	2256.86
1024.67	2273.25
1024.82	2246.62
1024.98	2215.90
1025.14	2176.99
1025.29	2150.37
1025.45	2283.49
1025.61	2168.80
1025.76	2256.86
1025.92	2250.72
1026.08	2256.86
1026.23	2150.37
1026.39	2217.95
1026.55	2291.68
1026.70	2158.56
1026.86	2156.51
1027.02	2246.62
1027.17	2187.23
1027.33	2176.99
1027.48	2127.84
1027.64	2115.55
1027.80	2117.60
1027.95	2224.09
1028.11	2054.11
1028.27	2131.94
1028.42	2187.23
1028.58	2080.74
1028.73	2052.06
1028.89	2082.78
1029.05	2168.80
1029.20	2183.13
>>>>>End Processed Spectral Data<<<<<
