SpectraSuite Data File
++++++++++++++++++++++++++++++++++++
Date: Fri Jun 02 14:49:25 CEST 2017
User: INFO_000
Dark Spectrum Present: No
Reference Spectrum Present: No
Number of Sampled Component Spectra: 1
Spectrometers: USB4H00879
Integration Time (usec): 80000 (USB4H00879)
Spectra Averaged: 1 (USB4H00879)
Boxcar Smoothing: 0 (USB4H00879)
Correct for Electrical Dark: No (USB4H00879)
Strobe/Lamp Enabled: No (USB4H00879)
Correct for Detector Non-linearity: No (USB4H00879)
Correct for Stray Light: No (USB4H00879)
Number of Pixels in Processed Spectrum: 3648
>>>>>Begin Processed Spectral Data<<<<<
345.13	1241.07
345.34	1241.07
345.56	1241.07
345.78	1261.55
345.99	1286.12
346.21	1699.81
346.42	1720.29
346.64	1677.29
346.86	1812.45
347.07	1648.61
347.29	1720.29
347.50	1560.55
347.72	1656.81
347.94	1720.29
348.15	1513.45
348.37	1658.85
348.59	1775.59
348.80	1662.95
349.02	1753.06
349.23	1828.84
349.45	1767.40
349.67	1806.31
349.88	1843.17
350.10	1896.42
350.31	1785.83
350.53	1822.69
350.75	1937.38
350.96	1746.92
351.18	1857.51
351.39	1935.33
351.61	1785.83
351.82	1931.23
352.04	1920.99
352.26	1796.07
352.47	1894.37
352.69	1875.94
352.90	1847.27
353.12	1843.17
353.34	1898.47
353.55	1888.23
353.77	1910.75
353.98	1845.22
354.20	1828.84
354.41	1871.84
354.63	1957.86
354.85	2027.49
355.06	1920.99
355.28	1744.87
355.49	1857.51
355.71	1961.95
355.92	1824.74
356.14	1980.39
356.35	1988.58
356.57	1865.70
356.79	1918.95
357.00	1855.46
357.22	1927.14
357.43	1769.44
357.65	1957.86
357.86	1894.37
358.08	1843.17
358.29	1955.81
358.51	1968.10
358.72	2017.25
358.94	1873.89
359.16	1966.05
359.37	1986.53
359.59	1880.04
359.80	2056.16
360.02	1859.56
360.23	1935.33
360.45	2043.87
360.66	1869.80
360.88	1834.98
361.09	1964.00
361.31	1968.10
361.52	1937.38
361.74	2007.01
361.95	2072.54
362.17	1931.23
362.38	2093.02
362.60	2068.45
362.81	2101.22
363.03	1933.28
363.24	1927.14
363.46	2117.60
363.67	2027.49
363.89	2033.63
364.10	2013.15
364.32	1990.63
364.53	2035.68
364.75	1884.13
364.96	1982.43
365.18	1986.53
365.39	1990.63
365.61	1961.95
365.82	2050.02
366.04	1998.82
366.25	1849.32
366.47	2025.44
366.68	2060.26
366.90	2027.49
367.11	2043.87
367.33	2035.68
367.54	2072.54
367.76	2017.25
367.97	2072.54
368.19	2021.35
368.40	2117.60
368.62	1970.15
368.83	1961.95
369.05	2088.93
369.26	2090.98
369.48	2068.45
369.69	1923.04
369.91	2090.98
370.12	2082.78
370.33	2076.64
370.55	1978.34
370.76	2000.87
370.98	2168.80
371.19	2037.73
371.41	2062.30
371.62	2109.41
371.84	2013.15
372.05	2150.37
372.27	2054.11
372.48	2029.54
372.69	2111.46
372.91	2123.74
373.12	2123.74
373.34	2043.87
373.55	2064.35
373.77	2140.13
373.98	2084.83
374.20	2133.98
374.41	2228.19
374.62	2109.41
374.84	2123.74
375.05	2236.38
375.27	2183.13
375.48	2183.13
375.70	2193.37
375.91	2179.04
376.12	2312.16
376.34	2090.98
376.55	2217.95
376.77	2207.71
376.98	2072.54
377.19	2095.07
377.41	2101.22
377.62	2158.56
377.84	2236.38
378.05	2312.16
378.27	2150.37
378.48	2387.93
378.69	2398.17
378.91	2310.11
379.12	2248.67
379.34	2336.73
379.55	2303.96
379.76	2242.53
379.98	2230.24
380.19	2260.96
380.41	2199.52
380.62	2281.44
380.83	2236.38
381.05	2113.50
381.26	2316.25
381.47	2254.81
381.69	2217.95
381.90	2412.51
382.12	2222.05
382.33	2220.00
382.54	2170.85
382.76	2330.59
382.97	2287.58
383.19	2248.67
383.40	2394.08
383.61	2320.35
383.83	2320.35
384.04	2412.51
384.25	2439.13
384.47	2447.32
384.68	2363.36
384.89	2312.16
385.11	2324.44
385.32	2240.48
385.54	2316.25
385.75	2385.88
385.96	2494.43
386.18	2369.50
386.39	2367.45
386.60	2385.88
386.82	2469.85
387.03	2445.27
387.24	2498.52
387.46	2445.27
387.67	2506.71
387.88	2435.03
388.10	2459.61
388.31	2435.03
388.52	2582.49
388.74	2506.71
388.95	2502.62
389.16	2613.21
389.38	2490.33
389.59	2668.50
389.80	2555.86
390.02	2508.76
390.23	2613.21
390.44	2637.78
390.66	2553.82
390.87	2568.15
391.08	2697.17
391.30	2650.07
391.51	2668.50
391.72	2600.92
391.94	2705.37
392.15	2584.54
392.36	2600.92
392.58	2625.50
392.79	2736.09
393.00	2779.09
393.22	2723.80
393.43	2629.59
393.64	2789.33
393.85	2844.63
394.07	2717.65
394.28	2858.96
394.49	2766.81
394.71	2785.24
394.92	2768.85
395.13	2750.42
395.35	2744.28
395.56	2799.57
395.77	2840.53
395.98	2834.39
396.20	2920.40
396.41	2891.73
396.62	2826.20
396.84	2828.24
397.05	2818.00
397.26	2830.29
397.47	2912.21
397.69	2856.92
397.90	2994.13
398.11	2969.55
398.32	2899.92
398.54	2840.53
398.75	2899.92
398.96	2910.16
399.18	3090.38
399.39	2971.60
399.60	2961.36
399.81	2957.27
400.03	2893.78
400.24	3213.26
400.45	2865.11
400.66	2998.23
400.88	2947.03
401.09	3137.49
401.30	3074.00
401.51	3157.97
401.73	3133.39
401.94	3139.54
402.15	3121.10
402.36	3166.16
402.58	3194.83
402.79	3231.69
403.00	3067.86
403.21	3313.61
403.43	3223.50
403.64	3307.47
403.85	3194.83
404.06	3106.77
404.27	3055.57
404.49	3219.41
404.70	3207.12
404.91	3299.28
405.12	3119.06
405.34	3200.98
405.55	3346.38
405.76	3153.87
405.97	3176.40
406.19	3264.46
406.40	3260.37
406.61	3311.57
406.82	3405.77
407.03	3184.59
407.25	3237.84
407.46	3284.94
407.67	3397.58
407.88	3321.81
408.09	3276.75
408.31	3346.38
408.52	3301.33
408.73	3321.81
408.94	3352.52
409.15	3409.87
409.37	3336.14
409.58	3444.68
409.79	3397.58
410.00	3393.48
410.21	3332.05
410.43	3389.39
410.64	3270.61
410.85	3534.79
411.06	3448.78
411.27	3481.55
411.48	3522.51
411.70	3594.19
411.91	3520.46
412.12	3715.02
412.33	3465.16
412.54	3428.30
412.76	3614.66
412.97	3563.47
413.18	3495.88
413.39	3626.95
413.60	3710.92
413.81	3717.06
414.03	3692.49
414.24	3479.50
414.45	3878.85
414.66	3588.04
414.87	3796.93
415.08	3641.29
415.30	3583.95
415.51	3747.78
415.72	3700.68
415.93	3794.89
416.14	3786.69
416.35	3788.74
416.56	3692.49
416.78	3891.14
416.99	3696.58
417.20	3770.31
417.41	3807.17
417.62	3944.39
417.83	3899.33
418.04	3827.65
418.26	3915.72
418.47	3848.13
418.68	3919.81
418.89	3885.00
419.10	4081.60
419.31	3999.68
419.52	4149.18
419.73	3887.04
419.95	4032.45
420.16	3852.23
420.37	4165.57
420.58	3966.92
420.79	3819.46
421.00	3971.01
421.21	4140.99
421.42	3899.33
421.63	4083.65
421.85	3958.72
422.06	4222.91
422.27	4167.62
422.48	4061.12
422.69	4282.30
422.90	4261.82
423.11	4204.48
423.32	4132.80
423.53	4390.84
423.75	4315.07
423.96	4435.90
424.17	4450.24
424.38	4370.37
424.59	4403.13
424.80	4526.01
425.01	4478.91
425.22	4261.82
425.43	4368.32
425.64	4589.50
425.85	4622.27
426.06	4603.83
426.28	4530.11
426.49	4507.58
426.70	4575.16
426.91	4626.36
427.12	4616.12
427.33	4720.57
427.54	4566.97
427.75	4741.05
427.96	4767.67
428.17	4794.29
428.38	4757.43
428.59	4890.55
428.80	4775.86
429.01	4902.84
429.23	4845.49
429.44	4876.21
429.65	5009.33
429.86	4904.89
430.07	4890.55
430.28	4839.35
430.49	4945.84
430.70	5078.96
430.91	5060.53
431.12	5056.43
431.33	5189.55
431.54	5064.63
431.75	5128.11
431.96	5058.48
432.17	5191.60
432.38	5136.31
432.59	5275.57
432.80	5271.47
433.01	5203.89
433.22	5144.50
433.43	5334.96
433.64	5390.25
433.85	5218.22
434.06	5474.22
434.27	5289.90
434.49	5367.73
434.70	5357.49
434.91	5433.26
435.12	5380.01
435.33	5451.69
435.54	5402.54
435.75	5302.19
435.96	5377.97
436.17	5275.57
436.38	5547.95
436.59	5519.28
436.80	5552.04
437.01	5824.42
437.22	5697.45
437.43	5646.25
437.64	5406.64
437.85	5640.11
438.06	5687.21
438.27	5560.24
438.48	5679.02
438.69	5846.95
438.90	5719.98
439.11	5597.10
439.32	5754.79
439.53	5705.64
439.74	5752.74
439.95	5771.18
440.16	5922.73
440.37	5691.31
440.57	5705.64
440.78	5842.85
440.99	5939.11
441.20	5822.38
441.41	5760.94
441.62	6070.18
441.83	5742.50
442.04	6117.28
442.25	5959.59
442.46	5941.16
442.67	6053.80
442.88	6410.14
443.09	5961.64
443.30	5957.54
443.51	6049.70
443.72	6277.02
443.93	6037.41
444.14	6289.31
444.35	6057.89
444.56	6266.78
444.77	6234.02
444.98	6262.69
445.19	6166.43
445.40	6330.27
445.61	6197.15
445.81	6309.79
446.02	6436.77
446.23	6168.48
446.44	6315.94
446.65	6393.76
446.86	6414.24
447.07	6416.29
447.28	6508.44
447.49	6514.59
447.70	6490.01
447.91	6614.94
448.12	6573.98
448.33	6535.07
448.54	6668.19
448.74	6576.03
448.95	6616.99
449.16	6612.89
449.37	6811.54
449.58	6672.28
449.79	6959.00
450.00	6756.25
450.21	6801.30
450.42	6870.94
450.63	6938.52
450.84	6987.67
451.05	6856.60
451.25	7002.01
451.46	6809.50
451.67	7128.98
451.88	7233.43
452.09	6975.38
452.30	6860.70
452.51	7227.28
452.72	7288.72
452.93	7542.67
453.13	7128.98
453.34	7266.19
453.55	7155.60
453.76	7229.33
453.97	7589.77
454.18	7198.61
454.39	7401.36
454.60	7489.42
454.81	7462.80
455.01	7671.69
455.22	7323.54
455.43	7587.72
455.64	7726.99
455.85	7866.25
456.06	7769.99
456.27	7706.51
456.48	7700.36
456.68	7794.57
456.89	7864.20
457.10	7966.60
457.31	7950.21
457.52	8017.80
457.73	8040.33
457.94	8218.50
458.14	8056.71
458.35	8408.96
458.56	7921.54
458.77	8152.96
458.98	8296.32
459.19	8324.99
459.39	8525.69
459.60	8329.09
459.81	8312.71
460.02	8556.41
460.23	8476.54
460.44	8728.44
460.65	8667.00
460.85	8861.56
461.06	8658.81
461.27	8421.25
461.48	8867.70
461.69	8945.53
461.89	8544.13
462.10	8836.99
462.31	8607.61
462.52	8673.15
462.73	8871.80
462.94	9205.62
463.14	8925.05
463.35	9033.59
463.56	9564.01
463.77	9402.22
463.98	9250.67
464.18	9267.06
464.39	9578.35
464.60	9564.01
464.81	9834.35
465.02	9480.05
465.23	9744.24
465.43	9496.43
465.64	9682.80
465.85	9844.59
466.06	9697.13
466.27	10301.28
466.47	10057.57
466.68	10137.45
466.89	10071.91
467.10	10209.12
467.30	9867.11
467.51	10317.67
467.72	10332.00
467.93	10129.25
468.14	10366.82
468.34	10659.68
468.55	10274.66
468.76	10696.54
468.97	10483.55
469.17	10843.99
469.38	10782.56
469.59	10966.87
469.80	10661.73
470.01	10790.75
470.21	10903.39
470.42	11206.48
470.63	11157.33
470.84	11044.70
471.04	11222.87
471.25	11501.39
471.46	11335.51
471.67	11388.75
471.87	11435.86
472.08	11712.33
472.29	11456.34
472.50	11497.30
472.70	11472.72
472.91	11630.41
473.12	11722.57
473.33	11851.60
473.53	12023.62
473.74	12177.22
473.95	12111.69
474.16	12173.13
474.36	12066.63
474.57	12396.35
474.78	12701.50
474.99	12408.64
475.19	12496.71
475.40	12623.68
475.61	12760.89
475.81	13170.49
476.02	13129.53
476.23	12908.35
476.44	12965.69
476.64	13358.90
476.85	13473.59
477.06	12996.41
477.27	13379.38
477.47	13672.24
477.68	13553.46
477.89	13795.12
478.09	13737.77
478.30	13682.48
478.51	13649.71
478.71	13903.66
478.92	14176.04
479.13	14087.98
479.34	14266.15
479.54	14409.51
479.75	14362.40
479.96	14294.82
480.16	14665.50
480.37	14743.33
480.58	14724.90
480.78	14862.11
480.99	14866.21
481.20	15079.19
481.41	15189.78
481.61	15277.85
481.82	15292.18
482.03	15273.75
482.23	15234.84
482.44	15712.02
482.65	15626.00
482.85	15834.89
483.06	15496.98
483.27	15707.92
483.47	15888.14
483.68	16054.03
483.89	15994.64
484.09	16230.15
484.30	16072.46
484.51	16508.68
484.71	16482.05
484.92	16420.61
485.13	16629.51
485.33	16375.56
485.54	16637.70
485.75	16963.33
485.95	17084.16
486.16	17051.39
486.37	17250.04
486.57	17139.45
486.78	17161.98
486.98	17114.87
487.19	17348.34
487.40	17710.83
487.60	17647.35
487.81	17872.62
488.02	17825.52
488.22	17671.92
488.43	17880.82
488.64	17925.87
488.84	18308.84
489.05	18353.90
489.25	18179.82
489.46	18171.63
489.67	18716.39
489.87	18695.91
490.08	18876.13
490.29	18552.55
490.49	19091.16
490.70	18980.57
490.90	19158.75
491.11	19320.54
491.32	19150.56
491.52	19517.14
491.73	19621.59
491.94	19443.42
492.14	19308.25
492.35	19764.95
492.55	19799.76
492.76	19834.58
492.97	20154.06
493.17	20209.36
493.38	20207.31
493.58	20416.20
493.79	20496.07
494.00	20477.64
494.20	20661.96
494.41	20506.31
494.61	20836.03
494.82	20836.03
495.02	20856.51
495.23	20991.68
495.44	21034.69
495.64	21130.94
495.85	21046.97
496.05	21300.92
496.26	21307.07
496.47	21503.67
496.67	21454.52
496.88	21802.68
497.08	21601.97
497.29	21943.99
497.49	21669.56
497.70	21780.15
497.91	22283.95
498.11	22273.71
498.32	22019.76
498.52	22384.30
498.73	22658.73
498.93	22353.58
499.14	22525.61
499.34	22464.17
499.55	22826.66
499.76	22779.56
499.96	22906.53
500.17	22865.57
500.37	23121.57
500.58	23039.65
500.78	23365.28
500.99	23674.52
501.19	23545.50
501.40	23617.18
501.60	23156.38
501.81	23592.60
502.02	23578.26
502.22	23471.77
502.43	23883.41
502.63	24055.44
502.84	24184.46
503.04	23977.62
503.25	24264.33
503.45	23910.04
503.66	24534.67
503.86	24149.65
504.07	24594.06
504.27	24309.39
504.48	24833.67
504.68	24745.61
504.89	25032.32
505.09	25110.14
505.30	25183.87
505.50	25091.71
505.71	25151.10
505.91	25491.07
506.12	25310.85
506.32	25462.40
506.53	25468.54
506.73	25456.25
506.94	25403.00
507.14	25378.43
507.35	25777.78
507.55	25773.69
507.76	26019.44
507.96	25570.94
508.17	25882.23
508.37	25626.23
508.58	26023.54
508.78	25763.45
508.99	26173.04
509.19	26183.28
509.40	26154.61
509.60	26166.90
509.81	26404.46
510.01	26275.44
510.22	26203.76
510.42	26414.70
510.63	26820.20
510.83	26576.49
511.04	26728.04
511.24	26560.11
511.44	26658.41
511.65	26775.14
511.85	26682.98
512.06	26773.10
512.26	26711.66
512.47	27037.28
512.67	27121.25
512.88	27356.77
513.08	27215.46
513.29	27315.81
513.49	27428.45
513.69	27328.10
513.90	27182.69
514.10	27590.24
514.31	27534.94
514.51	27354.72
514.72	27504.22
514.92	27432.54
515.13	27536.99
515.33	27887.19
515.53	27635.29
515.74	27504.22
515.94	28128.85
516.15	28038.74
516.35	27559.52
516.56	28059.22
516.76	27711.07
516.96	28151.38
517.17	28374.61
517.37	28018.26
517.58	28100.18
517.78	28235.35
517.99	28350.03
518.19	28360.27
518.39	28368.46
518.60	28667.47
518.80	28745.29
519.01	28649.03
519.21	28667.47
519.41	28874.31
519.62	28356.18
519.82	29062.72
520.03	29017.67
520.23	28884.55
520.43	28923.46
520.64	29130.31
520.84	29089.35
521.05	28943.94
521.25	29292.10
521.45	29247.04
521.66	29541.95
521.86	29482.56
522.07	29357.63
522.27	29734.46
522.47	29283.91
522.68	29789.75
522.88	29476.41
523.08	30285.36
523.29	29896.25
523.49	29763.13
523.70	29894.20
523.90	30193.20
524.10	29902.39
524.31	30332.47
524.51	29908.54
524.71	30250.55
524.92	30041.65
525.12	30590.51
525.33	30373.42
525.53	30484.01
525.73	31004.20
525.94	30334.51
526.14	30686.76
526.34	30754.35
526.55	30762.54
526.75	30860.84
526.95	31413.79
527.16	30942.76
527.36	30918.18
527.56	31292.96
527.77	31131.17
527.97	31264.29
528.17	31366.69
528.38	31796.76
528.58	31596.06
528.78	31581.73
528.99	31929.88
529.19	31909.40
529.39	31589.92
529.60	32140.82
529.80	31944.22
530.00	31856.15
530.21	32206.36
530.41	32491.02
530.61	32222.74
530.82	32208.40
531.02	32038.42
531.22	32589.33
531.43	32562.70
531.63	32613.90
531.83	32863.75
532.04	33048.07
532.24	32525.84
532.44	33418.75
532.64	33103.37
532.85	32904.71
533.05	33181.19
533.25	33240.58
533.46	33269.25
533.66	33793.53
533.86	33453.57
534.07	33689.09
534.27	33619.46
534.47	34260.47
534.67	33922.55
534.88	33873.40
535.08	33969.66
535.28	34444.79
535.49	34592.24
535.69	34491.89
535.89	34723.31
536.09	34864.62
536.30	34811.37
536.50	34749.93
536.70	34973.16
536.91	34696.69
537.11	35091.94
537.31	35003.88
537.51	35169.77
537.72	35376.61
537.92	35702.24
538.12	35970.52
538.32	35409.38
538.53	35843.55
538.73	35636.70
538.93	35767.77
539.13	35917.28
539.34	35743.20
539.54	36271.57
539.74	36179.42
539.94	35724.77
540.15	36607.44
540.35	36703.70
540.55	36632.02
540.75	36656.59
540.96	36744.66
541.16	36564.43
541.36	36883.92
541.56	36933.07
541.77	37205.45
541.97	37180.87
542.17	37008.84
542.37	37094.86
542.58	37051.85
542.78	37131.72
542.98	37688.77
543.18	37768.64
543.38	37713.34
543.59	37731.78
543.79	37576.13
543.99	37561.79
544.19	37887.42
544.40	37705.15
544.60	38299.06
544.80	38104.51
545.00	38286.78
545.20	38632.88
545.41	38428.09
545.61	38231.48
545.81	38864.30
546.01	38602.16
546.21	38591.92
546.42	38616.50
546.62	38684.08
546.82	38731.18
547.02	38761.90
547.22	38829.49
547.43	38921.65
547.63	39165.35
547.83	39566.76
548.03	39036.33
548.23	39654.82
548.44	39288.23
548.64	39398.82
548.84	39155.11
549.04	39423.40
549.24	39744.93
549.45	39992.73
549.65	39396.77
549.85	39804.32
550.05	40156.57
550.25	39796.13
550.45	40572.31
550.66	39906.72
550.86	39888.29
551.06	40181.15
551.26	40342.94
551.46	40416.66
551.66	40119.71
551.87	40707.47
552.07	40762.77
552.27	40596.88
552.47	40928.66
552.67	40723.86
552.87	41280.91
553.07	40940.94
553.28	41076.11
553.48	41219.47
553.68	41082.25
553.88	41416.07
554.08	41612.68
554.28	41547.14
554.48	41299.34
554.69	41606.53
554.89	41661.83
555.09	41545.09
555.29	41807.23
555.49	42102.14
555.69	41846.15
555.89	41336.20
556.10	42007.94
556.30	41778.56
556.50	42263.93
556.70	41792.90
556.90	42132.86
557.10	42143.10
557.30	41553.29
557.50	42282.36
557.70	42329.47
557.91	42321.27
558.11	42323.32
558.31	42548.60
558.51	42304.89
558.71	42913.14
558.91	42847.60
559.11	42591.61
559.31	42829.17
559.51	42550.65
559.72	42726.77
559.92	42732.92
560.12	42747.25
560.32	43048.30
560.52	42794.36
560.72	43316.59
560.92	42913.14
561.12	42964.34
561.32	43165.04
561.52	42571.13
561.72	43634.02
561.93	43201.90
562.13	43185.52
562.33	43029.87
562.53	43941.22
562.73	43046.26
562.93	42972.53
563.13	43310.44
563.33	43418.99
563.53	44021.09
563.73	43685.22
563.93	43509.10
564.13	43865.44
564.33	44354.91
564.53	43672.93
564.74	43824.48
564.94	44107.10
565.14	43724.13
565.34	43441.51
565.54	43887.97
565.74	44137.82
565.94	44184.93
566.14	44131.68
566.34	43930.98
566.54	44324.19
566.74	44037.47
566.94	44205.41
567.14	44799.32
567.34	44285.28
567.54	44541.27
567.74	44176.73
567.94	44164.45
568.14	44823.89
568.34	44668.25
568.54	44879.19
568.74	44768.60
568.94	44528.98
569.14	44895.57
569.34	44502.36
569.54	44840.28
569.75	44791.12
569.95	44805.46
570.15	44856.66
570.35	44924.24
570.55	44666.20
570.75	44680.53
570.95	45425.99
571.15	44936.53
571.35	45282.64
571.55	45323.60
571.75	44938.58
571.95	45536.59
572.15	44803.41
572.35	45243.73
572.55	45299.02
572.75	45630.79
572.95	44971.35
573.15	45051.22
573.35	45725.00
573.55	45243.73
573.75	45077.84
573.95	45630.79
574.15	45378.89
574.35	45593.93
574.55	45354.32
574.75	45509.96
574.95	45843.78
575.15	45194.57
575.34	45978.95
575.54	45643.08
575.74	45647.18
575.94	46064.96
576.14	45657.42
576.34	46128.45
576.54	46075.20
576.74	46026.05
576.94	45673.80
577.14	46384.44
577.34	46447.93
577.54	46241.09
577.74	45819.20
577.94	45964.61
578.14	46236.99
578.34	46509.37
578.54	45518.15
578.74	45917.51
578.94	46560.57
579.14	45952.32
579.34	46077.25
579.54	46527.80
579.74	46583.10
579.94	46794.04
580.13	46552.38
580.33	46738.74
580.53	47154.48
580.73	46560.57
580.93	46828.85
581.13	46830.90
581.33	47320.37
581.53	46855.48
581.73	46796.09
581.93	46910.77
582.13	47136.05
582.33	47187.25
582.53	47154.48
582.73	46974.26
582.92	47504.68
583.12	47220.02
583.32	47230.26
583.52	46992.69
583.72	47248.69
583.92	47375.66
584.12	47115.57
584.32	47732.01
584.52	47285.55
584.72	47256.88
584.92	47222.06
585.11	48153.89
585.31	47488.30
585.51	47394.09
585.71	47297.84
585.91	47355.18
586.11	47539.50
586.31	47994.15
586.51	47705.38
586.71	47713.58
586.91	48026.92
587.10	47994.15
587.30	47994.15
587.50	47858.98
587.70	47949.09
587.90	48303.39
588.10	48311.58
588.30	48117.03
588.50	48395.55
588.69	48444.70
588.89	48094.50
589.09	48481.56
589.29	48123.17
589.49	48657.69
589.69	48114.98
589.89	48659.74
590.08	48002.34
590.28	48211.23
590.48	48446.75
590.68	48323.87
590.88	48370.97
591.08	48426.27
591.28	48450.84
591.47	48905.49
591.67	48413.98
591.87	48645.40
592.07	48524.57
592.27	48973.08
592.47	48940.31
592.67	48856.34
592.86	48887.06
593.06	48839.96
593.26	48831.77
593.46	49026.32
593.66	48631.07
593.86	49085.72
594.05	49167.63
594.25	49151.25
594.45	48706.84
594.65	49450.25
594.85	48905.49
595.05	49503.50
595.24	49583.37
595.44	48932.12
595.64	49208.59
595.84	49134.87
596.04	49517.84
596.23	49923.33
596.43	50042.12
596.63	49472.78
596.83	49415.44
597.03	49829.13
597.22	50289.92
597.42	49767.69
597.62	50607.36
597.82	49757.45
598.02	50240.77
598.21	50545.92
598.41	49870.09
598.61	50146.56
598.81	49865.99
599.01	50093.32
599.20	50138.37
599.40	50009.35
599.60	50648.32
599.80	50291.97
600.00	50607.36
600.19	50957.56
600.39	49804.55
600.59	50865.40
600.79	50922.74
600.98	50857.21
601.18	50658.56
601.38	51234.03
601.58	50883.83
601.78	50973.94
601.97	50822.39
602.17	51393.78
602.37	51279.09
602.57	51188.98
602.76	51524.85
602.96	51174.64
603.16	51617.00
603.36	51510.51
603.55	51391.73
603.75	51324.14
603.95	51586.28
604.15	51576.04
604.34	51819.75
604.54	51987.69
604.74	51655.92
604.94	51981.54
605.13	52303.07
605.33	52096.23
605.53	51780.84
605.73	52503.77
605.92	52249.83
606.12	52247.78
606.32	52387.04
606.52	52430.05
606.71	52473.06
606.91	52946.14
607.11	52376.80
607.30	52540.64
607.50	52249.83
607.70	52872.41
607.90	52597.98
608.09	52569.31
608.29	53040.34
608.49	52849.88
608.68	52993.24
608.88	52729.05
609.08	52798.68
609.28	53138.65
609.47	52673.76
609.67	53578.96
609.87	53335.25
610.06	53554.38
610.26	53540.05
610.46	53329.11
610.66	53372.11
610.85	53028.05
611.05	53355.73
611.25	53812.43
611.44	53171.41
611.64	53568.72
611.84	53611.73
612.03	53486.80
612.23	53955.78
612.43	53648.59
612.62	53478.61
612.82	53986.50
613.02	53449.94
613.21	54234.31
613.41	53769.42
613.61	54021.32
613.80	53433.55
614.00	54027.46
614.20	53927.11
614.39	54043.85
614.59	54136.01
614.79	53800.14
614.98	53884.11
615.18	53933.26
615.38	54129.86
615.57	53955.78
615.77	54531.26
615.97	53771.47
616.16	53781.71
616.36	54226.12
616.56	54387.91
616.75	53978.31
616.95	53900.49
617.15	54361.28
617.34	54121.67
617.54	54504.64
617.74	54322.37
617.93	54529.22
618.13	54191.30
618.32	54686.91
618.52	54015.18
618.72	54496.45
618.91	54797.50
619.11	54164.68
619.31	54285.51
619.50	54408.39
619.70	54392.00
619.90	54736.06
620.09	54545.60
620.29	54777.02
620.48	54469.82
620.68	54734.01
620.88	54332.61
621.07	54777.02
621.27	54854.84
621.46	54500.54
621.66	54629.57
621.86	55203.00
622.05	54234.31
622.25	54891.71
622.44	54709.44
622.64	54238.40
622.84	54908.09
623.03	54533.31
623.23	54863.03
623.42	54482.11
623.62	54809.79
623.82	55254.20
624.01	54645.95
624.21	54944.95
624.40	54826.17
624.60	54770.88
624.80	54572.22
624.99	55022.78
625.19	54365.38
625.38	55039.16
625.58	54994.10
625.77	55033.02
625.97	54844.60
626.17	54801.60
626.36	54955.19
626.56	55295.16
626.75	54297.80
626.95	55198.90
627.14	54787.26
627.34	55172.28
627.54	55008.44
627.73	54828.22
627.93	55135.41
628.12	55051.45
628.32	55076.02
628.51	54940.86
628.71	54799.55
628.90	54856.89
629.10	54858.94
629.30	55159.99
629.49	55016.63
629.69	55176.37
629.88	54971.58
630.08	55334.07
630.27	55489.71
630.47	55424.18
630.66	55372.98
630.86	55375.03
631.05	54781.12
631.25	55473.33
631.44	55299.25
631.64	55035.06
631.84	55092.41
632.03	55387.31
632.23	55811.24
632.42	55770.28
632.62	55248.05
632.81	55112.89
633.01	55149.75
633.20	55284.92
633.40	55493.81
633.59	55325.88
633.79	55338.16
633.98	55561.39
634.18	55401.65
634.37	55915.69
634.57	55391.41
634.76	55653.55
634.96	55565.49
635.15	55547.06
635.35	55581.87
635.54	55211.19
635.74	55762.09
635.93	55082.17
636.13	55321.78
636.32	55721.13
636.52	55194.81
636.71	55413.94
636.91	55891.12
637.10	55798.96
637.30	55655.60
637.49	55168.18
637.69	55506.10
637.88	55624.88
638.08	55479.47
638.27	55727.28
638.46	55485.62
638.66	55309.49
638.85	55426.23
639.05	55596.21
639.24	55921.83
639.44	55477.43
639.63	55565.49
639.83	55622.83
640.02	55491.76
640.22	55520.43
640.41	55739.57
640.61	55231.67
640.80	55669.93
640.99	55485.62
641.19	56259.75
641.38	55706.80
641.58	55624.88
641.77	55608.50
641.97	55784.62
642.16	55680.17
642.36	55444.66
642.55	56132.78
642.74	55123.13
642.94	56423.59
643.13	55835.82
643.33	55973.03
643.52	55803.05
643.72	55993.51
643.91	55889.07
644.10	56079.53
644.30	55835.82
644.49	55907.50
644.69	55938.22
644.88	56100.01
645.08	55737.52
645.27	55293.11
645.46	55422.13
645.66	55547.06
645.85	55628.98
646.05	55723.18
646.24	55927.98
646.43	55827.63
646.63	56140.97
646.82	56394.92
647.02	56007.85
647.21	55817.39
647.40	56100.01
647.60	56188.07
647.79	56212.65
647.99	56568.99
648.18	55710.89
648.37	56335.52
648.57	56239.27
648.76	55708.85
648.96	55534.77
649.15	56044.71
649.34	56251.56
649.54	55874.73
649.73	55954.60
649.92	56042.66
650.12	56001.71
650.31	56220.84
650.51	55788.72
650.70	56681.63
650.89	55637.17
651.09	56399.01
651.28	55829.68
651.47	56095.91
651.67	55882.92
651.86	56376.48
652.06	55168.18
652.25	55841.96
652.44	55903.40
652.64	55665.84
652.83	56394.92
653.02	55899.31
653.22	55604.40
653.41	56140.97
653.60	55825.58
653.80	56112.30
653.99	55876.78
654.18	55747.76
654.38	55964.84
654.57	56464.55
654.76	55880.88
654.96	55915.69
655.15	56007.85
655.34	55956.65
655.54	55653.55
655.73	55700.65
655.92	55714.99
656.12	55968.94
656.31	56155.30
656.50	55577.78
656.70	55852.20
656.89	55364.79
657.08	55874.73
657.28	55913.64
657.47	55628.98
657.66	55905.45
657.86	55620.78
658.05	55610.54
658.24	55952.55
658.43	55555.25
658.63	55600.30
658.82	56116.39
659.01	55964.84
659.21	55798.96
659.40	55661.74
659.59	55907.50
659.79	55571.63
659.98	55633.07
660.17	55792.81
660.36	55833.77
660.56	55727.28
660.75	55809.20
660.94	55940.27
661.14	55628.98
661.33	55751.85
661.52	55383.22
661.71	56147.11
661.91	55557.30
662.10	55585.97
662.29	55659.69
662.49	55692.46
662.68	55893.16
662.87	55807.15
663.06	55387.31
663.26	55278.77
663.45	55907.50
663.64	56097.96
663.83	55831.72
664.03	56046.76
664.22	55692.46
664.41	55534.77
664.60	55579.82
664.80	55483.57
664.99	55678.13
665.18	55473.33
665.37	55596.21
665.57	55751.85
665.76	55612.59
665.95	55495.86
666.14	55418.03
666.34	55755.95
666.53	55180.47
666.72	55502.00
666.91	55035.06
667.11	55196.85
667.30	55721.13
667.49	55399.60
667.68	55289.01
667.87	55354.55
668.07	55588.02
668.26	55047.35
668.45	55352.50
668.64	54791.36
668.84	56132.78
669.03	55815.34
669.22	55719.09
669.41	55704.75
669.60	55157.94
669.80	55145.65
669.99	55411.89
670.18	55270.58
670.37	55137.46
670.57	55690.41
670.76	55192.76
670.95	55801.00
671.14	55368.88
671.33	55223.48
671.53	55850.16
671.72	55676.08
671.91	55350.45
672.10	55246.00
672.29	55258.29
672.48	55063.74
672.68	55551.15
672.87	55108.79
673.06	55203.00
673.25	55219.38
673.44	54797.50
673.64	55035.06
673.83	55385.27
674.02	54951.10
674.21	55106.74
674.40	54881.47
674.59	55016.63
674.79	54893.75
674.98	54752.44
675.17	55344.31
675.36	54887.61
675.55	55540.91
675.74	54895.80
675.94	54834.36
676.13	55332.02
676.32	55383.22
676.51	55327.92
676.70	55469.23
676.89	54764.73
677.08	55485.62
677.28	54785.21
677.47	55540.91
677.66	55465.14
677.85	54967.48
678.04	55561.39
678.23	55000.25
678.42	55276.72
678.62	55041.21
678.81	55489.71
679.00	55129.27
679.19	55567.54
679.38	55166.13
679.57	54987.96
679.76	55229.62
679.96	54971.58
680.15	54983.86
680.34	54791.36
680.53	54959.29
680.72	55065.78
680.91	55399.60
681.10	54797.50
681.29	55049.40
681.48	55014.58
681.68	54633.66
681.87	54844.60
682.06	54525.12
682.25	54858.94
682.44	54805.69
682.63	55106.74
682.82	54674.62
683.01	54695.10
683.20	54525.12
683.39	54996.15
683.59	54293.70
683.78	54510.78
683.97	54523.07
684.16	54596.80
684.35	54316.23
684.54	54682.81
684.73	54457.54
684.92	54330.56
685.11	54693.05
685.30	54613.18
685.49	55045.30
685.69	54723.77
685.88	54631.61
686.07	54484.16
686.26	54793.40
686.45	54801.60
686.64	55162.04
686.83	54465.73
687.02	54891.71
687.21	54736.06
687.40	54508.74
687.59	54779.07
687.78	54412.48
687.97	54756.54
688.16	54705.34
688.35	54795.45
688.54	54531.26
688.74	54328.52
688.93	54916.28
689.12	54613.18
689.31	54662.33
689.50	54682.81
689.69	54465.73
689.88	54195.40
690.07	54500.54
690.26	54246.60
690.45	55237.81
690.64	54260.93
690.83	54152.39
691.02	54394.05
691.21	54621.37
691.40	54224.07
691.59	54637.76
691.78	53980.36
691.97	54592.70
692.16	54426.82
692.35	54658.24
692.54	54449.35
692.73	54557.89
692.92	54351.04
693.11	54555.84
693.30	54011.08
693.49	54654.14
693.68	54320.32
693.87	54334.66
694.06	54176.97
694.25	53994.70
694.44	54289.60
694.63	54373.57
694.82	54346.95
695.01	54338.75
695.20	54322.37
695.39	53640.40
695.58	54074.57
695.77	53818.57
695.96	53798.09
696.15	53892.30
696.34	53888.20
696.53	53732.56
696.72	54195.40
696.91	53920.97
697.10	54211.78
697.29	53621.97
697.48	54336.71
697.67	54047.94
697.86	53714.12
698.05	53628.11
698.24	54154.44
698.43	53402.83
698.62	54238.40
698.81	53966.02
699.00	54164.68
699.19	53884.11
699.38	54103.24
699.57	53404.88
699.76	54260.93
699.95	54015.18
700.14	53458.13
700.32	53538.00
700.51	54088.90
700.70	54015.18
700.89	53845.19
701.08	53904.59
701.27	53687.50
701.46	54228.16
701.65	52962.52
701.84	53763.28
702.03	53644.49
702.22	54072.52
702.41	53787.85
702.60	53806.28
702.79	53689.55
702.98	53376.21
703.17	53476.56
703.35	53359.83
703.54	53548.24
703.73	53638.35
703.92	53449.94
704.11	53464.27
704.30	53294.29
704.49	53490.90
704.68	52847.83
704.87	53683.40
705.06	53236.95
705.25	53322.96
705.43	53316.82
705.62	53300.43
705.81	53513.42
706.00	53413.07
706.19	52933.85
706.38	52995.29
706.57	52833.50
706.76	52727.00
706.95	53310.67
707.14	53021.91
707.32	53286.10
707.51	53023.96
707.70	52724.96
707.89	52831.45
708.08	53333.20
708.27	53046.49
708.46	53120.21
708.65	52911.32
708.84	53302.48
709.02	53277.91
709.21	53591.25
709.40	52833.50
709.59	52634.84
709.78	52737.24
709.97	52954.33
710.16	52667.61
710.34	52929.75
710.53	52989.14
710.72	52780.25
710.91	53021.91
711.10	52727.00
711.29	52620.51
711.48	52597.98
711.66	52624.60
711.85	52417.76
712.04	52821.21
712.23	52315.36
712.42	52712.67
712.61	52274.40
712.80	52352.23
712.98	52337.89
713.17	52282.59
713.36	52483.30
713.55	52237.54
713.74	52499.68
713.93	52389.09
714.11	52045.03
714.30	52030.69
714.49	52321.51
714.68	52460.77
714.87	52534.49
715.06	52376.80
715.24	52100.32
715.43	51879.14
715.62	51670.25
715.81	51924.20
716.00	52358.37
716.18	51610.86
716.37	51533.04
716.56	51666.16
716.75	52415.71
716.94	52403.42
717.12	51731.69
717.31	52034.79
717.50	51944.68
717.69	51588.33
717.88	52071.65
718.06	51381.49
718.25	51969.26
718.44	51621.10
718.63	51715.31
718.82	51115.25
719.00	51008.76
719.19	51594.48
719.38	51389.68
719.57	50676.99
719.76	51074.29
719.94	50617.60
720.13	51125.49
720.32	51041.53
720.51	50750.71
720.69	50849.02
720.88	50916.60
721.07	51008.76
721.26	50406.65
721.44	50498.81
721.63	50869.50
721.82	50396.42
722.01	50615.55
722.20	50453.76
722.38	50302.21
722.57	49872.14
722.76	50560.25
722.95	50318.59
723.13	50246.91
723.32	50193.67
723.51	49765.64
723.70	50068.74
723.88	50185.47
724.07	49839.37
724.26	49962.25
724.44	49818.89
724.63	49835.27
724.82	50359.55
725.01	49642.76
725.19	49403.15
725.38	49638.67
725.57	49523.98
725.76	49902.85
725.94	49245.46
726.13	49321.23
726.32	49587.47
726.51	49415.44
726.69	49984.77
726.88	49884.42
727.07	49206.55
727.25	49368.33
727.44	49055.00
727.63	49468.69
727.82	49050.90
728.00	49403.15
728.19	49038.61
728.38	49339.66
728.56	48667.93
728.75	49370.38
728.94	49249.55
729.12	49536.27
729.31	49241.36
729.50	48848.15
729.69	49192.21
729.87	48923.93
730.06	48856.34
730.25	49001.75
730.43	49341.71
730.62	48930.07
730.81	49083.67
730.99	48887.06
731.18	49022.23
731.37	49270.03
731.55	49042.71
731.74	49612.04
731.93	48952.60
732.11	49009.94
732.30	48915.73
732.49	48631.07
732.67	48569.63
732.86	48930.07
733.05	48885.01
733.23	48745.75
733.42	49290.51
733.61	48618.78
733.79	48821.53
733.98	49001.75
734.17	48694.55
734.35	48514.33
734.54	48899.35
734.73	48796.95
734.91	49057.04
735.10	48354.59
735.29	48981.27
735.47	48192.80
735.66	48489.76
735.84	48192.80
736.03	48299.30
736.22	48528.67
736.40	48471.32
736.59	48096.55
736.78	48370.97
736.96	48385.31
737.15	48526.62
737.33	47932.71
737.52	48418.08
737.71	48069.92
737.89	47660.33
738.08	47271.21
738.27	47828.26
738.45	48282.91
738.64	48067.87
738.82	47543.59
739.01	47631.66
739.20	47922.47
739.38	47781.16
739.57	48047.39
739.75	47721.77
739.94	47492.40
740.13	47691.05
740.31	47676.71
740.50	47549.74
740.68	47617.32
740.87	47459.63
741.06	47723.82
741.24	47420.72
741.43	47127.86
741.61	47942.95
741.80	47166.77
741.99	47559.98
742.17	47195.44
742.36	46939.44
742.54	47070.51
742.73	47365.42
742.91	47355.18
743.10	47168.82
743.29	47093.04
743.47	47224.11
743.66	46845.24
743.84	46964.02
744.03	47035.70
744.21	46837.05
744.40	47050.03
744.59	46443.84
744.77	46591.29
744.96	46814.52
745.14	46765.37
745.33	46843.19
745.51	46511.42
745.70	46628.15
745.88	46548.28
746.07	46355.77
746.26	46380.35
746.44	46148.93
746.63	46601.53
746.81	46474.55
747.00	46687.54
747.18	46703.93
747.37	46363.96
747.55	46372.16
747.74	46441.79
747.92	46191.94
748.11	46136.64
748.29	46228.80
748.48	45913.41
748.66	45800.77
748.85	45595.98
749.03	45722.95
749.22	46091.58
749.41	45481.29
749.59	45483.34
749.78	45503.82
749.96	45436.23
750.15	45552.97
750.33	45331.79
750.52	45493.58
750.70	45753.67
750.89	45036.88
751.07	45096.27
751.26	45170.00
751.44	45075.79
751.63	45069.65
751.81	45213.01
752.00	44920.15
752.18	45112.66
752.37	45014.35
752.55	45122.90
752.74	45073.74
752.92	44725.59
753.10	44576.09
753.29	44897.62
753.47	44442.97
753.66	44201.31
753.84	45004.11
754.03	44606.81
754.21	44227.93
754.40	44502.36
754.58	44414.30
754.77	44424.54
754.95	44346.72
755.14	43955.55
755.32	44336.48
755.51	43930.98
755.69	44166.49
755.88	44338.52
756.06	44283.23
756.24	43890.02
756.43	43826.53
756.61	44047.71
756.80	43834.72
756.98	43558.25
757.17	43801.96
757.35	43627.88
757.54	43611.49
757.72	43838.82
757.90	43646.31
758.09	43431.27
758.27	43742.56
758.46	43601.25
758.64	43621.73
758.83	43351.40
759.01	43453.80
759.19	43482.47
759.38	43289.96
759.56	43578.73
759.75	43275.63
759.93	43220.33
760.12	43179.37
760.30	43240.81
760.48	43099.50
760.67	43031.92
760.85	42986.86
761.04	43093.36
761.22	42802.55
761.40	42786.16
761.59	42618.23
761.77	42577.27
761.96	42718.58
762.14	42929.52
762.32	42294.65
762.51	42444.15
762.69	42577.27
762.88	42175.87
763.06	42337.66
763.24	42728.82
763.43	42808.69
763.61	42120.57
763.80	42241.40
763.98	42368.38
764.16	42052.99
764.35	42104.19
764.53	41858.43
764.72	42257.79
764.90	42243.45
765.08	42005.89
765.27	41858.43
765.45	41545.09
765.63	41219.47
765.82	41913.73
766.00	41436.55
766.18	41465.22
766.37	42110.33
766.55	41911.68
766.74	41598.34
766.92	41670.02
767.10	41262.47
767.29	41223.56
767.47	41112.97
767.65	41500.04
767.84	41164.17
768.02	41256.33
768.20	40811.92
768.39	41301.39
768.57	41012.62
768.75	41069.97
768.94	41293.19
769.12	40934.80
769.30	40490.39
769.49	40791.44
769.67	40830.35
769.85	40293.79
770.04	40805.78
770.22	40521.11
770.40	40238.49
770.59	40134.04
770.77	40492.44
770.95	40871.31
771.14	40027.55
771.32	40041.88
771.50	39978.40
771.69	40091.04
771.87	40529.30
772.05	40107.42
772.24	39757.22
772.42	39804.32
772.60	39867.81
772.78	39706.02
772.97	39759.27
773.15	40146.33
773.33	39783.84
773.52	39761.31
773.70	39556.52
773.88	40379.80
774.07	39863.71
774.25	39720.35
774.43	39867.81
774.61	39466.41
774.80	40105.37
774.98	40035.74
775.16	39998.88
775.34	40048.03
775.53	39822.75
775.71	40000.93
775.89	39964.06
776.08	39738.79
776.26	40148.38
776.44	40121.76
776.62	39581.09
776.81	39572.90
776.99	39986.59
777.17	39861.66
777.35	39974.30
777.54	40179.10
777.72	39703.97
777.90	40115.61
778.08	40170.91
778.27	40127.90
778.45	40428.95
778.63	40218.01
778.81	40150.43
779.00	40504.73
779.18	39955.87
779.36	40439.19
779.54	40056.22
779.73	40215.96
779.91	40476.05
780.09	40383.90
780.27	40512.92
780.46	40488.34
780.64	40727.95
780.82	40549.78
781.00	40533.40
781.19	40781.20
781.37	40910.22
781.55	40457.62
781.73	41078.16
781.91	40443.29
782.10	40699.28
782.28	40531.35
782.46	40535.45
782.64	41080.21
782.82	40271.26
783.01	40787.35
783.19	40613.27
783.37	40619.41
783.55	40738.19
783.74	40701.33
783.92	40422.81
784.10	41311.63
784.28	40572.31
784.46	40818.07
784.64	40408.47
784.83	40895.89
785.01	41254.28
785.19	40803.73
785.37	40932.75
785.55	40736.15
785.74	40279.45
785.92	40740.24
786.10	40867.22
786.28	40834.45
786.46	40228.25
786.64	40451.48
786.83	40052.12
787.01	40680.85
787.19	40170.91
787.37	40646.04
787.55	40643.99
787.74	39939.49
787.92	40525.21
788.10	40168.86
788.28	39964.06
788.46	40316.31
788.64	39835.04
788.82	40371.61
789.01	40201.63
789.19	40394.14
789.37	40037.79
789.55	40068.51
789.73	39779.74
789.91	40027.55
790.09	39931.29
790.28	39869.86
790.46	39460.26
790.64	39941.53
790.82	39736.74
791.00	39585.19
791.18	39454.12
791.36	39429.54
791.55	39267.75
791.73	39140.78
791.91	38845.87
792.09	39544.23
792.27	38999.47
792.45	39253.42
792.63	39089.58
792.81	38634.93
793.00	38589.88
793.18	38778.29
793.36	38665.65
793.54	38546.87
793.72	38688.18
793.90	38698.42
794.08	38309.30
794.26	38737.33
794.44	38065.60
794.62	37586.37
794.81	38149.56
794.99	37860.80
795.17	37920.19
795.35	37889.47
795.53	37969.34
795.71	38122.94
795.89	37817.79
796.07	37406.15
796.25	37690.82
796.43	37563.84
796.61	36664.78
796.80	37297.61
796.98	37426.63
797.16	37035.47
797.34	37209.54
797.52	37023.18
797.70	37189.06
797.88	36672.98
798.06	36773.33
798.24	36664.78
798.42	36967.88
798.60	36564.43
798.78	36306.39
798.96	36859.34
799.14	36476.37
799.32	36724.18
799.51	36304.34
799.69	36195.80
799.87	36019.67
800.05	36261.33
800.23	36160.98
800.41	36255.19
800.59	35882.46
800.77	35993.05
800.95	35853.79
801.13	35829.21
801.31	35694.05
801.49	35608.03
801.67	35464.67
801.85	35325.41
802.03	35112.42
802.21	35386.85
802.39	34563.57
802.57	35014.12
802.75	35026.41
802.93	34696.69
803.11	34633.20
803.29	34854.38
803.47	34872.81
803.65	34794.99
803.83	34850.28
804.01	34622.96
804.19	34416.11
804.37	34153.97
804.55	34704.88
804.73	34403.83
804.91	34055.67
805.09	34117.11
805.27	34080.25
805.45	34094.58
805.63	34147.83
805.81	33998.33
805.99	34106.87
806.17	34225.65
806.35	34283.00
806.53	33738.24
806.71	33660.41
806.89	33693.18
807.07	33132.04
807.25	33666.56
807.43	33648.13
807.61	33814.01
807.79	33605.12
807.97	33039.88
808.15	33158.66
808.33	32925.19
808.51	33379.84
808.69	32882.19
808.87	32787.98
809.05	32638.48
809.23	32642.57
809.41	32689.68
809.59	32767.50
809.77	32998.92
809.95	32507.41
810.13	32919.05
810.31	32394.77
810.49	32341.52
810.67	32450.06
810.84	32341.52
811.02	31987.22
811.20	31970.84
811.38	32058.90
811.56	32060.95
811.74	31964.70
811.92	31843.87
812.10	31800.86
812.28	31759.90
812.46	31952.41
812.64	31829.53
812.82	31602.21
813.00	31743.52
813.18	31647.26
813.36	31745.56
813.53	31348.26
813.71	31370.79
813.89	31356.45
814.07	31845.91
814.25	31596.06
814.43	31542.81
814.61	30926.38
814.79	30848.55
814.97	31190.56
815.15	31458.85
815.33	30805.55
815.50	30940.71
815.68	31145.51
815.86	31067.69
816.04	30721.58
816.22	30656.04
816.40	30555.69
816.58	30668.33
816.76	30531.12
816.94	30621.23
817.11	30856.75
817.29	30551.60
817.47	30430.77
817.65	30273.07
817.83	30557.74
818.01	29976.12
818.19	30205.49
818.37	30275.12
818.54	30092.85
818.72	29834.81
818.90	30121.52
819.08	29984.31
819.26	29826.62
819.44	29793.85
819.62	29920.82
819.80	29752.89
819.97	29824.57
820.15	29664.83
820.33	29609.53
820.51	29627.96
820.69	29474.37
820.87	29517.37
821.05	29654.59
821.22	29304.38
821.40	29537.85
821.58	29242.95
821.76	29572.67
821.94	29613.63
822.12	29406.78
822.29	29439.55
822.47	29093.44
822.65	29384.26
822.83	29419.07
823.01	29134.40
823.19	29019.72
823.36	29070.92
823.54	28859.98
823.72	29093.44
823.90	28898.89
824.08	28550.73
824.25	28755.53
824.43	28405.33
824.61	28673.61
824.79	28823.11
824.97	28532.30
825.15	28532.30
825.32	28411.47
825.50	28282.45
825.68	28294.74
825.86	28278.35
826.04	28671.56
826.21	28399.18
826.39	28524.11
826.57	28122.71
826.75	28040.79
826.93	27860.57
827.10	28096.08
827.28	28364.37
827.46	28159.57
827.64	28083.80
827.81	28073.56
827.99	28188.24
828.17	27795.03
828.35	27997.78
828.53	27909.72
828.70	27743.83
828.88	27582.04
829.06	27749.98
829.24	27901.53
829.41	27778.65
829.59	27819.61
829.77	27487.84
829.95	27588.19
830.12	27573.85
830.30	27733.59
830.48	27692.63
830.66	27526.75
830.84	27332.19
831.01	27194.98
831.19	27358.81
831.37	27371.10
831.55	27090.53
831.72	27446.88
831.90	27317.86
832.08	27223.65
832.25	27186.79
832.43	27102.82
832.61	26863.21
832.79	27074.15
832.96	26914.41
833.14	26969.70
833.32	27104.87
833.50	26955.36
833.67	27305.57
833.85	26924.65
834.03	26627.69
834.20	26906.21
834.38	26820.20
834.56	26912.36
834.74	26396.27
834.91	26893.93
835.09	26701.42
835.27	26302.06
835.44	26584.68
835.62	26170.99
835.80	26181.23
835.98	26957.41
836.15	26316.40
836.33	26371.69
836.51	26418.80
836.68	26232.43
836.86	26293.87
837.04	26703.46
837.21	26596.97
837.39	26377.84
837.57	26353.26
837.75	26539.63
837.92	26209.90
838.10	25990.77
838.28	25593.47
838.45	25908.85
838.63	25804.41
838.81	26111.60
838.98	25736.82
839.16	25546.36
839.34	25491.07
839.51	25626.23
839.69	25380.48
839.87	25491.07
840.04	25384.57
840.22	25890.42
840.40	25622.14
840.57	25159.30
840.75	25503.35
840.93	25165.44
841.10	25392.76
841.28	25628.28
841.46	25366.14
841.63	25427.58
841.81	25435.77
841.98	25136.77
842.16	25329.28
842.34	25235.07
842.51	24786.57
842.69	25362.04
842.87	25114.24
843.04	25011.84
843.22	25017.99
843.40	25028.23
843.57	25140.86
843.75	25136.77
843.92	24981.12
844.10	25149.06
844.28	24909.44
844.45	24870.53
844.63	24960.64
844.81	24616.58
844.98	24583.82
845.16	24776.33
845.33	24956.55
845.51	24348.30
845.69	24376.97
845.86	24250.00
846.04	24690.31
846.21	24561.29
846.39	24311.44
846.57	24110.74
846.74	24598.15
846.92	24032.91
847.09	24299.15
847.27	24024.72
847.45	24315.53
847.62	24057.49
847.80	24358.54
847.97	23856.79
848.15	24260.24
848.32	23821.97
848.50	24120.98
848.68	23963.28
848.85	24125.07
849.03	23664.28
849.20	23930.51
849.38	23791.25
849.56	24104.59
849.73	23520.92
849.91	23723.67
850.08	24116.88
850.26	23508.63
850.43	23932.56
850.61	23717.53
850.78	23457.43
850.96	23365.28
851.14	23342.75
851.31	23525.02
851.49	23162.53
851.66	23475.87
851.84	23234.21
852.01	23279.26
852.19	23328.41
852.36	23172.77
852.54	23416.47
852.71	23092.90
852.89	23066.27
853.07	23142.05
853.24	23416.47
853.42	23207.58
853.59	22931.11
853.77	23211.68
853.94	22986.40
854.12	23230.11
854.29	22937.25
854.47	23346.84
854.64	22929.06
854.82	23068.32
854.99	22869.67
855.17	22843.04
855.34	22896.29
855.52	22892.19
855.69	22945.44
855.87	22785.70
856.04	22603.43
856.22	22664.87
856.39	22511.27
856.57	22482.60
856.74	22552.23
856.92	22728.36
857.09	22286.00
857.27	22345.39
857.44	22599.34
857.62	22599.34
857.79	22337.20
857.97	22326.96
858.14	22218.41
858.32	22300.33
858.49	22120.11
858.67	21968.56
858.84	22056.62
859.02	22390.44
859.19	21970.61
859.37	21950.13
859.54	21909.17
859.72	21827.25
859.89	22116.01
860.06	22105.77
860.24	21812.92
860.41	22116.01
860.59	21853.87
860.76	22134.45
860.94	21749.43
861.11	21972.66
861.29	21644.98
861.46	21513.91
861.64	21599.93
861.81	21216.96
861.98	21464.76
862.16	21391.03
862.33	21434.04
862.51	21657.27
862.68	21434.04
862.86	21278.40
863.03	21253.82
863.21	21454.52
863.38	21141.18
863.55	21073.60
863.73	21274.30
863.90	21475.00
864.08	21024.45
864.25	21137.09
864.43	21272.25
864.60	21065.41
864.77	21087.93
864.95	21130.94
865.12	20883.14
865.30	20920.00
865.47	20602.57
865.64	21046.97
865.82	20899.52
865.99	20856.51
866.17	20659.91
866.34	20793.03
866.51	20502.22
866.69	20645.57
866.86	20926.14
867.04	20602.57
867.21	20598.47
867.38	20180.68
867.56	20412.10
867.73	20383.43
867.91	20166.35
868.08	20295.37
868.25	20143.82
868.43	20027.09
868.60	19914.45
868.78	20278.99
868.95	20233.93
869.12	19959.50
869.30	20217.55
869.47	19988.18
869.64	19812.05
869.82	20256.46
869.99	20057.81
870.16	20221.64
870.34	19945.17
870.51	20076.24
870.69	19545.81
870.86	19674.84
871.03	19908.30
871.21	19793.62
871.38	19873.49
871.55	19715.80
871.73	19830.48
871.90	19549.91
872.07	19381.98
872.25	19334.87
872.42	19343.06
872.59	19404.50
872.77	19578.58
872.94	19160.80
873.11	19222.23
873.29	19183.32
873.46	19136.22
873.63	19158.75
873.81	19058.40
873.98	19371.74
874.15	18984.67
874.33	18652.90
874.50	18755.30
874.67	18740.96
874.85	18583.27
875.02	18835.17
875.19	18661.09
875.37	18640.61
875.54	18708.19
875.71	18536.17
875.88	18456.29
876.06	18437.86
876.23	18503.40
876.40	18179.82
876.58	18626.28
876.75	18427.62
876.92	18388.71
877.10	18249.45
877.27	18216.68
877.44	18214.63
877.61	18114.28
877.79	18302.70
877.96	17936.11
878.13	18081.52
878.31	17856.24
878.48	18058.99
878.65	17833.71
878.82	17870.58
879.00	17704.69
879.17	17936.11
879.34	18050.80
879.51	17710.83
879.69	17583.86
879.86	17680.11
880.03	17604.34
880.21	17620.72
880.38	17616.63
880.55	17876.72
880.72	17565.43
880.90	17583.86
881.07	17350.39
881.24	17411.83
881.41	17569.52
881.59	17295.10
881.76	17247.99
881.93	17166.07
882.10	17049.34
882.28	16994.04
882.45	17106.68
882.62	17211.13
882.79	17229.56
882.96	17000.19
883.14	17100.54
883.31	16916.22
883.48	17008.38
883.65	16975.61
883.83	17035.00
884.00	16891.65
884.17	17047.29
884.34	16891.65
884.51	16676.61
884.69	16797.44
884.86	16670.47
885.03	16846.59
885.20	16774.91
885.38	16606.98
885.55	16471.81
885.72	16602.88
885.89	16469.76
886.06	16649.99
886.24	16570.12
886.41	16682.75
886.58	16779.01
886.75	16809.73
886.92	16484.10
887.10	16905.98
887.27	16418.57
887.44	16432.90
887.61	16801.54
887.78	16584.45
887.95	16527.11
888.13	16404.23
888.30	16457.48
888.47	16215.82
888.64	16389.89
888.81	16092.94
888.99	16303.88
889.16	16074.51
889.33	15922.96
889.50	15822.61
889.67	16072.46
889.84	15976.20
890.01	15961.87
890.19	16008.97
890.36	15939.34
890.53	15992.59
890.70	15681.30
890.87	15828.75
891.04	15648.53
891.22	15607.57
891.39	15638.29
891.56	15615.76
891.73	15822.61
891.90	15642.39
892.07	15556.37
892.24	15630.10
892.42	15511.32
892.59	15568.66
892.76	15384.34
892.93	15322.90
893.10	15417.11
893.27	15306.52
893.44	15339.29
893.61	15300.37
893.79	15574.80
893.96	15277.85
894.13	15376.15
894.30	15400.72
894.47	15503.12
894.64	15521.56
894.81	15468.31
894.98	15394.58
895.15	15220.50
895.33	15296.28
895.50	15234.84
895.67	15443.73
895.84	15374.10
896.01	15114.01
896.18	14925.60
896.35	15441.68
896.52	15191.83
896.69	15159.06
896.86	15003.42
897.04	15019.80
897.21	15220.50
897.38	14862.11
897.55	15216.41
897.72	15189.78
897.89	15269.66
898.06	15173.40
898.23	15068.95
898.40	15224.60
898.57	15265.56
898.74	15126.30
898.91	15058.71
899.08	15208.22
899.26	15071.00
899.43	15197.98
899.60	15154.97
899.77	14964.51
899.94	15105.82
900.11	14929.69
900.28	15216.41
900.45	15040.28
900.62	14958.36
900.79	15050.52
900.96	14958.36
901.13	15124.25
901.30	14892.83
901.47	14851.87
901.64	15060.76
901.81	14952.22
901.98	14976.80
902.15	14974.75
902.32	14946.08
902.49	15015.71
902.66	14827.29
902.83	14954.27
903.01	14823.20
903.18	15058.71
903.35	15134.49
903.52	14892.83
903.69	14935.84
903.86	15087.39
904.03	15025.95
904.20	14937.88
904.37	15087.39
904.54	15107.87
904.71	14939.93
904.88	14829.34
905.05	14769.95
905.22	15015.71
905.39	14774.05
905.56	14763.81
905.73	14915.36
905.90	14698.27
906.07	15027.99
906.24	14765.85
906.41	14898.97
906.58	15050.52
906.75	14958.36
906.92	14880.54
907.09	14528.29
907.26	14792.48
907.43	14647.07
907.60	14847.77
907.77	14815.01
907.93	14788.38
908.10	14804.77
908.27	14538.53
908.44	14634.78
908.61	14669.60
908.78	14581.54
908.95	14708.51
909.12	14847.77
909.29	14587.68
909.46	14583.59
909.63	14663.46
909.80	14901.02
909.97	14860.06
910.14	14585.63
910.31	14878.49
910.48	14720.80
910.65	14524.19
910.82	14440.23
910.99	14546.72
911.16	14659.36
911.33	14534.43
911.50	14575.39
911.66	14204.71
911.83	14835.49
912.00	14413.60
912.17	14333.73
912.34	14272.29
912.51	14386.98
912.68	14114.60
912.85	14188.33
913.02	14266.15
913.19	14171.94
913.36	14075.69
913.53	14352.16
913.70	13979.43
913.86	14214.95
914.03	14219.05
914.20	14087.98
914.37	14423.84
914.54	14112.55
914.71	14085.93
914.88	14112.55
915.05	14116.65
915.22	13948.72
915.39	13944.62
915.55	13950.76
915.72	13944.62
915.89	13909.80
916.06	13592.37
916.23	13856.56
916.40	13772.59
916.57	13723.44
916.74	13784.88
916.91	13578.03
917.07	13444.91
917.24	13479.73
917.41	13383.48
917.58	13487.92
917.75	13303.60
917.92	13289.27
918.09	13446.96
918.26	13438.77
918.42	13389.62
918.59	13180.73
918.76	13117.24
918.93	13098.81
919.10	13152.06
919.27	13147.96
919.44	13287.22
919.60	13336.37
919.77	13074.23
919.94	12963.64
920.11	12818.24
920.28	12848.96
920.45	12750.65
920.61	12658.49
920.78	12676.93
920.95	12695.36
921.12	12656.45
921.29	12566.34
921.46	12533.57
921.62	12482.37
921.79	12410.69
921.96	12554.05
922.13	12316.48
922.30	12447.55
922.47	12431.17
922.63	12164.93
922.80	12429.12
922.97	12099.40
923.14	11956.04
923.31	12201.80
923.47	11878.22
923.64	12169.03
923.81	12144.45
923.98	11980.62
924.15	11822.92
924.32	11902.79
924.48	11876.17
924.65	11902.79
924.82	11708.24
924.99	11673.42
925.15	11669.33
925.32	11603.79
925.49	11571.02
925.66	11577.17
925.83	11345.75
925.99	11487.06
926.16	11554.64
926.33	11370.32
926.50	11194.20
926.67	11577.17
926.83	11335.51
927.00	11460.43
927.17	11374.42
927.34	11044.70
927.50	11206.48
927.67	11112.28
927.84	10975.06
928.01	11048.79
928.17	10907.48
928.34	10700.64
928.51	10831.71
928.68	10884.95
928.84	10706.78
929.01	10602.33
929.18	10524.51
929.35	10790.75
929.51	10661.73
929.68	10536.80
929.85	10301.28
930.02	10446.69
930.18	10413.92
930.35	10344.29
930.52	10352.48
930.69	10381.15
930.85	10307.43
931.02	10104.68
931.19	10254.18
931.36	10227.56
931.52	10231.65
931.69	10241.89
931.86	10047.33
932.02	9998.18
932.19	9777.00
932.36	9820.01
932.53	9901.93
932.69	9572.21
932.86	9856.87
933.03	9750.38
933.19	9516.91
933.36	9580.40
933.53	9598.83
933.70	9512.81
933.86	9525.10
934.03	9353.07
934.20	9424.75
934.36	9238.39
934.53	9215.86
934.70	9121.65
934.86	9144.18
935.03	8863.61
935.20	9045.88
935.36	8730.49
935.53	8671.10
935.70	8718.20
935.86	8675.20
936.03	8722.30
936.20	8351.62
936.36	8650.62
936.53	8456.06
936.70	8343.42
936.86	8562.56
937.03	8425.34
937.20	8171.40
937.36	8056.71
937.53	7913.35
937.70	7974.79
937.86	7991.17
938.03	7939.97
938.20	7669.64
938.36	7643.02
938.53	7624.59
938.70	7438.22
938.86	7405.46
939.03	7169.94
939.20	7194.51
939.36	7208.85
939.53	7180.18
939.70	7354.26
939.86	6995.86
940.03	6946.71
940.19	6770.58
940.36	6789.02
940.53	6893.46
940.69	6616.99
940.86	6635.42
941.03	6367.13
941.19	6277.02
941.36	6340.51
941.52	6356.90
941.69	6107.04
941.86	6168.48
942.02	6123.43
942.19	5945.25
942.35	6027.17
942.52	5926.82
942.69	5947.30
942.85	5791.66
943.02	5801.90
943.18	5916.58
943.35	5656.49
943.52	5697.45
943.68	5734.31
943.85	5816.23
944.01	5543.85
944.18	5578.67
944.35	5642.15
944.51	5414.83
944.68	5484.46
944.84	5377.97
945.01	5418.93
945.17	5453.74
945.34	5396.40
945.51	5496.75
945.67	5318.57
945.84	5384.11
946.00	5277.62
946.17	5310.38
946.33	5261.23
946.50	5263.28
946.67	5392.30
946.83	5234.61
947.00	5480.36
947.16	5427.12
947.33	5363.63
947.49	5398.45
947.66	5162.93
947.82	5197.74
947.99	5210.03
948.16	5205.94
948.32	5210.03
948.49	5304.24
948.65	5263.28
948.82	5259.18
948.98	5257.14
949.15	5214.13
949.31	5437.36
949.48	5255.09
949.64	5246.90
949.81	5273.52
949.97	5138.35
950.14	5347.25
950.30	5244.85
950.47	5343.15
950.63	5287.86
950.80	5429.17
950.96	5271.47
951.13	5271.47
951.30	5316.53
951.46	5242.80
951.63	5423.02
951.79	5316.53
951.96	5451.69
952.12	5414.83
952.29	5236.66
952.45	5199.79
952.62	5478.32
952.78	5300.14
952.94	5478.32
953.11	5345.20
953.27	5287.86
953.44	5447.60
953.60	5388.21
953.77	5463.98
953.93	5449.64
954.10	5351.34
954.26	5392.30
954.43	5308.34
954.59	5339.05
954.76	5550.00
954.92	5339.05
955.09	5490.60
955.25	5439.40
955.42	5351.34
955.58	5496.75
955.75	5322.67
955.91	5410.73
956.07	5334.96
956.24	5492.65
956.40	5353.39
956.57	5420.97
956.73	5390.25
956.90	5576.62
957.06	5513.13
957.23	5345.20
957.39	5484.46
957.56	5447.60
957.72	5398.45
957.88	5334.96
958.05	5572.52
958.21	5406.64
958.38	5447.60
958.54	5511.08
958.71	5558.19
958.87	5488.56
959.03	5382.06
959.20	5552.04
959.36	5294.00
959.53	5330.86
959.69	5437.36
959.85	5461.93
960.02	5468.08
960.18	5453.74
960.35	5439.40
960.51	5490.60
960.68	5353.39
960.84	5511.08
961.00	5367.73
961.17	5539.76
961.33	5459.88
961.50	5433.26
961.66	5558.19
961.82	5439.40
961.99	5486.51
962.15	5445.55
962.31	5330.86
962.48	5441.45
962.64	5504.94
962.81	5423.02
962.97	5414.83
963.13	5515.18
963.30	5425.07
963.46	5216.18
963.62	5318.57
963.79	5416.88
963.95	5318.57
964.12	5318.57
964.28	5492.65
964.44	5371.82
964.61	5361.58
964.77	5218.22
964.93	5492.65
965.10	5349.29
965.26	5357.49
965.42	5420.97
965.59	5250.99
965.75	5373.87
965.92	5240.75
966.08	5398.45
966.24	5314.48
966.41	5257.14
966.57	5210.03
966.73	5269.42
966.90	5365.68
967.06	5195.70
967.22	5181.36
967.39	5224.37
967.55	5197.74
967.71	5214.13
967.88	5185.46
968.04	5181.36
968.20	5134.26
968.37	5091.25
968.53	5218.22
968.69	5296.05
968.85	5138.35
969.02	5347.25
969.18	5271.47
969.34	5228.46
969.51	5199.79
969.67	5246.90
969.83	4956.08
970.00	5339.05
970.16	5093.30
970.32	5171.12
970.48	5150.64
970.65	5093.30
970.81	5009.33
970.97	5046.20
971.14	5003.19
971.30	5115.83
971.46	5056.43
971.63	4970.42
971.79	5003.19
971.95	5070.77
972.11	5058.48
972.28	5003.19
972.44	4972.47
972.60	4968.37
972.76	5056.43
972.93	4861.88
973.09	5070.77
973.25	5007.28
973.42	4906.93
973.58	4964.28
973.74	4956.08
973.90	4960.18
974.07	4902.84
974.23	4927.41
974.39	4855.73
974.55	4857.78
974.72	4794.29
974.88	4685.75
975.04	4782.01
975.20	4882.36
975.37	4908.98
975.53	4765.62
975.69	4829.11
975.85	4771.77
976.01	4726.71
976.18	4722.62
976.34	4693.94
976.50	4782.01
976.66	4769.72
976.83	4730.81
976.99	4741.05
977.15	4706.23
977.31	4636.60
977.47	4671.42
977.64	4718.52
977.80	4691.90
977.96	4622.27
978.12	4642.75
978.29	4736.95
978.45	4626.36
978.61	4636.60
978.77	4747.19
978.93	4554.68
979.10	4609.98
979.26	4505.53
979.42	4630.46
979.58	4546.49
979.74	4472.76
979.91	4464.57
980.07	4392.89
980.23	4476.86
980.39	4372.41
980.55	4534.20
980.71	4501.44
980.88	4331.45
981.04	4489.15
981.20	4401.08
981.36	4534.20
981.52	4460.48
981.68	4298.69
981.85	4407.23
982.01	4270.01
982.17	4353.98
982.33	4243.39
982.49	4519.87
982.65	4378.56
982.82	4374.46
982.98	4276.16
983.14	4288.45
983.30	4462.52
983.46	4509.63
983.62	4487.10
983.79	4165.57
983.95	4282.30
984.11	4276.16
984.27	4257.73
984.43	4345.79
984.59	4163.52
984.75	4280.25
984.91	4145.09
985.08	4200.38
985.24	4118.47
985.40	4124.61
985.56	4222.91
985.72	4233.15
985.88	4081.60
986.04	4165.57
986.20	3999.68
986.37	4120.51
986.53	4075.46
986.69	4190.14
986.85	4067.27
987.01	4095.94
987.17	4104.13
987.33	3944.39
987.49	3936.20
987.65	4083.65
987.82	4120.51
987.98	3928.00
988.14	3989.44
988.30	4059.07
988.46	3991.49
988.62	3983.30
988.78	3987.40
988.94	3964.87
989.10	3913.67
989.26	3876.80
989.42	3983.30
989.59	3905.48
989.75	3917.76
989.91	3805.13
990.07	3755.97
990.23	3870.66
990.39	3821.51
990.55	3909.57
990.71	3915.72
990.87	3852.23
991.03	3874.76
991.19	3815.37
991.35	3774.41
991.51	3827.65
991.67	3831.75
991.83	3835.85
992.00	3647.43
992.16	3825.61
992.32	3776.45
992.48	3985.35
992.64	3735.50
992.80	3710.92
992.96	3846.09
993.12	3745.73
993.28	3665.86
993.44	3805.13
993.60	3784.65
993.76	3702.73
993.92	3725.26
994.08	3674.06
994.24	3610.57
994.40	3741.64
994.56	3620.81
994.72	3510.22
994.88	3506.12
995.04	3504.07
995.20	3598.28
995.36	3456.97
995.52	3647.43
995.68	3669.96
995.84	3516.36
996.00	3694.54
996.16	3426.25
996.32	3608.52
996.48	3467.21
996.64	3585.99
996.80	3499.98
996.96	3600.33
997.12	3493.83
997.28	3502.03
997.44	3393.48
997.60	3471.31
997.76	3368.91
997.92	3424.20
998.08	3504.07
998.24	3323.85
998.40	3381.20
998.56	3393.48
998.72	3465.16
998.88	3284.94
999.04	3366.86
999.20	3377.10
999.36	3284.94
999.52	3411.92
999.68	3401.68
999.84	3370.96
1000.00	3293.13
1000.16	3246.03
1000.32	3258.32
1000.48	3397.58
1000.64	3315.66
1000.80	3168.21
1000.95	3225.55
1001.11	3266.51
1001.27	3178.45
1001.43	3358.67
1001.59	3117.01
1001.75	3133.39
1001.91	3311.57
1002.07	3139.54
1002.23	3188.69
1002.39	3061.71
1002.55	3205.07
1002.71	3149.78
1002.87	3090.38
1003.03	3137.49
1003.19	3061.71
1003.34	3129.30
1003.50	3102.67
1003.66	3084.24
1003.82	3112.91
1003.98	2942.93
1004.14	3098.58
1004.30	3147.73
1004.46	3063.76
1004.62	3063.76
1004.78	3051.47
1004.94	3018.71
1005.09	3180.50
1005.25	3117.01
1005.41	2967.51
1005.57	2940.88
1005.73	3035.09
1005.89	2944.98
1006.05	3024.85
1006.21	2985.94
1006.37	2932.69
1006.52	3035.09
1006.68	2871.25
1006.84	3043.28
1007.00	2953.17
1007.16	2967.51
1007.32	2863.06
1007.48	2928.60
1007.64	2836.44
1007.79	2895.83
1007.95	2852.82
1008.11	2955.22
1008.27	2908.12
1008.43	2924.50
1008.59	2854.87
1008.75	2934.74
1008.91	2887.64
1009.06	2832.34
1009.22	2922.45
1009.38	2895.83
1009.54	2863.06
1009.70	2838.48
1009.86	2854.87
1010.01	2826.20
1010.17	2748.37
1010.33	2936.79
1010.49	2719.70
1010.65	2830.29
1010.81	2709.46
1010.96	2846.68
1011.12	2680.79
1011.28	2756.57
1011.44	2815.96
1011.60	2797.53
1011.76	2707.41
1011.91	2742.23
1012.07	2670.55
1012.23	2654.17
1012.39	2701.27
1012.55	2768.85
1012.71	2707.41
1012.86	2617.30
1013.02	2680.79
1013.18	2672.60
1013.34	2666.46
1013.50	2625.50
1013.65	2617.30
1013.81	2490.33
1013.97	2662.36
1014.13	2639.83
1014.29	2613.21
1014.44	2654.17
1014.60	2633.69
1014.76	2607.06
1014.92	2576.34
1015.07	2660.31
1015.23	2619.35
1015.39	2512.86
1015.55	2461.66
1015.71	2596.82
1015.86	2541.53
1016.02	2480.09
1016.18	2510.81
1016.34	2576.34
1016.49	2564.06
1016.65	2660.31
1016.81	2504.67
1016.97	2455.51
1017.12	2508.76
1017.28	2455.51
1017.44	2457.56
1017.60	2467.80
1017.75	2545.63
1017.91	2508.76
1018.07	2457.56
1018.23	2519.00
1018.38	2414.56
1018.54	2387.93
1018.70	2394.08
1018.86	2396.12
1019.01	2443.23
1019.17	2342.88
1019.33	2435.03
1019.49	2394.08
1019.64	2400.22
1019.80	2484.19
1019.96	2478.04
1020.12	2379.74
1020.27	2416.60
1020.43	2394.08
1020.59	2492.38
1020.74	2402.27
1020.90	2428.89
1021.06	2361.31
1021.22	2369.50
1021.37	2342.88
1021.53	2303.96
1021.69	2367.45
1021.84	2254.81
1022.00	2340.83
1022.16	2312.16
1022.31	2295.77
1022.47	2369.50
1022.63	2371.55
1022.79	2207.71
1022.94	2299.87
1023.10	2371.55
1023.26	2215.90
1023.41	2265.05
1023.57	2271.20
1023.73	2340.83
1023.88	2320.35
1024.04	2328.54
1024.20	2267.10
1024.35	2297.82
1024.51	2295.77
1024.67	2230.24
1024.82	2287.58
1024.98	2209.76
1025.14	2224.09
1025.29	2213.85
1025.45	2248.67
1025.61	2154.46
1025.76	2154.46
1025.92	2295.77
1026.08	2215.90
1026.23	2254.81
1026.39	2215.90
1026.55	2254.81
1026.70	2172.89
1026.86	2183.13
1027.02	2217.95
1027.17	2170.85
1027.33	2197.47
1027.48	2185.18
1027.64	2127.84
1027.80	2117.60
1027.95	2220.00
1028.11	2084.83
1028.27	2156.51
1028.42	2148.32
1028.58	2133.98
1028.73	2113.50
1028.89	2045.92
1029.05	2187.23
1029.20	2191.33
>>>>>End Processed Spectral Data<<<<<
