SpectraSuite Data File
++++++++++++++++++++++++++++++++++++
Date: Fri Jun 02 14:49:29 CEST 2017
User: INFO_000
Dark Spectrum Present: No
Reference Spectrum Present: No
Number of Sampled Component Spectra: 1
Spectrometers: USB4H00879
Integration Time (usec): 80000 (USB4H00879)
Spectra Averaged: 1 (USB4H00879)
Boxcar Smoothing: 0 (USB4H00879)
Correct for Electrical Dark: No (USB4H00879)
Strobe/Lamp Enabled: No (USB4H00879)
Correct for Detector Non-linearity: No (USB4H00879)
Correct for Stray Light: No (USB4H00879)
Number of Pixels in Processed Spectrum: 3648
>>>>>Begin Processed Spectral Data<<<<<
345.13	1298.41
345.34	1298.41
345.56	1298.41
345.78	1288.17
345.99	1230.83
346.21	1728.49
346.42	1673.19
346.64	1648.61
346.86	1822.69
347.07	1632.23
347.29	1773.54
347.50	1695.72
347.72	1669.09
347.94	1724.39
348.15	1601.51
348.37	1638.38
348.59	1742.82
348.80	1658.85
349.02	1746.92
349.23	1886.18
349.45	1804.26
349.67	1937.38
349.88	1753.06
350.10	1882.08
350.31	1832.93
350.53	1824.74
350.75	1947.62
350.96	1802.21
351.18	1937.38
351.39	1863.65
351.61	1884.13
351.82	1877.99
352.04	1822.69
352.26	1877.99
352.47	1923.04
352.69	1880.04
352.90	1697.77
353.12	1826.79
353.34	1843.17
353.55	1853.41
353.77	1888.23
353.98	1880.04
354.20	1777.64
354.41	1953.76
354.63	1941.47
354.85	2052.06
355.06	1910.75
355.28	1828.84
355.49	1824.74
355.71	1896.42
355.92	1789.92
356.14	1929.19
356.35	1814.50
356.57	1927.14
356.79	1918.95
357.00	1863.65
357.22	1970.15
357.43	1843.17
357.65	1961.95
357.86	1925.09
358.08	1867.75
358.29	2084.83
358.51	1927.14
358.72	2007.01
358.94	1918.95
359.16	1923.04
359.37	1953.76
359.59	1955.81
359.80	1902.56
360.02	1929.19
360.23	1976.29
360.45	1986.53
360.66	1896.42
360.88	1830.88
361.09	1910.75
361.31	1951.71
361.52	1912.80
361.74	2031.58
361.95	2062.30
362.17	2015.20
362.38	2052.06
362.60	2037.73
362.81	1892.32
363.03	1955.81
363.24	1976.29
363.46	2019.30
363.67	1982.43
363.89	2000.87
364.10	2004.96
364.32	1953.76
364.53	2043.87
364.75	1853.41
364.96	2064.35
365.18	1984.48
365.39	2002.91
365.61	1912.80
365.82	2166.75
366.04	2015.20
366.25	1961.95
366.47	2082.78
366.68	2031.58
366.90	1949.67
367.11	2070.50
367.33	2090.98
367.54	1984.48
367.76	2031.58
367.97	2052.06
368.19	2037.73
368.40	2093.02
368.62	1906.66
368.83	1982.43
369.05	2074.59
369.26	1966.05
369.48	1929.19
369.69	2029.54
369.91	2007.01
370.12	2052.06
370.33	2101.22
370.55	1959.91
370.76	2062.30
370.98	2062.30
371.19	2027.49
371.41	1996.77
371.62	2019.30
371.84	2041.82
372.05	2160.61
372.27	2033.63
372.48	2017.25
372.69	2131.94
372.91	2029.54
373.12	2138.08
373.34	2082.78
373.55	2107.36
373.77	2166.75
373.98	2133.98
374.20	2127.84
374.41	2191.33
374.62	2113.50
374.84	2201.57
375.05	2160.61
375.27	2082.78
375.48	2162.66
375.70	2140.13
375.91	2156.51
376.12	2242.53
376.34	2220.00
376.55	2140.13
376.77	2207.71
376.98	2138.08
377.19	2160.61
377.41	2133.98
377.62	2209.76
377.84	2230.24
378.05	2351.07
378.27	2230.24
378.48	2248.67
378.69	2381.79
378.91	2353.12
379.12	2242.53
379.34	2244.57
379.55	2273.25
379.76	2289.63
379.98	2215.90
380.19	2174.94
380.41	2289.63
380.62	2275.29
380.83	2179.04
381.05	2207.71
381.26	2396.12
381.47	2310.11
381.69	2301.92
381.90	2389.98
382.12	2320.35
382.33	2277.34
382.54	2353.12
382.76	2265.05
382.97	2316.25
383.19	2252.77
383.40	2330.59
383.61	2344.92
383.83	2273.25
384.04	2273.25
384.25	2420.70
384.47	2379.74
384.68	2320.35
384.89	2314.20
385.11	2306.01
385.32	2314.20
385.54	2371.55
385.75	2297.82
385.96	2408.41
386.18	2447.32
386.39	2394.08
386.60	2439.13
386.82	2447.32
387.03	2328.54
387.24	2480.09
387.46	2418.65
387.67	2514.91
387.88	2533.34
388.10	2457.56
388.31	2412.51
388.52	2574.30
388.74	2525.15
388.95	2551.77
389.16	2475.99
389.38	2492.38
389.59	2611.16
389.80	2678.74
390.02	2432.99
390.23	2658.26
390.44	2547.67
390.66	2510.81
390.87	2537.43
391.08	2615.26
391.30	2740.18
391.51	2586.58
391.72	2596.82
391.94	2650.07
392.15	2602.97
392.36	2576.34
392.58	2582.49
392.79	2666.46
393.00	2676.70
393.22	2723.80
393.43	2693.08
393.64	2770.90
393.85	2809.81
394.07	2744.28
394.28	2637.78
394.49	2672.60
394.71	2789.33
394.92	2734.04
395.13	2715.61
395.35	2684.89
395.56	2678.74
395.77	2727.89
395.98	2746.33
396.20	2844.63
396.41	2789.33
396.62	2811.86
396.84	2813.91
397.05	2818.00
397.26	2973.65
397.47	2961.36
397.69	2809.81
397.90	2922.45
398.11	2940.88
398.32	2826.20
398.54	2799.57
398.75	2852.82
398.96	2893.78
399.18	3039.19
399.39	2834.39
399.60	3022.80
399.81	2924.50
400.03	2908.12
400.24	3360.72
400.45	3055.57
400.66	2928.60
400.88	3006.42
401.09	3231.69
401.30	3000.27
401.51	3178.45
401.73	3094.48
401.94	3014.61
402.15	3098.58
402.36	3121.10
402.58	3117.01
402.79	3166.16
403.00	3196.88
403.21	3166.16
403.43	3276.75
403.64	3221.45
403.85	3061.71
404.06	3229.65
404.27	3182.54
404.49	3190.74
404.70	3200.98
404.91	3258.32
405.12	3211.22
405.34	3286.99
405.55	3268.56
405.76	3207.12
405.97	3282.89
406.19	3395.53
406.40	3301.33
406.61	3254.22
406.82	3254.22
407.03	3299.28
407.25	3123.15
407.46	3379.15
407.67	3379.15
407.88	3411.92
408.09	3430.35
408.31	3450.83
408.52	3416.01
408.73	3297.23
408.94	3340.24
409.15	3481.55
409.37	3502.03
409.58	3540.94
409.79	3514.31
410.00	3641.29
410.21	3399.63
410.43	3520.46
410.64	3358.67
410.85	3549.13
411.06	3508.17
411.27	3532.75
411.48	3547.08
411.70	3598.28
411.91	3491.79
412.12	3702.73
412.33	3592.14
412.54	3547.08
412.76	3616.71
412.97	3553.23
413.18	3663.82
413.39	3549.13
413.60	3696.58
413.81	3655.62
414.03	3559.37
414.24	3573.71
414.45	3809.22
414.66	3581.90
414.87	3770.31
415.08	3766.21
415.30	3696.58
415.51	3737.54
415.72	3575.75
415.93	3729.35
416.14	3762.12
416.35	3837.89
416.56	3819.46
416.78	3696.58
416.99	3958.72
417.20	3790.79
417.41	3837.89
417.62	3901.38
417.83	3923.91
418.04	3905.48
418.26	3907.52
418.47	3846.09
418.68	3860.42
418.89	3981.25
419.10	4134.85
419.31	3913.67
419.52	3956.68
419.73	4009.92
419.95	4149.18
420.16	3901.38
420.37	4054.98
420.58	3977.16
420.79	3993.54
421.00	4040.64
421.21	4108.23
421.42	4122.56
421.63	4173.76
421.85	4075.46
422.06	4222.91
422.27	4184.00
422.48	4202.43
422.69	4270.01
422.90	4063.17
423.11	4216.77
423.32	4206.53
423.53	4390.84
423.75	4313.02
423.96	4452.28
424.17	4376.51
424.38	4493.24
424.59	4444.09
424.80	4497.34
425.01	4403.13
425.22	4480.96
425.43	4415.42
425.64	4616.12
425.85	4644.79
426.06	4616.12
426.28	4437.95
426.49	4593.59
426.70	4466.62
426.91	4419.52
427.12	4720.57
427.33	4634.55
427.54	4626.36
427.75	4884.41
427.96	4693.94
428.17	4741.05
428.38	4681.66
428.59	4808.63
428.80	4786.10
429.01	4820.92
429.23	4822.97
429.44	5099.44
429.65	4929.46
429.86	4820.92
430.07	4929.46
430.28	4820.92
430.49	4978.61
430.70	5066.67
430.91	4966.32
431.12	5001.14
431.33	5111.73
431.54	5109.68
431.75	5072.82
431.96	5074.87
432.17	5124.02
432.38	4990.90
432.59	5275.57
432.80	5207.98
433.01	5201.84
433.22	5269.42
433.43	5322.67
433.64	5195.70
433.85	5324.72
434.06	5357.49
434.27	5320.62
434.49	5279.66
434.70	5533.61
434.91	5334.96
435.12	5412.78
435.33	5392.30
435.54	5398.45
435.75	5334.96
435.96	5287.86
436.17	5341.10
436.38	5494.70
436.59	5566.38
436.80	5801.90
437.01	5728.17
437.22	5691.31
437.43	5615.53
437.64	5431.21
437.85	5785.51
438.06	5672.87
438.27	5607.34
438.48	5502.89
438.69	5775.27
438.90	5740.46
439.11	5525.42
439.32	5949.35
439.53	5836.71
439.74	5865.38
439.95	5830.57
440.16	5836.71
440.37	5922.73
440.57	5801.90
440.78	5836.71
440.99	5900.20
441.20	5922.73
441.41	5896.10
441.62	5943.21
441.83	5685.16
442.04	6074.28
442.25	5959.59
442.46	5859.24
442.67	6076.32
442.88	6422.43
443.09	5820.33
443.30	5898.15
443.51	5975.97
443.72	6309.79
443.93	6094.76
444.14	6414.24
444.35	6066.08
444.56	6158.24
444.77	6141.86
444.98	6201.25
445.19	6248.35
445.40	6352.80
445.61	6285.22
445.81	6533.02
446.02	6457.25
446.23	6363.04
446.44	6328.22
446.65	6401.95
446.86	6401.95
447.07	6526.88
447.28	6776.73
447.49	6594.46
447.70	6463.39
447.91	6604.70
448.12	6645.66
448.33	6684.57
448.54	6883.22
448.74	6559.64
448.95	6588.32
449.16	6598.56
449.37	6959.00
449.58	6666.14
449.79	6977.43
450.00	6537.12
450.21	6809.50
450.42	6934.42
450.63	6743.96
450.84	6827.93
451.05	6913.94
451.25	6801.30
451.46	6928.28
451.67	7088.02
451.88	7096.21
452.09	7094.16
452.30	7135.12
452.51	7053.20
452.72	7184.27
452.93	7442.32
453.13	7176.08
453.34	7096.21
453.55	7186.32
453.76	7298.96
453.97	7602.06
454.18	7432.08
454.39	7470.99
454.60	7401.36
454.81	7491.47
455.01	7665.55
455.22	7423.89
455.43	7604.11
455.64	7767.95
455.85	7810.95
456.06	7927.69
456.27	7804.81
456.48	7700.36
456.68	7860.10
456.89	8046.47
457.10	7993.22
457.31	7823.24
457.52	7921.54
457.73	7952.26
457.94	8142.72
458.14	7843.72
458.35	8306.56
458.56	8232.83
458.77	8064.90
458.98	8368.00
459.19	8122.24
459.39	8454.02
459.60	8583.04
459.81	8216.45
460.02	8542.08
460.23	8613.76
460.44	8818.55
460.65	8701.82
460.85	8570.75
461.06	8753.02
461.27	8490.88
461.48	8861.56
461.69	9021.30
461.89	8611.71
462.10	8931.19
462.31	8671.10
462.52	8894.33
462.73	8896.38
462.94	9158.52
463.14	9013.11
463.35	9125.75
463.56	9588.59
463.77	9359.22
463.98	9299.83
464.18	9133.94
464.39	9490.29
464.60	9604.97
464.81	9564.01
465.02	9500.53
465.23	9801.58
465.43	9480.05
465.64	9740.14
465.85	9850.73
466.06	9637.74
466.27	10014.57
466.47	9729.90
466.68	9987.94
466.89	9928.55
467.10	10217.32
467.30	10008.42
467.51	10110.82
467.72	10497.89
467.93	10100.58
468.14	10241.89
468.34	10465.12
468.55	10495.84
468.76	10465.12
468.97	10379.11
469.17	10819.42
469.38	10690.40
469.59	10841.95
469.80	10497.89
470.01	10839.90
470.21	10870.62
470.42	10907.48
470.63	11235.16
470.84	10958.68
471.04	11272.02
471.25	10983.26
471.46	11218.77
471.67	11427.67
471.87	11251.54
472.08	11691.85
472.29	11589.46
472.50	11323.22
472.70	11505.49
472.91	11640.65
473.12	11945.80
473.33	11999.05
473.53	11951.95
473.74	11986.76
473.95	12179.27
474.16	12220.23
474.36	12107.59
474.57	12242.76
474.78	12560.19
474.99	12490.56
475.19	12506.95
475.40	12822.33
475.61	12799.80
475.81	12758.85
476.02	13057.85
476.23	12922.68
476.44	13156.15
476.64	13406.00
476.85	13389.62
477.06	13293.37
477.27	13647.66
477.47	13614.90
477.68	13573.94
477.89	13774.64
478.09	13713.20
478.30	13666.10
478.51	13893.42
478.71	14051.11
478.92	14212.90
479.13	14192.42
479.34	14321.45
479.54	14415.65
479.75	14503.71
479.96	14692.13
480.16	14608.16
480.37	14366.50
480.58	14927.64
480.78	14978.84
480.99	14823.20
481.20	15040.28
481.41	15253.27
481.61	15314.71
481.82	15400.72
482.03	15238.94
482.23	15363.86
482.44	15699.73
482.65	15822.61
482.85	15638.29
483.06	15888.14
483.27	15732.50
483.47	15798.03
483.68	15875.85
483.89	16209.67
484.09	16008.97
484.30	16211.72
484.51	16633.60
484.71	16869.12
484.92	16275.21
485.13	17055.48
485.33	16928.51
485.54	16887.55
485.75	17098.49
485.95	17200.89
486.16	17010.43
486.37	17415.93
486.57	17151.74
486.78	17364.73
486.98	17479.41
487.19	17444.60
487.40	17598.20
487.60	17790.70
487.81	18147.05
488.02	17893.10
488.22	17917.68
488.43	18102.00
488.64	18124.52
488.84	18476.77
489.05	18511.59
489.25	18247.40
489.46	18562.79
489.67	18781.92
489.87	18980.57
490.08	19029.73
490.29	19179.23
490.49	19181.28
490.70	19277.53
490.90	19365.59
491.11	19359.45
491.32	19648.21
491.52	19478.23
491.73	19525.33
491.94	19789.52
492.14	19902.16
492.35	19955.41
492.55	20158.16
492.76	20186.83
492.97	20063.95
493.17	20113.10
493.38	20387.53
493.58	20510.41
493.79	20418.25
494.00	20436.68
494.20	20676.29
494.41	20594.37
494.61	20881.09
494.82	21155.52
495.02	21046.97
495.23	21190.33
495.44	21028.54
495.64	21204.67
495.85	21372.60
496.05	21690.04
496.26	21333.69
496.47	21958.32
496.67	21675.70
496.88	21812.92
497.08	21493.43
497.29	22089.39
497.49	21984.94
497.70	22281.90
497.91	22507.18
498.11	22175.41
498.32	22470.31
498.52	22539.94
498.73	22841.00
498.93	22666.92
499.14	22744.74
499.34	22800.04
499.55	22937.25
499.76	22890.15
499.96	23137.95
500.17	22902.43
500.37	22849.19
500.58	23344.80
500.78	23393.95
500.99	23223.97
501.19	23733.91
501.40	23385.76
501.60	23305.88
501.81	23725.72
502.02	23561.88
502.22	23662.23
502.43	23803.54
502.63	24057.49
502.84	23961.23
503.04	24198.80
503.25	24182.42
503.45	24379.02
503.66	24510.09
503.86	24288.91
504.07	24354.44
504.27	24376.97
504.48	24897.16
504.68	24735.37
504.89	25097.86
505.09	24772.23
505.30	24645.26
505.50	24770.18
505.71	25056.90
505.91	25122.43
506.12	25005.70
506.32	25200.26
506.53	25405.05
506.73	25278.08
506.94	25509.50
507.14	25425.53
507.35	25433.72
507.55	25835.13
507.76	25755.26
507.96	25378.43
508.17	25765.49
508.37	25525.88
508.58	25693.82
508.78	25898.61
508.99	26250.86
509.19	25910.90
509.40	25859.70
509.60	25925.24
509.81	26590.83
510.01	26101.36
510.22	26218.10
510.42	26529.39
510.63	26383.98
510.83	26381.93
511.04	26115.70
511.24	26318.45
511.44	26717.80
511.65	26783.34
511.85	26664.55
512.06	26553.96
512.26	26682.98
512.47	27141.73
512.67	26930.79
512.88	26977.89
513.08	26797.67
513.29	27096.67
513.49	27035.24
513.69	26902.12
513.90	27149.92
514.10	27311.71
514.31	27156.07
514.51	27426.40
514.72	27367.01
514.92	27336.29
515.13	27426.40
515.33	27670.11
515.53	27547.23
515.74	27496.03
515.94	27745.88
516.15	27805.27
516.35	27653.72
516.56	27649.63
516.76	28018.26
516.96	28098.13
517.17	28087.89
517.37	28032.60
517.58	28046.93
517.78	28247.63
517.99	27967.06
518.19	28354.13
518.39	28622.41
518.60	28464.72
518.80	28247.63
519.01	28587.60
519.21	28350.03
519.41	28595.79
519.62	28399.18
519.82	28452.43
520.03	28814.92
520.23	28831.30
520.43	28526.16
520.64	28886.60
520.84	29070.92
521.05	29281.86
521.25	29650.49
521.45	29374.02
521.66	29515.33
521.86	29404.74
522.07	29437.50
522.27	29558.33
522.47	29445.69
522.68	29949.50
522.88	29951.54
523.08	30084.66
523.29	29840.95
523.49	30092.85
523.70	29949.50
523.90	30457.39
524.10	30266.93
524.31	30402.10
524.51	30160.44
524.71	30508.59
524.92	30367.28
525.12	30821.93
525.33	30424.62
525.53	30729.77
525.73	30584.37
525.94	30721.58
526.14	31110.69
526.34	31165.99
526.55	30967.34
526.75	31143.46
526.95	31614.49
527.16	31198.76
527.36	31200.80
527.56	31276.58
527.77	31962.65
527.97	31739.42
528.17	31860.25
528.38	31692.32
528.58	31692.32
528.78	31686.17
528.99	31880.73
529.19	32087.57
529.39	32022.04
529.60	32222.74
529.80	32024.09
530.00	32427.54
530.21	32540.18
530.41	32773.64
530.61	32478.74
530.82	32669.20
531.02	32663.05
531.22	32945.67
531.43	32906.76
531.63	32810.51
531.83	33459.71
532.04	33521.15
532.24	33414.66
532.44	33537.54
532.64	33560.06
532.85	33568.26
533.05	33867.26
533.25	33891.83
533.46	33607.17
533.66	34074.10
533.86	33760.76
534.07	34123.26
534.27	34567.66
534.47	34137.59
534.67	34588.14
534.88	34270.71
535.08	34616.82
535.28	34983.40
535.49	35102.18
535.69	35112.42
535.89	35001.83
536.09	35018.22
536.30	35483.11
536.50	35270.12
536.70	35128.81
536.91	35286.50
537.11	35526.11
537.31	35673.57
537.51	35452.39
537.72	35902.94
537.92	35982.81
538.12	36216.28
538.32	35929.56
538.53	36421.08
538.73	35892.70
538.93	36267.48
539.13	36439.51
539.34	36378.07
539.54	36494.80
539.74	36826.57
539.94	36859.34
540.15	36640.21
540.35	36982.22
540.55	36720.08
540.75	36681.17
540.96	36961.74
541.16	36900.30
541.36	37238.22
541.56	37146.06
541.77	37369.29
541.97	37248.46
542.17	37354.95
542.37	37672.39
542.58	37918.14
542.78	37473.73
542.98	38049.21
543.18	37957.05
543.38	38174.14
543.59	38272.44
543.79	38378.93
543.99	38090.17
544.19	38122.94
544.40	38002.11
544.60	38172.09
544.80	38481.33
545.00	38303.16
545.20	38825.39
545.41	38532.53
545.61	38651.31
545.81	39153.07
546.01	38991.28
546.21	39151.02
546.42	38933.93
546.62	39392.68
546.82	39267.75
547.02	39474.60
547.22	39294.38
547.43	39372.20
547.63	39503.27
547.83	39853.47
548.03	39499.17
548.23	39876.00
548.44	39888.29
548.64	39728.55
548.84	39998.88
549.04	39486.89
549.24	40168.86
549.45	40039.84
549.65	40027.55
549.85	40394.14
550.05	40351.13
550.25	40271.26
550.45	40572.31
550.66	40545.69
550.86	40256.92
551.06	40691.09
551.26	40224.15
551.46	40492.44
551.66	40832.40
551.87	40445.33
552.07	40949.14
552.27	41065.87
552.47	40998.29
552.67	40773.01
552.87	40768.91
553.07	41352.58
553.28	41231.75
553.48	41076.11
553.68	41227.66
553.88	41338.25
554.08	41483.66
554.28	41260.43
554.48	41096.59
554.69	41506.18
554.89	41371.02
555.09	41547.14
555.29	41614.72
555.49	41825.67
555.69	41555.33
555.89	41723.27
556.10	41981.31
556.30	41747.84
556.50	41915.78
556.70	41588.10
556.90	42020.22
557.10	41950.59
557.30	41751.94
557.50	42370.43
557.70	42294.65
557.91	42464.63
558.11	42405.24
558.31	42534.26
558.51	42474.87
558.71	42853.75
558.91	42800.50
559.11	42448.25
559.31	42497.40
559.51	42612.09
559.72	42112.38
559.92	42495.35
560.12	42589.56
560.32	42833.27
560.52	42507.64
560.72	43068.78
560.92	43005.30
561.12	43013.49
561.32	43595.11
561.52	42876.27
561.72	43330.92
561.93	42728.82
562.13	43089.26
562.33	42653.05
562.53	43730.28
562.73	42929.52
562.93	43484.52
563.13	43398.51
563.33	42974.58
563.53	43648.36
563.73	43124.08
563.93	43316.59
564.13	44137.82
564.33	43593.06
564.53	43787.62
564.74	43793.76
564.94	43273.58
565.14	43877.73
565.34	43496.81
565.54	44021.09
565.74	44070.24
565.94	44164.45
566.14	43701.61
566.34	43742.56
566.54	44436.83
566.74	43599.21
566.94	44442.97
567.14	44252.51
567.34	43898.21
567.54	44225.89
567.74	43998.56
567.94	44250.46
568.14	44297.56
568.34	44586.33
568.54	44410.20
568.74	44469.59
568.94	43896.16
569.14	44907.86
569.34	44481.88
569.54	44754.26
569.75	44047.71
569.95	44739.93
570.15	44959.06
570.35	44610.90
570.55	44424.54
570.75	44959.06
570.95	44768.60
571.15	44926.29
571.35	44959.06
571.55	45045.07
571.75	45026.64
571.95	45237.58
572.15	45010.26
572.35	45143.38
572.55	44721.49
572.75	44846.42
572.95	44799.32
573.15	45309.26
573.35	45184.33
573.55	45022.54
573.75	45032.78
573.95	45315.40
574.15	45110.61
574.35	45239.63
574.55	45436.23
574.75	45577.54
574.95	45458.76
575.15	45241.68
575.34	45569.35
575.54	45460.81
575.74	45942.08
575.94	45585.74
576.14	45669.70
576.34	45827.40
576.54	46052.67
576.74	45974.85
576.94	46009.67
577.14	46144.83
577.34	46331.20
577.54	45585.74
577.74	45655.37
577.94	46148.93
578.14	46417.21
578.34	46392.64
578.54	45681.99
578.74	45962.56
578.94	46191.94
579.14	46157.12
579.34	46288.19
579.54	46869.81
579.74	46404.92
579.94	46685.50
580.13	46669.11
580.33	46748.98
580.53	46593.34
580.73	47111.47
580.93	46570.81
581.13	46734.65
581.33	47234.35
581.53	47160.62
581.73	47256.88
581.93	47236.40
582.13	47365.42
582.33	47609.13
582.53	46951.73
582.73	47160.62
582.92	47281.45
583.12	47258.93
583.32	47369.52
583.52	47363.37
583.72	47488.30
583.92	47129.90
584.12	47242.54
584.32	48082.21
584.52	47527.21
584.72	47502.64
584.92	48010.53
585.11	47863.08
585.31	47658.28
585.51	47971.62
585.71	47924.52
585.91	48534.81
586.11	47920.42
586.31	47772.97
586.51	48196.90
586.71	47977.76
586.91	48543.00
587.10	47969.57
587.30	48432.41
587.50	48563.48
587.70	48817.43
587.90	48176.42
588.10	48565.53
588.30	48266.53
588.50	48649.50
588.69	48405.79
588.89	48473.37
589.09	48893.21
589.29	48864.53
589.49	48899.35
589.69	48596.25
589.89	48530.72
590.08	48829.72
590.28	48661.79
590.48	48600.35
590.68	48895.25
590.88	48784.66
591.08	49077.52
591.28	48223.52
591.47	49263.89
591.67	48895.25
591.87	49237.26
592.07	49181.97
592.27	49259.79
592.47	49134.87
592.67	49233.17
592.86	49317.14
593.06	49167.63
593.26	49587.47
593.46	49384.72
593.66	49134.87
593.86	49685.77
594.05	49698.06
594.25	50181.38
594.45	49149.20
594.65	49431.82
594.85	49075.48
595.05	49839.37
595.24	50017.54
595.44	49739.02
595.64	49556.75
595.84	49870.09
596.04	49980.68
596.23	49880.33
596.43	50191.62
596.63	50033.92
596.83	50296.06
597.03	50289.92
597.22	50105.60
597.42	50509.05
597.62	50418.94
597.82	50289.92
598.02	50550.01
598.21	50599.16
598.41	50414.85
598.61	50670.84
598.81	50545.92
599.01	50631.93
599.20	50832.63
599.40	50631.93
599.60	51066.10
599.80	50975.99
600.00	50937.08
600.19	51459.31
600.39	50851.06
600.59	51487.98
600.79	51178.74
600.98	50994.42
601.18	51328.24
601.38	51322.10
601.58	51574.00
601.78	51741.93
601.97	51588.33
602.17	51965.16
602.37	51942.63
602.57	51680.49
602.76	52020.45
602.96	51508.46
603.16	52010.21
603.36	51545.33
603.55	52079.85
603.75	51954.92
603.95	51670.25
604.15	52110.56
604.34	51946.73
604.54	52688.09
604.74	52190.44
604.94	52182.24
605.13	52675.80
605.33	52784.35
605.53	52397.28
605.73	52763.87
605.92	52548.83
606.12	52657.37
606.32	53007.58
606.52	52968.66
606.71	53277.91
606.91	52788.44
607.11	52503.77
607.30	52970.71
607.50	53056.73
607.70	53075.16
607.90	52614.37
608.09	53173.46
608.29	53261.52
608.49	53454.03
608.68	53034.20
608.88	53736.65
609.08	53902.54
609.28	53214.42
609.47	53753.04
609.67	53687.50
609.87	53697.74
610.06	53687.50
610.26	53357.78
610.46	54164.68
610.66	53384.40
610.85	53581.01
611.05	53820.62
611.25	53769.42
611.44	53568.72
611.64	53720.27
611.84	54301.89
612.03	53941.45
612.23	53986.50
612.43	53912.78
612.62	53910.73
612.82	54054.09
613.02	53855.43
613.21	54164.68
613.41	54017.22
613.61	54201.54
613.80	54109.38
614.00	53980.36
614.20	54363.33
614.39	54183.11
614.59	54240.45
614.79	54285.51
614.98	54084.81
615.18	54404.29
615.38	54115.53
615.57	54138.05
615.77	54465.73
615.97	54213.83
616.16	54377.67
616.36	54473.92
616.56	54607.04
616.75	54531.26
616.95	53826.76
617.15	53992.65
617.34	54482.11
617.54	54539.46
617.74	54924.47
617.93	54625.47
618.13	54510.78
618.32	54604.99
618.52	54691.01
618.72	54551.74
618.91	54764.73
619.11	54199.49
619.31	54219.97
619.50	54396.10
619.70	54183.11
619.90	54510.78
620.09	54768.83
620.29	54355.14
620.48	54283.46
620.68	55149.75
620.88	54318.28
621.07	54688.96
621.27	54707.39
621.46	54965.43
621.66	54674.62
621.86	54781.12
622.05	54166.73
622.25	55133.37
622.44	54633.66
622.64	54619.33
622.84	55203.00
623.03	54410.43
623.23	54785.21
623.42	54224.07
623.62	55071.93
623.82	54852.80
624.01	54392.00
624.21	54561.98
624.40	54621.37
624.60	54602.94
624.80	54525.12
624.99	54695.10
625.19	54484.16
625.38	54867.13
625.58	54633.66
625.77	54670.53
625.97	54645.95
626.17	54408.39
626.36	54752.44
626.56	54631.61
626.75	54543.55
626.95	55297.20
627.14	54607.04
627.34	55350.45
627.54	54504.64
627.73	54879.42
627.93	54774.97
628.12	54707.39
628.32	55035.06
628.51	54715.58
628.71	54811.84
628.90	55155.89
629.10	55012.54
629.30	54830.27
629.49	54623.42
629.69	55047.35
629.88	54865.08
630.08	55516.34
630.27	55344.31
630.47	54549.70
630.66	54885.56
630.86	55362.74
631.05	54869.18
631.25	55338.16
631.44	55145.65
631.64	55209.14
631.84	55100.60
632.03	55420.08
632.23	55084.22
632.42	55743.66
632.62	54707.39
632.81	55006.39
633.01	55078.07
633.20	55399.60
633.40	54996.15
633.59	55026.87
633.79	54809.79
633.98	55223.48
634.18	55305.40
634.37	55209.14
634.57	55260.34
634.76	55944.36
634.96	55362.74
635.15	55278.77
635.35	55076.02
635.54	55256.24
635.74	55149.75
635.93	55071.93
636.13	55600.30
636.32	55850.16
636.52	54711.49
636.71	55071.93
636.91	55567.54
637.10	55506.10
637.30	55477.43
637.49	55166.13
637.69	55280.82
637.88	55987.37
638.08	55112.89
638.27	55600.30
638.46	55104.70
638.66	55512.24
638.85	55248.05
639.05	55522.48
639.24	55819.44
639.44	55170.23
639.63	55618.74
639.83	55522.48
640.02	55669.93
640.22	55268.53
640.41	55669.93
640.61	55252.15
640.80	55469.23
640.99	55477.43
641.19	55753.90
641.38	55207.09
641.58	55596.21
641.77	55504.05
641.97	55344.31
642.16	55415.99
642.36	56083.62
642.55	55911.59
642.74	55569.58
642.94	56233.13
643.13	55338.16
643.33	55571.63
643.52	55719.09
643.72	55887.02
643.91	55676.08
644.10	55745.71
644.30	56140.97
644.49	55770.28
644.69	55778.48
644.88	55678.13
645.08	55739.57
645.27	55696.56
645.46	55727.28
645.66	55905.45
645.85	55770.28
646.05	55667.89
646.24	56046.76
646.43	55954.60
646.63	55825.58
646.82	56104.10
647.02	55583.92
647.21	56153.26
647.40	55661.74
647.60	56018.09
647.79	56063.14
647.99	55942.31
648.18	56061.10
648.37	56368.29
648.57	56382.63
648.76	55899.31
648.96	55758.00
649.15	56321.19
649.34	56485.03
649.54	56403.11
649.73	55504.05
649.92	56218.79
650.12	55968.94
650.31	56016.04
650.51	56269.99
650.70	56280.23
650.89	56052.90
651.09	56480.93
651.28	56159.40
651.47	56263.85
651.67	56482.98
651.86	56650.91
652.06	56138.92
652.25	55944.36
652.44	56237.22
652.64	55743.66
652.83	55520.43
653.02	55684.27
653.22	55811.24
653.41	55973.03
653.60	55850.16
653.80	56300.71
653.99	56263.85
654.18	55930.03
654.38	56081.58
654.57	56128.68
654.76	56009.90
654.96	56120.49
655.15	55530.67
655.34	56173.73
655.54	56202.41
655.73	56480.93
655.92	56298.66
656.12	56386.72
656.31	55973.03
656.50	56421.54
656.70	56075.43
656.89	56032.42
657.08	56233.13
657.28	55903.40
657.47	55989.42
657.66	56104.10
657.86	55932.07
658.05	56251.56
658.24	56044.71
658.43	55876.78
658.63	56448.16
658.82	56161.45
659.01	56069.29
659.21	56368.29
659.40	56108.20
659.59	55927.98
659.79	56161.45
659.98	56054.95
660.17	56317.09
660.36	56431.78
660.56	56196.26
660.75	56550.56
660.94	56063.14
661.14	56122.54
661.33	56075.43
661.52	55817.39
661.71	56442.02
661.91	56165.54
662.10	55811.24
662.29	56265.89
662.49	55776.43
662.68	56097.96
662.87	56161.45
663.06	56069.29
663.26	56208.55
663.45	56571.04
663.64	55850.16
663.83	56071.34
664.03	56564.90
664.22	55889.07
664.41	56028.33
664.60	55747.76
664.80	55925.93
664.99	56071.34
665.18	56222.89
665.37	56286.37
665.57	56267.94
665.76	55831.72
665.95	56114.34
666.14	55860.40
666.34	55729.33
666.53	55549.10
666.72	55729.33
666.91	55874.73
667.11	55825.58
667.30	55956.65
667.49	56005.80
667.68	56085.67
667.87	56218.79
668.07	56231.08
668.26	55882.92
668.45	55721.13
668.64	55868.59
668.84	56120.49
669.03	56009.90
669.22	55600.30
669.41	56374.44
669.60	56054.95
669.80	55760.05
669.99	55884.97
670.18	55958.70
670.37	55794.86
670.57	56370.34
670.76	55694.51
670.95	55950.51
671.14	55999.66
671.33	55403.70
671.53	56542.37
671.72	55831.72
671.91	55940.27
672.10	55829.68
672.29	55874.73
672.48	55573.68
672.68	56048.81
672.87	55766.19
673.06	55839.92
673.25	55526.58
673.44	55856.30
673.64	55522.48
673.83	55313.59
674.02	55534.77
674.21	55295.16
674.40	55702.70
674.59	55227.57
674.79	55596.21
674.98	55170.23
675.17	55854.25
675.36	55393.46
675.55	55735.47
675.74	55104.70
675.94	55352.50
676.13	55727.28
676.32	55588.02
676.51	55776.43
676.70	55792.81
676.89	55233.72
677.08	55565.49
677.28	55409.84
677.47	55975.08
677.66	55964.84
677.85	55674.03
678.04	55536.82
678.23	55823.53
678.42	55524.53
678.62	55825.58
678.81	55841.96
679.00	55391.41
679.19	56071.34
679.38	55243.96
679.57	55465.14
679.76	55401.65
679.96	55872.68
680.15	55506.10
680.34	55248.05
680.53	55278.77
680.72	55710.89
680.91	55846.06
681.10	55631.02
681.29	55461.04
681.48	55076.02
681.68	55520.43
681.87	55432.37
682.06	55487.67
682.25	55354.55
682.44	55264.44
682.63	55278.77
682.82	55127.22
683.01	55030.97
683.20	55262.39
683.39	55366.84
683.59	54785.21
683.78	55039.16
683.97	54801.60
684.16	55424.18
684.35	54942.91
684.54	55030.97
684.73	54973.63
684.92	54881.47
685.11	54637.76
685.30	54838.46
685.49	55200.95
685.69	54959.29
685.88	55168.18
686.07	55082.17
686.26	54953.15
686.45	55080.12
686.64	54650.05
686.83	54951.10
687.02	54830.27
687.21	54910.14
687.40	54947.00
687.59	55315.64
687.78	54854.84
687.97	54817.98
688.16	54879.42
688.35	54686.91
688.54	55024.82
688.74	54580.42
688.93	54621.37
689.12	54865.08
689.31	54781.12
689.50	55125.17
689.69	54654.14
689.88	54473.92
690.07	54916.28
690.26	54639.81
690.45	55063.74
690.64	54648.00
690.83	54449.35
691.02	54643.90
691.21	54375.62
691.40	54709.44
691.59	54291.65
691.78	54424.77
691.97	54609.09
692.16	54695.10
692.35	54932.67
692.54	54781.12
692.73	54035.66
692.92	54494.40
693.11	54764.73
693.30	54545.60
693.49	54813.88
693.68	54664.38
693.87	54539.46
694.06	53853.39
694.25	54582.46
694.44	54293.70
694.63	54351.04
694.82	54770.88
695.01	54674.62
695.20	54348.99
695.39	54039.75
695.58	54369.47
695.77	54271.17
695.96	53728.46
696.15	54469.82
696.34	53908.68
696.53	53951.69
696.72	54484.16
696.91	54080.71
697.10	54346.95
697.29	54277.32
697.48	54609.09
697.67	53884.11
697.86	53738.70
698.05	53458.13
698.24	54412.48
698.43	53869.77
698.62	54017.22
698.81	53497.04
699.00	54459.58
699.19	53509.33
699.38	54109.38
699.57	53632.21
699.76	54328.52
699.95	53900.49
700.14	53615.82
700.32	53990.60
700.51	54072.52
700.70	54056.14
700.89	54041.80
701.08	53785.80
701.27	53882.06
701.46	53892.30
701.65	53279.96
701.84	53925.07
702.03	53871.82
702.22	53472.46
702.41	53990.60
702.60	54025.42
702.79	53800.14
702.98	53218.52
703.17	53564.62
703.35	53345.49
703.54	53548.24
703.73	53345.49
703.92	53095.64
704.11	53425.36
704.30	53411.02
704.49	53527.76
704.68	52792.54
704.87	53400.79
705.06	53126.36
705.25	53099.73
705.43	53054.68
705.62	53671.12
705.81	52985.05
706.00	53689.55
706.19	52935.90
706.38	52866.27
706.57	52966.62
706.76	52892.89
706.95	53034.20
707.14	53146.84
707.32	52632.80
707.51	52880.60
707.70	52878.55
707.89	52876.51
708.08	53390.55
708.27	52628.70
708.46	53132.50
708.65	52659.42
708.84	53222.61
709.02	52813.02
709.21	52692.19
709.40	52851.93
709.59	52360.42
709.78	52622.56
709.97	53114.07
710.16	52608.22
710.34	52876.51
710.53	52823.26
710.72	52479.20
710.91	53007.58
711.10	52659.42
711.29	52659.42
711.48	52600.03
711.66	52522.21
711.85	52471.01
712.04	52675.80
712.23	52425.95
712.42	52581.60
712.61	52487.39
712.80	52454.62
712.98	52567.26
713.17	51922.15
713.36	52006.12
713.55	52417.76
713.74	52272.35
713.93	52180.20
714.11	52301.03
714.30	51942.63
714.49	52260.07
714.68	52575.45
714.87	52311.27
715.06	52612.32
715.24	51924.20
715.43	52065.51
715.62	51807.47
715.81	52075.75
716.00	52212.96
716.18	51774.70
716.37	51569.90
716.56	51631.34
716.75	51844.33
716.94	51631.34
717.12	51797.23
717.31	51860.71
717.50	52049.13
717.69	51487.98
717.88	51770.60
718.06	51526.89
718.25	51518.70
718.44	51090.68
718.63	51356.91
718.82	50998.52
719.00	51705.07
719.19	51299.57
719.38	51354.86
719.57	51447.02
719.76	50693.37
719.94	50406.65
720.13	50935.03
720.32	50844.92
720.51	50754.81
720.69	50953.46
720.88	50889.98
721.07	50935.03
721.26	50418.94
721.44	50535.68
721.63	50312.45
721.82	50138.37
722.01	50140.42
722.20	50480.38
722.38	50099.46
722.57	49935.62
722.76	50212.10
722.95	50181.38
723.13	49814.79
723.32	49980.68
723.51	49464.59
723.70	49837.32
723.88	50076.93
724.07	49386.77
724.26	49657.10
724.44	49083.67
724.63	49939.72
724.82	49796.36
725.01	49614.09
725.19	49698.06
725.38	49462.54
725.57	49378.57
725.76	49630.47
725.94	49298.70
726.13	49702.15
726.32	49165.59
726.51	49480.97
726.69	49743.11
726.88	49444.11
727.07	49388.81
727.25	49192.21
727.44	49247.50
727.63	48780.57
727.82	48991.51
728.00	49399.05
728.19	48923.93
728.38	49685.77
728.56	48856.34
728.75	49358.09
728.94	48952.60
729.12	49167.63
729.31	49233.17
729.50	49208.59
729.69	49110.29
729.87	49145.11
730.06	48678.17
730.25	48846.10
730.43	49499.40
730.62	48702.74
730.81	49235.22
730.99	49036.56
731.18	48704.79
731.37	49028.37
731.55	48780.57
731.74	49198.35
731.93	49184.02
732.11	48885.01
732.30	48530.72
732.49	48561.44
732.67	49030.42
732.86	48428.32
733.05	48848.15
733.23	48471.32
733.42	48645.40
733.61	48678.17
733.79	48866.58
733.98	49040.66
734.17	48731.42
734.35	48555.29
734.54	48579.87
734.73	49020.18
734.91	48717.08
735.10	48352.54
735.29	48639.26
735.47	47998.24
735.66	48543.00
735.84	48604.44
736.03	48133.41
736.22	48872.73
736.40	48327.97
736.59	48264.48
736.78	48362.78
736.96	48588.06
737.15	48082.21
737.33	48129.31
737.52	47660.33
737.71	47865.13
737.89	47832.36
738.08	47664.42
738.27	48067.87
738.45	48291.10
738.64	48260.38
738.82	47725.86
739.01	47973.67
739.20	47858.98
739.38	47775.02
739.57	48444.70
739.75	47981.86
739.94	47904.04
740.13	47422.76
740.31	47635.75
740.50	47869.22
740.68	47320.37
740.87	47643.94
741.06	47557.93
741.24	47510.83
741.43	47740.20
741.61	47459.63
741.80	47232.30
741.99	47369.52
742.17	47226.16
742.36	47346.99
742.54	47189.30
742.73	47490.35
742.91	47531.31
743.10	47318.32
743.29	47240.50
743.47	46957.88
743.66	47195.44
743.84	46880.05
744.03	46912.82
744.21	46964.02
744.40	47269.17
744.59	46863.67
744.77	46314.81
744.96	46916.92
745.14	46837.05
745.33	46888.24
745.51	46785.85
745.70	47224.11
745.88	46851.38
746.07	47027.51
746.26	46298.43
746.44	46441.79
746.63	46253.37
746.81	46474.55
747.00	46214.46
747.18	46611.77
747.37	46753.08
747.55	46490.94
747.74	46712.12
747.92	46277.95
748.11	45911.36
748.29	46396.73
748.48	46437.69
748.66	46179.65
748.85	46130.50
749.03	46011.71
749.22	45888.84
749.41	45630.79
749.59	45901.12
749.78	45712.71
749.96	45227.34
750.15	45817.16
750.33	45671.75
750.52	45747.53
750.70	45751.62
750.89	45219.15
751.07	45360.46
751.26	45448.52
751.44	45268.30
751.63	45636.94
751.81	45202.77
752.00	45507.91
752.18	45552.97
752.37	45339.98
752.55	44774.74
752.74	45100.37
752.92	44801.36
753.10	45161.81
753.29	45376.84
753.47	45245.77
753.66	44524.89
753.84	45446.47
754.03	44746.07
754.21	44629.34
754.40	44764.50
754.58	44754.26
754.77	44713.30
754.95	44242.27
755.14	44393.82
755.32	44350.81
755.51	43896.16
755.69	44504.41
755.88	44414.30
756.06	44361.05
756.24	44301.66
756.43	44428.63
756.61	44129.63
756.80	43930.98
756.98	44248.41
757.17	44277.08
757.35	44242.27
757.54	43754.85
757.72	44391.77
757.90	43711.84
758.09	44148.06
758.27	43771.24
758.46	43631.97
758.64	43742.56
758.83	44160.35
759.01	43720.04
759.19	43664.74
759.38	43894.11
759.56	43787.62
759.75	43631.97
759.93	43222.38
760.12	43269.48
760.30	43476.33
760.48	43271.53
760.67	43234.67
760.85	43449.70
761.04	43165.04
761.22	43582.82
761.40	43410.79
761.59	42902.90
761.77	42837.36
761.96	42798.45
762.14	43201.90
762.32	42833.27
762.51	42702.20
762.69	42767.73
762.88	42947.95
763.06	42966.38
763.24	43058.54
763.43	42747.25
763.61	42087.81
763.80	42311.03
763.98	42618.23
764.16	42149.24
764.35	42462.58
764.53	42032.51
764.72	42311.03
764.90	42259.84
765.08	42679.67
765.27	42460.54
765.45	42032.51
765.63	41729.41
765.82	42472.82
766.00	42038.65
766.18	41852.29
766.37	42145.15
766.55	42030.46
766.74	41835.91
766.92	41964.93
767.10	41710.98
767.29	41659.78
767.47	41270.67
767.65	41377.16
767.84	41323.91
768.02	41608.58
768.20	41328.01
768.39	41647.49
768.57	41172.36
768.75	41426.31
768.94	40973.71
769.12	41559.43
769.30	40910.22
769.49	41069.97
769.67	40990.09
769.85	40582.55
770.04	40963.47
770.22	40881.55
770.40	40629.65
770.59	40615.32
770.77	40963.47
770.95	40897.94
771.14	40560.02
771.32	40013.21
771.50	40162.72
771.69	40168.86
771.87	40549.78
772.05	40156.57
772.24	40519.06
772.42	40525.21
772.60	40449.43
772.78	39789.98
772.97	40310.17
773.15	40277.40
773.33	39970.21
773.52	40277.40
773.70	39832.99
773.88	40670.61
774.07	39949.73
774.25	40146.33
774.43	40373.66
774.61	39986.59
774.80	40097.18
774.98	40105.37
775.16	39900.58
775.34	40162.72
775.53	39744.93
775.71	40322.46
775.89	40422.81
776.08	39976.35
776.26	40408.47
776.44	40244.63
776.62	39904.67
776.81	39433.64
776.99	40330.65
777.17	39959.97
777.35	40043.93
777.54	40459.67
777.72	40177.05
777.90	39970.21
778.08	40629.65
778.27	40281.50
778.45	40304.02
778.63	40584.60
778.81	40267.16
779.00	40983.95
779.18	40654.23
779.36	40727.95
779.54	40338.84
779.73	40455.57
779.91	40414.62
780.09	40619.41
780.27	40695.19
780.46	40471.96
780.64	41528.71
780.82	40459.67
781.00	40594.84
781.19	40781.20
781.37	40643.99
781.55	40680.85
781.73	40811.92
781.91	40730.00
782.10	40605.08
782.28	40795.54
782.46	40555.93
782.64	41053.58
782.82	40758.67
783.01	41069.97
783.19	40971.66
783.37	41291.15
783.55	40721.81
783.74	40822.16
783.92	40600.98
784.10	40697.24
784.28	40717.71
784.46	40590.74
784.64	40846.74
784.83	41164.17
785.01	41037.20
785.19	41049.49
785.37	41287.05
785.55	40942.99
785.74	40168.86
785.92	40740.24
786.10	40881.55
786.28	41254.28
786.46	40684.95
786.64	40414.62
786.83	40643.99
787.01	40811.92
787.19	40621.46
787.37	40801.68
787.55	40437.14
787.74	40324.50
787.92	40658.32
788.10	40293.79
788.28	39810.46
788.46	40471.96
788.64	40013.21
788.82	40533.40
789.01	40222.11
789.19	40457.62
789.37	40019.36
789.55	40168.86
789.73	40322.46
789.91	40052.12
790.09	40191.39
790.28	39714.21
790.46	39396.77
790.64	39880.10
790.82	39585.19
791.00	39962.01
791.18	39378.34
791.36	39574.95
791.55	39507.37
791.73	39308.71
791.91	39073.20
792.09	39237.03
792.27	39439.78
792.45	39474.60
792.63	39142.83
792.81	38632.88
793.00	38596.02
793.18	38679.99
793.36	38712.75
793.54	38700.47
793.72	38626.74
793.90	38628.79
794.08	38571.44
794.26	38608.31
794.44	37860.80
794.62	37995.96
794.81	38516.15
794.99	38100.41
795.17	37821.89
795.35	37852.61
795.53	38294.97
795.71	38045.12
795.89	37625.28
796.07	37795.26
796.25	37426.63
796.43	37512.64
796.61	37434.82
796.80	37510.60
796.98	37606.85
797.16	37336.52
797.34	37531.08
797.52	37246.41
797.70	37250.50
797.88	36949.45
798.06	37213.64
798.24	36933.07
798.42	37107.15
798.60	36718.03
798.78	36500.95
798.96	36959.69
799.14	36638.16
799.32	36646.35
799.51	36179.42
799.69	36810.19
799.87	36122.07
800.05	36218.33
800.23	36546.00
800.41	36363.73
800.59	36298.20
800.77	35935.71
800.95	35642.85
801.13	35978.72
801.31	35708.38
801.49	35757.53
801.67	35196.39
801.85	35134.95
802.03	35583.46
802.21	35354.08
802.39	35321.32
802.57	35022.31
802.75	35104.23
802.93	34811.37
803.11	35046.89
803.29	34915.82
803.47	34754.03
803.65	34717.17
803.83	34493.94
804.01	34719.21
804.19	34426.35
804.37	33902.07
804.55	34330.10
804.73	34424.31
804.91	34338.29
805.09	34543.09
805.27	34123.26
805.45	34295.28
805.63	34315.76
805.81	33943.03
805.99	34047.48
806.17	34272.76
806.35	33756.67
806.53	33605.12
806.71	34067.96
806.89	33900.03
807.07	33764.86
807.25	33877.50
807.43	33259.01
807.61	33633.79
807.79	33424.90
807.97	33101.32
808.15	33080.84
808.33	33066.50
808.51	33015.30
808.69	32886.28
808.87	32857.61
809.05	32644.62
809.23	32812.56
809.41	32384.53
809.59	32400.91
809.77	32542.22
809.95	32304.66
810.13	32491.02
810.31	32298.52
810.49	32628.24
810.67	32806.41
810.84	32587.28
811.02	32433.68
811.20	31774.24
811.38	32290.32
811.56	31716.89
811.74	31792.67
811.92	31964.70
812.10	32085.53
812.28	31974.94
812.46	31745.56
812.64	31839.77
812.82	31555.10
813.00	31626.78
813.18	31878.68
813.36	31413.79
813.53	31354.40
813.71	31798.81
813.89	31684.12
814.07	31538.72
814.25	31358.50
814.43	31200.80
814.61	31299.11
814.79	31155.75
814.97	30918.18
815.15	31360.55
815.33	30834.22
815.50	30639.66
815.68	30838.31
815.86	30752.30
816.04	30869.03
816.22	30570.03
816.40	30664.24
816.58	30770.73
816.76	30238.26
816.94	30656.04
817.11	30535.21
817.29	29902.39
817.47	30402.10
817.65	30271.03
817.83	30486.06
818.01	30268.98
818.19	30092.85
818.37	30111.28
818.54	30250.55
818.72	29738.55
818.90	29875.77
819.08	29918.78
819.26	30109.24
819.44	29507.13
819.62	29646.40
819.80	30027.32
819.97	29816.38
820.15	29644.35
820.33	29238.85
820.51	29685.31
820.69	29369.92
820.87	29472.32
821.05	29593.15
821.22	29529.66
821.40	29460.03
821.58	29414.98
821.76	29130.31
821.94	29288.00
822.12	29376.06
822.29	29509.18
822.47	29171.27
822.65	29429.31
822.83	29148.74
823.01	29161.03
823.19	28853.83
823.36	28997.19
823.54	28810.82
823.72	28626.51
823.90	28794.44
824.08	28599.88
824.25	28694.09
824.43	28599.88
824.61	28472.91
824.79	28882.50
824.97	28409.42
825.15	28538.44
825.32	28573.26
825.50	28358.22
825.68	28276.30
825.86	28741.19
826.04	28567.12
826.21	28276.30
826.39	28368.46
826.57	28522.06
826.75	27952.73
826.93	27985.49
827.10	28249.68
827.28	28251.73
827.46	28507.72
827.64	27842.14
827.81	27780.70
827.99	28347.98
828.17	27862.61
828.35	27713.11
828.53	27915.86
828.70	27754.07
828.88	27481.69
829.06	27948.63
829.24	27600.47
829.41	27692.63
829.59	27991.64
829.77	27614.81
829.95	27467.36
830.12	27244.13
830.30	27340.38
830.48	27704.92
830.66	27295.33
830.84	27534.94
831.01	26994.28
831.19	27344.48
831.37	27043.43
831.55	27164.26
831.72	27149.92
831.90	26986.08
832.08	27063.91
832.25	27182.69
832.43	26984.04
832.61	27065.96
832.79	26685.03
832.96	26654.31
833.14	26981.99
833.32	26973.80
833.50	26660.46
833.67	27006.56
833.85	26812.01
834.03	26553.96
834.20	26916.45
834.38	26529.39
834.56	27016.80
834.74	26394.22
834.91	26924.65
835.09	26484.33
835.27	26279.54
835.44	26576.49
835.62	26093.17
835.80	26195.57
835.98	26263.15
836.15	26277.49
836.33	26304.11
836.51	26543.72
836.68	26113.65
836.86	26564.20
837.04	26181.23
837.21	26076.79
837.39	26140.27
837.57	26244.72
837.75	26152.56
837.92	25818.74
838.10	25835.13
838.28	25767.54
838.45	25810.55
838.63	25874.04
838.81	25931.38
838.98	25775.73
839.16	25659.00
839.34	25738.87
839.51	25548.41
839.69	25646.71
839.87	25218.69
840.04	25493.12
840.22	25734.78
840.40	25603.71
840.57	25331.33
840.75	25462.40
840.93	25077.38
841.10	25314.94
841.28	25464.44
841.46	25388.67
841.63	25302.65
841.81	25175.68
841.98	25278.08
842.16	25151.10
842.34	25159.30
842.51	25030.27
842.69	25314.94
842.87	25134.72
843.04	25173.63
843.22	24718.98
843.40	24747.65
843.57	24843.91
843.75	24960.64
843.92	25020.03
844.10	24852.10
844.28	25063.04
844.45	24852.10
844.63	24700.55
844.81	24999.55
844.98	24821.38
845.16	24426.12
845.33	24428.17
845.51	24827.53
845.69	24626.82
845.86	24313.48
846.04	24575.62
846.21	24639.11
846.39	24356.49
846.57	24555.15
846.74	24471.18
846.92	24118.93
847.09	24321.68
847.27	24250.00
847.45	24305.29
847.62	24456.84
847.80	24276.62
847.97	24192.65
848.15	24086.16
848.32	23895.70
848.50	23977.62
848.68	24063.63
848.85	23817.88
849.03	23817.88
849.20	23850.64
849.38	23795.35
849.56	23815.83
849.73	23658.14
849.91	24096.40
850.08	24200.85
850.26	23504.54
850.43	23791.25
850.61	23678.61
850.78	23236.25
850.96	23674.52
851.14	23338.65
851.31	23719.57
851.49	23262.88
851.66	23439.00
851.84	23328.41
852.01	23744.15
852.19	23477.91
852.36	23258.78
852.54	23197.34
852.71	23463.58
852.89	23332.51
853.07	23598.74
853.24	23318.17
853.42	23238.30
853.59	23129.76
853.77	23172.77
853.94	23385.76
854.12	23197.34
854.29	23084.70
854.47	23041.70
854.64	22951.59
854.82	22896.29
854.99	23082.66
855.17	23092.90
855.34	23002.78
855.52	22892.19
855.69	22927.01
855.87	22824.61
856.04	22537.90
856.22	22578.86
856.39	22804.13
856.57	22675.11
856.74	22470.31
856.92	22572.71
857.09	22347.44
857.27	22580.90
857.44	22494.89
857.62	22505.13
857.79	22521.51
857.97	22607.53
858.14	22369.96
858.32	22226.60
858.49	22353.58
858.67	22222.51
858.84	22218.41
859.02	22206.13
859.19	22105.77
859.37	21833.39
859.54	22085.30
859.72	22030.00
859.89	21970.61
860.06	22054.58
860.24	21925.55
860.41	22267.56
860.59	21649.08
860.76	21884.59
860.94	21665.46
861.11	21675.70
861.29	21929.65
861.46	21790.39
861.64	21472.95
861.81	21491.38
861.98	21501.62
862.16	21419.71
862.33	21442.23
862.51	21640.89
862.68	21706.42
862.86	21182.14
863.03	21413.56
863.21	21497.53
863.38	21460.66
863.55	21241.53
863.73	21354.17
863.90	21233.34
864.08	21268.16
864.25	21266.11
864.43	21372.60
864.60	21259.96
864.77	20885.19
864.95	21221.05
865.12	21100.22
865.30	20848.32
865.47	21206.72
865.64	20975.30
865.82	20864.71
865.99	21165.76
866.17	20627.14
866.34	20795.07
866.51	20655.81
866.69	20827.84
866.86	21053.12
867.04	20747.97
867.21	20563.65
867.38	20512.46
867.56	20199.12
867.73	20580.04
867.91	20561.61
868.08	20287.18
868.25	20504.26
868.43	20086.48
868.60	20176.59
868.78	20182.73
868.95	20430.54
869.12	20252.36
869.30	19955.41
869.47	20231.88
869.64	19783.38
869.82	20088.53
869.99	19846.87
870.16	20170.44
870.34	20088.53
870.51	20219.60
870.69	19926.74
870.86	19853.01
871.03	19930.83
871.21	19945.17
871.38	19701.46
871.55	19726.04
871.73	19826.39
871.90	19680.98
872.07	19453.66
872.25	19414.74
872.42	19695.32
872.59	19277.53
872.77	19377.88
872.94	19437.27
873.11	19312.35
873.29	19275.48
873.46	19039.97
873.63	19289.82
873.81	19322.59
873.98	19085.02
874.15	19011.29
874.33	18982.62
874.50	18749.15
874.67	18964.19
874.85	19003.10
875.02	18861.79
875.19	18644.71
875.37	18593.51
875.54	18659.04
875.71	18609.89
875.88	18915.04
876.06	18628.32
876.23	18640.61
876.40	18437.86
876.58	18628.32
876.75	18501.35
876.92	18446.05
877.10	18491.11
877.27	18446.05
877.44	18446.05
877.61	17880.82
877.79	18398.95
877.96	18192.11
878.13	18419.43
878.31	18042.60
878.48	18104.04
878.65	17970.93
878.82	17827.57
879.00	17833.71
879.17	18011.89
879.34	18149.10
879.51	17714.93
879.69	17569.52
879.86	17678.07
880.03	17506.04
880.21	17719.03
880.38	17573.62
880.55	17573.62
880.72	17612.53
880.90	17774.32
881.07	17518.32
881.24	17497.84
881.41	17643.25
881.59	17592.05
881.76	17577.72
881.93	17755.89
882.10	17247.99
882.28	17338.10
882.45	17420.02
882.62	17336.06
882.79	17454.84
882.96	17137.40
883.14	17221.37
883.31	17176.31
883.48	17182.46
883.65	16899.84
883.83	17200.89
884.00	17123.07
884.17	17024.76
884.34	17082.11
884.51	16971.52
884.69	16963.33
884.86	16742.14
885.03	16955.13
885.20	16477.96
885.38	16869.12
885.55	16623.36
885.72	16449.28
885.89	16625.41
886.06	16887.55
886.24	16682.75
886.41	16641.79
886.58	16881.41
886.75	16856.83
886.92	16602.88
887.10	16494.34
887.27	16293.64
887.44	16486.15
887.61	16772.86
887.78	16619.27
887.95	16815.87
888.13	16619.27
888.30	16207.62
888.47	16238.34
888.64	16289.54
888.81	16434.95
888.99	16285.45
889.16	16248.58
889.33	16238.34
889.50	16148.23
889.67	16148.23
889.84	16332.55
890.01	16273.16
890.19	16322.31
890.36	16344.84
890.53	16078.60
890.70	15992.59
890.87	15867.66
891.04	15814.41
891.22	15896.33
891.39	15990.54
891.56	15703.82
891.73	15709.97
891.90	15755.02
892.07	15757.07
892.24	15574.80
892.42	15773.46
892.59	15675.15
892.76	15769.36
892.93	15271.70
893.10	15802.13
893.27	15615.76
893.44	14978.84
893.61	15425.30
893.79	15539.99
893.96	15480.60
894.13	15562.51
894.30	15640.34
894.47	15714.06
894.64	15697.68
894.81	15689.49
894.98	15533.84
895.15	15628.05
895.33	15441.68
895.50	15329.05
895.67	15486.74
895.84	15232.79
896.01	15249.18
896.18	15150.87
896.35	15417.11
896.52	15140.63
896.69	15150.87
896.86	15232.79
897.04	15380.25
897.21	15228.70
897.38	15179.54
897.55	15206.17
897.72	15363.86
897.89	15085.34
898.06	15462.16
898.23	15021.85
898.40	15283.99
898.57	15193.88
898.74	15064.86
898.91	15286.04
899.08	15251.22
899.26	15068.95
899.43	15359.77
899.60	15238.94
899.77	15105.82
899.94	15097.63
900.11	15093.53
900.28	15144.73
900.45	15081.24
900.62	14958.36
900.79	15314.71
900.96	15038.23
901.13	15333.14
901.30	15142.68
901.47	15128.35
901.64	15177.50
901.81	15073.05
901.98	14917.40
902.15	15275.80
902.32	15157.02
902.49	15165.21
902.66	15032.09
902.83	15365.91
903.01	14997.28
903.18	15005.47
903.35	14769.95
903.52	15187.74
903.69	14919.45
903.86	15175.45
904.03	15238.94
904.20	15310.61
904.37	15068.95
904.54	15134.49
904.71	14833.44
904.88	15263.51
905.05	14798.62
905.22	15034.14
905.39	14761.76
905.56	15011.61
905.73	14858.01
905.90	15068.95
906.07	15036.19
906.24	14858.01
906.41	15023.90
906.58	15191.83
906.75	14950.17
906.92	14829.34
907.09	14929.69
907.26	14946.08
907.43	14868.25
907.60	14892.83
907.77	15019.80
907.93	14831.39
908.10	14825.25
908.27	14984.99
908.44	14657.31
908.61	14698.27
908.78	14923.55
908.95	14851.87
909.12	14688.03
909.29	14567.20
909.46	14800.67
909.63	14712.61
909.80	14804.77
909.97	14913.31
910.14	14741.28
910.31	14825.25
910.48	14833.44
910.65	14704.42
910.82	14812.96
910.99	14599.97
911.16	14866.21
911.33	14751.52
911.50	14466.85
911.66	14141.22
911.83	14587.68
912.00	14602.02
912.17	14395.17
912.34	14415.65
912.51	14473.00
912.68	14257.96
912.85	14327.59
913.02	14460.71
913.19	14149.42
913.36	14491.43
913.53	14380.84
913.70	13987.63
913.86	14374.69
914.03	14348.07
914.20	13995.82
914.37	14419.75
914.54	14120.74
914.71	14409.51
914.88	13983.53
915.05	13989.67
915.22	14153.51
915.39	14178.09
915.55	13848.36
915.72	13930.28
915.89	13893.42
916.06	13700.91
916.23	13768.49
916.40	13707.05
916.57	13713.20
916.74	13868.84
916.91	13594.42
917.07	13596.46
917.24	13573.94
917.41	13494.07
917.58	13760.30
917.75	13410.10
917.92	13319.99
918.09	13391.67
918.26	13348.66
918.42	13346.61
918.59	13506.35
918.76	13164.34
918.93	13272.89
919.10	13027.13
919.27	13190.97
919.44	13197.11
919.60	13170.49
919.77	12961.59
919.94	13045.56
920.11	13104.95
920.28	13123.38
920.45	12894.01
920.61	12894.01
920.78	12851.00
920.95	12879.68
921.12	12736.32
921.29	12734.27
921.46	12668.73
921.62	12435.27
921.79	12517.18
921.96	12433.22
922.13	12560.19
922.30	12447.55
922.47	12408.64
922.63	12281.67
922.80	12605.25
922.97	12304.20
923.14	12128.07
923.31	12214.09
923.47	12017.48
923.64	12140.36
923.81	12019.53
923.98	12011.34
924.15	11984.71
924.32	11953.99
924.48	11964.23
924.65	12060.49
924.82	11802.44
924.99	11591.50
925.15	11628.37
925.32	11646.80
925.49	11411.28
925.66	11525.97
925.83	11560.78
925.99	11519.82
926.16	11394.90
926.33	11591.50
926.50	11151.19
926.67	11331.41
926.83	11597.65
927.00	11306.84
927.17	11216.72
927.34	11073.37
927.50	11161.43
927.67	11204.44
927.84	11130.71
928.01	10911.58
928.17	10878.81
928.34	10870.62
928.51	11038.55
928.68	10772.32
928.84	10934.11
929.01	10760.03
929.18	10731.36
929.35	10514.27
929.51	10622.81
929.68	10506.08
929.85	10598.24
930.02	10456.93
930.18	10442.59
930.35	10329.95
930.52	10434.40
930.69	10323.81
930.85	10241.89
931.02	10332.00
931.19	9971.56
931.36	10076.01
931.52	10162.02
931.69	9981.80
931.86	10235.75
932.02	9938.79
932.19	9920.36
932.36	9992.04
932.53	9834.35
932.69	9619.31
932.86	9850.73
933.03	9768.81
933.19	9516.91
933.36	9613.17
933.53	9500.53
933.70	9484.14
933.86	9494.38
934.03	9400.18
934.20	9181.04
934.36	9363.31
934.53	9121.65
934.70	9021.30
934.86	9242.48
935.03	8978.30
935.20	8951.67
935.36	9170.80
935.53	8675.20
935.70	8750.97
935.86	8773.50
936.03	8781.69
936.20	8519.55
936.36	8478.59
936.53	8513.41
936.70	8361.86
936.86	8544.13
937.03	8257.41
937.20	8175.49
937.36	8232.83
937.53	7890.82
937.70	7958.41
937.86	7763.85
938.03	7720.84
938.20	7800.71
938.36	7671.69
938.53	7552.91
938.70	7294.86
938.86	7432.08
939.03	7145.36
939.20	7178.13
939.36	7178.13
939.53	7145.36
939.70	7174.03
939.86	6924.18
940.03	6795.16
940.19	6872.98
940.36	6639.51
940.53	6811.54
940.69	6487.96
940.86	6604.70
941.03	6467.49
941.19	6377.37
941.36	6453.15
941.52	6309.79
941.69	6199.20
941.86	6191.01
942.02	6033.32
942.19	6008.74
942.35	6068.13
942.52	6039.46
942.69	5922.73
942.85	5910.44
943.02	5824.42
943.18	5851.05
943.35	5644.20
943.52	5623.72
943.68	5654.44
943.85	5644.20
944.01	5572.52
944.18	5539.76
944.35	5533.61
944.51	5599.15
944.68	5445.55
944.84	5484.46
945.01	5459.88
945.17	5359.53
945.34	5420.97
945.51	5435.31
945.67	5441.45
945.84	5316.53
946.00	5232.56
946.17	5271.47
946.33	5152.69
946.50	5304.24
946.67	5302.19
946.83	5230.51
947.00	5461.93
947.16	5232.56
947.33	5189.55
947.49	5185.46
947.66	5162.93
947.82	5359.53
947.99	5304.24
948.16	5275.57
948.32	5105.59
948.49	5304.24
948.65	5345.20
948.82	5214.13
948.98	5287.86
949.15	5023.67
949.31	5253.04
949.48	5154.74
949.64	5152.69
949.81	5257.14
949.97	5246.90
950.14	5375.92
950.30	5054.39
950.47	5414.83
950.63	5328.81
950.80	5255.09
950.96	5191.60
951.13	5195.70
951.30	5228.46
951.46	5394.35
951.63	5406.64
951.79	5439.40
951.96	5259.18
952.12	5437.36
952.29	5240.75
952.45	5255.09
952.62	5234.61
952.78	5384.11
952.94	5353.39
953.11	5355.44
953.27	5242.80
953.44	5386.16
953.60	5353.39
953.77	5386.16
953.93	5314.48
954.10	5590.95
954.26	5294.00
954.43	5400.49
954.59	5562.28
954.76	5455.79
954.92	5361.58
955.09	5384.11
955.25	5300.14
955.42	5531.56
955.58	5584.81
955.75	5433.26
955.91	5316.53
956.07	5377.97
956.24	5449.64
956.40	5388.21
956.57	5531.56
956.73	5506.99
956.90	5482.41
957.06	5281.71
957.23	5398.45
957.39	5482.41
957.56	5562.28
957.72	5324.72
957.88	5453.74
958.05	5582.76
958.21	5601.19
958.38	5488.56
958.54	5455.79
958.71	5525.42
958.87	5558.19
959.03	5496.75
959.20	5519.28
959.36	5494.70
959.53	5267.38
959.69	5457.84
959.85	5597.10
960.02	5300.14
960.18	5310.38
960.35	5584.81
960.51	5537.71
960.68	5564.33
960.84	5437.36
961.00	5267.38
961.17	5388.21
961.33	5474.22
961.50	5435.31
961.66	5277.62
961.82	5349.29
961.99	5480.36
962.15	5337.01
962.31	5400.49
962.48	5363.63
962.64	5361.58
962.81	5597.10
962.97	5361.58
963.13	5349.29
963.30	5470.12
963.46	5457.84
963.62	5345.20
963.79	5427.12
963.95	5357.49
964.12	5230.51
964.28	5308.34
964.44	5334.96
964.61	5259.18
964.77	5294.00
964.93	5433.26
965.10	5214.13
965.26	5373.87
965.42	5359.53
965.59	5318.57
965.75	5246.90
965.92	5255.09
966.08	5425.07
966.24	5296.05
966.41	5222.32
966.57	5320.62
966.73	5380.01
966.90	5238.70
967.06	5222.32
967.22	5117.87
967.39	5302.19
967.55	5171.12
967.71	5236.66
967.88	5234.61
968.04	5119.92
968.20	5146.55
968.37	5164.98
968.53	5085.11
968.69	5058.48
968.85	5263.28
969.02	5173.17
969.18	5187.50
969.34	5115.83
969.51	5283.76
969.67	5158.83
969.83	5126.07
970.00	5185.46
970.16	5136.31
970.32	5207.98
970.48	5259.18
970.65	5048.24
970.81	5042.10
970.97	5101.49
971.14	4886.45
971.30	5228.46
971.46	5019.57
971.63	5126.07
971.79	5179.31
971.95	5097.39
972.11	4802.49
972.28	5019.57
972.44	4980.66
972.60	4943.80
972.76	4927.41
972.93	4876.21
973.09	4958.13
973.25	5035.96
973.42	4890.55
973.58	4949.94
973.74	4995.00
973.90	4949.94
974.07	4820.92
974.23	4966.32
974.39	4888.50
974.55	4788.15
974.72	4831.16
974.88	4650.94
975.04	4814.77
975.20	4806.58
975.37	4935.60
975.53	4685.75
975.69	4827.06
975.85	4757.43
976.01	4755.38
976.18	4652.98
976.34	4741.05
976.50	4695.99
976.66	5040.05
976.83	4616.12
976.99	4722.62
977.15	4657.08
977.31	4685.75
977.47	4716.47
977.64	4661.18
977.80	4681.66
977.96	4673.46
978.12	4542.39
978.29	4702.14
978.45	4706.23
978.61	4530.11
978.77	4642.75
978.93	4722.62
979.10	4507.58
979.26	4642.75
979.42	4485.05
979.58	4429.76
979.74	4513.72
979.91	4581.31
980.07	4462.52
980.23	4474.81
980.39	4517.82
980.55	4417.47
980.71	4460.48
980.88	4378.56
981.04	4407.23
981.20	4435.90
981.36	4474.81
981.52	4442.04
981.68	4378.56
981.85	4464.57
982.01	4196.29
982.17	4294.59
982.33	4394.94
982.49	4474.81
982.65	4323.26
982.82	4353.98
982.98	4321.21
983.14	4235.20
983.30	4247.49
983.46	4304.83
983.62	4245.44
983.79	4259.78
983.95	4222.91
984.11	4149.18
984.27	4292.54
984.43	4300.73
984.59	4173.76
984.75	4270.01
984.91	4241.34
985.08	4231.10
985.24	3973.06
985.40	4165.57
985.56	4165.57
985.72	4200.38
985.88	4186.05
986.04	4147.14
986.20	4153.28
986.37	3952.58
986.53	3983.30
986.69	4237.25
986.85	4063.17
987.01	4065.22
987.17	4077.51
987.33	4061.12
987.49	3862.47
987.65	4042.69
987.82	3977.16
987.98	3952.58
988.14	3989.44
988.30	4020.16
988.46	3925.96
988.62	3999.68
988.78	3866.56
988.94	3936.20
989.10	3801.03
989.26	3874.76
989.42	3952.58
989.59	3758.02
989.75	3964.87
989.91	3829.70
990.07	3741.64
990.23	3819.46
990.39	3782.60
990.55	3891.14
990.71	3821.51
990.87	3925.96
991.03	3811.27
991.19	3760.07
991.35	3766.21
991.51	3839.94
991.67	3862.47
991.83	3733.45
992.00	3792.84
992.16	3821.51
992.32	3764.17
992.48	3696.58
992.64	3700.68
992.80	3590.09
992.96	3780.55
993.12	3747.78
993.28	3600.33
993.44	3762.12
993.60	3629.00
993.76	3737.54
993.92	3643.34
994.08	3686.34
994.24	3600.33
994.40	3557.32
994.56	3657.67
994.72	3559.37
994.88	3622.86
995.04	3600.33
995.20	3647.43
995.36	3610.57
995.52	3588.04
995.68	3551.18
995.84	3583.95
996.00	3592.14
996.16	3366.86
996.32	3518.41
996.48	3444.68
996.64	3573.71
996.80	3549.13
996.96	3446.73
997.12	3479.50
997.28	3469.26
997.44	3442.64
997.60	3346.38
997.76	3391.44
997.92	3465.16
998.08	3454.92
998.24	3358.67
998.40	3377.10
998.56	3385.29
998.72	3358.67
998.88	3377.10
999.04	3286.99
999.20	3444.68
999.36	3184.59
999.52	3491.79
999.68	3315.66
999.84	3299.28
1000.00	3325.90
1000.16	3444.68
1000.32	3196.88
1000.48	3397.58
1000.64	3180.50
1000.80	3200.98
1000.95	3203.02
1001.11	3327.95
1001.27	3147.73
1001.43	3268.56
1001.59	3274.70
1001.75	3194.83
1001.91	3225.55
1002.07	3112.91
1002.23	3178.45
1002.39	3252.17
1002.55	3123.15
1002.71	3184.59
1002.87	3200.98
1003.03	3074.00
1003.19	3164.11
1003.34	3153.87
1003.50	3098.58
1003.66	3180.50
1003.82	3078.10
1003.98	3024.85
1004.14	3235.79
1004.30	2990.03
1004.46	3065.81
1004.62	3127.25
1004.78	3121.10
1004.94	3051.47
1005.09	3080.14
1005.25	3026.90
1005.41	3112.91
1005.57	3053.52
1005.73	3033.04
1005.89	2934.74
1006.05	2979.79
1006.21	3055.57
1006.37	2873.30
1006.52	2973.65
1006.68	2871.25
1006.84	3018.71
1007.00	2932.69
1007.16	2928.60
1007.32	2899.92
1007.48	2871.25
1007.64	2871.25
1007.79	2906.07
1007.95	2844.63
1008.11	2932.69
1008.27	2887.64
1008.43	2879.44
1008.59	2897.88
1008.75	2916.31
1008.91	2928.60
1009.06	2869.20
1009.22	2883.54
1009.38	2836.44
1009.54	2879.44
1009.70	2893.78
1009.86	2828.24
1010.01	2869.20
1010.17	2805.72
1010.33	2799.57
1010.49	2883.54
1010.65	2805.72
1010.81	2711.51
1010.96	2725.85
1011.12	2736.09
1011.28	2617.30
1011.44	2787.29
1011.60	2668.50
1011.76	2715.61
1011.91	2752.47
1012.07	2590.68
1012.23	2633.69
1012.39	2699.22
1012.55	2709.46
1012.71	2740.18
1012.86	2623.45
1013.02	2592.73
1013.18	2613.21
1013.34	2627.54
1013.50	2699.22
1013.65	2695.13
1013.81	2670.55
1013.97	2637.78
1014.13	2654.17
1014.29	2672.60
1014.44	2609.11
1014.60	2549.72
1014.76	2541.53
1014.92	2615.26
1015.07	2619.35
1015.23	2584.54
1015.39	2594.78
1015.55	2652.12
1015.71	2582.49
1015.86	2494.43
1016.02	2498.52
1016.18	2400.22
1016.34	2539.48
1016.49	2555.86
1016.65	2605.02
1016.81	2551.77
1016.97	2564.06
1017.12	2535.39
1017.28	2457.56
1017.44	2484.19
1017.60	2379.74
1017.75	2404.32
1017.91	2445.27
1018.07	2451.42
1018.23	2543.58
1018.38	2463.71
1018.54	2451.42
1018.70	2385.88
1018.86	2465.75
1019.01	2346.97
1019.17	2441.18
1019.33	2482.14
1019.49	2432.99
1019.64	2387.93
1019.80	2521.05
1019.96	2420.70
1020.12	2379.74
1020.27	2310.11
1020.43	2392.03
1020.59	2430.94
1020.74	2527.19
1020.90	2404.32
1021.06	2363.36
1021.22	2361.31
1021.37	2400.22
1021.53	2367.45
1021.69	2344.92
1021.84	2301.92
1022.00	2334.68
1022.16	2371.55
1022.31	2381.79
1022.47	2363.36
1022.63	2412.51
1022.79	2185.18
1022.94	2361.31
1023.10	2377.69
1023.26	2273.25
1023.41	2252.77
1023.57	2248.67
1023.73	2279.39
1023.88	2332.64
1024.04	2265.05
1024.20	2351.07
1024.35	2338.78
1024.51	2263.01
1024.67	2310.11
1024.82	2322.40
1024.98	2207.71
1025.14	2197.47
1025.29	2140.13
1025.45	2222.05
1025.61	2168.80
1025.76	2197.47
1025.92	2222.05
1026.08	2174.94
1026.23	2260.96
1026.39	2205.66
1026.55	2189.28
1026.70	2170.85
1026.86	2195.42
1027.02	2213.85
1027.17	2205.66
1027.33	2230.24
1027.48	2220.00
1027.64	2174.94
1027.80	2140.13
1027.95	2265.05
1028.11	2033.63
1028.27	2160.61
1028.42	2242.53
1028.58	2095.07
1028.73	2107.36
1028.89	2052.06
1029.05	2248.67
1029.20	2197.47
>>>>>End Processed Spectral Data<<<<<
