SpectraSuite Data File
++++++++++++++++++++++++++++++++++++
Date: Fri Jun 02 14:49:23 CEST 2017
User: INFO_000
Dark Spectrum Present: No
Reference Spectrum Present: No
Number of Sampled Component Spectra: 1
Spectrometers: USB4H00879
Integration Time (usec): 80000 (USB4H00879)
Spectra Averaged: 1 (USB4H00879)
Boxcar Smoothing: 0 (USB4H00879)
Correct for Electrical Dark: No (USB4H00879)
Strobe/Lamp Enabled: No (USB4H00879)
Correct for Detector Non-linearity: No (USB4H00879)
Correct for Stray Light: No (USB4H00879)
Number of Pixels in Processed Spectrum: 3648
>>>>>Begin Processed Spectral Data<<<<<
345.13	1314.80
345.34	1314.80
345.56	1314.80
345.78	1284.08
345.99	1269.74
346.21	1691.62
346.42	1724.39
346.64	1605.61
346.86	1830.88
347.07	1597.42
347.29	1662.95
347.50	1601.51
347.72	1656.81
347.94	1720.29
348.15	1544.17
348.37	1621.99
348.59	1753.06
348.80	1638.38
349.02	1658.85
349.23	1746.92
349.45	1667.05
349.67	1748.97
349.88	1650.66
350.10	1912.80
350.31	1685.48
350.53	1726.44
350.75	1806.31
350.96	1714.15
351.18	1734.63
351.39	1665.00
351.61	1671.14
351.82	1800.16
352.04	1777.64
352.26	1683.43
352.47	1724.39
352.69	1787.88
352.90	1636.33
353.12	1697.77
353.34	1689.57
353.55	1767.40
353.77	1753.06
353.98	1667.05
354.20	1681.38
354.41	1761.25
354.63	1779.68
354.85	1871.84
355.06	1712.10
355.28	1597.42
355.49	1712.10
355.71	1769.44
355.92	1630.18
356.14	1773.54
356.35	1724.39
356.57	1658.85
356.79	1738.73
357.00	1679.33
357.22	1800.16
357.43	1646.57
357.65	1863.65
357.86	1667.05
358.08	1675.24
358.29	1748.97
358.51	1746.92
358.72	1802.21
358.94	1640.42
359.16	1667.05
359.37	1753.06
359.59	1742.82
359.80	1785.83
360.02	1705.96
360.23	1744.87
360.45	1794.02
360.66	1693.67
360.88	1646.57
361.09	1771.49
361.31	1744.87
361.52	1728.49
361.74	1822.69
361.95	1808.36
362.17	1654.76
362.38	1830.88
362.60	1757.16
362.81	1781.73
363.03	1679.33
363.24	1746.92
363.46	1755.11
363.67	1744.87
363.89	1759.21
364.10	1679.33
364.32	1693.67
364.53	1771.49
364.75	1591.27
364.96	1712.10
365.18	1736.68
365.39	1734.63
365.61	1617.90
365.82	1769.44
366.04	1771.49
366.25	1722.34
366.47	1763.30
366.68	1695.72
366.90	1671.14
367.11	1722.34
367.33	1757.16
367.54	1771.49
367.76	1662.95
367.97	1804.26
368.19	1718.25
368.40	1830.88
368.62	1658.85
368.83	1634.28
369.05	1740.77
369.26	1671.14
369.48	1634.28
369.69	1675.24
369.91	1681.38
370.12	1703.91
370.33	1843.17
370.55	1621.99
370.76	1619.94
370.98	1744.87
371.19	1802.21
371.41	1710.05
371.62	1765.35
371.84	1712.10
372.05	1912.80
372.27	1724.39
372.48	1693.67
372.69	1808.36
372.91	1781.73
373.12	1703.91
373.34	1701.86
373.55	1699.81
373.77	1759.21
373.98	1638.38
374.20	1773.54
374.41	1888.23
374.62	1712.10
374.84	1744.87
375.05	1699.81
375.27	1691.62
375.48	1724.39
375.70	1667.05
375.91	1732.58
376.12	1787.88
376.34	1757.16
376.55	1677.29
376.77	1771.49
376.98	1648.61
377.19	1669.09
377.41	1665.00
377.62	1755.11
377.84	1734.63
378.05	1757.16
378.27	1753.06
378.48	1841.12
378.69	1869.80
378.91	1843.17
379.12	1802.21
379.34	1787.88
379.55	1763.30
379.76	1757.16
379.98	1746.92
380.19	1798.12
380.41	1708.01
380.62	1777.64
380.83	1732.58
381.05	1660.90
381.26	1888.23
381.47	1691.62
381.69	1705.96
381.90	1839.08
382.12	1785.83
382.33	1724.39
382.54	1687.53
382.76	1757.16
382.97	1765.35
383.19	1703.91
383.40	1863.65
383.61	1714.15
383.83	1687.53
384.04	1699.81
384.25	1722.34
384.47	1818.60
384.68	1783.78
384.89	1712.10
385.11	1681.38
385.32	1740.77
385.54	1662.95
385.75	1724.39
385.96	1755.11
386.18	1751.01
386.39	1738.73
386.60	1699.81
386.82	1724.39
387.03	1720.29
387.24	1834.98
387.46	1767.40
387.67	1798.12
387.88	1869.80
388.10	1757.16
388.31	1699.81
388.52	1771.49
388.74	1810.40
388.95	1728.49
389.16	1732.58
389.38	1648.61
389.59	1785.83
389.80	1812.45
390.02	1726.44
390.23	1863.65
390.44	1714.15
390.66	1689.57
390.87	1673.19
391.08	1812.45
391.30	1884.13
391.51	1820.64
391.72	1814.50
391.94	1804.26
392.15	1712.10
392.36	1783.78
392.58	1757.16
392.79	1851.36
393.00	1798.12
393.22	1927.14
393.43	1826.79
393.64	1859.56
393.85	1892.32
394.07	1755.11
394.28	1855.46
394.49	1814.50
394.71	1740.77
394.92	1861.60
395.13	1662.95
395.35	1785.83
395.56	1671.14
395.77	1763.30
395.98	1789.92
396.20	1867.75
396.41	1742.82
396.62	1863.65
396.84	1753.06
397.05	1724.39
397.26	1810.40
397.47	1855.46
397.69	1753.06
397.90	1984.48
398.11	1818.60
398.32	1730.53
398.54	1714.15
398.75	1822.69
398.96	1869.80
399.18	1927.14
399.39	1744.87
399.60	1814.50
399.81	1796.07
400.03	1716.20
400.24	2004.96
400.45	1839.08
400.66	1867.75
400.88	1732.58
401.09	1959.91
401.30	1652.71
401.51	1861.60
401.73	1824.74
401.94	1865.70
402.15	1847.27
402.36	1925.09
402.58	1869.80
402.79	1933.28
403.00	1757.16
403.21	1843.17
403.43	1941.47
403.64	2004.96
403.85	1789.92
404.06	1955.81
404.27	1802.21
404.49	1841.12
404.70	1824.74
404.91	1871.84
405.12	1929.19
405.34	1937.38
405.55	1923.04
405.76	1744.87
405.97	1757.16
406.19	1996.77
406.40	1853.41
406.61	1978.34
406.82	1837.03
407.03	1863.65
407.25	1810.40
407.46	2011.11
407.67	1953.76
407.88	2076.64
408.09	1826.79
408.31	1826.79
408.52	1929.19
408.73	1810.40
408.94	1818.60
409.15	1910.75
409.37	1902.56
409.58	1859.56
409.79	1869.80
410.00	1980.39
410.21	1886.18
410.43	1855.46
410.64	1789.92
410.85	1933.28
411.06	1988.58
411.27	1957.86
411.48	1959.91
411.70	2009.06
411.91	2009.06
412.12	2070.50
412.33	2166.75
412.54	1853.41
412.76	2043.87
412.97	2103.26
413.18	1931.23
413.39	1851.36
413.60	1998.82
413.81	1982.43
414.03	1910.75
414.24	1775.59
414.45	2226.14
414.66	1904.61
414.87	2109.41
415.08	1880.04
415.30	1984.48
415.51	2050.02
415.72	1873.89
415.93	2084.83
416.14	1925.09
416.35	1943.52
416.56	2031.58
416.78	1933.28
416.99	1925.09
417.20	1910.75
417.41	2172.89
417.62	2033.63
417.83	1925.09
418.04	2000.87
418.26	2187.23
418.47	2019.30
418.68	2052.06
418.89	2148.32
419.10	2351.07
419.31	2133.98
419.52	2064.35
419.73	1939.43
419.95	2361.31
420.16	1998.82
420.37	2054.11
420.58	1961.95
420.79	1933.28
421.00	2002.91
421.21	2015.20
421.42	2080.74
421.63	2078.69
421.85	2125.79
422.06	2039.78
422.27	2170.85
422.48	2117.60
422.69	2050.02
422.90	2164.70
423.11	2084.83
423.32	2336.73
423.53	2174.94
423.75	1996.77
423.96	2183.13
424.17	2303.96
424.38	2281.44
424.59	2133.98
424.80	2093.02
425.01	2228.19
425.22	2107.36
425.43	2179.04
425.64	2234.33
425.85	2562.01
426.06	2527.19
426.28	2181.09
426.49	1908.71
426.70	2185.18
426.91	2232.29
427.12	2406.36
427.33	2426.84
427.54	2459.61
427.75	2414.56
427.96	2416.60
428.17	2455.51
428.38	2131.94
428.59	2279.39
428.80	2375.64
429.01	2420.70
429.23	2320.35
429.44	2217.95
429.65	2512.86
429.86	2398.17
430.07	2602.97
430.28	2482.14
430.49	2557.91
430.70	2240.48
430.91	2744.28
431.12	2658.26
431.33	2480.09
431.54	2664.41
431.75	2475.99
431.96	2580.44
432.17	2635.74
432.38	2666.46
432.59	2645.98
432.80	2856.92
433.01	2717.65
433.22	2535.39
433.43	2580.44
433.64	2803.67
433.85	2494.43
434.06	2680.79
434.27	2551.77
434.49	2570.20
434.70	2908.12
434.91	2740.18
435.12	2787.29
435.33	2688.98
435.54	2584.54
435.75	2467.80
435.96	2521.05
436.17	2658.26
436.38	2731.99
436.59	2854.87
436.80	2633.69
437.01	2854.87
437.22	2899.92
437.43	2883.54
437.64	2731.99
437.85	2766.81
438.06	3160.02
438.27	2506.71
438.48	2920.40
438.69	2727.89
438.90	2850.77
439.11	2901.97
439.32	3178.45
439.53	2844.63
439.74	2963.41
439.95	3000.27
440.16	2910.16
440.37	2910.16
440.57	2764.76
440.78	3098.58
440.99	3338.19
441.20	2877.40
441.41	3049.43
441.62	2867.16
441.83	3000.27
442.04	3055.57
442.25	2955.22
442.46	2953.17
442.67	2987.99
442.88	3227.60
443.09	2994.13
443.30	2889.68
443.51	2883.54
443.72	3252.17
443.93	3018.71
444.14	3340.24
444.35	2928.60
444.56	2996.18
444.77	3035.09
444.98	3577.80
445.19	3485.64
445.40	3215.31
445.61	3270.61
445.81	3135.44
446.02	3534.79
446.23	3225.55
446.44	3053.52
446.65	3555.27
446.86	3854.28
447.07	3807.17
447.28	3295.18
447.49	3354.57
447.70	3768.26
447.91	3680.20
448.12	3286.99
448.33	3645.38
448.54	3686.34
448.74	3354.57
448.95	3641.29
449.16	3416.01
449.37	3768.26
449.58	3835.85
449.79	3692.49
450.00	3608.52
450.21	3770.31
450.42	4040.64
450.63	3706.82
450.84	3669.96
451.05	3835.85
451.25	3565.51
451.46	3639.24
451.67	3766.21
451.88	4001.73
452.09	3639.24
452.30	3659.72
452.51	3723.21
452.72	3839.94
452.93	4333.50
453.13	3516.36
453.34	3631.05
453.55	4177.86
453.76	4007.87
453.97	4085.70
454.18	3592.14
454.39	3985.35
454.60	3821.51
454.81	4153.28
455.01	3991.49
455.22	3682.25
455.43	4130.75
455.64	4345.79
455.85	4265.92
456.06	4353.98
456.27	4229.06
456.48	4159.42
456.68	4409.28
456.89	4542.39
457.10	4495.29
457.31	4239.30
457.52	4147.14
457.73	4241.34
457.94	4478.91
458.14	4325.31
458.35	4923.32
458.56	4407.23
458.77	4519.87
458.98	4493.24
459.19	4720.57
459.39	4855.73
459.60	5023.67
459.81	4546.49
460.02	4728.76
460.23	4695.99
460.44	5068.72
460.65	4601.79
460.85	4644.79
461.06	4726.71
461.27	4728.76
461.48	4845.49
461.69	4886.45
461.89	4806.58
462.10	4927.41
462.31	4632.51
462.52	5140.40
462.73	5107.63
462.94	5246.90
463.14	5334.96
463.35	5167.03
463.56	5904.29
463.77	5396.40
463.98	5341.10
464.18	4923.32
464.39	5926.82
464.60	5904.29
464.81	5570.48
465.02	5533.61
465.23	5756.84
465.43	5715.88
465.64	5730.22
465.85	5429.17
466.06	5619.63
466.27	6016.93
466.47	6182.82
466.68	5701.54
466.89	5867.43
467.10	5988.26
467.30	5834.66
467.51	6522.78
467.72	5992.36
467.93	6082.47
468.14	6018.98
468.34	6551.45
468.55	6164.39
468.76	6268.83
468.97	5971.88
469.17	6715.29
469.38	6434.72
469.59	6735.77
469.80	6268.83
470.01	6832.02
470.21	6279.07
470.42	6750.10
470.63	6905.75
470.84	6889.37
471.04	6635.42
471.25	7126.93
471.46	6942.61
471.67	7550.86
471.87	7151.51
472.08	7079.83
472.29	7133.08
472.50	7014.29
472.70	7407.50
472.91	6891.41
473.12	7323.54
473.33	7112.60
473.53	7468.94
473.74	7247.76
473.95	7786.38
474.16	7882.63
474.36	7544.72
474.57	8056.71
474.78	7970.69
474.99	8286.08
475.19	7702.41
475.40	8099.72
475.61	8466.30
475.81	7798.66
476.02	8226.69
476.23	8251.27
476.44	8232.83
476.64	8408.96
476.85	8916.86
477.06	8423.30
477.27	9109.36
477.47	8953.72
477.68	8871.80
477.89	8826.75
478.09	8941.43
478.30	8564.61
478.51	8644.48
478.71	9367.41
478.92	9291.63
479.13	9310.07
479.34	9457.52
479.54	9441.14
479.75	9342.83
479.96	9690.99
480.16	9469.81
480.37	9586.54
480.58	9791.34
480.78	10110.82
480.99	9678.70
481.20	10168.16
481.41	9645.93
481.61	9903.98
481.82	10461.02
482.03	10110.82
482.23	9805.67
482.44	10575.71
482.65	11003.74
482.85	10596.19
483.06	10665.82
483.27	10817.37
483.47	10667.87
483.68	10780.51
483.89	10784.60
484.09	11413.33
484.30	11001.69
484.51	10991.45
484.71	11317.08
484.92	11274.07
485.13	11542.35
485.33	11323.22
485.54	11243.35
485.75	11423.57
485.95	11650.89
486.16	11581.26
486.37	11820.88
486.57	11472.72
486.78	11583.31
486.98	11956.04
487.19	11687.76
487.40	11927.37
487.60	11984.71
487.81	12107.59
488.02	12001.10
488.22	12058.44
488.43	12257.09
488.64	12560.19
488.84	12474.18
489.05	12683.07
489.25	12459.84
489.46	12552.00
489.67	12832.57
489.87	13256.50
490.08	13076.28
490.29	13135.67
490.49	13027.13
490.70	13246.26
490.90	13119.29
491.11	13070.14
491.32	13180.73
491.52	13201.21
491.73	13375.28
491.94	13449.01
492.14	13545.27
492.35	13788.97
492.55	13551.41
492.76	13586.22
492.97	14014.25
493.17	13786.93
493.38	14067.50
493.58	14407.46
493.79	13868.84
494.00	14221.10
494.20	14255.91
494.41	14442.28
494.61	14696.22
494.82	14636.83
495.02	14118.70
495.23	15044.38
495.44	14434.08
495.64	14851.87
495.85	14796.57
496.05	15001.37
496.26	14941.98
496.47	14972.70
496.67	14825.25
496.88	15802.13
497.08	14866.21
497.29	15472.40
497.49	15306.52
497.70	15445.78
497.91	15292.18
498.11	15525.65
498.32	15722.26
498.52	15691.54
498.73	15572.75
498.93	16137.99
499.14	16140.04
499.34	16109.32
499.55	16031.50
499.76	15451.92
499.96	16068.36
500.17	15826.70
500.37	16224.01
500.58	16082.70
500.78	16121.61
500.99	16152.33
501.19	16480.00
501.40	16801.54
501.60	16097.03
501.81	16422.66
502.02	16865.02
502.22	16359.17
502.43	16840.45
502.63	16776.96
502.84	17190.65
503.04	16645.89
503.25	17204.99
503.45	16707.33
503.66	16795.39
503.86	16559.88
504.07	16916.22
504.27	16590.59
504.48	17116.92
504.68	17477.37
504.89	17405.69
505.09	17116.92
505.30	17465.08
505.50	17223.42
505.71	17168.12
505.91	17946.35
506.12	17671.92
506.32	17348.34
506.53	17698.55
506.73	17692.40
506.94	18048.75
507.14	17649.39
507.35	17907.44
507.55	17704.69
507.76	17919.73
507.96	17958.64
508.17	17704.69
508.37	17858.29
508.58	18181.87
508.78	18300.65
508.99	18716.39
509.19	18161.39
509.40	18573.03
509.60	18835.17
509.81	18396.90
510.01	18368.23
510.22	18396.90
510.42	18450.15
510.63	18468.58
510.83	18603.75
511.04	18480.87
511.24	18996.96
511.44	18407.14
511.65	19089.12
511.85	18491.11
512.06	18960.09
512.26	18927.33
512.47	19281.63
512.67	18982.62
512.88	18816.74
513.08	19332.82
513.29	19310.30
513.49	18761.44
513.69	19080.92
513.90	19191.52
514.10	19341.02
514.31	19556.05
514.51	19599.06
514.72	19711.70
514.92	19445.46
515.13	19443.42
515.33	19500.76
515.53	19758.80
515.74	19824.34
515.94	19859.15
516.15	19998.41
516.35	19420.89
516.56	19609.30
516.76	19810.00
516.96	20055.76
517.17	20459.21
517.37	19965.65
517.58	19977.94
517.78	20315.85
517.99	20248.27
518.19	20420.30
518.39	20158.16
518.60	21173.95
518.80	20121.29
519.01	20756.16
519.21	20457.16
519.41	20696.77
519.62	20373.19
519.82	20790.98
520.03	20942.53
520.23	21108.41
520.43	20731.59
520.64	21526.20
520.84	21055.17
521.05	20809.41
521.25	20811.46
521.45	21259.96
521.66	21210.81
521.86	21235.39
522.07	21145.28
522.27	21284.54
522.47	21092.03
522.68	21788.34
522.88	21196.48
523.08	21833.39
523.29	21178.04
523.49	21620.41
523.70	21653.17
523.90	21692.08
524.10	21982.90
524.31	21839.54
524.51	21642.93
524.71	21909.17
524.92	21915.31
525.12	22023.86
525.33	22113.97
525.53	22273.71
525.73	22763.17
525.94	22122.16
526.14	22419.11
526.34	22281.90
526.55	22894.24
526.75	22806.18
526.95	22722.21
527.16	22904.48
527.36	22568.62
527.56	23226.01
527.77	22703.78
527.97	23451.29
528.17	22828.71
528.38	23105.18
528.58	23254.69
528.78	23090.85
528.99	23068.32
529.19	23557.78
529.39	23221.92
529.60	23246.49
529.80	23522.97
530.00	23152.29
530.21	23793.30
530.41	24213.13
530.61	24096.40
530.82	23977.62
531.02	23854.74
531.22	23969.43
531.43	23965.33
531.63	24188.56
531.83	24305.29
532.04	24538.76
532.24	24305.29
532.44	24028.82
532.64	24442.51
532.85	25136.77
533.05	24854.15
533.25	24702.60
533.46	24688.26
533.66	25177.73
533.86	24886.92
534.07	25376.38
534.27	25110.14
534.47	25364.09
534.67	25388.67
534.88	25020.03
535.08	25728.63
535.28	25828.98
535.49	25824.89
535.69	25955.96
535.89	26023.54
536.09	26142.32
536.30	25933.43
536.50	25931.38
536.70	26062.45
536.91	25716.34
537.11	26328.69
537.31	26609.26
537.51	26465.90
537.72	26560.11
537.92	26717.80
538.12	26965.60
538.32	26277.49
538.53	26564.20
538.73	26558.06
538.93	26234.48
539.13	26728.04
539.34	27297.38
539.54	26660.46
539.74	27063.91
539.94	26977.89
540.15	27143.78
540.35	27500.12
540.55	27293.28
540.75	27225.70
540.96	27598.43
541.16	27645.53
541.36	27688.54
541.56	27645.53
541.77	28012.12
541.97	27305.57
542.17	27526.75
542.37	27960.92
542.58	27485.79
542.78	27954.77
542.98	27844.18
543.18	28071.51
543.38	28618.32
543.59	28462.67
543.79	27766.36
543.99	28155.47
544.19	28112.47
544.40	28261.97
544.60	28700.23
544.80	28286.54
545.00	28814.92
545.20	28827.21
545.41	28853.83
545.61	28143.19
545.81	28849.74
546.01	29163.08
546.21	29001.29
546.42	28958.28
546.62	29058.63
546.82	29005.38
547.02	28923.46
547.22	29070.92
547.43	29013.57
547.63	29161.03
547.83	29034.05
548.03	28778.06
548.23	29388.35
548.44	29707.83
548.64	29539.90
548.84	29376.06
549.04	29167.17
549.24	29503.04
549.45	30649.90
549.65	29353.54
549.85	29513.28
550.05	29771.32
550.25	29781.56
550.45	30438.96
550.66	29507.13
550.86	29992.50
551.06	30150.20
551.26	29978.17
551.46	29943.35
551.66	29967.93
551.87	29742.65
552.07	30207.54
552.27	30258.74
552.47	30387.76
552.67	30139.96
552.87	30307.89
553.07	30287.41
553.28	30428.72
553.48	30588.46
553.68	30293.55
553.88	30887.46
554.08	30881.32
554.28	30832.17
554.48	30539.31
554.69	30717.48
554.89	30486.06
555.09	30989.86
555.29	30590.51
555.49	30893.61
555.69	30858.79
555.89	30987.82
556.10	30772.78
556.30	30805.55
556.50	30889.51
556.70	31016.49
556.90	30766.63
557.10	31368.74
557.30	31196.71
557.50	31512.10
557.70	31553.05
557.91	31325.73
558.11	31297.06
558.31	31690.27
558.51	31667.74
558.71	31315.49
558.91	31409.70
559.11	31524.38
559.31	31495.71
559.51	31419.94
559.72	31493.66
559.92	31219.24
560.12	31428.13
560.32	31741.47
560.52	31659.55
560.72	31790.62
560.92	32134.68
561.12	31776.28
561.32	32044.57
561.52	31395.36
561.72	32200.21
561.93	32046.62
562.13	31972.89
562.33	31850.01
562.53	32650.77
562.73	31794.71
562.93	32052.76
563.13	32146.97
563.33	32009.75
563.53	32732.68
563.73	31956.50
563.93	32462.35
564.13	32409.11
564.33	32386.58
564.53	32216.60
564.74	32671.25
564.94	32472.59
565.14	32736.78
565.34	32265.75
565.54	32124.44
565.74	32468.50
565.94	32935.43
566.14	32400.91
566.34	32454.16
566.54	32624.14
566.74	32388.63
566.94	32767.50
567.14	32878.09
567.34	32902.67
567.54	33089.03
567.74	32830.99
567.94	32269.84
568.14	33058.31
568.34	33242.63
568.54	33095.18
568.74	32921.10
568.94	33007.11
569.14	33398.27
569.34	33474.05
569.54	33246.72
569.75	32818.70
569.95	33189.38
570.15	33453.57
570.35	33263.11
570.55	32865.80
570.75	33254.92
570.95	33615.36
571.15	33041.93
571.35	33551.87
571.55	33656.32
571.75	33598.98
571.95	34180.60
572.15	33023.50
572.35	33648.13
572.55	33644.03
572.75	33977.85
572.95	33299.97
573.15	33756.67
573.35	33736.19
573.55	33756.67
573.75	33291.78
573.95	34332.15
574.15	33707.52
574.35	34305.52
574.55	33863.16
574.75	34090.49
574.95	34125.30
575.15	33738.24
575.34	33969.66
575.54	34307.57
575.74	34571.76
575.94	34450.93
576.14	33912.31
576.34	34194.93
576.54	34500.08
576.74	34407.92
576.94	34487.79
577.14	34403.83
577.34	34651.63
577.54	34340.34
577.74	34250.23
577.94	35007.98
578.14	35141.10
578.34	34870.76
578.54	34237.94
578.74	34897.39
578.94	34846.19
579.14	34391.54
579.34	34618.86
579.54	35147.24
579.74	35147.24
579.94	34731.50
580.13	35302.89
580.33	34348.53
580.53	34745.84
580.73	35321.32
580.93	35474.91
581.13	35651.04
581.33	35239.40
581.53	35741.15
581.73	35321.32
581.93	35634.66
582.13	35505.63
582.33	35616.22
582.53	35839.45
582.73	35532.26
582.92	35479.01
583.12	35810.78
583.32	36025.82
583.52	35618.27
583.72	35948.00
583.92	35919.32
584.12	35642.85
584.32	36222.42
584.52	35841.50
584.72	36083.16
584.92	36158.94
585.11	36685.26
585.31	36160.98
585.51	35900.89
585.71	36144.60
585.91	36492.76
586.11	36488.66
586.31	36847.05
586.51	36296.15
586.71	36629.97
586.91	36597.20
587.10	36728.27
587.30	36482.52
587.50	36873.68
587.70	36763.09
587.90	37027.28
588.10	36777.42
588.30	37055.95
588.50	37117.39
588.69	36871.63
588.89	36773.33
589.09	36756.94
589.29	37152.20
589.49	37303.75
589.69	36564.43
589.89	37447.11
590.08	36863.44
590.28	37270.98
590.48	37342.66
590.68	37049.80
590.88	37232.07
591.08	37158.34
591.28	37567.94
591.47	37610.95
591.67	37213.64
591.87	37512.64
592.07	37211.59
592.27	37682.62
592.47	37187.02
592.67	37422.53
592.86	37596.61
593.06	37885.37
593.26	37877.18
593.46	37756.35
593.66	37328.33
593.86	37770.69
594.05	38374.84
594.25	38620.59
594.45	37950.91
594.65	37916.09
594.85	37541.32
595.05	37834.17
595.24	38067.64
595.44	37895.61
595.64	38254.01
595.84	38518.20
596.04	38096.31
596.23	38311.35
596.43	38671.79
596.63	38473.14
596.83	38286.78
597.03	38829.49
597.22	39022.00
597.42	39257.51
597.62	38532.53
597.82	38794.67
598.02	38700.47
598.21	38813.10
598.41	38413.75
598.61	38579.64
598.81	38755.76
599.01	39081.39
599.20	38835.63
599.40	38811.06
599.60	39572.90
599.80	39415.21
600.00	39507.37
600.19	39642.53
600.39	38874.54
600.59	39380.39
600.79	39277.99
600.98	39255.46
601.18	39132.59
601.38	39493.03
601.58	39613.86
601.78	39706.02
601.97	39890.34
602.17	39957.92
602.37	40129.95
602.57	39531.94
602.76	40385.94
602.96	39914.91
603.16	39806.37
603.36	39837.09
603.55	40162.72
603.75	40005.02
603.95	39808.42
604.15	40088.99
604.34	39882.14
604.54	40289.69
604.74	40166.81
604.94	40484.25
605.13	40220.06
605.33	40611.22
605.53	40183.19
605.73	40639.89
605.92	40557.97
606.12	40678.80
606.32	40572.31
606.52	40932.75
606.71	40607.12
606.91	40682.90
607.11	40342.94
607.30	40768.91
607.50	40752.53
607.70	41139.60
607.90	40375.70
608.09	40353.18
608.29	41006.48
608.49	40977.81
608.68	40615.32
608.88	41135.50
609.08	40906.13
609.28	41530.76
609.47	40861.07
609.67	41201.04
609.87	41119.12
610.06	41379.21
610.26	41522.57
610.46	41229.71
610.66	40566.16
610.85	41082.25
611.05	40983.95
611.25	40963.47
611.44	41045.39
611.64	41282.95
611.84	41309.58
612.03	41162.12
612.23	41485.70
612.43	41405.83
612.62	40934.80
612.82	41481.61
613.02	41491.85
613.21	41571.72
613.41	41346.44
613.61	41487.75
613.80	41624.96
614.00	41495.94
614.20	41563.53
614.39	41401.74
614.59	41280.91
614.79	41813.38
614.98	41762.18
615.18	41717.12
615.38	41022.86
615.57	41266.57
615.77	41989.50
615.97	41364.87
616.16	41604.49
616.36	41334.15
616.56	41817.47
616.75	41635.20
616.95	41082.25
617.15	42046.85
617.34	41559.43
617.54	41622.92
617.74	41932.16
617.93	42124.67
618.13	41551.24
618.32	41602.44
618.52	41602.44
618.72	41840.00
618.91	41960.83
619.11	41692.55
619.31	41696.64
619.50	41184.65
619.70	41837.95
619.90	41729.41
620.09	41639.30
620.29	41332.11
620.48	41676.16
620.68	42096.00
620.88	41487.75
621.07	41960.83
621.27	41805.19
621.46	41381.26
621.66	41827.71
621.86	41686.40
622.05	41594.25
622.25	42093.95
622.44	41846.15
622.64	41555.33
622.84	41694.60
623.03	41457.03
623.23	41477.51
623.42	41688.45
623.62	41850.24
623.82	41807.23
624.01	42071.42
624.21	41821.57
624.40	41727.36
624.60	41465.22
624.80	41600.39
624.99	41874.82
625.19	41672.07
625.38	41741.70
625.58	41794.95
625.77	41682.31
625.97	41813.38
626.17	41325.96
626.36	41979.26
626.56	41856.39
626.75	41620.87
626.95	42222.97
627.14	41459.08
627.34	42347.90
627.54	41305.48
627.73	42311.03
627.93	41448.84
628.12	41215.37
628.32	42372.47
628.51	41792.90
628.71	42126.72
628.90	41938.30
629.10	41682.31
629.30	42132.86
629.49	41997.70
629.69	41807.23
629.88	41651.59
630.08	42233.21
630.27	42089.85
630.47	42194.30
630.66	41977.22
630.86	41817.47
631.05	41291.15
631.25	42278.27
631.44	41842.05
631.64	41624.96
631.84	41497.99
632.03	42349.95
632.23	41616.77
632.42	42222.97
632.62	42038.65
632.81	41694.60
633.01	42052.99
633.20	42458.49
633.40	42104.19
633.59	41837.95
633.79	42104.19
633.98	41737.60
634.18	41850.24
634.37	41960.83
634.57	41958.78
634.76	42136.96
634.96	42190.20
635.15	42159.48
635.35	41684.36
635.54	41971.07
635.74	42431.86
635.93	41905.54
636.13	42091.90
636.32	42468.73
636.52	42245.50
636.71	42134.91
636.91	42323.32
637.10	42423.67
637.30	42239.36
637.49	42087.81
637.69	42358.14
637.88	42003.84
638.08	42018.17
638.27	42407.29
638.46	42247.55
638.66	42012.03
638.85	42460.54
639.05	42552.69
639.24	42196.35
639.44	42206.59
639.63	42870.13
639.83	42323.32
640.02	42083.71
640.22	42126.72
640.41	42319.23
640.61	42757.49
640.80	42519.93
640.99	42042.75
641.19	42964.34
641.38	42845.55
641.58	42661.24
641.77	42020.22
641.97	42444.15
642.16	42110.33
642.36	42691.96
642.55	42851.70
642.74	42661.24
642.94	43152.75
643.13	42083.71
643.33	42777.97
643.52	42470.78
643.72	42450.30
643.91	42431.86
644.10	42982.77
644.30	42812.79
644.49	42773.88
644.69	43212.14
644.88	42915.19
645.08	42505.59
645.27	42782.07
645.46	42093.95
645.66	43056.50
645.85	42567.03
646.05	42915.19
646.24	42761.59
646.43	42802.55
646.63	43232.62
646.82	42960.24
647.02	43007.34
647.21	42507.64
647.40	42599.80
647.60	43300.20
647.79	42941.81
647.99	43169.13
648.18	43160.94
648.37	43398.51
648.57	42827.12
648.76	42427.77
648.96	42990.96
649.15	42986.86
649.34	43586.92
649.54	43324.78
649.73	42847.60
649.92	43576.68
650.12	43292.01
650.31	43029.87
650.51	43449.70
650.70	43167.09
650.89	42941.81
651.09	44012.90
651.28	43349.35
651.47	43076.97
651.67	43208.04
651.86	43717.99
652.06	42780.02
652.25	43689.32
652.44	42816.88
652.64	43246.96
652.83	43095.41
653.02	42935.66
653.22	43283.82
653.41	43046.26
653.60	43097.45
653.80	43085.17
653.99	43482.47
654.18	43304.30
654.38	43300.20
654.57	43384.17
654.76	43099.50
654.96	43529.58
655.15	43347.31
655.34	43644.26
655.54	42958.19
655.73	43076.97
655.92	43173.23
656.12	43568.49
656.31	43480.42
656.50	43873.63
656.70	43652.45
656.89	43079.02
657.08	43445.61
657.28	43568.49
657.47	43085.17
657.66	43433.32
657.86	43222.38
658.05	43930.98
658.24	43318.64
658.43	43427.18
658.63	43388.27
658.82	43685.22
659.01	43224.43
659.21	43832.68
659.40	43734.37
659.59	43332.97
659.79	43937.12
659.98	44100.96
660.17	43451.75
660.36	43316.59
660.56	43773.28
660.75	43726.18
660.94	43914.59
661.14	43656.55
661.33	43701.61
661.52	43169.13
661.71	43912.55
661.91	43441.51
662.10	43830.63
662.29	43580.78
662.49	43773.28
662.68	43441.51
662.87	43697.51
663.06	43384.17
663.26	43435.37
663.45	43906.40
663.64	43543.91
663.83	43664.74
664.03	44143.97
664.22	43693.41
664.41	43910.50
664.60	43758.95
664.80	43660.65
664.99	44080.48
665.18	43406.70
665.37	43810.15
665.57	43855.20
665.76	43687.27
665.95	44098.91
666.14	43900.26
666.34	43844.96
666.53	44143.97
666.72	43636.07
666.91	43523.43
667.11	43746.66
667.30	43687.27
667.49	43369.83
667.68	43601.25
667.87	43388.27
668.07	43666.79
668.26	43509.10
668.45	43558.25
668.64	43799.91
668.84	44064.10
669.03	43797.86
669.22	43771.24
669.41	43812.20
669.60	43775.33
669.80	43677.03
669.99	43922.79
670.18	43636.07
670.37	43777.38
670.57	44051.81
670.76	43758.95
670.95	43978.08
671.14	43691.37
671.33	43337.07
671.53	44266.84
671.72	43728.23
671.91	43717.99
672.10	43472.23
672.29	44096.86
672.48	43939.17
672.68	43937.12
672.87	44119.39
673.06	43883.87
673.25	43568.49
673.44	43249.00
673.64	43752.80
673.83	43664.74
674.02	43208.04
674.21	43541.86
674.40	43595.11
674.59	43095.41
674.79	43283.82
674.98	43541.86
675.17	43582.82
675.36	43357.55
675.55	43582.82
675.74	43140.46
675.94	43709.80
676.13	43705.70
676.32	44170.59
676.51	43951.46
676.70	43627.88
676.89	43615.59
677.08	43574.63
677.28	43390.31
677.47	43496.81
677.66	44146.01
677.85	43472.23
678.04	43965.79
678.23	43640.17
678.42	43287.92
678.62	43306.35
678.81	44236.12
679.00	42898.80
679.19	44008.80
679.38	43724.13
679.57	43439.47
679.76	43386.22
679.96	43537.77
680.15	43595.11
680.34	43349.35
680.53	43750.76
680.72	43244.91
680.91	43404.65
681.10	43269.48
681.29	43613.54
681.48	43521.38
681.68	43193.71
681.87	43238.76
682.06	43609.45
682.25	42833.27
682.44	42763.64
682.63	43828.58
682.82	42753.40
683.01	43269.48
683.20	42597.75
683.39	43371.88
683.59	42956.14
683.78	42702.20
683.97	43029.87
684.16	43230.57
684.35	42648.95
684.54	42849.65
684.73	43238.76
684.92	42800.50
685.11	43109.74
685.30	42737.01
685.49	43224.43
685.69	42771.83
685.88	43265.39
686.07	43070.83
686.26	42616.18
686.45	42761.59
686.64	42956.14
686.83	43154.80
687.02	42906.99
687.21	42993.01
687.40	42685.81
687.59	43478.38
687.78	42718.58
687.97	42796.40
688.16	42767.73
688.35	42511.74
688.54	42349.95
688.74	42564.98
688.93	42808.69
689.12	42720.63
689.31	42825.07
689.50	42818.93
689.69	42491.26
689.88	42483.06
690.07	42329.47
690.26	42681.72
690.45	42843.51
690.64	42296.70
690.83	42636.66
691.02	42714.48
691.21	42194.30
691.40	42096.00
691.59	42640.76
691.78	42374.52
691.97	42669.43
692.16	42405.24
692.35	42114.43
692.54	42388.86
692.73	42366.33
692.92	42626.42
693.11	42906.99
693.30	42530.17
693.49	42079.61
693.68	42278.27
693.87	42374.52
694.06	41778.56
694.25	42192.25
694.44	42306.94
694.63	42210.68
694.82	42196.35
695.01	42642.81
695.20	42016.13
695.39	42155.39
695.58	42114.43
695.77	42024.32
695.96	41756.03
696.15	41768.32
696.34	41530.76
696.53	42294.65
696.72	42063.23
696.91	41856.39
697.10	42001.79
697.29	41760.13
697.48	42833.27
697.67	42489.21
697.86	41694.60
698.05	42169.72
698.24	42134.91
698.43	41588.10
698.62	41792.90
698.81	41434.50
699.00	41874.82
699.19	41332.11
699.38	41866.63
699.57	41362.82
699.76	42167.68
699.95	41680.26
700.14	41598.34
700.32	41254.28
700.51	41430.41
700.70	41737.60
700.89	41893.25
701.08	41459.08
701.27	41362.82
701.46	41809.28
701.65	41389.45
701.84	41481.61
702.03	41942.40
702.22	41186.70
702.41	41260.43
702.60	41448.84
702.79	41285.00
702.98	41065.87
703.17	41346.44
703.35	41076.11
703.54	40961.42
703.73	41592.20
703.92	41063.82
704.11	40777.11
704.30	40783.25
704.49	40854.93
704.68	40578.45
704.87	41084.30
705.06	41223.56
705.25	40740.24
705.43	41196.94
705.62	41252.23
705.81	40498.58
706.00	41012.62
706.19	40920.46
706.38	40877.46
706.57	40773.01
706.76	40433.05
706.95	40662.42
707.14	40809.87
707.32	40127.90
707.51	40451.48
707.70	40322.46
707.89	40441.24
708.08	40797.59
708.27	40541.59
708.46	41272.71
708.65	40588.69
708.84	40951.18
709.02	40703.38
709.21	40689.04
709.40	40449.43
709.59	40566.16
709.78	40519.06
709.97	40498.58
710.16	40353.18
710.34	40048.03
710.53	40023.45
710.72	40392.09
710.91	40066.46
711.10	40449.43
711.29	40211.87
711.48	40566.16
711.66	39859.62
711.85	39980.45
712.04	40467.86
712.23	40027.55
712.42	39878.05
712.61	40211.87
712.80	39822.75
712.98	39638.44
713.17	39718.31
713.36	40134.04
713.55	39912.86
713.74	39683.49
713.93	39597.48
714.11	39894.43
714.30	39777.70
714.49	39775.65
714.68	40181.15
714.87	39503.27
715.06	40095.13
715.24	39280.04
715.43	39859.62
715.62	39239.08
715.81	39552.42
716.00	39515.56
716.18	39302.57
716.37	39001.52
716.56	39196.07
716.75	40078.75
716.94	39169.45
717.12	39341.48
717.31	39472.55
717.50	38954.41
717.69	39208.36
717.88	39435.69
718.06	39425.45
718.25	39286.18
718.44	38921.65
718.63	39413.16
718.82	38561.20
719.00	39169.45
719.19	38983.09
719.38	38958.51
719.57	38639.03
719.76	38108.60
719.94	38266.30
720.13	38530.48
720.32	38784.43
720.51	38200.76
720.69	38608.31
720.88	38122.94
721.07	38573.49
721.26	38231.48
721.44	38227.38
721.63	37985.72
721.82	37955.00
722.01	38438.33
722.20	38258.10
722.38	38053.31
722.57	37621.19
722.76	38118.84
722.95	38061.50
723.13	37758.40
723.32	37541.32
723.51	37406.15
723.70	37854.65
723.88	37518.79
724.07	37127.63
724.26	37912.00
724.44	37830.08
724.63	37815.74
724.82	37541.32
725.01	37410.25
725.19	37342.66
725.38	37576.13
725.57	37240.26
725.76	37506.50
725.94	37574.08
726.13	37115.34
726.32	37387.72
726.51	36918.73
726.69	37866.94
726.88	37547.46
727.07	37803.46
727.25	36939.21
727.44	37535.17
727.63	37225.93
727.82	37119.43
728.00	37084.62
728.19	37352.90
728.38	37563.84
728.56	37051.85
728.75	36998.60
728.94	36992.46
729.12	37606.85
729.31	37348.81
729.50	37336.52
729.69	37674.43
729.87	37209.54
730.06	37230.02
730.25	37379.53
730.43	37522.88
730.62	36842.96
730.81	36957.64
730.99	37408.20
731.18	36818.38
731.37	37156.30
731.55	37260.74
731.74	37289.42
731.93	37180.87
732.11	36965.84
732.30	37215.69
732.49	36748.75
732.67	36902.35
732.86	36498.90
733.05	36730.32
733.23	36804.05
733.42	36799.95
733.61	36808.14
733.79	37121.48
733.98	37340.61
734.17	36611.54
734.35	36701.65
734.54	37469.64
734.73	37070.28
734.91	37004.75
735.10	36715.98
735.29	37170.63
735.47	36847.05
735.66	36695.50
735.84	37086.67
736.03	36527.57
736.22	36537.81
736.40	36658.64
736.59	36693.46
736.78	36398.55
736.96	36967.88
737.15	36599.25
737.33	36273.62
737.52	36183.51
737.71	36644.30
737.89	36378.07
738.08	35786.21
738.27	36263.38
738.45	36681.17
738.64	36586.96
738.82	36726.22
739.01	36214.23
739.20	36236.76
739.38	36277.72
739.57	36287.96
739.75	36765.14
739.94	36019.67
740.13	36695.50
740.31	36111.83
740.50	36525.52
740.68	36079.07
740.87	36148.70
741.06	36437.46
741.24	36160.98
741.43	35982.81
741.61	35745.25
741.80	36023.77
741.99	36312.53
742.17	35837.41
742.36	35821.02
742.54	35464.67
742.73	35956.19
742.91	35845.60
743.10	35939.80
743.29	36181.46
743.47	36285.91
743.66	35698.14
743.84	35413.48
744.03	35831.26
744.21	35763.68
744.40	35722.72
744.59	35737.05
744.77	35597.79
744.96	35456.48
745.14	35767.77
745.33	35509.73
745.51	35784.16
745.70	36062.68
745.88	35448.29
746.07	35427.81
746.26	35448.29
746.44	35665.38
746.63	35300.84
746.81	35616.22
747.00	35302.89
747.18	35157.48
747.37	34735.60
747.55	35538.40
747.74	35661.28
747.92	34960.87
748.11	35468.77
748.29	35462.63
748.48	35157.48
748.66	34825.71
748.85	35093.99
749.03	35118.57
749.22	35010.03
749.41	34715.12
749.59	35065.32
749.78	34954.73
749.96	34653.68
750.15	34784.75
750.33	34838.00
750.52	34420.21
750.70	34776.56
750.89	34616.82
751.07	34510.32
751.26	34416.11
751.44	34260.47
751.63	34692.59
751.81	34551.28
752.00	34317.81
752.18	34463.22
752.37	34717.17
752.55	34113.02
752.74	34661.87
752.92	34119.16
753.10	34280.95
753.29	34498.03
753.47	34528.75
753.66	33990.14
753.84	34541.04
754.03	34219.51
754.21	33752.57
754.40	34422.26
754.58	34389.49
754.77	34307.57
754.95	34506.23
755.14	34123.26
755.32	34162.17
755.51	33521.15
755.69	33621.50
755.88	33803.77
756.06	34014.71
756.24	33902.07
756.43	33920.51
756.61	33664.51
756.80	33631.74
756.98	33410.56
757.17	34125.30
757.35	33711.61
757.54	33752.57
757.72	33748.48
757.90	33191.43
758.09	33388.03
758.27	33361.41
758.46	33646.08
758.64	33408.51
758.83	33754.62
759.01	33416.71
759.19	33668.61
759.38	33428.99
759.56	33865.21
759.75	33484.29
759.93	33351.17
760.12	33144.33
760.30	33396.23
760.48	33041.93
760.67	33283.59
760.85	33029.64
761.04	33216.01
761.22	33005.06
761.40	32919.05
761.59	33091.08
761.77	32878.09
761.96	33502.72
762.14	33123.85
762.32	33240.58
762.51	32923.15
762.69	33306.12
762.88	33060.36
763.06	33021.45
763.24	33191.43
763.43	32843.27
763.61	32896.52
763.80	32527.89
763.98	32654.86
764.16	32546.32
764.35	32351.76
764.53	32194.07
764.72	32499.22
764.90	32525.84
765.08	32435.73
765.27	32306.71
765.45	32323.09
765.63	32265.75
765.82	32390.67
766.00	32065.05
766.18	32022.04
766.37	32450.06
766.55	32380.43
766.74	32370.19
766.92	32200.21
767.10	31839.77
767.29	32089.62
767.47	31942.17
767.65	32114.20
767.84	31995.42
768.02	32144.92
768.20	31653.40
768.39	31878.68
768.57	31729.18
768.75	31630.88
768.94	31802.91
769.12	31776.28
769.30	31280.67
769.49	31247.91
769.67	31225.38
769.85	31022.63
770.04	31176.23
770.22	31387.17
770.40	31501.86
770.59	31227.43
770.77	31831.58
770.95	31239.72
771.14	30981.67
771.32	31170.08
771.50	30764.59
771.69	30778.92
771.87	31258.15
772.05	30873.13
772.24	30522.93
772.42	31041.06
772.60	30969.38
772.78	31374.88
772.97	30627.37
773.15	31301.15
773.33	30991.91
773.52	30711.34
773.70	30836.27
773.88	30774.83
774.07	30651.95
774.25	30850.60
774.43	30809.64
774.61	31061.54
774.80	30905.90
774.98	30608.94
775.16	31000.10
775.34	30572.08
775.53	30498.35
775.71	30692.91
775.89	31360.55
776.08	30998.06
776.26	31141.41
776.44	30676.52
776.62	30545.45
776.81	30740.01
776.99	31165.99
777.17	30883.37
777.35	30744.11
777.54	31311.39
777.72	30891.56
777.90	31135.27
778.08	31354.40
778.27	31288.87
778.45	31309.35
778.63	31094.31
778.81	30594.61
779.00	31366.69
779.18	31344.16
779.36	31452.70
779.54	31057.45
779.73	30948.90
779.91	30965.29
780.09	31153.70
780.27	31297.06
780.46	31077.93
780.64	31346.21
780.82	31235.62
781.00	31057.45
781.19	31350.31
781.37	31647.26
781.55	31528.48
781.73	31606.30
781.91	31452.70
782.10	31401.50
782.28	31581.73
782.46	31604.25
782.64	31657.50
782.82	31317.54
783.01	31571.49
783.19	31800.86
783.37	31499.81
783.55	31514.14
783.74	31856.15
783.92	31204.90
784.10	31839.77
784.28	31759.90
784.46	31469.09
784.64	31362.59
784.83	31340.07
785.01	31841.82
785.19	31741.47
785.37	32103.96
785.55	31127.08
785.74	31381.03
785.92	31209.00
786.10	31542.81
786.28	31147.56
786.46	31401.50
786.64	30768.68
786.83	31540.77
787.01	31151.65
787.19	31311.39
787.37	31481.38
787.55	31745.56
787.74	31047.21
787.92	31231.52
788.10	30887.46
788.28	31006.25
788.46	30977.58
788.64	30615.08
788.82	31845.91
789.01	31069.73
789.19	31311.39
789.37	30789.16
789.55	30692.91
789.73	30727.72
789.91	30688.81
790.09	30334.51
790.28	30846.51
790.46	30398.00
790.64	30479.92
790.82	30185.01
791.00	30354.99
791.18	30215.73
791.36	30506.54
791.55	30455.34
791.73	30195.25
791.91	30266.93
792.09	30105.14
792.27	30033.46
792.45	30123.57
792.63	30182.96
792.81	29707.83
793.00	29568.57
793.18	29916.73
793.36	29515.33
793.54	29601.34
793.72	29498.94
793.90	29185.60
794.08	29439.55
794.26	29623.87
794.44	28931.65
794.62	29122.12
794.81	29425.22
794.99	29410.88
795.17	29431.36
795.35	29105.73
795.53	28984.90
795.71	29058.63
795.89	29083.20
796.07	28667.47
796.25	28685.90
796.43	28679.75
796.61	28477.01
796.80	27962.97
796.98	28663.37
797.16	28091.99
797.34	28403.28
797.52	28163.67
797.70	28429.90
797.88	28198.48
798.06	27856.47
798.24	28124.75
798.42	27866.71
798.60	27868.76
798.78	27719.26
798.96	28065.36
799.14	27692.63
799.32	27911.77
799.51	27283.04
799.69	27379.29
799.87	27792.98
800.05	27135.59
800.23	27346.53
800.41	27567.71
800.59	27557.47
800.77	27039.33
800.95	27102.82
801.13	27369.05
801.31	26832.49
801.49	26994.28
801.67	26541.68
801.85	26691.18
802.03	26297.97
802.21	26023.54
802.39	26218.10
802.57	26852.97
802.75	26373.74
802.93	26578.54
803.11	26340.97
803.29	26263.15
803.47	26220.14
803.65	26293.87
803.83	26201.71
804.01	25998.96
804.19	25892.47
804.37	25884.28
804.55	26261.10
804.73	26037.87
804.91	25773.69
805.09	26019.44
805.27	25622.14
805.45	26089.07
805.63	25781.88
805.81	25175.68
805.99	25828.98
806.17	25308.80
806.35	25804.41
806.53	25194.11
806.71	25439.87
806.89	25048.71
807.07	25304.70
807.25	25302.65
807.43	24997.51
807.61	25503.35
807.79	25030.27
807.97	24757.89
808.15	24989.31
808.33	24764.04
808.51	24891.01
808.69	25075.33
808.87	24366.73
809.05	24452.75
809.23	24516.23
809.41	24178.32
809.59	23830.16
809.77	24411.79
809.95	23924.37
810.13	24424.08
810.31	24149.65
810.49	23895.70
810.67	24153.74
810.84	23897.75
811.02	23916.18
811.20	23774.87
811.38	24045.20
811.56	23262.88
811.74	23660.18
811.92	23764.63
812.10	23660.18
812.28	23651.99
812.46	23588.50
812.64	23725.72
812.82	23555.74
813.00	23705.24
813.18	23299.74
813.36	23244.45
813.53	23314.08
813.71	23424.67
813.89	23158.43
814.07	23105.18
814.25	23283.36
814.43	22972.07
814.61	22916.77
814.79	22732.45
814.97	22976.16
815.15	23350.94
815.33	22490.79
815.50	22527.66
815.68	22834.85
815.86	23010.98
816.04	22652.58
816.22	22423.21
816.40	22603.43
816.58	22507.18
816.76	22290.09
816.94	22189.74
817.11	22513.32
817.29	22646.44
817.47	22179.50
817.65	22058.67
817.83	22492.84
818.01	22046.38
818.19	21919.41
818.37	22132.40
818.54	21980.85
818.72	22218.41
818.90	21954.22
819.08	21733.04
819.26	22038.19
819.44	22144.69
819.62	21939.89
819.80	21616.31
819.97	21585.59
820.15	21450.42
820.33	21380.79
820.51	21608.12
820.69	21233.34
820.87	21538.49
821.05	21683.89
821.22	21356.22
821.40	21425.85
821.58	21229.24
821.76	21155.52
821.94	21388.99
822.12	21495.48
822.29	21128.89
822.47	21528.25
822.65	21735.09
822.83	21001.92
823.01	21106.37
823.19	20379.34
823.36	21018.30
823.54	20979.39
823.72	21157.57
823.90	21126.85
824.08	20688.58
824.25	20793.03
824.43	20756.16
824.61	20999.87
824.79	20856.51
824.97	20453.06
825.15	20551.37
825.32	20604.61
825.50	20330.19
825.68	20547.27
825.86	20876.99
826.04	20655.81
826.21	20610.76
826.39	20594.37
826.57	20221.64
826.75	20649.67
826.93	20016.85
827.10	20203.21
827.28	20637.38
827.46	20625.09
827.64	20195.02
827.81	20293.32
827.99	20201.16
828.17	19875.54
828.35	20240.08
828.53	19838.67
828.70	20031.18
828.88	19699.41
829.06	19975.89
829.24	20129.48
829.41	19762.90
829.59	20068.05
829.77	20299.47
829.95	20158.16
830.12	19230.43
830.30	19869.39
830.48	19742.42
830.66	19635.92
830.84	20057.81
831.01	19750.61
831.19	19496.66
831.37	19545.81
831.55	19580.63
831.72	19547.86
831.90	19375.83
832.08	19306.20
832.25	19388.12
832.43	19668.69
832.61	19158.75
832.79	19298.01
832.96	19371.74
833.14	19476.18
833.32	19523.29
833.50	19238.62
833.67	19185.37
833.85	18951.90
834.03	18884.32
834.20	19250.91
834.38	19142.36
834.56	19271.39
834.74	18857.70
834.91	19250.91
835.09	18722.53
835.27	18718.43
835.44	19189.47
835.62	18124.52
835.80	18593.51
835.98	18325.22
836.15	18747.11
836.33	18777.83
836.51	18525.93
836.68	19185.37
836.86	19015.39
837.04	18829.02
837.21	18900.70
837.39	18599.65
837.57	18599.65
837.75	18689.76
837.92	18720.48
838.10	18708.19
838.28	18085.61
838.45	18431.72
838.63	18304.74
838.81	18691.81
838.98	18489.06
839.16	18169.58
839.34	18319.08
839.51	18063.08
839.69	18327.27
839.87	17993.45
840.04	17936.11
840.22	19433.18
840.40	18001.65
840.57	17856.24
840.75	18292.46
840.93	17665.78
841.10	18147.05
841.28	18042.60
841.46	17823.47
841.63	18331.37
841.81	17694.45
841.98	17895.15
842.16	17747.70
842.34	17667.83
842.51	17886.96
842.69	17663.73
842.87	17737.46
843.04	17837.81
843.22	17639.15
843.40	17223.42
843.57	17467.13
843.75	17753.84
843.92	17714.93
844.10	17598.20
844.28	17542.90
844.45	17499.89
844.63	17573.62
844.81	17684.21
844.98	17633.01
845.16	17618.68
845.33	17929.97
845.51	17555.19
845.69	17389.30
845.86	17309.43
846.04	17106.68
846.21	17168.12
846.39	17100.54
846.57	17151.74
846.74	16940.80
846.92	17420.02
847.09	16987.90
847.27	16803.58
847.45	17125.11
847.62	16946.94
847.80	16963.33
847.97	17231.61
848.15	16948.99
848.32	17020.67
848.50	16957.18
848.68	16959.23
848.85	16908.03
849.03	16760.58
849.20	17211.13
849.38	16891.65
849.56	16813.82
849.73	16713.47
849.91	16492.29
850.08	17108.73
850.26	16684.80
850.43	16576.26
850.61	16713.47
850.78	16154.38
850.96	16533.25
851.14	16219.91
851.31	16799.49
851.49	16256.78
851.66	16662.27
851.84	16570.12
852.01	16686.85
852.19	16633.60
852.36	16666.37
852.54	16162.57
852.71	16291.59
852.89	16418.57
853.07	16504.58
853.24	16393.99
853.42	16285.45
853.59	16592.64
853.77	16705.28
853.94	16623.36
854.12	16783.10
854.29	16125.71
854.47	16031.50
854.64	16307.98
854.82	16017.16
854.99	16434.95
855.17	16103.18
855.34	16129.80
855.52	16449.28
855.69	16453.38
855.87	15798.03
856.04	15857.42
856.22	16305.93
856.39	15552.27
856.57	16164.62
856.74	15908.62
856.92	15734.54
857.09	15918.86
857.27	15568.66
857.44	16195.34
857.62	15712.02
857.79	15800.08
857.97	16025.36
858.14	15722.26
858.32	15523.60
858.49	15558.42
858.67	15920.91
858.84	15437.59
859.02	15693.58
859.19	15505.17
859.37	15175.45
859.54	15189.78
859.72	15712.02
859.89	15726.35
860.06	15451.92
860.24	15566.61
860.41	15316.76
860.59	15109.91
860.76	15361.81
860.94	15015.71
861.11	15157.02
861.29	15320.85
861.46	15353.62
861.64	15347.48
861.81	15234.84
861.98	14726.94
862.16	14765.85
862.33	14638.88
862.51	14647.07
862.68	15181.59
862.86	14880.54
863.03	14982.94
863.21	14821.15
863.38	14989.08
863.55	15142.68
863.73	14892.83
863.90	14788.38
864.08	14999.32
864.25	14780.19
864.43	14929.69
864.60	14696.22
864.77	14747.42
864.95	15001.37
865.12	14753.57
865.30	15124.25
865.47	14810.91
865.64	14724.90
865.82	14577.44
865.99	14706.46
866.17	14630.69
866.34	14405.41
866.51	14081.83
866.69	14413.60
866.86	15453.97
867.04	14442.28
867.21	14872.35
867.38	14335.78
867.56	13948.72
867.73	14675.74
867.91	14229.29
868.08	14315.30
868.25	14432.04
868.43	14014.25
868.60	13952.81
868.78	13825.84
868.95	14212.90
869.12	14380.84
869.30	14022.44
869.47	14042.92
869.64	14073.64
869.82	14069.55
869.99	14071.59
870.16	14165.80
870.34	14372.64
870.51	14116.65
870.69	13991.72
870.86	13862.70
871.03	14061.35
871.21	13983.53
871.38	14274.34
871.55	13846.32
871.73	13584.18
871.90	13551.41
872.07	13764.40
872.25	13514.55
872.42	13487.92
872.59	13752.11
872.77	13381.43
872.94	13367.09
873.11	13528.88
873.29	13571.89
873.46	13686.58
873.63	13446.96
873.81	13055.80
873.98	13770.54
874.15	13250.36
874.33	13315.89
874.50	13037.37
874.67	13197.11
874.85	13322.04
875.02	13125.43
875.19	12846.91
875.37	13160.25
875.54	13029.18
875.71	13115.19
875.88	12697.41
876.06	13115.19
876.23	12857.15
876.40	12873.53
876.58	12930.87
876.75	12916.54
876.92	12728.13
877.10	12937.02
877.27	12721.98
877.44	12711.74
877.61	12607.30
877.79	12771.13
877.96	12824.38
878.13	12918.59
878.31	12531.52
878.48	12646.21
878.65	12488.51
878.82	12449.60
879.00	12455.75
879.17	12498.75
879.34	12435.27
879.51	12353.35
879.69	11970.38
879.86	12212.04
880.03	12259.14
880.21	12226.37
880.38	12482.37
880.55	12277.57
880.72	12400.45
880.90	12236.61
881.07	11945.80
881.24	12318.53
881.41	12148.55
881.59	12339.01
881.76	12439.36
881.93	12017.48
882.10	12087.11
882.28	11814.73
882.45	11970.38
882.62	11919.18
882.79	11972.43
882.96	11738.96
883.14	11831.12
883.31	11902.79
883.48	11923.27
883.65	11812.68
883.83	11773.77
884.00	11786.06
884.17	11804.49
884.34	12054.34
884.51	11734.86
884.69	11798.35
884.86	11452.24
885.03	11960.14
885.20	11237.20
885.38	12019.53
885.55	11349.84
885.72	12085.06
885.89	11513.68
886.06	11360.08
886.24	11560.78
886.41	11337.56
886.58	11870.03
886.75	11888.46
886.92	11620.17
887.10	11151.19
887.27	11304.79
887.44	11732.81
887.61	11599.70
887.78	11517.78
887.95	11485.01
888.13	11102.04
888.30	10989.40
888.47	11620.17
888.64	11202.39
888.81	11798.35
888.99	10985.30
889.16	11099.99
889.33	10989.40
889.50	11059.03
889.67	11056.98
889.84	10989.40
890.01	10934.11
890.19	11497.30
890.36	11083.61
890.53	11204.44
890.70	10717.02
890.87	11165.53
891.04	10831.71
891.22	10860.38
891.39	10927.96
891.56	10968.92
891.73	11030.36
891.90	10622.81
892.07	10348.39
892.24	10901.34
892.42	10686.30
892.59	10665.82
892.76	10950.49
892.93	10618.72
893.10	10542.94
893.27	10477.41
893.44	10571.61
893.61	10792.80
893.79	10848.09
893.96	10614.62
894.13	10747.74
894.30	10471.26
894.47	10848.09
894.64	10964.82
894.81	10301.28
894.98	10966.87
895.15	10633.05
895.33	10866.52
895.50	10700.64
895.67	10776.41
895.84	10719.07
896.01	10614.62
896.18	10278.76
896.35	10794.84
896.52	10442.59
896.69	10528.61
896.86	10506.08
897.04	11005.78
897.21	10340.19
897.38	10571.61
897.55	10493.79
897.72	10446.69
897.89	10393.44
898.06	10780.51
898.23	10299.23
898.40	10612.57
898.57	10170.21
898.74	10338.15
898.91	10450.78
899.08	10420.06
899.26	10870.62
899.43	10774.36
899.60	10063.72
899.77	10776.41
899.94	10383.20
900.11	10196.84
900.28	10362.72
900.45	10420.06
900.62	10409.83
900.79	10753.88
900.96	10452.83
901.13	10639.20
901.30	9996.14
901.47	10153.83
901.64	10137.45
901.81	10358.63
901.98	10323.81
902.15	10585.95
902.32	10284.90
902.49	10512.22
902.66	10420.06
902.83	10424.16
903.01	10385.25
903.18	10348.39
903.35	9969.51
903.52	10131.30
903.69	10360.67
903.86	10344.29
904.03	10518.37
904.20	10487.65
904.37	10266.47
904.54	10125.16
904.71	10389.35
904.88	10157.92
905.05	9928.55
905.22	10499.94
905.39	10524.51
905.56	10379.11
905.73	10157.92
905.90	10411.87
906.07	10162.02
906.24	10266.47
906.41	10407.78
906.58	10800.99
906.75	10282.85
906.92	10157.92
907.09	10121.06
907.26	10579.81
907.43	10153.83
907.60	10121.06
907.77	10284.90
907.93	9895.78
908.10	10127.21
908.27	10325.86
908.44	10395.49
908.61	9822.06
908.78	10014.57
908.95	10516.32
909.12	10033.00
909.29	10051.43
909.46	10116.97
909.63	10270.56
909.80	10407.78
909.97	10205.03
910.14	10366.82
910.31	9979.75
910.48	10164.07
910.65	10151.78
910.82	10293.09
910.99	10153.83
911.16	10467.17
911.33	10159.97
911.50	9996.14
911.66	9699.18
911.83	10002.28
912.00	9824.11
912.17	9774.95
912.34	9754.48
912.51	9721.71
912.68	9592.69
912.85	10377.06
913.02	10045.29
913.19	9803.63
913.36	9779.05
913.53	9717.61
913.70	9404.27
913.86	10047.33
914.03	9537.39
914.20	9850.73
914.37	10055.53
914.54	9699.18
914.71	9625.45
914.88	9713.52
915.05	9633.64
915.22	9566.06
915.39	9637.74
915.55	9781.10
915.72	9572.21
915.89	9416.56
916.06	9647.98
916.23	9914.22
916.40	9326.45
916.57	9041.78
916.74	9197.43
916.91	9484.14
917.07	8912.76
917.24	9000.82
917.41	9222.00
917.58	9506.67
917.75	9150.32
917.92	8941.43
918.09	9215.86
918.26	8998.77
918.42	9324.40
918.59	9090.93
918.76	8824.70
918.93	8605.56
919.10	8667.00
919.27	8871.80
919.44	8892.28
919.60	9160.56
919.77	8740.73
919.94	8839.03
920.11	9056.12
920.28	9027.45
920.45	8920.95
920.61	8523.65
920.78	8734.59
920.95	8806.27
921.12	8664.96
921.29	8595.32
921.46	8281.99
921.62	8165.25
921.79	8267.65
921.96	8556.41
922.13	8466.30
922.30	8095.62
922.47	8058.76
922.63	8030.09
922.80	8021.89
922.97	8054.66
923.14	8079.24
923.31	7937.93
923.47	7989.13
923.64	8537.98
923.81	8224.64
923.98	7878.54
924.15	8142.72
924.32	7925.64
924.48	7884.68
924.65	8222.59
924.82	7575.44
924.99	7653.26
925.15	7520.14
925.32	7886.73
925.49	7350.16
925.66	8210.31
925.83	7358.35
925.99	7438.22
926.16	7907.21
926.33	7532.43
926.50	7196.56
926.67	7339.92
926.83	7540.62
927.00	7587.72
927.17	7399.31
927.34	7016.34
927.50	7208.85
927.67	7098.26
927.84	7151.51
928.01	7374.74
928.17	7122.84
928.34	6875.03
928.51	6920.09
928.68	6784.92
928.84	6795.16
929.01	6666.14
929.18	6813.59
929.35	6784.92
929.51	6899.61
929.68	6705.05
929.85	6352.80
930.02	6866.84
930.18	6750.10
930.35	6528.92
930.52	6557.60
930.69	6516.64
930.85	6547.36
931.02	6477.73
931.19	6549.40
931.36	6430.62
931.52	6315.94
931.69	6643.61
931.86	6444.96
932.02	6328.22
932.19	5984.16
932.36	6295.46
932.53	6129.57
932.69	6143.91
932.86	6186.91
933.03	6393.76
933.19	5851.05
933.36	5896.10
933.53	5969.83
933.70	6352.80
933.86	5834.66
934.03	5910.44
934.20	5668.78
934.36	5982.12
934.53	5494.70
934.70	5324.72
934.86	5547.95
935.03	5144.50
935.20	5509.04
935.36	5670.83
935.53	5308.34
935.70	5062.58
935.86	5253.04
936.03	4913.08
936.20	4804.53
936.36	4902.84
936.53	5011.38
936.70	5021.62
936.86	5117.87
937.03	5042.10
937.20	4691.90
937.36	5130.16
937.53	4251.58
937.70	4538.30
937.86	4370.37
938.03	4353.98
938.20	5187.50
938.36	4419.52
938.53	4386.75
938.70	3901.38
938.86	4343.74
939.03	3897.28
939.20	4040.64
939.36	3712.97
939.53	3897.28
939.70	3882.95
939.86	3841.99
940.03	3764.17
940.19	3672.01
940.36	3786.69
940.53	3899.33
940.69	3299.28
940.86	3645.38
941.03	3645.38
941.19	3207.12
941.36	3381.20
941.52	3086.29
941.69	3186.64
941.86	3327.95
942.02	3624.90
942.19	3286.99
942.35	3004.37
942.52	3188.69
942.69	3114.96
942.85	2731.99
943.02	2983.89
943.18	2797.53
943.35	3065.81
943.52	2836.44
943.68	2789.33
943.85	2889.68
944.01	3061.71
944.18	2803.67
944.35	3022.80
944.51	2742.23
944.68	2744.28
944.84	2426.84
945.01	2904.02
945.17	2973.65
945.34	2918.36
945.51	2799.57
945.67	2760.66
945.84	2637.78
946.00	2414.56
946.17	2789.33
946.33	2662.36
946.50	2865.11
946.67	2543.58
946.83	2666.46
947.00	2772.95
947.16	2633.69
947.33	2531.29
947.49	2867.16
947.66	2519.00
947.82	2613.21
947.99	2424.80
948.16	2965.46
948.32	2455.51
948.49	2693.08
948.65	2858.96
948.82	2539.48
948.98	2482.14
949.15	2394.08
949.31	2584.54
949.48	2508.76
949.64	2627.54
949.81	2492.38
949.97	2443.23
950.14	2656.22
950.30	2482.14
950.47	2867.16
950.63	2351.07
950.80	2555.86
950.96	2650.07
951.13	2631.64
951.30	2783.19
951.46	2473.95
951.63	2709.46
951.79	2666.46
951.96	3080.14
952.12	2639.83
952.29	2785.24
952.45	2410.46
952.62	2678.74
952.78	2631.64
952.94	2738.13
953.11	2744.28
953.27	2564.06
953.44	2863.06
953.60	2897.88
953.77	2713.56
953.93	2713.56
954.10	2537.43
954.26	2600.92
954.43	2738.13
954.59	2969.55
954.76	2990.03
954.92	2666.46
955.09	2684.89
955.25	2592.73
955.42	2826.20
955.58	3098.58
955.75	2844.63
955.91	2637.78
956.07	2541.53
956.24	2822.10
956.40	2695.13
956.57	2713.56
956.73	2664.41
956.90	2887.64
957.06	2676.70
957.23	2451.42
957.39	2508.76
957.56	2914.26
957.72	2643.93
957.88	2447.32
958.05	2705.37
958.21	2850.77
958.38	2658.26
958.54	2648.02
958.71	2768.85
958.87	2637.78
959.03	2740.18
959.20	2629.59
959.36	2555.86
959.53	2787.29
959.69	2525.15
959.85	3014.61
960.02	2537.43
960.18	2736.09
960.35	2805.72
960.51	2633.69
960.68	2709.46
960.84	2686.94
961.00	2473.95
961.17	2670.55
961.33	2648.02
961.50	2703.32
961.66	2721.75
961.82	2598.87
961.99	2572.25
962.15	2592.73
962.31	2715.61
962.48	2502.62
962.64	2656.22
962.81	2619.35
962.97	2572.25
963.13	3045.33
963.30	2617.30
963.46	2420.70
963.62	2400.22
963.79	2467.80
963.95	2623.45
964.12	2625.50
964.28	2744.28
964.44	2611.16
964.61	2809.81
964.77	2613.21
964.93	2748.37
965.10	2506.71
965.26	2629.59
965.42	2496.47
965.59	2543.58
965.75	2539.48
965.92	2478.04
966.08	2473.95
966.24	2664.41
966.41	2668.50
966.57	2619.35
966.73	2674.65
966.90	2566.10
967.06	2748.37
967.22	2527.19
967.39	2457.56
967.55	2551.77
967.71	2525.15
967.88	2344.92
968.04	2576.34
968.20	2535.39
968.37	2721.75
968.53	2412.51
968.69	2299.87
968.85	2574.30
969.02	2478.04
969.18	2551.77
969.34	2312.16
969.51	2619.35
969.67	2537.43
969.83	2273.25
970.00	2824.15
970.16	2557.91
970.32	2588.63
970.48	2856.92
970.65	2533.34
970.81	2557.91
970.97	2723.80
971.14	2195.42
971.30	2746.33
971.46	2377.69
971.63	2760.66
971.79	2416.60
971.95	2572.25
972.11	2416.60
972.28	2494.43
972.44	2482.14
972.60	2351.07
972.76	2312.16
972.93	2281.44
973.09	2559.96
973.25	2410.46
973.42	2303.96
973.58	2598.87
973.74	2406.36
973.90	2492.38
974.07	2238.43
974.23	2400.22
974.39	2486.23
974.55	2387.93
974.72	2232.29
974.88	2263.01
975.04	2400.22
975.20	2455.51
975.37	2236.38
975.53	2344.92
975.69	2414.56
975.85	2326.49
976.01	2351.07
976.18	2406.36
976.34	2332.64
976.50	2359.26
976.66	2457.56
976.83	2377.69
976.99	2170.85
977.15	2267.10
977.31	2017.25
977.47	2441.18
977.64	2355.16
977.80	2342.88
977.96	2234.33
978.12	2256.86
978.29	2172.89
978.45	2281.44
978.61	2183.13
978.77	2234.33
978.93	2250.72
979.10	2240.48
979.26	2136.03
979.42	2334.68
979.58	2025.44
979.74	2168.80
979.91	2150.37
980.07	2236.38
980.23	2072.54
980.39	2195.42
980.55	2023.39
980.71	2166.75
980.88	2054.11
981.04	2205.66
981.20	2117.60
981.36	2101.22
981.52	2148.32
981.68	1980.39
981.85	2424.80
982.01	2121.70
982.17	1951.71
982.33	2039.78
982.49	2306.01
982.65	2162.66
982.82	2011.11
982.98	2062.30
983.14	1978.34
983.30	2172.89
983.46	2013.15
983.62	2189.28
983.79	2105.31
983.95	2009.06
984.11	1968.10
984.27	2052.06
984.43	2088.93
984.59	2162.66
984.75	2144.22
984.91	2021.35
985.08	2179.04
985.24	1992.67
985.40	1804.26
985.56	1994.72
985.72	2140.13
985.88	2027.49
986.04	1994.72
986.20	2004.96
986.37	2058.21
986.53	2060.26
986.69	2052.06
986.85	2035.68
987.01	1871.84
987.17	2179.04
987.33	1912.80
987.49	1861.60
987.65	2023.39
987.82	2035.68
987.98	1951.71
988.14	1953.76
988.30	1978.34
988.46	1974.24
988.62	1968.10
988.78	1894.37
988.94	1865.70
989.10	1937.38
989.26	1841.12
989.42	1904.61
989.59	1890.28
989.75	1978.34
989.91	1961.95
990.07	1789.92
990.23	1992.67
990.39	1865.70
990.55	1972.19
990.71	1818.60
990.87	1994.72
991.03	2105.31
991.19	1859.56
991.35	1877.99
991.51	1837.03
991.67	2107.36
991.83	1880.04
992.00	1863.65
992.16	1937.38
992.32	1810.40
992.48	1939.43
992.64	1865.70
992.80	1894.37
992.96	1882.08
993.12	1830.88
993.28	1916.90
993.44	1853.41
993.60	1941.47
993.76	1816.55
993.92	1918.95
994.08	1908.71
994.24	1890.28
994.40	1949.67
994.56	1949.67
994.72	1832.93
994.88	1888.23
995.04	1871.84
995.20	1802.21
995.36	1896.42
995.52	1923.04
995.68	1828.84
995.84	1783.78
996.00	1978.34
996.16	1886.18
996.32	1796.07
996.48	1845.22
996.64	1888.23
996.80	1826.79
996.96	1863.65
997.12	1775.59
997.28	1665.00
997.44	1830.88
997.60	1818.60
997.76	1785.83
997.92	1847.27
998.08	1859.56
998.24	1744.87
998.40	1814.50
998.56	1875.94
998.72	1791.97
998.88	1839.08
999.04	1802.21
999.20	1865.70
999.36	1730.53
999.52	1896.42
999.68	1888.23
999.84	1839.08
1000.00	1863.65
1000.16	1945.57
1000.32	1665.00
1000.48	1914.85
1000.64	1746.92
1000.80	1650.66
1000.95	1662.95
1001.11	2002.91
1001.27	1703.91
1001.43	1796.07
1001.59	1617.90
1001.75	1634.28
1001.91	1826.79
1002.07	1812.45
1002.23	1740.77
1002.39	1744.87
1002.55	1716.20
1002.71	1677.29
1002.87	1818.60
1003.03	1677.29
1003.19	1665.00
1003.34	1904.61
1003.50	1765.35
1003.66	1888.23
1003.82	1734.63
1003.98	1726.44
1004.14	1853.41
1004.30	1703.91
1004.46	1710.05
1004.62	1796.07
1004.78	1771.49
1004.94	1667.05
1005.09	1785.83
1005.25	1708.01
1005.41	1773.54
1005.57	1699.81
1005.73	1757.16
1005.89	1712.10
1006.05	1839.08
1006.21	1751.01
1006.37	1642.47
1006.52	1667.05
1006.68	1705.96
1006.84	1830.88
1007.00	1648.61
1007.16	1716.20
1007.32	1693.67
1007.48	1734.63
1007.64	1751.01
1007.79	1658.85
1007.95	1748.97
1008.11	1773.54
1008.27	1652.71
1008.43	1728.49
1008.59	1685.48
1008.75	1699.81
1008.91	1761.25
1009.06	1765.35
1009.22	1691.62
1009.38	1789.92
1009.54	1701.86
1009.70	1656.81
1009.86	1705.96
1010.01	1728.49
1010.17	1716.20
1010.33	1808.36
1010.49	1730.53
1010.65	1806.31
1010.81	1650.66
1010.96	1638.38
1011.12	1662.95
1011.28	1566.70
1011.44	1789.92
1011.60	1654.76
1011.76	1578.98
1011.91	1763.30
1012.07	1699.81
1012.23	1644.52
1012.39	1642.47
1012.55	1734.63
1012.71	1685.48
1012.86	1693.67
1013.02	1675.24
1013.18	1738.73
1013.34	1648.61
1013.50	1748.97
1013.65	1728.49
1013.81	1746.92
1013.97	1632.23
1014.13	1759.21
1014.29	1712.10
1014.44	1789.92
1014.60	1658.85
1014.76	1687.53
1014.92	1697.77
1015.07	1644.52
1015.23	1740.77
1015.39	1667.05
1015.55	1671.14
1015.71	1662.95
1015.86	1591.27
1016.02	1591.27
1016.18	1621.99
1016.34	1705.96
1016.49	1607.66
1016.65	1677.29
1016.81	1683.43
1016.97	1746.92
1017.12	1724.39
1017.28	1634.28
1017.44	1636.33
1017.60	1626.09
1017.75	1650.66
1017.91	1656.81
1018.07	1714.15
1018.23	1763.30
1018.38	1642.47
1018.54	1570.79
1018.70	1654.76
1018.86	1662.95
1019.01	1673.19
1019.17	1703.91
1019.33	1785.83
1019.49	1673.19
1019.64	1677.29
1019.80	1689.57
1019.96	1708.01
1020.12	1726.44
1020.27	1621.99
1020.43	1667.05
1020.59	1638.38
1020.74	1761.25
1020.90	1630.18
1021.06	1621.99
1021.22	1619.94
1021.37	1681.38
1021.53	1576.94
1021.69	1681.38
1021.84	1638.38
1022.00	1662.95
1022.16	1675.24
1022.31	1699.81
1022.47	1634.28
1022.63	1722.34
1022.79	1570.79
1022.94	1656.81
1023.10	1765.35
1023.26	1718.25
1023.41	1617.90
1023.57	1646.57
1023.73	1609.70
1023.88	1675.24
1024.04	1615.85
1024.20	1695.72
1024.35	1710.05
1024.51	1679.33
1024.67	1648.61
1024.82	1693.67
1024.98	1576.94
1025.14	1691.62
1025.29	1556.46
1025.45	1576.94
1025.61	1544.17
1025.76	1621.99
1025.92	1587.18
1026.08	1613.80
1026.23	1718.25
1026.39	1650.66
1026.55	1624.04
1026.70	1585.13
1026.86	1689.57
1027.02	1728.49
1027.17	1677.29
1027.33	1679.33
1027.48	1589.22
1027.64	1605.61
1027.80	1681.38
1027.95	1681.38
1028.11	1650.66
1028.27	1665.00
1028.42	1658.85
1028.58	1673.19
1028.73	1648.61
1028.89	1564.65
1029.05	1773.54
1029.20	1640.42
>>>>>End Processed Spectral Data<<<<<
