SpectraSuite Data File
++++++++++++++++++++++++++++++++++++
Date: Fri Jun 02 14:49:27 CEST 2017
User: INFO_000
Dark Spectrum Present: No
Reference Spectrum Present: No
Number of Sampled Component Spectra: 1
Spectrometers: USB4H00879
Integration Time (usec): 80000 (USB4H00879)
Spectra Averaged: 1 (USB4H00879)
Boxcar Smoothing: 0 (USB4H00879)
Correct for Electrical Dark: No (USB4H00879)
Strobe/Lamp Enabled: No (USB4H00879)
Correct for Detector Non-linearity: No (USB4H00879)
Correct for Stray Light: No (USB4H00879)
Number of Pixels in Processed Spectrum: 3648
>>>>>Begin Processed Spectral Data<<<<<
345.13	1298.41
345.34	1298.41
345.56	1298.41
345.78	1241.07
345.99	1247.21
346.21	1732.58
346.42	1705.96
346.64	1621.99
346.86	1677.29
347.07	1681.38
347.29	1757.16
347.50	1644.52
347.72	1699.81
347.94	1759.21
348.15	1656.81
348.37	1677.29
348.59	1726.44
348.80	1679.33
349.02	1740.77
349.23	1867.75
349.45	1834.98
349.67	1824.74
349.88	1849.32
350.10	1904.61
350.31	1798.12
350.53	1722.34
350.75	1953.76
350.96	1845.22
351.18	1849.32
351.39	1839.08
351.61	1808.36
351.82	1861.60
352.04	1947.62
352.26	1789.92
352.47	1871.84
352.69	1867.75
352.90	1785.83
353.12	1886.18
353.34	1824.74
353.55	1945.57
353.77	1853.41
353.98	1843.17
354.20	1822.69
354.41	1953.76
354.63	1855.46
354.85	2027.49
355.06	1925.09
355.28	1828.84
355.49	1882.08
355.71	1920.99
355.92	1834.98
356.14	1974.24
356.35	1855.46
356.57	1865.70
356.79	1888.23
357.00	1855.46
357.22	1947.62
357.43	1849.32
357.65	1929.19
357.86	1791.97
358.08	1830.88
358.29	1955.81
358.51	1978.34
358.72	1994.72
358.94	1888.23
359.16	1904.61
359.37	1959.91
359.59	1904.61
359.80	2045.92
360.02	1927.14
360.23	2013.15
360.45	2017.25
360.66	1951.71
360.88	1818.60
361.09	1925.09
361.31	2021.35
361.52	1957.86
361.74	2074.59
361.95	2074.59
362.17	1941.47
362.38	2056.16
362.60	2007.01
362.81	1949.67
363.03	1945.57
363.24	2045.92
363.46	2093.02
363.67	1933.28
363.89	1916.90
364.10	1888.23
364.32	1998.82
364.53	2052.06
364.75	1851.36
364.96	2004.96
365.18	2041.82
365.39	1976.29
365.61	1980.39
365.82	2115.55
366.04	1908.71
366.25	1976.29
366.47	2064.35
366.68	2082.78
366.90	1918.95
367.11	2064.35
367.33	2056.16
367.54	2035.68
367.76	1978.34
367.97	2090.98
368.19	2043.87
368.40	2117.60
368.62	1982.43
368.83	1990.63
369.05	2121.70
369.26	1896.42
369.48	2011.11
369.69	2037.73
369.91	2015.20
370.12	2027.49
370.33	2115.55
370.55	1972.19
370.76	2078.69
370.98	2105.31
371.19	2050.02
371.41	1996.77
371.62	2113.50
371.84	2064.35
372.05	2140.13
372.27	2078.69
372.48	2088.93
372.69	2074.59
372.91	2037.73
373.12	2187.23
373.34	2078.69
373.55	2199.52
373.77	2099.17
373.98	2060.26
374.20	2179.04
374.41	2220.00
374.62	2064.35
374.84	2125.79
375.05	2172.89
375.27	2209.76
375.48	2254.81
375.70	2244.57
375.91	2254.81
376.12	2234.33
376.34	2146.27
376.55	2154.46
376.77	2164.70
376.98	2060.26
377.19	2105.31
377.41	2205.66
377.62	2269.15
377.84	2289.63
378.05	2289.63
378.27	2187.23
378.48	2303.96
378.69	2375.64
378.91	2297.82
379.12	2201.57
379.34	2250.72
379.55	2314.20
379.76	2281.44
379.98	2195.42
380.19	2267.10
380.41	2308.06
380.62	2203.61
380.83	2226.14
381.05	2220.00
381.26	2400.22
381.47	2267.10
381.69	2279.39
381.90	2422.75
382.12	2334.68
382.33	2308.06
382.54	2238.43
382.76	2238.43
382.97	2330.59
383.19	2277.34
383.40	2334.68
383.61	2355.16
383.83	2240.48
384.04	2351.07
384.25	2416.60
384.47	2435.03
384.68	2342.88
384.89	2252.77
385.11	2328.54
385.32	2301.92
385.54	2344.92
385.75	2412.51
385.96	2418.65
386.18	2426.84
386.39	2422.75
386.60	2293.72
386.82	2484.19
387.03	2344.92
387.24	2445.27
387.46	2514.91
387.67	2545.63
387.88	2527.19
388.10	2365.40
388.31	2478.04
388.52	2547.67
388.74	2519.00
388.95	2443.23
389.16	2519.00
389.38	2443.23
389.59	2541.53
389.80	2631.64
390.02	2514.91
390.23	2648.02
390.44	2568.15
390.66	2617.30
390.87	2516.95
391.08	2557.91
391.30	2625.50
391.51	2633.69
391.72	2600.92
391.94	2580.44
392.15	2652.12
392.36	2660.31
392.58	2623.45
392.79	2635.74
393.00	2742.23
393.22	2576.34
393.43	2715.61
393.64	2756.57
393.85	2617.30
394.07	2705.37
394.28	2740.18
394.49	2650.07
394.71	2803.67
394.92	2928.60
395.13	2758.61
395.35	2707.41
395.56	2652.12
395.77	2801.62
395.98	2811.86
396.20	2832.34
396.41	2760.66
396.62	2875.35
396.84	2777.05
397.05	2756.57
397.26	2904.02
397.47	2756.57
397.69	2852.82
397.90	3061.71
398.11	2871.25
398.32	2916.31
398.54	2885.59
398.75	2922.45
398.96	2908.12
399.18	3024.85
399.39	2912.21
399.60	2951.12
399.81	2992.08
400.03	2869.20
400.24	3172.30
400.45	3004.37
400.66	3067.86
400.88	3067.86
401.09	3114.96
401.30	3020.75
401.51	3170.26
401.73	3160.02
401.94	3125.20
402.15	3133.39
402.36	3053.52
402.58	3198.93
402.79	3157.97
403.00	3180.50
403.21	3211.22
403.43	3133.39
403.64	3203.02
403.85	3127.25
404.06	3129.30
404.27	3067.86
404.49	3143.63
404.70	3145.68
404.91	3207.12
405.12	3260.37
405.34	3112.91
405.55	3418.06
405.76	3196.88
405.97	3155.92
406.19	3403.72
406.40	3180.50
406.61	3307.47
406.82	3358.67
407.03	3346.38
407.25	3305.42
407.46	3499.98
407.67	3391.44
407.88	3354.57
408.09	3311.57
408.31	3459.02
408.52	3395.53
408.73	3350.48
408.94	3260.37
409.15	3428.30
409.37	3436.49
409.58	3502.03
409.79	3473.36
410.00	3491.79
410.21	3434.44
410.43	3456.97
410.64	3469.26
410.85	3569.61
411.06	3471.31
411.27	3491.79
411.48	3606.47
411.70	3516.36
411.91	3475.40
412.12	3721.16
412.33	3557.32
412.54	3555.27
412.76	3647.43
412.97	3616.71
413.18	3483.59
413.39	3559.37
413.60	3661.77
413.81	3692.49
414.03	3610.57
414.24	3647.43
414.45	3856.33
414.66	3530.70
414.87	3602.38
415.08	3678.15
415.30	3522.51
415.51	3688.39
415.72	3753.93
415.93	3702.73
416.14	3747.78
416.35	3712.97
416.56	3751.88
416.78	3819.46
416.99	3780.55
417.20	3870.66
417.41	3819.46
417.62	3796.93
417.83	3960.77
418.04	3815.37
418.26	3870.66
418.47	3829.70
418.68	4007.87
418.89	3940.29
419.10	4042.69
419.31	4003.78
419.52	4007.87
419.73	3991.49
419.95	4102.08
420.16	3979.20
420.37	3952.58
420.58	4112.32
420.79	4009.92
421.00	4052.93
421.21	4100.03
421.42	4046.79
421.63	4153.28
421.85	4054.98
422.06	4067.27
422.27	4118.47
422.48	4177.86
422.69	4280.25
422.90	4143.04
423.11	4126.66
423.32	4304.83
423.53	4351.93
423.75	4304.83
423.96	4382.65
424.17	4378.56
424.38	4485.05
424.59	4351.93
424.80	4528.06
425.01	4423.61
425.22	4423.61
425.43	4394.94
425.64	4530.11
425.85	4552.63
426.06	4538.30
426.28	4526.01
426.49	4458.43
426.70	4362.17
426.91	4417.47
427.12	4618.17
427.33	4614.07
427.54	4638.65
427.75	4689.85
427.96	4718.52
428.17	4663.22
428.38	4751.29
428.59	4755.38
428.80	4775.86
429.01	4759.48
429.23	4896.69
429.44	4949.94
429.65	4925.36
429.86	4945.84
430.07	4722.62
430.28	4749.24
430.49	5027.76
430.70	5099.44
430.91	5078.96
431.12	5058.48
431.33	4966.32
431.54	5119.92
431.75	5001.14
431.96	4966.32
432.17	4943.80
432.38	5058.48
432.59	5410.73
432.80	5242.80
433.01	5193.65
433.22	5326.77
433.43	5298.10
433.64	5341.10
433.85	5361.58
434.06	5423.02
434.27	5238.70
434.49	5253.04
434.70	5506.99
434.91	5351.34
435.12	5461.93
435.33	5429.17
435.54	5470.12
435.75	5242.80
435.96	5392.30
436.17	5298.10
436.38	5519.28
436.59	5535.66
436.80	5423.02
437.01	5855.14
437.22	5629.87
437.43	5588.91
437.64	5392.30
437.85	5697.45
438.06	5730.22
438.27	5517.23
438.48	5654.44
438.69	5779.37
438.90	5728.17
439.11	5689.26
439.32	5906.34
439.53	5900.20
439.74	5695.40
439.95	5988.26
440.16	5826.47
440.37	5781.42
440.57	5820.33
440.78	5881.77
440.99	6082.47
441.20	5906.34
441.41	5633.96
441.62	5990.31
441.83	5808.04
442.04	5984.16
442.25	6164.39
442.46	6029.22
442.67	6176.67
442.88	6350.75
443.09	6072.23
443.30	6072.23
443.51	6076.32
443.72	6547.36
443.93	6070.18
444.14	6266.78
444.35	6113.19
444.56	6231.97
444.77	6199.20
444.98	6393.76
445.19	6274.98
445.40	6231.97
445.61	6383.52
445.81	6524.83
446.02	6496.16
446.23	6434.72
446.44	6305.70
446.65	6383.52
446.86	6469.53
447.07	6459.29
447.28	6533.02
447.49	6604.70
447.70	6492.06
447.91	6567.84
448.12	6477.73
448.33	6674.33
448.54	6616.99
448.74	6606.75
448.95	6768.54
449.16	6705.05
449.37	7018.39
449.58	6610.84
449.79	6979.48
450.00	6537.12
450.21	6713.24
450.42	7010.20
450.63	7047.06
450.84	6758.30
451.05	7073.68
451.25	6920.09
451.46	6915.99
451.67	7092.12
451.88	6926.23
452.09	7143.32
452.30	6997.91
452.51	6942.61
452.72	7274.38
452.93	7430.03
453.13	7028.63
453.34	7106.45
453.55	7071.64
453.76	7280.53
453.97	7528.33
454.18	7341.97
454.39	7372.69
454.60	7409.55
454.81	7450.51
455.01	7516.05
455.22	7278.48
455.43	7321.49
455.64	7696.27
455.85	7704.46
456.06	7890.82
456.27	7724.94
456.48	7397.26
456.68	7872.39
456.89	7774.09
457.10	7845.77
457.31	7896.97
457.52	7649.16
457.73	7751.56
457.94	8095.62
458.14	7769.99
458.35	8210.31
458.56	8091.52
458.77	8105.86
458.98	8290.18
459.19	8083.33
459.39	8054.66
459.60	8365.95
459.81	8189.83
460.02	8396.67
460.23	8439.68
460.44	8646.52
460.65	8650.62
460.85	8497.02
461.06	8544.13
461.27	8251.27
461.48	8800.12
461.69	8834.94
461.89	8583.04
462.10	8877.94
462.31	8609.66
462.52	8900.47
462.73	8828.79
462.94	8998.77
463.14	8906.62
463.35	8828.79
463.56	9428.85
463.77	9168.76
463.98	8986.49
464.18	9113.46
464.39	9256.82
464.60	9549.68
464.81	9410.42
465.02	9471.86
465.23	9457.52
465.43	9408.37
465.64	9742.19
465.85	9746.28
466.06	9580.40
466.27	9807.72
466.47	9748.33
466.68	9906.02
466.89	9883.50
467.10	10016.62
467.30	9701.23
467.51	10317.67
467.72	10119.01
467.93	9901.93
468.14	10114.92
468.34	10364.77
468.55	10293.09
468.76	10432.35
468.97	10315.62
469.17	10639.20
469.38	10760.03
469.59	10866.52
469.80	10669.92
470.01	10741.60
470.21	10706.78
470.42	10932.06
470.63	10979.16
470.84	11009.88
471.04	11190.10
471.25	11194.20
471.46	11210.58
471.67	11442.00
471.87	11368.27
472.08	11560.78
472.29	11652.94
472.50	11442.00
472.70	11562.83
472.91	11624.27
473.12	11927.37
473.33	11855.69
473.53	11978.57
473.74	11886.41
473.95	12130.12
474.16	12275.52
474.36	12205.89
474.57	12500.80
474.78	12498.75
474.99	12392.26
475.19	12468.03
475.40	12820.28
475.61	12713.79
475.81	12908.35
476.02	13133.62
476.23	12961.59
476.44	13264.69
476.64	13408.05
476.85	13299.51
477.06	13360.95
477.27	13352.76
477.47	13659.95
477.68	13784.88
477.89	13600.56
478.09	13729.58
478.30	13823.79
478.51	13897.52
478.71	14208.81
478.92	14260.01
479.13	14300.97
479.34	14491.43
479.54	14411.56
479.75	14444.32
479.96	14642.98
480.16	14399.27
480.37	14714.66
480.58	14886.68
480.78	14978.84
480.99	15085.34
481.20	15105.82
481.41	15273.75
481.61	15277.85
481.82	15365.91
482.03	15335.19
482.23	15650.58
482.44	15607.57
482.65	15793.94
482.85	16156.43
483.06	15730.45
483.27	15984.40
483.47	15920.91
483.68	16072.46
483.89	16301.83
484.09	16125.71
484.30	16391.94
484.51	16574.21
484.71	16707.33
484.92	16789.25
485.13	16930.56
485.33	17018.62
485.54	16957.18
485.75	17176.31
485.95	17143.55
486.16	17495.80
486.37	17354.49
486.57	17452.79
486.78	17303.29
486.98	17590.00
487.19	17739.51
487.40	18005.74
487.60	17915.63
487.81	17907.44
488.02	18214.63
488.22	18331.37
488.43	18095.85
488.64	18048.75
488.84	18341.61
489.05	18403.05
489.25	18419.43
489.46	18601.70
489.67	18611.94
489.87	18865.89
490.08	18724.58
490.29	18720.48
490.49	19142.36
490.70	19132.12
490.90	19263.19
491.11	19099.36
491.32	19523.29
491.52	19322.59
491.73	19556.05
491.94	19816.15
492.14	19582.68
492.35	19795.67
492.55	19934.93
492.76	20117.20
492.97	20182.73
493.17	20000.46
493.38	20166.35
493.58	20530.89
493.79	20430.54
494.00	20637.38
494.20	20377.29
494.41	20434.63
494.61	20678.34
494.82	20688.58
495.02	20491.98
495.23	21184.19
495.44	20958.91
495.64	21280.44
495.85	21155.52
496.05	21227.20
496.26	21434.04
496.47	21724.85
496.67	21378.75
496.88	21618.36
497.08	21499.58
497.29	21771.96
497.49	21753.52
497.70	21800.63
497.91	21960.37
498.11	22030.00
498.32	22177.45
498.52	22064.82
498.73	22611.62
498.93	22507.18
499.14	22320.81
499.34	22367.91
499.55	22683.30
499.76	22591.14
499.96	22908.58
500.17	22765.22
500.37	22548.14
500.58	23099.04
500.78	23037.60
500.99	22884.00
501.19	23103.14
501.40	23078.56
501.60	23150.24
501.81	23479.96
502.02	23678.61
502.22	23379.61
502.43	23402.14
502.63	23893.65
502.84	24012.43
503.04	23559.83
503.25	23973.52
503.45	24016.53
503.66	23783.06
503.86	24329.87
504.07	24051.34
504.27	23948.95
504.48	24327.82
504.68	24336.01
504.89	24438.41
505.09	24389.26
505.30	24759.94
505.50	24555.15
505.71	24645.26
505.91	24495.75
506.12	24923.78
506.32	24884.87
506.53	24954.50
506.73	24909.44
506.94	25138.82
507.14	24813.19
507.35	25255.55
507.55	25003.65
507.76	25261.69
507.96	25187.97
508.17	25347.71
508.37	25208.45
508.58	25654.90
508.78	25517.69
508.99	25818.74
509.19	25605.75
509.40	25814.65
509.60	25849.46
509.81	25984.63
510.01	25781.88
510.22	25976.44
510.42	26115.70
510.63	25857.65
510.83	26035.83
511.04	25986.68
511.24	26226.29
511.44	26091.12
511.65	26527.34
511.85	26441.32
512.06	26410.60
512.26	26699.37
512.47	26674.79
512.67	26932.84
512.88	26762.86
513.08	26588.78
513.29	26836.58
513.49	26900.07
513.69	26963.56
513.90	27045.48
514.10	26828.39
514.31	26965.60
514.51	27360.86
514.72	27170.40
514.92	27432.54
515.13	27401.82
515.33	27192.93
515.53	27600.47
515.74	27233.89
515.94	27293.28
516.15	27461.21
516.35	27356.77
516.56	27631.19
516.76	27807.32
516.96	27594.33
517.17	27883.09
517.37	27645.53
517.58	27842.14
517.78	28077.65
517.99	27924.05
518.19	28288.59
518.39	28409.42
518.60	28565.07
518.80	28390.99
519.01	28417.61
519.21	28733.00
519.41	28687.95
519.62	28380.75
519.82	28866.12
520.03	28757.58
520.23	29029.96
520.43	28763.72
520.64	29396.54
520.84	29105.73
521.05	29044.29
521.25	29249.09
521.45	29212.23
521.66	29453.89
521.86	29236.80
522.07	29351.49
522.27	29707.83
522.47	29675.07
522.68	29898.30
522.88	29654.59
523.08	29546.05
523.29	30142.00
523.49	29748.79
523.70	30264.88
523.90	29886.01
524.10	30148.15
524.31	30363.18
524.51	29933.11
524.71	30897.70
524.92	30610.99
525.12	30950.95
525.33	30504.49
525.53	30676.52
525.73	30815.79
525.94	30844.46
526.14	30819.88
526.34	31077.93
526.55	31213.09
526.75	31274.53
526.95	31364.64
527.16	31112.74
527.36	31196.71
527.56	31485.47
527.77	31792.67
527.97	31938.07
528.17	31852.06
528.38	31956.50
528.58	31931.93
528.78	32048.66
528.99	32081.43
529.19	32237.08
529.39	31964.70
529.60	32337.43
529.80	32306.71
530.00	32101.91
530.21	32577.04
530.41	32792.08
530.61	32247.32
530.82	32820.75
531.02	33123.85
531.22	33218.05
531.43	33082.89
531.63	33138.18
531.83	33379.84
532.04	33586.69
532.24	33525.25
532.44	33541.63
532.64	33711.61
532.85	33779.20
533.05	33779.20
533.25	33715.71
533.46	33703.42
533.66	34049.53
533.86	34160.12
534.07	34151.93
534.27	34389.49
534.47	34346.48
534.67	34395.64
534.88	34340.34
535.08	34772.46
535.28	34727.41
535.49	34723.31
535.69	35182.06
535.89	35173.86
536.09	34905.58
536.30	35358.18
536.50	35300.84
536.70	35251.69
536.91	35407.33
537.11	35286.50
537.31	35562.98
537.51	35653.09
537.72	35712.48
537.92	36001.24
538.12	36060.63
538.32	35847.64
538.53	36333.01
538.73	36056.54
538.93	36308.44
539.13	36263.38
539.34	36371.92
539.54	36629.97
539.74	36763.09
539.94	36634.06
540.15	36539.86
540.35	36859.34
540.55	36941.26
540.75	36724.18
540.96	36672.98
541.16	37123.53
541.36	36830.67
541.56	37092.81
541.77	37164.49
541.97	37047.75
542.17	37479.88
542.37	37612.99
542.58	37676.48
542.78	37690.82
542.98	37807.55
543.18	37639.62
543.38	38057.40
543.59	38034.88
543.79	37774.78
543.99	37991.87
544.19	38057.40
544.40	37934.53
544.60	38301.11
544.80	38342.07
545.00	38432.18
545.20	38639.03
545.41	38342.07
545.61	38493.62
545.81	38675.89
546.01	38716.85
546.21	38497.72
546.42	38669.75
546.62	39073.20
546.82	38477.24
547.02	38763.95
547.22	39183.79
547.43	39251.37
547.63	39237.03
547.83	39329.19
548.03	38931.89
548.23	39122.35
548.44	39300.52
548.64	39341.48
548.84	39724.45
549.04	39519.65
549.24	39714.21
549.45	40117.66
549.65	39720.35
549.85	39630.24
550.05	39900.58
550.25	40226.20
550.45	40451.48
550.66	40099.23
550.86	39871.90
551.06	40512.92
551.26	40416.66
551.46	40490.39
551.66	40105.37
551.87	39951.77
552.07	40437.14
552.27	40080.80
552.47	40566.16
552.67	40793.49
552.87	40541.59
553.07	40934.80
553.28	40469.91
553.48	40877.46
553.68	40703.38
553.88	41043.34
554.08	41047.44
554.28	40924.56
554.48	41016.72
554.69	41217.42
554.89	41072.01
555.09	41035.15
555.29	41145.74
555.49	41282.95
555.69	41153.93
555.89	41573.77
556.10	41346.44
556.30	40869.26
556.50	41352.58
556.70	41278.86
556.90	41831.81
557.10	42102.14
557.30	41366.92
557.50	41921.92
557.70	42044.80
557.91	41880.96
558.11	42141.05
558.31	42292.60
558.51	42126.72
558.71	41964.93
558.91	42472.82
559.11	42157.44
559.31	42071.42
559.51	42026.37
559.72	42057.09
559.92	42081.66
560.12	42055.04
560.32	42395.00
560.52	42270.08
560.72	42229.12
560.92	42532.22
561.12	42575.22
561.32	42632.57
561.52	42069.37
561.72	42583.41
561.93	42270.08
562.13	42890.61
562.33	42280.31
562.53	42894.71
562.73	42286.46
562.93	42984.82
563.13	43185.52
563.33	42990.96
563.53	43214.19
563.73	42712.44
563.93	42958.19
564.13	43339.11
564.33	43392.36
564.53	43156.85
564.74	43361.64
564.94	43199.85
565.14	43029.87
565.34	43335.02
565.54	43218.28
565.74	43464.04
565.94	43863.39
566.14	43470.18
566.34	43160.94
566.54	43945.31
566.74	43304.30
566.94	43961.70
567.14	43558.25
567.34	43578.73
567.54	43789.67
567.74	43427.18
567.94	43505.00
568.14	43832.68
568.34	44168.54
568.54	44006.75
568.74	44019.04
568.94	43771.24
569.14	44201.31
569.34	44084.58
569.54	44516.70
569.75	43750.76
569.95	44264.80
570.15	44664.15
570.35	44213.60
570.55	44295.52
570.75	44641.62
570.95	44350.81
571.15	44541.27
571.35	44418.39
571.55	44471.64
571.75	44457.31
571.95	44782.93
572.15	44291.42
572.35	44756.31
572.55	44897.62
572.75	44670.29
572.95	44553.56
573.15	45204.81
573.35	44946.77
573.55	44506.46
573.75	44883.28
573.95	45282.64
574.15	44821.84
574.35	45272.40
574.55	44936.53
574.75	45079.89
574.95	44940.63
575.15	45229.39
575.34	45352.27
575.54	45577.54
575.74	45595.98
575.94	45915.46
576.14	45665.61
576.34	45804.87
576.54	45708.61
576.74	45792.58
576.94	45684.04
577.14	45745.48
577.34	46052.67
577.54	45815.11
577.74	46003.52
577.94	46245.18
578.14	46187.84
578.34	46243.13
578.54	45614.41
578.74	45817.16
578.94	46501.18
579.14	46200.13
579.34	46245.18
579.54	46200.13
579.74	46851.38
579.94	46411.07
580.13	46835.00
580.33	46290.24
580.53	46517.56
580.73	46538.04
580.93	46456.12
581.13	46839.09
581.33	46734.65
581.53	46804.28
581.73	46964.02
581.93	47093.04
582.13	47342.89
582.33	46994.74
582.53	46994.74
582.73	47119.66
582.92	47052.08
583.12	47297.84
583.32	47131.95
583.52	46904.63
583.72	47303.98
583.92	47320.37
584.12	47635.75
584.32	47158.58
584.52	47594.79
584.72	47910.18
584.92	47830.31
585.11	48262.43
585.31	47781.16
585.51	47858.98
585.71	47396.14
585.91	48405.79
586.11	47717.67
586.31	47973.67
586.51	48112.93
586.71	48094.50
586.91	48467.23
587.10	47738.15
587.30	48479.52
587.50	48440.60
587.70	48436.51
587.90	48256.29
588.10	48952.60
588.30	48340.25
588.50	48180.51
588.69	48801.05
588.89	48448.80
589.09	48960.79
589.29	48850.20
589.49	49104.15
589.69	48715.03
589.89	48561.44
590.08	49040.66
590.28	48962.84
590.48	49171.73
590.68	48782.62
590.88	48821.53
591.08	49007.89
591.28	48774.42
591.47	49448.21
591.67	49091.86
591.87	49222.93
592.07	49827.08
592.27	49034.52
592.47	49542.41
592.67	49208.59
592.86	49079.57
593.06	49765.64
593.26	49773.83
593.46	49280.27
593.66	49851.66
593.86	49616.14
594.05	49423.63
594.25	49634.57
594.45	49435.92
594.65	49734.92
594.85	49722.63
595.05	49710.35
595.24	49870.09
595.44	50044.16
595.64	50121.99
595.84	50154.75
596.04	49894.66
596.23	50277.63
596.43	50513.15
596.63	50359.55
596.83	50445.57
597.03	50550.01
597.22	50754.81
597.42	50582.78
597.62	50713.85
597.82	50593.02
598.02	50468.09
598.21	50846.97
598.41	50320.64
598.61	51320.05
598.81	51076.34
599.01	50941.17
599.20	50760.95
599.40	50488.57
599.60	51031.29
599.80	51156.21
600.00	51387.63
600.19	51526.89
600.39	50986.23
600.59	51168.50
600.79	51530.99
600.98	50986.23
601.18	51404.02
601.38	51410.16
601.58	51385.58
601.78	51762.41
601.97	51700.97
602.17	52196.58
602.37	51868.90
602.57	52280.55
602.76	52053.22
602.96	51922.15
603.16	52368.61
603.36	51649.77
603.55	52413.66
603.75	52581.60
603.95	52616.41
604.15	52180.20
604.34	52090.09
604.54	52239.59
604.74	52397.28
604.94	52495.58
605.13	52518.11
605.33	52921.56
605.53	52417.76
605.73	52636.89
605.92	52817.11
606.12	52946.14
606.32	52714.72
606.52	53177.56
606.71	52880.60
606.91	52819.16
607.11	53054.68
607.30	53239.00
607.50	53097.69
607.70	53187.80
607.90	52954.33
608.09	52985.05
608.29	53378.26
608.49	53378.26
608.68	53114.07
608.88	52878.55
609.08	53697.74
609.28	53527.76
609.47	52561.12
609.67	53460.18
609.87	53300.43
610.06	53484.75
610.26	53886.15
610.46	53449.94
610.66	53650.64
610.85	53910.73
611.05	53480.66
611.25	53427.41
611.44	53748.94
611.64	53617.87
611.84	53247.19
612.03	53884.11
612.23	53738.70
612.43	53882.06
612.62	53392.59
612.82	53963.98
613.02	54322.37
613.21	53630.16
613.41	53867.72
613.61	54260.93
613.80	53531.86
614.00	54090.95
614.20	53777.61
614.39	53949.64
614.59	54138.05
614.79	54279.36
614.98	53978.31
615.18	54162.63
615.38	54097.09
615.57	54219.97
615.77	54236.36
615.97	53968.07
616.16	54201.54
616.36	53662.93
616.56	54299.84
616.75	53906.63
616.95	54500.54
617.15	54150.34
617.34	53986.50
617.54	54082.76
617.74	54654.14
617.93	54410.43
618.13	53869.77
618.32	54432.96
618.52	54150.34
618.72	54516.93
618.91	54506.69
619.11	53943.50
619.31	53990.60
619.50	54240.45
619.70	53990.60
619.90	54113.48
620.09	54232.26
620.29	54019.27
620.48	54088.90
620.68	54594.75
620.88	53857.48
621.07	54146.25
621.27	54179.01
621.46	53951.69
621.66	54324.42
621.86	54406.34
622.05	54043.85
622.25	54297.80
622.44	54375.62
622.64	54078.66
622.84	54734.01
623.03	53966.02
623.23	54252.74
623.42	54549.70
623.62	54246.60
623.82	54719.68
624.01	54131.91
624.21	54668.48
624.40	54295.75
624.60	54346.95
624.80	54084.81
624.99	54277.32
625.19	54023.37
625.38	54271.17
625.58	54398.15
625.77	54439.11
625.97	54334.66
626.17	54148.29
626.36	54351.04
626.56	54746.30
626.75	53998.79
626.95	54365.38
627.14	54478.02
627.34	54654.14
627.54	54142.15
627.73	54265.03
627.93	54346.95
628.12	53843.15
628.32	54164.68
628.51	54392.00
628.71	54250.69
628.90	54254.79
629.10	54809.79
629.30	53933.26
629.49	54490.30
629.69	54344.90
629.88	54402.24
630.08	54480.06
630.27	54574.27
630.47	54637.76
630.66	54125.77
630.86	54488.26
631.05	54191.30
631.25	54914.23
631.44	54920.38
631.64	54504.64
631.84	54459.58
632.03	54985.91
632.23	54688.96
632.42	54871.23
632.62	54750.40
632.81	53904.59
633.01	54654.14
633.20	54912.19
633.40	54721.72
633.59	54607.04
633.79	54578.37
633.98	55069.88
634.18	54545.60
634.37	54922.43
634.57	54473.92
634.76	54760.64
634.96	54531.26
635.15	55039.16
635.35	54404.29
635.54	54994.10
635.74	55020.73
635.93	54496.45
636.13	54566.08
636.32	54922.43
636.52	54224.07
636.71	54623.42
636.91	54428.87
637.10	54949.05
637.30	55071.93
637.49	54744.25
637.69	54633.66
637.88	55131.32
638.08	54535.36
638.27	54838.46
638.46	54795.45
638.66	54338.75
638.85	54832.32
639.05	54879.42
639.24	55067.83
639.44	54551.74
639.63	54793.40
639.83	55090.36
640.02	54711.49
640.22	54633.66
640.41	55319.73
640.61	54471.87
640.80	55041.21
640.99	54680.77
641.19	55010.49
641.38	55043.26
641.58	54824.12
641.77	54809.79
641.97	55030.97
642.16	54990.01
642.36	55188.66
642.55	55510.19
642.74	54668.48
642.94	55446.71
643.13	54891.71
643.33	55289.01
643.52	55155.89
643.72	55203.00
643.91	55203.00
644.10	54734.01
644.30	55426.23
644.49	54998.20
644.69	55588.02
644.88	55377.08
645.08	54492.35
645.27	54781.12
645.46	54813.88
645.66	55409.84
645.85	55049.40
646.05	54990.01
646.24	55557.30
646.43	55274.68
646.63	55315.64
646.82	55133.37
647.02	55450.80
647.21	55477.43
647.40	55086.26
647.60	55493.81
647.79	55514.29
647.99	55612.59
648.18	55264.44
648.37	55534.77
648.57	55420.08
648.76	55817.39
648.96	55463.09
649.15	55977.13
649.34	55420.08
649.54	55227.57
649.73	55516.34
649.92	55448.75
650.12	55848.11
650.31	56011.95
650.51	55755.95
650.70	55878.83
650.89	55549.10
651.09	55964.84
651.28	55911.59
651.47	56007.85
651.67	55907.50
651.86	56108.20
652.06	55205.05
652.25	56040.62
652.44	55708.85
652.64	55471.28
652.83	55764.14
653.02	55518.38
653.22	55903.40
653.41	55407.79
653.60	55686.32
653.80	55080.12
653.99	55776.43
654.18	55518.38
654.38	55907.50
654.57	55448.75
654.76	56030.38
654.96	55176.37
655.15	55375.03
655.34	55622.83
655.54	55024.82
655.73	55680.17
655.92	55966.89
656.12	55684.27
656.31	55663.79
656.50	55856.30
656.70	55510.19
656.89	55461.04
657.08	55502.00
657.28	55776.43
657.47	55203.00
657.66	55737.52
657.86	56071.34
658.05	56112.30
658.24	55917.74
658.43	55473.33
658.63	55946.41
658.82	55975.08
659.01	56118.44
659.21	56132.78
659.40	55981.23
659.59	54985.91
659.79	56104.10
659.98	55919.79
660.17	55948.46
660.36	56022.19
660.56	55817.39
660.75	55850.16
660.94	56235.17
661.14	55803.05
661.33	55880.88
661.52	55602.35
661.71	56341.67
661.91	55295.16
662.10	55622.83
662.29	55594.16
662.49	55817.39
662.68	55948.46
662.87	56181.93
663.06	56263.85
663.26	55841.96
663.45	56177.83
663.64	55690.41
663.83	56126.63
664.03	55973.03
664.22	56097.96
664.41	55973.03
664.60	55579.82
664.80	56001.71
664.99	55837.87
665.18	55872.68
665.37	55819.44
665.57	55821.48
665.76	55934.12
665.95	56194.21
666.14	55956.65
666.34	56306.85
666.53	55880.88
666.72	55360.69
666.91	55940.27
667.11	55796.91
667.30	55887.02
667.49	55932.07
667.68	55866.54
667.87	56046.76
668.07	56007.85
668.26	56165.54
668.45	55829.68
668.64	55758.00
668.84	56511.65
669.03	56276.13
669.22	56261.80
669.41	55977.13
669.60	55956.65
669.80	55983.27
669.99	55891.12
670.18	55970.99
670.37	56396.96
670.57	55934.12
670.76	56050.86
670.95	56061.10
671.14	55827.63
671.33	56302.76
671.53	56149.16
671.72	56212.65
671.91	55755.95
672.10	55805.10
672.29	56075.43
672.48	56005.80
672.68	56048.81
672.87	55788.72
673.06	55458.99
673.25	55465.14
673.44	56001.71
673.64	55663.79
673.83	55710.89
674.02	55641.26
674.21	55311.54
674.40	56085.67
674.59	55399.60
674.79	55399.60
674.98	55082.17
675.17	55860.40
675.36	54903.99
675.55	56046.76
675.74	55678.13
675.94	55555.25
676.13	55850.16
676.32	55762.09
676.51	56052.90
676.70	55608.50
676.89	55725.23
677.08	56044.71
677.28	55407.79
677.47	55700.65
677.66	55884.97
677.85	55700.65
678.04	55772.33
678.23	56229.03
678.42	55684.27
678.62	55936.17
678.81	55739.57
679.00	55424.18
679.19	56136.87
679.38	55319.73
679.57	55960.75
679.76	55317.68
679.96	55684.27
680.15	55514.29
680.34	55653.55
680.53	55940.27
680.72	56116.39
680.91	55649.45
681.10	55768.24
681.29	55753.90
681.48	55712.94
681.68	55698.61
681.87	55458.99
682.06	55682.22
682.25	55039.16
682.44	55317.68
682.63	55334.07
682.82	55248.05
683.01	55137.46
683.20	55026.87
683.39	55211.19
683.59	55297.20
683.78	55102.65
683.97	55129.27
684.16	55145.65
684.35	55262.39
684.54	55293.11
684.73	55018.68
684.92	55311.54
685.11	55127.22
685.30	55125.17
685.49	55710.89
685.69	54992.06
685.88	55516.34
686.07	55276.72
686.26	55002.30
686.45	55065.78
686.64	55164.09
686.83	55315.64
687.02	55059.64
687.21	55219.38
687.40	55241.91
687.59	55207.09
687.78	55663.79
687.97	55389.36
688.16	55123.13
688.35	54695.10
688.54	55305.40
688.74	54963.39
688.93	54656.19
689.12	55104.70
689.31	55188.66
689.50	55008.44
689.69	54588.61
689.88	54762.68
690.07	54998.20
690.26	54604.99
690.45	55624.88
690.64	54666.43
690.83	54967.48
691.02	54799.55
691.21	54592.70
691.40	54691.01
691.59	55006.39
691.78	55219.38
691.97	54668.48
692.16	54521.02
692.35	55114.94
692.54	54856.89
692.73	54535.36
692.92	54721.72
693.11	54703.29
693.30	54516.93
693.49	54602.94
693.68	54555.84
693.87	54326.47
694.06	54211.78
694.25	54572.22
694.44	54641.85
694.63	54572.22
694.82	54432.96
695.01	54678.72
695.20	54598.85
695.39	54183.11
695.58	54478.02
695.77	53875.91
695.96	54195.40
696.15	54525.12
696.34	54144.20
696.53	54670.53
696.72	54394.05
696.91	54090.95
697.10	54181.06
697.29	54240.45
697.48	54613.18
697.67	53798.09
697.86	53937.35
698.05	53810.38
698.24	54383.81
698.43	53691.60
698.62	54355.14
698.81	54242.50
699.00	54312.13
699.19	53994.70
699.38	54279.36
699.57	53789.90
699.76	54385.86
699.95	53595.34
700.14	53759.18
700.32	53884.11
700.51	53724.36
700.70	54314.18
700.89	53927.11
701.08	53888.20
701.27	53558.48
701.46	54103.24
701.65	53054.68
701.84	53877.96
702.03	53654.73
702.22	53310.67
702.41	53308.63
702.60	54017.22
702.79	53865.67
702.98	53023.96
703.17	53423.31
703.35	53492.94
703.54	53621.97
703.73	53343.44
703.92	53351.63
704.11	53335.25
704.30	53134.55
704.49	52962.52
704.68	53503.18
704.87	53195.99
705.06	53122.26
705.25	52970.71
705.43	53091.54
705.62	53697.74
705.81	53482.70
706.00	53247.19
706.19	52921.56
706.38	52864.22
706.57	53075.16
706.76	52966.62
706.95	53390.55
707.14	52428.00
707.32	52671.71
707.51	52411.62
707.70	52825.31
707.89	53161.17
708.08	53034.20
708.27	53075.16
708.46	52978.90
708.65	52853.98
708.84	52430.05
709.02	52798.68
709.21	52792.54
709.40	52419.81
709.59	52331.75
709.78	52329.70
709.97	52825.31
710.16	52319.46
710.34	52204.77
710.53	52716.76
710.72	52389.09
710.91	52636.89
711.10	52354.27
711.29	52493.54
711.48	52159.72
711.66	52401.38
711.85	51965.16
712.04	52321.51
712.23	52020.45
712.42	52595.93
712.61	51868.90
712.80	51913.96
712.98	51711.21
713.17	51506.41
713.36	51877.10
713.55	51893.48
713.74	51983.59
713.93	52278.50
714.11	52010.21
714.30	51385.58
714.49	51893.48
714.68	52188.39
714.87	51909.86
715.06	51881.19
715.24	51418.35
715.43	51930.34
715.62	51479.79
715.81	51318.00
716.00	51248.37
716.18	51365.10
716.37	51127.54
716.56	51344.62
716.75	51594.48
716.94	51336.43
717.12	51148.02
717.31	50765.05
717.50	51277.04
717.69	50883.83
717.88	51332.34
718.06	51444.98
718.25	51258.61
718.44	50975.99
718.63	51262.71
718.82	50840.82
719.00	51356.91
719.19	50457.85
719.38	50572.54
719.57	50199.81
719.76	50027.78
719.94	50351.36
720.13	50410.75
720.32	50412.80
720.51	50054.40
720.69	50040.07
720.88	50353.41
721.07	49929.48
721.26	49753.35
721.44	50156.80
721.63	49992.97
721.82	49710.35
722.01	49829.13
722.20	50148.61
722.38	49784.07
722.57	49411.34
722.76	49700.11
722.95	49796.36
723.13	49722.63
723.32	49460.49
723.51	49376.53
723.70	48985.36
723.88	49419.53
724.07	49141.01
724.26	49405.20
724.44	48694.55
724.63	50023.68
724.82	49165.59
725.01	48842.01
725.19	49071.38
725.38	48776.47
725.57	48981.27
725.76	48739.61
725.94	48612.63
726.13	48522.52
726.32	48825.62
726.51	48674.07
726.69	49075.48
726.88	49126.67
727.07	48850.20
727.25	48538.91
727.44	48559.39
727.63	48395.55
727.82	48569.63
728.00	48614.68
728.19	48514.33
728.38	48461.08
728.56	47834.41
728.75	48678.17
728.94	48481.56
729.12	48649.50
729.31	48446.75
729.50	48256.29
729.69	48567.58
729.87	48559.39
730.06	48246.05
730.25	48502.04
730.43	48563.48
730.62	48147.75
730.81	48235.81
730.99	47928.61
731.18	47977.76
731.37	48411.93
731.55	48047.39
731.74	48629.02
731.93	48547.10
732.11	48241.95
732.30	48405.79
732.49	48334.11
732.67	48315.68
732.86	48174.37
733.05	48366.88
733.23	48018.72
733.42	48370.97
733.61	48244.00
733.79	48178.46
733.98	48289.06
734.17	48071.97
734.35	47945.00
734.54	47949.09
734.73	48551.20
734.91	47856.93
735.10	47783.21
735.29	47897.89
735.47	47267.12
735.66	47924.52
735.84	47805.73
736.03	47463.72
736.22	48014.63
736.40	47703.34
736.59	48055.59
736.78	47645.99
736.96	47281.45
737.15	47586.60
737.33	47279.41
737.52	47256.88
737.71	47193.39
737.89	47494.44
738.08	46800.18
738.27	47109.43
738.45	47803.69
738.64	47009.07
738.82	47211.82
739.01	47353.13
739.20	47293.74
739.38	47056.18
739.57	47605.03
739.75	47275.31
739.94	47066.42
740.13	46945.59
740.31	47078.71
740.50	46861.62
740.68	47021.36
740.87	46775.61
741.06	46622.01
741.24	46851.38
741.43	46759.22
741.61	47000.88
741.80	46685.50
741.99	46638.39
742.17	46429.50
742.36	46658.87
742.54	46499.13
742.73	46855.48
742.91	46599.48
743.10	46943.54
743.29	46861.62
743.47	46630.20
743.66	46654.78
743.84	46501.18
744.03	46366.01
744.21	46126.40
744.40	46318.91
744.59	46058.82
744.77	45839.68
744.96	46417.21
745.14	46161.22
745.33	46093.63
745.51	46042.43
745.70	46359.87
745.88	46081.34
746.07	46067.01
746.26	46083.39
746.44	46382.40
746.63	46148.93
746.81	46046.53
747.00	45919.56
747.18	46273.85
747.37	45802.82
747.55	45872.45
747.74	46374.20
747.92	45391.18
748.11	45643.08
748.29	45614.41
748.48	45884.74
748.66	45806.92
748.85	45192.53
749.03	45751.62
749.22	45354.32
749.41	45004.11
749.59	45393.23
749.78	45245.77
749.96	45157.71
750.15	45589.83
750.33	45880.64
750.52	45147.47
750.70	45550.92
750.89	44756.31
751.07	44946.77
751.26	45405.52
751.44	44756.31
751.63	44961.11
751.81	44504.41
752.00	44414.30
752.18	44830.04
752.37	44606.81
752.55	44492.12
752.74	44445.02
752.92	44688.73
753.10	44612.95
753.29	44379.48
753.47	44404.06
753.66	43933.03
753.84	44275.04
754.03	44422.49
754.21	44389.72
754.40	44475.74
754.58	44297.56
754.77	44506.46
754.95	44193.12
755.14	44338.52
755.32	44189.02
755.51	43869.54
755.69	44012.90
755.88	43709.80
756.06	44010.85
756.24	43609.45
756.43	44002.66
756.61	43947.36
756.80	43713.89
756.98	43545.96
757.17	43662.69
757.35	43754.85
757.54	43629.93
757.72	43521.38
757.90	43445.61
758.09	43271.53
758.27	43388.27
758.46	43423.08
758.64	43554.15
758.83	43328.87
759.01	43695.46
759.19	43703.65
759.38	43425.13
759.56	43758.95
759.75	43128.17
759.93	42966.38
760.12	43003.25
760.30	43375.98
760.48	43083.12
760.67	42978.67
760.85	42915.19
761.04	43410.79
761.22	43261.29
761.40	42720.63
761.59	42802.55
761.77	42882.42
761.96	42698.10
762.14	42673.52
762.32	42487.16
762.51	42978.67
762.69	42515.83
762.88	42720.63
763.06	42505.59
763.24	42665.33
763.43	42567.03
763.61	42362.23
763.80	42552.69
763.98	42472.82
764.16	42534.26
764.35	42139.00
764.53	41723.27
764.72	42237.31
764.90	42284.41
765.08	42024.32
765.27	42505.59
765.45	42136.96
765.63	41915.78
765.82	41801.09
766.00	41747.84
766.18	41762.18
766.37	41870.72
766.55	41731.46
766.74	41635.20
766.92	41983.36
767.10	41512.33
767.29	41602.44
767.47	41555.33
767.65	41543.05
767.84	41465.22
768.02	41579.91
768.20	41610.63
768.39	41817.47
768.57	41588.10
768.75	41297.29
768.94	41522.57
769.12	41196.94
769.30	40981.90
769.49	41059.73
769.67	40936.85
769.85	40992.14
770.04	40813.97
770.22	40736.15
770.40	40596.88
770.59	40578.45
770.77	40545.69
770.95	40676.76
771.14	40621.46
771.32	40121.76
771.50	40132.00
771.69	40224.15
771.87	40572.31
772.05	40453.53
772.24	40101.28
772.42	40326.55
772.60	40572.31
772.78	40132.00
772.97	39863.71
773.15	40267.16
773.33	40482.20
773.52	40269.21
773.70	40164.76
773.88	40013.21
774.07	40390.04
774.25	39859.62
774.43	40215.96
774.61	40107.42
774.80	40355.22
774.98	40146.33
775.16	40146.33
775.34	39933.34
775.53	39933.34
775.71	40543.64
775.89	40156.57
776.08	40109.47
776.26	40611.22
776.44	40066.46
776.62	40105.37
776.81	39857.57
776.99	40699.28
777.17	40367.51
777.35	40146.33
777.54	40723.86
777.72	40123.80
777.90	40207.77
778.08	40629.65
778.27	40355.22
778.45	40727.95
778.63	40715.67
778.81	40265.11
779.00	40826.26
779.18	40928.66
779.36	40834.45
779.54	40494.49
779.73	40662.42
779.91	40981.90
780.09	40932.75
780.27	40807.83
780.46	40844.69
780.64	40740.24
780.82	40742.29
781.00	40938.90
781.19	40838.54
781.37	41237.90
781.55	41317.77
781.73	41260.43
781.91	41266.57
782.10	41217.42
782.28	41276.81
782.46	41012.62
782.64	41285.00
782.82	40781.20
783.01	41100.68
783.19	41325.96
783.37	41115.02
783.55	40992.14
783.74	41624.96
783.92	41106.83
784.10	41751.94
784.28	41366.92
784.46	41098.64
784.64	40961.42
784.83	41297.29
785.01	41254.28
785.19	40885.65
785.37	41219.47
785.55	41381.26
785.74	41166.22
785.92	40770.96
786.10	41076.11
786.28	41102.73
786.46	41164.17
786.64	40902.03
786.83	40615.32
787.01	40897.94
787.19	41170.32
787.37	41026.96
787.55	40881.55
787.74	40562.07
787.92	41006.48
788.10	40967.57
788.28	40637.84
788.46	40740.24
788.64	40406.42
788.82	41047.44
789.01	40648.08
789.19	40834.45
789.37	40256.92
789.55	40818.07
789.73	40633.75
789.91	40150.43
790.09	40764.82
790.28	40222.11
790.46	40101.28
790.64	40248.73
790.82	40095.13
791.00	39941.53
791.18	39650.72
791.36	40076.70
791.55	40027.55
791.73	39515.56
791.91	39259.56
792.09	39607.72
792.27	39660.96
792.45	39765.41
792.63	39529.89
792.81	39257.51
793.00	39404.97
793.18	39169.45
793.36	38784.43
793.54	39026.09
793.72	39009.71
793.90	38731.18
794.08	38749.62
794.26	38978.99
794.44	38460.85
794.62	38587.83
794.81	38763.95
794.99	38620.59
795.17	38239.67
795.35	38307.26
795.53	38489.52
795.71	38452.66
795.89	37989.82
796.07	37819.84
796.25	38143.42
796.43	37879.23
796.61	37555.65
796.80	37660.10
796.98	37547.46
797.16	37897.66
797.34	37520.84
797.52	37467.59
797.70	37434.82
797.88	37279.18
798.06	36869.58
798.24	37305.80
798.42	37080.52
798.60	36955.60
798.78	36945.36
798.96	37377.48
799.14	36744.66
799.32	36754.90
799.51	36423.12
799.69	36806.09
799.87	36797.90
800.05	36195.80
800.23	36242.90
800.41	36556.24
800.59	36498.90
800.77	36247.00
800.95	36029.91
801.13	36148.70
801.31	35737.05
801.49	36079.07
801.67	35745.25
801.85	35821.02
802.03	35706.34
802.21	35460.58
802.39	35632.61
802.57	35329.51
802.75	34889.20
802.93	35167.72
803.11	35132.90
803.29	34979.31
803.47	34913.77
803.65	35255.78
803.83	34747.89
804.01	35014.12
804.19	34733.55
804.37	34485.75
804.55	34534.90
804.73	34858.48
804.91	34487.79
805.09	34377.20
805.27	34362.87
805.45	34530.80
805.63	34688.49
805.81	34692.59
805.99	34348.53
806.17	34469.36
806.35	34219.51
806.53	34022.90
806.71	34141.69
806.89	33723.90
807.07	33641.98
807.25	33814.01
807.43	33682.94
807.61	34217.46
807.79	33322.50
807.97	33467.91
808.15	33504.77
808.33	33332.74
808.51	33396.23
808.69	33269.25
808.87	32716.30
809.05	32935.43
809.23	32861.71
809.41	32640.53
809.59	32484.88
809.77	33062.41
809.95	32476.69
810.13	32792.08
810.31	32548.37
810.49	32949.77
810.67	32628.24
810.84	32622.09
811.02	32452.11
811.20	32280.08
811.38	32339.47
811.56	31946.26
811.74	32382.48
811.92	32159.25
812.10	31976.98
812.28	32050.71
812.46	31991.32
812.64	31796.76
812.82	32001.56
813.00	31970.84
813.18	31923.74
813.36	31542.81
813.53	31718.94
813.71	31682.08
813.89	31747.61
814.07	31499.81
814.25	31546.91
814.43	31503.90
814.61	31026.73
814.79	30780.97
814.97	31202.85
815.15	31370.79
815.33	31012.39
815.50	30733.87
815.68	31182.37
815.86	31157.80
816.04	30850.60
816.22	30887.46
816.40	30848.55
816.58	30639.66
816.76	30557.74
816.94	30578.22
817.11	30502.45
817.29	30840.36
817.47	30357.04
817.65	30230.07
817.83	30488.11
818.01	30225.97
818.19	30281.27
818.37	30103.09
818.54	30164.53
818.72	29779.51
818.90	30053.94
819.08	29779.51
819.26	30101.04
819.44	29902.39
819.62	29777.47
819.80	29988.41
819.97	29851.19
820.15	29507.13
820.33	29349.44
820.51	29349.44
820.69	29408.83
820.87	29716.03
821.05	29546.05
821.22	29142.60
821.40	29392.45
821.58	29754.94
821.76	29312.58
821.94	29288.00
822.12	29257.28
822.29	29503.04
822.47	28864.07
822.65	29351.49
822.83	29224.51
823.01	29081.16
823.19	28753.48
823.36	28902.98
823.54	28892.74
823.72	28878.41
823.90	28513.87
824.08	28446.29
824.25	28706.38
824.43	28577.36
824.61	28583.50
824.79	28753.48
824.97	28616.27
825.15	28436.05
825.32	28571.21
825.50	28456.53
825.68	28382.80
825.86	28565.07
826.04	28454.48
826.21	28221.01
826.39	28016.21
826.57	28083.80
826.75	28298.83
826.93	27975.25
827.10	28028.50
827.28	28042.84
827.46	28028.50
827.64	28329.55
827.81	27600.47
827.99	27829.85
828.17	27670.11
828.35	27502.17
828.53	27719.26
828.70	27541.08
828.88	27338.33
829.06	27627.10
829.24	27575.90
829.41	27641.43
829.59	27924.05
829.77	27373.15
829.95	27326.05
830.12	27151.97
830.30	27389.53
830.48	27575.90
830.66	27145.83
830.84	27455.07
831.01	27072.10
831.19	27328.10
831.37	27008.61
831.55	26889.83
831.72	26820.20
831.90	26969.70
832.08	26877.54
832.25	26769.00
832.43	26990.18
832.61	26842.73
832.79	26883.69
832.96	26836.58
833.14	26775.14
833.32	27154.02
833.50	26676.84
833.67	26852.97
833.85	26906.21
834.03	26570.35
834.20	26580.59
834.38	26621.55
834.56	26459.76
834.74	26543.72
834.91	26639.98
835.09	26359.41
835.27	26070.64
835.44	26279.54
835.62	25871.99
835.80	26041.97
835.98	26345.07
836.15	25837.17
836.33	26179.18
836.51	26170.99
836.68	25951.86
836.86	26109.55
837.04	25826.93
837.21	26195.57
837.39	25871.99
837.57	25998.96
837.75	26095.22
837.92	25687.67
838.10	25771.64
838.28	25611.90
838.45	25648.76
838.63	25468.54
838.81	25734.78
838.98	25534.07
839.16	25384.57
839.34	25237.12
839.51	25247.36
839.69	24999.55
839.87	25194.11
840.04	25384.57
840.22	25372.28
840.40	25024.13
840.57	25138.82
840.75	25362.04
840.93	24936.07
841.10	25173.63
841.28	25417.34
841.46	25175.68
841.63	24993.41
841.81	24999.55
841.98	25089.67
842.16	24966.79
842.34	24972.93
842.51	24643.21
842.69	25101.95
842.87	25005.70
843.04	25106.05
843.22	24288.91
843.40	24569.48
843.57	24647.30
843.75	24950.40
843.92	24589.96
844.10	24592.01
844.28	24432.27
844.45	24379.02
844.63	24684.17
844.81	24276.62
844.98	24551.05
845.16	24403.60
845.33	24544.91
845.51	24102.54
845.69	24393.36
845.86	24206.99
846.04	23981.71
846.21	24319.63
846.39	24235.66
846.57	24006.29
846.74	24331.92
846.92	23996.05
847.09	23774.87
847.27	23811.73
847.45	23969.43
847.62	23963.28
847.80	24024.72
847.97	24123.02
848.15	24041.11
848.32	23699.09
848.50	23631.51
848.68	23617.18
848.85	23725.72
849.03	23295.64
849.20	23768.73
849.38	23420.57
849.56	23580.31
849.73	23266.97
849.91	23279.26
850.08	24006.29
850.26	23275.16
850.43	23619.22
850.61	23410.33
850.78	23178.91
850.96	23140.00
851.14	23021.22
851.31	23082.66
851.49	22984.35
851.66	23013.02
851.84	23490.20
852.01	23006.88
852.19	23064.22
852.36	22740.64
852.54	23076.51
852.71	23068.32
852.89	22879.91
853.07	22828.71
853.24	22879.91
853.42	22640.29
853.59	22884.00
853.77	23238.30
853.94	23113.38
854.12	23035.55
854.29	22394.54
854.47	22795.94
854.64	22791.84
854.82	22785.70
854.99	22662.82
855.17	23117.47
855.34	22496.94
855.52	22431.40
855.69	23078.56
855.87	22329.00
856.04	22038.19
856.22	22390.44
856.39	22329.00
856.57	22310.57
856.74	22208.17
856.92	22253.23
857.09	21896.88
857.27	22124.21
857.44	22218.41
857.62	22054.58
857.79	22167.21
857.97	22103.73
858.14	22011.57
858.32	22054.58
858.49	22236.84
858.67	22079.15
858.84	21817.01
859.02	21591.73
859.19	21790.39
859.37	21679.80
859.54	21726.90
859.72	21925.55
859.89	21687.99
860.06	21788.34
860.24	21571.25
860.41	21540.54
860.59	21470.90
860.76	21796.53
860.94	21425.85
861.11	21452.47
861.29	21698.23
861.46	21305.02
861.64	21458.62
861.81	21274.30
861.98	21309.11
862.16	21391.03
862.33	21280.44
862.51	21178.04
862.68	21106.37
862.86	21262.01
863.03	21171.90
863.21	20879.04
863.38	21100.22
863.55	20930.24
863.73	21219.00
863.90	21016.26
864.08	21044.93
864.25	20977.34
864.43	20836.03
864.60	20795.07
864.77	20786.88
864.95	20879.04
865.12	20426.44
865.30	20860.61
865.47	20573.89
865.64	20569.80
865.82	20641.48
865.99	20641.48
866.17	20637.38
866.34	20324.04
866.51	20321.99
866.69	20254.41
866.86	20471.50
867.04	20201.16
867.21	20305.61
867.38	20330.19
867.56	20319.95
867.73	20092.62
867.91	20188.88
868.08	20184.78
868.25	20059.85
868.43	19945.17
868.60	19969.74
868.78	19703.51
868.95	19885.78
869.12	19961.55
869.30	19795.67
869.47	19918.54
869.64	19789.52
869.82	19926.74
869.99	19822.29
870.16	19957.46
870.34	19687.12
870.51	19879.63
870.69	19218.14
870.86	19771.09
871.03	19707.60
871.21	19791.57
871.38	19482.33
871.55	19349.21
871.73	19361.50
871.90	19189.47
872.07	19291.87
872.25	19289.82
872.42	19304.15
872.59	19373.78
872.77	19025.63
872.94	19232.47
873.11	19154.65
873.29	19029.73
873.46	19101.40
873.63	18894.56
873.81	19087.07
873.98	19095.26
874.15	18869.98
874.33	18450.15
874.50	18661.09
874.67	18622.18
874.85	18372.33
875.02	18734.82
875.19	18441.96
875.37	18544.36
875.54	18341.61
875.71	18544.36
875.88	18421.48
876.06	18458.34
876.23	18435.81
876.40	18126.57
876.58	18171.63
876.75	18292.46
876.92	17872.62
877.10	18384.62
877.27	18161.39
877.44	18040.56
877.61	17823.47
877.79	18278.12
877.96	17962.73
878.13	17960.69
878.31	17739.51
878.48	17870.58
878.65	17790.70
878.82	17673.97
879.00	17563.38
879.17	17753.84
879.34	17719.03
879.51	17712.88
879.69	17243.90
879.86	17460.98
880.03	17503.99
880.21	17229.56
880.38	17471.22
880.55	17168.12
880.72	17463.03
880.90	17510.13
881.07	17417.97
881.24	17479.41
881.41	17168.12
881.59	17112.83
881.76	17106.68
881.93	17280.76
882.10	16928.51
882.28	17037.05
882.45	17102.59
882.62	17030.91
882.79	17153.79
882.96	16713.47
883.14	17166.07
883.31	16791.30
883.48	17063.68
883.65	17135.35
883.83	17149.69
884.00	16793.34
884.17	16975.61
884.34	16889.60
884.51	16649.99
884.69	16604.93
884.86	16652.03
885.03	17014.52
885.20	16549.64
885.38	16754.43
885.55	16738.05
885.72	16494.34
885.89	16365.32
886.06	16533.25
886.24	16361.22
886.41	16314.12
886.58	16353.03
886.75	16844.54
886.92	16449.28
887.10	16649.99
887.27	16359.17
887.44	16625.41
887.61	16570.12
887.78	16428.81
887.95	16242.44
888.13	16168.71
888.30	15996.68
888.47	16326.41
888.64	16164.62
888.81	16250.63
888.99	16320.26
889.16	16021.26
889.33	16113.42
889.50	15884.05
889.67	16199.43
889.84	15824.65
890.01	15886.09
890.19	15953.68
890.36	15906.57
890.53	15822.61
890.70	15736.59
890.87	15800.08
891.04	15675.15
891.22	15724.30
891.39	15671.06
891.56	15699.73
891.73	15632.15
891.90	15650.58
892.07	15374.10
892.24	15484.69
892.42	15507.22
892.59	15327.00
892.76	15597.33
892.93	15292.18
893.10	15388.44
893.27	15263.51
893.44	15449.88
893.61	15286.04
893.79	15329.05
893.96	15226.65
894.13	15462.16
894.30	15429.40
894.47	15398.68
894.64	15335.19
894.81	15511.32
894.98	15308.57
895.15	15462.16
895.33	15290.13
895.50	15214.36
895.67	15300.37
895.84	15103.77
896.01	15154.97
896.18	14984.99
896.35	15374.10
896.52	14991.13
896.69	15447.83
896.86	15150.87
897.04	15232.79
897.21	15390.49
897.38	15255.32
897.55	15255.32
897.72	15257.37
897.89	15152.92
898.06	15085.34
898.23	15095.58
898.40	15116.06
898.57	15011.61
898.74	15163.16
898.91	14997.28
899.08	15206.17
899.26	15279.89
899.43	15013.66
899.60	14970.65
899.77	15146.78
899.94	15191.83
900.11	14864.16
900.28	15048.47
900.45	14915.36
900.62	15077.15
900.79	15226.65
900.96	15251.22
901.13	14853.92
901.30	14982.94
901.47	14886.68
901.64	15111.96
901.81	15042.33
901.98	14778.14
902.15	15240.98
902.32	15036.19
902.49	15245.08
902.66	14896.92
902.83	15208.22
903.01	15017.75
903.18	14939.93
903.35	15052.57
903.52	14984.99
903.69	15122.20
903.86	15019.80
904.03	15169.30
904.20	15017.75
904.37	15271.70
904.54	15017.75
904.71	15052.57
904.88	15056.67
905.05	14815.01
905.22	14833.44
905.39	14724.90
905.56	15191.83
905.73	14827.29
905.90	15068.95
906.07	14991.13
906.24	14874.40
906.41	14999.32
906.58	14894.88
906.75	14819.10
906.92	14948.12
907.09	14642.98
907.26	14728.99
907.43	14888.73
907.60	14751.52
907.77	15054.62
907.93	14589.73
908.10	15005.47
908.27	14845.73
908.44	14860.06
908.61	14831.39
908.78	14655.26
908.95	14728.99
909.12	14841.63
909.29	14602.02
909.46	14855.97
909.63	15060.76
909.80	14708.51
909.97	14571.30
910.14	14794.53
910.31	14720.80
910.48	14802.72
910.65	14712.61
910.82	14778.14
910.99	14817.05
911.16	14724.90
911.33	14665.50
911.50	14696.22
911.66	14522.15
911.83	14808.86
912.00	14438.18
912.17	14333.73
912.34	14573.35
912.51	14532.39
912.68	14325.54
912.85	14470.95
913.02	14378.79
913.19	14364.45
913.36	14315.30
913.53	14284.58
913.70	14343.97
913.86	14688.03
914.03	14280.49
914.20	14204.71
914.37	14364.45
914.54	14108.46
914.71	14253.86
914.88	14221.10
915.05	14077.74
915.22	13944.62
915.39	14120.74
915.55	13842.22
915.72	14128.94
915.89	13977.39
916.06	14006.06
916.23	14010.15
916.40	13709.10
916.57	13850.41
916.74	13561.65
916.91	13676.34
917.07	13479.73
917.24	13549.36
917.41	13582.13
917.58	13655.86
917.75	13422.39
917.92	13547.31
918.09	13455.15
918.26	13328.18
918.42	13348.66
918.59	13692.72
918.76	13309.75
918.93	13023.03
919.10	13002.55
919.27	13176.63
919.44	13213.49
919.60	13211.45
919.77	13201.21
919.94	12990.27
920.11	13141.82
920.28	13281.08
920.45	13014.84
920.61	12762.94
920.78	12953.40
920.95	12904.25
921.12	12711.74
921.29	12601.15
921.46	12435.27
921.62	12623.68
921.79	12750.65
921.96	12547.90
922.13	12566.34
922.30	12689.21
922.47	12592.96
922.63	12396.35
922.80	12408.64
922.97	12455.75
923.14	12119.88
923.31	12261.19
923.47	12203.85
923.64	12453.70
923.81	12228.42
923.98	12187.46
924.15	12087.11
924.32	12009.29
924.48	12015.43
924.65	12074.82
924.82	11863.88
924.99	11798.35
925.15	11544.40
925.32	11732.81
925.49	11611.98
925.66	11732.81
925.83	11411.28
925.99	11708.24
926.16	11519.82
926.33	11626.32
926.50	11192.15
926.67	11470.67
926.83	11286.36
927.00	11411.28
927.17	11212.63
927.34	11165.53
927.50	11173.72
927.67	11482.96
927.84	11306.84
928.01	11155.29
928.17	11110.23
928.34	11059.03
928.51	10940.25
928.68	10905.43
928.84	10968.92
929.01	10567.52
929.18	10708.83
929.35	10665.82
929.51	10719.07
929.68	10526.56
929.85	10575.71
930.02	10512.22
930.18	10456.93
930.35	10514.27
930.52	10536.80
930.69	10528.61
930.85	10221.41
931.02	10186.60
931.19	10364.77
931.36	10037.09
931.52	10272.61
931.69	10266.47
931.86	10123.11
932.02	10030.95
932.19	9879.40
932.36	9920.36
932.53	9965.42
932.69	9756.52
932.86	9910.12
933.03	9813.87
933.19	9564.01
933.36	9805.67
933.53	9721.71
933.70	9553.77
933.86	9752.43
934.03	9686.89
934.20	9461.62
934.36	9437.04
934.53	9346.93
934.70	9113.46
934.86	9203.57
935.03	8986.49
935.20	8929.14
935.36	8978.30
935.53	8761.21
935.70	8839.03
935.86	8941.43
936.03	8732.54
936.20	8490.88
936.36	8529.79
936.53	8456.06
936.70	8513.41
936.86	8576.89
937.03	8286.08
937.20	8241.03
937.36	8324.99
937.53	7999.37
937.70	8126.34
937.86	7939.97
938.03	7892.87
938.20	7888.78
938.36	7667.60
938.53	7714.70
938.70	7391.12
938.86	7522.19
939.03	7456.65
939.20	7294.86
939.36	7223.19
939.53	7221.14
939.70	7286.67
939.86	6836.12
940.03	6797.21
940.19	6864.79
940.36	6682.52
940.53	6997.91
940.69	6551.45
940.86	6686.62
941.03	6453.15
941.19	6399.90
941.36	6268.83
941.52	6242.21
941.69	6242.21
941.86	6016.93
942.02	6172.58
942.19	6014.88
942.35	6035.36
942.52	6010.79
942.69	6041.51
942.85	5980.07
943.02	5760.94
943.18	5877.67
943.35	5922.73
943.52	6016.93
943.68	5685.16
943.85	5728.17
944.01	5703.59
944.18	5480.36
944.35	5588.91
944.51	5492.65
944.68	5443.50
944.84	5586.86
945.01	5392.30
945.17	5509.04
945.34	5492.65
945.51	5476.27
945.67	5562.28
945.84	5550.00
946.00	5414.83
946.17	5382.06
946.33	5246.90
946.50	5402.54
946.67	5308.34
946.83	5265.33
947.00	5279.66
947.16	5253.04
947.33	5244.85
947.49	5345.20
947.66	5296.05
947.82	5300.14
947.99	5291.95
948.16	5373.87
948.32	5277.62
948.49	5269.42
948.65	5316.53
948.82	5337.01
948.98	5322.67
949.15	5205.94
949.31	5300.14
949.48	5250.99
949.64	5324.72
949.81	5261.23
949.97	5236.66
950.14	5300.14
950.30	5326.77
950.47	5328.81
950.63	5402.54
950.80	5257.14
950.96	5314.48
951.13	5453.74
951.30	5355.44
951.46	5306.29
951.63	5480.36
951.79	5222.32
951.96	5398.45
952.12	5332.91
952.29	5412.78
952.45	5363.63
952.62	5461.93
952.78	5363.63
952.94	5324.72
953.11	5361.58
953.27	5302.19
953.44	5480.36
953.60	5326.77
953.77	5316.53
953.93	5380.01
954.10	5271.47
954.26	5406.64
954.43	5337.01
954.59	5494.70
954.76	5595.05
954.92	5455.79
955.09	5443.50
955.25	5527.47
955.42	5441.45
955.58	5554.09
955.75	5539.76
955.91	5513.13
956.07	5425.07
956.24	5511.08
956.40	5513.13
956.57	5523.37
956.73	5398.45
956.90	5480.36
957.06	5330.86
957.23	5431.21
957.39	5322.67
957.56	5550.00
957.72	5375.92
957.88	5343.15
958.05	5521.32
958.21	5785.51
958.38	5400.49
958.54	5455.79
958.71	5582.76
958.87	5568.43
959.03	5459.88
959.20	5355.44
959.36	5390.25
959.53	5480.36
959.69	5406.64
959.85	5574.57
960.02	5337.01
960.18	5474.22
960.35	5439.40
960.51	5590.95
960.68	5418.93
960.84	5382.06
961.00	5410.73
961.17	5398.45
961.33	5638.06
961.50	5461.93
961.66	5556.14
961.82	5316.53
961.99	5521.32
962.15	5439.40
962.31	5353.39
962.48	5443.50
962.64	5449.64
962.81	5355.44
962.97	5455.79
963.13	5459.88
963.30	5486.51
963.46	5255.09
963.62	5408.69
963.79	5363.63
963.95	5361.58
964.12	5468.08
964.28	5492.65
964.44	5283.76
964.61	5375.92
964.77	5322.67
964.93	5433.26
965.10	5324.72
965.26	5242.80
965.42	5304.24
965.59	5373.87
965.75	5259.18
965.92	5349.29
966.08	5341.10
966.24	5341.10
966.41	5283.76
966.57	5310.38
966.73	5238.70
966.90	5345.20
967.06	5402.54
967.22	5289.90
967.39	5337.01
967.55	5275.57
967.71	5089.20
967.88	5205.94
968.04	5150.64
968.20	5316.53
968.37	5156.79
968.53	5316.53
968.69	5207.98
968.85	5289.90
969.02	5113.78
969.18	5296.05
969.34	5136.31
969.51	5296.05
969.67	5339.05
969.83	5162.93
970.00	5216.18
970.16	5156.79
970.32	5105.59
970.48	5181.36
970.65	4982.71
970.81	5040.05
970.97	5025.72
971.14	4984.76
971.30	5197.74
971.46	5044.15
971.63	5029.81
971.79	5121.97
971.95	4954.04
972.11	4982.71
972.28	4966.32
972.44	5058.48
972.60	4974.52
972.76	5033.91
972.93	4917.17
973.09	5040.05
973.25	5017.52
973.42	5007.28
973.58	4927.41
973.74	4892.60
973.90	4933.56
974.07	4894.65
974.23	5007.28
974.39	4882.36
974.55	4933.56
974.72	4886.45
974.88	4732.86
975.04	4739.00
975.20	4933.56
975.37	4892.60
975.53	4734.90
975.69	4765.62
975.85	4745.14
976.01	4792.25
976.18	4745.14
976.34	4794.29
976.50	4685.75
976.66	4900.79
976.83	4700.09
976.99	4771.77
977.15	4681.66
977.31	4657.08
977.47	4704.18
977.64	4810.68
977.80	4700.09
977.96	4745.14
978.12	4779.96
978.29	4564.92
978.45	4491.20
978.61	4620.22
978.77	4761.53
978.93	4616.12
979.10	4460.48
979.26	4597.69
979.42	4630.46
979.58	4347.84
979.74	4491.20
979.91	4589.50
980.07	4366.27
980.23	4472.76
980.39	4493.24
980.55	4419.52
980.71	4450.24
980.88	4480.96
981.04	4442.04
981.20	4466.62
981.36	4507.58
981.52	4421.56
981.68	4292.54
981.85	4560.83
982.01	4417.47
982.17	4331.45
982.33	4493.24
982.49	4378.56
982.65	4351.93
982.82	4460.48
982.98	4284.35
983.14	4288.45
983.30	4343.74
983.46	4376.51
983.62	4304.83
983.79	4298.69
983.95	4278.21
984.11	4270.01
984.27	4308.93
984.43	4278.21
984.59	4282.30
984.75	4315.07
984.91	4143.04
985.08	4161.47
985.24	4227.01
985.40	4116.42
985.56	4165.57
985.72	4077.51
985.88	4042.69
986.04	4110.27
986.20	4059.07
986.37	4116.42
986.53	4134.85
986.69	4069.31
986.85	4016.07
987.01	4198.34
987.17	4108.23
987.33	3925.96
987.49	4014.02
987.65	4026.31
987.82	4014.02
987.98	3919.81
988.14	3975.11
988.30	4018.11
988.46	4079.55
988.62	3964.87
988.78	4014.02
988.94	3981.25
989.10	3901.38
989.26	3925.96
989.42	3882.95
989.59	3801.03
989.75	3850.18
989.91	3870.66
990.07	3743.69
990.23	3887.04
990.39	3786.69
990.55	3846.09
990.71	3809.22
990.87	3827.65
991.03	3805.13
991.19	3690.44
991.35	3737.54
991.51	3885.00
991.67	3825.61
991.83	3815.37
992.00	3674.06
992.16	3846.09
992.32	3702.73
992.48	3854.28
992.64	3635.14
992.80	3747.78
992.96	3610.57
993.12	3592.14
993.28	3737.54
993.44	3610.57
993.60	3674.06
993.76	3565.51
993.92	3690.44
994.08	3694.54
994.24	3735.50
994.40	3663.82
994.56	3616.71
994.72	3624.90
994.88	3575.75
995.04	3608.52
995.20	3534.79
995.36	3596.23
995.52	3569.61
995.68	3522.51
995.84	3510.22
996.00	3516.36
996.16	3456.97
996.32	3463.12
996.48	3545.03
996.64	3491.79
996.80	3479.50
996.96	3522.51
997.12	3573.71
997.28	3604.42
997.44	3424.20
997.60	3475.40
997.76	3344.33
997.92	3401.68
998.08	3405.77
998.24	3348.43
998.40	3456.97
998.56	3522.51
998.72	3225.55
998.88	3391.44
999.04	3307.47
999.20	3536.84
999.36	3323.85
999.52	3362.76
999.68	3268.56
999.84	3422.16
1000.00	3362.76
1000.16	3340.24
1000.32	3211.22
1000.48	3416.01
1000.64	3246.03
1000.80	3248.08
1000.95	3182.54
1001.11	3311.57
1001.27	3194.83
1001.43	3209.17
1001.59	3301.33
1001.75	3100.62
1001.91	3133.39
1002.07	3112.91
1002.23	3059.67
1002.39	3151.82
1002.55	3180.50
1002.71	3141.58
1002.87	3198.93
1003.03	3125.20
1003.19	3139.54
1003.34	3094.48
1003.50	3076.05
1003.66	3157.97
1003.82	3256.27
1003.98	3188.69
1004.14	3045.33
1004.30	3088.34
1004.46	2949.08
1004.62	3102.67
1004.78	2895.83
1004.94	2992.08
1005.09	3086.29
1005.25	3153.87
1005.41	2951.12
1005.57	3018.71
1005.73	2936.79
1005.89	2949.08
1006.05	2930.64
1006.21	2977.75
1006.37	2875.35
1006.52	2963.41
1006.68	2926.55
1006.84	2965.46
1007.00	3008.47
1007.16	2895.83
1007.32	2836.44
1007.48	2873.30
1007.64	2951.12
1007.79	2967.51
1007.95	2826.20
1008.11	2949.08
1008.27	2944.98
1008.43	2899.92
1008.59	2844.63
1008.75	2936.79
1008.91	2815.96
1009.06	2781.14
1009.22	2852.82
1009.38	2871.25
1009.54	2705.37
1009.70	2822.10
1009.86	2770.90
1010.01	2809.81
1010.17	2772.95
1010.33	2785.24
1010.49	2781.14
1010.65	2820.05
1010.81	2656.22
1010.96	2779.09
1011.12	2586.58
1011.28	2707.41
1011.44	2779.09
1011.60	2664.41
1011.76	2711.51
1011.91	2682.84
1012.07	2635.74
1012.23	2598.87
1012.39	2609.11
1012.55	2639.83
1012.71	2611.16
1012.86	2613.21
1013.02	2750.42
1013.18	2580.44
1013.34	2578.39
1013.50	2664.41
1013.65	2602.97
1013.81	2592.73
1013.97	2617.30
1014.13	2711.51
1014.29	2633.69
1014.44	2672.60
1014.60	2564.06
1014.76	2598.87
1014.92	2602.97
1015.07	2514.91
1015.23	2598.87
1015.39	2478.04
1015.55	2539.48
1015.71	2547.67
1015.86	2576.34
1016.02	2430.94
1016.18	2365.40
1016.34	2516.95
1016.49	2486.23
1016.65	2609.11
1016.81	2527.19
1016.97	2418.65
1017.12	2514.91
1017.28	2469.85
1017.44	2447.32
1017.60	2506.71
1017.75	2416.60
1017.91	2580.44
1018.07	2502.62
1018.23	2580.44
1018.38	2519.00
1018.54	2377.69
1018.70	2430.94
1018.86	2353.12
1019.01	2383.84
1019.17	2375.64
1019.33	2555.86
1019.49	2396.12
1019.64	2363.36
1019.80	2430.94
1019.96	2369.50
1020.12	2394.08
1020.27	2363.36
1020.43	2394.08
1020.59	2314.20
1020.74	2400.22
1020.90	2414.56
1021.06	2346.97
1021.22	2441.18
1021.37	2234.33
1021.53	2238.43
1021.69	2338.78
1021.84	2322.40
1022.00	2314.20
1022.16	2271.20
1022.31	2285.53
1022.47	2369.50
1022.63	2318.30
1022.79	2258.91
1022.94	2326.49
1023.10	2398.17
1023.26	2351.07
1023.41	2232.29
1023.57	2187.23
1023.73	2258.91
1023.88	2254.81
1024.04	2224.09
1024.20	2170.85
1024.35	2289.63
1024.51	2224.09
1024.67	2283.49
1024.82	2306.01
1024.98	2207.71
1025.14	2234.33
1025.29	2226.14
1025.45	2273.25
1025.61	2142.18
1025.76	2174.94
1025.92	2156.51
1026.08	2205.66
1026.23	2215.90
1026.39	2228.19
1026.55	2125.79
1026.70	2215.90
1026.86	2129.89
1027.02	2224.09
1027.17	2205.66
1027.33	2256.86
1027.48	2103.26
1027.64	2160.61
1027.80	2099.17
1027.95	2195.42
1028.11	2078.69
1028.27	2174.94
1028.42	2207.71
1028.58	2093.02
1028.73	2093.02
1028.89	1972.19
1029.05	2209.76
1029.20	2222.05
>>>>>End Processed Spectral Data<<<<<
