SpectraSuite Data File
++++++++++++++++++++++++++++++++++++
Date: Fri Jun 02 14:49:25 CEST 2017
User: INFO_000
Dark Spectrum Present: No
Reference Spectrum Present: No
Number of Sampled Component Spectra: 1
Spectrometers: USB4H00879
Integration Time (usec): 80000 (USB4H00879)
Spectra Averaged: 1 (USB4H00879)
Boxcar Smoothing: 0 (USB4H00879)
Correct for Electrical Dark: No (USB4H00879)
Strobe/Lamp Enabled: No (USB4H00879)
Correct for Detector Non-linearity: No (USB4H00879)
Correct for Stray Light: No (USB4H00879)
Number of Pixels in Processed Spectrum: 3648
>>>>>Begin Processed Spectral Data<<<<<
345.13	1279.98
345.34	1279.98
345.56	1279.98
345.78	1279.98
345.99	1318.89
346.21	1761.25
346.42	1763.30
346.64	1630.18
346.86	1785.83
347.07	1673.19
347.29	1730.53
347.50	1685.48
347.72	1708.01
347.94	1724.39
348.15	1550.31
348.37	1576.94
348.59	1748.97
348.80	1591.27
349.02	1746.92
349.23	1912.80
349.45	1828.84
349.67	1927.14
349.88	1857.51
350.10	1972.19
350.31	1841.12
350.53	1867.75
350.75	1972.19
350.96	1796.07
351.18	1818.60
351.39	1808.36
351.61	1824.74
351.82	1853.41
352.04	1957.86
352.26	1763.30
352.47	1929.19
352.69	1847.27
352.90	1734.63
353.12	1843.17
353.34	1851.36
353.55	1902.56
353.77	1794.02
353.98	1804.26
354.20	1847.27
354.41	1945.57
354.63	1957.86
354.85	2050.02
355.06	1900.52
355.28	1773.54
355.49	1925.09
355.71	1925.09
355.92	1830.88
356.14	1953.76
356.35	1873.89
356.57	1808.36
356.79	2013.15
357.00	1863.65
357.22	1931.23
357.43	1912.80
357.65	2015.20
357.86	1779.68
358.08	1904.61
358.29	1920.99
358.51	1988.58
358.72	2039.78
358.94	1900.52
359.16	1902.56
359.37	1920.99
359.59	1918.95
359.80	1943.52
360.02	1912.80
360.23	1916.90
360.45	2056.16
360.66	1949.67
360.88	1904.61
361.09	1843.17
361.31	1982.43
361.52	1968.10
361.74	2009.06
361.95	2056.16
362.17	1925.09
362.38	2058.21
362.60	2029.54
362.81	2015.20
363.03	1937.38
363.24	1988.58
363.46	2009.06
363.67	1953.76
363.89	1992.67
364.10	1949.67
364.32	1978.34
364.53	2035.68
364.75	1882.08
364.96	1986.53
365.18	1978.34
365.39	2115.55
365.61	1970.15
365.82	2027.49
366.04	2039.78
366.25	1910.75
366.47	2007.01
366.68	2060.26
366.90	2019.30
367.11	2047.97
367.33	2076.64
367.54	2090.98
367.76	2011.11
367.97	2080.74
368.19	2021.35
368.40	2084.83
368.62	2007.01
368.83	1980.39
369.05	2090.98
369.26	2015.20
369.48	2009.06
369.69	2009.06
369.91	2037.73
370.12	2015.20
370.33	2101.22
370.55	1968.10
370.76	2115.55
370.98	2105.31
371.19	2017.25
371.41	2043.87
371.62	2035.68
371.84	2000.87
372.05	2183.13
372.27	2037.73
372.48	2121.70
372.69	2047.97
372.91	2138.08
373.12	2168.80
373.34	2105.31
373.55	2086.88
373.77	2101.22
373.98	2099.17
374.20	2090.98
374.41	2297.82
374.62	2105.31
374.84	2101.22
375.05	2267.10
375.27	2172.89
375.48	2148.32
375.70	2101.22
375.91	2248.67
376.12	2232.29
376.34	2109.41
376.55	2199.52
376.77	2220.00
376.98	2117.60
377.19	2187.23
377.41	2191.33
377.62	2199.52
377.84	2267.10
378.05	2342.88
378.27	2123.74
378.48	2250.72
378.69	2379.74
378.91	2228.19
379.12	2258.91
379.34	2238.43
379.55	2269.15
379.76	2250.72
379.98	2277.34
380.19	2297.82
380.41	2215.90
380.62	2287.58
380.83	2312.16
381.05	2236.38
381.26	2437.08
381.47	2273.25
381.69	2344.92
381.90	2420.70
382.12	2369.50
382.33	2240.48
382.54	2363.36
382.76	2344.92
382.97	2334.68
383.19	2254.81
383.40	2422.75
383.61	2242.53
383.83	2238.43
384.04	2346.97
384.25	2334.68
384.47	2424.80
384.68	2351.07
384.89	2338.78
385.11	2344.92
385.32	2281.44
385.54	2367.45
385.75	2369.50
385.96	2416.60
386.18	2383.84
386.39	2402.27
386.60	2322.40
386.82	2525.15
387.03	2387.93
387.24	2453.47
387.46	2422.75
387.67	2488.28
387.88	2437.08
388.10	2406.36
388.31	2502.62
388.52	2598.87
388.74	2529.24
388.95	2461.66
389.16	2521.05
389.38	2471.90
389.59	2598.87
389.80	2635.74
390.02	2574.30
390.23	2607.06
390.44	2598.87
390.66	2514.91
390.87	2576.34
391.08	2568.15
391.30	2670.55
391.51	2549.72
391.72	2658.26
391.94	2633.69
392.15	2576.34
392.36	2551.77
392.58	2551.77
392.79	2607.06
393.00	2736.09
393.22	2789.33
393.43	2768.85
393.64	2766.81
393.85	2787.29
394.07	2631.64
394.28	2682.84
394.49	2752.47
394.71	2781.14
394.92	2871.25
395.13	2719.70
395.35	2754.52
395.56	2729.94
395.77	2691.03
395.98	2828.24
396.20	2871.25
396.41	2781.14
396.62	2918.36
396.84	2869.20
397.05	2787.29
397.26	2836.44
397.47	2994.13
397.69	2783.19
397.90	3028.95
398.11	2914.26
398.32	2955.22
398.54	2770.90
398.75	2836.44
398.96	2910.16
399.18	3026.90
399.39	2904.02
399.60	2969.55
399.81	2914.26
400.03	2861.01
400.24	3313.61
400.45	2922.45
400.66	3123.15
400.88	3035.09
401.09	3151.82
401.30	3008.47
401.51	3133.39
401.73	3141.58
401.94	3020.75
402.15	2985.94
402.36	3141.58
402.58	3131.34
402.79	3147.73
403.00	3203.02
403.21	3123.15
403.43	3170.26
403.64	3252.17
403.85	3178.45
404.06	3262.41
404.27	3057.62
404.49	3182.54
404.70	3157.97
404.91	3303.37
405.12	3200.98
405.34	3190.74
405.55	3342.28
405.76	3137.49
405.97	3186.64
406.19	3321.81
406.40	3149.78
406.61	3350.48
406.82	3334.09
407.03	3203.02
407.25	3192.78
407.46	3334.09
407.67	3377.10
407.88	3485.64
408.09	3313.61
408.31	3317.71
408.52	3416.01
408.73	3370.96
408.94	3291.09
409.15	3401.68
409.37	3448.78
409.58	3409.87
409.79	3303.37
410.00	3559.37
410.21	3452.88
410.43	3418.06
410.64	3352.52
410.85	3612.62
411.06	3463.12
411.27	3549.13
411.48	3667.91
411.70	3442.64
411.91	3602.38
412.12	3616.71
412.33	3616.71
412.54	3553.23
412.76	3743.69
412.97	3702.73
413.18	3645.38
413.39	3598.28
413.60	3682.25
413.81	3680.20
414.03	3608.52
414.24	3667.91
414.45	3821.51
414.66	3592.14
414.87	3702.73
415.08	3727.30
415.30	3770.31
415.51	3805.13
415.72	3760.07
415.93	3782.60
416.14	3872.71
416.35	3809.22
416.56	3631.05
416.78	3784.65
416.99	3846.09
417.20	3805.13
417.41	3776.45
417.62	3854.28
417.83	3848.13
418.04	3727.30
418.26	3989.44
418.47	3954.63
418.68	4073.41
418.89	3968.96
419.10	4018.11
419.31	3930.05
419.52	3919.81
419.73	4054.98
419.95	4005.83
420.16	3872.71
420.37	3907.52
420.58	4100.03
420.79	3954.63
421.00	4048.83
421.21	4249.54
421.42	4085.70
421.63	4065.22
421.85	4083.65
422.06	4194.24
422.27	4112.32
422.48	4214.72
422.69	4257.73
422.90	4177.86
423.11	4235.20
423.32	4335.55
423.53	4413.37
423.75	4290.49
423.96	4489.15
424.17	4263.87
424.38	4493.24
424.59	4394.94
424.80	4429.76
425.01	4366.27
425.22	4376.51
425.43	4433.85
425.64	4489.15
425.85	4442.04
426.06	4536.25
426.28	4491.20
426.49	4468.67
426.70	4464.57
426.91	4505.53
427.12	4595.64
427.33	4716.47
427.54	4462.52
427.75	4702.14
427.96	4693.94
428.17	4767.67
428.38	4739.00
428.59	4835.25
428.80	4714.42
429.01	4872.12
429.23	4902.84
429.44	4941.75
429.65	4949.94
429.86	4872.12
430.07	4736.95
430.28	4962.23
430.49	4786.10
430.70	4968.37
430.91	5081.01
431.12	4843.45
431.33	5238.70
431.54	5074.87
431.75	5107.63
431.96	5083.06
432.17	4949.94
432.38	5105.59
432.59	5222.32
432.80	5232.56
433.01	5326.77
433.22	5224.37
433.43	5287.86
433.64	5310.38
433.85	5392.30
434.06	5398.45
434.27	5343.15
434.49	5386.16
434.70	5390.25
434.91	5384.11
435.12	5447.60
435.33	5449.64
435.54	5521.32
435.75	5216.18
435.96	5353.39
436.17	5394.35
436.38	5656.49
436.59	5601.19
436.80	5570.48
437.01	5836.71
437.22	5699.50
437.43	5636.01
437.64	5525.42
437.85	5588.91
438.06	5750.70
438.27	5752.74
438.48	5709.74
438.69	5805.99
438.90	5803.94
439.11	5533.61
439.32	5756.84
439.53	5791.66
439.74	5750.70
439.95	5820.33
440.16	5851.05
440.37	5765.03
440.57	5820.33
440.78	5961.64
440.99	5885.86
441.20	5937.06
441.41	5846.95
441.62	5926.82
441.83	5738.41
442.04	6096.80
442.25	6031.27
442.46	6041.51
442.67	6113.19
442.88	6561.69
443.09	6031.27
443.30	6145.95
443.51	6109.09
443.72	6299.55
443.93	6012.84
444.14	6326.18
444.35	6127.52
444.56	6313.89
444.77	6303.65
444.98	6363.04
445.19	6248.35
445.40	6367.13
445.61	6457.25
445.81	6451.10
446.02	6571.93
446.23	6313.89
446.44	6279.07
446.65	6485.92
446.86	6444.96
447.07	6522.78
447.28	6645.66
447.49	6600.60
447.70	6530.97
447.91	6516.64
448.12	6700.95
448.33	6616.99
448.54	6793.11
448.74	6590.36
448.95	6799.26
449.16	6688.67
449.37	6971.29
449.58	6797.21
449.79	6848.41
450.00	6696.86
450.21	6827.93
450.42	6946.71
450.63	6954.90
450.84	6915.99
451.05	7112.60
451.25	6932.37
451.46	6850.46
451.67	6934.42
451.88	7208.85
452.09	7088.02
452.30	6940.57
452.51	7063.44
452.72	7229.33
452.93	7526.29
453.13	7235.47
453.34	7049.11
453.55	7163.79
453.76	7270.29
453.97	7571.34
454.18	7294.86
454.39	7454.61
454.60	7522.19
454.81	7511.95
455.01	7532.43
455.22	7442.32
455.43	7597.96
455.64	7630.73
455.85	7655.31
456.06	7894.92
456.27	7780.23
456.48	7585.68
456.68	7833.48
456.89	7841.67
457.10	7933.83
457.31	7884.68
457.52	7886.73
457.73	8011.65
457.94	8052.61
458.14	7708.55
458.35	8294.27
458.56	8202.11
458.77	8042.37
458.98	8275.84
459.19	8023.94
459.39	8185.73
459.60	8406.91
459.81	8273.79
460.02	8408.96
460.23	8324.99
460.44	8646.52
460.65	8630.14
460.85	8570.75
461.06	8574.85
461.27	8419.20
461.48	8791.93
461.69	8703.87
461.89	8705.92
462.10	8734.59
462.31	8755.07
462.52	8615.80
462.73	8720.25
462.94	9074.55
463.14	8966.01
463.35	8949.62
463.56	9351.03
463.77	9303.92
463.98	9113.46
464.18	9269.11
464.39	9303.92
464.60	9402.22
464.81	9408.37
465.02	9363.31
465.23	9658.22
465.43	9623.41
465.64	9860.97
465.85	9658.22
466.06	9820.01
466.27	9838.44
466.47	9940.84
466.68	9875.31
466.89	9641.84
467.10	10168.16
467.30	9736.04
467.51	10223.46
467.72	10370.91
467.93	9858.92
468.14	10207.08
468.34	10526.56
468.55	10235.75
468.76	10538.85
468.97	10245.99
469.17	10508.13
469.38	10954.58
469.59	10766.17
469.80	10620.77
470.01	10778.46
470.21	10678.11
470.42	11054.94
470.63	11071.32
470.84	11089.75
471.04	11200.34
471.25	11372.37
471.46	11374.42
471.67	11585.36
471.87	11323.22
472.08	11564.88
472.29	11853.64
472.50	11523.92
472.70	11509.58
472.91	11646.80
473.12	11824.97
473.33	11951.95
473.53	12146.50
473.74	11986.76
473.95	12314.44
474.16	12220.23
474.36	12302.15
474.57	12250.95
474.78	12541.76
474.99	12584.77
475.19	12627.78
475.40	12912.44
475.61	12941.11
475.81	13109.05
476.02	13031.23
476.23	12887.87
476.44	13143.86
476.64	13528.88
476.85	13436.72
477.06	13242.17
477.27	13475.63
477.47	13600.56
477.68	13829.93
477.89	13807.41
478.09	13813.55
478.30	14020.39
478.51	13866.80
478.71	14294.82
478.92	14290.73
479.13	14233.38
479.34	14638.88
479.54	14563.11
479.75	14436.13
479.96	14538.53
480.16	14683.94
480.37	14935.84
480.58	14874.40
480.78	15283.99
480.99	15071.00
481.20	15320.85
481.41	15109.91
481.61	15433.49
481.82	15302.42
482.03	15515.41
482.23	15384.34
482.44	15810.32
482.65	15914.77
482.85	15927.05
483.06	15949.58
483.27	16049.93
483.47	15998.73
483.68	16273.16
483.89	16283.40
484.09	16189.19
484.30	16492.29
484.51	16910.08
484.71	16844.54
484.92	16731.90
485.13	16789.25
485.33	16920.32
485.54	17037.05
485.75	17129.21
485.95	17172.22
486.16	17178.36
486.37	17280.76
486.57	17354.49
486.78	17667.83
486.98	17577.72
487.19	17811.18
487.40	18042.60
487.60	17893.10
487.81	18083.56
488.02	18038.51
488.22	17942.25
488.43	18366.18
488.64	18370.28
488.84	18603.75
489.05	18591.46
489.25	18499.30
489.46	18757.35
489.67	18591.46
489.87	18978.53
490.08	18976.48
490.29	19044.06
490.49	19384.02
490.70	19136.22
490.90	19220.19
491.11	19218.14
491.32	19566.29
491.52	19349.21
491.73	19508.95
491.94	19523.29
492.14	19554.01
492.35	19881.68
492.55	20186.83
492.76	20152.01
492.97	20106.96
493.17	20145.87
493.38	20162.25
493.58	20459.21
493.79	20451.02
494.00	20448.97
494.20	20199.12
494.41	20864.71
494.61	20940.48
494.82	20739.78
495.02	20946.62
495.23	21020.35
495.44	21257.92
495.64	21008.06
495.85	21145.28
496.05	21456.57
496.26	21499.58
496.47	21407.42
496.67	21528.25
496.88	21731.00
497.08	21593.78
497.29	22021.81
497.49	21685.94
497.70	21933.75
497.91	22185.65
498.11	22101.68
498.32	22226.60
498.52	22279.85
498.73	22634.15
498.93	22337.20
499.14	22509.22
499.34	22498.98
499.55	22877.86
499.76	22996.64
499.96	22654.63
500.17	23148.19
500.37	23119.52
500.58	22914.72
500.78	23076.51
500.99	23234.21
501.19	23430.81
501.40	23275.16
501.60	23150.24
501.81	23203.49
502.02	23281.31
502.22	23285.40
502.43	23699.09
502.63	23824.02
502.84	23832.21
503.04	23996.05
503.25	24000.15
503.45	23961.23
503.66	24082.06
503.86	24221.33
504.07	24014.48
504.27	24270.48
504.48	24573.58
504.68	24387.21
504.89	24530.57
505.09	24831.62
505.30	24397.45
505.50	24682.12
505.71	24651.40
505.91	25153.15
506.12	24848.00
506.32	24954.50
506.53	24905.35
506.73	25007.75
506.94	25161.34
507.14	25116.29
507.35	25378.43
507.55	25462.40
507.76	25210.50
507.96	25355.90
508.17	25577.08
508.37	25474.68
508.58	25638.52
508.78	25755.26
508.99	26041.97
509.19	25841.27
509.40	25912.95
509.60	25859.70
509.81	26078.83
510.01	25941.62
510.22	25955.96
510.42	25915.00
510.63	26158.70
510.83	26195.57
511.04	26402.41
511.24	26326.64
511.44	26261.10
511.65	26625.64
511.85	26402.41
512.06	26343.02
512.26	26594.92
512.47	26611.31
512.67	26773.10
512.88	26435.18
513.08	26629.74
513.29	27197.02
513.49	26758.76
513.69	26949.22
513.90	26775.14
514.10	27164.26
514.31	27020.90
514.51	27614.81
514.72	27475.55
514.92	27371.10
515.13	27414.11
515.33	27610.71
515.53	27512.41
515.74	27754.07
515.94	27293.28
516.15	28108.37
516.35	27412.06
516.56	27420.25
516.76	27721.30
516.96	27930.20
517.17	27842.14
517.37	28288.59
517.58	28132.95
517.78	28214.87
517.99	28274.26
518.19	28163.67
518.39	28515.92
518.60	28558.92
518.80	28233.30
519.01	29050.44
519.21	28548.68
519.41	28528.20
519.62	28468.81
519.82	28982.85
520.03	29128.26
520.23	28976.71
520.43	28898.89
520.64	29462.08
520.84	28997.19
521.05	29247.04
521.25	29445.69
521.45	29441.60
521.66	29462.08
521.86	29625.92
522.07	29355.58
522.27	29462.08
522.47	29507.13
522.68	29830.71
522.88	29511.23
523.08	30385.71
523.29	29826.62
523.49	30311.99
523.70	30131.76
523.90	30348.85
524.10	30127.67
524.31	30539.31
524.51	30268.98
524.71	30572.08
524.92	30441.01
525.12	30955.05
525.33	30467.63
525.53	30815.79
525.73	31307.30
525.94	31047.21
526.14	31161.89
526.34	30727.72
526.55	31368.74
526.75	31004.20
526.95	31352.35
527.16	31440.42
527.36	31264.29
527.56	31573.53
527.77	31782.43
527.97	31712.80
528.17	31950.36
528.38	32308.76
528.58	31995.42
528.78	32054.81
528.99	32232.98
529.19	32296.47
529.39	32048.66
529.60	32103.96
529.80	32517.65
530.00	32286.23
530.21	32804.36
530.41	32650.77
530.61	33080.84
530.82	33027.59
531.02	32747.02
531.22	32925.19
531.43	33201.67
531.63	33066.50
531.83	33402.37
532.04	33502.72
532.24	33592.83
532.44	34024.95
532.64	33875.45
532.85	33846.78
533.05	34024.95
533.25	33920.51
533.46	33693.18
533.66	34221.56
533.86	34293.24
534.07	34659.82
534.27	34518.51
534.47	34610.67
534.67	34338.29
534.88	34420.21
535.08	34616.82
535.28	34504.18
535.49	35028.46
535.69	35296.74
535.89	35196.39
536.09	35173.86
536.30	35145.19
536.50	35294.69
536.70	35659.23
536.91	35323.36
537.11	35479.01
537.31	35958.24
537.51	35866.08
537.72	35943.90
537.92	36107.74
538.12	36318.68
538.32	36115.93
538.53	36240.86
538.73	35829.21
538.93	36060.63
539.13	36638.16
539.34	36505.04
539.54	36414.93
539.74	36916.68
539.94	36398.55
540.15	36552.15
540.35	37068.23
540.55	36793.81
540.75	37055.95
540.96	37074.38
541.16	36976.08
541.36	37105.10
541.56	37031.37
541.77	37729.73
541.97	37373.38
542.17	37561.79
542.37	37223.88
542.58	37541.32
542.78	37379.53
542.98	37737.92
543.18	37772.74
543.38	38145.47
543.59	37955.00
543.79	37899.71
543.99	37807.55
544.19	38204.86
544.40	37959.10
544.60	38319.54
544.80	38006.20
545.00	38530.48
545.20	38645.17
545.41	38485.43
545.61	38809.01
545.81	39007.66
546.01	39216.55
546.21	38712.75
546.42	38583.73
546.62	39171.50
546.82	38761.90
547.02	38843.82
547.22	39108.01
547.43	39130.54
547.63	38940.08
547.83	39261.61
548.03	38960.56
548.23	39640.48
548.44	39617.96
548.64	39869.86
548.84	39558.56
549.04	39607.72
549.24	39935.39
549.45	40340.89
549.65	39675.30
549.85	39955.87
550.05	40035.74
550.25	39992.73
550.45	40596.88
550.66	40404.38
550.86	39873.95
551.06	40177.05
551.26	40334.74
551.46	40476.05
551.66	40392.09
551.87	40418.71
552.07	40809.87
552.27	40324.50
552.47	40506.77
552.67	40293.79
552.87	40773.01
553.07	40846.74
553.28	40646.04
553.48	41194.89
553.68	40914.32
553.88	41266.57
554.08	40891.79
554.28	40908.18
554.48	40965.52
554.69	41325.96
554.89	40809.87
555.09	41391.50
555.29	40965.52
555.49	41246.09
555.69	40768.91
555.89	41158.03
556.10	41604.49
556.30	41332.11
556.50	41782.66
556.70	41543.05
556.90	41784.71
557.10	42122.62
557.30	41725.32
557.50	42018.17
557.70	41710.98
557.91	41704.84
558.11	41887.10
558.31	42003.84
558.51	41751.94
558.71	42134.91
558.91	42481.02
559.11	41977.22
559.31	41928.06
559.51	42186.11
559.72	42188.16
559.92	42583.41
560.12	42302.84
560.32	42583.41
560.52	42210.68
560.72	42737.01
560.92	42431.86
561.12	42403.19
561.32	43369.83
561.52	42532.22
561.72	43326.83
561.93	42906.99
562.13	42577.27
562.33	42669.43
562.53	43306.35
562.73	43349.35
562.93	43242.86
563.13	43048.30
563.33	42794.36
563.53	43275.63
563.73	43117.93
563.93	43412.84
564.13	43496.81
564.33	43238.76
564.53	43181.42
564.74	43474.28
564.94	43152.75
565.14	43443.56
565.34	43210.09
565.54	43582.82
565.74	43742.56
565.94	43951.46
566.14	43711.84
566.34	43943.27
566.54	43971.94
566.74	43930.98
566.94	43527.53
567.14	44049.76
567.34	43775.33
567.54	44086.62
567.74	43806.05
567.94	43672.93
568.14	44121.44
568.34	44129.63
568.54	44143.97
568.74	44152.16
568.94	43724.13
569.14	44492.12
569.34	44270.94
569.54	44369.24
569.75	43660.65
569.95	44399.96
570.15	44492.12
570.35	44449.11
570.55	44053.86
570.75	44176.73
570.95	44440.92
571.15	44365.15
571.35	44791.12
571.55	44967.25
571.75	44682.58
571.95	45469.00
572.15	44485.98
572.35	45145.42
572.55	44858.71
572.75	45131.09
572.95	44848.47
573.15	45151.57
573.35	45327.69
573.55	44987.73
573.75	44989.78
573.95	45122.90
574.15	44842.32
574.35	45577.54
574.55	45450.57
574.75	45217.10
574.95	45589.83
575.15	45374.80
575.34	45612.36
575.54	45729.09
575.74	45929.80
575.94	45727.05
576.14	45667.66
576.34	46046.53
576.54	45956.42
576.74	46030.15
576.94	45845.83
577.14	45954.37
577.34	46472.51
577.54	46187.84
577.74	46392.64
577.94	45876.55
578.14	46034.24
578.34	46351.68
578.54	45651.27
578.74	46382.40
578.94	46665.02
579.14	46361.92
579.34	46138.69
579.54	46722.36
579.74	46693.69
579.94	46470.46
580.13	46468.41
580.33	46978.36
580.53	46568.76
580.73	47072.56
580.93	46873.91
581.13	46933.30
581.33	47267.12
581.53	47232.30
581.73	47234.35
581.93	47412.52
582.13	47258.93
582.33	47299.89
582.53	47140.14
582.73	47295.79
582.92	47326.51
583.12	47895.85
583.32	47088.95
583.52	47271.21
583.72	47777.06
583.92	47224.11
584.12	48018.72
584.32	48330.01
584.52	47736.10
584.72	47742.25
584.92	48295.20
585.11	48282.91
585.31	48022.82
585.51	48192.80
585.71	47809.83
585.91	48264.48
586.11	48102.69
586.31	48155.94
586.51	48291.10
586.71	47994.15
586.91	48545.05
587.10	48688.41
587.30	48586.01
587.50	48485.66
587.70	48674.07
587.90	48536.86
588.10	48747.80
588.30	48543.00
588.50	48940.31
588.69	48502.04
588.89	48387.36
589.09	48747.80
589.29	48780.57
589.49	49229.07
589.69	48629.02
589.89	48645.40
590.08	48905.49
590.28	49149.20
590.48	48999.70
590.68	48813.34
590.88	48921.88
591.08	48553.24
591.28	48882.97
591.47	49483.02
591.67	49159.44
591.87	49116.43
592.07	49599.76
592.27	49765.64
592.47	49382.67
592.67	49554.70
592.86	49239.31
593.06	49186.07
593.26	49607.95
593.46	49485.07
593.66	49317.14
593.86	49566.99
594.05	49745.16
594.25	49773.83
594.45	49501.45
594.65	49822.98
594.85	49122.58
595.05	50208.00
595.24	49972.49
595.44	49820.94
595.64	49984.77
595.84	49956.10
596.04	50263.30
596.23	50126.08
596.43	50449.66
596.63	49624.33
596.83	50726.14
597.03	50427.13
597.22	50623.74
597.42	50388.22
597.62	50615.55
597.82	50128.13
598.02	50599.16
598.21	50910.46
598.41	50238.72
598.61	50576.64
598.81	50875.64
599.01	51123.44
599.20	50926.84
599.40	50697.47
599.60	51291.38
599.80	51342.58
600.00	50863.35
600.19	51694.83
600.39	50924.79
600.59	50840.82
600.79	51330.29
600.98	51164.40
601.18	51676.40
601.38	51530.99
601.58	51600.62
601.78	51207.41
601.97	51582.19
602.17	51823.85
602.37	51973.35
602.57	52202.72
602.76	52182.24
602.96	51637.48
603.16	52081.89
603.36	52106.47
603.55	52561.12
603.75	51829.99
603.95	52348.13
604.15	51903.72
604.34	52075.75
604.54	51875.05
604.74	52274.40
604.94	52346.08
605.13	52536.54
605.33	52475.10
605.53	52202.72
605.73	52804.83
605.92	52272.35
606.12	52884.70
606.32	52843.74
606.52	52372.70
606.71	52946.14
606.91	52778.20
607.11	52636.89
607.30	52999.38
607.50	52954.33
607.70	53249.24
607.90	52440.29
608.09	52980.95
608.29	53165.27
608.49	53044.44
608.68	53118.17
608.88	52923.61
609.08	53171.41
609.28	53005.53
609.47	53105.88
609.67	53619.92
609.87	53318.87
610.06	53449.94
610.26	53705.93
610.46	53372.11
610.66	53339.35
610.85	53556.43
611.05	53286.10
611.25	54058.18
611.44	53374.16
611.64	53572.81
611.84	53515.47
612.03	53808.33
612.23	53884.11
612.43	53890.25
612.62	53712.08
612.82	53712.08
613.02	53679.31
613.21	53834.95
613.41	53662.93
613.61	54408.39
613.80	53402.83
614.00	54064.33
614.20	53984.46
614.39	54019.27
614.59	53902.54
614.79	53552.33
614.98	54133.96
615.18	53996.74
615.38	53894.35
615.57	53828.81
615.77	54269.12
615.97	54107.33
616.16	54031.56
616.36	53853.39
616.56	53912.78
616.75	53968.07
616.95	53916.87
617.15	54041.80
617.34	54152.39
617.54	54164.68
617.74	54559.94
617.93	54252.74
618.13	54088.90
618.32	54138.05
618.52	53935.30
618.72	54006.98
618.91	54314.18
619.11	54400.19
619.31	54002.89
619.50	54682.81
619.70	53894.35
619.90	54181.06
620.09	54211.78
620.29	54250.69
620.48	53542.10
620.68	54271.17
620.88	54172.87
621.07	53857.48
621.27	54684.86
621.46	53664.97
621.66	54426.82
621.86	54195.40
622.05	54226.12
622.25	54901.95
622.44	54484.16
622.64	54121.67
622.84	54467.78
623.03	53894.35
623.23	54248.64
623.42	53826.76
623.62	54441.15
623.82	55039.16
624.01	54490.30
624.21	54951.10
624.40	54238.40
624.60	54564.03
624.80	54494.40
624.99	54265.03
625.19	54168.77
625.38	54463.68
625.58	54752.44
625.77	54445.25
625.97	54410.43
626.17	54258.88
626.36	54371.52
626.56	54594.75
626.75	53902.54
626.95	54867.13
627.14	54320.32
627.34	54850.75
627.54	53990.60
627.73	54453.44
627.93	54406.34
628.12	53904.59
628.32	54248.64
628.51	54484.16
628.71	54580.42
628.90	54301.89
629.10	54260.93
629.30	54099.14
629.49	54910.14
629.69	54648.00
629.88	54490.30
630.08	55010.49
630.27	54666.43
630.47	54609.09
630.66	54488.26
630.86	55262.39
631.05	54303.94
631.25	55219.38
631.44	54766.78
631.64	54584.51
631.84	54580.42
632.03	55368.88
632.23	54645.95
632.42	55188.66
632.62	54580.42
632.81	54564.03
633.01	54566.08
633.20	54770.88
633.40	54953.15
633.59	54916.28
633.79	54604.99
633.98	54631.61
634.18	54949.05
634.37	54744.25
634.57	54918.33
634.76	55551.15
634.96	54860.99
635.15	55024.82
635.35	54774.97
635.54	54650.05
635.74	55407.79
635.93	54623.42
636.13	54748.35
636.32	55442.61
636.52	55121.08
636.71	55395.51
636.91	55403.70
637.10	55379.12
637.30	55547.06
637.49	55235.77
637.69	55002.30
637.88	55440.56
638.08	54648.00
638.27	55135.41
638.46	54875.32
638.66	54803.64
638.85	55272.63
639.05	55336.12
639.24	55686.32
639.44	55276.72
639.63	55108.79
639.83	55256.24
640.02	55176.37
640.22	55186.61
640.41	56042.66
640.61	54817.98
640.80	55260.34
640.99	55088.31
641.19	55743.66
641.38	55493.81
641.58	55497.91
641.77	54842.56
641.97	55217.33
642.16	55594.16
642.36	55760.05
642.55	55612.59
642.74	55139.51
642.94	55770.28
643.13	55409.84
643.33	55962.79
643.52	55682.22
643.72	55903.40
643.91	55502.00
644.10	55731.37
644.30	56016.04
644.49	55825.58
644.69	55555.25
644.88	55583.92
645.08	55606.45
645.27	55448.75
645.46	55157.94
645.66	55737.52
645.85	55563.44
646.05	55973.03
646.24	55833.77
646.43	56155.30
646.63	55762.09
646.82	56022.19
647.02	55284.92
647.21	55753.90
647.40	55731.37
647.60	55710.89
647.79	55973.03
647.99	55940.27
648.18	55422.13
648.37	56267.94
648.57	55927.98
648.76	55954.60
648.96	55540.91
649.15	55979.18
649.34	56329.38
649.54	56081.58
649.73	55784.62
649.92	55801.00
650.12	55878.83
650.31	55766.19
650.51	56538.27
650.70	56222.89
650.89	55608.50
651.09	56591.52
651.28	56251.56
651.47	55973.03
651.67	56124.58
651.86	56562.85
652.06	55588.02
652.25	56136.87
652.44	56001.71
652.64	55403.70
652.83	55776.43
653.02	55768.24
653.22	55919.79
653.41	55614.64
653.60	55760.05
653.80	55874.73
653.99	56399.01
654.18	56046.76
654.38	55954.60
654.57	56376.48
654.76	55907.50
654.96	56130.73
655.15	55792.81
655.34	55626.93
655.54	55391.41
655.73	55563.44
655.92	56097.96
656.12	55817.39
656.31	56245.41
656.50	56136.87
656.70	56306.85
656.89	55764.14
657.08	56081.58
657.28	56278.18
657.47	55964.84
657.66	56122.54
657.86	55751.85
658.05	55682.22
658.24	56399.01
658.43	55524.53
658.63	56013.99
658.82	56587.42
659.01	56269.99
659.21	56112.30
659.40	56024.23
659.59	56267.94
659.79	55975.08
659.98	56499.36
660.17	56667.30
660.36	56343.72
660.56	56298.66
660.75	56075.43
660.94	55891.12
661.14	56124.58
661.33	56269.99
661.52	56263.85
661.71	56341.67
661.91	55596.21
662.10	56097.96
662.29	56315.04
662.49	56333.48
662.68	56046.76
662.87	56364.20
663.06	56257.70
663.26	56081.58
663.45	56472.74
663.64	55809.20
663.83	56743.07
664.03	56505.51
664.22	56452.26
664.41	56394.92
664.60	56278.18
664.80	56370.34
664.99	56065.19
665.18	55741.61
665.37	56163.50
665.57	56159.40
665.76	55899.31
665.95	56128.68
666.14	55944.36
666.34	55796.91
666.53	55661.74
666.72	55620.78
666.91	55805.10
667.11	55487.67
667.30	56077.48
667.49	56059.05
667.68	55899.31
667.87	55751.85
668.07	56210.60
668.26	55850.16
668.45	55960.75
668.64	55641.26
668.84	56462.50
669.03	56153.26
669.22	56143.02
669.41	56173.73
669.60	55975.08
669.80	55905.45
669.99	56235.17
670.18	55762.09
670.37	56067.24
670.57	56456.35
670.76	56429.73
670.95	56130.73
671.14	55899.31
671.33	55774.38
671.53	56308.90
671.72	55745.71
671.91	55907.50
672.10	55786.67
672.29	55784.62
672.48	56038.57
672.68	56282.28
672.87	55717.04
673.06	55772.33
673.25	55403.70
673.44	56104.10
673.64	55753.90
673.83	56018.09
674.02	55864.49
674.21	55506.10
674.40	55944.36
674.59	55499.95
674.79	55641.26
674.98	55475.38
675.17	55530.67
675.36	55407.79
675.55	56403.11
675.74	55545.01
675.94	55667.89
676.13	55811.24
676.32	55798.96
676.51	56075.43
676.70	55876.78
676.89	55604.40
677.08	55604.40
677.28	55540.91
677.47	55864.49
677.66	56083.62
677.85	55948.46
678.04	55684.27
678.23	56143.02
678.42	55714.99
678.62	55719.09
678.81	56001.71
679.00	55784.62
679.19	55770.28
679.38	55620.78
679.57	55401.65
679.76	55651.50
679.96	56267.94
680.15	55268.53
680.34	55086.26
680.53	55297.20
680.72	55844.01
680.91	55643.31
681.10	55545.01
681.29	55565.49
681.48	55469.23
681.68	55407.79
681.87	55153.85
682.06	55499.95
682.25	54764.73
682.44	54942.91
682.63	55344.31
682.82	55450.80
683.01	55436.47
683.20	54811.84
683.39	55162.04
683.59	54949.05
683.78	54676.67
683.97	54967.48
684.16	55178.42
684.35	54764.73
684.54	55424.18
684.73	54785.21
684.92	55125.17
685.11	55076.02
685.30	54856.89
685.49	55409.84
685.69	54506.69
685.88	55340.21
686.07	54891.71
686.26	54721.72
686.45	55112.89
686.64	55080.12
686.83	54944.95
687.02	55450.80
687.21	55004.34
687.40	54801.60
687.59	54992.06
687.78	55170.23
687.97	55243.96
688.16	55045.30
688.35	54762.68
688.54	54580.42
688.74	55016.63
688.93	54789.31
689.12	54940.86
689.31	55241.91
689.50	54785.21
689.69	54594.75
689.88	54613.18
690.07	54340.80
690.26	54545.60
690.45	55149.75
690.64	54787.26
690.83	54828.22
691.02	54367.43
691.21	55035.06
691.40	54342.85
691.59	54316.23
691.78	54052.04
691.97	54676.67
692.16	54572.22
692.35	54791.36
692.54	54650.05
692.73	54523.07
692.92	54312.13
693.11	54529.22
693.30	54316.23
693.49	54371.52
693.68	54711.49
693.87	54516.93
694.06	54494.40
694.25	54672.57
694.44	54156.49
694.63	54187.21
694.82	54461.63
695.01	54056.14
695.20	54187.21
695.39	53873.87
695.58	54125.77
695.77	54256.84
695.96	53581.01
696.15	54273.22
696.34	53681.36
696.53	54111.43
696.72	54088.90
696.91	53900.49
697.10	54033.61
697.29	53933.26
697.48	54119.62
697.67	54181.06
697.86	53494.99
698.05	53769.42
698.24	54478.02
698.43	53630.16
698.62	53982.41
698.81	53746.89
699.00	54396.10
699.19	53677.26
699.38	53861.58
699.57	53400.79
699.76	54285.51
699.95	53572.81
700.14	53716.17
700.32	53810.38
700.51	53892.30
700.70	53972.17
700.89	54047.94
701.08	54076.61
701.27	53857.48
701.46	54049.99
701.65	53363.92
701.84	53380.31
702.03	53558.48
702.22	53472.46
702.41	53501.14
702.60	53695.69
702.79	53210.32
702.98	53398.74
703.17	53327.06
703.35	53320.91
703.54	53030.10
703.73	53454.03
703.92	53695.69
704.11	53257.43
704.30	53372.11
704.49	53044.44
704.68	53173.46
704.87	53097.69
705.06	53064.92
705.25	53073.11
705.43	53296.34
705.62	52849.88
705.81	52968.66
706.00	52753.63
706.19	52772.06
706.38	52976.86
706.57	53132.50
706.76	52663.52
706.95	52800.73
707.14	53046.49
707.32	52393.18
707.51	53001.43
707.70	52597.98
707.89	52919.51
708.08	52765.91
708.27	53187.80
708.46	53208.28
708.65	52944.09
708.84	52712.67
709.02	52747.48
709.21	52974.81
709.40	52825.31
709.59	52974.81
709.78	52126.95
709.97	52905.18
710.16	52327.65
710.34	52141.28
710.53	52384.99
710.72	52450.53
710.91	52428.00
711.10	52481.25
711.29	52567.26
711.48	52770.01
711.66	52196.58
711.85	52141.28
712.04	52540.64
712.23	52002.02
712.42	52643.04
712.61	52094.18
712.80	52061.41
712.98	52516.06
713.17	52219.11
713.36	51942.63
713.55	52102.37
713.74	52210.92
713.93	52106.47
714.11	52272.35
714.30	51764.46
714.49	51821.80
714.68	52153.57
714.87	51901.67
715.06	52008.17
715.24	51961.06
715.43	51627.24
715.62	51373.30
715.81	51635.44
716.00	51631.34
716.18	51264.75
716.37	51516.65
716.56	51135.73
716.75	52040.93
716.94	51913.96
717.12	50691.32
717.31	51885.29
717.50	51739.88
717.69	51258.61
717.88	51829.99
718.06	51365.10
718.25	51561.71
718.44	50973.94
718.63	51363.06
718.82	50906.36
719.00	50955.51
719.19	50705.66
719.38	50808.06
719.57	50930.93
719.76	50390.27
719.94	50341.12
720.13	50570.49
720.32	50633.98
720.51	50441.47
720.69	50509.05
720.88	50134.28
721.07	50177.28
721.26	49966.34
721.44	50275.58
721.63	49909.00
721.82	50138.37
722.01	49763.59
722.20	50412.80
722.38	50185.47
722.57	49843.46
722.76	50117.89
722.95	49423.63
723.13	49276.18
723.32	49753.35
723.51	49429.77
723.70	48981.27
723.88	49812.74
724.07	49444.11
724.26	49980.68
724.44	49057.04
724.63	49566.99
724.82	49188.11
725.01	49845.51
725.19	49431.82
725.38	49138.96
725.57	48913.69
725.76	49556.75
725.94	49075.48
726.13	49018.13
726.32	49126.67
726.51	48762.14
726.69	49280.27
726.88	49241.36
727.07	48839.96
727.25	49059.09
727.44	48289.06
727.63	49214.74
727.82	49181.97
728.00	48557.34
728.19	48563.48
728.38	48784.66
728.56	48682.27
728.75	48731.42
728.94	48758.04
729.12	49169.68
729.31	48868.63
729.50	48411.93
729.69	49067.28
729.87	48698.65
730.06	48723.22
730.25	48674.07
730.43	48694.55
730.62	48592.15
730.81	48880.92
730.99	49161.49
731.18	48612.63
731.37	48805.14
731.55	49046.80
731.74	49052.95
731.93	48434.46
732.11	48579.87
732.30	48768.28
732.49	48471.32
732.67	48553.24
732.86	48133.41
733.05	48393.50
733.23	48321.82
733.42	48194.85
733.61	48252.19
733.79	48665.88
733.98	48487.71
734.17	48602.39
734.35	48751.90
734.54	48440.60
734.73	48534.81
734.91	48323.87
735.10	47928.61
735.29	48594.20
735.47	47779.11
735.66	47895.85
735.84	47973.67
736.03	47842.60
736.22	48612.63
736.40	48217.38
736.59	47969.57
736.78	47988.00
736.96	48194.85
737.15	47895.85
737.33	47639.85
737.52	47830.31
737.71	47529.26
737.89	47676.71
738.08	47000.88
738.27	47736.10
738.45	47785.25
738.64	47639.85
738.82	47977.76
739.01	47582.51
739.20	47295.79
739.38	47535.40
739.57	47873.32
739.75	47396.14
739.94	47492.40
740.13	47365.42
740.31	47613.23
740.50	47824.17
740.68	47136.05
740.87	47457.58
741.06	47410.48
741.24	47349.04
741.43	46740.79
741.61	47379.76
741.80	47045.94
741.99	47117.62
742.17	46867.76
742.36	46697.78
742.54	46671.16
742.73	46982.45
742.91	47207.73
743.10	47009.07
743.29	46779.70
743.47	46886.20
743.66	46476.60
743.84	47195.44
744.03	46761.27
744.21	46744.89
744.40	47297.84
744.59	46689.59
744.77	46445.88
744.96	46556.47
745.14	46492.99
745.33	46744.89
745.51	46576.95
745.70	46456.12
745.88	46579.00
746.07	46241.09
746.26	46331.20
746.44	46464.32
746.63	46247.23
746.81	46576.95
747.00	46413.12
747.18	46470.46
747.37	46216.51
747.55	46445.88
747.74	46609.72
747.92	46232.89
748.11	46273.85
748.29	46314.81
748.48	46652.73
748.66	45854.02
748.85	46103.87
749.03	45536.59
749.22	45628.74
749.41	45845.83
749.59	45892.93
749.78	45493.58
749.96	45557.06
750.15	45323.60
750.33	45835.59
750.52	45348.17
750.70	45585.74
750.89	45356.36
751.07	45307.21
751.26	45184.33
751.44	45454.67
751.63	45385.04
751.81	45090.13
752.00	45081.94
752.18	45268.30
752.37	45145.42
752.55	45176.14
752.74	44813.65
752.92	45141.33
753.10	44598.62
753.29	44647.77
753.47	44842.32
753.66	44727.64
753.84	45073.74
754.03	44612.95
754.21	44701.01
754.40	44518.74
754.58	44676.44
754.77	44748.12
754.95	44660.05
755.14	44356.96
755.32	44490.07
755.51	44176.73
755.69	44344.67
755.88	44373.34
756.06	44553.56
756.24	44264.80
756.43	44080.48
756.61	44066.14
756.80	44223.84
756.98	44457.31
757.17	44256.60
757.35	44066.14
757.54	44064.10
757.72	43746.66
757.90	44068.19
758.09	43961.70
758.27	43918.69
758.46	43742.56
758.64	43709.80
758.83	43734.37
759.01	43830.63
759.19	43826.53
759.38	43892.07
759.56	43808.10
759.75	43752.80
759.93	43588.97
760.12	43513.19
760.30	43234.67
760.48	43685.22
760.67	43457.90
760.85	43361.64
761.04	43046.26
761.22	43079.02
761.40	43263.34
761.59	43189.61
761.77	42902.90
761.96	43105.65
762.14	42892.66
762.32	42790.26
762.51	42788.21
762.69	42823.03
762.88	42734.96
763.06	42704.24
763.24	42947.95
763.43	42737.01
763.61	42497.40
763.80	42835.31
763.98	42546.55
764.16	42454.39
764.35	42339.71
764.53	41866.63
764.72	42450.30
764.90	42450.30
765.08	42300.79
765.27	42358.14
765.45	41964.93
765.63	41950.59
765.82	42653.05
766.00	41696.64
766.18	41811.33
766.37	42450.30
766.55	42052.99
766.74	41796.99
766.92	41598.34
767.10	41895.30
767.29	41737.60
767.47	41391.50
767.65	41977.22
767.84	41467.27
768.02	41915.78
768.20	41055.63
768.39	41411.98
768.57	41395.59
768.75	41403.78
768.94	41422.22
769.12	41254.28
769.30	41002.38
769.49	41293.19
769.67	40930.70
769.85	40852.88
770.04	40883.60
770.22	41272.71
770.40	40398.23
770.59	40744.34
770.77	40973.71
770.95	40603.03
771.14	40865.17
771.32	40318.36
771.50	40461.72
771.69	40404.38
771.87	40877.46
772.05	40897.94
772.24	40181.15
772.42	40347.03
772.60	40355.22
772.78	40662.42
772.97	40312.22
773.15	40631.70
773.33	40297.88
773.52	39802.27
773.70	40152.48
773.88	40115.61
774.07	40107.42
774.25	40357.27
774.43	40074.65
774.61	40011.17
774.80	40109.47
774.98	40199.58
775.16	40543.64
775.34	40066.46
775.53	39996.83
775.71	40572.31
775.89	40144.28
776.08	40064.41
776.26	40449.43
776.44	40060.32
776.62	40394.14
776.81	40236.44
776.99	40598.93
777.17	40187.29
777.35	40195.48
777.54	40629.65
777.72	40148.38
777.90	40428.95
778.08	40699.28
778.27	40295.83
778.45	40478.10
778.63	40920.46
778.81	40453.53
779.00	41239.95
779.18	40545.69
779.36	40899.98
779.54	40480.15
779.73	40363.42
779.91	40955.28
780.09	40799.63
780.27	40947.09
780.46	40863.12
780.64	40895.89
780.82	40922.51
781.00	40977.81
781.19	40486.29
781.37	40967.57
781.55	40818.07
781.73	41485.70
781.91	41108.88
782.10	40938.90
782.28	41258.38
782.46	40983.95
782.64	41325.96
782.82	40797.59
783.01	41395.59
783.19	41416.07
783.37	40953.23
783.55	41092.49
783.74	41188.75
783.92	40990.09
784.10	41348.49
784.28	41104.78
784.46	40914.32
784.64	41000.33
784.83	41444.74
785.01	41270.67
785.19	41463.18
785.37	41287.05
785.55	40859.02
785.74	40834.45
785.92	40560.02
786.10	41133.45
786.28	40969.61
786.46	41119.12
786.64	40285.59
786.83	40869.26
787.01	40746.39
787.19	40887.70
787.37	40535.45
787.55	40959.38
787.74	40437.14
787.92	40824.21
788.10	40879.50
788.28	40209.82
788.46	40420.76
788.64	40564.12
788.82	40408.47
789.01	40748.43
789.19	40465.81
789.37	40586.64
789.55	40555.93
789.73	40033.69
789.91	40183.19
790.09	40402.33
790.28	39884.19
790.46	39955.87
790.64	39962.01
790.82	39933.34
791.00	39900.58
791.18	40132.00
791.36	39818.66
791.55	39536.04
791.73	39466.41
791.91	39388.58
792.09	39470.50
792.27	39634.34
792.45	39329.19
792.63	39364.01
792.81	39116.20
793.00	39056.81
793.18	38720.95
793.36	39036.33
793.54	38622.64
793.72	38581.68
793.90	38626.74
794.08	38647.22
794.26	38602.16
794.44	38577.59
794.62	38090.17
794.81	38495.67
794.99	38061.50
795.17	38376.89
795.35	38178.23
795.53	38559.16
795.71	38565.30
795.89	38165.95
796.07	37721.54
796.25	37752.26
796.43	37608.90
796.61	37426.63
796.80	37598.66
796.98	37834.17
797.16	37008.84
797.34	37647.81
797.52	37385.67
797.70	37668.29
797.88	37346.76
798.06	36832.72
798.24	37256.65
798.42	37021.13
798.60	36818.38
798.78	36951.50
798.96	36617.68
799.14	36615.63
799.32	36959.69
799.51	36808.14
799.69	36738.51
799.87	36580.82
800.05	36376.02
800.23	36167.13
800.41	35933.66
800.59	36330.97
800.77	36081.11
800.95	35735.01
801.13	35872.22
801.31	35890.65
801.49	35988.95
801.67	35436.00
801.85	35931.61
802.03	35358.18
802.21	35331.56
802.39	35433.96
802.57	35444.20
802.75	34903.53
802.93	35089.90
803.11	34891.24
803.29	34649.58
803.47	34450.93
803.65	34805.23
803.83	34735.60
804.01	34903.53
804.19	34272.76
804.37	34397.68
804.55	34530.80
804.73	34412.02
804.91	34313.72
805.09	34459.12
805.27	34321.91
805.45	34334.20
805.63	34495.99
805.81	34196.98
805.99	34371.06
806.17	34166.26
806.35	33762.81
806.53	33871.36
806.71	34117.11
806.89	33588.74
807.07	33879.55
807.25	33879.55
807.43	33586.69
807.61	33517.06
807.79	33590.78
807.97	33152.52
808.15	33187.33
808.33	33324.55
808.51	33254.92
808.69	32876.04
808.87	32771.60
809.05	32902.67
809.23	32450.06
809.41	32650.77
809.59	32554.51
809.77	32822.80
809.95	32544.27
810.13	32697.87
810.31	32634.38
810.49	32333.33
810.67	32550.42
810.84	32515.60
811.02	32450.06
811.20	32042.52
811.38	32282.13
811.56	31970.84
811.74	32153.11
811.92	31866.39
812.10	31776.28
812.28	32171.54
812.46	31491.62
812.64	31960.60
812.82	31647.26
813.00	31442.46
813.18	31880.73
813.36	31508.00
813.53	31323.68
813.71	31258.15
813.89	31534.62
814.07	31378.98
814.25	31223.33
814.43	30918.18
814.61	31239.72
814.79	31088.17
814.97	31315.49
815.15	31008.29
815.33	30703.15
815.50	30604.84
815.68	30754.35
815.86	30830.12
816.04	30533.17
816.22	30711.34
816.40	30373.42
816.58	30639.66
816.76	30590.51
816.94	30471.73
817.11	30760.49
817.29	30500.40
817.47	30094.90
817.65	30533.17
817.83	30156.34
818.01	30160.44
818.19	30303.79
818.37	30037.56
818.54	29929.02
818.72	29750.84
818.90	29984.31
819.08	30012.98
819.26	29998.65
819.44	30006.84
819.62	29779.51
819.80	29644.35
819.97	29513.28
820.15	29193.79
820.33	29040.20
820.51	29546.05
820.69	29036.10
820.87	29230.66
821.05	29470.27
821.22	29300.29
821.40	29578.81
821.58	29314.62
821.76	29179.46
821.94	29421.12
822.12	29244.99
822.29	29326.91
822.47	29228.61
822.65	29271.62
822.83	29181.51
823.01	29247.04
823.19	28630.60
823.36	28933.70
823.54	28993.09
823.72	28642.89
823.90	28329.55
824.08	28563.02
824.25	28917.32
824.43	28530.25
824.61	28407.37
824.79	28819.02
824.97	28659.27
825.15	28448.33
825.32	28321.36
825.50	28233.30
825.68	28241.49
825.86	28657.23
826.04	28237.39
826.21	28188.24
826.39	28200.53
826.57	27995.73
826.75	28112.47
826.93	27872.85
827.10	27809.37
827.28	28212.82
827.46	27885.14
827.64	27819.61
827.81	27600.47
827.99	27989.59
828.17	27807.32
828.35	27766.36
828.53	27885.14
828.70	27203.17
828.88	27524.70
829.06	27692.63
829.24	27666.01
829.41	27616.86
829.59	27913.81
829.77	27641.43
829.95	27481.69
830.12	27280.99
830.30	27225.70
830.48	27072.10
830.66	27201.12
830.84	27508.32
831.01	27231.84
831.19	27137.63
831.37	27186.79
831.55	26900.07
831.72	27129.44
831.90	27111.01
832.08	26723.94
832.25	26707.56
832.43	26635.88
832.61	27008.61
832.79	26801.77
832.96	26955.36
833.14	26721.90
833.32	26963.56
833.50	26938.98
833.67	26453.61
833.85	26994.28
834.03	26250.86
834.20	26629.74
834.38	26574.44
834.56	26517.10
834.74	26500.72
834.91	26273.39
835.09	26449.52
835.27	26064.50
835.44	25923.19
835.62	26058.35
835.80	25935.48
835.98	26175.09
836.15	25894.52
836.33	25972.34
836.51	26336.88
836.68	26031.73
836.86	26199.66
837.04	26138.23
837.21	25937.52
837.39	26398.32
837.57	26105.46
837.75	25923.19
837.92	25921.14
838.10	25765.49
838.28	25493.12
838.45	25792.12
838.63	25495.16
838.81	25536.12
838.98	25681.53
839.16	25552.51
839.34	25337.47
839.51	25386.62
839.69	25347.71
839.87	25362.04
840.04	25265.79
840.22	25398.91
840.40	25314.94
840.57	25364.09
840.75	25552.51
840.93	24882.82
841.10	25110.14
841.28	25577.08
841.46	24876.68
841.63	25282.17
841.81	25153.15
841.98	25036.42
842.16	25077.38
842.34	25011.84
842.51	24788.61
842.69	24985.22
842.87	24952.45
843.04	25204.35
843.22	24731.27
843.40	24682.12
843.57	24712.84
843.75	24551.05
843.92	24798.85
844.10	24495.75
844.28	24761.99
844.45	24891.01
844.63	24661.64
844.81	24426.12
844.98	24643.21
845.16	24493.71
845.33	24657.54
845.51	24415.88
845.69	24635.02
845.86	24280.72
846.04	24495.75
846.21	24430.22
846.39	24383.12
846.57	24200.85
846.74	24430.22
846.92	24196.75
847.09	24333.96
847.27	24149.65
847.45	24186.51
847.62	23875.22
847.80	24250.00
847.97	24063.63
848.15	23733.91
848.32	23637.66
848.50	23955.09
848.68	23830.16
848.85	23920.28
849.03	23568.02
849.20	23664.28
849.38	23772.82
849.56	24010.39
849.73	23469.72
849.91	23289.50
850.08	23973.52
850.26	23344.80
850.43	23518.87
850.61	23314.08
850.78	22892.19
850.96	23269.02
851.14	22953.63
851.31	23289.50
851.49	23039.65
851.66	23426.71
851.84	23164.57
852.01	23006.88
852.19	23320.22
852.36	23158.43
852.54	23289.50
852.71	23244.45
852.89	23121.57
853.07	23107.23
853.24	23056.03
853.42	23049.89
853.59	23070.37
853.77	22988.45
853.94	23123.62
854.12	23307.93
854.29	22560.42
854.47	22736.55
854.64	22978.21
854.82	23027.36
854.99	22769.32
855.17	22599.34
855.34	22498.98
855.52	22691.49
855.69	22802.08
855.87	22560.42
856.04	22261.42
856.22	22535.85
856.39	22435.50
856.57	22470.31
856.74	22101.68
856.92	22431.40
857.09	22304.43
857.27	22138.54
857.44	22390.44
857.62	22304.43
857.79	22218.41
857.97	22353.58
858.14	22294.19
858.32	22122.16
858.49	21847.73
858.67	22083.25
858.84	22240.94
859.02	22167.21
859.19	21550.78
859.37	21755.57
859.54	21530.30
859.72	21900.98
859.89	21907.12
860.06	21909.17
860.24	21868.21
860.41	21796.53
860.59	21679.80
860.76	21827.25
860.94	21622.45
861.11	21847.73
861.29	21544.63
861.46	21731.00
861.64	21196.48
861.81	21485.24
861.98	21374.65
862.16	21341.88
862.33	21098.17
862.51	21352.12
862.68	21442.23
862.86	21096.13
863.03	21081.79
863.21	21266.11
863.38	21487.29
863.55	21061.31
863.73	21481.14
863.90	21227.20
864.08	21139.13
864.25	21182.14
864.43	21141.18
864.60	20661.96
864.77	20549.32
864.95	20950.72
865.12	20760.26
865.30	20872.90
865.47	20809.41
865.64	20985.54
865.82	20739.78
865.99	21008.06
866.17	20598.47
866.34	20788.93
866.51	20479.69
866.69	20565.70
866.86	20616.90
867.04	20559.56
867.21	20412.10
867.38	20514.50
867.56	20297.42
867.73	20469.45
867.91	20319.95
868.08	20362.95
868.25	20215.50
868.43	20131.53
868.60	20354.76
868.78	19969.74
868.95	20330.19
869.12	20131.53
869.30	19986.13
869.47	20149.96
869.64	19992.27
869.82	19818.19
869.99	19924.69
870.16	20025.04
870.34	19932.88
870.51	20002.51
870.69	19492.57
870.86	19963.60
871.03	19801.81
871.21	19678.93
871.38	19642.07
871.55	19875.54
871.73	19621.59
871.90	19386.07
872.07	19455.70
872.25	19242.71
872.42	19209.95
872.59	19394.26
872.77	19330.78
872.94	19078.88
873.11	19209.95
873.29	19224.28
873.46	19269.34
873.63	19175.13
873.81	19199.71
873.98	18915.04
874.15	18976.48
874.33	18577.12
874.50	18702.05
874.67	18904.80
874.85	18843.36
875.02	18761.44
875.19	18607.84
875.37	18525.93
875.54	18644.71
875.71	18454.25
875.88	18554.60
876.06	18554.60
876.23	18497.25
876.40	18327.27
876.58	18501.35
876.75	18335.46
876.92	18198.25
877.10	18314.98
877.27	18235.11
877.44	18054.89
877.61	18263.79
877.79	18007.79
877.96	18124.52
878.13	17979.12
878.31	17876.72
878.48	17811.18
878.65	17846.00
878.82	17786.61
879.00	17774.32
879.17	17737.46
879.34	17774.32
879.51	17839.86
879.69	17778.42
879.86	17655.54
880.03	17606.39
880.21	17766.13
880.38	17538.80
880.55	17542.90
880.72	17530.61
880.90	17389.30
881.07	17440.50
881.24	17774.32
881.41	17344.25
881.59	17293.05
881.76	17305.34
881.93	17272.57
882.10	17340.15
882.28	17346.30
882.45	17207.03
882.62	17080.06
882.79	17055.48
882.96	16828.16
883.14	17118.97
883.31	17125.11
883.48	17135.35
883.65	17123.07
883.83	17172.22
884.00	17229.56
884.17	17041.15
884.34	16948.99
884.51	16916.22
884.69	16922.37
884.86	16791.30
885.03	16715.52
885.20	16371.46
885.38	16850.69
885.55	16801.54
885.72	16713.47
885.89	16365.32
886.06	16797.44
886.24	16488.20
886.41	16490.24
886.58	16731.90
886.75	16740.10
886.92	16598.79
887.10	16680.71
887.27	16649.99
887.44	16572.16
887.61	16606.98
887.78	16672.51
887.95	16613.12
888.13	16410.37
888.30	16402.18
888.47	16402.18
888.64	16336.65
888.81	16289.54
888.99	16133.90
889.16	16056.08
889.33	16113.42
889.50	15951.63
889.67	15890.19
889.84	15906.57
890.01	16058.12
890.19	16072.46
890.36	16080.65
890.53	16183.05
890.70	15941.39
890.87	15922.96
891.04	15884.05
891.22	15720.21
891.39	15761.17
891.56	15882.00
891.73	15695.63
891.90	15781.65
892.07	15562.51
892.24	15769.36
892.42	15470.36
892.59	15671.06
892.76	15529.75
892.93	15546.13
893.10	15779.60
893.27	15732.50
893.44	15476.50
893.61	15357.72
893.79	15626.00
893.96	15550.23
894.13	15556.37
894.30	15607.57
894.47	15247.13
894.64	15599.38
894.81	15392.53
894.98	15359.77
895.15	15406.87
895.33	15548.18
895.50	15331.09
895.67	15492.88
895.84	15327.00
896.01	15146.78
896.18	15312.66
896.35	15382.29
896.52	15228.70
896.69	15081.24
896.86	15335.19
897.04	15355.67
897.21	15265.56
897.38	15150.87
897.55	15353.62
897.72	15335.19
897.89	15157.02
898.06	15453.97
898.23	15419.16
898.40	15191.83
898.57	15224.60
898.74	15167.26
898.91	15259.42
899.08	15318.81
899.26	15316.76
899.43	15300.37
899.60	15394.58
899.77	15118.11
899.94	15030.04
900.11	15042.33
900.28	15077.15
900.45	15247.13
900.62	15169.30
900.79	15208.22
900.96	15159.06
901.13	15017.75
901.30	15097.63
901.47	14976.80
901.64	14968.60
901.81	15044.38
901.98	15085.34
902.15	15283.99
902.32	15066.91
902.49	15075.10
902.66	15073.05
902.83	15177.50
903.01	15089.43
903.18	15105.82
903.35	15154.97
903.52	15077.15
903.69	14907.16
903.86	15023.90
904.03	14923.55
904.20	15269.66
904.37	15351.57
904.54	15228.70
904.71	14946.08
904.88	15126.30
905.05	14792.48
905.22	14923.55
905.39	14927.64
905.56	14851.87
905.73	14911.26
905.90	15085.34
906.07	15021.85
906.24	15001.37
906.41	14901.02
906.58	14997.28
906.75	14786.33
906.92	14806.81
907.09	14772.00
907.26	15103.77
907.43	14782.24
907.60	14769.95
907.77	15011.61
907.93	14780.19
908.10	14663.46
908.27	15128.35
908.44	14667.55
908.61	14681.89
908.78	14845.73
908.95	15044.38
909.12	14982.94
909.29	14853.92
909.46	14870.30
909.63	15036.19
909.80	14808.86
909.97	14841.63
910.14	14888.73
910.31	14722.85
910.48	14769.95
910.65	14962.46
910.82	14649.12
910.99	14638.88
911.16	14888.73
911.33	14733.09
911.50	14434.08
911.66	14526.24
911.83	14679.84
912.00	14450.47
912.17	14030.63
912.34	14720.80
912.51	14516.00
912.68	14264.10
912.85	14450.47
913.02	14352.16
913.19	14317.35
913.36	14372.64
913.53	14479.14
913.70	14417.70
913.86	14554.91
914.03	14315.30
914.20	14382.88
914.37	14280.49
914.54	14194.47
914.71	14081.83
914.88	14180.14
915.05	13834.03
915.22	14059.31
915.39	14018.35
915.55	14016.30
915.72	14270.25
915.89	14079.79
916.06	13928.24
916.23	13743.92
916.40	13977.39
916.57	14098.22
916.74	13700.91
916.91	13471.54
917.07	13721.39
917.24	13760.30
917.41	13795.12
917.58	13510.45
917.75	13532.98
917.92	13481.78
918.09	13557.55
918.26	13377.33
918.42	13336.37
918.59	13244.21
918.76	13481.78
918.93	13074.23
919.10	13246.26
919.27	13391.67
919.44	13217.59
919.60	13066.04
919.77	13498.16
919.94	13197.11
920.11	12959.55
920.28	13059.90
920.45	12922.68
920.61	12703.55
920.78	12992.31
920.95	12820.28
921.12	12789.56
921.29	12779.32
921.46	12633.92
921.62	12558.14
921.79	12781.37
921.96	12375.88
922.13	12429.12
922.30	12406.59
922.47	12443.46
922.63	12635.97
922.80	12205.89
922.97	12156.74
923.14	12359.49
923.31	12377.92
923.47	12119.88
923.64	12349.25
923.81	12195.65
923.98	12080.97
924.15	12144.45
924.32	11943.75
924.48	12011.34
924.65	12150.60
924.82	11779.92
924.99	11652.94
925.15	11665.23
925.32	11894.60
925.49	11472.72
925.66	11554.64
925.83	11609.93
925.99	11366.23
926.16	11669.33
926.33	11554.64
926.50	11476.82
926.67	11523.92
926.83	11442.00
927.00	11097.94
927.17	11140.95
927.34	11333.46
927.50	11210.58
927.67	11278.16
927.84	11167.57
928.01	10995.54
928.17	11167.57
928.34	11005.78
928.51	10850.14
928.68	11013.98
928.84	10907.48
929.01	10676.06
929.18	10684.25
929.35	10616.67
929.51	10665.82
929.68	10608.48
929.85	10465.12
930.02	10522.46
930.18	10436.45
930.35	10499.94
930.52	10372.96
930.69	10422.11
930.85	10489.70
931.02	10196.84
931.19	10270.56
931.36	10157.92
931.52	10274.66
931.69	10299.23
931.86	10104.68
932.02	10039.14
932.19	9860.97
932.36	10145.64
932.53	9936.74
932.69	9633.64
932.86	9955.18
933.03	9664.36
933.19	9590.64
933.36	9754.48
933.53	9838.44
933.70	9527.15
933.86	9482.10
934.03	9500.53
934.20	9328.50
934.36	9420.66
934.53	9357.17
934.70	9082.74
934.86	9228.15
935.03	9232.24
935.20	8857.46
935.36	8998.77
935.53	8947.58
935.70	8873.85
935.86	8875.90
936.03	8546.17
936.20	8402.82
936.36	8533.89
936.53	8640.38
936.70	8368.00
936.86	8662.91
937.03	8243.07
937.20	8163.20
937.36	8054.66
937.53	8007.56
937.70	8097.67
937.86	7825.29
938.03	7841.67
938.20	7843.72
938.36	7643.02
938.53	7700.36
938.70	7520.14
938.86	7350.16
939.03	7430.03
939.20	7264.15
939.36	7163.79
939.53	7102.36
939.70	7327.63
939.86	6961.05
940.03	6889.37
940.19	6682.52
940.36	6709.15
940.53	6836.12
940.69	6625.18
940.86	6604.70
941.03	6483.87
941.19	6293.41
941.36	6344.61
941.52	6356.90
941.69	6117.28
941.86	6330.27
942.02	6100.90
942.19	6072.23
942.35	6207.39
942.52	6072.23
942.69	6008.74
942.85	5935.01
943.02	5810.09
943.18	5855.14
943.35	5918.63
943.52	5623.72
943.68	5652.39
943.85	5621.67
944.01	5496.75
944.18	5558.19
944.35	5756.84
944.51	5423.02
944.68	5509.04
944.84	5457.84
945.01	5400.49
945.17	5263.28
945.34	5455.79
945.51	5459.88
945.67	5418.93
945.84	5365.68
946.00	5408.69
946.17	5443.50
946.33	5332.91
946.50	5459.88
946.67	5224.37
946.83	5326.77
947.00	5287.86
947.16	5310.38
947.33	5388.21
947.49	5275.57
947.66	5087.15
947.82	5306.29
947.99	5345.20
948.16	5181.36
948.32	5130.16
948.49	5271.47
948.65	5357.49
948.82	5377.97
948.98	5289.90
949.15	5103.54
949.31	5277.62
949.48	5171.12
949.64	5169.07
949.81	5318.57
949.97	5291.95
950.14	5314.48
950.30	5238.70
950.47	5373.87
950.63	5248.94
950.80	5253.04
950.96	5314.48
951.13	5296.05
951.30	5339.05
951.46	5285.81
951.63	5488.56
951.79	5357.49
951.96	5414.83
952.12	5476.27
952.29	5367.73
952.45	5289.90
952.62	5361.58
952.78	5304.24
952.94	5296.05
953.11	5279.66
953.27	5244.85
953.44	5498.80
953.60	5490.60
953.77	5490.60
953.93	5457.84
954.10	5222.32
954.26	5377.97
954.43	5369.77
954.59	5451.69
954.76	5547.95
954.92	5384.11
955.09	5402.54
955.25	5377.97
955.42	5472.17
955.58	5529.52
955.75	5390.25
955.91	5414.83
956.07	5345.20
956.24	5533.61
956.40	5433.26
956.57	5506.99
956.73	5455.79
956.90	5353.39
957.06	5500.84
957.23	5388.21
957.39	5482.41
957.56	5480.36
957.72	5406.64
957.88	5353.39
958.05	5484.46
958.21	5556.14
958.38	5455.79
958.54	5414.83
958.71	5537.71
958.87	5404.59
959.03	5369.77
959.20	5509.04
959.36	5187.50
959.53	5328.81
959.69	5412.78
959.85	5558.19
960.02	5345.20
960.18	5564.33
960.35	5402.54
960.51	5527.47
960.68	5537.71
960.84	5562.28
961.00	5345.20
961.17	5279.66
961.33	5588.91
961.50	5324.72
961.66	5488.56
961.82	5406.64
961.99	5408.69
962.15	5271.47
962.31	5341.10
962.48	5423.02
962.64	5408.69
962.81	5513.13
962.97	5410.73
963.13	5439.40
963.30	5455.79
963.46	5289.90
963.62	5375.92
963.79	5349.29
963.95	5527.47
964.12	5431.21
964.28	5533.61
964.44	5416.88
964.61	5343.15
964.77	5316.53
964.93	5420.97
965.10	5480.36
965.26	5363.63
965.42	5353.39
965.59	5361.58
965.75	5306.29
965.92	5470.12
966.08	5445.55
966.24	5328.81
966.41	5316.53
966.57	5222.32
966.73	5322.67
966.90	5294.00
967.06	5355.44
967.22	5193.65
967.39	5337.01
967.55	5289.90
967.71	5232.56
967.88	5117.87
968.04	5160.88
968.20	5175.22
968.37	5197.74
968.53	5121.97
968.69	5115.83
968.85	5240.75
969.02	5277.62
969.18	5294.00
969.34	5234.61
969.51	5214.13
969.67	5324.72
969.83	5175.22
970.00	5189.55
970.16	5189.55
970.32	5199.79
970.48	5310.38
970.65	5005.24
970.81	4962.23
970.97	4997.04
971.14	5040.05
971.30	5136.31
971.46	5132.21
971.63	4968.37
971.79	5101.49
971.95	4972.47
972.11	4900.79
972.28	4876.21
972.44	4925.36
972.60	4888.50
972.76	4990.90
972.93	4908.98
973.09	5029.81
973.25	4904.89
973.42	4966.32
973.58	5019.57
973.74	4935.60
973.90	4986.80
974.07	4841.40
974.23	4839.35
974.39	4935.60
974.55	4896.69
974.72	4831.16
974.88	4792.25
975.04	4753.34
975.20	4845.49
975.37	4884.41
975.53	4734.90
975.69	4730.81
975.85	4652.98
976.01	4657.08
976.18	4710.33
976.34	4726.71
976.50	4769.72
976.66	4827.06
976.83	4708.28
976.99	4747.19
977.15	4755.38
977.31	4632.51
977.47	4622.27
977.64	4755.38
977.80	4659.13
977.96	4593.59
978.12	4599.74
978.29	4609.98
978.45	4554.68
978.61	4538.30
978.77	4601.79
978.93	4483.00
979.10	4452.28
979.26	4526.01
979.42	4562.87
979.58	4503.48
979.74	4569.02
979.91	4575.16
980.07	4403.13
980.23	4521.92
980.39	4370.37
980.55	4401.08
980.71	4409.28
980.88	4333.50
981.04	4515.77
981.20	4493.24
981.36	4435.90
981.52	4431.80
981.68	4399.04
981.85	4437.95
982.01	4341.69
982.17	4304.83
982.33	4331.45
982.49	4405.18
982.65	4333.50
982.82	4403.13
982.98	4282.30
983.14	4200.38
983.30	4313.02
983.46	4304.83
983.62	4267.97
983.79	4300.73
983.95	4306.88
984.11	4286.40
984.27	4308.93
984.43	4163.52
984.59	4202.43
984.75	4329.41
984.91	4202.43
985.08	4190.14
985.24	3860.42
985.40	4136.90
985.56	4255.68
985.72	4126.66
985.88	4296.64
986.04	4059.07
986.20	4169.66
986.37	4075.46
986.53	3846.09
986.69	4175.81
986.85	3932.10
987.01	4063.17
987.17	4059.07
987.33	4030.40
987.49	4026.31
987.65	4032.45
987.82	4018.11
987.98	3989.44
988.14	4097.99
988.30	4057.03
988.46	3887.04
988.62	4089.79
988.78	3973.06
988.94	3932.10
989.10	3989.44
989.26	3821.51
989.42	3698.63
989.59	3680.20
989.75	3753.93
989.91	3813.32
990.07	3768.26
990.23	3796.93
990.39	3780.55
990.55	3901.38
990.71	3747.78
990.87	3905.48
991.03	3921.86
991.19	3663.82
991.35	3688.39
991.51	3801.03
991.67	3776.45
991.83	3729.35
992.00	3682.25
992.16	3702.73
992.32	3794.89
992.48	3780.55
992.64	3678.15
992.80	3690.44
992.96	3598.28
993.12	3622.86
993.28	3727.30
993.44	3698.63
993.60	3672.01
993.76	3764.17
993.92	3610.57
994.08	3657.67
994.24	3536.84
994.40	3688.39
994.56	3581.90
994.72	3616.71
994.88	3553.23
995.04	3571.66
995.20	3532.75
995.36	3559.37
995.52	3612.62
995.68	3524.55
995.84	3452.88
996.00	3682.25
996.16	3377.10
996.32	3452.88
996.48	3497.93
996.64	3518.41
996.80	3440.59
996.96	3559.37
997.12	3428.30
997.28	3440.59
997.44	3448.78
997.60	3420.11
997.76	3424.20
997.92	3420.11
998.08	3303.37
998.24	3264.46
998.40	3416.01
998.56	3442.64
998.72	3266.51
998.88	3389.39
999.04	3430.35
999.20	3428.30
999.36	3317.71
999.52	3477.45
999.68	3289.04
999.84	3385.29
1000.00	3395.53
1000.16	3362.76
1000.32	3270.61
1000.48	3407.82
1000.64	3215.31
1000.80	3303.37
1000.95	3143.63
1001.11	3270.61
1001.27	3248.08
1001.43	3225.55
1001.59	3137.49
1001.75	3139.54
1001.91	3123.15
1002.07	3176.40
1002.23	3094.48
1002.39	3112.91
1002.55	3176.40
1002.71	3067.86
1002.87	3102.67
1003.03	3096.53
1003.19	3149.78
1003.34	3131.34
1003.50	3180.50
1003.66	3071.95
1003.82	3235.79
1003.98	3067.86
1004.14	3168.21
1004.30	3080.14
1004.46	3018.71
1004.62	3127.25
1004.78	2998.23
1004.94	3092.43
1005.09	3067.86
1005.25	2971.60
1005.41	3000.27
1005.57	3061.71
1005.73	3055.57
1005.89	2920.40
1006.05	3043.28
1006.21	2985.94
1006.37	2940.88
1006.52	2979.79
1006.68	2854.87
1006.84	3059.67
1007.00	2990.03
1007.16	2944.98
1007.32	2793.43
1007.48	2926.55
1007.64	2901.97
1007.79	2844.63
1007.95	2824.15
1008.11	2949.08
1008.27	2922.45
1008.43	2840.53
1008.59	2828.24
1008.75	2936.79
1008.91	2844.63
1009.06	2754.52
1009.22	2803.67
1009.38	2875.35
1009.54	2783.19
1009.70	2858.96
1009.86	2858.96
1010.01	2877.40
1010.17	2676.70
1010.33	2834.39
1010.49	2850.77
1010.65	2719.70
1010.81	2740.18
1010.96	2805.72
1011.12	2736.09
1011.28	2727.89
1011.44	2715.61
1011.60	2779.09
1011.76	2686.94
1011.91	2807.77
1012.07	2559.96
1012.23	2611.16
1012.39	2564.06
1012.55	2760.66
1012.71	2578.39
1012.86	2674.65
1013.02	2688.98
1013.18	2641.88
1013.34	2645.98
1013.50	2727.89
1013.65	2631.64
1013.81	2627.54
1013.97	2613.21
1014.13	2537.43
1014.29	2619.35
1014.44	2678.74
1014.60	2574.30
1014.76	2543.58
1014.92	2592.73
1015.07	2707.41
1015.23	2625.50
1015.39	2590.68
1015.55	2512.86
1015.71	2445.27
1015.86	2508.76
1016.02	2551.77
1016.18	2506.71
1016.34	2510.81
1016.49	2482.14
1016.65	2547.67
1016.81	2543.58
1016.97	2486.23
1017.12	2645.98
1017.28	2453.47
1017.44	2285.53
1017.60	2512.86
1017.75	2469.85
1017.91	2457.56
1018.07	2459.61
1018.23	2367.45
1018.38	2385.88
1018.54	2467.80
1018.70	2424.80
1018.86	2488.28
1019.01	2389.98
1019.17	2469.85
1019.33	2453.47
1019.49	2498.52
1019.64	2394.08
1019.80	2424.80
1019.96	2355.16
1020.12	2514.91
1020.27	2303.96
1020.43	2361.31
1020.59	2400.22
1020.74	2379.74
1020.90	2359.26
1021.06	2355.16
1021.22	2295.77
1021.37	2373.60
1021.53	2297.82
1021.69	2322.40
1021.84	2226.14
1022.00	2293.72
1022.16	2254.81
1022.31	2408.41
1022.47	2406.36
1022.63	2396.12
1022.79	2201.57
1022.94	2273.25
1023.10	2410.46
1023.26	2183.13
1023.41	2232.29
1023.57	2299.87
1023.73	2303.96
1023.88	2336.73
1024.04	2242.53
1024.20	2254.81
1024.35	2289.63
1024.51	2250.72
1024.67	2291.68
1024.82	2269.15
1024.98	2224.09
1025.14	2252.77
1025.29	2170.85
1025.45	2379.74
1025.61	2195.42
1025.76	2226.14
1025.92	2181.09
1026.08	2213.85
1026.23	2289.63
1026.39	2246.62
1026.55	2131.94
1026.70	2160.61
1026.86	2150.37
1027.02	2269.15
1027.17	2166.75
1027.33	2215.90
1027.48	2146.27
1027.64	2152.42
1027.80	2158.56
1027.95	2183.13
1028.11	2039.78
1028.27	2166.75
1028.42	2181.09
1028.58	2133.98
1028.73	2078.69
1028.89	2080.74
1029.05	2168.80
1029.20	2129.89
>>>>>End Processed Spectral Data<<<<<
