SpectraSuite Data File
++++++++++++++++++++++++++++++++++++
Date: Fri Jun 02 14:52:30 CEST 2017
User: INFO_000
Dark Spectrum Present: No
Reference Spectrum Present: No
Number of Sampled Component Spectra: 1
Spectrometers: USB4H00879
Integration Time (usec): 80000 (USB4H00879)
Spectra Averaged: 1 (USB4H00879)
Boxcar Smoothing: 0 (USB4H00879)
Correct for Electrical Dark: No (USB4H00879)
Strobe/Lamp Enabled: No (USB4H00879)
Correct for Detector Non-linearity: No (USB4H00879)
Correct for Stray Light: No (USB4H00879)
Number of Pixels in Processed Spectrum: 3648
>>>>>Begin Processed Spectral Data<<<<<
345.13	1357.80
345.34	1357.80
345.56	1357.80
345.78	1267.69
345.99	1214.45
346.21	1748.97
346.42	1720.29
346.64	1681.38
346.86	1853.41
347.07	1626.09
347.29	1736.68
347.50	1591.27
347.72	1757.16
347.94	1728.49
348.15	1601.51
348.37	1626.09
348.59	1681.38
348.80	1648.61
349.02	1775.59
349.23	1808.36
349.45	1820.64
349.67	1849.32
349.88	1794.02
350.10	1949.67
350.31	1873.89
350.53	1818.60
350.75	1984.48
350.96	1734.63
351.18	1914.85
351.39	1820.64
351.61	1800.16
351.82	1918.95
352.04	1884.13
352.26	1787.88
352.47	1949.67
352.69	1910.75
352.90	1757.16
353.12	1802.21
353.34	1890.28
353.55	1888.23
353.77	1892.32
353.98	1816.55
354.20	1884.13
354.41	1906.66
354.63	1927.14
354.85	2062.30
355.06	1955.81
355.28	1720.29
355.49	1896.42
355.71	1935.33
355.92	1851.36
356.14	1970.15
356.35	1892.32
356.57	1871.84
356.79	1882.08
357.00	1923.04
357.22	1959.91
357.43	1855.46
357.65	2011.11
357.86	1894.37
358.08	1949.67
358.29	1978.34
358.51	1955.81
358.72	2086.88
358.94	1970.15
359.16	1841.12
359.37	2000.87
359.59	1972.19
359.80	1951.71
360.02	1959.91
360.23	1904.61
360.45	2027.49
360.66	1865.70
360.88	1925.09
361.09	1964.00
361.31	1968.10
361.52	1953.76
361.74	2029.54
361.95	2068.45
362.17	1939.43
362.38	1988.58
362.60	1980.39
362.81	2066.40
363.03	1871.84
363.24	1933.28
363.46	2043.87
363.67	2088.93
363.89	2011.11
364.10	1951.71
364.32	1994.72
364.53	2027.49
364.75	1957.86
364.96	2101.22
365.18	2086.88
365.39	1966.05
365.61	1896.42
365.82	2113.50
366.04	1994.72
366.25	1865.70
366.47	2101.22
366.68	2019.30
366.90	1904.61
367.11	2090.98
367.33	2090.98
367.54	2043.87
367.76	1984.48
367.97	2174.94
368.19	2058.21
368.40	2099.17
368.62	1957.86
368.83	1943.52
369.05	2068.45
369.26	1974.24
369.48	1943.52
369.69	2023.39
369.91	2068.45
370.12	2013.15
370.33	2183.13
370.55	1966.05
370.76	2074.59
370.98	2107.36
371.19	2066.40
371.41	2117.60
371.62	1992.67
371.84	2033.63
372.05	2144.22
372.27	2074.59
372.48	2142.18
372.69	2076.64
372.91	2121.70
373.12	2140.13
373.34	2082.78
373.55	2152.42
373.77	2074.59
373.98	2113.50
374.20	2166.75
374.41	2220.00
374.62	2189.28
374.84	2207.71
375.05	2111.46
375.27	2136.03
375.48	2133.98
375.70	2166.75
375.91	2201.57
376.12	2203.61
376.34	2117.60
376.55	2179.04
376.77	2113.50
376.98	2129.89
377.19	2129.89
377.41	2187.23
377.62	2138.08
377.84	2242.53
378.05	2291.68
378.27	2234.33
378.48	2297.82
378.69	2394.08
378.91	2332.64
379.12	2248.67
379.34	2263.01
379.55	2310.11
379.76	2189.28
379.98	2242.53
380.19	2336.73
380.41	2289.63
380.62	2283.49
380.83	2287.58
381.05	2207.71
381.26	2328.54
381.47	2215.90
381.69	2215.90
381.90	2471.90
382.12	2256.86
382.33	2306.01
382.54	2267.10
382.76	2346.97
382.97	2389.98
383.19	2242.53
383.40	2379.74
383.61	2332.64
383.83	2291.68
384.04	2385.88
384.25	2385.88
384.47	2365.40
384.68	2361.31
384.89	2306.01
385.11	2308.06
385.32	2387.93
385.54	2314.20
385.75	2275.29
385.96	2353.12
386.18	2480.09
386.39	2426.84
386.60	2265.05
386.82	2408.41
387.03	2416.60
387.24	2410.46
387.46	2449.37
387.67	2508.76
387.88	2459.61
388.10	2504.67
388.31	2457.56
388.52	2553.82
388.74	2531.29
388.95	2406.36
389.16	2435.03
389.38	2494.43
389.59	2568.15
389.80	2617.30
390.02	2596.82
390.23	2584.54
390.44	2545.63
390.66	2576.34
390.87	2555.86
391.08	2596.82
391.30	2613.21
391.51	2609.11
391.72	2662.36
391.94	2625.50
392.15	2576.34
392.36	2680.79
392.58	2641.88
392.79	2668.50
393.00	2641.88
393.22	2744.28
393.43	2731.99
393.64	2750.42
393.85	2777.05
394.07	2607.06
394.28	2723.80
394.49	2754.52
394.71	2805.72
394.92	2744.28
395.13	2764.76
395.35	2818.00
395.56	2670.55
395.77	2803.67
395.98	2904.02
396.20	2838.48
396.41	2858.96
396.62	2951.12
396.84	2803.67
397.05	2811.86
397.26	2973.65
397.47	2938.84
397.69	2805.72
397.90	2963.41
398.11	2969.55
398.32	2846.68
398.54	2785.24
398.75	2985.94
398.96	2922.45
399.18	3080.14
399.39	2944.98
399.60	3039.19
399.81	2889.68
400.03	2873.30
400.24	3299.28
400.45	3020.75
400.66	3114.96
400.88	3016.66
401.09	3190.74
401.30	2983.89
401.51	3121.10
401.73	3078.10
401.94	3170.26
402.15	3127.25
402.36	3155.92
402.58	3145.68
402.79	3274.70
403.00	3215.31
403.21	3135.44
403.43	3243.98
403.64	3192.78
403.85	3041.23
404.06	3205.07
404.27	3071.95
404.49	3196.88
404.70	3051.47
404.91	3350.48
405.12	3223.50
405.34	3274.70
405.55	3352.52
405.76	3180.50
405.97	3254.22
406.19	3338.19
406.40	3207.12
406.61	3278.80
406.82	3311.57
407.03	3297.23
407.25	3366.86
407.46	3313.61
407.67	3364.81
407.88	3340.24
408.09	3426.25
408.31	3407.82
408.52	3336.14
408.73	3338.19
408.94	3260.37
409.15	3422.16
409.37	3504.07
409.58	3569.61
409.79	3409.87
410.00	3565.51
410.21	3442.64
410.43	3407.82
410.64	3450.83
410.85	3571.66
411.06	3403.72
411.27	3602.38
411.48	3469.26
411.70	3518.41
411.91	3485.64
412.12	3542.99
412.33	3598.28
412.54	3559.37
412.76	3649.48
412.97	3633.10
413.18	3555.27
413.39	3573.71
413.60	3528.65
413.81	3624.90
414.03	3592.14
414.24	3690.44
414.45	3739.59
414.66	3575.75
414.87	3690.44
415.08	3672.01
415.30	3747.78
415.51	3829.70
415.72	3663.82
415.93	3684.30
416.14	3837.89
416.35	3729.35
416.56	3694.54
416.78	3803.08
416.99	3821.51
417.20	3731.40
417.41	3841.99
417.62	3780.55
417.83	3921.86
418.04	3831.75
418.26	4001.73
418.47	3850.18
418.68	3954.63
418.89	3850.18
419.10	4014.02
419.31	3950.53
419.52	4149.18
419.73	4026.31
419.95	4208.58
420.16	3846.09
420.37	3934.15
420.58	4028.35
420.79	3856.33
421.00	3987.40
421.21	4151.23
421.42	3989.44
421.63	4065.22
421.85	4130.75
422.06	4179.90
422.27	4140.99
422.48	4190.14
422.69	4181.95
422.90	4140.99
423.11	4214.72
423.32	4323.26
423.53	4478.91
423.75	4343.74
423.96	4417.47
424.17	4390.84
424.38	4546.49
424.59	4505.53
424.80	4583.35
425.01	4550.59
425.22	4458.43
425.43	4304.83
425.64	4636.60
425.85	4652.98
426.06	4515.77
426.28	4577.21
426.49	4511.68
426.70	4614.07
426.91	4622.27
427.12	4726.71
427.33	4695.99
427.54	4517.82
427.75	4753.34
427.96	4898.74
428.17	4585.40
428.38	4925.36
428.59	4865.97
428.80	4769.72
429.01	4822.97
429.23	4855.73
429.44	5115.83
429.65	4956.08
429.86	4874.17
430.07	4904.89
430.28	4945.84
430.49	4906.93
430.70	5226.42
430.91	5136.31
431.12	4988.85
431.33	5191.60
431.54	5312.43
431.75	5140.40
431.96	5128.11
432.17	5199.79
432.38	5050.29
432.59	5420.97
432.80	5328.81
433.01	5275.57
433.22	5365.68
433.43	5257.14
433.64	5316.53
433.85	5226.42
434.06	5439.40
434.27	5210.03
434.49	5312.43
434.70	5550.00
434.91	5506.99
435.12	5617.58
435.33	5423.02
435.54	5423.02
435.75	5343.15
435.96	5427.12
436.17	5343.15
436.38	5511.08
436.59	5617.58
436.80	5554.09
437.01	5805.99
437.22	5760.94
437.43	5685.16
437.64	5578.67
437.85	5922.73
438.06	5674.92
438.27	5654.44
438.48	5674.92
438.69	5781.42
438.90	5922.73
439.11	5654.44
439.32	5924.77
439.53	5930.92
439.74	5922.73
439.95	6014.88
440.16	5859.24
440.37	5834.66
440.57	5732.26
440.78	6135.71
440.99	5871.53
441.20	6023.08
441.41	5877.67
441.62	6033.32
441.83	5975.97
442.04	6021.03
442.25	5928.87
442.46	6080.42
442.67	6115.23
442.88	6395.81
443.09	6018.98
443.30	6152.10
443.51	6102.95
443.72	6309.79
443.93	6117.28
444.14	6428.57
444.35	6213.54
444.56	6340.51
444.77	6334.37
444.98	6295.46
445.19	6299.55
445.40	6432.67
445.61	6367.13
445.81	6610.84
446.02	6500.25
446.23	6305.70
446.44	6360.99
446.65	6424.48
446.86	6401.95
447.07	6545.31
447.28	6801.30
447.49	6555.55
447.70	6557.60
447.91	6635.42
448.12	6578.08
448.33	6600.60
448.54	6649.75
448.74	6696.86
448.95	6776.73
449.16	6662.04
449.37	6848.41
449.58	6678.43
449.79	7014.29
450.00	6657.95
450.21	6692.76
450.42	6879.13
450.63	7057.30
450.84	6989.72
451.05	6924.18
451.25	6991.77
451.46	6805.40
451.67	7155.60
451.88	7098.26
452.09	7233.43
452.30	7012.24
452.51	7143.32
452.72	7260.05
452.93	7579.53
453.13	7085.97
453.34	7171.99
453.55	7169.94
453.76	7184.27
453.97	7393.17
454.18	7337.87
454.39	7419.79
454.60	7360.40
454.81	7321.49
455.01	7669.64
455.22	7274.38
455.43	7620.49
455.64	7587.72
455.85	7788.43
456.06	7896.97
456.27	7581.58
456.48	7700.36
456.68	7624.59
456.89	7884.68
457.10	7856.01
457.31	7786.38
457.52	7835.53
457.73	7884.68
457.94	8130.44
458.14	7798.66
458.35	8195.97
458.56	8042.37
458.77	8085.38
458.98	8310.66
459.19	8042.37
459.39	8290.18
459.60	8327.04
459.81	8114.05
460.02	8445.82
460.23	8318.85
460.44	8585.08
460.65	8433.54
460.85	8650.62
461.06	8595.32
461.27	8290.18
461.48	8791.93
461.69	8791.93
461.89	8562.56
462.10	8570.75
462.31	8580.99
462.52	8673.15
462.73	8744.83
462.94	9232.24
463.14	8920.95
463.35	8765.31
463.56	9224.05
463.77	9033.59
463.98	8980.34
464.18	9068.41
464.39	9211.76
464.60	9340.79
464.81	9404.27
465.02	9308.02
465.23	9621.36
465.43	9617.26
465.64	9717.61
465.85	9615.21
466.06	9537.39
466.27	9936.74
466.47	9684.84
466.68	9971.56
466.89	9924.46
467.10	10088.29
467.30	9721.71
467.51	10063.72
467.72	10207.08
467.93	9899.88
468.14	10061.67
468.34	10368.87
468.55	10260.32
468.76	10262.37
468.97	10336.10
469.17	10311.52
469.38	10542.94
469.59	10798.94
469.80	10540.90
470.01	10635.10
470.21	10712.92
470.42	10919.77
470.63	10960.73
470.84	11038.55
471.04	11032.41
471.25	11005.78
471.46	11179.86
471.67	11501.39
471.87	11272.02
472.08	11442.00
472.29	11730.76
472.50	11310.93
472.70	11511.63
472.91	11478.86
473.12	11743.05
473.33	11929.42
473.53	11886.41
473.74	11960.14
473.95	11962.19
474.16	12253.00
474.36	11908.94
474.57	12308.29
474.78	12494.66
474.99	12513.09
475.19	12253.00
475.40	12666.69
475.61	12812.09
475.81	12838.72
476.02	13045.56
476.23	12994.36
476.44	12977.98
476.64	13195.06
476.85	13371.19
477.06	13379.38
477.27	13639.47
477.47	13836.08
477.68	13553.46
477.89	13784.88
478.09	13852.46
478.30	13918.00
478.51	14081.83
478.71	13952.81
478.92	13926.19
479.13	14219.05
479.34	14518.05
479.54	14409.51
479.75	14470.95
479.96	14634.78
480.16	14577.44
480.37	14853.92
480.58	15087.39
480.78	15363.86
480.99	15116.06
481.20	15281.94
481.41	15707.92
481.61	15490.84
481.82	15431.44
482.03	15523.60
482.23	15566.61
482.44	15830.80
482.65	15884.05
482.85	15988.49
483.06	16215.82
483.27	16256.78
483.47	16119.56
483.68	16303.88
483.89	16553.73
484.09	16381.70
484.30	16760.58
484.51	16934.65
484.71	16840.45
484.92	16903.93
485.13	17104.64
485.33	17204.99
485.54	17139.45
485.75	17325.82
485.95	17227.51
486.16	17585.91
486.37	17555.19
486.57	17741.55
486.78	17759.98
486.98	17864.43
487.19	18095.85
487.40	18120.43
487.60	18224.87
487.81	18292.46
488.02	18585.32
488.22	18370.28
488.43	18593.51
488.64	18521.83
488.84	18548.45
489.05	18876.13
489.25	18788.07
489.46	18986.72
489.67	18728.67
489.87	19105.50
490.08	19193.56
490.29	19328.73
490.49	19848.91
490.70	19697.36
490.90	19848.91
491.11	19754.71
491.32	19871.44
491.52	20129.48
491.73	20100.81
491.94	20100.81
492.14	20139.72
492.35	20332.23
492.55	20588.23
492.76	20442.82
492.97	20545.22
493.17	20338.38
493.38	20782.79
493.58	21028.54
493.79	21110.46
494.00	21100.22
494.20	21108.41
494.41	21262.01
494.61	21071.55
494.82	21352.12
495.02	21145.28
495.23	21405.37
495.44	21825.20
495.64	21739.19
495.85	21399.23
496.05	21642.93
496.26	21587.64
496.47	22167.21
496.67	21743.28
496.88	22247.08
497.08	22255.28
497.29	22492.84
497.49	22290.09
497.70	22742.69
497.91	22419.11
498.11	22765.22
498.32	22564.52
498.52	22849.19
498.73	22994.59
498.93	22802.08
499.14	22838.95
499.34	22988.45
499.55	23326.36
499.76	23152.29
499.96	23467.67
500.17	23328.41
500.37	23711.38
500.58	23418.52
500.78	23670.42
500.99	23703.19
501.19	23545.50
501.40	23746.20
501.60	23602.84
501.81	23793.30
502.02	24151.70
502.22	23967.38
502.43	24088.21
502.63	24286.86
502.84	24174.22
503.04	24299.15
503.25	24497.80
503.45	24575.62
503.66	24477.32
503.86	24348.30
504.07	24680.07
504.27	24462.99
504.48	24931.97
504.68	24897.16
504.89	25175.68
505.09	24718.98
505.30	24862.34
505.50	25020.03
505.71	25032.32
505.91	25155.20
506.12	25124.48
506.32	25069.19
506.53	25280.13
506.73	25265.79
506.94	25577.08
507.14	25319.04
507.35	25435.77
507.55	25777.78
507.76	25767.54
507.96	25765.49
508.17	25740.92
508.37	25798.26
508.58	25835.13
508.78	26009.20
508.99	25939.57
509.19	26281.58
509.40	26089.07
509.60	26015.35
509.81	26211.95
510.01	26072.69
510.22	26220.14
510.42	26156.66
510.63	26302.06
510.83	26187.38
511.04	26529.39
511.24	26334.83
511.44	26545.77
511.65	26654.31
511.85	26539.63
512.06	26678.89
512.26	26740.33
512.47	26621.55
512.67	26801.77
512.88	26775.14
513.08	26484.33
513.29	26959.46
513.49	26789.48
513.69	27307.62
513.90	26973.80
514.10	26920.55
514.31	27215.46
514.51	27381.34
514.72	26850.92
514.92	26971.75
515.13	27295.33
515.33	27479.64
515.53	27414.11
515.74	27231.84
515.94	27682.39
516.15	27862.61
516.35	27518.56
516.56	27801.18
516.76	27547.23
516.96	27747.93
517.17	27983.44
517.37	27766.36
517.58	27481.69
517.78	27858.52
517.99	27856.47
518.19	28061.27
518.39	28302.93
518.60	28182.10
518.80	28294.74
519.01	28163.67
519.21	28198.48
519.41	28163.67
519.62	28296.78
519.82	28706.38
520.03	28280.40
520.23	28614.22
520.43	28583.50
520.64	28614.22
520.84	28784.20
521.05	28712.52
521.25	28972.61
521.45	28864.07
521.66	29023.81
521.86	29322.82
522.07	29169.22
522.27	29228.61
522.47	29183.55
522.68	29650.49
522.88	29355.58
523.08	29351.49
523.29	29431.36
523.49	29695.55
523.70	29576.76
523.90	29730.36
524.10	29681.21
524.31	29941.30
524.51	29799.99
524.71	30162.48
524.92	30062.13
525.12	30398.00
525.33	29781.56
525.53	30180.92
525.73	30324.27
525.94	30291.51
526.14	30283.31
526.34	30594.61
526.55	30707.24
526.75	30590.51
526.95	30778.92
527.16	30869.03
527.36	30666.28
527.56	30993.96
527.77	31172.13
527.97	31348.26
528.17	31241.76
528.38	31086.12
528.58	31317.54
528.78	31184.42
528.99	31321.63
529.19	31987.22
529.39	31383.07
529.60	32069.14
529.80	31598.11
530.00	32048.66
530.21	32249.36
530.41	32343.57
530.61	31927.83
530.82	32036.38
531.02	32032.28
531.22	32247.32
531.43	32316.95
531.63	32566.80
531.83	32951.82
532.04	33105.41
532.24	32763.40
532.44	33312.26
532.64	33304.07
532.85	33187.33
533.05	33209.86
533.25	33506.82
533.46	33203.72
533.66	33617.41
533.86	33588.74
534.07	33771.00
534.27	33775.10
534.47	34117.11
534.67	34008.57
534.88	33994.23
535.08	34080.25
535.28	34229.75
535.49	34475.51
535.69	34577.90
535.89	34559.47
536.09	34326.00
536.30	34657.78
536.50	34764.27
536.70	34870.76
536.91	35032.55
537.11	35067.37
537.31	35298.79
537.51	35106.28
537.72	35208.68
537.92	35775.97
538.12	35855.84
538.32	35747.29
538.53	36017.63
538.73	35413.48
538.93	35833.31
539.13	35800.54
539.34	35597.79
539.54	35962.33
539.74	36404.69
539.94	36019.67
540.15	35827.17
540.35	36136.41
540.55	36304.34
540.75	36543.95
540.96	37094.86
541.16	36652.50
541.36	37150.15
541.56	36820.43
541.77	37268.94
541.97	36947.40
542.17	37166.54
542.37	37256.65
542.58	37414.34
542.78	37451.20
542.98	37455.30
543.18	37705.15
543.38	38049.21
543.59	37649.86
543.79	37647.81
543.99	37479.88
544.19	38073.79
544.40	37854.65
544.60	38362.55
544.80	37944.76
545.00	38280.63
545.20	38811.06
545.41	38772.14
545.61	38106.55
545.81	38806.96
546.01	38837.68
546.21	38679.99
546.42	38550.96
546.62	38600.12
546.82	38852.02
547.02	38706.61
547.22	39493.03
547.43	38999.47
547.63	39110.06
547.83	39386.54
548.03	39052.72
548.23	39316.90
548.44	39310.76
548.64	39366.06
548.84	39462.31
549.04	39151.02
549.24	39620.00
549.45	40246.68
549.65	39798.18
549.85	40125.85
550.05	40132.00
550.25	40246.68
550.45	40564.12
550.66	40537.49
550.86	40279.45
551.06	40623.51
551.26	40533.40
551.46	40510.87
551.66	40586.64
551.87	40193.43
552.07	40551.83
552.27	40666.52
552.47	41014.67
552.67	40756.63
552.87	41012.62
553.07	40889.74
553.28	40908.18
553.48	40955.28
553.68	41166.22
553.88	41393.54
554.08	41112.97
554.28	41272.71
554.48	40904.08
554.69	41502.09
554.89	41620.87
555.09	41522.57
555.29	41831.81
555.49	42233.21
555.69	41999.74
555.89	41858.43
556.10	42243.45
556.30	41772.42
556.50	41917.82
556.70	41745.80
556.90	42173.82
557.10	42536.31
557.30	41899.39
557.50	42435.96
557.70	42343.80
557.91	42499.45
558.11	42442.10
558.31	42800.50
558.51	42491.26
558.71	43005.30
558.91	42902.90
559.11	42532.22
559.31	42603.89
559.51	43105.65
559.72	42906.99
559.92	43414.89
560.12	42974.58
560.32	42829.17
560.52	43136.37
560.72	43171.18
560.92	43218.28
561.12	43191.66
561.32	43511.14
561.52	43382.12
561.72	43541.86
561.93	43019.63
562.13	43269.48
562.33	43464.04
562.53	44348.76
562.73	43816.29
562.93	43797.86
563.13	43900.26
563.33	43490.66
563.53	44250.46
563.73	43431.27
563.93	44098.91
564.13	44217.69
564.33	43969.89
564.53	44023.14
564.74	43988.32
564.94	43926.88
565.14	44049.76
565.34	44215.65
565.54	44514.65
565.74	44262.75
565.94	44744.02
566.14	44367.20
566.34	44176.73
566.54	44492.12
566.74	44268.89
566.94	44531.03
567.14	44590.42
567.34	44451.16
567.54	45104.46
567.74	44754.26
567.94	44782.93
568.14	44942.67
568.34	45151.57
568.54	44787.03
568.74	44772.69
568.94	45106.51
569.14	44762.45
569.34	45352.27
569.54	45024.59
569.75	44713.30
569.95	44885.33
570.15	45532.49
570.35	45233.49
570.55	45456.71
570.75	45374.80
570.95	45153.62
571.15	45667.66
571.35	45587.78
571.55	45727.05
571.75	45804.87
571.95	45956.42
572.15	45636.94
572.35	45878.60
572.55	45983.04
572.75	45604.17
572.95	45647.18
573.15	46218.56
573.35	46095.68
573.55	45978.95
573.75	45735.24
573.95	46423.36
574.15	45673.80
574.35	46349.63
574.55	46200.13
574.75	46548.28
574.95	46312.77
575.15	46245.18
575.34	46343.48
575.54	46654.78
575.74	46490.94
575.94	46763.32
576.14	46128.45
576.34	46796.09
576.54	46916.92
576.74	47035.70
576.94	47058.23
577.14	47127.86
577.34	46830.90
577.54	46886.20
577.74	47252.78
577.94	47322.41
578.14	46767.41
578.34	47111.47
578.54	47088.95
578.74	47430.96
578.94	47471.92
579.14	47355.18
579.34	47199.54
579.54	47207.73
579.74	47416.62
579.94	47797.54
580.13	47437.10
580.33	47654.18
580.53	47734.06
580.73	48129.31
580.93	47799.59
581.13	47519.02
581.33	47779.11
581.53	48008.48
581.73	48010.53
581.93	48223.52
582.13	48053.54
582.33	48260.38
582.53	48196.90
582.73	48270.62
582.92	48344.35
583.12	48387.36
583.32	48459.04
583.52	48114.98
583.72	48436.51
583.92	48395.55
584.12	48608.54
584.32	48854.29
584.52	48860.44
584.72	48588.06
584.92	48534.81
585.11	48999.70
585.31	48907.54
585.51	48416.03
585.71	48604.44
585.91	48893.21
586.11	49075.48
586.31	49089.81
586.51	48424.22
586.71	49190.16
586.91	49112.34
587.10	49239.31
587.30	49190.16
587.50	49296.66
587.70	49448.21
587.90	49560.84
588.10	49280.27
588.30	49571.08
588.50	49603.85
588.69	49655.05
588.89	49442.06
589.09	49267.98
589.29	49474.83
589.49	49571.08
589.69	49382.67
589.89	49489.16
590.08	49671.43
590.28	50052.36
590.48	49378.57
590.68	49487.12
590.88	49587.47
591.08	49837.32
591.28	49806.60
591.47	50144.51
591.67	49556.75
591.87	49878.28
592.07	50193.67
592.27	49749.26
592.47	49909.00
592.67	50107.65
592.86	49972.49
593.06	49937.67
593.26	50484.48
593.46	50236.67
593.66	50322.69
593.86	50515.20
594.05	50205.95
594.25	50715.90
594.45	50078.98
594.65	50025.73
594.85	50136.32
595.05	50722.04
595.24	50476.29
595.44	50386.18
595.64	50468.09
595.84	50322.69
596.04	50304.26
596.23	50613.50
596.43	50910.46
596.63	50572.54
596.83	50892.02
597.03	50945.27
597.22	51102.96
597.42	50795.77
597.62	50865.40
597.82	51139.83
598.02	51049.72
598.21	51129.59
598.41	50459.90
598.61	51074.29
598.81	51156.21
599.01	51098.87
599.20	51107.06
599.40	51047.67
599.60	51231.99
599.80	51391.73
600.00	51481.84
600.19	51272.95
600.39	51184.88
600.59	51371.25
600.79	51381.49
600.98	51457.26
601.18	51485.93
601.38	51786.99
601.58	51559.66
601.78	51637.48
601.97	51805.42
602.17	51981.54
602.37	51825.90
602.57	51743.98
602.76	52032.74
602.96	51832.04
603.16	52092.13
603.36	52352.23
603.55	52200.68
603.75	51987.69
603.95	52348.13
604.15	52397.28
604.34	52047.08
604.54	52147.43
604.74	52063.46
604.94	52034.79
605.13	52634.84
605.33	52413.66
605.53	52178.15
605.73	52700.38
605.92	52200.68
606.12	52890.84
606.32	52886.74
606.52	52706.52
606.71	52862.17
606.91	52475.10
607.11	52499.68
607.30	52937.94
607.50	52616.41
607.70	52870.36
607.90	52466.91
608.09	52901.08
608.29	52659.42
608.49	53204.18
608.68	52733.15
608.88	52901.08
609.08	52835.55
609.28	53122.26
609.47	52673.76
609.67	53216.47
609.87	53273.81
610.06	53122.26
610.26	52765.91
610.46	53095.64
610.66	53085.40
610.85	52952.28
611.05	53105.88
611.25	53400.79
611.44	52772.06
611.64	53001.43
611.84	52858.07
612.03	53085.40
612.23	52978.90
612.43	53507.28
612.62	53165.27
612.82	53120.21
613.02	53417.17
613.21	53128.41
613.41	53097.69
613.61	53069.01
613.80	52784.35
614.00	53128.41
614.20	53413.07
614.39	53136.60
614.59	53224.66
614.79	53368.02
614.98	52733.15
615.18	53175.51
615.38	53277.91
615.57	53245.14
615.77	53148.88
615.97	53130.45
616.16	53091.54
616.36	53085.40
616.56	53363.92
616.75	53064.92
616.95	53187.80
617.15	53093.59
617.34	53017.82
617.54	53239.00
617.74	53646.54
617.93	53597.39
618.13	53263.57
618.32	52899.03
618.52	53089.49
618.72	53173.46
618.91	53239.00
619.11	52993.24
619.31	52905.18
619.50	52950.23
619.70	52997.34
619.90	53232.85
620.09	53433.55
620.29	53294.29
620.48	53245.14
620.68	53390.55
620.88	53050.58
621.07	53232.85
621.27	53492.94
621.46	52853.98
621.66	53083.35
621.86	53286.10
622.05	53011.67
622.25	53390.55
622.44	53112.02
622.64	53003.48
622.84	52956.38
623.03	52935.90
623.23	53449.94
623.42	52841.69
623.62	53484.75
623.82	53687.50
624.01	53288.15
624.21	53447.89
624.40	52569.31
624.60	53085.40
624.80	52978.90
624.99	53333.20
625.19	52626.65
625.38	52989.14
625.58	53464.27
625.77	53195.99
625.97	52999.38
626.17	52999.38
626.36	53056.73
626.56	52792.54
626.75	52282.59
626.95	53388.50
627.14	53105.88
627.34	53540.05
627.54	53116.12
627.73	53083.35
627.93	53310.67
628.12	53173.46
628.32	53230.80
628.51	53322.96
628.71	52608.22
628.90	53062.87
629.10	53048.53
629.30	53112.02
629.49	53132.50
629.69	53531.86
629.88	52640.99
630.08	53198.04
630.27	53392.59
630.47	53591.25
630.66	53011.67
630.86	53445.84
631.05	52966.62
631.25	53400.79
631.44	53216.47
631.64	52987.10
631.84	53388.50
632.03	53978.31
632.23	53406.93
632.42	53462.22
632.62	53800.14
632.81	53193.94
633.01	53384.40
633.20	53466.32
633.40	53494.99
633.59	53433.55
633.79	53193.94
633.98	53316.82
634.18	53689.55
634.37	53916.87
634.57	53830.86
634.76	53503.18
634.96	53673.16
635.15	53759.18
635.35	53501.14
635.54	53230.80
635.74	53914.83
635.93	52935.90
636.13	54017.22
636.32	53974.22
636.52	53578.96
636.71	53499.09
636.91	53963.98
637.10	54029.51
637.30	53912.78
637.49	54009.03
637.69	53462.22
637.88	54125.77
638.08	53646.54
638.27	53705.93
638.46	53750.99
638.66	53497.04
638.85	53886.15
639.05	53794.00
639.24	54265.03
639.44	53683.40
639.63	54334.66
639.83	53892.30
640.02	53867.72
640.22	54049.99
640.41	54443.20
640.61	53669.07
640.80	54224.07
640.99	53939.40
641.19	54514.88
641.38	54469.82
641.58	54121.67
641.77	54332.61
641.97	53894.35
642.16	54664.38
642.36	54465.73
642.55	54686.91
642.74	54475.97
642.94	54838.46
643.13	54084.81
643.33	54441.15
643.52	54668.48
643.72	55033.02
643.91	54736.06
644.10	55033.02
644.30	54975.67
644.49	54596.80
644.69	54852.80
644.88	54539.46
645.08	54691.01
645.27	54768.83
645.46	54633.66
645.66	54613.18
645.85	54592.70
646.05	54695.10
646.24	54842.56
646.43	54725.82
646.63	55286.96
646.82	55432.37
647.02	55352.50
647.21	55192.76
647.40	54846.65
647.60	55264.44
647.79	54924.47
647.99	55504.05
648.18	54826.17
648.37	55801.00
648.57	55585.97
648.76	55315.64
648.96	55024.82
649.15	55256.24
649.34	55520.43
649.54	55714.99
649.73	55262.39
649.92	55377.08
650.12	55243.96
650.31	55422.13
650.51	55649.45
650.70	55745.71
650.89	55565.49
651.09	56222.89
651.28	55807.15
651.47	56120.49
651.67	55985.32
651.86	56145.06
652.06	55415.99
652.25	55975.08
652.44	55934.12
652.64	55735.47
652.83	55786.67
653.02	55915.69
653.22	55835.82
653.41	55866.54
653.60	55598.26
653.80	56161.45
653.99	56433.83
654.18	55940.27
654.38	55913.64
654.57	55897.26
654.76	56118.44
654.96	56054.95
655.15	56151.21
655.34	55923.88
655.54	55719.09
655.73	56366.24
655.92	56173.73
656.12	56431.78
656.31	55991.47
656.50	56161.45
656.70	56573.09
656.89	56054.95
657.08	56091.82
657.28	56130.73
657.47	56091.82
657.66	56693.92
657.86	56401.06
658.05	56632.48
658.24	56835.23
658.43	56112.30
658.63	56503.46
658.82	56313.00
659.01	56579.23
659.21	56530.08
659.40	56906.91
659.59	56558.75
659.79	56521.89
659.98	57037.98
660.17	57089.18
660.36	56319.14
660.56	57031.83
660.75	57267.35
660.94	56906.91
661.14	56829.08
661.33	56693.92
661.52	56581.28
661.71	56933.53
661.91	56378.53
662.10	56636.58
662.29	57054.36
662.49	56695.97
662.68	57132.18
662.87	57234.58
663.06	57015.45
663.26	57025.69
663.45	57072.79
663.64	57336.98
663.83	57322.65
664.03	57259.16
664.22	57513.11
664.41	56956.06
664.60	57107.61
664.80	57226.39
664.99	57511.06
665.18	57545.87
665.37	57005.21
665.57	57607.31
665.76	57261.21
665.95	57398.42
666.14	57027.74
666.34	57306.26
666.53	56917.15
666.72	57396.37
666.91	57007.26
667.11	57078.94
667.30	57201.82
667.49	56736.93
667.68	56986.78
667.87	57269.40
668.07	57535.63
668.26	57336.98
668.45	57369.75
668.64	56941.72
668.84	57816.21
669.03	57689.23
669.22	57078.94
669.41	57726.10
669.60	57259.16
669.80	57574.55
669.99	57805.97
670.18	57484.43
670.37	57523.35
670.57	58018.95
670.76	57203.86
670.95	57703.57
671.14	57203.86
671.33	57398.42
671.53	57566.35
671.72	57832.59
671.91	57377.94
672.10	57359.51
672.29	57574.55
672.48	57488.53
672.68	57808.01
672.87	57250.97
673.06	57795.73
673.25	57246.87
673.44	57285.78
673.64	57068.70
673.83	57119.90
674.02	57492.63
674.21	56874.14
674.40	57103.51
674.59	57003.16
674.79	57259.16
674.98	57388.18
675.17	57683.09
675.36	57347.22
675.55	57597.07
675.74	57201.82
675.94	57269.40
676.13	57572.50
676.32	57916.56
676.51	58014.86
676.70	57648.27
676.89	57529.49
677.08	57934.99
677.28	57511.06
677.47	57863.31
677.66	57828.49
677.85	57558.16
678.04	57889.93
678.23	57758.86
678.42	57554.07
678.62	57275.54
678.81	57701.52
679.00	57670.80
679.19	57971.85
679.38	57404.56
679.57	57316.50
679.76	57945.23
679.96	57459.86
680.15	57412.76
680.34	57269.40
680.53	57472.15
680.72	57304.21
680.91	57803.92
681.10	57134.23
681.29	57488.53
681.48	57592.98
681.68	57126.04
681.87	57375.89
682.06	57529.49
682.25	56839.32
682.44	57435.28
682.63	57367.70
682.82	56997.02
683.01	57146.52
683.20	57095.32
683.39	56937.63
683.59	56525.99
683.78	57121.94
683.97	56937.63
684.16	56935.58
684.35	57214.10
684.54	56837.28
684.73	57056.41
684.92	56865.95
685.11	56693.92
685.30	56872.09
685.49	57156.76
685.69	56788.13
685.88	56974.49
686.07	57037.98
686.26	56859.80
686.45	56868.00
686.64	56755.36
686.83	56698.01
687.02	57007.26
687.21	56908.96
687.40	56855.71
687.59	56902.81
687.78	56769.69
687.97	57181.34
688.16	56992.92
688.35	56673.44
688.54	56497.31
688.74	56458.40
688.93	56798.37
689.12	56915.10
689.31	56399.01
689.50	56741.02
689.69	56245.41
689.88	56116.39
690.07	56622.24
690.26	56450.21
690.45	56812.70
690.64	56636.58
690.83	56296.61
691.02	56226.98
691.21	55854.25
691.40	56050.86
691.59	55973.03
691.78	56126.63
691.97	56415.40
692.16	56308.90
692.35	56736.93
692.54	56116.39
692.73	56890.52
692.92	55907.50
693.11	56196.26
693.30	56308.90
693.49	55678.13
693.68	55882.92
693.87	56095.91
694.06	55784.62
694.25	55997.61
694.44	55508.14
694.63	55825.58
694.82	56059.05
695.01	55876.78
695.20	55852.20
695.39	55725.23
695.58	55755.95
695.77	55364.79
695.96	55626.93
696.15	55706.80
696.34	55454.90
696.53	55485.62
696.72	55970.99
696.91	55215.29
697.10	55645.36
697.29	55276.72
697.48	56016.04
697.67	54828.22
697.86	55704.75
698.05	55069.88
698.24	55837.87
698.43	55090.36
698.62	55450.80
698.81	55071.93
699.00	55426.23
699.19	54809.79
699.38	55207.09
699.57	54525.12
699.76	55725.23
699.95	55039.16
700.14	55123.13
700.32	55043.26
700.51	54932.67
700.70	54506.69
700.89	55065.78
701.08	55067.83
701.27	54725.82
701.46	54883.51
701.65	54285.51
701.84	54809.79
702.03	54682.81
702.22	54412.48
702.41	54445.25
702.60	54416.58
702.79	54193.35
702.98	54555.84
703.17	54480.06
703.35	54049.99
703.54	54164.68
703.73	54371.52
703.92	54099.14
704.11	54330.56
704.30	53976.26
704.49	53892.30
704.68	53396.69
704.87	54195.40
705.06	53832.91
705.25	53503.18
705.43	53411.02
705.62	53974.22
705.81	53408.98
706.00	53976.26
706.19	53486.80
706.38	53677.26
706.57	53609.68
706.76	53318.87
706.95	53761.23
707.14	53486.80
707.32	53540.05
707.51	53216.47
707.70	53386.45
707.89	53445.84
708.08	53208.28
708.27	53470.42
708.46	53714.12
708.65	53357.78
708.84	53380.31
709.02	53318.87
709.21	53083.35
709.40	52983.00
709.59	53451.98
709.78	52767.96
709.97	53200.08
710.16	52917.46
710.34	53077.21
710.53	53089.49
710.72	52444.38
710.91	52933.85
711.10	53042.39
711.29	53343.44
711.48	52804.83
711.66	52106.47
711.85	52815.07
712.04	52475.10
712.23	52749.53
712.42	52561.12
712.61	52825.31
712.80	52270.31
712.98	52407.52
713.17	52307.17
713.36	51999.97
713.55	52389.09
713.74	52045.03
713.93	51758.31
714.11	51864.81
714.30	51811.56
714.49	51887.34
714.68	52198.63
714.87	51961.06
715.06	51991.78
715.24	51942.63
715.43	51608.81
715.62	51606.76
715.81	51547.37
716.00	51918.06
716.18	51420.40
716.37	51346.67
716.56	51064.05
716.75	51795.18
716.94	51393.78
717.12	51035.38
717.31	51617.00
717.50	51526.89
717.69	51367.15
717.88	51000.57
718.06	50838.78
718.25	51225.84
718.44	50967.80
718.63	51000.57
718.82	50464.00
719.00	51057.91
719.19	50562.30
719.38	50763.00
719.57	50197.76
719.76	50205.95
719.94	49878.28
720.13	50470.14
720.32	49976.58
720.51	50175.23
720.69	50144.51
720.88	50142.47
721.07	50142.47
721.26	49919.24
721.44	49788.17
721.63	49581.32
721.82	49718.54
722.01	49634.57
722.20	49755.40
722.38	49261.84
722.57	48928.02
722.76	49257.74
722.95	49411.34
723.13	49235.22
723.32	49063.19
723.51	48819.48
723.70	48803.10
723.88	49204.50
724.07	49077.52
724.26	49157.39
724.44	48602.39
724.63	49136.91
724.82	48989.46
725.01	48676.12
725.19	48991.51
725.38	48661.79
725.57	48469.28
725.76	48813.34
725.94	48125.22
726.13	48749.85
726.32	48604.44
726.51	47971.62
726.69	48475.42
726.88	47901.99
727.07	48301.34
727.25	48276.77
727.44	48301.34
727.63	47699.24
727.82	47953.19
728.00	47846.69
728.19	47768.87
728.38	48282.91
728.56	47576.36
728.75	48416.03
728.94	47598.89
729.12	47959.33
729.31	48278.82
729.50	47762.73
729.69	47897.89
729.87	47965.48
730.06	47725.86
730.25	48031.01
730.43	47977.76
730.62	48037.16
730.81	47834.41
730.99	47740.20
731.18	47908.13
731.37	47930.66
731.55	48006.44
731.74	48203.04
731.93	47957.28
732.11	47471.92
732.30	47658.28
732.49	47447.34
732.67	47596.84
732.86	47709.48
733.05	47428.91
733.23	47334.70
733.42	47691.05
733.61	47260.97
733.79	47316.27
733.98	47770.92
734.17	47547.69
734.35	47166.77
734.54	47476.01
734.73	47979.81
734.91	47625.51
735.10	47162.67
735.29	47940.90
735.47	47015.22
735.66	47363.37
735.84	46943.54
736.03	47045.94
736.22	47289.65
736.40	46587.19
736.59	47361.33
736.78	46841.14
736.96	46507.32
737.15	46714.17
737.33	46779.70
737.52	46849.33
737.71	46470.46
737.89	46579.00
738.08	46742.84
738.27	46439.74
738.45	46630.20
738.64	47041.84
738.82	46748.98
739.01	46740.79
739.20	46660.92
739.38	46462.27
739.57	46781.75
739.75	46581.05
739.94	46452.03
740.13	46642.49
740.31	46441.79
740.50	46349.63
740.68	46925.11
740.87	46699.83
741.06	46366.01
741.24	46093.63
741.43	46400.83
741.61	45878.60
741.80	46296.38
741.99	45827.40
742.17	45847.88
742.36	46073.15
742.54	45612.36
742.73	46118.21
742.91	46157.12
743.10	45561.16
743.29	45948.23
743.47	45923.65
743.66	45819.20
743.84	46116.16
744.03	46150.98
744.21	45567.30
744.40	46232.89
744.59	45849.92
744.77	45380.94
744.96	45485.39
745.14	45847.88
745.33	46101.82
745.51	45686.09
745.70	45655.37
745.88	45372.75
746.07	45501.77
746.26	44920.15
746.44	45503.82
746.63	45505.87
746.81	45495.63
747.00	44928.34
747.18	45520.20
747.37	45219.15
747.55	45010.26
747.74	45722.95
747.92	44686.68
748.11	44987.73
748.29	45272.40
748.48	45239.63
748.66	44899.67
748.85	45153.62
749.03	45043.02
749.22	45479.24
749.41	44459.35
749.59	44914.00
749.78	44569.94
749.96	44221.79
750.15	44500.31
750.33	44701.01
750.52	44332.38
750.70	44397.91
750.89	44414.30
751.07	44258.65
751.26	44264.80
751.44	44189.02
751.63	43978.08
751.81	44143.97
752.00	44115.29
752.18	44199.26
752.37	43971.94
752.55	43754.85
752.74	43896.16
752.92	44080.48
753.10	43750.76
753.29	43906.40
753.47	43855.20
753.66	43781.48
753.84	43924.83
754.03	43658.60
754.21	43390.31
754.40	44053.86
754.58	44021.09
754.77	43808.10
754.95	43173.23
755.14	43586.92
755.32	43390.31
755.51	43206.00
755.69	43189.61
755.88	43156.85
756.06	43509.10
756.24	43056.50
756.43	43113.84
756.61	43357.55
756.80	43093.36
756.98	43113.84
757.17	43371.88
757.35	43429.23
757.54	43132.27
757.72	43181.42
757.90	43109.74
758.09	42894.71
758.27	43142.51
758.46	42816.88
758.64	43152.75
758.83	42997.10
759.01	42970.48
759.19	42782.07
759.38	42933.62
759.56	43101.55
759.75	42569.08
759.93	42546.55
760.12	42732.92
760.30	42759.54
760.48	42526.07
760.67	42614.13
760.85	42601.85
761.04	42962.29
761.22	42532.22
761.40	42456.44
761.59	42538.36
761.77	41856.39
761.96	42454.39
762.14	42349.95
762.32	41577.86
762.51	41840.00
762.69	41743.75
762.88	41977.22
763.06	42071.42
763.24	41891.20
763.43	42321.27
763.61	41780.61
763.80	42063.23
763.98	41962.88
764.16	41694.60
764.35	41821.57
764.53	41534.85
764.72	41485.70
764.90	41653.64
765.08	41594.25
765.27	41379.21
765.45	41115.02
765.63	41280.91
765.82	41522.57
766.00	41090.44
766.18	41207.18
766.37	41559.43
766.55	41397.64
766.74	41487.75
766.92	40957.33
767.10	41246.09
767.29	41336.20
767.47	40877.46
767.65	41399.69
767.84	40766.87
768.02	41059.73
768.20	40760.72
768.39	40830.35
768.57	40830.35
768.75	40672.66
768.94	41090.44
769.12	40705.43
769.30	40541.59
769.49	40584.60
769.67	40287.64
769.85	40215.96
770.04	40629.65
770.22	40103.32
770.40	40344.98
770.59	40060.32
770.77	40400.28
770.95	40465.81
771.14	40048.03
771.32	39474.60
771.50	39712.16
771.69	40193.43
771.87	40056.22
772.05	40019.36
772.24	39679.39
772.42	39650.72
772.60	39888.29
772.78	39927.20
772.97	39318.95
773.15	39794.08
773.33	39691.68
773.52	39409.06
773.70	39980.45
773.88	39736.74
774.07	39734.69
774.25	39673.25
774.43	39663.01
774.61	39708.07
774.80	39949.73
774.98	39478.69
775.16	39634.34
775.34	39890.34
775.53	39450.02
775.71	39755.17
775.89	39824.80
776.08	39943.58
776.26	39886.24
776.44	39873.95
776.62	39746.98
776.81	39841.18
776.99	39859.62
777.17	39726.50
777.35	40002.97
777.54	40283.55
777.72	39910.82
777.90	39781.79
778.08	39982.49
778.27	39998.88
778.45	40179.10
778.63	40189.34
778.81	39757.22
779.00	40232.35
779.18	40336.79
779.36	40555.93
779.54	40338.84
779.73	40189.34
779.91	40340.89
780.09	40529.30
780.27	40723.86
780.46	40478.10
780.64	40494.49
780.82	40414.62
781.00	40576.40
781.19	40650.13
781.37	40605.08
781.55	40605.08
781.73	40893.84
781.91	40660.37
782.10	40265.11
782.28	40674.71
782.46	40820.11
782.64	40973.71
782.82	40668.56
783.01	40809.87
783.19	40934.80
783.37	40654.23
783.55	40781.20
783.74	41031.05
783.92	40721.81
784.10	41162.12
784.28	41178.51
784.46	40639.89
784.64	40789.39
784.83	40613.27
785.01	40930.70
785.19	40875.41
785.37	41110.92
785.55	40879.50
785.74	40527.25
785.92	40357.27
786.10	40938.90
786.28	40846.74
786.46	40633.75
786.64	40402.33
786.83	40947.09
787.01	40949.14
787.19	40422.81
787.37	40713.62
787.55	40738.19
787.74	40209.82
787.92	40314.26
788.10	40584.60
788.28	40132.00
788.46	40723.86
788.64	40353.18
788.82	40609.17
789.01	40570.26
789.19	40308.12
789.37	40334.74
789.55	40318.36
789.73	40080.80
789.91	40236.44
790.09	39699.87
790.28	39992.73
790.46	39493.03
790.64	40195.48
790.82	39740.83
791.00	39724.45
791.18	39343.53
791.36	39642.53
791.55	40072.60
791.73	39572.90
791.91	39138.73
792.09	39423.40
792.27	39450.02
792.45	39384.49
792.63	39220.65
792.81	38749.62
793.00	39169.45
793.18	38995.37
793.36	38743.47
793.54	38827.44
793.72	38722.99
793.90	38624.69
794.08	38925.74
794.26	38725.04
794.44	38094.27
794.62	38503.86
794.81	38467.00
794.99	38591.92
795.17	38434.23
795.35	38684.08
795.53	38178.23
795.71	38321.59
795.89	37688.77
796.07	37803.46
796.25	37563.84
796.43	37774.78
796.61	37248.46
796.80	37379.53
796.98	37756.35
797.16	37279.18
797.34	37193.16
797.52	37203.40
797.70	37170.63
797.88	37115.34
798.06	37066.19
798.24	37338.57
798.42	37060.04
798.60	36584.91
798.78	36906.44
798.96	37207.50
799.14	36713.94
799.32	36480.47
799.51	36300.25
799.69	36386.26
799.87	36783.57
800.05	36189.66
800.23	36543.95
800.41	36261.33
800.59	36394.45
800.77	35878.36
800.95	35735.01
801.13	36175.32
801.31	35886.56
801.49	35534.31
801.67	35796.45
801.85	35833.31
802.03	35710.43
802.21	35069.42
802.39	35573.22
802.57	35438.05
802.75	35386.85
802.93	35268.07
803.11	34768.37
803.29	34668.02
803.47	34938.35
803.65	34579.95
803.83	34819.56
804.01	34817.52
804.19	34502.13
804.37	34538.99
804.55	34250.23
804.73	34446.83
804.91	34344.44
805.09	34641.39
805.27	34377.20
805.45	34485.75
805.63	34100.73
805.81	33846.78
805.99	34158.07
806.17	34309.62
806.35	33891.83
806.53	33957.37
806.71	33979.90
806.89	33834.49
807.07	33842.68
807.25	34104.82
807.43	33570.30
807.61	33750.52
807.79	33637.89
807.97	33230.34
808.15	33611.26
808.33	33197.57
808.51	33205.77
808.69	33213.96
808.87	33211.91
809.05	32998.92
809.23	32980.49
809.41	32796.17
809.59	32456.21
809.77	32964.10
809.95	32685.58
810.13	32953.87
810.31	32521.74
810.49	32759.31
810.67	32601.61
810.84	32364.05
811.02	32390.67
811.20	31981.08
811.38	32441.87
811.56	31976.98
811.74	31948.31
811.92	31825.43
812.10	32032.28
812.28	32085.53
812.46	31950.36
812.64	32142.87
812.82	31936.02
813.00	31972.89
813.18	31929.88
813.36	31821.34
813.53	31747.61
813.71	31487.52
813.89	31815.19
814.07	31702.56
814.25	31653.40
814.43	31340.07
814.61	31295.01
814.79	31346.21
814.97	31180.32
815.15	31172.13
815.33	31118.89
815.50	30918.18
815.68	31008.29
815.86	31288.87
816.04	30793.26
816.22	31018.53
816.40	30926.38
816.58	30676.52
816.76	30512.69
816.94	31024.68
817.11	30926.38
817.29	30727.72
817.47	30271.03
817.65	30780.97
817.83	30420.53
818.01	30539.31
818.19	30610.99
818.37	30320.18
818.54	30064.18
818.72	30320.18
818.90	30273.07
819.08	29853.24
819.26	30062.13
819.44	29795.90
819.62	29881.91
819.80	29838.90
819.97	30139.96
820.15	29810.23
820.33	29711.93
820.51	29820.47
820.69	29216.32
820.87	29767.23
821.05	30096.95
821.22	29664.83
821.40	29720.12
821.58	29515.33
821.76	29560.38
821.94	29369.92
822.12	29371.97
822.29	29660.73
822.47	29097.54
822.65	29531.71
822.83	29423.17
823.01	29212.23
823.19	29218.37
823.36	28825.16
823.54	28638.80
823.72	28927.56
823.90	29107.78
824.08	29052.48
824.25	28921.41
824.43	28745.29
824.61	28868.17
824.79	29146.69
824.97	28661.32
825.15	28935.75
825.32	28620.36
825.50	28563.02
825.68	28556.88
825.86	28597.84
826.04	28790.34
826.21	28558.92
826.39	28532.30
826.57	28210.77
826.75	28325.46
826.93	28350.03
827.10	28522.06
827.28	28188.24
827.46	28372.56
827.64	28257.87
827.81	28173.91
827.99	28431.95
828.17	27688.54
828.35	27790.94
828.53	28044.88
828.70	27917.91
828.88	27879.00
829.06	27940.44
829.24	27891.29
829.41	27852.38
829.59	28118.61
829.77	27997.78
829.95	27512.41
830.12	27637.34
830.30	27752.02
830.48	27993.68
830.66	27649.63
830.84	27717.21
831.01	27344.48
831.19	27788.89
831.37	27403.87
831.55	27233.89
831.72	27194.98
831.90	27625.05
832.08	27328.10
832.25	27313.76
832.43	27549.28
832.61	27102.82
832.79	27061.86
832.96	26889.83
833.14	27139.68
833.32	26883.69
833.50	27334.24
833.67	26709.61
833.85	26820.20
834.03	26852.97
834.20	26820.20
834.38	26941.03
834.56	27268.70
834.74	26558.06
834.91	26678.89
835.09	26779.24
835.27	26424.94
835.44	26459.76
835.62	25994.87
835.80	26437.23
835.98	26736.23
836.15	26084.98
836.33	26635.88
836.51	26535.53
836.68	26332.78
836.86	26269.30
837.04	26388.08
837.21	26328.69
837.39	26390.13
837.57	26429.04
837.75	26525.29
837.92	26103.41
838.10	26009.20
838.28	25767.54
838.45	26207.86
838.63	25974.39
838.81	25806.45
838.98	26220.14
839.16	26035.83
839.34	25689.72
839.51	25685.62
839.69	25785.97
839.87	25509.50
840.04	25769.59
840.22	26320.49
840.40	25646.71
840.57	25353.85
840.75	25372.28
840.93	25300.61
841.10	25593.47
841.28	25802.36
841.46	25589.37
841.63	25910.90
841.81	25548.41
841.98	25466.49
842.16	25659.00
842.34	25468.54
842.51	25335.42
842.69	25548.41
842.87	25159.30
843.04	25450.11
843.22	25370.24
843.40	25071.23
843.57	24862.34
843.75	25144.96
843.92	25020.03
844.10	25093.76
844.28	25144.96
844.45	25013.89
844.63	25022.08
844.81	24794.76
844.98	25114.24
845.16	25167.49
845.33	24850.05
845.51	24870.53
845.69	24723.08
845.86	24503.95
846.04	24675.98
846.21	24884.87
846.39	24518.28
846.57	24389.26
846.74	24749.70
846.92	24540.81
847.09	24542.86
847.27	24123.02
847.45	24411.79
847.62	24706.70
847.80	24608.39
847.97	24239.76
848.15	24481.42
848.32	24131.22
848.50	24293.01
848.68	23924.37
848.85	24278.67
849.03	24120.98
849.20	23977.62
849.38	24118.93
849.56	23830.16
849.73	24080.02
849.91	24206.99
850.08	24006.29
850.26	23774.87
850.43	24110.74
850.61	23758.49
850.78	23637.66
850.96	23752.34
851.14	23412.38
851.31	23897.75
851.49	23627.42
851.66	23881.36
851.84	23766.68
852.01	23629.46
852.19	23787.16
852.36	23344.80
852.54	23484.06
852.71	23529.11
852.89	23490.20
853.07	23535.26
853.24	23549.59
853.42	23496.35
853.59	23756.44
853.77	23428.76
853.94	23471.77
854.12	23543.45
854.29	23049.89
854.47	23226.01
854.64	23236.25
854.82	23213.73
854.99	23125.66
855.17	23244.45
855.34	23064.22
855.52	23148.19
855.69	23172.77
855.87	22974.11
856.04	22824.61
856.22	22836.90
856.39	22775.46
856.57	22869.67
856.74	22890.15
856.92	22783.65
857.09	22460.07
857.27	22875.81
857.44	22849.19
857.62	22652.58
857.79	22687.40
857.97	22482.60
858.14	23027.36
858.32	22427.31
858.49	22650.53
858.67	22619.81
858.84	22529.70
859.02	22154.93
859.19	22384.30
859.37	22204.08
859.54	22220.46
859.72	22318.76
859.89	22320.81
860.06	22277.80
860.24	22128.30
860.41	22288.04
860.59	22128.30
860.76	22175.41
860.94	22034.10
861.11	22195.89
861.29	22208.17
861.46	21933.75
861.64	21825.20
861.81	21898.93
861.98	21886.64
862.16	21954.22
862.33	21440.18
862.51	21657.27
862.68	22288.04
862.86	21663.41
863.03	21591.73
863.21	21792.44
863.38	21608.12
863.55	21518.01
863.73	21548.73
863.90	21741.24
864.08	21522.10
864.25	21524.15
864.43	21505.72
864.60	21393.08
864.77	21149.37
864.95	21298.88
865.12	20963.01
865.30	21337.79
865.47	21102.27
865.64	21210.81
865.82	21425.85
865.99	21161.66
866.17	20989.63
866.34	21188.28
866.51	20930.24
866.69	21331.64
866.86	21055.17
867.04	21137.09
867.21	21044.93
867.38	20926.14
867.56	20817.60
867.73	20782.79
867.91	20637.38
868.08	20707.01
868.25	20502.22
868.43	20530.89
868.60	20369.10
868.78	20508.36
868.95	20582.09
869.12	20315.85
869.30	20500.17
869.47	20387.53
869.64	20164.30
869.82	20469.45
869.99	20248.27
870.16	20569.80
870.34	20637.38
870.51	20842.18
870.69	20211.40
870.86	20530.89
871.03	20248.27
871.21	20309.71
871.38	20158.16
871.55	20029.13
871.73	19816.15
871.90	19787.47
872.07	19656.40
872.25	19949.26
872.42	19689.17
872.59	19709.65
872.77	19838.67
872.94	19717.84
873.11	19644.12
873.29	19664.60
873.46	19670.74
873.63	19717.84
873.81	19781.33
873.98	19295.96
874.15	19062.49
874.33	19306.20
874.50	18931.42
874.67	19365.59
874.85	19306.20
875.02	19220.19
875.19	19044.06
875.37	19078.88
875.54	18962.14
875.71	19185.37
875.88	18898.66
876.06	18970.33
876.23	18880.22
876.40	18859.74
876.58	18855.65
876.75	18745.06
876.92	18622.18
877.10	18675.43
877.27	18589.41
877.44	18661.09
877.61	18638.56
877.79	18900.70
877.96	18423.53
878.13	18583.27
878.31	18226.92
878.48	18337.51
878.65	18339.56
878.82	18222.83
879.00	18196.20
879.17	18296.55
879.34	18364.14
879.51	18206.44
879.69	18091.76
879.86	18163.43
880.03	18128.62
880.21	18132.72
880.38	18073.32
880.55	17886.96
880.72	17649.39
880.90	17759.98
881.07	17766.13
881.24	17766.13
881.41	17850.10
881.59	17776.37
881.76	17704.69
881.93	17852.14
882.10	17325.82
882.28	17643.25
882.45	17772.27
882.62	17534.71
882.79	17751.79
882.96	17075.96
883.14	17581.81
883.31	17518.32
883.48	17207.03
883.65	17700.59
883.83	17671.92
884.00	17657.59
884.17	17536.76
884.34	17473.27
884.51	17221.37
884.69	17549.04
884.86	17157.88
885.03	17497.84
885.20	17075.96
885.38	17469.17
885.55	16977.66
885.72	17323.77
885.89	17108.73
886.06	17215.23
886.24	17374.97
886.41	17225.47
886.58	17299.19
886.75	17231.61
886.92	16908.03
887.10	16985.85
887.27	16953.09
887.44	16715.52
887.61	17065.72
887.78	17071.87
887.95	17141.50
888.13	16781.06
888.30	16709.38
888.47	16889.60
888.64	16692.99
888.81	16871.17
888.99	16619.27
889.16	16713.47
889.33	16576.26
889.50	16402.18
889.67	16574.21
889.84	16576.26
890.01	16412.42
890.19	16299.78
890.36	16441.09
890.53	16320.26
890.70	16316.17
890.87	16289.54
891.04	16375.56
891.22	16045.84
891.39	16162.57
891.56	16273.16
891.73	16121.61
891.90	16131.85
892.07	16056.08
892.24	16121.61
892.42	15914.77
892.59	15890.19
892.76	15955.72
892.93	15947.53
893.10	15922.96
893.27	15746.83
893.44	15755.02
893.61	15857.42
893.79	16017.16
893.96	15800.08
894.13	15902.48
894.30	15787.79
894.47	15927.05
894.64	15902.48
894.81	15779.60
894.98	15906.57
895.15	15851.28
895.33	15654.67
895.50	15761.17
895.67	15965.96
895.84	15828.75
896.01	15851.28
896.18	15564.56
896.35	16035.60
896.52	15689.49
896.69	15679.25
896.86	15544.08
897.04	15740.69
897.21	15515.41
897.38	15568.66
897.55	15503.12
897.72	15537.94
897.89	15576.85
898.06	15519.51
898.23	15709.97
898.40	15171.35
898.57	15580.95
898.74	15277.85
898.91	15617.81
899.08	15382.29
899.26	15413.01
899.43	15431.44
899.60	15333.14
899.77	15370.01
899.94	15474.45
900.11	15324.95
900.28	15359.77
900.45	15376.15
900.62	15410.96
900.79	15474.45
900.96	15470.36
901.13	15171.35
901.30	15343.38
901.47	15363.86
901.64	15445.78
901.81	15544.08
901.98	15251.22
902.15	15374.10
902.32	15324.95
902.49	15443.73
902.66	15494.93
902.83	15329.05
903.01	15249.18
903.18	15435.54
903.35	15372.05
903.52	15224.60
903.69	15208.22
903.86	15435.54
904.03	15609.62
904.20	15253.27
904.37	15310.61
904.54	15370.01
904.71	15163.16
904.88	15357.72
905.05	15306.52
905.22	15212.31
905.39	15103.77
905.56	15378.20
905.73	14962.46
905.90	15148.82
906.07	15419.16
906.24	15234.84
906.41	15308.57
906.58	15482.64
906.75	15157.02
906.92	14954.27
907.09	15202.07
907.26	15296.28
907.43	15132.44
907.60	15318.81
907.77	15238.94
907.93	15165.21
908.10	15126.30
908.27	15265.56
908.44	15044.38
908.61	15144.73
908.78	14913.31
908.95	15343.38
909.12	15099.67
909.29	15085.34
909.46	15150.87
909.63	15173.40
909.80	15109.91
909.97	15187.74
910.14	15060.76
910.31	14964.51
910.48	15032.09
910.65	15013.66
910.82	15062.81
910.99	14831.39
911.16	14751.52
911.33	15105.82
911.50	14804.77
911.66	14786.33
911.83	14812.96
912.00	14788.38
912.17	14757.66
912.34	14862.11
912.51	14679.84
912.68	14483.24
912.85	14706.46
913.02	14585.63
913.19	14413.60
913.36	14665.50
913.53	14712.61
913.70	14399.27
913.86	14552.87
914.03	14608.16
914.20	14303.01
914.37	14350.12
914.54	14456.61
914.71	14454.56
914.88	14503.71
915.05	14446.37
915.22	14233.38
915.39	14391.08
915.55	14184.23
915.72	13954.86
915.89	14016.30
916.06	13958.96
916.23	14051.11
916.40	13913.90
916.57	13973.29
916.74	13983.53
916.91	13725.49
917.07	13821.74
917.24	13975.34
917.41	13784.88
917.58	13866.80
917.75	13610.80
917.92	13459.25
918.09	13713.20
918.26	13492.02
918.42	13569.84
918.59	13512.50
918.76	13575.98
918.93	13406.00
919.10	13143.86
919.27	13367.09
919.44	13363.00
919.60	13528.88
919.77	13201.21
919.94	13203.25
920.11	13258.55
920.28	13084.47
920.45	13076.28
920.61	12867.39
920.78	13104.95
920.95	12595.01
921.12	13055.80
921.29	12855.10
921.46	12783.42
921.62	12760.89
921.79	12953.40
921.96	12726.08
922.13	12652.35
922.30	12519.23
922.47	12586.82
922.63	12490.56
922.80	12554.05
922.97	12271.43
923.14	12197.70
923.31	12490.56
923.47	12351.30
923.64	12339.01
923.81	12175.17
923.98	12267.33
924.15	12101.45
924.32	12246.85
924.48	12066.63
924.65	12140.36
924.82	11824.97
924.99	11741.00
925.15	11775.82
925.32	11763.53
925.49	11659.09
925.66	11652.94
925.83	11702.09
925.99	11681.61
926.16	11564.88
926.33	11509.58
926.50	11429.71
926.67	11534.16
926.83	11317.08
927.00	11335.51
927.17	11290.45
927.34	11269.97
927.50	11329.36
927.67	11179.86
927.84	11059.03
928.01	11147.09
928.17	10878.81
928.34	11018.07
928.51	10864.47
928.68	10925.91
928.84	10815.32
929.01	10616.67
929.18	10739.55
929.35	10829.66
929.51	10696.54
929.68	10440.54
929.85	10438.50
930.02	10631.01
930.18	10659.68
930.35	10497.89
930.52	10342.24
930.69	10323.81
930.85	10297.19
931.02	10151.78
931.19	10360.67
931.36	10166.12
931.52	10481.50
931.69	10334.05
931.86	10346.34
932.02	10198.88
932.19	9883.50
932.36	9781.10
932.53	9740.14
932.69	9830.25
932.86	9899.88
933.03	9647.98
933.19	9629.55
933.36	9568.11
933.53	9660.27
933.70	9480.05
933.86	9441.14
934.03	9336.69
934.20	9494.38
934.36	9320.31
934.53	9148.28
934.70	8968.06
934.86	9045.88
935.03	8976.25
935.20	8929.14
935.36	8912.76
935.53	8757.11
935.70	8847.22
935.86	8769.40
936.03	8658.81
936.20	8451.97
936.36	8482.69
936.53	8480.64
936.70	8413.06
936.86	8511.36
937.03	8261.51
937.20	7841.67
937.36	8220.55
937.53	7978.89
937.70	7692.17
937.86	7899.02
938.03	7726.99
938.20	8066.95
938.36	7630.73
938.53	7755.66
938.70	7440.27
938.86	7214.99
939.03	7403.41
939.20	7272.34
939.36	7053.20
939.53	7059.35
939.70	7303.06
939.86	6963.09
940.03	6834.07
940.19	6854.55
940.36	6713.24
940.53	6819.74
940.69	6565.79
940.86	6481.82
941.03	6508.44
941.19	6422.43
941.36	6262.69
941.52	6352.80
941.69	6174.63
941.86	6129.57
942.02	6178.72
942.19	6076.32
942.35	6129.57
942.52	5900.20
942.69	5832.62
942.85	5767.08
943.02	5803.94
943.18	5789.61
943.35	5685.16
943.52	5574.57
943.68	5722.02
943.85	5734.31
944.01	5414.83
944.18	5533.61
944.35	5734.31
944.51	5406.64
944.68	5298.10
944.84	5392.30
945.01	5337.01
945.17	5373.87
945.34	5423.02
945.51	5312.43
945.67	5447.60
945.84	5410.73
946.00	5324.72
946.17	5324.72
946.33	5189.55
946.50	5369.77
946.67	5124.02
946.83	5320.62
947.00	5187.50
947.16	5113.78
947.33	5046.20
947.49	5103.54
947.66	5076.91
947.82	5244.85
947.99	5277.62
948.16	5361.58
948.32	5269.42
948.49	5083.06
948.65	5148.59
948.82	5246.90
948.98	5199.79
949.15	5232.56
949.31	5078.96
949.48	5185.46
949.64	5164.98
949.81	5300.14
949.97	5199.79
950.14	5363.63
950.30	5078.96
950.47	5492.65
950.63	5150.64
950.80	5140.40
950.96	5173.17
951.13	5148.59
951.30	5324.72
951.46	5412.78
951.63	5289.90
951.79	5277.62
951.96	5310.38
952.12	5339.05
952.29	5332.91
952.45	5058.48
952.62	5212.08
952.78	5367.73
952.94	5269.42
953.11	5312.43
953.27	5060.53
953.44	5404.59
953.60	5365.68
953.77	5230.51
953.93	5375.92
954.10	5326.77
954.26	5287.86
954.43	5414.83
954.59	5316.53
954.76	5453.74
954.92	5300.14
955.09	5396.40
955.25	5201.84
955.42	5439.40
955.58	5455.79
955.75	5246.90
955.91	5234.61
956.07	5545.90
956.24	5308.34
956.40	5357.49
956.57	5318.57
956.73	5302.19
956.90	5402.54
957.06	5300.14
957.23	5451.69
957.39	5414.83
957.56	5402.54
957.72	5212.08
957.88	5246.90
958.05	5388.21
958.21	5463.98
958.38	5414.83
958.54	5365.68
958.71	5441.45
958.87	5255.09
959.03	5439.40
959.20	5509.04
959.36	5330.86
959.53	5343.15
959.69	5429.17
959.85	5332.91
960.02	5328.81
960.18	5226.42
960.35	5339.05
960.51	5304.24
960.68	5310.38
960.84	5420.97
961.00	5277.62
961.17	5347.25
961.33	5210.03
961.50	5289.90
961.66	5441.45
961.82	5220.27
961.99	5259.18
962.15	5316.53
962.31	5349.29
962.48	5277.62
962.64	5345.20
962.81	5216.18
962.97	5250.99
963.13	5273.52
963.30	5400.49
963.46	5257.14
963.62	5248.94
963.79	5263.28
963.95	5332.91
964.12	5269.42
964.28	5312.43
964.44	5232.56
964.61	5304.24
964.77	5316.53
964.93	5388.21
965.10	5160.88
965.26	5210.03
965.42	5189.55
965.59	5167.03
965.75	5302.19
965.92	5326.77
966.08	5205.94
966.24	5291.95
966.41	5091.25
966.57	5017.52
966.73	5119.92
966.90	5232.56
967.06	5124.02
967.22	5175.22
967.39	5244.85
967.55	5072.82
967.71	5081.01
967.88	5205.94
968.04	5042.10
968.20	5081.01
968.37	5001.14
968.53	5038.00
968.69	5046.20
968.85	5164.98
969.02	5107.63
969.18	5146.55
969.34	5054.39
969.51	5115.83
969.67	4997.04
969.83	4911.03
970.00	5078.96
970.16	4845.49
970.32	4951.99
970.48	5005.24
970.65	4853.69
970.81	4945.84
970.97	4747.19
971.14	4921.27
971.30	5113.78
971.46	4880.31
971.63	4888.50
971.79	4921.27
971.95	4935.60
972.11	4698.04
972.28	4765.62
972.44	4974.52
972.60	4710.33
972.76	4933.56
972.93	4900.79
973.09	4849.59
973.25	4949.94
973.42	4700.09
973.58	4771.77
973.74	4777.91
973.90	4874.17
974.07	4779.96
974.23	4779.96
974.39	4845.49
974.55	4636.60
974.72	4704.18
974.88	4671.42
975.04	4732.86
975.20	4585.40
975.37	4710.33
975.53	4693.94
975.69	4693.94
975.85	4534.20
976.01	4650.94
976.18	4564.92
976.34	4609.98
976.50	4726.71
976.66	4687.80
976.83	4581.31
976.99	4493.24
977.15	4542.39
977.31	4474.81
977.47	4519.87
977.64	4622.27
977.80	4421.56
977.96	4595.64
978.12	4505.53
978.29	4435.90
978.45	4358.08
978.61	4427.71
978.77	4464.57
978.93	4376.51
979.10	4485.05
979.26	4374.46
979.42	4519.87
979.58	4403.13
979.74	4458.43
979.91	4372.41
980.07	4290.49
980.23	4442.04
980.39	4249.54
980.55	4353.98
980.71	4374.46
980.88	4196.29
981.04	4259.78
981.20	4233.15
981.36	4341.69
981.52	4351.93
981.68	4274.11
981.85	4317.12
982.01	4333.50
982.17	4323.26
982.33	4358.08
982.49	4399.04
982.65	4243.39
982.82	4382.65
982.98	4241.34
983.14	4216.77
983.30	4177.86
983.46	4290.49
983.62	4298.69
983.79	4155.33
983.95	4167.62
984.11	4083.65
984.27	4073.41
984.43	4130.75
984.59	4169.66
984.75	4192.19
984.91	4108.23
985.08	4136.90
985.24	4009.92
985.40	4130.75
985.56	4044.74
985.72	4124.61
985.88	4126.66
986.04	3944.39
986.20	4001.73
986.37	4009.92
986.53	3983.30
986.69	3956.68
986.85	3925.96
987.01	3942.34
987.17	4009.92
987.33	3850.18
987.49	3895.24
987.65	3962.82
987.82	3968.96
987.98	3866.56
988.14	3938.24
988.30	3897.28
988.46	3776.45
988.62	3932.10
988.78	3815.37
988.94	3835.85
989.10	3874.76
989.26	3727.30
989.42	3749.83
989.59	3821.51
989.75	3706.82
989.91	3674.06
990.07	3624.90
990.23	3768.26
990.39	3723.21
990.55	3784.65
990.71	3698.63
990.87	3725.26
991.03	3803.08
991.19	3745.73
991.35	3792.84
991.51	3643.34
991.67	3708.87
991.83	3614.66
992.00	3559.37
992.16	3710.92
992.32	3731.40
992.48	3698.63
992.64	3655.62
992.80	3588.04
992.96	3588.04
993.12	3635.14
993.28	3575.75
993.44	3530.70
993.60	3590.09
993.76	3469.26
993.92	3581.90
994.08	3672.01
994.24	3508.17
994.40	3489.74
994.56	3559.37
994.72	3497.93
994.88	3481.55
995.04	3624.90
995.20	3377.10
995.36	3373.00
995.52	3452.88
995.68	3459.02
995.84	3354.57
996.00	3508.17
996.16	3459.02
996.32	3391.44
996.48	3295.18
996.64	3430.35
996.80	3518.41
996.96	3377.10
997.12	3317.71
997.28	3280.85
997.44	3385.29
997.60	3405.77
997.76	3282.89
997.92	3493.83
998.08	3284.94
998.24	3395.53
998.40	3350.48
998.56	3362.76
998.72	3231.69
998.88	3233.74
999.04	3348.43
999.20	3284.94
999.36	3207.12
999.52	3264.46
999.68	3307.47
999.84	3301.33
1000.00	3330.00
1000.16	3313.61
1000.32	3155.92
1000.48	3317.71
1000.64	3178.45
1000.80	3016.66
1000.95	3098.58
1001.11	3327.95
1001.27	3127.25
1001.43	3174.35
1001.59	3104.72
1001.75	3211.22
1001.91	3094.48
1002.07	3112.91
1002.23	3117.01
1002.39	2949.08
1002.55	3100.62
1002.71	3106.77
1002.87	3076.05
1003.03	3051.47
1003.19	3080.14
1003.34	3100.62
1003.50	3002.32
1003.66	3129.30
1003.82	3084.24
1003.98	2961.36
1004.14	3033.04
1004.30	2979.79
1004.46	2932.69
1004.62	2990.03
1004.78	2924.50
1004.94	3112.91
1005.09	2990.03
1005.25	3067.86
1005.41	2994.13
1005.57	2942.93
1005.73	2885.59
1005.89	2940.88
1006.05	2901.97
1006.21	2996.18
1006.37	2850.77
1006.52	2899.92
1006.68	2781.14
1006.84	2981.84
1007.00	2711.51
1007.16	2920.40
1007.32	2918.36
1007.48	2805.72
1007.64	2908.12
1007.79	2901.97
1007.95	2848.72
1008.11	2854.87
1008.27	2883.54
1008.43	2820.05
1008.59	2699.22
1008.75	2875.35
1008.91	2838.48
1009.06	2781.14
1009.22	2729.94
1009.38	2799.57
1009.54	2850.77
1009.70	2762.71
1009.86	2772.95
1010.01	2842.58
1010.17	2764.76
1010.33	2736.09
1010.49	2670.55
1010.65	2758.61
1010.81	2662.36
1010.96	2756.57
1011.12	2678.74
1011.28	2676.70
1011.44	2666.46
1011.60	2729.94
1011.76	2600.92
1011.91	2795.48
1012.07	2674.65
1012.23	2555.86
1012.39	2562.01
1012.55	2662.36
1012.71	2703.32
1012.86	2617.30
1013.02	2691.03
1013.18	2615.26
1013.34	2650.07
1013.50	2715.61
1013.65	2594.78
1013.81	2596.82
1013.97	2482.14
1014.13	2498.52
1014.29	2637.78
1014.44	2637.78
1014.60	2629.59
1014.76	2582.49
1014.92	2447.32
1015.07	2543.58
1015.23	2695.13
1015.39	2523.10
1015.55	2461.66
1015.71	2576.34
1015.86	2541.53
1016.02	2525.15
1016.18	2385.88
1016.34	2502.62
1016.49	2467.80
1016.65	2533.34
1016.81	2469.85
1016.97	2545.63
1017.12	2557.91
1017.28	2346.97
1017.44	2355.16
1017.60	2455.51
1017.75	2478.04
1017.91	2469.85
1018.07	2445.27
1018.23	2478.04
1018.38	2432.99
1018.54	2420.70
1018.70	2381.79
1018.86	2402.27
1019.01	2344.92
1019.17	2332.64
1019.33	2459.61
1019.49	2383.84
1019.64	2424.80
1019.80	2416.60
1019.96	2396.12
1020.12	2285.53
1020.27	2400.22
1020.43	2400.22
1020.59	2377.69
1020.74	2367.45
1020.90	2379.74
1021.06	2324.44
1021.22	2400.22
1021.37	2291.68
1021.53	2297.82
1021.69	2342.88
1021.84	2301.92
1022.00	2326.49
1022.16	2316.25
1022.31	2326.49
1022.47	2254.81
1022.63	2349.02
1022.79	2240.48
1022.94	2222.05
1023.10	2340.83
1023.26	2240.48
1023.41	2187.23
1023.57	2271.20
1023.73	2299.87
1023.88	2310.11
1024.04	2152.42
1024.20	2224.09
1024.35	2316.25
1024.51	2222.05
1024.67	2215.90
1024.82	2281.44
1024.98	2193.37
1025.14	2166.75
1025.29	2232.29
1025.45	2185.18
1025.61	2269.15
1025.76	2195.42
1025.92	2217.95
1026.08	2236.38
1026.23	2207.71
1026.39	2240.48
1026.55	2185.18
1026.70	2074.59
1026.86	2115.55
1027.02	2273.25
1027.17	2133.98
1027.33	2213.85
1027.48	2156.51
1027.64	2150.37
1027.80	2115.55
1027.95	2148.32
1028.11	2023.39
1028.27	2213.85
1028.42	2156.51
1028.58	2090.98
1028.73	1959.91
1028.89	2035.68
1029.05	2148.32
1029.20	2150.37
>>>>>End Processed Spectral Data<<<<<
