SpectraSuite Data File
++++++++++++++++++++++++++++++++++++
Date: Fri Jun 02 14:52:23 CEST 2017
User: INFO_000
Dark Spectrum Present: No
Reference Spectrum Present: No
Number of Sampled Component Spectra: 1
Spectrometers: USB4H00879
Integration Time (usec): 80000 (USB4H00879)
Spectra Averaged: 1 (USB4H00879)
Boxcar Smoothing: 0 (USB4H00879)
Correct for Electrical Dark: No (USB4H00879)
Strobe/Lamp Enabled: No (USB4H00879)
Correct for Detector Non-linearity: No (USB4H00879)
Correct for Stray Light: No (USB4H00879)
Number of Pixels in Processed Spectrum: 3648
>>>>>Begin Processed Spectral Data<<<<<
345.13	1247.21
345.34	1247.21
345.56	1247.21
345.78	1279.98
345.99	1275.88
346.21	1705.96
346.42	1728.49
346.64	1665.00
346.86	1761.25
347.07	1679.33
347.29	1804.26
347.50	1568.74
347.72	1695.72
347.94	1744.87
348.15	1562.60
348.37	1658.85
348.59	1605.61
348.80	1673.19
349.02	1748.97
349.23	1875.94
349.45	1818.60
349.67	1818.60
349.88	1781.73
350.10	2000.87
350.31	1871.84
350.53	1812.45
350.75	1880.04
350.96	1748.97
351.18	1843.17
351.39	1837.03
351.61	1798.12
351.82	1890.28
352.04	1898.47
352.26	1849.32
352.47	1843.17
352.69	1906.66
352.90	1730.53
353.12	1837.03
353.34	1853.41
353.55	1968.10
353.77	1931.23
353.98	1884.13
354.20	1814.50
354.41	1890.28
354.63	1875.94
354.85	2017.25
355.06	1888.23
355.28	1771.49
355.49	1961.95
355.71	1871.84
355.92	1865.70
356.14	1896.42
356.35	1894.37
356.57	1839.08
356.79	1966.05
357.00	1877.99
357.22	1994.72
357.43	1863.65
357.65	1908.71
357.86	1826.79
358.08	1908.71
358.29	1910.75
358.51	1937.38
358.72	1982.43
358.94	1949.67
359.16	1904.61
359.37	1912.80
359.59	1939.43
359.80	1961.95
360.02	1918.95
360.23	1943.52
360.45	2054.11
360.66	1896.42
360.88	1822.69
361.09	1929.19
361.31	2023.39
361.52	1955.81
361.74	2084.83
361.95	2052.06
362.17	1927.14
362.38	2138.08
362.60	2084.83
362.81	1994.72
363.03	1943.52
363.24	1945.57
363.46	2002.91
363.67	1916.90
363.89	1990.63
364.10	1988.58
364.32	2023.39
364.53	2050.02
364.75	1945.57
364.96	2007.01
365.18	2002.91
365.39	1947.62
365.61	2015.20
365.82	2113.50
366.04	2009.06
366.25	1923.04
366.47	2052.06
366.68	2000.87
366.90	1937.38
367.11	2099.17
367.33	2093.02
367.54	2066.40
367.76	1972.19
367.97	2133.98
368.19	2019.30
368.40	2158.56
368.62	1974.24
368.83	2039.78
369.05	2172.89
369.26	1964.00
369.48	2019.30
369.69	2058.21
369.91	2050.02
370.12	1992.67
370.33	2115.55
370.55	2062.30
370.76	2056.16
370.98	2103.26
371.19	2097.12
371.41	2131.94
371.62	2068.45
371.84	1978.34
372.05	2174.94
372.27	2023.39
372.48	2174.94
372.69	2088.93
372.91	2199.52
373.12	2174.94
373.34	2174.94
373.55	2160.61
373.77	2144.22
373.98	2080.74
374.20	2172.89
374.41	2310.11
374.62	2138.08
374.84	2142.18
375.05	2207.71
375.27	2168.80
375.48	2181.09
375.70	2142.18
375.91	2236.38
376.12	2322.40
376.34	2201.57
376.55	2107.36
376.77	2189.28
376.98	2109.41
377.19	2148.32
377.41	2273.25
377.62	2193.37
377.84	2256.86
378.05	2310.11
378.27	2209.76
378.48	2256.86
378.69	2432.99
378.91	2344.92
379.12	2306.01
379.34	2281.44
379.55	2269.15
379.76	2289.63
379.98	2320.35
380.19	2211.81
380.41	2236.38
380.62	2351.07
380.83	2244.57
381.05	2150.37
381.26	2467.80
381.47	2179.04
381.69	2308.06
381.90	2420.70
382.12	2340.83
382.33	2254.81
382.54	2334.68
382.76	2383.84
382.97	2400.22
383.19	2209.76
383.40	2404.32
383.61	2299.87
383.83	2197.47
384.04	2369.50
384.25	2320.35
384.47	2344.92
384.68	2453.47
384.89	2398.17
385.11	2306.01
385.32	2435.03
385.54	2355.16
385.75	2379.74
385.96	2471.90
386.18	2467.80
386.39	2400.22
386.60	2490.33
386.82	2410.46
387.03	2359.26
387.24	2494.43
387.46	2449.37
387.67	2553.82
387.88	2529.24
388.10	2435.03
388.31	2441.18
388.52	2512.86
388.74	2607.06
388.95	2568.15
389.16	2525.15
389.38	2523.10
389.59	2580.44
389.80	2654.17
390.02	2531.29
390.23	2656.22
390.44	2562.01
390.66	2590.68
390.87	2588.63
391.08	2645.98
391.30	2695.13
391.51	2627.54
391.72	2680.79
391.94	2754.52
392.15	2607.06
392.36	2652.12
392.58	2654.17
392.79	2719.70
393.00	2766.81
393.22	2772.95
393.43	2721.75
393.64	2854.87
393.85	2830.29
394.07	2713.56
394.28	2770.90
394.49	2736.09
394.71	2731.99
394.92	2918.36
395.13	2766.81
395.35	2772.95
395.56	2820.05
395.77	2822.10
395.98	2854.87
396.20	2928.60
396.41	2906.07
396.62	2818.00
396.84	2768.85
397.05	2822.10
397.26	2936.79
397.47	2953.17
397.69	2807.77
397.90	3102.67
398.11	2904.02
398.32	2914.26
398.54	2826.20
398.75	2906.07
398.96	3033.04
399.18	3028.95
399.39	3022.80
399.60	3037.14
399.81	2979.79
400.03	2973.65
400.24	3248.08
400.45	3096.53
400.66	3114.96
400.88	3045.33
401.09	3217.36
401.30	3049.43
401.51	3213.26
401.73	3207.12
401.94	3215.31
402.15	3172.30
402.36	3084.24
402.58	3227.60
402.79	3108.82
403.00	3217.36
403.21	3248.08
403.43	3260.37
403.64	3266.51
403.85	3143.63
404.06	3325.90
404.27	3063.76
404.49	3149.78
404.70	3213.26
404.91	3311.57
405.12	3323.85
405.34	3284.94
405.55	3514.31
405.76	3164.11
405.97	3229.65
406.19	3405.77
406.40	3266.51
406.61	3418.06
406.82	3434.44
407.03	3338.19
407.25	3307.47
407.46	3467.21
407.67	3375.05
407.88	3461.07
408.09	3473.36
408.31	3346.38
408.52	3395.53
408.73	3350.48
408.94	3426.25
409.15	3420.11
409.37	3499.98
409.58	3502.03
409.79	3477.45
410.00	3585.99
410.21	3493.83
410.43	3520.46
410.64	3471.31
410.85	3532.75
411.06	3516.36
411.27	3661.77
411.48	3555.27
411.70	3516.36
411.91	3577.80
412.12	3635.14
412.33	3645.38
412.54	3606.47
412.76	3637.19
412.97	3751.88
413.18	3504.07
413.39	3577.80
413.60	3645.38
413.81	3702.73
414.03	3618.76
414.24	3749.83
414.45	3846.09
414.66	3698.63
414.87	3792.84
415.08	3760.07
415.30	3727.30
415.51	3854.28
415.72	3817.41
415.93	3844.04
416.14	3889.09
416.35	3893.19
416.56	3846.09
416.78	3835.85
416.99	3938.24
417.20	3848.13
417.41	4032.45
417.62	3901.38
417.83	4067.27
418.04	3960.77
418.26	4065.22
418.47	3928.00
418.68	4077.51
418.89	4030.40
419.10	4143.04
419.31	3942.34
419.52	4134.85
419.73	4149.18
419.95	4181.95
420.16	4044.74
420.37	3948.48
420.58	4263.87
420.79	3989.44
421.00	4163.52
421.21	4294.59
421.42	4079.55
421.63	4177.86
421.85	4136.90
422.06	4165.57
422.27	4235.20
422.48	4102.08
422.69	4284.35
422.90	4356.03
423.11	4409.28
423.32	4292.54
423.53	4413.37
423.75	4405.18
423.96	4548.54
424.17	4511.68
424.38	4622.27
424.59	4489.15
424.80	4517.82
425.01	4480.96
425.22	4517.82
425.43	4476.86
425.64	4669.37
425.85	4591.55
426.06	4583.35
426.28	4640.70
426.49	4646.84
426.70	4628.41
426.91	4657.08
427.12	4689.85
427.33	4685.75
427.54	4706.23
427.75	4730.81
427.96	4870.07
428.17	4773.82
428.38	4884.41
428.59	4947.89
428.80	4847.54
429.01	4958.13
429.23	4874.17
429.44	5109.68
429.65	4968.37
429.86	4966.32
430.07	5021.62
430.28	4870.07
430.49	5019.57
430.70	5054.39
430.91	5113.78
431.12	5070.77
431.33	5236.66
431.54	5220.27
431.75	5281.71
431.96	5150.64
432.17	5160.88
432.38	5242.80
432.59	5474.22
432.80	5261.23
433.01	5490.60
433.22	5468.08
433.43	5439.40
433.64	5310.38
433.85	5328.81
434.06	5533.61
434.27	5382.06
434.49	5468.08
434.70	5595.05
434.91	5609.39
435.12	5500.84
435.33	5472.17
435.54	5504.94
435.75	5420.97
435.96	5638.06
436.17	5396.40
436.38	5545.90
436.59	5541.80
436.80	5439.40
437.01	5785.51
437.22	5812.14
437.43	5728.17
437.64	5586.86
437.85	5877.67
438.06	5681.07
438.27	5615.53
438.48	5769.13
438.69	5861.29
438.90	5797.80
439.11	5785.51
439.32	5853.09
439.53	5769.13
439.74	5941.16
439.95	5926.82
440.16	5783.46
440.37	5887.91
440.57	5791.66
440.78	6057.89
440.99	6037.41
441.20	6131.62
441.41	6064.04
441.62	6127.52
441.83	5988.26
442.04	6191.01
442.25	6080.42
442.46	6115.23
442.67	6344.61
442.88	6633.37
443.09	6090.66
443.30	6154.15
443.51	6320.03
443.72	6469.53
443.93	6289.31
444.14	6490.01
444.35	6332.32
444.56	6455.20
444.77	6207.39
444.98	6348.70
445.19	6526.88
445.40	6330.27
445.61	6320.03
445.81	6649.75
446.02	6547.36
446.23	6567.84
446.44	6375.33
446.65	6504.35
446.86	6559.64
447.07	6664.09
447.28	6758.30
447.49	6688.67
447.70	6700.95
447.91	6764.44
448.12	6772.63
448.33	6942.61
448.54	6877.08
448.74	6772.63
448.95	6965.14
449.16	6854.55
449.37	7137.17
449.58	6952.85
449.79	7090.07
450.00	6907.80
450.21	6864.79
450.42	7135.12
450.63	7178.13
450.84	7016.34
451.05	7108.50
451.25	7022.48
451.46	6924.18
451.67	7307.15
451.88	7370.64
452.09	7477.13
452.30	7317.39
452.51	7235.47
452.72	7356.30
452.93	7565.20
453.13	7270.29
453.34	7284.62
453.55	7481.23
453.76	7421.84
453.97	7706.51
454.18	7493.52
454.39	7745.42
454.60	7606.16
454.81	7653.26
455.01	7704.46
455.22	7540.62
455.43	7704.46
455.64	7942.02
455.85	8005.51
456.06	8114.05
456.27	7956.36
456.48	7954.31
456.68	7999.37
456.89	8048.52
457.10	8075.14
457.31	8275.84
457.52	8179.59
457.73	8226.69
457.94	8351.62
458.14	8052.61
458.35	8408.96
458.56	8363.90
458.77	8507.26
458.98	8529.79
459.19	8425.34
459.39	8710.01
459.60	8675.20
459.81	8556.41
460.02	8722.30
460.23	8662.91
460.44	8775.55
460.65	8820.60
460.85	8916.86
461.06	8779.64
461.27	8763.26
461.48	9086.84
461.69	9135.99
461.89	8904.57
462.10	9088.89
462.31	8826.75
462.52	9031.54
462.73	9101.17
462.94	9394.03
463.14	9275.25
463.35	9228.15
463.56	9623.41
463.77	9658.22
463.98	9385.84
464.18	9492.34
464.39	9623.41
464.60	9891.69
464.81	9639.79
465.02	9770.86
465.23	9992.04
465.43	9854.83
465.64	9889.64
465.85	10004.33
466.06	9924.46
466.27	10280.80
466.47	10213.22
466.68	10092.39
466.89	10106.73
467.10	10346.34
467.30	10065.77
467.51	10366.82
467.72	10717.02
467.93	10248.04
468.14	10610.53
468.34	10612.57
468.55	10542.94
468.76	10602.33
468.97	10522.46
469.17	10788.70
469.38	11038.55
469.59	11032.41
469.80	10936.15
470.01	11126.61
470.21	11042.65
470.42	11323.22
470.63	11470.67
470.84	11415.38
471.04	11454.29
471.25	11515.73
471.46	11628.37
471.67	11712.33
471.87	11624.27
472.08	11675.47
472.29	11867.98
472.50	11745.10
472.70	11700.05
472.91	11661.13
473.12	12201.80
473.33	12066.63
473.53	12298.05
473.74	12160.84
473.95	12490.56
474.16	12670.78
474.36	12496.71
474.57	12457.79
474.78	12934.97
474.99	12633.92
475.19	12871.48
475.40	12932.92
475.61	12977.98
475.81	13174.58
476.02	13266.74
476.23	13117.24
476.44	13117.24
476.64	13518.64
476.85	13782.83
477.06	13434.68
477.27	13868.84
477.47	13887.28
477.68	13860.65
477.89	14180.14
478.09	13997.87
478.30	14110.50
478.51	14352.16
478.71	14130.98
478.92	14542.63
479.13	14645.02
479.34	14745.38
479.54	14593.83
479.75	14642.98
479.96	14858.01
480.16	14880.54
480.37	15062.81
480.58	15308.57
480.78	15509.27
480.99	15292.18
481.20	15531.80
481.41	15640.34
481.61	15542.03
481.82	15761.17
482.03	15556.37
482.23	15408.92
482.44	15816.46
482.65	16103.18
482.85	16379.65
483.06	15986.44
483.27	16199.43
483.47	16199.43
483.68	16277.26
483.89	16504.58
484.09	16707.33
484.30	16854.78
484.51	17075.96
484.71	16901.89
484.92	16985.85
485.13	17080.06
485.33	17266.42
485.54	17147.64
485.75	17612.53
485.95	17577.72
486.16	17696.50
486.37	17829.62
486.57	17725.17
486.78	17774.32
486.98	17940.21
487.19	18231.02
487.40	18302.70
487.60	18188.01
487.81	18777.83
488.02	18263.79
488.22	18503.40
488.43	18495.21
488.64	18697.95
488.84	18654.95
489.05	19269.34
489.25	19072.73
489.46	19205.85
489.67	18970.33
489.87	19320.54
490.08	19308.25
490.29	19429.08
490.49	19791.57
490.70	19623.64
490.90	19916.50
491.11	19844.82
491.32	20004.56
491.52	20160.20
491.73	20162.25
491.94	20467.40
492.14	20266.70
492.35	20541.13
492.55	20412.10
492.76	20805.31
492.97	20913.86
493.17	20825.79
493.38	20477.64
493.58	21302.97
493.79	21188.28
494.00	21112.51
494.20	21298.88
494.41	21518.01
494.61	21427.90
494.82	21481.14
495.02	21368.51
495.23	21755.57
495.44	21544.63
495.64	22095.53
495.85	22040.24
496.05	22169.26
496.26	22296.24
496.47	22619.81
496.67	22238.89
496.88	22671.01
497.08	21968.56
497.29	22603.43
497.49	22599.34
497.70	22789.80
497.91	22859.43
498.11	23080.61
498.32	23019.17
498.52	23207.58
498.73	23152.29
498.93	23551.64
499.14	23352.99
499.34	23500.44
499.55	24022.67
499.76	23531.16
499.96	23789.20
500.17	23821.97
500.37	23893.65
500.58	24010.39
500.78	23721.62
500.99	23959.19
501.19	24383.12
501.40	24057.49
501.60	24252.05
501.81	24368.78
502.02	24331.92
502.22	24211.09
502.43	24673.93
502.63	24637.06
502.84	24680.07
503.04	24587.91
503.25	24403.60
503.45	24692.36
503.66	24917.64
503.86	24915.59
504.07	25101.95
504.27	25040.51
504.48	25714.30
504.68	25136.77
504.89	25515.64
505.09	25474.68
505.30	25609.85
505.50	25329.28
505.71	25609.85
505.91	25800.31
506.12	25931.38
506.32	25704.06
506.53	26134.13
506.73	25831.03
506.94	26011.25
507.14	25874.04
507.35	25945.72
507.55	26252.91
507.76	26289.77
507.96	26048.11
508.17	26123.89
508.37	26392.17
508.58	26414.70
508.78	26416.75
508.99	26396.27
509.19	26363.50
509.40	26697.32
509.60	26623.59
509.81	26721.90
510.01	26887.78
510.22	26859.11
510.42	26855.01
510.63	26941.03
510.83	27022.95
511.04	26752.62
511.24	27346.53
511.44	26898.02
511.65	27256.42
511.85	27272.80
512.06	27115.11
512.26	27334.24
512.47	27371.10
512.67	27104.87
512.88	27551.32
513.08	27446.88
513.29	27397.73
513.49	27668.06
513.69	27100.77
513.90	27637.34
514.10	27803.22
514.31	27866.71
514.51	27729.50
514.72	27690.59
514.92	28012.12
515.13	27727.45
515.33	28032.60
515.53	28329.55
515.74	27928.15
515.94	28108.37
516.15	28280.40
516.35	28159.57
516.56	28333.65
516.76	28145.23
516.96	28479.05
517.17	28683.85
517.37	28640.84
517.58	28603.98
517.78	28665.42
517.99	28890.70
518.19	28749.39
518.39	28804.68
518.60	28952.13
518.80	28780.10
519.01	29097.54
519.21	28982.85
519.41	29019.72
519.62	29156.93
519.82	29189.70
520.03	29513.28
520.23	29328.96
520.43	29308.48
520.64	29541.95
520.84	29642.30
521.05	29523.52
521.25	29754.94
521.45	29965.88
521.66	30021.17
521.86	29509.18
522.07	29912.63
522.27	29826.62
522.47	30023.22
522.68	30225.97
522.88	29910.58
523.08	30361.14
523.29	30199.35
523.49	30455.34
523.70	30305.84
523.90	30496.30
524.10	30686.76
524.31	30301.75
524.51	30785.07
524.71	30897.70
524.92	30891.56
525.12	30922.28
525.33	30979.62
525.53	31321.63
525.73	31309.35
525.94	31303.20
526.14	31292.96
526.34	31501.86
526.55	31360.55
526.75	31559.20
526.95	31946.26
527.16	31596.06
527.36	31602.21
527.56	32130.58
527.77	32179.73
527.97	32132.63
528.17	32671.25
528.38	32876.04
528.58	32407.06
528.78	32333.33
528.99	32521.74
529.19	32677.39
529.39	32626.19
529.60	32550.42
529.80	32951.82
530.00	32620.05
530.21	32992.78
530.41	33232.39
530.61	32945.67
530.82	33428.99
531.02	33547.78
531.22	33312.26
531.43	33598.98
531.63	33953.27
531.83	34061.82
532.04	34117.11
532.24	34024.95
532.44	33838.59
532.64	34600.43
532.85	34694.64
533.05	34219.51
533.25	34559.47
533.46	34770.41
533.66	34694.64
533.86	34412.02
534.07	35182.06
534.27	34846.19
534.47	35184.10
534.67	35239.40
534.88	34811.37
535.08	35003.88
535.28	35368.42
535.49	35610.08
535.69	35982.81
535.89	35669.47
536.09	35597.79
536.30	36191.70
536.50	36267.48
536.70	36459.99
536.91	36380.12
537.11	36480.47
537.31	36558.29
537.51	36492.76
537.72	37164.49
537.92	36840.91
538.12	37133.77
538.32	37221.83
538.53	37127.63
538.73	37000.65
538.93	37129.67
539.13	37412.29
539.34	37135.82
539.54	36953.55
539.74	37617.09
539.94	37543.36
540.15	37420.48
540.35	37782.98
540.55	37934.53
540.75	37651.91
540.96	38120.89
541.16	38155.71
541.36	38278.58
541.56	38321.59
541.77	38260.15
541.97	38432.18
542.17	38413.75
542.37	38589.88
542.58	38612.40
542.78	38776.24
542.98	38630.83
543.18	39042.48
543.38	39185.83
543.59	39476.65
543.79	39470.50
543.99	39359.91
544.19	39642.53
544.40	39269.80
544.60	39533.99
544.80	39577.00
545.00	39679.39
545.20	39712.16
545.41	39509.41
545.61	39574.95
545.81	40076.70
546.01	40213.91
546.21	40043.93
546.42	39904.67
546.62	40336.79
546.82	40015.26
547.02	40396.18
547.22	40244.63
547.43	40172.96
547.63	40666.52
547.83	40818.07
548.03	40510.87
548.23	40553.88
548.44	40721.81
548.64	40607.12
548.84	40713.62
549.04	40740.24
549.24	40928.66
549.45	41098.64
549.65	40789.39
549.85	41241.99
550.05	41819.52
550.25	41282.95
550.45	42163.58
550.66	41239.95
550.86	41448.84
551.06	41545.09
551.26	41532.81
551.46	41770.37
551.66	42014.08
551.87	41813.38
552.07	41958.78
552.27	41772.42
552.47	42288.51
552.67	41751.94
552.87	42268.03
553.07	41893.25
553.28	42083.71
553.48	42456.44
553.68	41805.19
553.88	42497.40
554.08	42313.08
554.28	42296.70
554.48	42411.38
554.69	42210.68
554.89	42669.43
555.09	42567.03
555.29	42503.54
555.49	42575.22
555.69	42876.27
555.89	42890.61
556.10	42749.30
556.30	42640.76
556.50	43355.50
556.70	42853.75
556.90	42980.72
557.10	43214.19
557.30	43070.83
557.50	43316.59
557.70	43242.86
557.91	43175.28
558.11	43439.47
558.31	43591.01
558.51	43461.99
558.71	43554.15
558.91	43443.56
559.11	43292.01
559.31	43220.33
559.51	43371.88
559.72	43674.98
559.92	43660.65
560.12	43605.35
560.32	43677.03
560.52	43482.47
560.72	43697.51
560.92	43765.09
561.12	43830.63
561.32	43992.42
561.52	43738.47
561.72	43892.07
561.93	44205.41
562.13	44094.82
562.33	44143.97
562.53	44338.52
562.73	43769.19
562.93	44172.64
563.13	44234.08
563.33	44424.54
563.53	44807.51
563.73	44141.92
563.93	44213.60
564.13	45004.11
564.33	44467.55
564.53	44242.27
564.74	44471.64
564.94	44307.80
565.14	44442.97
565.34	44406.11
565.54	44625.24
565.74	44776.79
565.94	44881.24
566.14	44651.86
566.34	44868.95
566.54	45311.31
566.74	44735.83
566.94	44825.94
567.14	44897.62
567.34	44494.17
567.54	44631.38
567.74	44772.69
567.94	44963.15
568.14	45151.57
568.34	45006.16
568.54	44944.72
568.74	45421.90
568.94	44942.67
569.14	45143.38
569.34	45307.21
569.54	45178.19
569.75	45038.93
569.95	45372.75
570.15	45706.57
570.35	45217.10
570.55	45237.58
570.75	45661.51
570.95	45184.33
571.15	45178.19
571.35	45524.30
571.55	45636.94
571.75	45413.71
571.95	45901.12
572.15	45462.86
572.35	45929.80
572.55	45622.60
572.75	45880.64
572.95	45997.38
573.15	45698.37
573.35	45880.64
573.55	45921.60
573.75	46079.30
573.95	45872.45
574.15	46058.82
574.35	45897.03
574.55	45991.23
574.75	45755.72
574.95	45937.99
575.15	45968.71
575.34	46101.82
575.54	46347.58
575.74	46267.71
575.94	46298.43
576.14	46370.11
576.34	46579.00
576.54	46441.79
576.74	46556.47
576.94	46298.43
577.14	46564.67
577.34	46753.08
577.54	46609.72
577.74	46751.03
577.94	46390.59
578.14	46642.49
578.34	47007.03
578.54	46245.18
578.74	47043.89
578.94	47043.89
579.14	46658.87
579.34	46687.54
579.54	46591.29
579.74	47281.45
579.94	47039.79
580.13	47357.23
580.33	47256.88
580.53	47228.21
580.73	47267.12
580.93	47070.51
581.13	47170.86
581.33	47510.83
581.53	47605.03
581.73	47437.10
581.93	47547.69
582.13	47539.50
582.33	47543.59
582.53	47617.32
582.73	47824.17
582.92	47707.43
583.12	48076.07
583.32	47854.89
583.52	47871.27
583.72	48080.16
583.92	47695.14
584.12	48026.92
584.32	48313.63
584.52	47934.76
584.72	48217.38
584.92	48346.40
585.11	48751.90
585.31	48469.28
585.51	48772.38
585.71	48389.41
585.91	48848.15
586.11	48244.00
586.31	48252.19
586.51	48483.61
586.71	48719.13
586.91	48960.79
587.10	48786.71
587.30	48956.69
587.50	48907.54
587.70	49069.33
587.90	48833.81
588.10	49011.99
588.30	49026.32
588.50	49163.54
588.69	49052.95
588.89	49095.95
589.09	49288.46
589.29	49143.06
589.49	49788.17
589.69	49392.91
589.89	49865.99
590.08	49552.65
590.28	49499.40
590.48	49313.04
590.68	49503.50
590.88	49741.06
591.08	49362.19
591.28	49321.23
591.47	50138.37
591.67	49954.05
591.87	49941.77
592.07	49911.05
592.27	49982.73
592.47	50093.32
592.67	49945.86
592.86	49657.10
593.06	50529.53
593.26	50083.08
593.46	50316.54
593.66	50640.12
593.86	50457.85
594.05	50494.72
594.25	50441.47
594.45	50054.40
594.65	50849.02
594.85	50074.88
595.05	51186.93
595.24	50627.84
595.44	50470.14
595.64	50865.40
595.84	50615.55
596.04	50969.85
596.23	51307.76
596.43	51213.55
596.63	51404.02
596.83	51481.84
597.03	51408.11
597.22	51401.97
597.42	51213.55
597.62	51555.57
597.82	51354.86
598.02	51365.10
598.21	51795.18
598.41	51733.74
598.61	51617.00
598.81	51846.38
599.01	51981.54
599.20	51758.31
599.40	51477.74
599.60	52069.61
599.80	52155.62
600.00	51901.67
600.19	52212.96
600.39	52100.32
600.59	52104.42
600.79	52253.92
600.98	52528.35
601.18	52557.02
601.38	52849.88
601.58	52622.56
601.78	52741.34
601.97	52659.42
602.17	53077.21
602.37	52722.91
602.57	52804.83
602.76	53343.44
602.96	52718.81
603.16	53626.06
603.36	53173.46
603.55	53548.24
603.75	53243.09
603.95	53343.44
604.15	53374.16
604.34	53312.72
604.54	53656.78
604.74	53785.80
604.94	53613.77
605.13	53667.02
605.33	53460.18
605.53	53662.93
605.73	53660.88
605.92	54107.33
606.12	54351.04
606.32	54074.57
606.52	54043.85
606.71	53861.58
606.91	54506.69
607.11	54170.82
607.30	54486.21
607.50	54435.01
607.70	54244.55
607.90	54222.02
608.09	54594.75
608.29	54676.67
608.49	54803.64
608.68	54629.57
608.88	54879.42
609.08	54893.75
609.28	54746.30
609.47	55022.78
609.67	55282.87
609.87	55125.17
610.06	55264.44
610.26	54910.14
610.46	55280.82
610.66	55129.27
610.85	54916.28
611.05	54981.82
611.25	55452.85
611.44	55008.44
611.64	55125.17
611.84	55129.27
612.03	54990.01
612.23	55436.47
612.43	55518.38
612.62	55194.81
612.82	55375.03
613.02	55768.24
613.21	55717.04
613.41	55047.35
613.61	56083.62
613.80	55332.02
614.00	55098.55
614.20	55882.92
614.39	55479.47
614.59	55829.68
614.79	55932.07
614.98	55585.97
615.18	55518.38
615.38	55919.79
615.57	55868.59
615.77	55286.96
615.97	55897.26
616.16	55854.25
616.36	56165.54
616.56	55897.26
616.75	56276.13
616.95	55598.26
617.15	55850.16
617.34	56079.53
617.54	55581.87
617.74	56378.53
617.93	55936.17
618.13	55690.41
618.32	55975.08
618.52	55751.85
618.72	55934.12
618.91	55567.54
619.11	55665.84
619.31	55940.27
619.50	55788.72
619.70	55923.88
619.90	56034.47
620.09	56263.85
620.29	56149.16
620.48	55850.16
620.68	56511.65
620.88	55520.43
621.07	56226.98
621.27	56220.84
621.46	55547.06
621.66	56253.61
621.86	56005.80
622.05	55710.89
622.25	56464.55
622.44	55948.46
622.64	56059.05
622.84	56188.07
623.03	56054.95
623.23	55858.35
623.42	56054.95
623.62	56308.90
623.82	56620.19
624.01	55964.84
624.21	56491.17
624.40	55813.29
624.60	56022.19
624.80	55833.77
624.99	55669.93
625.19	55655.60
625.38	55897.26
625.58	55891.12
625.77	56134.82
625.97	56153.26
626.17	55866.54
626.36	56104.10
626.56	56278.18
626.75	55502.00
626.95	56276.13
627.14	55897.26
627.34	56106.15
627.54	56390.82
627.73	55899.31
627.93	56229.03
628.12	55387.31
628.32	56026.28
628.51	55719.09
628.71	56149.16
628.90	56032.42
629.10	55475.38
629.30	56366.24
629.49	55866.54
629.69	55755.95
629.88	55551.15
630.08	56186.02
630.27	56558.75
630.47	55940.27
630.66	55549.10
630.86	56401.06
631.05	55833.77
631.25	56106.15
631.44	56372.39
631.64	55985.32
631.84	56206.50
632.03	56286.37
632.23	56151.21
632.42	56452.26
632.62	56138.92
632.81	55614.64
633.01	56054.95
633.20	56013.99
633.40	56140.97
633.59	56382.63
633.79	56138.92
633.98	56081.58
634.18	56235.17
634.37	56134.82
634.57	55895.21
634.76	56138.92
634.96	55768.24
635.15	55981.23
635.35	55772.33
635.54	55577.78
635.74	55893.16
635.93	55790.76
636.13	56513.70
636.32	56581.28
636.52	55536.82
636.71	55809.20
636.91	56118.44
637.10	55981.23
637.30	56599.71
637.49	56237.22
637.69	56011.95
637.88	56638.62
638.08	55471.28
638.27	56263.85
638.46	55860.40
638.66	55522.48
638.85	55940.27
639.05	56192.17
639.24	55633.07
639.44	55882.92
639.63	55733.42
639.83	56489.12
640.02	56024.23
640.22	55620.78
640.41	56169.64
640.61	55565.49
640.80	56382.63
640.99	56186.02
641.19	56603.81
641.38	56138.92
641.58	55651.50
641.77	55786.67
641.97	55821.48
642.16	56337.57
642.36	56509.60
642.55	56280.23
642.74	55880.88
642.94	56657.06
643.13	56077.48
643.33	56423.59
643.52	56452.26
643.72	56095.91
643.91	56231.08
644.10	56104.10
644.30	56257.70
644.49	56388.77
644.69	56267.94
644.88	56048.81
645.08	56091.82
645.27	56233.13
645.46	55936.17
645.66	56212.65
645.85	55889.07
646.05	56278.18
646.24	55780.52
646.43	56329.38
646.63	56747.17
646.82	56759.45
647.02	56267.94
647.21	56116.39
647.40	56442.02
647.60	56652.96
647.79	56681.63
647.99	56673.44
648.18	56093.86
648.37	56554.66
648.57	56759.45
648.76	56499.36
648.96	56106.15
649.15	56296.61
649.34	56784.03
649.54	56345.76
649.73	56282.28
649.92	56202.41
650.12	56771.74
650.31	56771.74
650.51	56446.11
650.70	56577.18
650.89	56110.25
651.09	57072.79
651.28	56317.09
651.47	56614.05
651.67	56446.11
651.86	56951.96
652.06	56331.43
652.25	56726.69
652.44	56587.42
652.64	56075.43
652.83	56286.37
653.02	55661.74
653.22	56243.37
653.41	55663.79
653.60	56163.50
653.80	56229.03
653.99	56769.69
654.18	56042.66
654.38	56202.41
654.57	56448.16
654.76	56366.24
654.96	56104.10
655.15	55827.63
655.34	56226.98
655.54	55944.36
655.73	56235.17
655.92	56319.14
656.12	56544.42
656.31	56048.81
656.50	57111.70
656.70	56351.91
656.89	56128.68
657.08	56997.02
657.28	56351.91
657.47	56413.35
657.66	56784.03
657.86	56093.86
658.05	56325.28
658.24	56767.65
658.43	56480.93
658.63	57078.94
658.82	56353.96
659.01	56681.63
659.21	56525.99
659.40	56351.91
659.59	56267.94
659.79	56564.90
659.98	56470.69
660.17	56603.81
660.36	57132.18
660.56	56284.33
660.75	56714.40
660.94	56534.18
661.14	56358.05
661.33	56605.86
661.52	56190.12
661.71	56605.86
661.91	56007.85
662.10	56575.14
662.29	56646.82
662.49	56779.93
662.68	56693.92
662.87	56151.21
663.06	56732.83
663.26	56210.60
663.45	56999.07
663.64	56511.65
663.83	56540.32
664.03	56824.99
664.22	56294.56
664.41	56456.35
664.60	56214.69
664.80	56659.10
664.99	56353.96
665.18	56652.96
665.37	56685.73
665.57	57103.51
665.76	56466.59
665.95	56990.87
666.14	56136.87
666.34	56632.48
666.53	56368.29
666.72	56120.49
666.91	55772.33
667.11	56222.89
667.30	56831.13
667.49	56560.80
667.68	56345.76
667.87	56171.69
668.07	56001.71
668.26	56448.16
668.45	56712.35
668.64	56337.57
668.84	56802.46
669.03	56732.83
669.22	56566.94
669.41	56581.28
669.60	56554.66
669.80	56016.04
669.99	57095.32
670.18	56761.50
670.37	56728.73
670.57	57083.03
670.76	56474.79
670.95	57019.55
671.14	56566.94
671.33	56706.21
671.53	57095.32
671.72	56534.18
671.91	56751.26
672.10	56677.54
672.29	56560.80
672.48	56503.46
672.68	57167.00
672.87	56323.24
673.06	56546.47
673.25	56319.14
673.44	56251.56
673.64	56210.60
673.83	56513.70
674.02	56558.75
674.21	56095.91
674.40	56884.38
674.59	56229.03
674.79	56566.94
674.98	56153.26
675.17	56515.75
675.36	56272.04
675.55	57126.04
675.74	56333.48
675.94	56423.59
676.13	56370.34
676.32	56689.82
676.51	56669.34
676.70	56800.41
676.89	56743.07
677.08	56886.43
677.28	56431.78
677.47	56689.82
677.66	57234.58
677.85	56532.13
678.04	56956.06
678.23	57150.62
678.42	56843.42
678.62	56476.83
678.81	56673.44
679.00	56745.12
679.19	57228.44
679.38	56605.86
679.57	56319.14
679.76	56370.34
679.96	57205.91
680.15	56505.51
680.34	56456.35
680.53	56530.08
680.72	56997.02
680.91	57253.01
681.10	56532.13
681.29	56497.31
681.48	56636.58
681.68	56777.89
681.87	56712.35
682.06	56835.23
682.25	56122.54
682.44	56652.96
682.63	56597.66
682.82	56102.06
683.01	56616.10
683.20	55829.68
683.39	56353.96
683.59	56245.41
683.78	56206.50
683.97	56415.40
684.16	56124.58
684.35	56018.09
684.54	56640.67
684.73	56413.35
684.92	56212.65
685.11	55868.59
685.30	55983.27
685.49	56708.25
685.69	56530.08
685.88	56450.21
686.07	55977.13
686.26	56401.06
686.45	55905.45
686.64	56505.51
686.83	56399.01
687.02	56411.30
687.21	56276.13
687.40	56001.71
687.59	56104.10
687.78	56433.83
687.97	56183.97
688.16	56163.50
688.35	56427.68
688.54	56226.98
688.74	56341.67
688.93	56048.81
689.12	56579.23
689.31	56687.78
689.50	56075.43
689.69	55981.23
689.88	55620.78
690.07	56169.64
690.26	56202.41
690.45	56198.31
690.64	55989.42
690.83	56386.72
691.02	55907.50
691.21	56157.35
691.40	55889.07
691.59	56257.70
691.78	55604.40
691.97	56284.33
692.16	56372.39
692.35	56538.27
692.54	55999.66
692.73	56157.35
692.92	56394.92
693.11	55801.00
693.30	56171.69
693.49	56194.21
693.68	55866.54
693.87	56120.49
694.06	55819.44
694.25	55530.67
694.44	55686.32
694.63	55690.41
694.82	55784.62
695.01	56345.76
695.20	55801.00
695.39	55571.63
695.58	55950.51
695.77	55155.89
695.96	55575.73
696.15	55702.70
696.34	55989.42
696.53	55465.14
696.72	55784.62
696.91	55776.43
697.10	56065.19
697.29	55530.67
697.48	55907.50
697.67	55856.30
697.86	55588.02
698.05	55491.76
698.24	55649.45
698.43	55403.70
698.62	55616.69
698.81	55418.03
699.00	55260.34
699.19	54885.56
699.38	55291.06
699.57	55057.59
699.76	56114.34
699.95	55622.83
700.14	55424.18
700.32	54899.90
700.51	55063.74
700.70	55581.87
700.89	55420.08
701.08	55368.88
701.27	55424.18
701.46	55563.44
701.65	54817.98
701.84	55213.24
702.03	55098.55
702.22	54770.88
702.41	54957.24
702.60	55125.17
702.79	54910.14
702.98	54699.20
703.17	54949.05
703.35	54797.50
703.54	54707.39
703.73	54924.47
703.92	54916.28
704.11	55549.10
704.30	54445.25
704.49	54654.14
704.68	54613.18
704.87	54705.34
705.06	54650.05
705.25	54734.01
705.43	54586.56
705.62	54559.94
705.81	54555.84
706.00	54582.46
706.19	54564.03
706.38	54648.00
706.57	54148.29
706.76	54363.33
706.95	54482.11
707.14	53923.02
707.32	54004.94
707.51	53781.71
707.70	54316.23
707.89	54277.32
708.08	54482.11
708.27	54648.00
708.46	54848.70
708.65	54226.12
708.84	54271.17
709.02	54066.38
709.21	54193.35
709.40	54068.42
709.59	53920.97
709.78	53654.73
709.97	54414.53
710.16	54006.98
710.34	54160.58
710.53	53310.67
710.72	53834.95
710.91	54045.90
711.10	54052.04
711.29	53681.36
711.48	53720.27
711.66	53658.83
711.85	53445.84
712.04	53302.48
712.23	53456.08
712.42	53556.43
712.61	54217.92
712.80	53417.17
712.98	53669.07
713.17	53271.76
713.36	53613.77
713.55	53970.12
713.74	52876.51
713.93	53744.84
714.11	53499.09
714.30	52876.51
714.49	53087.45
714.68	53333.20
714.87	53640.40
715.06	53413.07
715.24	53152.98
715.43	53044.44
715.62	52673.76
715.81	52782.30
716.00	53081.30
716.18	52733.15
716.37	52729.05
716.56	52753.63
716.75	52712.67
716.94	52829.40
717.12	52083.94
717.31	52511.97
717.50	52524.25
717.69	52700.38
717.88	52698.33
718.06	52591.84
718.25	52788.44
718.44	52526.30
718.63	52272.35
718.82	51952.87
719.00	52565.21
719.19	52022.50
719.38	52155.62
719.57	51707.12
719.76	51559.66
719.94	51291.38
720.13	51352.82
720.32	51563.76
720.51	51666.16
720.69	51502.32
720.88	51467.50
721.07	51535.09
721.26	51092.72
721.44	51082.48
721.63	50908.41
721.82	50969.85
722.01	50855.16
722.20	51135.73
722.38	50924.79
722.57	50676.99
722.76	51123.44
722.95	50603.26
723.13	50394.37
723.32	50631.93
723.51	50701.56
723.70	50195.71
723.88	50697.47
724.07	50593.02
724.26	50576.64
724.44	49765.64
724.63	50052.36
724.82	50191.62
725.01	49831.18
725.19	50031.88
725.38	49974.53
725.57	49851.66
725.76	50117.89
725.94	49845.51
726.13	49575.18
726.32	49798.41
726.51	49960.20
726.69	49927.43
726.88	50263.30
727.07	49820.94
727.25	49427.73
727.44	49601.80
727.63	49360.14
727.82	49679.63
728.00	49790.22
728.19	49700.11
728.38	49374.48
728.56	48956.69
728.75	49505.55
728.94	49368.33
729.12	50009.35
729.31	49478.92
729.50	48915.73
729.69	49569.04
729.87	49335.57
730.06	49069.33
730.25	49370.38
730.43	49984.77
730.62	49059.09
730.81	49820.94
730.99	49253.65
731.18	49278.22
731.37	49014.04
731.55	49343.76
731.74	49370.38
731.93	49345.81
732.11	49501.45
732.30	49175.83
732.49	48923.93
732.67	49001.75
732.86	49059.09
733.05	48731.42
733.23	48704.79
733.42	48700.70
733.61	48833.81
733.79	49009.94
733.98	49235.22
734.17	48600.35
734.35	49059.09
734.54	49030.42
734.73	49354.00
734.91	48919.83
735.10	48796.95
735.29	48913.69
735.47	48362.78
735.66	48577.82
735.84	48346.40
736.03	48282.91
736.22	48950.55
736.40	48422.17
736.59	48399.65
736.78	48495.90
736.96	48213.28
737.15	48600.35
737.33	48403.74
737.52	47977.76
737.71	48047.39
737.89	48088.35
738.08	47928.61
738.27	47691.05
738.45	48280.86
738.64	48370.97
738.82	48336.16
739.01	47854.89
739.20	47924.52
739.38	47912.23
739.57	48297.25
739.75	48233.76
739.94	48010.53
740.13	47680.81
740.31	47506.73
740.50	47842.60
740.68	47885.61
740.87	47973.67
741.06	48006.44
741.24	47570.22
741.43	47312.17
741.61	47226.16
741.80	47177.01
741.99	47600.94
742.17	47097.14
742.36	47183.15
742.54	47232.30
742.73	47521.07
742.91	47752.49
743.10	47373.61
743.29	47400.24
743.47	47486.25
743.66	47054.13
743.84	47002.93
744.03	47031.60
744.21	46808.37
744.40	47256.88
744.59	46708.02
744.77	46759.22
744.96	46593.34
745.14	46996.79
745.33	47000.88
745.51	46898.48
745.70	46628.15
745.88	46562.62
746.07	47144.24
746.26	46572.86
746.44	46601.53
746.63	46605.62
746.81	46728.50
747.00	46296.38
747.18	46740.79
747.37	46482.75
747.55	46490.94
747.74	46374.20
747.92	46036.29
748.11	46374.20
748.29	46234.94
748.48	46314.81
748.66	45831.49
748.85	46099.78
749.03	46003.52
749.22	45892.93
749.41	45696.33
749.59	45915.46
749.78	46112.06
749.96	45495.63
750.15	45217.10
750.33	45753.67
750.52	45856.07
750.70	45669.70
750.89	45217.10
751.07	45176.14
751.26	45759.81
751.44	45503.82
751.63	45540.68
751.81	45473.10
752.00	45544.78
752.18	45540.68
752.37	45413.71
752.55	44940.63
752.74	45012.31
752.92	44948.82
753.10	44809.56
753.29	45210.96
753.47	44756.31
753.66	44698.97
753.84	45184.33
754.03	44739.93
754.21	44533.08
754.40	45290.83
754.58	45000.02
754.77	45026.64
754.95	44522.84
755.14	44440.92
755.32	44416.35
755.51	44555.61
755.69	44268.89
755.88	44678.49
756.06	44563.80
756.24	43935.07
756.43	44025.18
756.61	44281.18
756.80	43943.27
756.98	43998.56
757.17	44432.73
757.35	44606.81
757.54	43781.48
757.72	44080.48
757.90	44064.10
758.09	44008.80
758.27	44229.98
758.46	43672.93
758.64	44041.57
758.83	44244.32
759.01	43896.16
759.19	43865.44
759.38	43566.44
759.56	44103.01
759.75	44166.49
759.93	43533.67
760.12	43478.38
760.30	43869.54
760.48	43380.07
760.67	43636.07
760.85	43900.26
761.04	43388.27
761.22	43251.05
761.40	43953.51
761.59	43472.23
761.77	42980.72
761.96	43029.87
762.14	43167.09
762.32	42925.42
762.51	42876.27
762.69	42863.99
762.88	43414.89
763.06	42702.20
763.24	43224.43
763.43	42906.99
763.61	43277.68
763.80	42915.19
763.98	42880.37
764.16	42915.19
764.35	42345.85
764.53	42507.64
764.72	42585.46
764.90	42767.73
765.08	42749.30
765.27	42544.50
765.45	41909.63
765.63	42038.65
765.82	42425.72
766.00	42265.98
766.18	42122.62
766.37	42564.98
766.55	42182.01
766.74	42022.27
766.92	42253.69
767.10	42249.60
767.29	42116.48
767.47	41661.83
767.65	41747.84
767.84	41471.37
768.02	42110.33
768.20	41442.70
768.39	42009.98
768.57	41745.80
768.75	41950.59
768.94	42290.55
769.12	41762.18
769.30	41592.20
769.49	41500.04
769.67	40754.58
769.85	40914.32
770.04	41330.06
770.22	41235.85
770.40	41135.50
770.59	40809.87
770.77	41457.03
770.95	41495.94
771.14	41182.60
771.32	40957.33
771.50	40906.13
771.69	40777.11
771.87	40891.79
772.05	41211.28
772.24	40785.30
772.42	40809.87
772.60	40643.99
772.78	40500.63
772.97	40435.10
773.15	40863.12
773.33	40732.05
773.52	40379.80
773.70	40922.51
773.88	40934.80
774.07	40269.21
774.25	40658.32
774.43	40539.54
774.61	40621.46
774.80	40318.36
774.98	40588.69
775.16	40697.24
775.34	40672.66
775.53	40418.71
775.71	40822.16
775.89	40920.46
776.08	40924.56
776.26	41047.44
776.44	41002.38
776.62	40701.33
776.81	40367.51
776.99	40940.94
777.17	40641.94
777.35	41219.47
777.54	41266.57
777.72	40525.21
777.90	40760.72
778.08	40918.42
778.27	40834.45
778.45	41147.79
778.63	41026.96
778.81	41061.77
779.00	41450.89
779.18	41151.88
779.36	41809.28
779.54	41244.04
779.73	40969.61
779.91	41366.92
780.09	41477.51
780.27	41420.17
780.46	41385.35
780.64	41516.42
780.82	41231.75
781.00	40899.98
781.19	41608.58
781.37	41555.33
781.55	41522.57
781.73	41504.13
781.91	41438.60
782.10	41457.03
782.28	41676.16
782.46	41584.01
782.64	41420.17
782.82	41461.13
783.01	41811.33
783.19	41829.76
783.37	41588.10
783.55	41725.32
783.74	42134.91
783.92	41729.41
784.10	42112.38
784.28	41829.76
784.46	41454.98
784.64	41661.83
784.83	41989.50
785.01	42122.62
785.19	41844.10
785.37	41887.10
785.55	41952.64
785.74	41620.87
785.92	41555.33
786.10	41887.10
786.28	41715.08
786.46	41852.29
786.64	41526.66
786.83	41541.00
787.01	41833.86
787.19	41887.10
787.37	41072.01
787.55	41751.94
787.74	41434.50
787.92	41131.40
788.10	41581.96
788.28	40963.47
788.46	41311.63
788.64	41545.09
788.82	41577.86
789.01	41067.92
789.19	41735.56
789.37	41170.32
789.55	41104.78
789.73	41084.30
789.91	41121.16
790.09	40992.14
790.28	40785.30
790.46	40564.12
790.64	40725.91
790.82	41049.49
791.00	40662.42
791.18	40410.52
791.36	40904.08
791.55	40795.54
791.73	40127.90
791.91	40191.39
792.09	40433.05
792.27	40277.40
792.45	40566.16
792.63	40019.36
792.81	40033.69
793.00	40154.52
793.18	39865.76
793.36	39906.72
793.54	39953.82
793.72	39431.59
793.90	39474.60
794.08	39433.64
794.26	39644.58
794.44	39636.39
794.62	39261.61
794.81	39091.63
794.99	39220.65
795.17	39230.89
795.35	38931.89
795.53	39290.28
795.71	39263.66
795.89	38892.97
796.07	38952.37
796.25	38759.86
796.43	38462.90
796.61	38419.89
796.80	38327.74
796.98	38401.46
797.16	38266.30
797.34	38417.85
797.52	37854.65
797.70	38811.06
797.88	38198.71
798.06	37821.89
798.24	37963.20
798.42	38045.12
798.60	37907.90
798.78	37680.58
798.96	37846.46
799.14	37430.72
799.32	37512.64
799.51	37168.58
799.69	37647.81
799.87	37471.68
800.05	37428.68
800.23	37471.68
800.41	37123.53
800.59	37148.11
800.77	36775.37
800.95	36668.88
801.13	36689.36
801.31	36926.92
801.49	36738.51
801.67	36423.12
801.85	36396.50
802.03	36382.16
802.21	36595.15
802.39	36578.77
802.57	36343.25
802.75	36154.84
802.93	36189.66
803.11	35997.15
803.29	36214.23
803.47	35775.97
803.65	35839.45
803.83	35925.47
804.01	35919.32
804.19	35399.14
804.37	35503.59
804.55	35243.49
804.73	35300.84
804.91	35050.99
805.09	35300.84
805.27	34973.16
805.45	35368.42
805.63	35249.64
805.81	35288.55
805.99	35112.42
806.17	35184.10
806.35	34991.59
806.53	34594.29
806.71	34844.14
806.89	34696.69
807.07	34686.45
807.25	34358.77
807.43	34506.23
807.61	34852.33
807.79	34479.60
807.97	33986.04
808.15	34323.96
808.33	34014.71
808.51	33947.13
808.69	34438.64
808.87	33674.75
809.05	33738.24
809.23	34018.81
809.41	33412.61
809.59	33719.81
809.77	33844.73
809.95	33830.40
810.13	33576.45
810.31	33574.40
810.49	33519.10
810.67	33459.71
810.84	33435.14
811.02	33181.19
811.20	33031.69
811.38	33293.83
811.56	32759.31
811.74	32687.63
811.92	32871.95
812.10	32925.19
812.28	32806.41
812.46	32503.31
812.64	32589.33
812.82	32116.25
813.00	32802.32
813.18	32632.33
813.36	32486.93
813.53	32120.34
813.71	32265.75
813.89	32491.02
814.07	32292.37
814.25	32161.30
814.43	32063.00
814.61	31858.20
814.79	31983.13
814.97	31766.04
815.15	31901.21
815.33	31698.46
815.50	31520.29
815.68	31610.40
815.86	31804.95
816.04	31727.13
816.22	31452.70
816.40	31559.20
816.58	31467.04
816.76	31378.98
816.94	31706.65
817.11	31243.81
817.29	31217.19
817.47	31159.84
817.65	31034.92
817.83	31075.88
818.01	30938.66
818.19	30672.43
818.37	31100.45
818.54	30617.13
818.72	30516.78
818.90	30807.59
819.08	30610.99
819.26	30537.26
819.44	30668.33
819.62	30471.73
819.80	30326.32
819.97	30623.28
820.15	30055.99
820.33	30340.66
820.51	30584.37
820.69	29922.87
820.87	30068.28
821.05	30393.90
821.22	29922.87
821.40	30111.28
821.58	30080.56
821.76	30047.80
821.94	30070.33
822.12	29931.06
822.29	29826.62
822.47	29619.77
822.65	30096.95
822.83	30090.80
823.01	29728.31
823.19	29474.37
823.36	29251.14
823.54	29294.14
823.72	29546.05
823.90	29535.81
824.08	29525.57
824.25	29449.79
824.43	29228.61
824.61	29189.70
824.79	29515.33
824.97	29228.61
825.15	29234.75
825.32	29179.46
825.50	29255.23
825.68	28819.02
825.86	29210.18
826.04	28851.78
826.21	28950.09
826.39	28810.82
826.57	28687.95
826.75	28880.46
826.93	28649.03
827.10	29064.77
827.28	28694.09
827.46	28669.51
827.64	28513.87
827.81	28491.34
827.99	28302.93
828.17	28134.99
828.35	28352.08
828.53	28167.76
828.70	28460.62
828.88	28585.55
829.06	28485.20
829.24	28485.20
829.41	27973.21
829.59	28448.33
829.77	28384.85
829.95	27989.59
830.12	28147.28
830.30	28069.46
830.48	27797.08
830.66	28167.76
830.84	28104.28
831.01	27614.81
831.19	27731.54
831.37	27762.26
831.55	27762.26
831.72	27485.79
831.90	27772.50
832.08	27739.74
832.25	27524.70
832.43	27444.83
832.61	27287.14
832.79	27176.55
832.96	27248.22
833.14	27512.41
833.32	27461.21
833.50	27426.40
833.67	27623.00
833.85	26959.46
834.03	26969.70
834.20	27229.79
834.38	26998.37
834.56	27268.70
834.74	26936.93
834.91	27125.35
835.09	26955.36
835.27	26420.84
835.44	26850.92
835.62	26369.65
835.80	26996.32
835.98	26867.30
836.15	26898.02
836.33	26574.44
836.51	26869.35
836.68	26535.53
836.86	26429.04
837.04	26781.29
837.21	26533.48
837.39	26672.74
837.57	26422.89
837.75	26549.87
837.92	26044.02
838.10	26560.11
838.28	26044.02
838.45	26295.92
838.63	26287.73
838.81	26117.75
838.98	25923.19
839.16	25857.65
839.34	25796.21
839.51	26164.85
839.69	25638.52
839.87	25740.92
840.04	25783.93
840.22	26076.79
840.40	25675.38
840.57	25323.13
840.75	26175.09
840.93	25118.34
841.10	25654.90
841.28	25917.04
841.46	25751.16
841.63	25734.78
841.81	25489.02
841.98	25503.35
842.16	25536.12
842.34	25593.47
842.51	25161.34
842.69	25446.01
842.87	25077.38
843.04	25677.43
843.22	24995.46
843.40	25142.91
843.57	25171.58
843.75	25220.74
843.92	25276.03
844.10	25185.92
844.28	25214.59
844.45	25239.17
844.63	25384.57
844.81	24884.87
844.98	25060.99
845.16	24766.09
845.33	24637.06
845.51	24848.00
845.69	24637.06
845.86	24700.55
846.04	24559.24
846.21	24835.72
846.39	24626.82
846.57	24333.96
846.74	24776.33
846.92	24411.79
847.09	24276.62
847.27	24254.09
847.45	24618.63
847.62	24379.02
847.80	24336.01
847.97	24231.57
848.15	24067.73
848.32	23934.61
848.50	24354.44
848.68	24055.44
848.85	24204.94
849.03	23621.27
849.20	23615.13
849.38	23981.71
849.56	23752.34
849.73	23801.49
849.91	23922.32
850.08	23948.95
850.26	23711.38
850.43	23785.11
850.61	23807.64
850.78	23404.19
850.96	23639.70
851.14	23420.57
851.31	23731.86
851.49	23555.74
851.66	23545.50
851.84	23453.34
852.01	23412.38
852.19	23568.02
852.36	23172.77
852.54	23410.33
852.71	23445.15
852.89	23307.93
853.07	23314.08
853.24	23406.23
853.42	23414.43
853.59	23459.48
853.77	23193.25
853.94	23328.41
854.12	23330.46
854.29	22826.66
854.47	23162.53
854.64	22982.31
854.82	22820.52
854.99	22990.50
855.17	22730.41
855.34	23342.75
855.52	22800.04
855.69	23047.84
855.87	22603.43
856.04	22382.25
856.22	22566.57
856.39	22576.81
856.57	22509.22
856.74	22640.29
856.92	22521.51
857.09	22474.41
857.27	22492.84
857.44	22709.93
857.62	22511.27
857.79	22466.22
857.97	22451.88
858.14	22331.05
858.32	22161.07
858.49	22290.09
858.67	22386.35
858.84	22185.65
859.02	22361.77
859.19	22038.19
859.37	22109.87
859.54	21962.42
859.72	22224.56
859.89	21925.55
860.06	22220.46
860.24	21915.31
860.41	21853.87
860.59	21808.82
860.76	22113.97
860.94	21817.01
861.11	22001.33
861.29	21790.39
861.46	21798.58
861.64	21628.60
861.81	21452.47
861.98	21530.30
862.16	21411.51
862.33	21219.00
862.51	21345.98
862.68	21384.89
862.86	21450.42
863.03	21302.97
863.21	21345.98
863.38	21431.99
863.55	21055.17
863.73	21167.80
863.90	21419.71
864.08	21157.57
864.25	21333.69
864.43	21198.52
864.60	20989.63
864.77	20895.43
864.95	20704.96
865.12	20651.72
865.30	20944.58
865.47	20733.64
865.64	20848.32
865.82	20928.19
865.99	20922.05
866.17	20788.93
866.34	20766.40
866.51	20444.87
866.69	20686.53
866.86	20715.20
867.04	20577.99
867.21	20821.70
867.38	20504.26
867.56	20160.20
867.73	20375.24
867.91	20029.13
868.08	20326.09
868.25	20086.48
868.43	20053.71
868.60	20149.96
868.78	19949.26
868.95	20481.74
869.12	20020.94
869.30	20068.05
869.47	20278.99
869.64	20090.57
869.82	20008.65
869.99	19834.58
870.16	20268.75
870.34	19846.87
870.51	20066.00
870.69	19936.98
870.86	19855.06
871.03	20014.80
871.21	19742.42
871.38	19748.56
871.55	19592.92
871.73	19560.15
871.90	19275.48
872.07	19533.53
872.25	19330.78
872.42	19472.09
872.59	19453.66
872.77	19324.63
872.94	19338.97
873.11	19506.90
873.29	19207.90
873.46	19132.12
873.63	18974.43
873.81	19287.77
873.98	18966.24
874.15	19109.60
874.33	18974.43
874.50	18618.08
874.67	19097.31
874.85	18855.65
875.02	18755.30
875.19	18566.88
875.37	18544.36
875.54	18476.77
875.71	18628.32
875.88	18673.38
876.06	18458.34
876.23	18470.63
876.40	18409.19
876.58	18403.05
876.75	18411.24
876.92	18355.94
877.10	18030.32
877.27	18028.27
877.44	18063.08
877.61	18003.69
877.79	18142.96
877.96	18202.35
878.13	18052.84
878.31	17970.93
878.48	18216.68
878.65	18020.08
878.82	17911.53
879.00	17882.86
879.17	18034.41
879.34	17768.18
879.51	17792.75
879.69	17676.02
879.86	17581.81
880.03	17579.76
880.21	17454.84
880.38	17647.35
880.55	17469.17
880.72	17637.11
880.90	17196.79
881.07	17286.90
881.24	17422.07
881.41	17553.14
881.59	17491.70
881.76	17397.49
881.93	17276.66
882.10	17108.73
882.28	17313.53
882.45	17317.62
882.62	17108.73
882.79	17436.41
882.96	17129.21
883.14	17217.27
883.31	17331.96
883.48	16989.95
883.65	17227.51
883.83	17147.64
884.00	16893.69
884.17	16885.50
884.34	17133.31
884.51	16783.10
884.69	16948.99
884.86	16975.61
885.03	16822.02
885.20	16672.51
885.38	16930.56
885.55	16797.44
885.72	16643.84
885.89	16815.87
886.06	16662.27
886.24	16615.17
886.41	16486.15
886.58	16723.71
886.75	16846.59
886.92	16500.48
887.10	16518.92
887.27	16402.18
887.44	16576.26
887.61	16715.52
887.78	16598.79
887.95	16531.20
888.13	16322.31
888.30	16459.52
888.47	15998.73
888.64	16353.03
888.81	16418.57
888.99	16441.09
889.16	15914.77
889.33	16148.23
889.50	16058.12
889.67	16240.39
889.84	16068.36
890.01	16264.97
890.19	15916.81
890.36	15933.20
890.53	16125.71
890.70	16004.88
890.87	15740.69
891.04	15818.51
891.22	15763.22
891.39	15802.13
891.56	15804.17
891.73	15664.91
891.90	15415.06
892.07	15570.71
892.24	15593.23
892.42	15558.42
892.59	15828.75
892.76	15548.18
892.93	15429.40
893.10	15838.99
893.27	15587.09
893.44	15671.06
893.61	15402.77
893.79	15765.26
893.96	15472.40
894.13	15472.40
894.30	15648.53
894.47	15464.21
894.64	15664.91
894.81	15247.13
894.98	15765.26
895.15	15640.34
895.33	15388.44
895.50	15216.41
895.67	15738.64
895.84	15574.80
896.01	15589.14
896.18	15212.31
896.35	15714.06
896.52	15208.22
896.69	15333.14
896.86	15521.56
897.04	15308.57
897.21	15478.55
897.38	15140.63
897.55	15484.69
897.72	15251.22
897.89	15351.57
898.06	15191.83
898.23	15183.64
898.40	15238.94
898.57	15202.07
898.74	15142.68
898.91	15464.21
899.08	15058.71
899.26	15288.09
899.43	15357.72
899.60	15114.01
899.77	15206.17
899.94	15126.30
900.11	14847.77
900.28	15107.87
900.45	15183.64
900.62	15122.20
900.79	15361.81
900.96	14968.60
901.13	15296.28
901.30	15142.68
901.47	15034.14
901.64	15138.58
901.81	15482.64
901.98	15085.34
902.15	15488.79
902.32	15169.30
902.49	15023.90
902.66	15259.42
902.83	14892.83
903.01	15052.57
903.18	15120.15
903.35	15245.08
903.52	15120.15
903.69	15261.46
903.86	14995.23
904.03	15249.18
904.20	15372.05
904.37	15097.63
904.54	15193.88
904.71	15126.30
904.88	15144.73
905.05	14907.16
905.22	15046.43
905.39	14970.65
905.56	14941.98
905.73	15068.95
905.90	15236.89
906.07	14968.60
906.24	15085.34
906.41	15062.81
906.58	15208.22
906.75	15193.88
906.92	14927.64
907.09	14939.93
907.26	14808.86
907.43	14903.07
907.60	15114.01
907.77	15257.37
907.93	15073.05
908.10	14882.59
908.27	15017.75
908.44	15066.91
908.61	14880.54
908.78	14858.01
908.95	14993.18
909.12	14962.46
909.29	14761.76
909.46	15111.96
909.63	15140.63
909.80	15238.94
909.97	15095.58
910.14	15101.72
910.31	14886.68
910.48	14913.31
910.65	14782.24
910.82	14812.96
910.99	15036.19
911.16	14708.51
911.33	14894.88
911.50	14919.45
911.66	14772.00
911.83	14917.40
912.00	14677.79
912.17	14681.89
912.34	14669.60
912.51	14442.28
912.68	14401.32
912.85	14460.71
913.02	14714.66
913.19	14370.60
913.36	14442.28
913.53	14495.52
913.70	14401.32
913.86	14655.26
914.03	14448.42
914.20	14237.48
914.37	14548.77
914.54	14505.76
914.71	14485.28
914.88	14303.01
915.05	14251.81
915.22	14171.94
915.39	14370.60
915.55	14337.83
915.72	14122.79
915.89	14212.90
916.06	13915.95
916.23	14194.47
916.40	14051.11
916.57	14264.10
916.74	14020.39
916.91	13956.91
917.07	13831.98
917.24	13655.86
917.41	13836.08
917.58	13788.97
917.75	13602.61
917.92	13727.53
918.09	13535.03
918.26	13430.58
918.42	13590.32
918.59	13666.10
918.76	13358.90
918.93	13561.65
919.10	13436.72
919.27	13389.62
919.44	13453.11
919.60	13238.07
919.77	13256.50
919.94	13293.37
920.11	13184.82
920.28	13236.02
920.45	13240.12
920.61	13084.47
920.78	13178.68
920.95	13002.55
921.12	13012.79
921.29	13068.09
921.46	12959.55
921.62	12904.25
921.79	13025.08
921.96	12834.62
922.13	12621.63
922.30	12713.79
922.47	12623.68
922.63	12562.24
922.80	12670.78
922.97	12496.71
923.14	12482.37
923.31	12412.74
923.47	12291.91
923.64	12576.58
923.81	12259.14
923.98	12304.20
924.15	12150.60
924.32	12212.04
924.48	12257.09
924.65	12195.65
924.82	11923.27
924.99	12042.06
925.15	11982.67
925.32	12068.68
925.49	11751.24
925.66	11841.36
925.83	11956.04
925.99	11654.99
926.16	11702.09
926.33	11833.16
926.50	11417.43
926.67	11511.63
926.83	11521.87
927.00	11536.21
927.17	11372.37
927.34	11310.93
927.50	11312.98
927.67	11374.42
927.84	11312.98
928.01	11259.73
928.17	11190.10
928.34	10954.58
928.51	11052.89
928.68	10899.29
928.84	10905.43
929.01	10944.34
929.18	10714.97
929.35	10839.90
929.51	10766.17
929.68	10665.82
929.85	10717.02
930.02	10843.99
930.18	10665.82
930.35	10702.68
930.52	10534.75
930.69	10475.36
930.85	10651.49
931.02	10202.98
931.19	10526.56
931.36	10207.08
931.52	10266.47
931.69	10528.61
931.86	10301.28
932.02	10286.95
932.19	9873.26
932.36	9989.99
932.53	10014.57
932.69	9953.13
932.86	10194.79
933.03	9953.13
933.19	9690.99
933.36	10078.05
933.53	9815.91
933.70	9713.52
933.86	9871.21
934.03	9492.34
934.20	9449.33
934.36	9539.44
934.53	9312.11
934.70	9211.76
934.86	9201.52
935.03	9236.34
935.20	9262.96
935.36	9193.33
935.53	8945.53
935.70	8974.20
935.86	9025.40
936.03	8697.72
936.20	8695.68
936.36	8791.93
936.53	8605.56
936.70	8556.41
936.86	8685.44
937.03	8441.73
937.20	8308.61
937.36	8478.59
937.53	8193.92
937.70	8046.47
937.86	7942.02
938.03	7946.12
938.20	8073.09
938.36	7876.49
938.53	7819.14
938.70	7505.81
938.86	7579.53
939.03	7593.87
939.20	7448.46
939.36	7354.26
939.53	7325.58
939.70	7311.25
939.86	7176.08
940.03	6993.81
940.19	6983.57
940.36	7040.92
940.53	6868.89
940.69	6586.27
940.86	6682.52
941.03	6551.45
941.19	6401.95
941.36	6447.01
941.52	6434.72
941.69	6438.81
941.86	6201.25
942.02	6404.00
942.19	6195.11
942.35	6184.87
942.52	5975.97
942.69	6043.56
942.85	6010.79
943.02	5955.49
943.18	5879.72
943.35	5816.23
943.52	5877.67
943.68	5787.56
943.85	5816.23
944.01	5762.98
944.18	5648.30
944.35	5631.91
944.51	5642.15
944.68	5515.18
944.84	5564.33
945.01	5533.61
945.17	5670.83
945.34	5449.64
945.51	5574.57
945.67	5486.51
945.84	5443.50
946.00	5457.84
946.17	5457.84
946.33	5431.21
946.50	5463.98
946.67	5380.01
946.83	5486.51
947.00	5367.73
947.16	5267.38
947.33	5308.34
947.49	5410.73
947.66	5289.90
947.82	5476.27
947.99	5330.86
948.16	5445.55
948.32	5394.35
948.49	5318.57
948.65	5386.16
948.82	5357.49
948.98	5294.00
949.15	5408.69
949.31	5427.12
949.48	5318.57
949.64	5439.40
949.81	5414.83
949.97	5382.06
950.14	5388.21
950.30	5343.15
950.47	5447.60
950.63	5371.82
950.80	5539.76
950.96	5492.65
951.13	5312.43
951.30	5451.69
951.46	5420.97
951.63	5502.89
951.79	5455.79
951.96	5384.11
952.12	5371.82
952.29	5433.26
952.45	5322.67
952.62	5380.01
952.78	5590.95
952.94	5402.54
953.11	5527.47
953.27	5294.00
953.44	5590.95
953.60	5441.45
953.77	5394.35
953.93	5480.36
954.10	5533.61
954.26	5396.40
954.43	5595.05
954.59	5560.24
954.76	5666.73
954.92	5398.45
955.09	5500.84
955.25	5644.20
955.42	5511.08
955.58	5619.63
955.75	5642.15
955.91	5670.83
956.07	5556.14
956.24	5568.43
956.40	5509.04
956.57	5633.96
956.73	5603.24
956.90	5607.34
957.06	5689.26
957.23	5494.70
957.39	5480.36
957.56	5584.81
957.72	5474.22
957.88	5638.06
958.05	5738.41
958.21	5654.44
958.38	5586.86
958.54	5558.19
958.71	5644.20
958.87	5398.45
959.03	5552.04
959.20	5611.43
959.36	5633.96
959.53	5564.33
959.69	5486.51
959.85	5603.24
960.02	5377.97
960.18	5658.54
960.35	5642.15
960.51	5584.81
960.68	5488.56
960.84	5584.81
961.00	5558.19
961.17	5586.86
961.33	5597.10
961.50	5406.64
961.66	5580.71
961.82	5607.34
961.99	5433.26
962.15	5521.32
962.31	5535.66
962.48	5543.85
962.64	5580.71
962.81	5539.76
962.97	5517.23
963.13	5670.83
963.30	5650.35
963.46	5484.46
963.62	5525.42
963.79	5509.04
963.95	5398.45
964.12	5488.56
964.28	5506.99
964.44	5390.25
964.61	5636.01
964.77	5437.36
964.93	5615.53
965.10	5519.28
965.26	5509.04
965.42	5474.22
965.59	5398.45
965.75	5572.52
965.92	5466.03
966.08	5427.12
966.24	5343.15
966.41	5384.11
966.57	5365.68
966.73	5406.64
966.90	5468.08
967.06	5480.36
967.22	5408.69
967.39	5314.48
967.55	5246.90
967.71	5406.64
967.88	5224.37
968.04	5181.36
968.20	5408.69
968.37	5314.48
968.53	5285.81
968.69	5300.14
968.85	5240.75
969.02	5410.73
969.18	5476.27
969.34	5386.16
969.51	5410.73
969.67	5304.24
969.83	5207.98
970.00	5332.91
970.16	5222.32
970.32	5253.04
970.48	5291.95
970.65	5169.07
970.81	5248.94
970.97	5074.87
971.14	5052.34
971.30	5294.00
971.46	5091.25
971.63	5091.25
971.79	5214.13
971.95	5072.82
972.11	5177.26
972.28	5140.40
972.44	5201.84
972.60	4972.47
972.76	5017.52
972.93	5007.28
973.09	5068.72
973.25	5046.20
973.42	5087.15
973.58	5027.76
973.74	5142.45
973.90	5087.15
974.07	5001.14
974.23	4992.95
974.39	4929.46
974.55	4921.27
974.72	4917.17
974.88	4917.17
975.04	4929.46
975.20	4921.27
975.37	4861.88
975.53	4868.02
975.69	5097.39
975.85	4863.93
976.01	4798.39
976.18	4775.86
976.34	4853.69
976.50	4769.72
976.66	4966.32
976.83	4880.31
976.99	4863.93
977.15	4716.47
977.31	4698.04
977.47	4827.06
977.64	4702.14
977.80	4700.09
977.96	4724.66
978.12	4569.02
978.29	4698.04
978.45	4640.70
978.61	4614.07
978.77	4829.11
978.93	4560.83
979.10	4669.37
979.26	4652.98
979.42	4540.35
979.58	4548.54
979.74	4487.10
979.91	4513.72
980.07	4609.98
980.23	4722.62
980.39	4509.63
980.55	4480.96
980.71	4382.65
980.88	4458.43
981.04	4470.72
981.20	4538.30
981.36	4450.24
981.52	4499.39
981.68	4423.61
981.85	4450.24
982.01	4501.44
982.17	4489.15
982.33	4480.96
982.49	4513.72
982.65	4362.17
982.82	4435.90
982.98	4315.07
983.14	4259.78
983.30	4403.13
983.46	4437.95
983.62	4429.76
983.79	4331.45
983.95	4460.48
984.11	4329.41
984.27	4386.75
984.43	4286.40
984.59	4337.60
984.75	4450.24
984.91	4261.82
985.08	4376.51
985.24	4284.35
985.40	4145.09
985.56	4245.44
985.72	4253.63
985.88	4214.72
986.04	4222.91
986.20	4145.09
986.37	4227.01
986.53	4138.94
986.69	4308.93
986.85	4132.80
987.01	4104.13
987.17	4245.44
987.33	4059.07
987.49	4052.93
987.65	4153.28
987.82	4208.58
987.98	4048.83
988.14	4022.21
988.30	4007.87
988.46	3973.06
988.62	4022.21
988.78	4040.64
988.94	4026.31
989.10	3950.53
989.26	3792.84
989.42	3880.90
989.59	3870.66
989.75	3841.99
989.91	3919.81
990.07	3764.17
990.23	3921.86
990.39	3805.13
990.55	3899.33
990.71	3635.14
990.87	3841.99
991.03	3862.47
991.19	3809.22
991.35	3721.16
991.51	3846.09
991.67	3897.28
991.83	3811.27
992.00	3817.41
992.16	3854.28
992.32	3848.13
992.48	3862.47
992.64	3653.58
992.80	3747.78
992.96	3729.35
993.12	3739.59
993.28	3737.54
993.44	3696.58
993.60	3846.09
993.76	3657.67
993.92	3637.19
994.08	3747.78
994.24	3749.83
994.40	3692.49
994.56	3858.37
994.72	3692.49
994.88	3542.99
995.04	3635.14
995.20	3594.19
995.36	3598.28
995.52	3633.10
995.68	3518.41
995.84	3547.08
996.00	3569.61
996.16	3536.84
996.32	3563.47
996.48	3551.18
996.64	3530.70
996.80	3522.51
996.96	3489.74
997.12	3522.51
997.28	3450.83
997.44	3340.24
997.60	3598.28
997.76	3469.26
997.92	3485.64
998.08	3504.07
998.24	3416.01
998.40	3370.96
998.56	3432.40
998.72	3301.33
998.88	3348.43
999.04	3295.18
999.20	3407.82
999.36	3362.76
999.52	3383.24
999.68	3368.91
999.84	3422.16
1000.00	3413.96
1000.16	3469.26
1000.32	3373.00
1000.48	3430.35
1000.64	3246.03
1000.80	3264.46
1000.95	3153.87
1001.11	3305.42
1001.27	3332.05
1001.43	3301.33
1001.59	3262.41
1001.75	3274.70
1001.91	3295.18
1002.07	3155.92
1002.23	3076.05
1002.39	3139.54
1002.55	3192.78
1002.71	3133.39
1002.87	3117.01
1003.03	3225.55
1003.19	3133.39
1003.34	3278.80
1003.50	3157.97
1003.66	3198.93
1003.82	3067.86
1003.98	3117.01
1004.14	3139.54
1004.30	3153.87
1004.46	3137.49
1004.62	3059.67
1004.78	2987.99
1004.94	3100.62
1005.09	3129.30
1005.25	3170.26
1005.41	3117.01
1005.57	3059.67
1005.73	2996.18
1005.89	2928.60
1006.05	3084.24
1006.21	3016.66
1006.37	2963.41
1006.52	2861.01
1006.68	2867.16
1006.84	3049.43
1007.00	2916.31
1007.16	2822.10
1007.32	2973.65
1007.48	2801.62
1007.64	2979.79
1007.79	2848.72
1007.95	2777.05
1008.11	3022.80
1008.27	2887.64
1008.43	2852.82
1008.59	2908.12
1008.75	2936.79
1008.91	2936.79
1009.06	2875.35
1009.22	2861.01
1009.38	2830.29
1009.54	2908.12
1009.70	2863.06
1009.86	2840.53
1010.01	2801.62
1010.17	2807.77
1010.33	2801.62
1010.49	2809.81
1010.65	2830.29
1010.81	2672.60
1010.96	2809.81
1011.12	2691.03
1011.28	2764.76
1011.44	2836.44
1011.60	2768.85
1011.76	2623.45
1011.91	2721.75
1012.07	2643.93
1012.23	2637.78
1012.39	2609.11
1012.55	2686.94
1012.71	2643.93
1012.86	2697.17
1013.02	2725.85
1013.18	2621.40
1013.34	2611.16
1013.50	2801.62
1013.65	2707.41
1013.81	2643.93
1013.97	2586.58
1014.13	2678.74
1014.29	2629.59
1014.44	2719.70
1014.60	2652.12
1014.76	2652.12
1014.92	2590.68
1015.07	2629.59
1015.23	2637.78
1015.39	2525.15
1015.55	2531.29
1015.71	2600.92
1015.86	2537.43
1016.02	2549.72
1016.18	2551.77
1016.34	2572.25
1016.49	2527.19
1016.65	2531.29
1016.81	2547.67
1016.97	2613.21
1017.12	2590.68
1017.28	2406.36
1017.44	2400.22
1017.60	2416.60
1017.75	2586.58
1017.91	2494.43
1018.07	2385.88
1018.23	2457.56
1018.38	2473.95
1018.54	2482.14
1018.70	2432.99
1018.86	2355.16
1019.01	2496.47
1019.17	2484.19
1019.33	2445.27
1019.49	2330.59
1019.64	2449.37
1019.80	2508.76
1019.96	2512.86
1020.12	2387.93
1020.27	2365.40
1020.43	2291.68
1020.59	2480.09
1020.74	2334.68
1020.90	2394.08
1021.06	2258.91
1021.22	2363.36
1021.37	2389.98
1021.53	2303.96
1021.69	2328.54
1021.84	2285.53
1022.00	2353.12
1022.16	2297.82
1022.31	2308.06
1022.47	2430.94
1022.63	2400.22
1022.79	2258.91
1022.94	2334.68
1023.10	2398.17
1023.26	2287.58
1023.41	2293.72
1023.57	2299.87
1023.73	2299.87
1023.88	2285.53
1024.04	2213.85
1024.20	2199.52
1024.35	2297.82
1024.51	2273.25
1024.67	2275.29
1024.82	2322.40
1024.98	2164.70
1025.14	2293.72
1025.29	2197.47
1025.45	2346.97
1025.61	2183.13
1025.76	2174.94
1025.92	2205.66
1026.08	2244.57
1026.23	2285.53
1026.39	2281.44
1026.55	2193.37
1026.70	2234.33
1026.86	2125.79
1027.02	2211.81
1027.17	2189.28
1027.33	2228.19
1027.48	2222.05
1027.64	2195.42
1027.80	2154.46
1027.95	2078.69
1028.11	2056.16
1028.27	2183.13
1028.42	2172.89
1028.58	2031.58
1028.73	2117.60
1028.89	2131.94
1029.05	2183.13
1029.20	2121.70
>>>>>End Processed Spectral Data<<<<<
