SpectraSuite Data File
++++++++++++++++++++++++++++++++++++
Date: Fri Jun 02 14:52:23 CEST 2017
User: INFO_000
Dark Spectrum Present: No
Reference Spectrum Present: No
Number of Sampled Component Spectra: 1
Spectrometers: USB4H00879
Integration Time (usec): 80000 (USB4H00879)
Spectra Averaged: 1 (USB4H00879)
Boxcar Smoothing: 0 (USB4H00879)
Correct for Electrical Dark: No (USB4H00879)
Strobe/Lamp Enabled: No (USB4H00879)
Correct for Detector Non-linearity: No (USB4H00879)
Correct for Stray Light: No (USB4H00879)
Number of Pixels in Processed Spectrum: 3648
>>>>>Begin Processed Spectral Data<<<<<
345.13	1284.08
345.34	1284.08
345.56	1284.08
345.78	1226.73
345.99	1236.97
346.21	1705.96
346.42	1679.33
346.64	1667.05
346.86	1744.87
347.07	1617.90
347.29	1712.10
347.50	1632.23
347.72	1716.20
347.94	1748.97
348.15	1574.89
348.37	1605.61
348.59	1722.34
348.80	1638.38
349.02	1732.58
349.23	1773.54
349.45	1701.86
349.67	1834.98
349.88	1794.02
350.10	1832.93
350.31	1697.77
350.53	1720.29
350.75	1869.80
350.96	1642.47
351.18	1798.12
351.39	1691.62
351.61	1658.85
351.82	1683.43
352.04	1697.77
352.26	1708.01
352.47	1748.97
352.69	1742.82
352.90	1626.09
353.12	1656.81
353.34	1720.29
353.55	1781.73
353.77	1740.77
353.98	1675.24
354.20	1654.76
354.41	1740.77
354.63	1789.92
354.85	1837.03
355.06	1683.43
355.28	1673.19
355.49	1759.21
355.71	1734.63
355.92	1720.29
356.14	1814.50
356.35	1634.28
356.57	1675.24
356.79	1808.36
357.00	1683.43
357.22	1726.44
357.43	1646.57
357.65	1736.68
357.86	1716.20
358.08	1693.67
358.29	1765.35
358.51	1828.84
358.72	1769.44
358.94	1669.09
359.16	1697.77
359.37	1753.06
359.59	1716.20
359.80	1755.11
360.02	1642.47
360.23	1720.29
360.45	1806.31
360.66	1691.62
360.88	1572.84
361.09	1642.47
361.31	1773.54
361.52	1746.92
361.74	1816.55
361.95	1798.12
362.17	1667.05
362.38	1830.88
362.60	1771.49
362.81	1724.39
363.03	1675.24
363.24	1693.67
363.46	1748.97
363.67	1677.29
363.89	1718.25
364.10	1693.67
364.32	1718.25
364.53	1769.44
364.75	1626.09
364.96	1744.87
365.18	1798.12
365.39	1677.29
365.61	1601.51
365.82	1847.27
366.04	1685.48
366.25	1630.18
366.47	1748.97
366.68	1636.33
366.90	1638.38
367.11	1726.44
367.33	1746.92
367.54	1718.25
367.76	1677.29
367.97	1746.92
368.19	1665.00
368.40	1744.87
368.62	1691.62
368.83	1691.62
369.05	1787.88
369.26	1611.75
369.48	1632.23
369.69	1722.34
369.91	1699.81
370.12	1660.90
370.33	1767.40
370.55	1699.81
370.76	1648.61
370.98	1763.30
371.19	1732.58
371.41	1673.19
371.62	1699.81
371.84	1652.71
372.05	1806.31
372.27	1673.19
372.48	1732.58
372.69	1744.87
372.91	1744.87
373.12	1798.12
373.34	1667.05
373.55	1794.02
373.77	1699.81
373.98	1689.57
374.20	1791.97
374.41	1826.79
374.62	1679.33
374.84	1728.49
375.05	1787.88
375.27	1769.44
375.48	1679.33
375.70	1654.76
375.91	1771.49
376.12	1806.31
376.34	1675.24
376.55	1673.19
376.77	1771.49
376.98	1626.09
377.19	1642.47
377.41	1675.24
377.62	1667.05
377.84	1798.12
378.05	1787.88
378.27	1716.20
378.48	1769.44
378.69	1849.32
378.91	1757.16
379.12	1732.58
379.34	1708.01
379.55	1742.82
379.76	1757.16
379.98	1648.61
380.19	1722.34
380.41	1687.53
380.62	1726.44
380.83	1687.53
381.05	1634.28
381.26	1867.75
381.47	1703.91
381.69	1785.83
381.90	1839.08
382.12	1736.68
382.33	1716.20
382.54	1673.19
382.76	1748.97
382.97	1773.54
383.19	1607.66
383.40	1714.15
383.61	1667.05
383.83	1746.92
384.04	1714.15
384.25	1828.84
384.47	1746.92
384.68	1742.82
384.89	1642.47
385.11	1652.71
385.32	1656.81
385.54	1665.00
385.75	1658.85
385.96	1630.18
386.18	1732.58
386.39	1691.62
386.60	1671.14
386.82	1699.81
387.03	1646.57
387.24	1773.54
387.46	1701.86
387.67	1771.49
387.88	1740.77
388.10	1705.96
388.31	1726.44
388.52	1767.40
388.74	1767.40
388.95	1636.33
389.16	1695.72
389.38	1607.66
389.59	1820.64
389.80	1771.49
390.02	1761.25
390.23	1751.01
390.44	1662.95
390.66	1652.71
390.87	1601.51
391.08	1705.96
391.30	1785.83
391.51	1763.30
391.72	1687.53
391.94	1789.92
392.15	1642.47
392.36	1675.24
392.58	1632.23
392.79	1767.40
393.00	1769.44
393.22	1765.35
393.43	1742.82
393.64	1755.11
393.85	1763.30
394.07	1705.96
394.28	1748.97
394.49	1712.10
394.71	1740.77
394.92	1802.21
395.13	1683.43
395.35	1695.72
395.56	1634.28
395.77	1714.15
395.98	1789.92
396.20	1720.29
396.41	1785.83
396.62	1708.01
396.84	1658.85
397.05	1689.57
397.26	1671.14
397.47	1822.69
397.69	1703.91
397.90	1847.27
398.11	1810.40
398.32	1685.48
398.54	1681.38
398.75	1677.29
398.96	1671.14
399.18	1884.13
399.39	1652.71
399.60	1742.82
399.81	1648.61
400.03	1693.67
400.24	1939.43
400.45	1730.53
400.66	1699.81
400.88	1656.81
401.09	1853.41
401.30	1648.61
401.51	1771.49
401.73	1769.44
401.94	1794.02
402.15	1705.96
402.36	1800.16
402.58	1699.81
402.79	1773.54
403.00	1648.61
403.21	1830.88
403.43	1722.34
403.64	1779.68
403.85	1695.72
404.06	1816.55
404.27	1583.08
404.49	1656.81
404.70	1720.29
404.91	1916.90
405.12	1738.73
405.34	1710.05
405.55	1820.64
405.76	1658.85
405.97	1677.29
406.19	1814.50
406.40	1615.85
406.61	1722.34
406.82	1665.00
407.03	1699.81
407.25	1660.90
407.46	1763.30
407.67	1781.73
407.88	1781.73
408.09	1708.01
408.31	1650.66
408.52	1761.25
408.73	1701.86
408.94	1710.05
409.15	1669.09
409.37	1748.97
409.58	1697.77
409.79	1728.49
410.00	1769.44
410.21	1673.19
410.43	1789.92
410.64	1636.33
410.85	1708.01
411.06	1804.26
411.27	1753.06
411.48	1748.97
411.70	1669.09
411.91	1820.64
412.12	1732.58
412.33	1843.17
412.54	1660.90
412.76	1804.26
412.97	1861.60
413.18	1646.57
413.39	1697.77
413.60	1789.92
413.81	1820.64
414.03	1652.71
414.24	1697.77
414.45	1886.18
414.66	1685.48
414.87	1710.05
415.08	1662.95
415.30	1689.57
415.51	1779.68
415.72	1722.34
415.93	1724.39
416.14	1775.59
416.35	1796.07
416.56	1728.49
416.78	1763.30
416.99	1740.77
417.20	1746.92
417.41	1798.12
417.62	1699.81
417.83	1804.26
418.04	1773.54
418.26	1787.88
418.47	1789.92
418.68	1748.97
418.89	1804.26
419.10	1912.80
419.31	1843.17
419.52	1769.44
419.73	1695.72
419.95	1863.65
420.16	1712.10
420.37	1689.57
420.58	1761.25
420.79	1566.70
421.00	1671.14
421.21	1732.58
421.42	1630.18
421.63	1691.62
421.85	1705.96
422.06	1665.00
422.27	1744.87
422.48	1671.14
422.69	1751.01
422.90	1679.33
423.11	1697.77
423.32	1808.36
423.53	1834.98
423.75	1695.72
423.96	1828.84
424.17	1730.53
424.38	1814.50
424.59	1730.53
424.80	1718.25
425.01	1724.39
425.22	1667.05
425.43	1794.02
425.64	1802.21
425.85	1834.98
426.06	1736.68
426.28	1718.25
426.49	1703.91
426.70	1683.43
426.91	1730.53
427.12	1837.03
427.33	1736.68
427.54	1660.90
427.75	1775.59
427.96	1771.49
428.17	1802.21
428.38	1765.35
428.59	1755.11
428.80	1783.78
429.01	1679.33
429.23	1736.68
429.44	1720.29
429.65	1802.21
429.86	1691.62
430.07	1689.57
430.28	1738.73
430.49	1773.54
430.70	1736.68
430.91	1882.08
431.12	1728.49
431.33	1734.63
431.54	1832.93
431.75	1794.02
431.96	1794.02
432.17	1806.31
432.38	1832.93
432.59	1847.27
432.80	1890.28
433.01	1761.25
433.22	1746.92
433.43	1826.79
433.64	1789.92
433.85	1787.88
434.06	1822.69
434.27	1708.01
434.49	1742.82
434.70	1746.92
434.91	1843.17
435.12	1857.51
435.33	1687.53
435.54	1748.97
435.75	1667.05
435.96	1740.77
436.17	1734.63
436.38	1763.30
436.59	1761.25
436.80	1708.01
437.01	1775.59
437.22	1828.84
437.43	1779.68
437.64	1740.77
437.85	1820.64
438.06	1779.68
438.27	1703.91
438.48	1775.59
438.69	1769.44
438.90	1779.68
439.11	1710.05
439.32	1920.99
439.53	1691.62
439.74	1742.82
439.95	1755.11
440.16	1699.81
440.37	1800.16
440.57	1712.10
440.78	1816.55
440.99	1877.99
441.20	1722.34
441.41	1748.97
441.62	1677.29
441.83	1789.92
442.04	1736.68
442.25	1746.92
442.46	1710.05
442.67	1669.09
442.88	1914.85
443.09	1726.44
443.30	1648.61
443.51	1748.97
443.72	1791.97
443.93	1771.49
444.14	1830.88
444.35	1685.48
444.56	1734.63
444.77	1732.58
444.98	1785.83
445.19	1806.31
445.40	1736.68
445.61	1761.25
445.81	1761.25
446.02	1863.65
446.23	1769.44
446.44	1712.10
446.65	1822.69
446.86	1865.70
447.07	2019.30
447.28	1787.88
447.49	1732.58
447.70	1816.55
447.91	1855.46
448.12	1751.01
448.33	1837.03
448.54	1767.40
448.74	1789.92
448.95	1796.07
449.16	1791.97
449.37	1806.31
449.58	1808.36
449.79	1877.99
450.00	1794.02
450.21	1744.87
450.42	1775.59
450.63	1744.87
450.84	1787.88
451.05	1818.60
451.25	1691.62
451.46	1703.91
451.67	1869.80
451.88	1847.27
452.09	1724.39
452.30	1787.88
452.51	1714.15
452.72	1877.99
452.93	1994.72
453.13	1765.35
453.34	1785.83
453.55	1853.41
453.76	1753.06
453.97	1746.92
454.18	1724.39
454.39	1796.07
454.60	1757.16
454.81	1931.23
455.01	1837.03
455.22	1646.57
455.43	1773.54
455.64	1832.93
455.85	1832.93
456.06	1904.61
456.27	1863.65
456.48	1794.02
456.68	1839.08
456.89	1970.15
457.10	1777.64
457.31	1808.36
457.52	1736.68
457.73	1759.21
457.94	1853.41
458.14	1791.97
458.35	1976.29
458.56	1808.36
458.77	1816.55
458.98	1828.84
459.19	1925.09
459.39	1857.51
459.60	1894.37
459.81	1771.49
460.02	1904.61
460.23	1855.46
460.44	1828.84
460.65	1777.64
460.85	1800.16
461.06	1822.69
461.27	1814.50
461.48	1808.36
461.69	1808.36
461.89	1712.10
462.10	1777.64
462.31	1767.40
462.52	1800.16
462.73	1820.64
462.94	1859.56
463.14	1892.32
463.35	1839.08
463.56	2021.35
463.77	1822.69
463.98	1886.18
464.18	1789.92
464.39	2021.35
464.60	2019.30
464.81	1820.64
465.02	1941.47
465.23	1914.85
465.43	1925.09
465.64	1765.35
465.85	1767.40
466.06	1910.75
466.27	1863.65
466.47	1996.77
466.68	2015.20
466.89	1839.08
467.10	1740.77
467.30	1785.83
467.51	2072.54
467.72	1904.61
467.93	1806.31
468.14	1849.32
468.34	2095.07
468.55	1880.04
468.76	2009.06
468.97	1855.46
469.17	2093.02
469.38	1929.19
469.59	1976.29
469.80	1828.84
470.01	1990.63
470.21	1826.79
470.42	1970.15
470.63	2052.06
470.84	2131.94
471.04	1964.00
471.25	2111.46
471.46	1955.81
471.67	2170.85
471.87	2013.15
472.08	2000.87
472.29	1966.05
472.50	1943.52
472.70	2066.40
472.91	1871.84
473.12	2033.63
473.33	2023.39
473.53	2066.40
473.74	1961.95
473.95	2086.88
474.16	2109.41
474.36	1910.75
474.57	2183.13
474.78	2084.83
474.99	2228.19
475.19	1957.86
475.40	2183.13
475.61	2236.38
475.81	2004.96
476.02	2068.45
476.23	2222.05
476.44	2019.30
476.64	2068.45
476.85	2133.98
477.06	2109.41
477.27	2287.58
477.47	2336.73
477.68	2170.85
477.89	1968.10
478.09	2170.85
478.30	2082.78
478.51	2052.06
478.71	2093.02
478.92	2240.48
479.13	2254.81
479.34	2234.33
479.54	2369.50
479.75	2285.53
479.96	2340.83
480.16	2086.88
480.37	2314.20
480.58	2287.58
480.78	2475.99
480.99	2215.90
481.20	2336.73
481.41	2129.89
481.61	2199.52
481.82	2609.11
482.03	2256.86
482.23	2228.19
482.44	2322.40
482.65	2775.00
482.85	2461.66
483.06	2318.30
483.27	2400.22
483.47	2389.98
483.68	2389.98
483.89	2258.91
484.09	2627.54
484.30	2516.95
484.51	2441.18
484.71	2463.71
484.92	2420.70
485.13	2596.82
485.33	2568.15
485.54	2451.42
485.75	2353.12
485.95	2596.82
486.16	2424.80
486.37	2541.53
486.57	2330.59
486.78	2420.70
486.98	2762.71
487.19	2453.47
487.40	2658.26
487.60	2475.99
487.81	2551.77
488.02	2361.31
488.22	2598.87
488.43	2623.45
488.64	2625.50
488.84	2580.44
489.05	2770.90
489.25	2564.06
489.46	2428.89
489.67	2738.13
489.87	3020.75
490.08	2707.41
490.29	2674.65
490.49	2617.30
490.70	2863.06
490.90	2686.94
491.11	2557.91
491.32	2691.03
491.52	2535.39
491.73	2721.75
491.94	2697.17
492.14	2793.43
492.35	2775.00
492.55	2697.17
492.76	2697.17
492.97	2969.55
493.17	2754.52
493.38	2897.88
493.58	3270.61
493.79	2928.60
494.00	3047.38
494.20	2985.94
494.41	3182.54
494.61	3067.86
494.82	3065.81
495.02	2707.41
495.23	3264.46
495.44	2779.09
495.64	2934.74
495.85	2975.70
496.05	3178.45
496.26	3336.14
496.47	3039.19
496.67	2928.60
496.88	3745.73
497.08	2969.55
497.29	3147.73
497.49	3190.74
497.70	3239.89
497.91	3096.53
498.11	3246.03
498.32	3305.42
498.52	2967.51
498.73	3180.50
498.93	3401.68
499.14	3551.18
499.34	3428.30
499.55	3516.36
499.76	2901.97
499.96	3485.64
500.17	3190.74
500.37	3313.61
500.58	3350.48
500.78	3225.55
500.99	2953.17
501.19	3444.68
501.40	3653.58
501.60	3248.08
501.81	3461.07
502.02	3579.85
502.22	3241.93
502.43	3391.44
502.63	3340.24
502.84	3878.85
503.04	3352.52
503.25	3542.99
503.45	3422.16
503.66	3106.77
503.86	3387.34
504.07	3223.50
504.27	3229.65
504.48	3530.70
504.68	3540.94
504.89	3547.08
505.09	3299.28
505.30	3162.06
505.50	3608.52
505.71	3219.41
505.91	3960.77
506.12	3598.28
506.32	3528.65
506.53	3508.17
506.73	3547.08
506.94	3733.45
507.14	3391.44
507.35	3624.90
507.55	3473.36
507.76	3635.14
507.96	3682.25
508.17	3542.99
508.37	3395.53
508.58	3897.28
508.78	3532.75
508.99	4216.77
509.19	3514.31
509.40	3663.82
509.60	3809.22
509.81	3710.92
510.01	3686.34
510.22	3725.26
510.42	3835.85
510.63	3655.62
510.83	3698.63
511.04	3641.29
511.24	3928.00
511.44	3610.57
511.65	4016.07
511.85	3508.17
512.06	3923.91
512.26	3704.78
512.47	3903.43
512.67	3782.60
512.88	3817.41
513.08	3960.77
513.29	3923.91
513.49	3579.85
513.69	3706.82
513.90	3739.59
514.10	3956.68
514.31	4032.45
514.51	3850.18
514.72	4218.82
514.92	3968.96
515.13	3731.40
515.33	3794.89
515.53	3993.54
515.74	4341.69
515.94	3885.00
516.15	4188.10
516.35	3626.95
516.56	3899.33
516.76	3762.12
516.96	4149.18
517.17	4130.75
517.37	3784.65
517.58	3997.64
517.78	3948.48
517.99	4235.20
518.19	4157.38
518.39	3956.68
518.60	4808.63
518.80	4143.04
519.01	4743.10
519.21	4122.56
519.41	4530.11
519.62	3811.27
519.82	4319.17
520.03	4335.55
520.23	4333.50
520.43	4038.59
520.64	4906.93
520.84	4325.31
521.05	4196.29
521.25	4177.86
521.45	4310.97
521.66	4171.71
521.86	4251.58
522.07	4399.04
522.27	4376.51
522.47	4046.79
522.68	4239.30
522.88	4470.72
523.08	4558.78
523.29	4190.14
523.49	4280.25
523.70	4315.07
523.90	4462.52
524.10	4548.54
524.31	4310.97
524.51	4169.66
524.71	4153.28
524.92	4470.72
525.12	4274.11
525.33	4392.89
525.53	4474.81
525.73	4732.86
525.94	4587.45
526.14	4624.31
526.34	4257.73
526.55	4511.68
526.75	4906.93
526.95	4716.47
527.16	4861.88
527.36	4689.85
527.56	4685.75
527.77	4491.20
527.97	4550.59
528.17	4530.11
528.38	4542.39
528.58	4673.46
528.78	4532.15
528.99	4622.27
529.19	4794.29
529.39	4693.94
529.60	4394.94
529.80	4638.65
530.00	4517.82
530.21	4810.68
530.41	4966.32
530.61	5330.86
530.82	4822.97
531.02	4657.08
531.22	4784.06
531.43	4730.81
531.63	5099.44
531.83	4902.84
532.04	5083.06
532.24	4949.94
532.44	4685.75
532.64	4931.51
532.85	5363.63
533.05	5175.22
533.25	4859.83
533.46	5048.24
533.66	5316.53
533.86	5005.24
534.07	5392.30
534.27	4788.15
534.47	5158.83
534.67	5099.44
534.88	4771.77
535.08	5466.03
535.28	5611.43
535.49	5142.45
535.69	5418.93
535.89	5533.61
536.09	5396.40
536.30	5031.86
536.50	5267.38
536.70	5328.81
536.91	4796.34
537.11	5648.30
537.31	5617.58
537.51	5445.55
537.72	5554.09
537.92	5445.55
538.12	5730.22
538.32	5420.97
538.53	5390.25
538.73	5414.83
538.93	5400.49
539.13	5347.25
539.34	5605.29
539.54	5355.44
539.74	5468.08
539.94	5461.93
540.15	5736.36
540.35	5365.68
540.55	5343.15
540.75	5476.27
540.96	5580.71
541.16	5871.53
541.36	5627.82
541.56	5818.28
541.77	6031.27
541.97	5699.50
542.17	5539.76
542.37	5887.91
542.58	5629.87
542.78	5959.59
542.98	5713.83
543.18	5822.38
543.38	5975.97
543.59	5681.07
543.79	5461.93
543.99	5767.08
544.19	5590.95
544.40	5734.31
544.60	6123.43
544.80	5867.43
545.00	5732.26
545.20	5918.63
545.41	5924.77
545.61	5552.04
545.81	5619.63
546.01	5990.31
546.21	5908.39
546.42	5857.19
546.62	6244.26
546.82	5840.81
547.02	6039.46
547.22	5971.88
547.43	6135.71
547.63	5967.78
547.83	6012.84
548.03	5500.84
548.23	5984.16
548.44	6072.23
548.64	6037.41
548.84	5918.63
549.04	5672.87
549.24	6156.19
549.45	6578.08
549.65	5965.73
549.85	6205.35
550.05	6184.87
550.25	6068.13
550.45	6420.38
550.66	5861.29
550.86	6125.47
551.06	6057.89
551.26	6080.42
551.46	5871.53
551.66	6356.90
551.87	5986.21
552.07	6070.18
552.27	6191.01
552.47	6195.11
552.67	6082.47
552.87	6084.52
553.07	6391.71
553.28	6094.76
553.48	6416.29
553.68	5951.40
553.88	6262.69
554.08	6205.35
554.28	6514.59
554.48	6070.18
554.69	6135.71
554.89	6154.15
555.09	6307.74
555.29	6053.80
555.49	6334.37
555.69	6225.82
555.89	6573.98
556.10	5982.12
556.30	6135.71
556.50	6293.41
556.70	6369.18
556.90	6274.98
557.10	6465.44
557.30	6502.30
557.50	6508.44
557.70	6547.36
557.91	6266.78
558.11	6301.60
558.31	6721.43
558.51	6424.48
558.71	6461.34
558.91	6619.04
559.11	6389.66
559.31	6289.31
559.51	6328.22
559.72	6518.68
559.92	6352.80
560.12	6340.51
560.32	6852.50
560.52	6565.79
560.72	6336.42
560.92	6582.17
561.12	6573.98
561.32	6559.64
561.52	6393.76
561.72	6899.61
561.93	6541.21
562.13	6528.92
562.33	6475.68
562.53	6756.25
562.73	6455.20
562.93	6193.06
563.13	6565.79
563.33	6557.60
563.53	6770.58
563.73	6537.12
563.93	6723.48
564.13	6662.04
564.33	6637.47
564.53	6582.17
564.74	6764.44
564.94	6711.19
565.14	6696.86
565.34	6688.67
565.54	6449.05
565.74	6381.47
565.94	6684.57
566.14	6541.21
566.34	6483.87
566.54	6582.17
566.74	6541.21
566.94	6936.47
567.14	6516.64
567.34	6834.07
567.54	6741.91
567.74	6909.85
567.94	6756.25
568.14	6571.93
568.34	6893.46
568.54	7083.92
568.74	6467.49
568.94	6580.12
569.14	7045.01
569.34	7255.95
569.54	6864.79
569.75	6678.43
569.95	6809.50
570.15	6975.38
570.35	7036.82
570.55	6590.36
570.75	6936.47
570.95	6983.57
571.15	6688.67
571.35	6852.50
571.55	6821.78
571.75	6885.27
571.95	7163.79
572.15	6565.79
572.35	6805.40
572.55	6877.08
572.75	6909.85
572.95	6614.94
573.15	7118.74
573.35	7012.24
573.55	6651.80
573.75	6643.61
573.95	7200.66
574.15	7049.11
574.35	7180.18
574.55	6848.41
574.75	6940.57
574.95	7059.35
575.15	6750.10
575.34	6918.04
575.54	7028.63
575.74	7214.99
575.94	7020.44
576.14	6889.37
576.34	6840.22
576.54	7071.64
576.74	6920.09
576.94	7344.02
577.14	6997.91
577.34	7147.41
577.54	6829.98
577.74	6924.18
577.94	7282.58
578.14	7145.36
578.34	7217.04
578.54	6887.32
578.74	7202.71
578.94	7040.92
579.14	7106.45
579.34	6778.78
579.54	7475.09
579.74	7243.67
579.94	7028.63
580.13	7219.09
580.33	6809.50
580.53	7073.68
580.73	6971.29
580.93	7315.34
581.13	6889.37
581.33	6907.80
581.53	7434.13
581.73	7311.25
581.93	6959.00
582.13	7405.46
582.33	7147.41
582.53	7382.93
582.73	7393.17
582.92	7178.13
583.12	7534.48
583.32	7112.60
583.52	7092.12
583.72	7638.92
583.92	7376.78
584.12	6959.00
584.32	7511.95
584.52	7237.52
584.72	7552.91
584.92	7354.26
585.11	7712.65
585.31	7813.00
585.51	7354.26
585.71	7323.54
585.91	7563.15
586.11	7784.33
586.31	7362.45
586.51	7237.52
586.71	7514.00
586.91	7266.19
587.10	7856.01
587.30	7669.64
587.50	7597.96
587.70	7290.77
587.90	7614.35
588.10	7700.36
588.30	7919.50
588.50	7475.09
588.69	7395.22
588.89	7481.23
589.09	7600.01
589.29	7571.34
589.49	7542.67
589.69	7223.19
589.89	7710.60
590.08	7878.54
590.28	7806.86
590.48	7712.65
590.68	7491.47
590.88	7804.81
591.08	7802.76
591.28	7800.71
591.47	7927.69
591.67	7454.61
591.87	7866.25
592.07	7726.99
592.27	7649.16
592.47	7427.98
592.67	7640.97
592.86	7813.00
593.06	7833.48
593.26	7735.18
593.46	7683.98
593.66	7446.41
593.86	7878.54
594.05	7968.65
594.25	7997.32
594.45	7477.13
594.65	8048.52
594.85	7737.23
595.05	7712.65
595.24	7933.83
595.44	7620.49
595.64	7675.79
595.84	8234.88
596.04	7645.07
596.23	7673.74
596.43	8161.16
596.63	8038.28
596.83	7884.68
597.03	8200.07
597.22	8189.83
597.42	8318.85
597.62	8185.73
597.82	7919.50
598.02	7987.08
598.21	8232.83
598.41	7954.31
598.61	8136.58
598.81	7917.45
599.01	8089.48
599.20	8200.07
599.40	7958.41
599.60	8464.25
599.80	7808.90
600.00	8310.66
600.19	8281.99
600.39	7833.48
600.59	8212.35
600.79	8173.44
600.98	8322.94
601.18	8279.94
601.38	8310.66
601.58	8171.40
601.78	8343.42
601.97	8466.30
602.17	8284.03
602.37	8431.49
602.57	8236.93
602.76	8482.69
602.96	8484.73
603.16	8028.04
603.36	8300.42
603.55	8380.29
603.75	8155.01
603.95	8120.20
604.15	8583.04
604.34	8167.30
604.54	8378.24
604.74	8468.35
604.94	8429.44
605.13	8374.14
605.33	8468.35
605.53	8245.12
605.73	8509.31
605.92	8286.08
606.12	8392.58
606.32	8548.22
606.52	8451.97
606.71	8425.34
606.91	8228.74
607.11	8136.58
607.30	8570.75
607.50	8515.45
607.70	8740.73
607.90	8585.08
608.09	8259.46
608.29	8689.53
608.49	8484.73
608.68	8490.88
608.88	8570.75
609.08	8163.20
609.28	8857.46
609.47	8587.13
609.67	8531.84
609.87	8626.04
610.06	8685.44
610.26	8695.68
610.46	8646.52
610.66	8245.12
610.85	8329.09
611.05	8570.75
611.25	8437.63
611.44	8343.42
611.64	8523.65
611.84	8673.15
612.03	8365.95
612.23	8376.19
612.43	8640.38
612.62	8466.30
612.82	8882.04
613.02	8750.97
613.21	8308.61
613.41	8839.03
613.61	8683.39
613.80	8587.13
614.00	8265.60
614.20	8531.84
614.39	8902.52
614.59	8531.84
614.79	8515.45
614.98	8890.23
615.18	8378.24
615.38	8476.54
615.57	8654.72
615.77	9109.36
615.97	8527.74
616.16	8808.31
616.36	8669.05
616.56	8685.44
616.75	8593.28
616.95	8337.28
617.15	9060.21
617.34	8519.55
617.54	8871.80
617.74	9062.26
617.93	9035.64
618.13	8667.00
618.32	8703.87
618.52	8615.80
618.72	8722.30
618.91	8740.73
619.11	8718.20
619.31	8683.39
619.50	8552.32
619.70	8486.78
619.90	8531.84
620.09	8957.82
620.29	8413.06
620.48	8959.86
620.68	8750.97
620.88	8873.85
621.07	8667.00
621.27	8591.23
621.46	8824.70
621.66	8808.31
621.86	8208.26
622.05	8906.62
622.25	8970.10
622.44	8529.79
622.64	8554.37
622.84	8523.65
623.03	8671.10
623.23	8687.48
623.42	8738.68
623.62	8726.39
623.82	8990.58
624.01	8906.62
624.21	8746.87
624.40	8736.63
624.60	8791.93
624.80	8634.24
624.99	8456.06
625.19	8900.47
625.38	8896.38
625.58	8765.31
625.77	8546.17
625.97	8789.88
626.17	8605.56
626.36	9031.54
626.56	8908.66
626.75	8509.31
626.95	8974.20
627.14	8521.60
627.34	9004.92
627.54	8800.12
627.73	9025.40
627.93	8773.50
628.12	8617.85
628.32	8814.46
628.51	8681.34
628.71	9572.21
628.90	8636.28
629.10	8777.59
629.30	8853.37
629.49	8703.87
629.69	8740.73
629.88	8787.83
630.08	9138.04
630.27	8925.05
630.47	8646.52
630.66	8939.38
630.86	8716.16
631.05	8617.85
631.25	8742.78
631.44	8726.39
631.64	8863.61
631.84	8660.86
632.03	9027.45
632.23	8621.95
632.42	8699.77
632.62	8675.20
632.81	8679.29
633.01	8929.14
633.20	9135.99
633.40	9099.13
633.59	8929.14
633.79	8781.69
633.98	8773.50
634.18	8800.12
634.37	9045.88
634.57	8587.13
634.76	8617.85
634.96	8798.07
635.15	9064.31
635.35	8742.78
635.54	9066.36
635.74	8777.59
635.93	9002.87
636.13	8712.06
636.32	8927.10
636.52	8798.07
636.71	8914.81
636.91	8847.22
637.10	9017.21
637.30	8546.17
637.49	8644.48
637.69	8916.86
637.88	8834.94
638.08	8804.22
638.27	8900.47
638.46	8662.91
638.66	8851.32
638.85	8818.55
639.05	8855.42
639.24	9080.69
639.44	8816.51
639.63	9199.48
639.83	8787.83
640.02	8738.68
640.22	8902.52
640.41	8710.01
640.61	9111.41
640.80	8959.86
640.99	8726.39
641.19	9441.14
641.38	9140.08
641.58	8748.92
641.77	8720.25
641.97	8791.93
642.16	8734.59
642.36	8912.76
642.55	8830.84
642.74	9232.24
642.94	8951.67
643.13	8615.80
643.33	8951.67
643.52	8802.17
643.72	9070.45
643.91	8791.93
644.10	9043.83
644.30	8888.18
644.49	8982.39
644.69	8966.01
644.88	8914.81
645.08	9090.93
645.27	9039.73
645.46	9009.01
645.66	9172.85
645.85	9041.78
646.05	8912.76
646.24	8783.74
646.43	8720.25
646.63	9068.41
646.82	8703.87
647.02	9006.97
647.21	9049.97
647.40	8974.20
647.60	8814.46
647.79	8970.10
647.99	8945.53
648.18	9078.65
648.37	9310.07
648.57	9023.35
648.76	8861.56
648.96	9095.03
649.15	8912.76
649.34	9439.09
649.54	8841.08
649.73	8923.00
649.92	8984.44
650.12	9193.33
650.31	8945.53
650.51	9181.04
650.70	8834.94
650.89	9045.88
651.09	9207.67
651.28	9359.22
651.47	9056.12
651.67	9271.15
651.86	9457.52
652.06	8808.31
652.25	9391.98
652.44	8589.18
652.64	9086.84
652.83	9131.89
653.02	8916.86
653.22	8900.47
653.41	9041.78
653.60	9224.05
653.80	8912.76
653.99	9144.18
654.18	9049.97
654.38	8890.23
654.57	9447.28
654.76	8916.86
654.96	9056.12
655.15	9086.84
655.34	9316.21
655.54	8722.30
655.73	8980.34
655.92	9203.57
656.12	9125.75
656.31	9142.13
656.50	9570.16
656.70	8939.38
656.89	9154.42
657.08	9062.26
657.28	9052.02
657.47	8896.38
657.66	9168.76
657.86	8931.19
658.05	9121.65
658.24	9207.67
658.43	9099.13
658.63	8775.55
658.82	9072.50
659.01	8982.39
659.21	9545.58
659.40	8873.85
659.59	9052.02
659.79	9234.29
659.98	9473.90
660.17	9148.28
660.36	9326.45
660.56	9176.95
660.75	8996.73
660.94	9410.42
661.14	9101.17
661.33	8810.36
661.52	9176.95
661.71	9160.56
661.91	9064.31
662.10	9056.12
662.29	9351.03
662.49	9312.11
662.68	8802.17
662.87	8963.96
663.06	9353.07
663.26	9168.76
663.45	9402.22
663.64	9133.94
663.83	9103.22
664.03	9367.41
664.22	9154.42
664.41	9551.73
664.60	9355.12
664.80	8853.37
664.99	9183.09
665.18	8957.82
665.37	9105.27
665.57	9203.57
665.76	9473.90
665.95	9379.70
666.14	9254.77
666.34	9365.36
666.53	9496.43
666.72	8857.46
666.91	9011.06
667.11	9316.21
667.30	9291.63
667.49	9000.82
667.68	9269.11
667.87	9260.91
668.07	9316.21
668.26	8974.20
668.45	9021.30
668.64	8853.37
668.84	9148.28
669.03	9090.93
669.22	9205.62
669.41	9092.98
669.60	8914.81
669.80	9293.68
669.99	9097.08
670.18	8923.00
670.37	9383.79
670.57	9267.06
670.76	9179.00
670.95	9074.55
671.14	9189.24
671.33	8953.72
671.53	9117.56
671.72	9396.08
671.91	9201.52
672.10	9019.25
672.29	9314.16
672.48	9232.24
672.68	8976.25
672.87	9293.68
673.06	9305.97
673.25	8976.25
673.44	8851.32
673.64	9066.36
673.83	9277.30
674.02	8892.28
674.21	9371.50
674.40	9076.60
674.59	9189.24
674.79	9076.60
674.98	9189.24
675.17	9289.59
675.36	8912.76
675.55	9088.89
675.74	8732.54
675.94	9074.55
676.13	9387.89
676.32	9187.19
676.51	9236.34
676.70	9056.12
676.89	9287.54
677.08	9000.82
677.28	9072.50
677.47	9213.81
677.66	9512.81
677.85	8904.57
678.04	9090.93
678.23	9097.08
678.42	8941.43
678.62	9107.32
678.81	9506.67
679.00	9029.49
679.19	9455.47
679.38	9125.75
679.57	8918.90
679.76	8892.28
679.96	9054.07
680.15	9074.55
680.34	8884.09
680.53	9123.70
680.72	9318.26
680.91	9013.11
681.10	9314.16
681.29	8982.39
681.48	9115.51
681.68	8882.04
681.87	9176.95
682.06	8859.51
682.25	9064.31
682.44	8869.75
682.63	9465.71
682.82	8740.73
683.01	9150.32
683.20	8851.32
683.39	9308.02
683.59	8867.70
683.78	8535.93
683.97	8902.52
684.16	8957.82
684.35	8857.46
684.54	9258.87
684.73	9107.32
684.92	8845.18
685.11	9207.67
685.30	8785.79
685.49	8961.91
685.69	8925.05
685.88	8920.95
686.07	8697.72
686.26	8886.14
686.45	9013.11
686.64	9129.84
686.83	9105.27
687.02	8832.89
687.21	9185.14
687.40	8826.75
687.59	9848.68
687.78	9039.73
687.97	8982.39
688.16	8722.30
688.35	8783.74
688.54	8879.99
688.74	8804.22
688.93	8914.81
689.12	8843.13
689.31	8912.76
689.50	8816.51
689.69	8861.56
689.88	9183.09
690.07	8937.34
690.26	8787.83
690.45	8793.98
690.64	8564.61
690.83	8894.33
691.02	8816.51
691.21	8869.75
691.40	8718.20
691.59	9004.92
691.78	9090.93
691.97	8884.09
692.16	8849.27
692.35	8710.01
692.54	8949.62
692.73	8853.37
692.92	9203.57
693.11	9125.75
693.30	9000.82
693.49	8605.56
693.68	8882.04
693.87	8882.04
694.06	8507.26
694.25	8824.70
694.44	9006.97
694.63	9025.40
694.82	8619.90
695.01	9066.36
695.20	8820.60
695.39	9021.30
695.58	8759.16
695.77	8568.70
695.96	8572.80
696.15	8775.55
696.34	8490.88
696.53	8986.49
696.72	8720.25
696.91	8535.93
697.10	8767.35
697.29	8519.55
697.48	9308.02
697.67	8865.66
697.86	8642.43
698.05	9082.74
698.24	8859.51
698.43	8568.70
698.62	8660.86
698.81	8605.56
699.00	8865.66
699.19	8677.24
699.38	8832.89
699.57	8417.15
699.76	8769.40
699.95	8515.45
700.14	8740.73
700.32	8419.20
700.51	8738.68
700.70	8802.17
700.89	8841.08
701.08	8742.78
701.27	8662.91
701.46	8896.38
701.65	8425.34
701.84	8611.71
702.03	8636.28
702.22	8648.57
702.41	8744.83
702.60	8667.00
702.79	8394.62
702.98	8720.25
703.17	8828.79
703.35	8804.22
703.54	8642.43
703.73	8769.40
703.92	8429.44
704.11	8376.19
704.30	8718.20
704.49	8578.94
704.68	8423.30
704.87	8294.27
705.06	8646.52
705.25	8396.67
705.43	8542.08
705.62	8370.05
705.81	8519.55
706.00	9013.11
706.19	8472.45
706.38	8638.33
706.57	8671.10
706.76	8402.82
706.95	8523.65
707.14	8554.37
707.32	8183.68
707.51	8497.02
707.70	8408.96
707.89	8327.04
708.08	8572.80
708.27	8267.65
708.46	8540.03
708.65	8411.01
708.84	8695.68
709.02	8478.59
709.21	8611.71
709.40	8300.42
709.59	8322.94
709.78	8294.27
709.97	8275.84
710.16	8640.38
710.34	8320.90
710.53	8460.16
710.72	8243.07
710.91	8511.36
711.10	8363.90
711.29	8290.18
711.48	8357.76
711.66	8103.81
711.85	8241.03
712.04	8529.79
712.23	8273.79
712.42	8392.58
712.61	8087.43
712.80	8204.16
712.98	8376.19
713.17	8363.90
713.36	8527.74
713.55	8214.40
713.74	8064.90
713.93	8044.42
714.11	8120.20
714.30	8351.62
714.49	8204.16
714.68	8245.12
714.87	8079.24
715.06	8564.61
715.24	8419.20
715.43	8230.79
715.62	7772.04
715.81	8109.96
716.00	8302.47
716.18	8302.47
716.37	8171.40
716.56	8048.52
716.75	7958.41
716.94	8212.35
717.12	8300.42
717.31	8261.51
717.50	7890.82
717.69	7937.93
717.88	8238.98
718.06	8220.55
718.25	8056.71
718.44	8001.41
718.63	8370.05
718.82	7892.87
719.00	8120.20
719.19	8486.78
719.38	8091.52
719.57	8128.39
719.76	7835.53
719.94	7931.78
720.13	7784.33
720.32	8277.89
720.51	7729.03
720.69	8099.72
720.88	7923.59
721.07	7901.06
721.26	7905.16
721.44	7991.17
721.63	7884.68
721.82	7694.22
722.01	8343.42
722.20	8126.34
722.38	7677.83
722.57	7673.74
722.76	7964.55
722.95	7743.37
723.13	7323.54
723.32	7571.34
723.51	7700.36
723.70	7862.15
723.88	7870.34
724.07	7683.98
724.26	8142.72
724.44	7677.83
724.63	7948.17
724.82	7786.38
725.01	7628.68
725.19	7739.27
725.38	7823.24
725.57	7557.00
725.76	7982.98
725.94	7806.86
726.13	7595.92
726.32	7647.12
726.51	7585.68
726.69	7896.97
726.88	7919.50
727.07	8075.14
727.25	7440.27
727.44	7690.12
727.63	7540.62
727.82	7688.07
728.00	7704.46
728.19	8089.48
728.38	7786.38
728.56	7675.79
728.75	7853.96
728.94	7755.66
729.12	7683.98
729.31	7618.44
729.50	7817.10
729.69	8167.30
729.87	7806.86
730.06	7616.40
730.25	7933.83
730.43	8155.01
730.62	7534.48
730.81	7663.50
730.99	7624.59
731.18	7301.01
731.37	7708.55
731.55	7673.74
731.74	7557.00
731.93	7636.88
732.11	7724.94
732.30	7882.63
732.49	7620.49
732.67	7442.32
732.86	7440.27
733.05	7319.44
733.23	7849.86
733.42	7530.38
733.61	7747.47
733.79	7636.88
733.98	7538.57
734.17	7239.57
734.35	7407.50
734.54	7935.88
734.73	7673.74
734.91	7464.85
735.10	7608.20
735.29	7655.31
735.47	7663.50
735.66	7683.98
735.84	7833.48
736.03	7397.26
736.22	7677.83
736.40	7638.92
736.59	7432.08
736.78	7432.08
736.96	7757.71
737.15	7391.12
737.33	7741.32
737.52	7489.42
737.71	7772.04
737.89	7597.96
738.08	7280.53
738.27	7651.21
738.45	7516.05
738.64	7530.38
738.82	7620.49
739.01	7456.65
739.20	7645.07
739.38	7518.09
739.57	7552.91
739.75	7610.25
739.94	7624.59
740.13	7602.06
740.31	7845.77
740.50	7718.79
740.68	7294.86
740.87	7569.29
741.06	7536.52
741.24	7679.88
741.43	7546.76
741.61	7339.92
741.80	7352.21
741.99	7464.85
742.17	7501.71
742.36	7233.43
742.54	7268.24
742.73	7477.13
742.91	7184.27
743.10	7366.54
743.29	7464.85
743.47	7450.51
743.66	7178.13
743.84	7227.28
744.03	7466.89
744.21	7245.71
744.40	7387.02
744.59	7427.98
744.77	7167.89
744.96	7366.54
745.14	7323.54
745.33	7501.71
745.51	7581.58
745.70	7352.21
745.88	7278.48
746.07	7294.86
746.26	7106.45
746.44	7677.83
746.63	7171.99
746.81	7511.95
747.00	7362.45
747.18	7126.93
747.37	6987.67
747.55	7319.44
747.74	7657.36
747.92	7387.02
748.11	7251.86
748.29	7415.69
748.48	7077.78
748.66	7098.26
748.85	7110.55
749.03	7356.30
749.22	7053.20
749.41	7231.38
749.59	7108.50
749.78	7112.60
749.96	7063.44
750.15	7145.36
750.33	7040.92
750.52	6997.91
750.70	6963.09
750.89	7153.55
751.07	6668.19
751.26	6995.86
751.44	6670.23
751.63	7462.80
751.81	6981.53
752.00	6860.70
752.18	6930.33
752.37	7370.64
752.55	6789.02
752.74	7210.90
752.92	6979.48
753.10	6844.31
753.29	7155.60
753.47	7104.40
753.66	6899.61
753.84	6805.40
754.03	6950.81
754.21	6733.72
754.40	6963.09
754.58	7104.40
754.77	7135.12
754.95	7120.79
755.14	6780.82
755.32	6942.61
755.51	6528.92
755.69	7073.68
755.88	6713.24
756.06	7278.48
756.24	7045.01
756.43	7085.97
756.61	6819.74
756.80	6915.99
756.98	7192.47
757.17	7188.37
757.35	7036.82
757.54	7051.16
757.72	6811.54
757.90	6731.67
758.09	6766.49
758.27	6780.82
758.46	6932.37
758.64	6856.60
758.83	6993.81
759.01	6899.61
759.19	6832.02
759.38	6834.07
759.56	6954.90
759.75	6893.46
759.93	6662.04
760.12	6856.60
760.30	6983.57
760.48	6754.20
760.67	6797.21
760.85	6795.16
761.04	6827.93
761.22	6780.82
761.40	6604.70
761.59	6610.84
761.77	6569.88
761.96	6821.78
762.14	6784.92
762.32	6899.61
762.51	6743.96
762.69	6752.15
762.88	6809.50
763.06	6561.69
763.24	6961.05
763.43	6850.46
763.61	6567.84
763.80	6698.91
763.98	6799.26
764.16	6653.85
764.35	6447.01
764.53	6490.01
764.72	6569.88
764.90	6801.30
765.08	6627.23
765.27	6795.16
765.45	6549.40
765.63	6719.39
765.82	6690.71
766.00	6606.75
766.18	6551.45
766.37	6692.76
766.55	6780.82
766.74	6520.73
766.92	6426.53
767.10	6336.42
767.29	6385.57
767.47	6549.40
767.65	6582.17
767.84	6727.58
768.02	7018.39
768.20	6154.15
768.39	6608.80
768.57	6530.97
768.75	6287.26
768.94	6588.32
769.12	6313.89
769.30	6221.73
769.49	6641.56
769.67	6297.50
769.85	6522.78
770.04	6328.22
770.22	6416.29
770.40	6551.45
770.59	6336.42
770.77	6590.36
770.95	6332.32
771.14	6373.28
771.32	6125.47
771.50	6258.59
771.69	6209.44
771.87	6088.61
772.05	6240.16
772.24	6346.66
772.42	6143.91
772.60	6350.75
772.78	6545.31
772.97	6156.19
773.15	6295.46
773.33	6602.65
773.52	6135.71
773.70	6289.31
773.88	6219.68
774.07	5980.07
774.25	6213.54
774.43	6432.67
774.61	6078.37
774.80	6272.93
774.98	6162.34
775.16	6104.99
775.34	6164.39
775.53	6311.84
775.71	6410.14
775.89	6592.41
776.08	6207.39
776.26	6090.66
776.44	6148.00
776.62	6397.85
776.81	6086.56
776.99	6281.12
777.17	6434.72
777.35	6184.87
777.54	6389.66
777.72	6328.22
777.90	6360.99
778.08	6729.63
778.27	6182.82
778.45	6317.98
778.63	6209.44
778.81	6242.21
779.00	6326.18
779.18	6590.36
779.36	6533.02
779.54	6506.40
779.73	6524.83
779.91	6414.24
780.09	6096.80
780.27	6346.66
780.46	6406.05
780.64	6242.21
780.82	6180.77
781.00	6408.09
781.19	6309.79
781.37	6436.77
781.55	6578.08
781.73	6543.26
781.91	6162.34
782.10	6236.06
782.28	6557.60
782.46	6309.79
782.64	6623.13
782.82	6371.23
783.01	6670.23
783.19	6584.22
783.37	6324.13
783.55	6401.95
783.74	6377.37
783.92	6264.74
784.10	6703.00
784.28	6635.42
784.46	6031.27
784.64	5924.77
784.83	6363.04
785.01	6492.06
785.19	6631.32
785.37	6600.60
785.55	6254.50
785.74	6449.05
785.92	6373.28
786.10	6412.19
786.28	6221.73
786.46	6477.73
786.64	6256.54
786.83	6098.85
787.01	6401.95
787.19	6285.22
787.37	6436.77
787.55	6623.13
787.74	6371.23
787.92	6090.66
788.10	6248.35
788.28	6289.31
788.46	6315.94
788.64	6143.91
788.82	6434.72
789.01	6219.68
789.19	6547.36
789.37	6330.27
789.55	5996.45
789.73	6313.89
789.91	6246.30
790.09	6064.04
790.28	5982.12
790.46	6158.24
790.64	6363.04
790.82	6324.13
791.00	6172.58
791.18	6223.78
791.36	6285.22
791.55	6260.64
791.73	6213.54
791.91	6313.89
792.09	5928.87
792.27	6014.88
792.45	6123.43
792.63	6428.57
792.81	5892.01
793.00	5908.39
793.18	6039.46
793.36	5920.68
793.54	5744.55
793.72	5971.88
793.90	5660.59
794.08	6170.53
794.26	6137.76
794.44	5640.11
794.62	5830.57
794.81	6086.56
794.99	6002.60
795.17	6303.65
795.35	6033.32
795.53	5955.49
795.71	6029.22
795.89	5779.37
796.07	5609.39
796.25	5857.19
796.43	6113.19
796.61	5638.06
796.80	5525.42
796.98	5801.90
797.16	5615.53
797.34	5656.49
797.52	5431.21
797.70	5640.11
797.88	5584.81
798.06	5576.62
798.24	5523.37
798.42	5676.97
798.60	5767.08
798.78	5568.43
798.96	5730.22
799.14	5412.78
799.32	5875.62
799.51	5222.32
799.69	5545.90
799.87	5562.28
800.05	5523.37
800.23	5320.62
800.41	5566.38
800.59	5638.06
800.77	5275.57
800.95	5398.45
801.13	5597.10
801.31	5418.93
801.49	5593.00
801.67	5152.69
801.85	5429.17
802.03	5242.80
802.21	4855.73
802.39	5076.91
802.57	5384.11
802.75	5371.82
802.93	5212.08
803.11	5267.38
803.29	5171.12
803.47	5294.00
803.65	5451.69
803.83	5093.30
804.01	5199.79
804.19	5099.44
804.37	5396.40
804.55	5433.26
804.73	5539.76
804.91	5136.31
805.09	5621.67
805.27	5060.53
805.45	5361.58
805.63	5154.74
805.81	4888.50
805.99	5214.13
806.17	4966.32
806.35	5250.99
806.53	4884.41
806.71	5197.74
806.89	4796.34
807.07	5035.96
807.25	5021.62
807.43	4919.22
807.61	5533.61
807.79	5201.84
807.97	4884.41
808.15	5038.00
808.33	5048.24
808.51	5105.59
808.69	5044.15
808.87	4960.18
809.05	5042.10
809.23	4808.63
809.41	4648.89
809.59	4509.63
809.77	4935.60
809.95	4835.25
810.13	4945.84
810.31	4853.69
810.49	4698.04
810.67	4710.33
810.84	4898.74
811.02	4706.23
811.20	4595.64
811.38	4933.56
811.56	4489.15
811.74	4695.99
811.92	4890.55
812.10	4626.36
812.28	4714.42
812.46	4669.37
812.64	4974.52
812.82	4523.96
813.00	4560.83
813.18	4579.26
813.36	4544.44
813.53	4607.93
813.71	4919.22
813.89	4818.87
814.07	4394.94
814.25	4687.80
814.43	4560.83
814.61	4296.64
814.79	4425.66
814.97	4816.82
815.15	4880.31
815.33	4313.02
815.50	4450.24
815.68	4558.78
815.86	4763.58
816.04	4624.31
816.22	4452.28
816.40	4476.86
816.58	4609.98
816.76	4288.45
816.94	4648.89
817.11	4474.81
817.29	4476.86
817.47	4501.44
817.65	4507.58
817.83	4540.35
818.01	4386.75
818.19	4339.65
818.37	4540.35
818.54	4376.51
818.72	4460.48
818.90	4274.11
819.08	4333.50
819.26	4452.28
819.44	4407.23
819.62	4409.28
819.80	4100.03
819.97	4112.32
820.15	4132.80
820.33	4138.94
820.51	4046.79
820.69	4147.14
820.87	4419.52
821.05	4288.45
821.22	4136.90
821.40	4126.66
821.58	4167.62
821.76	4431.80
821.94	4224.96
822.12	4382.65
822.29	4112.32
822.47	4329.41
822.65	4370.37
822.83	4140.99
823.01	4202.43
823.19	3803.08
823.36	3993.54
823.54	4079.55
823.72	4241.34
823.90	4329.41
824.08	4159.42
824.25	4143.04
824.43	3993.54
824.61	4241.34
824.79	4011.97
824.97	3971.01
825.15	4077.51
825.32	3989.44
825.50	4145.09
825.68	3975.11
825.86	4136.90
826.04	4095.94
826.21	4302.78
826.39	3928.00
826.57	4005.83
826.75	4110.27
826.93	3891.14
827.10	4169.66
827.28	4263.87
827.46	4319.17
827.64	3981.25
827.81	4251.58
827.99	3911.62
828.17	3919.81
828.35	3948.48
828.53	3905.48
828.70	4003.78
828.88	3993.54
829.06	3813.32
829.24	4106.18
829.41	4116.42
829.59	4102.08
829.77	4161.47
829.95	4190.14
830.12	3643.34
830.30	3862.47
830.48	3893.19
830.66	3950.53
830.84	4069.31
831.01	4130.75
831.19	3841.99
831.37	3913.67
831.55	3753.93
831.72	3665.86
831.90	3766.21
832.08	3798.98
832.25	3940.29
832.43	4001.73
832.61	3723.21
832.79	3801.03
832.96	3698.63
833.14	3909.57
833.32	3917.76
833.50	3581.90
833.67	3674.06
833.85	3882.95
834.03	3422.16
834.20	3903.43
834.38	3829.70
834.56	3876.80
834.74	3651.53
834.91	3747.78
835.09	3651.53
835.27	3710.92
835.44	3928.00
835.62	3207.12
835.80	3444.68
835.98	3293.13
836.15	3827.65
836.33	3696.58
836.51	3448.78
836.68	3958.72
836.86	3852.23
837.04	3934.15
837.21	3641.29
837.39	3633.10
837.57	3557.32
837.75	3585.99
837.92	3819.46
838.10	3715.02
838.28	3475.40
838.45	3594.19
838.63	3551.18
838.81	3651.53
838.98	3743.69
839.16	3356.62
839.34	3659.72
839.51	3616.71
839.69	3600.33
839.87	3379.15
840.04	3657.67
840.22	4841.40
840.40	3583.95
840.57	3426.25
840.75	3629.00
840.93	3311.57
841.10	3571.66
841.28	3424.20
841.46	3393.48
841.63	3655.62
841.81	3346.38
841.98	3235.79
842.16	3616.71
842.34	3444.68
842.51	3278.80
842.69	3319.76
842.87	3444.68
843.04	3358.67
843.22	3229.65
843.40	3289.04
843.57	3248.08
843.75	3360.72
843.92	3397.58
844.10	3542.99
844.28	3360.72
844.45	3370.96
844.63	3532.75
844.81	3444.68
844.98	3657.67
845.16	3532.75
845.33	3604.42
845.51	3407.82
845.69	3370.96
845.86	3493.83
846.04	3327.95
846.21	3176.40
846.39	3286.99
846.57	3256.27
846.74	3237.84
846.92	3573.71
847.09	3086.29
847.27	3053.52
847.45	3319.76
847.62	3428.30
847.80	3293.13
847.97	3358.67
848.15	3207.12
848.32	3274.70
848.50	3137.49
848.68	3383.24
848.85	3330.00
849.03	3221.45
849.20	3389.39
849.38	3125.20
849.56	3239.89
849.73	3059.67
849.91	3170.26
850.08	3426.25
850.26	3362.76
850.43	3174.35
850.61	3379.15
850.78	3057.62
850.96	3360.72
851.14	2969.55
851.31	3413.96
851.49	3346.38
851.66	3381.20
851.84	3102.67
852.01	3354.57
852.19	3182.54
852.36	3366.86
852.54	3092.43
852.71	3014.61
852.89	3416.01
853.07	3317.71
853.24	3067.86
853.42	3211.22
853.59	3502.03
853.77	3203.02
853.94	3569.61
854.12	3573.71
854.29	3100.62
854.47	3229.65
854.64	3215.31
854.82	3059.67
854.99	3403.72
855.17	3217.36
855.34	3131.34
855.52	3346.38
855.69	3442.64
855.87	3067.86
856.04	3049.43
856.22	3336.14
856.39	2861.01
856.57	3262.41
856.74	3330.00
856.92	3315.66
857.09	3164.11
857.27	2949.08
857.44	3215.31
857.62	3039.19
857.79	2990.03
857.97	3207.12
858.14	3127.25
858.32	2858.96
858.49	2985.94
858.67	3483.59
858.84	2951.12
859.02	3059.67
859.19	3059.67
859.37	2858.96
859.54	2762.71
859.72	3112.91
859.89	3090.38
860.06	2924.50
860.24	3229.65
860.41	2908.12
860.59	2904.02
860.76	3010.51
860.94	2912.21
861.11	2789.33
861.29	3174.35
861.46	2809.81
861.64	3076.05
861.81	3182.54
861.98	2715.61
862.16	2736.09
862.33	2686.94
862.51	2723.80
862.68	3080.14
862.86	2959.31
863.03	2904.02
863.21	2772.95
863.38	3022.80
863.55	3104.72
863.73	2996.18
863.90	2850.77
864.08	2932.69
864.25	3024.85
864.43	3020.75
864.60	2715.61
864.77	3018.71
864.95	3082.19
865.12	2832.34
865.30	3213.26
865.47	3014.61
865.64	2803.67
865.82	2787.29
865.99	3012.56
866.17	3055.57
866.34	2967.51
866.51	2691.03
866.69	2908.12
866.86	3227.60
867.04	2928.60
867.21	2920.40
867.38	2826.20
867.56	2770.90
867.73	2953.17
867.91	2844.63
868.08	2727.89
868.25	2869.20
868.43	3002.32
868.60	2648.02
868.78	2754.52
868.95	2779.09
869.12	2822.10
869.30	2826.20
869.47	2740.18
869.64	2779.09
869.82	2731.99
869.99	2924.50
870.16	3026.90
870.34	3045.33
870.51	3004.37
870.69	2648.02
870.86	2664.41
871.03	2736.09
871.21	2901.97
871.38	3092.43
871.55	2795.48
871.73	2725.85
871.90	2670.55
872.07	2791.38
872.25	2469.85
872.42	2549.72
872.59	2502.62
872.77	2691.03
872.94	2691.03
873.11	2858.96
873.29	2920.40
873.46	2818.00
873.63	2734.04
873.81	2637.78
873.98	2994.13
874.15	2549.72
874.33	2523.10
874.50	2498.52
874.67	2748.37
874.85	2594.78
875.02	2701.27
875.19	2482.14
875.37	2572.25
875.54	2645.98
875.71	2674.65
875.88	2570.20
876.06	2529.24
876.23	2498.52
876.40	2674.65
876.58	2668.50
876.75	2648.02
876.92	2615.26
877.10	2557.91
877.27	2523.10
877.44	2443.23
877.61	2461.66
877.79	2652.12
877.96	2463.71
878.13	2842.58
878.31	2504.67
878.48	2557.91
878.65	2660.31
878.82	2498.52
879.00	2482.14
879.17	2545.63
879.34	2527.19
879.51	2371.55
879.69	2297.82
879.86	2457.56
880.03	2471.90
880.21	2449.37
880.38	2654.17
880.55	2535.39
880.72	2611.16
880.90	2459.61
881.07	2330.59
881.24	2740.18
881.41	2484.19
881.59	2627.54
881.76	2531.29
881.93	2439.13
882.10	2580.44
882.28	2514.91
882.45	2512.86
882.62	2508.76
882.79	2625.50
882.96	2377.69
883.14	2475.99
883.31	2398.17
883.48	2469.85
883.65	2332.64
883.83	2455.51
884.00	2478.04
884.17	2441.18
884.34	2748.37
884.51	2441.18
884.69	2473.95
884.86	2301.92
885.03	2424.80
885.20	2240.48
885.38	2691.03
885.55	2289.63
885.72	2539.48
885.89	2410.46
886.06	2344.92
886.24	2396.12
886.41	2344.92
886.58	2457.56
886.75	2559.96
886.92	2420.70
887.10	2318.30
887.27	2314.20
887.44	2789.33
887.61	2607.06
887.78	2387.93
887.95	2426.84
888.13	2291.68
888.30	2172.89
888.47	2533.34
888.64	2273.25
888.81	2682.84
888.99	2043.87
889.16	2428.89
889.33	2299.87
889.50	2336.73
889.67	2301.92
889.84	2351.07
890.01	2236.38
890.19	2588.63
890.36	2301.92
890.53	2379.74
890.70	2246.62
890.87	2437.08
891.04	2379.74
891.22	2281.44
891.39	2131.94
891.56	2392.03
891.73	2404.32
891.90	2168.80
892.07	2035.68
892.24	2408.41
892.42	2189.28
892.59	2332.64
892.76	2410.46
892.93	2209.76
893.10	2187.23
893.27	2244.57
893.44	2158.56
893.61	2279.39
893.79	2453.47
893.96	2189.28
894.13	2244.57
894.30	2213.85
894.47	2447.32
894.64	2473.95
894.81	2207.71
894.98	2324.44
895.15	2478.04
895.33	2412.51
895.50	2422.75
895.67	2387.93
895.84	2387.93
896.01	2273.25
896.18	2064.35
896.35	2461.66
896.52	2258.91
896.69	2158.56
896.86	2279.39
897.04	2506.71
897.21	2240.48
897.38	2201.57
897.55	2297.82
897.72	2090.98
897.89	2187.23
898.06	2404.32
898.23	2205.66
898.40	2312.16
898.57	2217.95
898.74	2179.04
898.91	2211.81
899.08	2174.94
899.26	2443.23
899.43	2478.04
899.60	2056.16
899.77	2539.48
899.94	2297.82
900.11	2189.28
900.28	2220.00
900.45	2412.51
900.62	2140.13
900.79	2260.96
900.96	2351.07
901.13	2191.33
901.30	2095.07
901.47	2142.18
901.64	2146.27
901.81	2295.77
901.98	2195.42
902.15	2371.55
902.32	2187.23
902.49	2146.27
902.66	2285.53
902.83	2201.57
903.01	2232.29
903.18	2232.29
903.35	2052.06
903.52	2187.23
903.69	2217.95
903.86	2166.75
904.03	2238.43
904.20	2310.11
904.37	2174.94
904.54	2195.42
904.71	2224.09
904.88	2228.19
905.05	1984.48
905.22	2346.97
905.39	2195.42
905.56	2181.09
905.73	2359.26
905.90	2193.37
906.07	2150.37
906.24	2213.85
906.41	2267.10
906.58	2494.43
906.75	2326.49
906.92	2201.57
907.09	2156.51
907.26	2234.33
907.43	2158.56
907.60	2215.90
907.77	2154.46
907.93	2125.79
908.10	2129.89
908.27	2275.29
908.44	2283.49
908.61	2047.97
908.78	2113.50
908.95	2447.32
909.12	2260.96
909.29	2150.37
909.46	2109.41
909.63	2232.29
909.80	2289.63
909.97	2312.16
910.14	2336.73
910.31	2088.93
910.48	2183.13
910.65	2127.84
910.82	2316.25
910.99	2338.78
911.16	2529.24
911.33	2306.01
911.50	2154.46
911.66	2166.75
911.83	2176.99
912.00	2068.45
912.17	2058.21
912.34	2009.06
912.51	2158.56
912.68	2086.88
912.85	2574.30
913.02	2248.67
913.19	2078.69
913.36	2093.02
913.53	2236.38
913.70	2033.63
913.86	2349.02
914.03	2150.37
914.20	2207.71
914.37	2338.78
914.54	2150.37
914.71	2115.55
914.88	2086.88
915.05	2095.07
915.22	2199.52
915.39	2189.28
915.55	2189.28
915.72	2164.70
915.89	2043.87
916.06	2242.53
916.23	2287.58
916.40	2142.18
916.57	2002.91
916.74	2066.40
916.91	2179.04
917.07	1888.23
917.24	1947.62
917.41	2140.13
917.58	2181.09
917.75	2033.63
917.92	1988.58
918.09	2113.50
918.26	2136.03
918.42	2066.40
918.59	2138.08
918.76	1968.10
918.93	1984.48
919.10	2113.50
919.27	2082.78
919.44	2232.29
919.60	2183.13
919.77	2011.11
919.94	2037.73
920.11	2162.66
920.28	2181.09
920.45	2074.59
920.61	2058.21
920.78	2076.64
920.95	2148.32
921.12	2136.03
921.29	2107.36
921.46	1970.15
921.62	1920.99
921.79	1986.53
921.96	2031.58
922.13	2084.83
922.30	1961.95
922.47	1949.67
922.63	1941.47
922.80	1935.33
922.97	2025.44
923.14	1800.16
923.31	1861.60
923.47	2025.44
923.64	2310.11
923.81	2002.91
923.98	1949.67
924.15	2064.35
924.32	2131.94
924.48	1974.24
924.65	2080.74
924.82	1753.06
924.99	1947.62
925.15	1791.97
925.32	2107.36
925.49	1937.38
925.66	2263.01
925.83	1994.72
925.99	1843.17
926.16	2093.02
926.33	1914.85
926.50	1703.91
926.67	1951.71
926.83	1908.71
927.00	2103.26
927.17	2088.93
927.34	1787.88
927.50	1898.47
927.67	2019.30
927.84	1984.48
928.01	1976.29
928.17	1886.18
928.34	1812.45
928.51	1882.08
928.68	1912.80
928.84	1828.84
929.01	1796.07
929.18	1920.99
929.35	1984.48
929.51	1894.37
929.68	1744.87
929.85	1828.84
930.02	1980.39
930.18	1929.19
930.35	1955.81
930.52	1869.80
930.69	1951.71
930.85	1937.38
931.02	1847.27
931.19	1839.08
931.36	1888.23
931.52	1898.47
931.69	1957.86
931.86	1898.47
932.02	1873.89
932.19	1796.07
932.36	1873.89
932.53	1869.80
932.69	1765.35
932.86	2002.91
933.03	1953.76
933.19	1753.06
933.36	1834.98
933.53	1867.75
933.70	1961.95
933.86	1918.95
934.03	1855.46
934.20	1712.10
934.36	1953.76
934.53	1716.20
934.70	1771.49
934.86	1816.55
935.03	1755.11
935.20	1814.50
935.36	1927.14
935.53	1753.06
935.70	1773.54
935.86	1904.61
936.03	1652.71
936.20	1695.72
936.36	1705.96
936.53	1802.21
936.70	1804.26
936.86	1918.95
937.03	1794.02
937.20	1781.73
937.36	1841.12
937.53	1552.36
937.70	1765.35
937.86	1595.37
938.03	1761.25
938.20	2041.82
938.36	1753.06
938.53	1843.17
938.70	1624.04
938.86	1816.55
939.03	1705.96
939.20	1654.76
939.36	1708.01
939.53	1689.57
939.70	1867.75
939.86	1722.34
940.03	1677.29
940.19	1648.61
940.36	1669.09
940.53	1777.64
940.69	1726.44
940.86	1798.12
941.03	1748.97
941.19	1681.38
941.36	1693.67
941.52	1761.25
941.69	1693.67
941.86	1740.77
942.02	1773.54
942.19	1738.73
942.35	1771.49
942.52	1681.38
942.69	1738.73
942.85	1638.38
943.02	1650.66
943.18	1673.19
943.35	1669.09
943.52	1634.28
943.68	1658.85
943.85	1718.25
944.01	1683.43
944.18	1626.09
944.35	1794.02
944.51	1687.53
944.68	1642.47
944.84	1710.05
945.01	1662.95
945.17	1763.30
945.34	1722.34
945.51	1669.09
945.67	1652.71
945.84	1607.66
946.00	1585.13
946.17	1642.47
946.33	1724.39
946.50	1759.21
946.67	1662.95
946.83	1695.72
947.00	1791.97
947.16	1703.91
947.33	1665.00
947.49	1722.34
947.66	1613.80
947.82	1695.72
947.99	1589.22
948.16	1720.29
948.32	1611.75
948.49	1689.57
948.65	1746.92
948.82	1767.40
948.98	1677.29
949.15	1554.41
949.31	1716.20
949.48	1759.21
949.64	1583.08
949.81	1656.81
949.97	1568.74
950.14	1714.15
950.30	1650.66
950.47	1679.33
950.63	1644.52
950.80	1685.48
950.96	1667.05
951.13	1699.81
951.30	1681.38
951.46	1699.81
951.63	1777.64
951.79	1693.67
951.96	1751.01
952.12	1652.71
952.29	1632.23
952.45	1634.28
952.62	1753.06
952.78	1621.99
952.94	1730.53
953.11	1708.01
953.27	1581.03
953.44	1806.31
953.60	1691.62
953.77	1720.29
953.93	1683.43
954.10	1705.96
954.26	1683.43
954.43	1695.72
954.59	1837.03
954.76	1857.51
954.92	1691.62
955.09	1636.33
955.25	1570.79
955.42	1644.52
955.58	1832.93
955.75	1605.61
955.91	1617.90
956.07	1665.00
956.24	1693.67
956.40	1703.91
956.57	1699.81
956.73	1705.96
956.90	1732.58
957.06	1662.95
957.23	1718.25
957.39	1683.43
957.56	1691.62
957.72	1611.75
957.88	1587.18
958.05	1689.57
958.21	1761.25
958.38	1691.62
958.54	1650.66
958.71	1728.49
958.87	1656.81
959.03	1619.94
959.20	1675.24
959.36	1646.57
959.53	1716.20
959.69	1669.09
959.85	1751.01
960.02	1607.66
960.18	1646.57
960.35	1746.92
960.51	1718.25
960.68	1726.44
960.84	1734.63
961.00	1654.76
961.17	1585.13
961.33	1677.29
961.50	1732.58
961.66	1685.48
961.82	1669.09
961.99	1763.30
962.15	1648.61
962.31	1636.33
962.48	1662.95
962.64	1777.64
962.81	1703.91
962.97	1665.00
963.13	1744.87
963.30	1654.76
963.46	1685.48
963.62	1587.18
963.79	1597.42
963.95	1689.57
964.12	1705.96
964.28	1777.64
964.44	1638.38
964.61	1796.07
964.77	1687.53
964.93	1839.08
965.10	1662.95
965.26	1652.71
965.42	1634.28
965.59	1628.14
965.75	1599.46
965.92	1640.42
966.08	1699.81
966.24	1691.62
966.41	1568.74
966.57	1716.20
966.73	1673.19
966.90	1701.86
967.06	1769.44
967.22	1636.33
967.39	1658.85
967.55	1648.61
967.71	1621.99
967.88	1654.76
968.04	1681.38
968.20	1591.27
968.37	1615.85
968.53	1660.90
968.69	1665.00
968.85	1757.16
969.02	1683.43
969.18	1689.57
969.34	1662.95
969.51	1726.44
969.67	1744.87
969.83	1591.27
970.00	1783.78
970.16	1730.53
970.32	1687.53
970.48	1806.31
970.65	1621.99
970.81	1634.28
970.97	1699.81
971.14	1576.94
971.30	1845.22
971.46	1656.81
971.63	1708.01
971.79	1716.20
971.95	1714.15
972.11	1617.90
972.28	1648.61
972.44	1671.14
972.60	1632.23
972.76	1781.73
972.93	1621.99
973.09	1708.01
973.25	1761.25
973.42	1658.85
973.58	1771.49
973.74	1695.72
973.90	1689.57
974.07	1624.04
974.23	1654.76
974.39	1624.04
974.55	1644.52
974.72	1691.62
974.88	1570.79
975.04	1728.49
975.20	1669.09
975.37	1722.34
975.53	1687.53
975.69	1673.19
975.85	1658.85
976.01	1677.29
976.18	1691.62
976.34	1617.90
976.50	1753.06
976.66	1746.92
976.83	1673.19
976.99	1568.74
977.15	1677.29
977.31	1605.61
977.47	1714.15
977.64	1732.58
977.80	1634.28
977.96	1703.91
978.12	1652.71
978.29	1691.62
978.45	1505.26
978.61	1658.85
978.77	1720.29
978.93	1669.09
979.10	1667.05
979.26	1599.46
979.42	1665.00
979.58	1591.27
979.74	1583.08
979.91	1632.23
980.07	1576.94
980.23	1675.24
980.39	1630.18
980.55	1660.90
980.71	1652.71
980.88	1626.09
981.04	1621.99
981.20	1697.77
981.36	1665.00
981.52	1646.57
981.68	1628.14
981.85	1765.35
982.01	1624.04
982.17	1619.94
982.33	1615.85
982.49	1718.25
982.65	1673.19
982.82	1689.57
982.98	1617.90
983.14	1615.85
983.30	1716.20
983.46	1746.92
983.62	1742.82
983.79	1576.94
983.95	1673.19
984.11	1468.39
984.27	1624.04
984.43	1605.61
984.59	1636.33
984.75	1714.15
984.91	1609.70
985.08	1691.62
985.24	1574.89
985.40	1572.84
985.56	1691.62
985.72	1734.63
985.88	1695.72
986.04	1675.24
986.20	1642.47
986.37	1626.09
986.53	1523.69
986.69	1683.43
986.85	1576.94
987.01	1703.91
987.17	1699.81
987.33	1675.24
987.49	1636.33
987.65	1665.00
987.82	1658.85
987.98	1581.03
988.14	1648.61
988.30	1636.33
988.46	1644.52
988.62	1617.90
988.78	1662.95
988.94	1734.63
989.10	1624.04
989.26	1605.61
989.42	1701.86
989.59	1581.03
989.75	1687.53
989.91	1705.96
990.07	1646.57
990.23	1648.61
990.39	1687.53
990.55	1718.25
990.71	1521.64
990.87	1650.66
991.03	1765.35
991.19	1585.13
991.35	1544.17
991.51	1640.42
991.67	1701.86
991.83	1667.05
992.00	1581.03
992.16	1687.53
992.32	1626.09
992.48	1734.63
992.64	1660.90
992.80	1705.96
992.96	1599.46
993.12	1634.28
993.28	1703.91
993.44	1615.85
993.60	1646.57
993.76	1617.90
993.92	1605.61
994.08	1615.85
994.24	1699.81
994.40	1644.52
994.56	1683.43
994.72	1624.04
994.88	1630.18
995.04	1665.00
995.20	1628.14
995.36	1581.03
995.52	1654.76
995.68	1646.57
995.84	1605.61
996.00	1757.16
996.16	1548.26
996.32	1581.03
996.48	1648.61
996.64	1718.25
996.80	1591.27
996.96	1646.57
997.12	1658.85
997.28	1634.28
997.44	1595.37
997.60	1538.02
997.76	1695.72
997.92	1650.66
998.08	1644.52
998.24	1638.38
998.40	1705.96
998.56	1699.81
998.72	1515.50
998.88	1597.42
999.04	1564.65
999.20	1718.25
999.36	1597.42
999.52	1681.38
999.68	1685.48
999.84	1740.77
1000.00	1724.39
1000.16	1654.76
1000.32	1533.93
1000.48	1783.78
1000.64	1626.09
1000.80	1619.94
1000.95	1634.28
1001.11	1654.76
1001.27	1566.70
1001.43	1679.33
1001.59	1587.18
1001.75	1617.90
1001.91	1679.33
1002.07	1593.32
1002.23	1558.50
1002.39	1613.80
1002.55	1578.98
1002.71	1601.51
1002.87	1621.99
1003.03	1533.93
1003.19	1535.98
1003.34	1667.05
1003.50	1576.94
1003.66	1662.95
1003.82	1671.14
1003.98	1595.37
1004.14	1640.42
1004.30	1634.28
1004.46	1615.85
1004.62	1611.75
1004.78	1581.03
1004.94	1607.66
1005.09	1683.43
1005.25	1605.61
1005.41	1691.62
1005.57	1644.52
1005.73	1615.85
1005.89	1550.31
1006.05	1695.72
1006.21	1656.81
1006.37	1609.70
1006.52	1607.66
1006.68	1488.87
1006.84	1779.68
1007.00	1544.17
1007.16	1675.24
1007.32	1574.89
1007.48	1636.33
1007.64	1636.33
1007.79	1615.85
1007.95	1574.89
1008.11	1712.10
1008.27	1599.46
1008.43	1626.09
1008.59	1630.18
1008.75	1640.42
1008.91	1667.05
1009.06	1542.12
1009.22	1615.85
1009.38	1609.70
1009.54	1587.18
1009.70	1593.32
1009.86	1675.24
1010.01	1697.77
1010.17	1630.18
1010.33	1640.42
1010.49	1595.37
1010.65	1677.29
1010.81	1564.65
1010.96	1654.76
1011.12	1607.66
1011.28	1581.03
1011.44	1677.29
1011.60	1634.28
1011.76	1548.26
1011.91	1681.38
1012.07	1603.56
1012.23	1525.74
1012.39	1546.22
1012.55	1624.04
1012.71	1652.71
1012.86	1609.70
1013.02	1673.19
1013.18	1570.79
1013.34	1599.46
1013.50	1599.46
1013.65	1658.85
1013.81	1619.94
1013.97	1638.38
1014.13	1691.62
1014.29	1662.95
1014.44	1662.95
1014.60	1583.08
1014.76	1617.90
1014.92	1699.81
1015.07	1658.85
1015.23	1585.13
1015.39	1525.74
1015.55	1640.42
1015.71	1611.75
1015.86	1667.05
1016.02	1636.33
1016.18	1564.65
1016.34	1720.29
1016.49	1638.38
1016.65	1665.00
1016.81	1660.90
1016.97	1669.09
1017.12	1697.77
1017.28	1564.65
1017.44	1583.08
1017.60	1605.61
1017.75	1648.61
1017.91	1613.80
1018.07	1685.48
1018.23	1662.95
1018.38	1562.60
1018.54	1648.61
1018.70	1552.36
1018.86	1605.61
1019.01	1662.95
1019.17	1681.38
1019.33	1722.34
1019.49	1652.71
1019.64	1671.14
1019.80	1640.42
1019.96	1671.14
1020.12	1599.46
1020.27	1560.55
1020.43	1619.94
1020.59	1710.05
1020.74	1662.95
1020.90	1650.66
1021.06	1626.09
1021.22	1626.09
1021.37	1585.13
1021.53	1632.23
1021.69	1658.85
1021.84	1589.22
1022.00	1609.70
1022.16	1583.08
1022.31	1626.09
1022.47	1638.38
1022.63	1646.57
1022.79	1576.94
1022.94	1581.03
1023.10	1656.81
1023.26	1681.38
1023.41	1583.08
1023.57	1628.14
1023.73	1665.00
1023.88	1609.70
1024.04	1589.22
1024.20	1581.03
1024.35	1632.23
1024.51	1656.81
1024.67	1642.47
1024.82	1710.05
1024.98	1591.27
1025.14	1613.80
1025.29	1611.75
1025.45	1667.05
1025.61	1595.37
1025.76	1665.00
1025.92	1601.51
1026.08	1689.57
1026.23	1681.38
1026.39	1656.81
1026.55	1535.98
1026.70	1669.09
1026.86	1603.56
1027.02	1695.72
1027.17	1642.47
1027.33	1615.85
1027.48	1611.75
1027.64	1621.99
1027.80	1578.98
1027.95	1630.18
1028.11	1564.65
1028.27	1681.38
1028.42	1691.62
1028.58	1650.66
1028.73	1574.89
1028.89	1568.74
1029.05	1677.29
1029.20	1685.48
>>>>>End Processed Spectral Data<<<<<
