SpectraSuite Data File
++++++++++++++++++++++++++++++++++++
Date: Fri Jun 02 14:52:24 CEST 2017
User: INFO_000
Dark Spectrum Present: No
Reference Spectrum Present: No
Number of Sampled Component Spectra: 1
Spectrometers: USB4H00879
Integration Time (usec): 80000 (USB4H00879)
Spectra Averaged: 1 (USB4H00879)
Boxcar Smoothing: 0 (USB4H00879)
Correct for Electrical Dark: No (USB4H00879)
Strobe/Lamp Enabled: No (USB4H00879)
Correct for Detector Non-linearity: No (USB4H00879)
Correct for Stray Light: No (USB4H00879)
Number of Pixels in Processed Spectrum: 3648
>>>>>Begin Processed Spectral Data<<<<<
345.13	1277.93
345.34	1277.93
345.56	1277.93
345.78	1198.06
345.99	1228.78
346.21	1726.44
346.42	1677.29
346.64	1667.05
346.86	1753.06
347.07	1542.12
347.29	1679.33
347.50	1593.32
347.72	1662.95
347.94	1798.12
348.15	1521.64
348.37	1665.00
348.59	1652.71
348.80	1667.05
349.02	1679.33
349.23	1904.61
349.45	1857.51
349.67	1828.84
349.88	1769.44
350.10	1877.99
350.31	1857.51
350.53	1845.22
350.75	2017.25
350.96	1867.75
351.18	1859.56
351.39	1839.08
351.61	1837.03
351.82	1875.94
352.04	1863.65
352.26	1935.33
352.47	1877.99
352.69	1929.19
352.90	1771.49
353.12	1804.26
353.34	1890.28
353.55	1884.13
353.77	1912.80
353.98	1865.70
354.20	1830.88
354.41	1892.32
354.63	1777.64
354.85	2058.21
355.06	1900.52
355.28	1787.88
355.49	1890.28
355.71	1974.24
355.92	1794.02
356.14	1972.19
356.35	1818.60
356.57	1904.61
356.79	1902.56
357.00	1830.88
357.22	1888.23
357.43	1886.18
357.65	2033.63
357.86	1933.28
358.08	1822.69
358.29	1976.29
358.51	1923.04
358.72	1974.24
358.94	1898.47
359.16	1964.00
359.37	2007.01
359.59	1996.77
359.80	1910.75
360.02	1933.28
360.23	1908.71
360.45	1976.29
360.66	1998.82
360.88	1910.75
361.09	1933.28
361.31	2039.78
361.52	1931.23
361.74	1996.77
361.95	2084.83
362.17	1943.52
362.38	2080.74
362.60	2050.02
362.81	2019.30
363.03	1998.82
363.24	1941.47
363.46	2074.59
363.67	2103.26
363.89	2019.30
364.10	2093.02
364.32	1916.90
364.53	2191.33
364.75	1937.38
364.96	2084.83
365.18	1992.67
365.39	2013.15
365.61	1992.67
365.82	2152.42
366.04	1970.15
366.25	1888.23
366.47	2062.30
366.68	1980.39
366.90	1988.58
367.11	2074.59
367.33	2115.55
367.54	2097.12
367.76	1961.95
367.97	2103.26
368.19	2115.55
368.40	2113.50
368.62	1992.67
368.83	2043.87
369.05	2117.60
369.26	2035.68
369.48	2050.02
369.69	2027.49
369.91	2142.18
370.12	2007.01
370.33	2138.08
370.55	2007.01
370.76	2037.73
370.98	2121.70
371.19	2062.30
371.41	2019.30
371.62	2125.79
371.84	2033.63
372.05	2183.13
372.27	2101.22
372.48	2080.74
372.69	2097.12
372.91	2066.40
373.12	2154.46
373.34	2070.50
373.55	2136.03
373.77	2162.66
373.98	2090.98
374.20	2148.32
374.41	2299.87
374.62	2140.13
374.84	2136.03
375.05	2209.76
375.27	2148.32
375.48	2224.09
375.70	2125.79
375.91	2211.81
376.12	2328.54
376.34	2103.26
376.55	2189.28
376.77	2209.76
376.98	2119.65
377.19	2168.80
377.41	2199.52
377.62	2230.24
377.84	2287.58
378.05	2306.01
378.27	2179.04
378.48	2330.59
378.69	2314.20
378.91	2351.07
379.12	2187.23
379.34	2242.53
379.55	2385.88
379.76	2355.16
379.98	2297.82
380.19	2246.62
380.41	2248.67
380.62	2355.16
380.83	2281.44
381.05	2148.32
381.26	2365.40
381.47	2199.52
381.69	2244.57
381.90	2480.09
382.12	2254.81
382.33	2256.86
382.54	2301.92
382.76	2336.73
382.97	2283.49
383.19	2295.77
383.40	2420.70
383.61	2306.01
383.83	2287.58
384.04	2308.06
384.25	2373.60
384.47	2465.75
384.68	2369.50
384.89	2355.16
385.11	2328.54
385.32	2381.79
385.54	2371.55
385.75	2379.74
385.96	2469.85
386.18	2430.94
386.39	2408.41
386.60	2428.89
386.82	2465.75
387.03	2471.90
387.24	2496.47
387.46	2449.37
387.67	2508.76
387.88	2545.63
388.10	2564.06
388.31	2574.30
388.52	2621.40
388.74	2469.85
388.95	2467.80
389.16	2576.34
389.38	2535.39
389.59	2529.24
389.80	2621.40
390.02	2590.68
390.23	2680.79
390.44	2533.34
390.66	2602.97
390.87	2574.30
391.08	2529.24
391.30	2670.55
391.51	2594.78
391.72	2682.84
391.94	2684.89
392.15	2611.16
392.36	2686.94
392.58	2613.21
392.79	2705.37
393.00	2705.37
393.22	2770.90
393.43	2758.61
393.64	2844.63
393.85	2885.59
394.07	2684.89
394.28	2764.76
394.49	2777.05
394.71	2793.43
394.92	2887.64
395.13	2623.45
395.35	2805.72
395.56	2807.77
395.77	2842.58
395.98	2820.05
396.20	2840.53
396.41	2871.25
396.62	3039.19
396.84	2832.34
397.05	2828.24
397.26	2977.75
397.47	2883.54
397.69	2879.44
397.90	3030.99
398.11	2944.98
398.32	2926.55
398.54	2820.05
398.75	2916.31
398.96	2928.60
399.18	3055.57
399.39	3065.81
399.60	3135.44
399.81	2996.18
400.03	3000.27
400.24	3411.92
400.45	3037.14
400.66	3129.30
400.88	3100.62
401.09	3233.74
401.30	3084.24
401.51	3184.59
401.73	3170.26
401.94	3284.94
402.15	3088.34
402.36	3209.17
402.58	3174.35
402.79	3123.15
403.00	3200.98
403.21	3153.87
403.43	3211.22
403.64	3303.37
403.85	3127.25
404.06	3264.46
404.27	3108.82
404.49	3182.54
404.70	3237.84
404.91	3192.78
405.12	3307.47
405.34	3250.13
405.55	3485.64
405.76	3184.59
405.97	3264.46
406.19	3387.34
406.40	3260.37
406.61	3362.76
406.82	3399.63
407.03	3377.10
407.25	3227.60
407.46	3420.11
407.67	3407.82
407.88	3420.11
408.09	3291.09
408.31	3385.29
408.52	3467.21
408.73	3348.43
408.94	3321.81
409.15	3473.36
409.37	3551.18
409.58	3520.46
409.79	3489.74
410.00	3600.33
410.21	3446.73
410.43	3477.45
410.64	3522.51
410.85	3604.42
411.06	3540.94
411.27	3493.83
411.48	3606.47
411.70	3481.55
411.91	3723.21
412.12	3684.30
412.33	3633.10
412.54	3594.19
412.76	3762.12
412.97	3741.64
413.18	3522.51
413.39	3680.20
413.60	3801.03
413.81	3829.70
414.03	3676.10
414.24	3653.58
414.45	3792.84
414.66	3665.86
414.87	3737.54
415.08	3641.29
415.30	3803.08
415.51	3915.72
415.72	3805.13
415.93	3821.51
416.14	3864.52
416.35	3856.33
416.56	3868.61
416.78	3848.13
416.99	3887.04
417.20	3735.50
417.41	3901.38
417.62	3889.09
417.83	4036.55
418.04	3997.64
418.26	4001.73
418.47	3919.81
418.68	4124.61
418.89	3989.44
419.10	4194.24
419.31	4026.31
419.52	4153.28
419.73	4145.09
419.95	4247.49
420.16	4044.74
420.37	4136.90
420.58	4227.01
420.79	4034.50
421.00	4069.31
421.21	4208.58
421.42	4153.28
421.63	4206.53
421.85	4132.80
422.06	4202.43
422.27	4210.62
422.48	4245.44
422.69	4306.88
422.90	4243.39
423.11	4360.13
423.32	4427.71
423.53	4431.80
423.75	4304.83
423.96	4642.75
424.17	4403.13
424.38	4538.30
424.59	4474.81
424.80	4782.01
425.01	4530.11
425.22	4505.53
425.43	4618.17
425.64	4753.34
425.85	4620.22
426.06	4687.80
426.28	4659.13
426.49	4605.88
426.70	4573.11
426.91	4589.50
427.12	4790.20
427.33	4810.68
427.54	4734.90
427.75	4792.25
427.96	5021.62
428.17	4788.15
428.38	5015.48
428.59	4923.32
428.80	4851.64
429.01	5011.38
429.23	4868.02
429.44	5337.01
429.65	5009.33
429.86	4968.37
430.07	4980.66
430.28	5015.48
430.49	5193.65
430.70	5207.98
430.91	5312.43
431.12	5085.11
431.33	5187.50
431.54	5267.38
431.75	5287.86
431.96	5205.94
432.17	5232.56
432.38	5296.05
432.59	5521.32
432.80	5480.36
433.01	5343.15
433.22	5437.36
433.43	5414.83
433.64	5447.60
433.85	5562.28
434.06	5539.76
434.27	5248.94
434.49	5562.28
434.70	5681.07
434.91	5509.04
435.12	5656.49
435.33	5547.95
435.54	5568.43
435.75	5287.86
435.96	5550.00
436.17	5629.87
436.38	5701.54
436.59	5623.72
436.80	5631.91
437.01	5863.33
437.22	5896.10
437.43	5881.77
437.64	5654.44
437.85	5859.24
438.06	5844.90
438.27	5697.45
438.48	5828.52
438.69	5793.70
438.90	6008.74
439.11	5771.18
439.32	5978.02
439.53	5912.49
439.74	5853.09
439.95	6061.99
440.16	5883.81
440.37	5793.70
440.57	5664.68
440.78	5982.12
440.99	5969.83
441.20	6064.04
441.41	5978.02
441.62	6133.67
441.83	5984.16
442.04	6160.29
442.25	6113.19
442.46	6113.19
442.67	6328.22
442.88	6563.74
443.09	6037.41
443.30	6135.71
443.51	6229.92
443.72	6401.95
443.93	6084.52
444.14	6463.39
444.35	6303.65
444.56	6408.09
444.77	6420.38
444.98	6391.71
445.19	6395.81
445.40	6563.74
445.61	6451.10
445.81	6588.32
446.02	6594.46
446.23	6485.92
446.44	6401.95
446.65	6463.39
446.86	6576.03
447.07	6725.53
447.28	6735.77
447.49	6698.91
447.70	6623.13
447.91	6666.14
448.12	6700.95
448.33	6817.69
448.54	6799.26
448.74	6649.75
448.95	6809.50
449.16	6741.91
449.37	7026.58
449.58	6877.08
449.79	6897.56
450.00	6692.76
450.21	6983.57
450.42	7016.34
450.63	7137.17
450.84	7055.25
451.05	6995.86
451.25	7124.88
451.46	7061.40
451.67	7270.29
451.88	7169.94
452.09	7147.41
452.30	6995.86
452.51	7239.57
452.72	7466.89
452.93	7538.57
453.13	7229.33
453.34	7284.62
453.55	7421.84
453.76	7260.05
453.97	7772.04
454.18	7366.54
454.39	7503.76
454.60	7495.57
454.81	7706.51
455.01	7937.93
455.22	7475.09
455.43	7694.22
455.64	7911.30
455.85	7849.86
456.06	7944.07
456.27	7896.97
456.48	7946.12
456.68	7860.10
456.89	7935.88
457.10	7995.27
457.31	8048.52
457.52	7853.96
457.73	8185.73
457.94	8374.14
458.14	8071.04
458.35	8421.25
458.56	8269.70
458.77	8187.78
458.98	8419.20
459.19	8345.47
459.39	8488.83
459.60	8748.92
459.81	8578.94
460.02	8644.48
460.23	8763.26
460.44	8845.18
460.65	8693.63
460.85	8943.48
461.06	8806.27
461.27	8718.20
461.48	9078.65
461.69	9244.53
461.89	8724.35
462.10	9078.65
462.31	8933.24
462.52	9140.08
462.73	9138.04
462.94	9459.57
463.14	9387.89
463.35	9297.78
463.56	9910.12
463.77	9643.88
463.98	9428.85
464.18	9459.57
464.39	9688.94
464.60	9758.57
464.81	9860.97
465.02	9682.80
465.23	10071.91
465.43	9918.31
465.64	10055.53
465.85	10051.43
466.06	9883.50
466.27	10260.32
466.47	10057.57
466.68	10260.32
466.89	10239.84
467.10	10555.23
467.30	10235.75
467.51	10512.22
467.72	10782.56
467.93	10452.83
468.14	10628.96
468.34	10833.75
468.55	10682.20
468.76	10831.71
468.97	10790.75
469.17	11126.61
469.38	11052.89
469.59	11145.05
469.80	11099.99
470.01	10962.78
470.21	11333.46
470.42	11456.34
470.63	11597.65
470.84	11396.95
471.04	11841.36
471.25	11706.19
471.46	11644.75
471.67	11781.96
471.87	11986.76
472.08	12040.01
472.29	12191.56
472.50	11843.40
472.70	11935.56
472.91	12109.64
473.12	12230.47
473.33	12521.28
473.53	12478.27
473.74	12406.59
473.95	12746.56
474.16	12738.37
474.36	12799.80
474.57	12947.26
474.78	12928.83
474.99	12996.41
475.19	12945.21
475.40	13313.84
475.61	13248.31
475.81	13438.77
476.02	13647.66
476.23	13537.07
476.44	13721.39
476.64	13813.55
476.85	13967.15
477.06	13897.52
477.27	14147.37
477.47	14323.49
477.68	14171.94
477.89	14450.47
478.09	14401.32
478.30	14544.67
478.51	14493.47
478.71	14786.33
478.92	14888.73
479.13	14954.27
479.34	15116.06
479.54	15175.45
479.75	15091.48
479.96	14829.34
480.16	15408.92
480.37	15263.51
480.58	15611.67
480.78	15568.66
480.99	15785.74
481.20	15503.12
481.41	15765.26
481.61	15771.41
481.82	16017.16
482.03	15988.49
482.23	15789.84
482.44	16240.39
482.65	16410.37
482.85	16660.23
483.06	16428.81
483.27	16527.11
483.47	16717.57
483.68	16475.91
483.89	16877.31
484.09	16850.69
484.30	16889.60
484.51	17086.20
484.71	17260.28
484.92	17030.91
485.13	17424.12
485.33	17379.06
485.54	17465.08
485.75	17495.80
485.95	17751.79
486.16	17823.47
486.37	17929.97
486.57	18013.93
486.78	17868.53
486.98	18247.40
487.19	18026.22
487.40	18079.47
487.60	18040.56
487.81	18435.81
488.02	18312.94
488.22	18341.61
488.43	18702.05
488.64	18503.40
488.84	18734.82
489.05	18984.67
489.25	18994.91
489.46	19115.74
489.67	19033.82
489.87	19472.09
490.08	19259.10
490.29	19353.30
490.49	19656.40
490.70	19648.21
490.90	20109.01
491.11	19623.64
491.32	19953.36
491.52	19853.01
491.73	19965.65
491.94	20258.51
492.14	19916.50
492.35	20180.68
492.55	20485.83
492.76	20281.03
492.97	20510.41
493.17	20575.94
493.38	20500.17
493.58	20758.21
493.79	20889.28
494.00	20881.09
494.20	20790.98
494.41	21137.09
494.61	21083.84
494.82	21051.07
495.02	21139.13
495.23	21268.16
495.44	21493.43
495.64	21554.87
495.85	21565.11
496.05	21612.21
496.26	21515.96
496.47	22120.11
496.67	21601.97
496.88	22070.96
497.08	21802.68
497.29	22224.56
497.49	22173.36
497.70	22548.14
497.91	22392.49
498.11	22363.82
498.32	22302.38
498.52	22599.34
498.73	22963.87
498.93	22572.71
499.14	22650.53
499.34	22595.24
499.55	23230.11
499.76	23047.84
499.96	23107.23
500.17	23076.51
500.37	23244.45
500.58	23365.28
500.78	23457.43
500.99	23250.59
501.19	23830.16
501.40	23512.73
501.60	23342.75
501.81	23924.37
502.02	23942.80
502.22	23682.71
502.43	24094.35
502.63	24170.13
502.84	24348.30
503.04	24245.90
503.25	24196.75
503.45	24311.44
503.66	24305.29
503.86	24567.43
504.07	24606.34
504.27	24442.51
504.48	24458.89
504.68	24626.82
504.89	25099.90
505.09	24802.95
505.30	25020.03
505.50	25052.80
505.71	24981.12
505.91	25398.91
506.12	25228.93
506.32	25081.47
506.53	25413.24
506.73	25716.34
506.94	25618.04
507.14	25265.79
507.35	25847.41
507.55	25726.58
507.76	25726.58
507.96	25824.89
508.17	26277.49
508.37	25839.22
508.58	26134.13
508.78	26336.88
508.99	26293.87
509.19	26248.82
509.40	26267.25
509.60	26379.89
509.81	26553.96
510.01	26566.25
510.22	26332.78
510.42	26324.59
510.63	26662.51
510.83	26914.41
511.04	26797.67
511.24	27043.43
511.44	26887.78
511.65	26957.41
511.85	26830.44
512.06	27076.19
512.26	27346.53
512.47	27205.22
512.67	27260.51
512.88	27250.27
513.08	27278.94
513.29	27610.71
513.49	27645.53
513.69	27854.42
513.90	27922.01
514.10	28048.98
514.31	28018.26
514.51	27973.21
514.72	28038.74
514.92	28106.32
515.13	28075.60
515.33	28526.16
515.53	28360.27
515.74	28141.14
515.94	28700.23
516.15	28937.80
516.35	28350.03
516.56	28773.96
516.76	28204.63
516.96	28677.71
517.17	29077.06
517.37	28616.27
517.58	28868.17
517.78	29058.63
517.99	29044.29
518.19	29414.98
518.39	29591.10
518.60	29525.57
518.80	29388.35
519.01	29607.48
519.21	29840.95
519.41	29531.71
519.62	29421.12
519.82	29787.71
520.03	30074.42
520.23	29845.05
520.43	29568.57
520.64	30365.23
520.84	30336.56
521.05	30254.64
521.25	30529.07
521.45	30631.47
521.66	30830.12
521.86	30393.90
522.07	30791.21
522.27	30740.01
522.47	30955.05
522.68	31088.17
522.88	30948.90
523.08	31219.24
523.29	31270.43
523.49	31374.88
523.70	31778.33
523.90	31510.05
524.10	31514.14
524.31	31645.21
524.51	31411.74
524.71	31907.35
524.92	31536.67
525.12	32218.64
525.33	32198.16
525.53	32095.77
525.73	32396.82
525.94	32572.94
526.14	32347.67
526.34	32374.29
526.55	32509.46
526.75	32794.12
526.95	33234.44
527.16	32597.52
527.36	32718.35
527.56	33078.79
527.77	33111.56
527.97	32863.75
528.17	33273.35
528.38	33340.93
528.58	33330.69
528.78	33439.23
528.99	33404.42
529.19	33883.64
529.39	33621.50
529.60	33834.49
529.80	34037.24
530.00	33949.18
530.21	34328.05
530.41	34395.64
530.61	33918.46
530.82	34364.92
531.02	34457.07
531.22	34862.57
531.43	34256.37
531.63	34946.54
531.83	34846.19
532.04	35091.94
532.24	34805.23
532.44	35382.76
532.64	35231.21
532.85	35816.93
533.05	35433.96
533.25	35788.25
533.46	35458.53
533.66	35665.38
533.86	35716.58
534.07	36111.83
534.27	36126.17
534.47	36206.04
534.67	36052.44
534.88	36097.50
535.08	36640.21
535.28	36285.91
535.49	36484.56
535.69	36576.72
535.89	36916.68
536.09	36933.07
536.30	37144.01
536.50	36998.60
536.70	37109.19
536.91	36892.11
537.11	37017.04
537.31	37707.20
537.51	37483.97
537.72	37354.95
537.92	37707.20
538.12	37699.01
538.32	37350.85
538.53	37979.58
538.73	37699.01
538.93	37739.97
539.13	37860.80
539.34	37821.89
539.54	37635.52
539.74	38231.48
539.94	38149.56
540.15	37821.89
540.35	38225.34
540.55	38170.04
540.75	38110.65
540.96	38612.40
541.16	38497.72
541.36	38772.14
541.56	38849.97
541.77	38854.06
541.97	38589.88
542.17	38825.39
542.37	39075.24
542.58	38931.89
542.78	38804.91
542.98	38831.54
543.18	39097.77
543.38	39447.97
543.59	39474.60
543.79	38770.10
543.99	39513.51
544.19	39466.41
544.40	39675.30
544.60	39560.61
544.80	39271.85
545.00	39509.41
545.20	39789.98
545.41	39400.87
545.61	39427.49
545.81	39933.34
546.01	40023.45
546.21	39564.71
546.42	39490.98
546.62	40197.53
546.82	39480.74
547.02	39812.51
547.22	40277.40
547.43	40105.37
547.63	40177.05
547.83	40105.37
548.03	40211.87
548.23	40482.20
548.44	40406.42
548.64	40291.74
548.84	40441.24
549.04	40535.45
549.24	40592.79
549.45	40830.35
549.65	40592.79
549.85	40766.87
550.05	41248.14
550.25	40451.48
550.45	41469.32
550.66	40709.52
550.86	40854.93
551.06	41104.78
551.26	41155.98
551.46	41237.90
551.66	41489.80
551.87	41164.17
552.07	41342.35
552.27	40871.31
552.47	41186.70
552.67	41125.26
552.87	41319.82
553.07	41452.94
553.28	41586.05
553.48	41616.77
553.68	41530.76
553.88	41903.49
554.08	41756.03
554.28	41807.23
554.48	41276.81
554.69	41733.51
554.89	41379.21
555.09	41766.27
555.29	41313.67
555.49	41940.35
555.69	41674.12
555.89	41848.19
556.10	41850.24
556.30	41768.32
556.50	41493.89
556.70	42073.47
556.90	41833.86
557.10	42237.31
557.30	41946.50
557.50	42128.77
557.70	42294.65
557.91	42395.00
558.11	42044.80
558.31	42220.92
558.51	42136.96
558.71	42116.48
558.91	42593.65
559.11	42534.26
559.31	42106.24
559.51	42102.14
559.72	42456.44
559.92	42509.69
560.12	42265.98
560.32	42827.12
560.52	42403.19
560.72	43144.56
560.92	42823.03
561.12	42788.21
561.32	42921.33
561.52	42347.90
561.72	42511.74
561.93	42438.01
562.13	42933.62
562.33	42483.06
562.53	43236.72
562.73	42601.85
562.93	42931.57
563.13	43332.97
563.33	42919.28
563.53	43249.00
563.73	43244.91
563.93	43337.07
564.13	43947.36
564.33	43300.20
564.53	43292.01
564.74	43459.94
564.94	43072.88
565.14	43418.99
565.34	43287.92
565.54	43695.46
565.74	43689.32
565.94	44072.29
566.14	43728.23
566.34	43505.00
566.54	43986.27
566.74	43339.11
566.94	43615.59
567.14	43867.49
567.34	44019.04
567.54	44047.71
567.74	43838.82
567.94	43824.48
568.14	43924.83
568.34	44457.31
568.54	44338.52
568.74	44246.36
568.94	43814.24
569.14	44078.43
569.34	44318.04
569.54	44784.98
569.75	43990.37
569.95	44436.83
570.15	44756.31
570.35	44637.53
570.55	44883.28
570.75	44776.79
570.95	44965.20
571.15	45221.20
571.35	44621.14
571.55	45145.42
571.75	44987.73
571.95	45022.54
572.15	45194.57
572.35	44832.08
572.55	45266.25
572.75	45083.98
572.95	45126.99
573.15	45352.27
573.35	45290.83
573.55	45215.05
573.75	45227.34
573.95	45735.24
574.15	45380.94
574.35	45436.23
574.55	45681.99
574.75	45962.56
574.95	45546.82
575.15	45798.73
575.34	46083.39
575.54	46171.46
575.74	45917.51
575.94	46275.90
576.14	46071.10
576.34	46294.33
576.54	46757.17
576.74	46593.34
576.94	46363.96
577.14	46492.99
577.34	47009.07
577.54	46767.41
577.74	46759.22
577.94	46886.20
578.14	46865.72
578.34	47150.38
578.54	46566.71
578.74	46691.64
578.94	47293.74
579.14	46996.79
579.34	46939.44
579.54	47011.12
579.74	47623.47
579.94	47430.96
580.13	47641.90
580.33	47793.45
580.53	47803.69
580.73	47551.79
580.93	47826.21
581.13	47822.12
581.33	48211.23
581.53	48268.58
581.73	48350.49
581.93	48434.46
582.13	48110.88
582.33	48930.07
582.53	48237.86
582.73	48882.97
582.92	48454.94
583.12	48919.83
583.32	48717.08
583.52	48362.78
583.72	48631.07
583.92	48481.56
584.12	49085.72
584.32	49624.33
584.52	49128.72
584.72	49272.08
584.92	49231.12
585.11	49794.31
585.31	49720.59
585.51	49573.13
585.71	49083.67
585.91	49806.60
586.11	49966.34
586.31	49718.54
586.51	49513.74
586.71	49548.56
586.91	50140.42
587.10	49925.38
587.30	49995.01
587.50	50357.50
587.70	49911.05
587.90	50044.16
588.10	50760.95
588.30	50029.83
588.50	50914.55
588.69	50840.82
588.89	50306.30
589.09	50535.68
589.29	50251.01
589.49	51127.54
589.69	50664.70
589.89	50918.65
590.08	50898.17
590.28	50998.52
590.48	50588.92
590.68	50894.07
590.88	51010.81
591.08	50984.18
591.28	50844.92
591.47	51715.31
591.67	50920.70
591.87	51197.17
592.07	51553.52
592.27	51934.44
592.47	51485.93
592.67	51956.97
592.86	51451.12
593.06	51606.76
593.26	52114.66
593.46	51614.96
593.66	51676.40
593.86	52026.60
594.05	51846.38
594.25	52634.84
594.45	52100.32
594.65	51924.20
594.85	51823.85
595.05	52212.96
595.24	52720.86
595.44	52051.17
595.64	52204.77
595.84	52450.53
596.04	52280.55
596.23	52589.79
596.43	52690.14
596.63	52765.91
596.83	52270.31
597.03	52999.38
597.22	53210.32
597.42	52962.52
597.62	53347.54
597.82	53034.20
598.02	53054.68
598.21	53269.72
598.41	53183.70
598.61	53241.04
598.81	53288.15
599.01	53216.47
599.20	53116.12
599.40	53531.86
599.60	53814.47
599.80	53378.26
600.00	53652.69
600.19	54029.51
600.39	53525.71
600.59	53980.36
600.79	53658.83
600.98	53849.29
601.18	53933.26
601.38	54207.68
601.58	53941.45
601.78	54189.25
601.97	54428.87
602.17	54541.50
602.37	54445.25
602.57	53935.30
602.76	54717.63
602.96	54158.53
603.16	54834.36
603.36	54471.87
603.55	54938.81
603.75	54652.09
603.95	54887.61
604.15	54441.15
604.34	54412.48
604.54	54877.37
604.74	54961.34
604.94	55006.39
605.13	55329.97
605.33	55268.53
605.53	54424.77
605.73	55389.36
605.92	54901.95
606.12	55420.08
606.32	55338.16
606.52	55102.65
606.71	55809.20
606.91	55413.94
607.11	55395.51
607.30	55557.30
607.50	55469.23
607.70	55796.91
607.90	55207.09
608.09	55424.18
608.29	55481.52
608.49	55960.75
608.68	55190.71
608.88	55692.46
609.08	56085.67
609.28	55852.20
609.47	55678.13
609.67	56122.54
609.87	55735.47
610.06	55985.32
610.26	56005.80
610.46	56198.31
610.66	55723.18
610.85	56013.99
611.05	56415.40
611.25	56276.13
611.44	55682.22
611.64	56024.23
611.84	56005.80
612.03	55415.99
612.23	55944.36
612.43	56147.11
612.62	55917.74
612.82	56100.01
613.02	56288.42
613.21	55829.68
613.41	55782.57
613.61	56343.72
613.80	55841.96
614.00	56165.54
614.20	56044.71
614.39	56030.38
614.59	56661.15
614.79	55829.68
614.98	56130.73
615.18	55780.52
615.38	56149.16
615.57	55997.61
615.77	56491.17
615.97	55741.61
616.16	55710.89
616.36	56149.16
616.56	56165.54
616.75	55768.24
616.95	55661.74
617.15	56018.09
617.34	56067.24
617.54	55604.40
617.74	56263.85
617.93	56011.95
618.13	55655.60
618.32	55815.34
618.52	55211.19
618.72	55768.24
618.91	55755.95
619.11	55424.18
619.31	55637.17
619.50	55968.94
619.70	55893.16
619.90	55960.75
620.09	55874.73
620.29	55917.74
620.48	55637.17
620.68	56100.01
620.88	55600.30
621.07	55708.85
621.27	55921.83
621.46	55461.04
621.66	55313.59
621.86	55596.21
622.05	55403.70
622.25	55264.44
622.44	55854.25
622.64	55508.14
622.84	55379.12
623.03	55317.68
623.23	55608.50
623.42	55458.99
623.62	55479.47
623.82	55579.82
624.01	55033.02
624.21	55600.30
624.40	55196.85
624.60	55383.22
624.80	54891.71
624.99	55301.30
625.19	54969.53
625.38	55276.72
625.58	54920.38
625.77	55125.17
625.97	54920.38
626.17	54693.05
626.36	55233.72
626.56	55717.04
626.75	55164.09
626.95	55450.80
627.14	55030.97
627.34	55454.90
627.54	54768.83
627.73	55190.71
627.93	55284.92
628.12	55018.68
628.32	55139.51
628.51	54865.08
628.71	54934.71
628.90	55174.33
629.10	55129.27
629.30	55194.81
629.49	54719.68
629.69	54633.66
629.88	54793.40
630.08	55381.17
630.27	54570.18
630.47	55172.28
630.66	54842.56
630.86	55006.39
631.05	54940.86
631.25	55168.18
631.44	54844.60
631.64	54924.47
631.84	54848.70
632.03	55129.27
632.23	55127.22
632.42	55368.88
632.62	55014.58
632.81	54807.74
633.01	54768.83
633.20	55000.25
633.40	55248.05
633.59	54541.50
633.79	54922.43
633.98	54977.72
634.18	54934.71
634.37	54940.86
634.57	54846.65
634.76	55022.78
634.96	54351.04
635.15	54846.65
635.35	54674.62
635.54	54617.28
635.74	55137.46
635.93	54504.64
636.13	55100.60
636.32	55106.74
636.52	54779.07
636.71	54619.33
636.91	55088.31
637.10	55149.75
637.30	55028.92
637.49	55284.92
637.69	54686.91
637.88	54736.06
638.08	54584.51
638.27	54711.49
638.46	54762.68
638.66	54424.77
638.85	54860.99
639.05	54770.88
639.24	55246.00
639.44	54844.60
639.63	54512.83
639.83	54916.28
640.02	55006.39
640.22	54582.46
640.41	55039.16
640.61	54617.28
640.80	54873.27
640.99	54940.86
641.19	54914.23
641.38	54840.51
641.58	54752.44
641.77	54705.34
641.97	54496.45
642.16	55071.93
642.36	54826.17
642.55	55291.06
642.74	54672.57
642.94	55432.37
643.13	54584.51
643.33	55434.42
643.52	55571.63
643.72	55194.81
643.91	54856.89
644.10	55289.01
644.30	55196.85
644.49	55063.74
644.69	55428.27
644.88	54805.69
645.08	54344.90
645.27	55237.81
645.46	54777.02
645.66	55203.00
645.85	55194.81
646.05	55293.11
646.24	55235.77
646.43	55147.70
646.63	55497.91
646.82	55473.33
647.02	55338.16
647.21	55381.17
647.40	55014.58
647.60	55000.25
647.79	55825.58
647.99	55776.43
648.18	55008.44
648.37	55989.42
648.57	55686.32
648.76	55452.85
648.96	55250.10
649.15	55964.84
649.34	55700.65
649.54	55297.20
649.73	55387.31
649.92	55538.86
650.12	55514.29
650.31	55817.39
650.51	56327.33
650.70	55919.79
650.89	55579.82
651.09	56390.82
651.28	55516.34
651.47	55997.61
651.67	55768.24
651.86	56042.66
652.06	55604.40
652.25	56071.34
652.44	55788.72
652.64	55712.94
652.83	55567.54
653.02	55485.62
653.22	56040.62
653.41	55661.74
653.60	55905.45
653.80	55764.14
653.99	56325.28
654.18	56315.04
654.38	55788.72
654.57	56566.94
654.76	55868.59
654.96	55704.75
655.15	56112.30
655.34	55905.45
655.54	55452.85
655.73	55829.68
655.92	56042.66
656.12	56210.60
656.31	55970.99
656.50	56505.51
656.70	56251.56
656.89	56048.81
657.08	56284.33
657.28	56046.76
657.47	55841.96
657.66	56026.28
657.86	56116.39
658.05	56063.14
658.24	56677.54
658.43	56181.93
658.63	56546.47
658.82	56554.66
659.01	56622.24
659.21	56581.28
659.40	56673.44
659.59	56618.14
659.79	56642.72
659.98	56337.57
660.17	57115.80
660.36	56407.20
660.56	56517.79
660.75	56872.09
660.94	56382.63
661.14	56810.65
661.33	56319.14
661.52	56030.38
661.71	56986.78
661.91	56673.44
662.10	56298.66
662.29	56997.02
662.49	56620.19
662.68	56644.77
662.87	56800.41
663.06	56933.53
663.26	56636.58
663.45	57242.77
663.64	56700.06
663.83	57566.35
664.03	57005.21
664.22	56749.21
664.41	57115.80
664.60	56538.27
664.80	57093.27
664.99	56546.47
665.18	56849.56
665.37	57466.00
665.57	57089.18
665.76	56843.42
665.95	57160.86
666.14	57201.82
666.34	57064.60
666.53	57111.70
666.72	57476.24
666.91	56915.10
667.11	56906.91
667.30	56894.62
667.49	56816.80
667.68	56841.37
667.87	57011.35
668.07	57259.16
668.26	57302.17
668.45	56968.35
668.64	57103.51
668.84	57615.50
669.03	57445.52
669.22	57433.24
669.41	57521.30
669.60	57056.41
669.80	57316.50
669.99	57824.40
670.18	57005.21
670.37	57545.87
670.57	57707.66
670.76	57455.76
670.95	57597.07
671.14	57758.86
671.33	57207.96
671.53	58039.43
671.72	57724.05
671.91	57498.77
672.10	57787.53
672.29	57365.65
672.48	57304.21
672.68	57668.75
672.87	57478.29
673.06	57605.26
673.25	57201.82
673.44	57406.61
673.64	57644.18
673.83	57398.42
674.02	57293.97
674.21	57263.25
674.40	57455.76
674.59	57588.88
674.79	57474.20
674.98	57128.09
675.17	57265.30
675.36	57447.57
675.55	57779.34
675.74	57115.80
675.94	57433.24
676.13	57562.26
676.32	57633.94
676.51	57785.49
676.70	57709.71
676.89	57801.87
677.08	57734.29
677.28	57384.08
677.47	57949.32
677.66	57820.30
677.85	57783.44
678.04	57971.85
678.23	58084.49
678.42	57980.04
678.62	57795.73
678.81	58057.87
679.00	57818.25
679.19	58471.56
679.38	58248.33
679.57	57369.75
679.76	57889.93
679.96	57896.08
680.15	57678.99
680.34	57896.08
680.53	57748.62
680.72	57840.78
680.91	58385.54
681.10	57250.97
681.29	57652.37
681.48	57509.01
681.68	58297.48
681.87	57625.74
682.06	57830.54
682.25	57427.09
682.44	57576.59
682.63	57924.75
682.82	57693.33
683.01	57722.00
683.20	57386.13
683.39	57742.48
683.59	57365.65
683.78	57105.56
683.97	57717.90
684.16	57248.92
684.35	57775.25
684.54	57545.87
684.73	57468.05
684.92	57554.07
685.11	57652.37
685.30	57498.77
685.49	57298.07
685.69	57423.00
685.88	57541.78
686.07	57857.17
686.26	57382.04
686.45	57859.21
686.64	57808.01
686.83	57545.87
687.02	57611.41
687.21	57341.08
687.40	57963.66
687.59	57678.99
687.78	57138.33
687.97	58203.27
688.16	57883.79
688.35	57676.94
688.54	57066.65
688.74	57414.80
688.93	57230.49
689.12	57545.87
689.31	57461.91
689.50	57365.65
689.69	56999.07
689.88	56677.54
690.07	57412.76
690.26	57128.09
690.45	57664.66
690.64	57271.45
690.83	57128.09
691.02	56808.61
691.21	57185.43
691.40	57412.76
691.59	56743.07
691.78	57332.89
691.97	57371.80
692.16	57293.97
692.35	57590.93
692.54	57285.78
692.73	57375.89
692.92	56804.51
693.11	57128.09
693.30	57062.55
693.49	57463.96
693.68	56659.10
693.87	57013.40
694.06	56898.72
694.25	56972.44
694.44	56829.08
694.63	56571.04
694.82	57105.56
695.01	56859.80
695.20	56802.46
695.39	56345.76
695.58	56759.45
695.77	56732.83
695.96	56237.22
696.15	56747.17
696.34	56661.15
696.53	56853.66
696.72	56951.96
696.91	56409.25
697.10	56751.26
697.29	56315.04
697.48	56632.48
697.67	56607.90
697.86	56538.27
698.05	55960.75
698.24	57087.13
698.43	55983.27
698.62	56718.49
698.81	55837.87
699.00	56681.63
699.19	56505.51
699.38	56143.02
699.57	56120.49
699.76	56771.74
699.95	56403.11
700.14	55936.17
700.32	56030.38
700.51	56239.27
700.70	56546.47
700.89	56016.04
701.08	56460.45
701.27	55940.27
701.46	56331.43
701.65	55266.48
701.84	55737.52
702.03	56313.00
702.22	55737.52
702.41	55882.92
702.60	55747.76
702.79	55846.06
702.98	55243.96
703.17	55553.20
703.35	55266.48
703.54	55645.36
703.73	55731.37
703.92	55624.88
704.11	55114.94
704.30	55289.01
704.49	55407.79
704.68	55391.41
704.87	55409.84
705.06	55116.98
705.25	55096.50
705.43	55096.50
705.62	54998.20
705.81	54811.84
706.00	55049.40
706.19	54500.54
706.38	54676.67
706.57	55041.21
706.76	54901.95
706.95	55051.45
707.14	54727.87
707.32	54693.05
707.51	54572.22
707.70	54760.64
707.89	54533.31
708.08	54596.80
708.27	54887.61
708.46	55153.85
708.65	54539.46
708.84	54695.10
709.02	54584.51
709.21	54650.05
709.40	54342.85
709.59	54662.33
709.78	54240.45
709.97	54774.97
710.16	54027.46
710.34	54187.21
710.53	54115.53
710.72	54072.52
710.91	54680.77
711.10	54150.34
711.29	54219.97
711.48	53998.79
711.66	54156.49
711.85	53712.08
712.04	54099.14
712.23	53626.06
712.42	54052.04
712.61	53978.31
712.80	53746.89
712.98	53521.62
713.17	53658.83
713.36	54015.18
713.55	53456.08
713.74	53349.59
713.93	53527.76
714.11	53173.46
714.30	53312.72
714.49	53451.98
714.68	53597.39
714.87	53458.13
715.06	53390.55
715.24	53114.07
715.43	53087.45
715.62	52884.70
715.81	52862.17
716.00	53314.77
716.18	52729.05
716.37	53107.93
716.56	52745.44
716.75	52989.14
716.94	52974.81
717.12	52636.89
717.31	53226.71
717.50	52856.03
717.69	53005.53
717.88	52262.11
718.06	52282.59
718.25	52567.26
718.44	52374.75
718.63	52417.76
718.82	51811.56
719.00	52430.05
719.19	51803.37
719.38	51975.40
719.57	51234.03
719.76	51629.29
719.94	51442.93
720.13	51500.27
720.32	51807.47
720.51	51487.98
720.69	51148.02
720.88	51397.87
721.07	51547.37
721.26	50898.17
721.44	51248.37
721.63	51002.61
721.82	50765.05
722.01	50949.37
722.20	50840.82
722.38	51072.24
722.57	50347.26
722.76	51109.11
722.95	50543.87
723.13	50359.55
723.32	50533.63
723.51	50208.00
723.70	50150.66
723.88	50435.33
724.07	50066.69
724.26	50416.89
724.44	50023.68
724.63	50167.04
724.82	50197.76
725.01	49870.09
725.19	50308.35
725.38	49771.78
725.57	49493.26
725.76	49741.06
725.94	49724.68
726.13	49347.86
726.32	49448.21
726.51	49636.62
726.69	49822.98
726.88	49831.18
727.07	49704.20
727.25	49403.15
727.44	49321.23
727.63	49620.23
727.82	48833.81
728.00	49407.25
728.19	49288.46
728.38	49653.00
728.56	48885.01
728.75	49296.66
728.94	49222.93
729.12	49401.10
729.31	48993.56
729.50	49011.99
729.69	49247.50
729.87	49055.00
730.06	49224.98
730.25	48993.56
730.43	49044.76
730.62	48469.28
730.81	49421.58
730.99	48741.66
731.18	48803.10
731.37	48710.94
731.55	48842.01
731.74	48997.65
731.93	49251.60
732.11	49083.67
732.30	48616.73
732.49	48710.94
732.67	48823.58
732.86	48682.27
733.05	48702.74
733.23	48325.92
733.42	48432.41
733.61	48387.36
733.79	48733.46
733.98	48944.41
734.17	48669.98
734.35	48420.13
734.54	48596.25
734.73	48739.61
734.91	48100.64
735.10	48510.24
735.29	48667.93
735.47	48022.82
735.66	48424.22
735.84	48276.77
736.03	48334.11
736.22	48571.67
736.40	48014.63
736.59	48145.70
736.78	47992.10
736.96	47744.30
737.15	47643.94
737.33	47994.15
737.52	48059.68
737.71	47940.90
737.89	47686.95
738.08	47363.37
738.27	47787.30
738.45	48321.82
738.64	47955.24
738.82	47445.29
739.01	47768.87
739.20	47310.13
739.38	47428.91
739.57	47916.32
739.75	47336.75
739.94	47559.98
740.13	47467.82
740.31	47250.74
740.50	47293.74
740.68	47766.82
740.87	47521.07
741.06	47633.71
741.24	47027.51
741.43	47068.47
741.61	47416.62
741.80	46820.66
741.99	47240.50
742.17	46882.10
742.36	47140.14
742.54	46705.98
742.73	47099.19
742.91	47088.95
743.10	46617.91
743.29	46562.62
743.47	46794.04
743.66	46859.57
743.84	46626.10
744.03	46869.81
744.21	46738.74
744.40	47068.47
744.59	46556.47
744.77	46234.94
744.96	46355.77
745.14	46478.65
745.33	46521.66
745.51	46673.21
745.70	46306.62
745.88	46361.92
746.07	46544.19
746.26	46085.44
746.44	46044.48
746.63	46013.76
746.81	46054.72
747.00	46050.63
747.18	46060.87
747.37	45669.70
747.55	46183.74
747.74	46036.29
747.92	45356.36
748.11	45929.80
748.29	45974.85
748.48	45882.69
748.66	45673.80
748.85	45868.36
749.03	45626.70
749.22	45962.56
749.41	45294.92
749.59	45528.39
749.78	45393.23
749.96	45182.29
750.15	45532.49
750.33	45608.26
750.52	45452.62
750.70	44791.12
750.89	45110.61
751.07	45083.98
751.26	45243.73
751.44	45157.71
751.63	45399.37
751.81	44664.15
752.00	44483.93
752.18	45421.90
752.37	45272.40
752.55	44545.37
752.74	44610.90
752.92	44764.50
753.10	44871.00
753.29	44856.66
753.47	44815.70
753.66	44193.12
753.84	44592.47
754.03	44178.78
754.21	44389.72
754.40	44784.98
754.58	44580.18
754.77	44127.58
754.95	44082.53
755.14	44182.88
755.32	44168.54
755.51	43818.34
755.69	43861.35
755.88	44397.91
756.06	44379.48
756.24	43851.11
756.43	43904.35
756.61	43816.29
756.80	43703.65
756.98	44117.34
757.17	44037.47
757.35	43838.82
757.54	43818.34
757.72	43908.45
757.90	43945.31
758.09	43564.39
758.27	43697.51
758.46	43312.49
758.64	43220.33
758.83	43576.68
759.01	43668.84
759.19	44066.14
759.38	43570.54
759.56	43570.54
759.75	43488.62
759.93	43097.45
760.12	43558.25
760.30	43425.13
760.48	43429.23
760.67	43009.39
760.85	43472.23
761.04	43296.11
761.22	43431.27
761.40	42896.75
761.59	43167.09
761.77	42462.58
761.96	43052.40
762.14	42882.42
762.32	42546.55
762.51	42616.18
762.69	42761.59
762.88	42780.02
763.06	42532.22
763.24	42843.51
763.43	42876.27
763.61	42450.30
763.80	42876.27
763.98	42804.59
764.16	42425.72
764.35	42364.28
764.53	41969.02
764.72	42540.41
764.90	41905.54
765.08	42282.36
765.27	42134.91
765.45	41872.77
765.63	42034.56
765.82	42382.71
766.00	41772.42
766.18	41956.74
766.37	42489.21
766.55	42347.90
766.74	42231.16
766.92	41493.89
767.10	41774.47
767.29	41969.02
767.47	41956.74
767.65	41508.23
767.84	41354.63
768.02	41489.80
768.20	41205.13
768.39	41883.01
768.57	41338.25
768.75	41592.20
768.94	41459.08
769.12	41813.38
769.30	41319.82
769.49	41438.60
769.67	41336.20
769.85	40918.42
770.04	40768.91
770.22	40693.14
770.40	41012.62
770.59	40818.07
770.77	41336.20
770.95	41094.54
771.14	40560.02
771.32	40895.89
771.50	40402.33
771.69	40242.59
771.87	41039.25
772.05	40805.78
772.24	40605.08
772.42	40715.67
772.60	40328.60
772.78	40492.44
772.97	40230.30
773.15	40822.16
773.33	40304.02
773.52	40431.00
773.70	40576.40
773.88	40723.86
774.07	40687.00
774.25	40582.55
774.43	40433.05
774.61	40256.92
774.80	40627.60
774.98	40562.07
775.16	40447.38
775.34	40463.77
775.53	40426.90
775.71	40478.10
775.89	40723.86
776.08	40445.33
776.26	40496.53
776.44	40359.32
776.62	40461.72
776.81	40461.72
776.99	40775.06
777.17	40621.46
777.35	41153.93
777.54	40977.81
777.72	40392.09
777.90	40562.07
778.08	41129.36
778.27	40805.78
778.45	40998.29
778.63	41655.68
778.81	40789.39
779.00	41262.47
779.18	41192.84
779.36	41524.61
779.54	40990.09
779.73	41143.69
779.91	41203.08
780.09	41274.76
780.27	41180.56
780.46	41399.69
780.64	41502.09
780.82	41127.31
781.00	40840.59
781.19	41543.05
781.37	41670.02
781.55	41592.20
781.73	41721.22
781.91	41430.41
782.10	41524.61
782.28	41274.76
782.46	41448.84
782.64	41454.98
782.82	41526.66
783.01	41651.59
783.19	41821.57
783.37	41794.95
783.55	41594.25
783.74	42188.16
783.92	41149.84
784.10	42196.35
784.28	41610.63
784.46	41313.67
784.64	41147.79
784.83	41764.23
785.01	41407.88
785.19	41590.15
785.37	41543.05
785.55	41821.57
785.74	41309.58
785.92	41424.26
786.10	41627.01
786.28	41442.70
786.46	41368.97
786.64	41112.97
786.83	41606.53
787.01	41643.40
787.19	41432.46
787.37	41672.07
787.55	41778.56
787.74	41856.39
787.92	41563.53
788.10	40942.99
788.28	41356.68
788.46	41364.87
788.64	41035.15
788.82	41686.40
789.01	41104.78
789.19	41368.97
789.37	40842.64
789.55	41164.17
789.73	41057.68
789.91	41084.30
790.09	41014.67
790.28	40445.33
790.46	40797.59
790.64	41147.79
790.82	40703.38
791.00	40727.95
791.18	40443.29
791.36	40619.41
791.55	40484.25
791.73	40631.70
791.91	39706.02
792.09	40453.53
792.27	40041.88
792.45	40334.74
792.63	40299.93
792.81	39919.01
793.00	39781.79
793.18	39562.66
793.36	39798.18
793.54	39839.14
793.72	39644.58
793.90	39622.05
794.08	39675.30
794.26	39665.06
794.44	39243.18
794.62	38987.18
794.81	39587.24
794.99	39284.14
795.17	39093.68
795.35	39122.35
795.53	39046.57
795.71	39331.24
795.89	38774.19
796.07	38618.55
796.25	38481.33
796.43	38182.33
796.61	38438.33
796.80	38673.84
796.98	38383.03
797.16	38368.69
797.34	38393.27
797.52	38143.42
797.70	38696.37
797.88	38180.28
798.06	37819.84
798.24	38141.37
798.42	38030.78
798.60	37991.87
798.78	37815.74
798.96	37809.60
799.14	37367.24
799.32	37531.08
799.51	37443.01
799.69	37701.06
799.87	37389.77
800.05	37496.26
800.23	37287.37
800.41	37264.84
800.59	36771.28
800.77	37111.24
800.95	36615.63
801.13	37252.55
801.31	36906.44
801.49	36959.69
801.67	36642.26
801.85	36451.80
802.03	36294.10
802.21	36324.82
802.39	36474.32
802.57	36369.88
802.75	36273.62
802.93	36181.46
803.11	35784.16
803.29	36111.83
803.47	35522.02
803.65	35972.57
803.83	35769.82
804.01	35915.23
804.19	35376.61
804.37	34985.45
804.55	35046.89
804.73	35522.02
804.91	35278.31
805.09	35673.57
805.27	35003.88
805.45	35071.46
805.63	35143.14
805.81	34940.39
805.99	35116.52
806.17	35292.65
806.35	35122.66
806.53	35038.70
806.71	34682.35
806.89	34811.37
807.07	35042.79
807.25	34805.23
807.43	34428.40
807.61	34598.38
807.79	34518.51
807.97	34205.17
808.15	34309.62
808.33	34190.84
808.51	34264.57
808.69	34037.24
808.87	33891.83
809.05	33687.04
809.23	33967.61
809.41	33654.27
809.59	33791.48
809.77	33910.27
809.95	33551.87
810.13	33904.12
810.31	33594.88
810.49	33641.98
810.67	33586.69
810.84	33562.11
811.02	33394.18
811.20	33076.74
811.38	33152.52
811.56	32917.00
811.74	33283.59
811.92	32761.36
812.10	32765.45
812.28	33379.84
812.46	32792.08
812.64	32966.15
812.82	32837.13
813.00	32863.75
813.18	32863.75
813.36	32648.72
813.53	32450.06
813.71	32568.85
813.89	32327.19
814.07	32562.70
814.25	32478.74
814.43	32318.99
814.61	32220.69
814.79	31929.88
814.97	32103.96
815.15	32196.12
815.33	31671.84
815.50	31473.18
815.68	32017.94
815.86	31798.81
816.04	31510.05
816.22	31503.90
816.40	31571.49
816.58	31620.64
816.76	31731.23
816.94	31675.93
817.11	31643.17
817.29	31594.01
817.47	31258.15
817.65	31204.90
817.83	31575.58
818.01	31276.58
818.19	31206.95
818.37	31082.02
818.54	30850.60
818.72	30987.82
818.90	31084.07
819.08	30791.21
819.26	30940.71
819.44	30828.07
819.62	30748.20
819.80	31032.87
819.97	30934.57
820.15	30676.52
820.33	30518.83
820.51	30527.02
820.69	30221.87
820.87	30600.75
821.05	30629.42
821.22	30438.96
821.40	30418.48
821.58	30301.75
821.76	30320.18
821.94	30256.69
822.12	30260.79
822.29	30248.50
822.47	29974.07
822.65	30318.13
822.83	30037.56
823.01	30066.23
823.19	29814.33
823.36	29509.18
823.54	29646.40
823.72	29777.47
823.90	29777.47
824.08	29476.41
824.25	29687.36
824.43	29548.09
824.61	29314.62
824.79	29779.51
824.97	29435.45
825.15	29701.69
825.32	29556.28
825.50	29181.51
825.68	29238.85
825.86	29488.70
826.04	29546.05
826.21	29369.92
826.39	29122.12
826.57	29208.13
826.75	28927.56
826.93	28984.90
827.10	28798.54
827.28	28989.00
827.46	28884.55
827.64	28862.02
827.81	28995.14
827.99	28905.03
828.17	28544.59
828.35	28945.99
828.53	28364.37
828.70	28493.39
828.88	28618.32
829.06	28505.68
829.24	28579.40
829.41	28356.18
829.59	28730.95
829.77	28438.09
829.95	28448.33
830.12	28302.93
830.30	28208.72
830.48	28216.91
830.66	28440.14
830.84	28442.19
831.01	28155.47
831.19	28149.33
831.37	27948.63
831.55	27840.09
831.72	27940.44
831.90	28126.80
832.08	27815.51
832.25	27868.76
832.43	27536.99
832.61	27614.81
832.79	27645.53
832.96	27577.95
833.14	27600.47
833.32	27739.74
833.50	27536.99
833.67	27563.61
833.85	27504.22
834.03	27414.11
834.20	27661.91
834.38	27924.05
834.56	27602.52
834.74	27006.56
834.91	27606.62
835.09	26969.70
835.27	27000.42
835.44	27043.43
835.62	26836.58
835.80	26883.69
835.98	27123.30
836.15	27199.07
836.33	27090.53
836.51	27102.82
836.68	26979.94
836.86	26805.86
837.04	26846.82
837.21	27262.56
837.39	27237.98
837.57	26945.12
837.75	26781.29
837.92	26429.04
838.10	26556.01
838.28	26271.34
838.45	26584.68
838.63	26627.69
838.81	26547.82
838.98	26490.48
839.16	26070.64
839.34	26105.46
839.51	26218.10
839.69	25843.32
839.87	26158.70
840.04	26320.49
840.22	26297.97
840.40	26052.21
840.57	25753.21
840.75	26201.71
840.93	25755.26
841.10	25831.03
841.28	26138.23
841.46	26134.13
841.63	26050.16
841.81	25964.15
841.98	25835.13
842.16	25734.78
842.34	25929.33
842.51	25702.01
842.69	25863.80
842.87	25548.41
843.04	25562.75
843.22	25540.22
843.40	25233.02
843.57	25304.70
843.75	25613.95
843.92	25468.54
844.10	25691.77
844.28	25724.54
844.45	25538.17
844.63	25671.29
844.81	25476.73
844.98	25077.38
845.16	25300.61
845.33	25333.37
845.51	25196.16
845.69	25222.78
845.86	24911.49
846.04	24741.51
846.21	25190.02
846.39	24727.17
846.57	24934.02
846.74	25190.02
846.92	24522.38
847.09	24604.30
847.27	24512.14
847.45	24884.87
847.62	24817.29
847.80	24569.48
847.97	24643.21
848.15	24829.57
848.32	24555.15
848.50	24610.44
848.68	24628.87
848.85	24280.72
849.03	24426.12
849.20	24452.75
849.38	24311.44
849.56	24356.49
849.73	23975.57
849.91	24309.39
850.08	24452.75
850.26	24135.31
850.43	24129.17
850.61	24102.54
850.78	23918.23
850.96	23895.70
851.14	24118.93
851.31	24174.22
851.49	23729.81
851.66	23987.86
851.84	23994.00
852.01	23930.51
852.19	23881.36
852.36	23699.09
852.54	23746.20
852.71	23787.16
852.89	23578.26
853.07	23803.54
853.24	23727.77
853.42	23688.85
853.59	23447.19
853.77	23824.02
853.94	23787.16
854.12	23688.85
854.29	23363.23
854.47	23387.80
854.64	23733.91
854.82	23307.93
854.99	23330.46
855.17	23105.18
855.34	23422.62
855.52	23422.62
855.69	23355.04
855.87	23129.76
856.04	23148.19
856.22	22812.32
856.39	22861.48
856.57	23064.22
856.74	22881.95
856.92	23045.79
857.09	22634.15
857.27	22853.28
857.44	23010.98
857.62	22957.73
857.79	23010.98
857.97	22818.47
858.14	22716.07
858.32	22875.81
858.49	22607.53
858.67	22603.43
858.84	22349.48
859.02	22757.03
859.19	22558.38
859.37	22316.72
859.54	22318.76
859.72	22478.50
859.89	22503.08
860.06	22697.64
860.24	22478.50
860.41	22541.99
860.59	22281.90
860.76	22363.82
860.94	22255.28
861.11	22482.60
861.29	22075.06
861.46	22120.11
861.64	21796.53
861.81	22163.12
861.98	22007.47
862.16	21552.82
862.33	21845.68
862.51	21755.57
862.68	21855.92
862.86	21806.77
863.03	21823.16
863.21	21518.01
863.38	21575.35
863.55	21612.21
863.73	21454.52
863.90	21628.60
864.08	21616.31
864.25	21548.73
864.43	21386.94
864.60	21155.52
864.77	21470.90
864.95	21241.53
865.12	21264.06
865.30	21182.14
865.47	21008.06
865.64	21171.90
865.82	21431.99
865.99	21329.59
866.17	21253.82
866.34	21253.82
866.51	21030.59
866.69	21223.10
866.86	21108.41
867.04	20993.73
867.21	20840.13
867.38	21309.11
867.56	20674.24
867.73	20680.39
867.91	20543.17
868.08	20817.60
868.25	20760.26
868.43	20586.18
868.60	20256.46
868.78	20635.33
868.95	20772.55
869.12	20321.99
869.30	20414.15
869.47	20393.67
869.64	20424.39
869.82	20285.13
869.99	20217.55
870.16	20299.47
870.34	20377.29
870.51	20369.10
870.69	20000.46
870.86	19979.98
871.03	20371.15
871.21	20059.85
871.38	20278.99
871.55	20158.16
871.73	19799.76
871.90	19760.85
872.07	19562.20
872.25	19893.97
872.42	19939.02
872.59	19859.15
872.77	19711.70
872.94	19660.50
873.11	19470.04
873.29	19640.02
873.46	19300.06
873.63	19472.09
873.81	19484.37
873.98	19654.36
874.15	19246.81
874.33	19312.35
874.50	19128.03
874.67	19343.06
874.85	19103.45
875.02	18912.99
875.19	19310.30
875.37	19076.83
875.54	19097.31
875.71	19087.07
875.88	18736.87
876.06	18810.59
876.23	18700.00
876.40	18503.40
876.58	18734.82
876.75	18749.15
876.92	18495.21
877.10	18693.86
877.27	18771.68
877.44	18824.93
877.61	18439.91
877.79	18341.61
877.96	18310.89
878.13	18470.63
878.31	18171.63
878.48	18341.61
878.65	18239.21
878.82	18001.65
879.00	18214.63
879.17	18341.61
879.34	18013.93
879.51	17821.42
879.69	18058.99
879.86	17991.41
880.03	17989.36
880.21	17782.51
880.38	17950.45
880.55	18009.84
880.72	17428.21
880.90	17886.96
881.07	17698.55
881.24	17641.20
881.41	17739.51
881.59	17493.75
881.76	17587.96
881.93	17522.42
882.10	17436.41
882.28	17243.90
882.45	17635.06
882.62	17379.06
882.79	17669.87
882.96	17172.22
883.14	17440.50
883.31	17323.77
883.48	17323.77
883.65	17239.80
883.83	17489.65
884.00	16862.97
884.17	17166.07
884.34	17075.96
884.51	16938.75
884.69	16975.61
884.86	17014.52
885.03	16946.94
885.20	16803.58
885.38	17135.35
885.55	16856.83
885.72	17080.06
885.89	16989.95
886.06	17090.30
886.24	16873.21
886.41	16783.10
886.58	16973.56
886.75	17037.05
886.92	16721.66
887.10	16959.23
887.27	16801.54
887.44	16678.66
887.61	16971.52
887.78	16678.66
887.95	16809.73
888.13	16674.56
888.30	16543.49
888.47	16527.11
888.64	16602.88
888.81	16580.36
888.99	16516.87
889.16	16342.79
889.33	16209.67
889.50	16066.31
889.67	16365.32
889.84	16039.69
890.01	16400.13
890.19	16236.30
890.36	16209.67
890.53	16219.91
890.70	16156.43
890.87	16209.67
891.04	16193.29
891.22	15929.10
891.39	15884.05
891.56	16072.46
891.73	15861.52
891.90	16056.08
892.07	15935.24
892.24	15814.41
892.42	15894.29
892.59	15890.19
892.76	15691.54
892.93	15755.02
893.10	15886.09
893.27	15699.73
893.44	15597.33
893.61	15394.58
893.79	15845.13
893.96	15669.01
894.13	15591.19
894.30	15566.61
894.47	15570.71
894.64	15806.22
894.81	15562.51
894.98	15580.95
895.15	15447.83
895.33	15718.16
895.50	15503.12
895.67	15916.81
895.84	15611.67
896.01	15544.08
896.18	15314.71
896.35	15652.63
896.52	15544.08
896.69	15509.27
896.86	15212.31
897.04	15384.34
897.21	15417.11
897.38	15447.83
897.55	15267.61
897.72	15445.78
897.89	15466.26
898.06	15501.08
898.23	15294.23
898.40	15478.55
898.57	15345.43
898.74	15378.20
898.91	15388.44
899.08	15492.88
899.26	15306.52
899.43	15304.47
899.60	15236.89
899.77	15494.93
899.94	15243.03
900.11	15134.49
900.28	15128.35
900.45	15347.48
900.62	15165.21
900.79	15603.47
900.96	15189.78
901.13	15114.01
901.30	15185.69
901.47	14982.94
901.64	15111.96
901.81	15359.77
901.98	15099.67
902.15	15353.62
902.32	15146.78
902.49	15081.24
902.66	15318.81
902.83	15138.58
903.01	15240.98
903.18	14993.18
903.35	15204.12
903.52	15099.67
903.69	15257.37
903.86	15245.08
904.03	15220.50
904.20	15451.92
904.37	15345.43
904.54	15154.97
904.71	14974.75
904.88	15103.77
905.05	14995.23
905.22	15130.39
905.39	14958.36
905.56	15339.29
905.73	15154.97
905.90	15042.33
906.07	14884.64
906.24	15091.48
906.41	15044.38
906.58	15212.31
906.75	15114.01
906.92	14972.70
907.09	15200.02
907.26	15056.67
907.43	14858.01
907.60	15130.39
907.77	15071.00
907.93	15111.96
908.10	14941.98
908.27	14884.64
908.44	15025.95
908.61	14769.95
908.78	14747.42
908.95	15023.90
909.12	14835.49
909.29	14743.33
909.46	14815.01
909.63	14978.84
909.80	15030.04
909.97	14941.98
910.14	14817.05
910.31	14941.98
910.48	14688.03
910.65	14884.64
910.82	14548.77
910.99	14782.24
911.16	14741.28
911.33	14884.64
911.50	14432.04
911.66	14634.78
911.83	14706.46
912.00	14798.62
912.17	14487.33
912.34	14710.56
912.51	14593.83
912.68	14309.16
912.85	14339.88
913.02	14573.35
913.19	14255.91
913.36	14452.52
913.53	14499.62
913.70	14319.40
913.86	14458.66
914.03	14495.52
914.20	14178.09
914.37	14325.54
914.54	14255.91
914.71	14300.97
914.88	14274.34
915.05	14116.65
915.22	14212.90
915.39	14055.21
915.55	14272.29
915.72	14155.56
915.89	13852.46
916.06	13946.67
916.23	13899.56
916.40	13915.95
916.57	13922.09
916.74	13815.60
916.91	13778.73
917.07	13782.83
917.24	13559.60
917.41	13408.05
917.58	13563.70
917.75	13532.98
917.92	13346.61
918.09	13766.45
918.26	13459.25
918.42	13324.08
918.59	13387.57
918.76	13465.39
918.93	13199.16
919.10	13319.99
919.27	13270.84
919.44	13299.51
919.60	12922.68
919.77	13143.86
919.94	13043.51
920.11	13045.56
920.28	13100.86
920.45	12926.78
920.61	12934.97
920.78	12824.38
920.95	12773.18
921.12	13090.62
921.29	12853.05
921.46	12576.58
921.62	12635.97
921.79	12644.16
921.96	12613.44
922.13	12552.00
922.30	12504.90
922.47	12433.22
922.63	12429.12
922.80	12492.61
922.97	12050.25
923.14	12238.66
923.31	12564.29
923.47	12230.47
923.64	12382.02
923.81	12136.26
923.98	12105.54
924.15	12101.45
924.32	12052.30
924.48	12173.13
924.65	12035.91
924.82	11804.49
924.99	11765.58
925.15	11841.36
925.32	11624.27
925.49	11691.85
925.66	11648.85
925.83	11624.27
925.99	11343.70
926.16	11415.38
926.33	11568.98
926.50	11513.68
926.67	11448.15
926.83	11323.22
927.00	11249.49
927.17	11257.68
927.34	11038.55
927.50	11276.12
927.67	11220.82
927.84	11114.33
928.01	11034.46
928.17	10993.50
928.34	10813.28
928.51	11075.42
928.68	10790.75
928.84	10776.41
929.01	10649.44
929.18	10700.64
929.35	10708.83
929.51	10588.00
929.68	10602.33
929.85	10592.09
930.02	10622.81
930.18	10610.53
930.35	10532.70
930.52	10547.04
930.69	10450.78
930.85	10219.36
931.02	10215.27
931.19	10178.40
931.36	10233.70
931.52	10284.90
931.69	10231.65
931.86	10082.15
932.02	10141.54
932.19	9953.13
932.36	9727.85
932.53	9912.17
932.69	9799.53
932.86	9803.63
933.03	9932.65
933.19	9637.74
933.36	9609.07
933.53	9576.30
933.70	9568.11
933.86	9607.02
934.03	9498.48
934.20	9310.07
934.36	9529.20
934.53	9082.74
934.70	9135.99
934.86	9170.80
935.03	8916.86
935.20	8988.53
935.36	9052.02
935.53	8820.60
935.70	8861.56
935.86	8832.89
936.03	8738.68
936.20	8527.74
936.36	8576.89
936.53	8497.02
936.70	8519.55
936.86	8425.34
937.03	8386.43
937.20	8165.25
937.36	8204.16
937.53	7978.89
937.70	7909.26
937.86	7907.21
938.03	7794.57
938.20	7917.45
938.36	7489.42
938.53	7776.14
938.70	7514.00
938.86	7427.98
939.03	7458.70
939.20	7202.71
939.36	7221.14
939.53	7276.43
939.70	7362.45
939.86	6897.56
940.03	6836.12
940.19	6852.50
940.36	6741.91
940.53	6737.82
940.69	6516.64
940.86	6676.38
941.03	6524.83
941.19	6526.88
941.36	6313.89
941.52	6342.56
941.69	6387.61
941.86	6217.63
942.02	6193.06
942.19	6078.37
942.35	6043.56
942.52	6096.80
942.69	5951.40
942.85	5881.77
943.02	5849.00
943.18	5826.47
943.35	5664.68
943.52	5818.28
943.68	5640.11
943.85	5765.03
944.01	5511.08
944.18	5703.59
944.35	5558.19
944.51	5351.34
944.68	5402.54
944.84	5443.50
945.01	5506.99
945.17	5402.54
945.34	5347.25
945.51	5359.53
945.67	5306.29
945.84	5431.21
946.00	5304.24
946.17	5353.39
946.33	5187.50
946.50	5257.14
946.67	5382.06
946.83	5291.95
947.00	5386.16
947.16	5388.21
947.33	5261.23
947.49	5279.66
947.66	5255.09
947.82	5255.09
947.99	5306.29
948.16	5386.16
948.32	5162.93
948.49	5296.05
948.65	5373.87
948.82	5365.68
948.98	5220.27
949.15	5191.60
949.31	5167.03
949.48	5320.62
949.64	5332.91
949.81	5164.98
949.97	5314.48
950.14	5437.36
950.30	5113.78
950.47	5433.26
950.63	5277.62
950.80	5384.11
950.96	5463.98
951.13	5343.15
951.30	5261.23
951.46	5494.70
951.63	5474.22
951.79	5377.97
951.96	5388.21
952.12	5402.54
952.29	5367.73
952.45	5375.92
952.62	5523.37
952.78	5240.75
952.94	5382.06
953.11	5263.28
953.27	5291.95
953.44	5443.50
953.60	5410.73
953.77	5533.61
953.93	5441.45
954.10	5466.03
954.26	5255.09
954.43	5345.20
954.59	5433.26
954.76	5480.36
954.92	5212.08
955.09	5525.42
955.25	5396.40
955.42	5400.49
955.58	5568.43
955.75	5392.30
955.91	5502.89
956.07	5468.08
956.24	5558.19
956.40	5498.80
956.57	5513.13
956.73	5449.64
956.90	5480.36
957.06	5414.83
957.23	5504.94
957.39	5384.11
957.56	5515.18
957.72	5318.57
957.88	5345.20
958.05	5494.70
958.21	5590.95
958.38	5478.32
958.54	5468.08
958.71	5539.76
958.87	5582.76
959.03	5492.65
959.20	5435.31
959.36	5308.34
959.53	5349.29
959.69	5402.54
959.85	5445.55
960.02	5394.35
960.18	5349.29
960.35	5435.31
960.51	5427.12
960.68	5433.26
960.84	5425.07
961.00	5474.22
961.17	5496.75
961.33	5449.64
961.50	5273.52
961.66	5521.32
961.82	5361.58
961.99	5509.04
962.15	5343.15
962.31	5343.15
962.48	5394.35
962.64	5410.73
962.81	5484.46
962.97	5496.75
963.13	5523.37
963.30	5418.93
963.46	5324.72
963.62	5400.49
963.79	5324.72
963.95	5322.67
964.12	5418.93
964.28	5423.02
964.44	5367.73
964.61	5433.26
964.77	5492.65
964.93	5504.94
965.10	5459.88
965.26	5320.62
965.42	5437.36
965.59	5347.25
965.75	5275.57
965.92	5367.73
966.08	5332.91
966.24	5375.92
966.41	5343.15
966.57	5396.40
966.73	5302.19
966.90	5361.58
967.06	5291.95
967.22	5257.14
967.39	5343.15
967.55	5140.40
967.71	5121.97
967.88	5357.49
968.04	5197.74
968.20	5162.93
968.37	5294.00
968.53	5177.26
968.69	5232.56
968.85	5203.89
969.02	5177.26
969.18	5304.24
969.34	5265.33
969.51	5167.03
969.67	5220.27
969.83	4964.28
970.00	5259.18
970.16	5056.43
970.32	5187.50
970.48	5164.98
970.65	5113.78
970.81	5001.14
970.97	5111.73
971.14	4945.84
971.30	5269.42
971.46	5083.06
971.63	4908.98
971.79	5195.70
971.95	5044.15
972.11	4972.47
972.28	4943.80
972.44	4988.85
972.60	4941.75
972.76	4980.66
972.93	4898.74
973.09	4995.00
973.25	5101.49
973.42	4976.56
973.58	5136.31
973.74	4911.03
973.90	5011.38
974.07	4820.92
974.23	4908.98
974.39	4986.80
974.55	4958.13
974.72	4818.87
974.88	4843.45
975.04	4771.77
975.20	4820.92
975.37	4865.97
975.53	4732.86
975.69	4886.45
975.85	4804.53
976.01	4732.86
976.18	4739.00
976.34	4736.95
976.50	4878.26
976.66	4851.64
976.83	4724.66
976.99	4700.09
977.15	4665.27
977.31	4491.20
977.47	4833.21
977.64	4847.54
977.80	4745.14
977.96	4782.01
978.12	4589.50
978.29	4607.93
978.45	4511.68
978.61	4554.68
978.77	4657.08
978.93	4632.51
979.10	4556.73
979.26	4607.93
979.42	4552.63
979.58	4450.24
979.74	4460.48
979.91	4581.31
980.07	4440.00
980.23	4603.83
980.39	4505.53
980.55	4507.58
980.71	4464.57
980.88	4349.89
981.04	4507.58
981.20	4515.77
981.36	4489.15
981.52	4374.46
981.68	4370.37
981.85	4310.97
982.01	4415.42
982.17	4370.37
982.33	4292.54
982.49	4429.76
982.65	4296.64
982.82	4366.27
982.98	4337.60
983.14	4306.88
983.30	4417.47
983.46	4327.36
983.62	4366.27
983.79	4366.27
983.95	4376.51
984.11	4278.21
984.27	4288.45
984.43	4196.29
984.59	4227.01
984.75	4265.92
984.91	4208.58
985.08	4196.29
985.24	4124.61
985.40	4222.91
985.56	4202.43
985.72	4198.34
985.88	4210.62
986.04	4147.14
986.20	4050.88
986.37	4122.56
986.53	4016.07
986.69	4120.51
986.85	4024.26
987.01	4132.80
987.17	4138.94
987.33	4087.75
987.49	3973.06
987.65	4087.75
987.82	4057.03
987.98	3942.34
988.14	4028.35
988.30	4022.21
988.46	3997.64
988.62	4005.83
988.78	4042.69
988.94	3915.72
989.10	3872.71
989.26	3860.42
989.42	3768.26
989.59	3878.85
989.75	3835.85
989.91	3952.58
990.07	3846.09
990.23	3768.26
990.39	3829.70
990.55	3784.65
990.71	3870.66
990.87	3903.43
991.03	3895.24
991.19	3696.58
991.35	3764.17
991.51	3837.89
991.67	3844.04
991.83	3708.87
992.00	3803.08
992.16	3807.17
992.32	3866.56
992.48	3856.33
992.64	3708.87
992.80	3798.98
992.96	3690.44
993.12	3753.93
993.28	3686.34
993.44	3612.62
993.60	3682.25
993.76	3674.06
993.92	3766.21
994.08	3710.92
994.24	3596.23
994.40	3559.37
994.56	3629.00
994.72	3532.75
994.88	3487.69
995.04	3575.75
995.20	3712.97
995.36	3577.80
995.52	3643.34
995.68	3590.09
995.84	3495.88
996.00	3610.57
996.16	3569.61
996.32	3532.75
996.48	3510.22
996.64	3534.79
996.80	3395.53
996.96	3456.97
997.12	3491.79
997.28	3411.92
997.44	3362.76
997.60	3422.16
997.76	3379.15
997.92	3444.68
998.08	3540.94
998.24	3368.91
998.40	3493.83
998.56	3508.17
998.72	3346.38
998.88	3440.59
999.04	3330.00
999.20	3422.16
999.36	3342.28
999.52	3395.53
999.68	3264.46
999.84	3467.21
1000.00	3387.34
1000.16	3385.29
1000.32	3354.57
1000.48	3401.68
1000.64	3231.69
1000.80	3274.70
1000.95	3157.97
1001.11	3295.18
1001.27	3248.08
1001.43	3286.99
1001.59	3174.35
1001.75	3237.84
1001.91	3182.54
1002.07	3117.01
1002.23	3178.45
1002.39	3180.50
1002.55	3182.54
1002.71	3094.48
1002.87	3147.73
1003.03	3076.05
1003.19	3041.23
1003.34	3274.70
1003.50	3108.82
1003.66	3223.50
1003.82	3194.83
1003.98	3071.95
1004.14	3123.15
1004.30	3174.35
1004.46	2977.75
1004.62	2963.41
1004.78	3110.86
1004.94	3055.57
1005.09	3037.14
1005.25	3047.38
1005.41	3012.56
1005.57	2981.84
1005.73	3082.19
1005.89	3010.51
1006.05	2969.55
1006.21	3065.81
1006.37	2877.40
1006.52	2893.78
1006.68	2959.31
1006.84	3028.95
1007.00	2981.84
1007.16	2861.01
1007.32	2893.78
1007.48	3020.75
1007.64	2879.44
1007.79	2871.25
1007.95	2934.74
1008.11	3010.51
1008.27	2779.09
1008.43	2887.64
1008.59	2908.12
1008.75	2822.10
1008.91	2889.68
1009.06	2826.20
1009.22	2848.72
1009.38	2766.81
1009.54	2951.12
1009.70	2805.72
1009.86	2824.15
1010.01	2813.91
1010.17	2723.80
1010.33	2869.20
1010.49	2772.95
1010.65	2815.96
1010.81	2789.33
1010.96	2705.37
1011.12	2748.37
1011.28	2746.33
1011.44	2740.18
1011.60	2723.80
1011.76	2738.13
1011.91	2828.24
1012.07	2588.63
1012.23	2637.78
1012.39	2648.02
1012.55	2752.47
1012.71	2672.60
1012.86	2645.98
1013.02	2672.60
1013.18	2623.45
1013.34	2639.83
1013.50	2707.41
1013.65	2682.84
1013.81	2615.26
1013.97	2576.34
1014.13	2711.51
1014.29	2650.07
1014.44	2721.75
1014.60	2564.06
1014.76	2615.26
1014.92	2662.36
1015.07	2629.59
1015.23	2656.22
1015.39	2551.77
1015.55	2594.78
1015.71	2574.30
1015.86	2500.57
1016.02	2543.58
1016.18	2531.29
1016.34	2664.41
1016.49	2519.00
1016.65	2609.11
1016.81	2541.53
1016.97	2564.06
1017.12	2492.38
1017.28	2432.99
1017.44	2422.75
1017.60	2441.18
1017.75	2496.47
1017.91	2519.00
1018.07	2473.95
1018.23	2543.58
1018.38	2449.37
1018.54	2475.99
1018.70	2449.37
1018.86	2359.26
1019.01	2418.65
1019.17	2412.51
1019.33	2488.28
1019.49	2338.78
1019.64	2402.27
1019.80	2416.60
1019.96	2439.13
1020.12	2494.43
1020.27	2418.65
1020.43	2394.08
1020.59	2469.85
1020.74	2492.38
1020.90	2457.56
1021.06	2416.60
1021.22	2428.89
1021.37	2408.41
1021.53	2297.82
1021.69	2318.30
1021.84	2287.58
1022.00	2287.58
1022.16	2318.30
1022.31	2406.36
1022.47	2344.92
1022.63	2312.16
1022.79	2213.85
1022.94	2224.09
1023.10	2373.60
1023.26	2308.06
1023.41	2334.68
1023.57	2285.53
1023.73	2336.73
1023.88	2265.05
1024.04	2250.72
1024.20	2299.87
1024.35	2320.35
1024.51	2306.01
1024.67	2289.63
1024.82	2306.01
1024.98	2146.27
1025.14	2199.52
1025.29	2164.70
1025.45	2297.82
1025.61	2199.52
1025.76	2263.01
1025.92	2191.33
1026.08	2275.29
1026.23	2277.34
1026.39	2267.10
1026.55	2273.25
1026.70	2123.74
1026.86	2232.29
1027.02	2273.25
1027.17	2154.46
1027.33	2213.85
1027.48	2205.66
1027.64	2142.18
1027.80	2154.46
1027.95	2183.13
1028.11	2066.40
1028.27	2246.62
1028.42	2146.27
1028.58	2162.66
1028.73	2101.22
1028.89	2031.58
1029.05	2164.70
1029.20	2195.42
>>>>>End Processed Spectral Data<<<<<
