SpectraSuite Data File
++++++++++++++++++++++++++++++++++++
Date: Fri Jun 02 14:52:27 CEST 2017
User: INFO_000
Dark Spectrum Present: No
Reference Spectrum Present: No
Number of Sampled Component Spectra: 1
Spectrometers: USB4H00879
Integration Time (usec): 80000 (USB4H00879)
Spectra Averaged: 1 (USB4H00879)
Boxcar Smoothing: 0 (USB4H00879)
Correct for Electrical Dark: No (USB4H00879)
Strobe/Lamp Enabled: No (USB4H00879)
Correct for Detector Non-linearity: No (USB4H00879)
Correct for Stray Light: No (USB4H00879)
Number of Pixels in Processed Spectrum: 3648
>>>>>Begin Processed Spectral Data<<<<<
345.13	1257.45
345.34	1257.45
345.56	1257.45
345.78	1243.12
345.99	1308.65
346.21	1722.34
346.42	1730.53
346.64	1599.46
346.86	1791.97
347.07	1699.81
347.29	1695.72
347.50	1628.14
347.72	1671.14
347.94	1753.06
348.15	1601.51
348.37	1591.27
348.59	1716.20
348.80	1683.43
349.02	1759.21
349.23	1826.79
349.45	1859.56
349.67	1892.32
349.88	1851.36
350.10	1886.18
350.31	1900.52
350.53	1810.40
350.75	1992.67
350.96	1810.40
351.18	1880.04
351.39	1802.21
351.61	1832.93
351.82	1861.60
352.04	1916.90
352.26	1812.45
352.47	1910.75
352.69	1927.14
352.90	1841.12
353.12	1855.46
353.34	1802.21
353.55	1906.66
353.77	1875.94
353.98	1839.08
354.20	1777.64
354.41	1884.13
354.63	2011.11
354.85	2013.15
355.06	1859.56
355.28	1808.36
355.49	1966.05
355.71	1847.27
355.92	1863.65
356.14	1873.89
356.35	1929.19
356.57	1964.00
356.79	1968.10
357.00	1871.84
357.22	1986.53
357.43	1855.46
357.65	2037.73
357.86	1802.21
358.08	1902.56
358.29	1935.33
358.51	2037.73
358.72	2021.35
358.94	1968.10
359.16	1961.95
359.37	1945.57
359.59	1914.85
359.80	1955.81
360.02	2013.15
360.23	1988.58
360.45	2037.73
360.66	2007.01
360.88	1804.26
361.09	1880.04
361.31	2002.91
361.52	1957.86
361.74	2142.18
361.95	2043.87
362.17	1937.38
362.38	2056.16
362.60	2015.20
362.81	2054.11
363.03	1951.71
363.24	1992.67
363.46	2115.55
363.67	2017.25
363.89	1992.67
364.10	2070.50
364.32	1968.10
364.53	2076.64
364.75	1927.14
364.96	2043.87
365.18	2021.35
365.39	1990.63
365.61	2017.25
365.82	2146.27
366.04	1998.82
366.25	1953.76
366.47	2070.50
366.68	2033.63
366.90	2047.97
367.11	2086.88
367.33	2136.03
367.54	2041.82
367.76	1982.43
367.97	2174.94
368.19	2068.45
368.40	2109.41
368.62	1951.71
368.83	1994.72
369.05	2105.31
369.26	2011.11
369.48	2080.74
369.69	2101.22
369.91	2109.41
370.12	1968.10
370.33	2062.30
370.55	2011.11
370.76	2025.44
370.98	2189.28
371.19	2095.07
371.41	2058.21
371.62	2068.45
371.84	2068.45
372.05	2232.29
372.27	2002.91
372.48	2121.70
372.69	2105.31
372.91	2164.70
373.12	2238.43
373.34	2111.46
373.55	2185.18
373.77	2152.42
373.98	2232.29
374.20	2127.84
374.41	2271.20
374.62	2117.60
374.84	2152.42
375.05	2201.57
375.27	2279.39
375.48	2101.22
375.70	2240.48
375.91	2131.94
376.12	2342.88
376.34	2166.75
376.55	2195.42
376.77	2197.47
376.98	2176.99
377.19	2093.02
377.41	2209.76
377.62	2232.29
377.84	2258.91
378.05	2301.92
378.27	2131.94
378.48	2224.09
378.69	2457.56
378.91	2312.16
379.12	2260.96
379.34	2236.38
379.55	2232.29
379.76	2236.38
379.98	2279.39
380.19	2342.88
380.41	2310.11
380.62	2330.59
380.83	2207.71
381.05	2166.75
381.26	2383.84
381.47	2260.96
381.69	2355.16
381.90	2412.51
382.12	2289.63
382.33	2250.72
382.54	2285.53
382.76	2301.92
382.97	2312.16
383.19	2199.52
383.40	2396.12
383.61	2301.92
383.83	2334.68
384.04	2410.46
384.25	2357.21
384.47	2480.09
384.68	2361.31
384.89	2355.16
385.11	2322.40
385.32	2285.53
385.54	2322.40
385.75	2318.30
385.96	2404.32
386.18	2402.27
386.39	2504.67
386.60	2400.22
386.82	2445.27
387.03	2516.95
387.24	2549.72
387.46	2480.09
387.67	2437.08
387.88	2590.68
388.10	2410.46
388.31	2562.01
388.52	2598.87
388.74	2625.50
388.95	2488.28
389.16	2486.23
389.38	2496.47
389.59	2551.77
389.80	2633.69
390.02	2545.63
390.23	2637.78
390.44	2533.34
390.66	2580.44
390.87	2516.95
391.08	2598.87
391.30	2699.22
391.51	2658.26
391.72	2770.90
391.94	2680.79
392.15	2564.06
392.36	2684.89
392.58	2639.83
392.79	2643.93
393.00	2727.89
393.22	2740.18
393.43	2766.81
393.64	2863.06
393.85	2850.77
394.07	2740.18
394.28	2705.37
394.49	2789.33
394.71	2826.20
394.92	2895.83
395.13	2865.11
395.35	2787.29
395.56	2846.68
395.77	2787.29
395.98	2889.68
396.20	2875.35
396.41	2904.02
396.62	3010.51
396.84	2918.36
397.05	2793.43
397.26	2953.17
397.47	2869.20
397.69	2895.83
397.90	3063.76
398.11	2879.44
398.32	2963.41
398.54	2987.99
398.75	2992.08
398.96	2944.98
399.18	3157.97
399.39	2979.79
399.60	3030.99
399.81	3086.29
400.03	2883.54
400.24	3362.76
400.45	3059.67
400.66	3125.20
400.88	2969.55
401.09	3250.13
401.30	3203.02
401.51	3264.46
401.73	3084.24
401.94	3049.43
402.15	3131.34
402.36	3233.74
402.58	3149.78
402.79	3194.83
403.00	3305.42
403.21	3237.84
403.43	3235.79
403.64	3360.72
403.85	3215.31
404.06	3278.80
404.27	3135.44
404.49	3225.55
404.70	3248.08
404.91	3237.84
405.12	3289.04
405.34	3264.46
405.55	3434.44
405.76	3223.50
405.97	3241.93
406.19	3510.22
406.40	3311.57
406.61	3395.53
406.82	3389.39
407.03	3325.90
407.25	3389.39
407.46	3407.82
407.67	3387.34
407.88	3547.08
408.09	3309.52
408.31	3403.72
408.52	3479.50
408.73	3377.10
408.94	3456.97
409.15	3411.92
409.37	3528.65
409.58	3538.89
409.79	3565.51
410.00	3522.51
410.21	3545.03
410.43	3577.80
410.64	3407.82
410.85	3538.89
411.06	3545.03
411.27	3647.43
411.48	3737.54
411.70	3534.79
411.91	3667.91
412.12	3684.30
412.33	3606.47
412.54	3583.95
412.76	3739.59
412.97	3796.93
413.18	3647.43
413.39	3719.11
413.60	3721.16
413.81	3641.29
414.03	3547.08
414.24	3612.62
414.45	3825.61
414.66	3674.06
414.87	3856.33
415.08	3719.11
415.30	3645.38
415.51	3790.79
415.72	3700.68
415.93	3715.02
416.14	3760.07
416.35	3891.14
416.56	3854.28
416.78	3895.24
416.99	3870.66
417.20	3762.12
417.41	3862.47
417.62	3917.76
417.83	3885.00
418.04	3882.95
418.26	3903.43
418.47	3835.85
418.68	4009.92
418.89	4026.31
419.10	4036.55
419.31	4054.98
419.52	4036.55
419.73	4112.32
419.95	4161.47
420.16	3964.87
420.37	4018.11
420.58	4153.28
420.79	3989.44
421.00	4022.21
421.21	4337.60
421.42	4093.89
421.63	4247.49
421.85	4186.05
422.06	4278.21
422.27	4206.53
422.48	4274.11
422.69	4276.16
422.90	4308.93
423.11	4288.45
423.32	4302.78
423.53	4546.49
423.75	4192.19
423.96	4507.58
424.17	4478.91
424.38	4693.94
424.59	4476.86
424.80	4712.38
425.01	4499.39
425.22	4403.13
425.43	4507.58
425.64	4730.81
425.85	4663.22
426.06	4575.16
426.28	4638.65
426.49	4628.41
426.70	4575.16
426.91	4679.61
427.12	4825.01
427.33	4708.28
427.54	4812.73
427.75	4655.03
427.96	4917.17
428.17	4843.45
428.38	4779.96
428.59	4874.17
428.80	4886.45
429.01	4966.32
429.23	4857.78
429.44	5105.59
429.65	4974.52
429.86	5060.53
430.07	5009.33
430.28	5015.48
430.49	5046.20
430.70	5261.23
430.91	5214.13
431.12	5156.79
431.33	5164.98
431.54	5347.25
431.75	5220.27
431.96	5111.73
432.17	5353.39
432.38	5179.31
432.59	5455.79
432.80	5316.53
433.01	5388.21
433.22	5420.97
433.43	5416.88
433.64	5466.03
433.85	5388.21
434.06	5560.24
434.27	5302.19
434.49	5484.46
434.70	5617.58
434.91	5500.84
435.12	5545.90
435.33	5525.42
435.54	5593.00
435.75	5316.53
435.96	5597.10
436.17	5461.93
436.38	5775.27
436.59	5709.74
436.80	5681.07
437.01	5951.40
437.22	5945.25
437.43	5851.05
437.64	5568.43
437.85	5830.57
438.06	5896.10
438.27	5803.94
438.48	5752.74
438.69	6055.84
438.90	6008.74
439.11	5873.57
439.32	6084.52
439.53	5935.01
439.74	6094.76
439.95	6084.52
440.16	5994.40
440.37	6012.84
440.57	5842.85
440.78	6133.67
440.99	6123.43
441.20	6117.28
441.41	6133.67
441.62	6006.69
441.83	5953.45
442.04	6266.78
442.25	6266.78
442.46	6133.67
442.67	6229.92
442.88	6707.10
443.09	6150.05
443.30	6309.79
443.51	6424.48
443.72	6700.95
443.93	6186.91
444.14	6666.14
444.35	6291.36
444.56	6383.52
444.77	6694.81
444.98	6326.18
445.19	6520.73
445.40	6524.83
445.61	6490.01
445.81	6627.23
446.02	6684.57
446.23	6537.12
446.44	6426.53
446.65	6651.80
446.86	6545.31
447.07	6631.32
447.28	6768.54
447.49	6688.67
447.70	6672.28
447.91	6942.61
448.12	6776.73
448.33	6809.50
448.54	6961.05
448.74	6811.54
448.95	6932.37
449.16	6797.21
449.37	7014.29
449.58	6999.96
449.79	7141.27
450.00	6807.45
450.21	7088.02
450.42	7163.79
450.63	7188.37
450.84	7229.33
451.05	7139.22
451.25	7079.83
451.46	7092.12
451.67	7268.24
451.88	7503.76
452.09	7374.74
452.30	7188.37
452.51	7118.74
452.72	7425.93
452.93	7618.44
453.13	7237.52
453.34	7393.17
453.55	7436.17
453.76	7284.62
453.97	7755.66
454.18	7552.91
454.39	7645.07
454.60	7585.68
454.81	7452.56
455.01	7790.47
455.22	7591.82
455.43	7810.95
455.64	7698.31
455.85	7903.11
456.06	7999.37
456.27	7788.43
456.48	7784.33
456.68	7905.16
456.89	7911.30
457.10	8060.80
457.31	7991.17
457.52	8083.33
457.73	8060.80
457.94	8484.73
458.14	7962.50
458.35	8380.29
458.56	8394.62
458.77	8105.86
458.98	8337.28
459.19	8359.81
459.39	8370.05
459.60	8456.06
459.81	8521.60
460.02	8466.30
460.23	8509.31
460.44	8761.21
460.65	8789.88
460.85	8818.55
461.06	8910.71
461.27	8576.89
461.48	9015.16
461.69	9009.01
461.89	8785.79
462.10	9105.27
462.31	8857.46
462.52	8875.90
462.73	9058.17
462.94	9211.76
463.14	9000.82
463.35	9156.47
463.56	9580.40
463.77	9400.18
463.98	9191.28
464.18	9453.42
464.39	9574.25
464.60	9846.63
464.81	9510.77
465.02	9637.74
465.23	9783.15
465.43	9756.52
465.64	9989.99
465.85	9973.61
466.06	9809.77
466.27	10178.40
466.47	10164.07
466.68	10026.86
466.89	10020.71
467.10	10030.95
467.30	10049.38
467.51	10276.71
467.72	10530.66
467.93	10284.90
468.14	10512.22
468.34	10596.19
468.55	10610.53
468.76	10649.44
468.97	10510.18
469.17	10833.75
469.38	10934.11
469.59	11212.63
469.80	10669.92
470.01	10741.60
470.21	10870.62
470.42	11224.92
470.63	11439.95
470.84	11050.84
471.04	11327.32
471.25	11366.23
471.46	11257.68
471.67	11857.74
471.87	11538.26
472.08	11792.20
472.29	11863.88
472.50	11669.33
472.70	11790.16
472.91	11892.55
473.12	12177.22
473.33	12236.61
473.53	12318.53
473.74	12275.52
473.95	12357.44
474.16	12674.88
474.36	12635.97
474.57	12797.76
474.78	12781.37
474.99	12748.61
475.19	12846.91
475.40	13182.77
475.61	13207.35
475.81	13195.06
476.02	13418.29
476.23	13340.47
476.44	13422.39
476.64	13920.04
476.85	13756.21
477.06	13756.21
477.27	14016.30
477.47	14167.85
477.68	13940.52
477.89	14266.15
478.09	14194.47
478.30	14368.55
478.51	14362.40
478.71	14493.47
478.92	14659.36
479.13	14616.35
479.34	14999.32
479.54	14841.63
479.75	14886.68
479.96	15079.19
480.16	15148.82
480.37	15253.27
480.58	15566.61
480.78	15718.16
480.99	15607.57
481.20	15830.80
481.41	16068.36
481.61	15855.37
481.82	16054.03
482.03	16318.22
482.23	15937.29
482.44	16488.20
482.65	16629.51
482.85	16627.46
483.06	16774.91
483.27	16756.48
483.47	16525.06
483.68	16754.43
483.89	16848.64
484.09	16926.46
484.30	17329.91
484.51	17319.67
484.71	17641.20
484.92	17612.53
485.13	17575.67
485.33	17608.44
485.54	17665.78
485.75	17899.25
485.95	18036.46
486.16	18036.46
486.37	18077.42
486.57	18116.33
486.78	18267.88
486.98	18132.72
487.19	18337.51
487.40	18636.52
487.60	18618.08
487.81	18685.67
488.02	18947.81
488.22	18650.85
488.43	19156.70
488.64	18927.33
488.84	19287.77
489.05	19541.72
489.25	19205.85
489.46	19599.06
489.67	19601.11
489.87	19488.47
490.08	19769.04
490.29	19781.33
490.49	20039.37
490.70	20037.33
490.90	20313.80
491.11	20057.81
491.32	20321.99
491.52	20231.88
491.73	20747.97
491.94	20659.91
492.14	20403.91
492.35	20858.56
492.55	21132.99
492.76	21122.75
492.97	21223.10
493.17	21204.67
493.38	21155.52
493.58	21470.90
493.79	21370.55
494.00	21329.59
494.20	21565.11
494.41	21667.51
494.61	21681.85
494.82	21753.52
495.02	21667.51
495.23	22040.24
495.44	22056.62
495.64	22044.34
495.85	22152.88
496.05	22408.87
496.26	22242.99
496.47	22458.03
496.67	22220.46
496.88	22943.39
497.08	22341.29
497.29	22826.66
497.49	22886.05
497.70	22783.65
497.91	22808.23
498.11	23066.27
498.32	23172.77
498.52	23080.61
498.73	23258.78
498.93	23090.85
499.14	23719.57
499.34	23848.60
499.55	23879.32
499.76	23252.64
499.96	23989.91
500.17	23602.84
500.37	23848.60
500.58	23766.68
500.78	23795.35
500.99	23912.08
501.19	24100.50
501.40	24274.57
501.60	24143.50
501.81	24270.48
502.02	24206.99
502.22	24342.16
502.43	24387.21
502.63	24379.02
502.84	24641.16
503.04	24684.17
503.25	24684.17
503.45	24675.98
503.66	24934.02
503.86	24632.97
504.07	25253.50
504.27	25040.51
504.48	25241.21
504.68	25261.69
504.89	25435.77
505.09	25634.42
505.30	25327.23
505.50	25140.86
505.71	25097.86
505.91	25605.75
506.12	25288.32
506.32	25538.17
506.53	25560.70
506.73	25912.95
506.94	25790.07
507.14	26017.40
507.35	25710.20
507.55	25876.09
507.76	25906.80
507.96	26080.88
508.17	26230.38
508.37	26095.22
508.58	26031.73
508.78	26336.88
508.99	26543.72
509.19	26119.79
509.40	26287.73
509.60	26076.79
509.81	26619.50
510.01	26426.99
510.22	26508.91
510.42	26605.16
510.63	26949.22
510.83	26893.93
511.04	26562.15
511.24	26771.05
511.44	26664.55
511.65	26809.96
511.85	26873.45
512.06	26775.14
512.26	26930.79
512.47	27240.03
512.67	27156.07
512.88	27229.79
513.08	26848.87
513.29	27326.05
513.49	27328.10
513.69	27352.67
513.90	27139.68
514.10	27362.91
514.31	27616.86
514.51	27651.67
514.72	27471.45
514.92	27577.95
515.13	27475.55
515.33	27489.88
515.53	27711.07
515.74	27856.47
515.94	27989.59
516.15	27930.20
516.35	28094.04
516.56	28298.83
516.76	27891.29
516.96	28073.56
517.17	28491.34
517.37	28223.06
517.58	28198.48
517.78	28495.44
517.99	28194.39
518.19	28788.30
518.39	28540.49
518.60	28653.13
518.80	28790.34
519.01	28780.10
519.21	28542.54
519.41	29036.10
519.62	28657.23
519.82	28884.55
520.03	29236.80
520.23	29142.60
520.43	29128.26
520.64	29576.76
520.84	29161.03
521.05	29191.75
521.25	29271.62
521.45	29390.40
521.66	29980.21
521.86	29679.16
522.07	29654.59
522.27	30142.00
522.47	29562.43
522.68	30107.19
522.88	30017.08
523.08	30289.46
523.29	30049.85
523.49	30606.89
523.70	30770.73
523.90	30496.30
524.10	30707.24
524.31	30606.89
524.51	30821.93
524.71	30946.86
524.92	30838.31
525.12	31084.07
525.33	30957.10
525.53	31176.23
525.73	31198.76
525.94	31096.36
526.14	31053.35
526.34	31602.21
526.55	31442.46
526.75	31596.06
526.95	32048.66
527.16	31591.97
527.36	31735.32
527.56	31893.02
527.77	32149.01
527.97	32179.73
528.17	31950.36
528.38	32218.64
528.58	31950.36
528.78	32536.08
528.99	32542.22
529.19	32804.36
529.39	32370.19
529.60	33068.55
529.80	32656.91
530.00	33035.78
530.21	32753.16
530.41	33226.24
530.61	32984.58
530.82	33392.13
531.02	33545.73
531.22	33762.81
531.43	33543.68
531.63	33664.51
531.83	34168.31
532.04	34309.62
532.24	33574.40
532.44	34563.57
532.64	34532.85
532.85	34588.14
533.05	34514.42
533.25	34502.13
533.46	34901.48
533.66	34932.20
533.86	34944.49
534.07	35036.65
534.27	34944.49
534.47	35562.98
534.67	35648.99
534.88	34969.07
535.08	35384.80
535.28	35917.28
535.49	35767.77
535.69	36158.94
535.89	36140.50
536.09	35792.35
536.30	36224.47
536.50	36494.80
536.70	36451.80
536.91	36304.34
537.11	36468.18
537.31	36969.93
537.51	36939.21
537.72	36849.10
537.92	37344.71
538.12	37543.36
538.32	37207.50
538.53	37766.59
538.73	37094.86
538.93	37359.05
539.13	37739.97
539.34	37506.50
539.54	37486.02
539.74	37850.56
539.94	37565.89
540.15	37854.65
540.35	38233.53
540.55	38012.35
540.75	38135.23
540.96	38139.32
541.16	38403.51
541.36	38516.15
541.56	38391.22
541.77	38667.70
541.97	38350.26
542.17	38948.27
542.37	38710.71
542.58	39187.88
542.78	39220.65
542.98	38985.13
543.18	39456.17
543.38	39888.29
543.59	39548.32
543.79	39214.51
543.99	39222.70
544.19	39603.62
544.40	39904.67
544.60	39974.30
544.80	39726.50
545.00	40017.31
545.20	40387.99
545.41	40277.40
545.61	40086.94
545.81	40523.16
546.01	39992.73
546.21	40308.12
546.42	40357.27
546.62	40646.04
546.82	40445.33
547.02	40445.33
547.22	40619.41
547.43	40588.69
547.63	41221.52
547.83	41383.30
548.03	40928.66
548.23	41360.78
548.44	40971.66
548.64	41371.02
548.84	41301.39
549.04	41383.30
549.24	41340.30
549.45	41606.53
549.65	41379.21
549.85	41532.81
550.05	42063.23
550.25	41885.06
550.45	42005.89
550.66	41962.88
550.86	41655.68
551.06	42319.23
551.26	42311.03
551.46	41932.16
551.66	41921.92
551.87	42302.84
552.07	42214.78
552.27	42382.71
552.47	42843.51
552.67	42767.73
552.87	42794.36
553.07	42939.76
553.28	42812.79
553.48	43193.71
553.68	42935.66
553.88	43054.45
554.08	43033.97
554.28	43156.85
554.48	42532.22
554.69	42982.77
554.89	43046.26
555.09	43220.33
555.29	42739.06
555.49	43263.34
555.69	43461.99
555.89	42978.67
556.10	43644.26
556.30	43396.46
556.50	43179.37
556.70	43380.07
556.90	43980.13
557.10	43834.72
557.30	43464.04
557.50	43834.72
557.70	43474.28
557.91	44051.81
558.11	43959.65
558.31	44068.19
558.51	43861.35
558.71	43752.80
558.91	44146.01
559.11	44068.19
559.31	44254.56
559.51	43677.03
559.72	44160.35
559.92	44152.16
560.12	43834.72
560.32	44440.92
560.52	43988.32
560.72	44629.34
560.92	44367.20
561.12	44293.47
561.32	44266.84
561.52	44176.73
561.72	44623.19
561.93	44076.38
562.13	44246.36
562.33	43976.03
562.53	44926.29
562.73	44291.42
562.93	44623.19
563.13	44561.75
563.33	44182.88
563.53	44571.99
563.73	44545.37
563.93	44615.00
564.13	45061.46
564.33	44733.78
564.53	45036.88
564.74	45194.57
564.94	44709.21
565.14	44950.87
565.34	44406.11
565.54	45575.50
565.74	45176.14
565.94	45258.06
566.14	44805.46
566.34	45313.36
566.54	45507.91
566.74	45000.02
566.94	45241.68
567.14	45708.61
567.34	45256.01
567.54	45555.02
567.74	45360.46
567.94	45309.26
568.14	45595.98
568.34	45395.28
568.54	45200.72
568.74	45794.63
568.94	45208.91
569.14	45884.74
569.34	45362.51
569.54	45878.60
569.75	45421.90
569.95	45700.42
570.15	45942.08
570.35	45708.61
570.55	45700.42
570.75	45937.99
570.95	45897.03
571.15	45757.77
571.35	45862.21
571.55	45722.95
571.75	45653.32
571.95	46105.92
572.15	45743.43
572.35	46439.74
572.55	46071.10
572.75	46497.08
572.95	46046.53
573.15	45864.26
573.35	45929.80
573.55	45874.50
573.75	46193.98
573.95	46521.66
574.15	45970.75
574.35	46585.15
574.55	46185.79
574.75	45851.97
574.95	46284.09
575.15	45888.84
575.34	46300.48
575.54	46503.23
575.74	46835.00
575.94	46777.65
576.14	46214.46
576.34	46841.14
576.54	46740.79
576.74	46433.60
576.94	46603.58
577.14	46927.16
577.34	46982.45
577.54	46687.54
577.74	46921.01
577.94	46884.15
578.14	47035.70
578.34	47404.33
578.54	46607.67
578.74	46871.86
578.94	47004.98
579.14	47297.84
579.34	46773.56
579.54	47115.57
579.74	47494.44
579.94	47232.30
580.13	47443.24
580.33	47609.13
580.53	47248.69
580.73	47545.64
580.93	47375.66
581.13	47691.05
581.33	47723.82
581.53	47748.39
581.73	47562.03
581.93	47785.25
582.13	47842.60
582.33	47848.74
582.53	47625.51
582.73	47365.42
582.92	47574.31
583.12	48368.93
583.32	48174.37
583.52	47428.91
583.72	48246.05
583.92	47822.12
584.12	48047.39
584.32	48440.60
584.52	47992.10
584.72	48452.89
584.92	48239.90
585.11	48592.15
585.31	48596.25
585.51	48399.65
585.71	48315.68
585.91	48655.64
586.11	48557.34
586.31	48436.51
586.51	48463.13
586.71	48602.39
586.91	48973.08
587.10	48753.94
587.30	48659.74
587.50	48766.23
587.70	49030.42
587.90	48784.66
588.10	48895.25
588.30	48772.38
588.50	49284.37
588.69	49050.90
588.89	48543.00
589.09	49569.04
589.29	49055.00
589.49	49181.97
589.69	49122.58
589.89	49214.74
590.08	49141.01
590.28	49421.58
590.48	49300.75
590.68	49489.16
590.88	49247.50
591.08	49491.21
591.28	49157.39
591.47	50038.02
591.67	49614.09
591.87	49343.76
592.07	49605.90
592.27	49898.76
592.47	49822.98
592.67	49327.38
592.86	49235.22
593.06	50246.91
593.26	50222.34
593.46	49657.10
593.66	50015.49
593.86	50001.16
594.05	49782.02
594.25	50136.32
594.45	49943.81
594.65	50093.32
594.85	50113.80
595.05	49984.77
595.24	50468.09
595.44	50687.23
595.64	50144.51
595.84	50394.37
596.04	50103.56
596.23	50083.08
596.43	50459.90
596.63	50390.27
596.83	50291.97
597.03	50973.94
597.22	50844.92
597.42	50816.25
597.62	51086.58
597.82	50683.13
598.02	51098.87
598.21	51156.21
598.41	50584.83
598.61	51248.37
598.81	51098.87
599.01	51377.39
599.20	51141.88
599.40	51172.60
599.60	51385.58
599.80	51381.49
600.00	51422.45
600.19	51551.47
600.39	51354.86
600.59	51842.28
600.79	51754.22
600.98	51647.72
601.18	51729.64
601.38	52049.13
601.58	52135.14
601.78	51981.54
601.97	52237.54
602.17	52131.04
602.37	51889.38
602.57	52126.95
602.76	52528.35
602.96	52344.03
603.16	52552.93
603.36	52421.86
603.55	52778.20
603.75	52466.91
603.95	52548.83
604.15	52569.31
604.34	52772.06
604.54	52866.27
604.74	52901.08
604.94	52597.98
605.13	52999.38
605.33	53195.99
605.53	53200.08
605.73	53134.55
605.92	53396.69
606.12	53560.53
606.32	53497.04
606.52	53249.24
606.71	53335.25
606.91	53703.88
607.11	53515.47
607.30	53865.67
607.50	53343.44
607.70	53458.13
607.90	53664.97
608.09	53445.84
608.29	53638.35
608.49	54072.52
608.68	53894.35
608.88	53982.41
609.08	53859.53
609.28	53916.87
609.47	53583.05
609.67	53968.07
609.87	54404.29
610.06	54396.10
610.26	54097.09
610.46	54416.58
610.66	54320.32
610.85	54238.40
611.05	54236.36
611.25	54232.26
611.44	54359.23
611.64	54316.23
611.84	54439.11
612.03	54353.09
612.23	54490.30
612.43	54293.70
612.62	54330.56
612.82	55360.69
613.02	54715.58
613.21	54736.06
613.41	54494.40
613.61	54795.45
613.80	54727.87
614.00	54877.37
614.20	54570.18
614.39	54990.01
614.59	55432.37
614.79	54852.80
614.98	55309.49
615.18	54973.63
615.38	55248.05
615.57	54998.20
615.77	55393.46
615.97	55293.11
616.16	55231.67
616.36	55223.48
616.56	55436.47
616.75	55301.30
616.95	54969.53
617.15	55219.38
617.34	55229.62
617.54	55385.27
617.74	55647.41
617.93	55162.04
618.13	55157.94
618.32	55164.09
618.52	55235.77
618.72	55153.85
618.91	55344.31
619.11	55090.36
619.31	55174.33
619.50	55057.59
619.70	55547.06
619.90	54985.91
620.09	55610.54
620.29	55612.59
620.48	55430.32
620.68	56052.90
620.88	55059.64
621.07	55360.69
621.27	55653.55
621.46	55301.30
621.66	55530.67
621.86	55989.42
622.05	55381.17
622.25	55977.13
622.44	55444.66
622.64	55745.71
622.84	55891.12
623.03	55407.79
623.23	55647.41
623.42	55475.38
623.62	55524.53
623.82	55905.45
624.01	55932.07
624.21	56110.25
624.40	55571.63
624.60	55997.61
624.80	55606.45
624.99	55786.67
625.19	55276.72
625.38	55669.93
625.58	56034.47
625.77	55874.73
625.97	56054.95
626.17	55727.28
626.36	56386.72
626.56	56132.78
626.75	55465.14
626.95	55899.31
627.14	55956.65
627.34	56145.06
627.54	55983.27
627.73	55944.36
627.93	55903.40
628.12	56040.62
628.32	56210.60
628.51	56001.71
628.71	56345.76
628.90	56140.97
629.10	56167.59
629.30	55899.31
629.49	56089.77
629.69	56315.04
629.88	55966.89
630.08	56409.25
630.27	56204.45
630.47	56319.14
630.66	56300.71
630.86	56411.30
631.05	56071.34
631.25	56202.41
631.44	56298.66
631.64	56687.78
631.84	56675.49
632.03	56485.03
632.23	56388.77
632.42	56620.19
632.62	56302.76
632.81	56044.71
633.01	56198.31
633.20	56544.42
633.40	56640.67
633.59	56734.88
633.79	56403.11
633.98	56890.52
634.18	56710.30
634.37	56765.60
634.57	56693.92
634.76	57013.40
634.96	56980.63
635.15	56956.06
635.35	56423.59
635.54	56763.55
635.74	57037.98
635.93	57089.18
636.13	57054.36
636.32	57144.47
636.52	56489.12
636.71	56741.02
636.91	56878.24
637.10	57187.48
637.30	56988.83
637.49	56919.20
637.69	56642.72
637.88	57287.83
638.08	56763.55
638.27	57201.82
638.46	57193.62
638.66	56839.32
638.85	57037.98
639.05	57519.25
639.24	56984.73
639.44	56939.68
639.63	57234.58
639.83	57060.51
640.02	57402.52
640.22	57031.83
640.41	57488.53
640.61	56857.76
640.80	57107.61
640.99	56941.72
641.19	57758.86
641.38	57263.25
641.58	57232.53
641.77	57228.44
641.97	56990.87
642.16	57246.87
642.36	58008.71
642.55	58084.49
642.74	56773.79
642.94	58160.26
643.13	57580.69
643.33	57592.98
643.52	58045.58
643.72	57271.45
643.91	57635.98
644.10	57521.30
644.30	57586.83
644.49	57169.05
644.69	58033.29
644.88	57547.92
645.08	57513.11
645.27	57429.14
645.46	57791.63
645.66	57474.20
645.85	57566.35
646.05	57777.29
646.24	57939.08
646.43	57853.07
646.63	57703.57
646.82	58291.33
647.02	58164.36
647.21	57711.76
647.40	57687.18
647.60	57986.19
647.79	58215.56
647.99	57973.90
648.18	57928.84
648.37	58252.42
648.57	58084.49
648.76	57947.28
648.96	58047.63
649.15	58000.52
649.34	58373.25
649.54	58096.78
649.73	57889.93
649.92	58205.32
650.12	58121.35
650.31	58119.31
650.51	58524.80
650.70	58446.98
650.89	58037.39
651.09	58877.05
651.28	58664.06
651.47	57971.85
651.67	58317.96
651.86	58887.29
652.06	57822.35
652.25	58547.33
652.44	58287.24
652.64	57738.38
652.83	57740.43
653.02	58195.08
653.22	58557.57
653.41	58170.50
653.60	57740.43
653.80	58195.08
653.99	57848.97
654.18	57988.24
654.38	58250.38
654.57	58121.35
654.76	58371.21
654.96	58262.66
655.15	57984.14
655.34	57930.89
655.54	57588.88
655.73	57889.93
655.92	58367.11
656.12	58528.90
656.31	58217.61
656.50	58463.36
656.70	58403.97
656.89	58115.21
657.08	58186.89
657.28	58197.13
657.47	58246.28
657.66	58403.97
657.86	57947.28
658.05	58236.04
658.24	58293.38
658.43	57742.48
658.63	58203.27
658.82	58014.86
659.01	58604.67
659.21	58467.46
659.40	58434.69
659.59	57836.69
659.79	57965.71
659.98	58455.17
660.17	57713.81
660.36	57934.99
660.56	58328.20
660.75	58449.03
660.94	58471.56
661.14	57887.88
661.33	57783.44
661.52	57549.97
661.71	58569.86
661.91	57842.83
662.10	57576.59
662.29	57891.98
662.49	58084.49
662.68	57881.74
662.87	58545.28
663.06	58066.06
663.26	57871.50
663.45	58242.18
663.64	58115.21
663.83	58748.03
664.03	58135.69
664.22	57980.04
664.41	57818.25
664.60	57965.71
664.80	57894.03
664.99	57871.50
665.18	58324.10
665.37	57855.12
665.57	58150.02
665.76	57830.54
665.95	58229.90
666.14	57857.17
666.34	57836.69
666.53	57748.62
666.72	57900.17
666.91	57791.63
667.11	57705.62
667.30	57470.10
667.49	57623.70
667.68	57549.97
667.87	57496.72
668.07	57660.56
668.26	57715.86
668.45	58070.15
668.64	57410.71
668.84	58195.08
669.03	57900.17
669.22	57861.26
669.41	57547.92
669.60	57791.63
669.80	57611.41
669.99	57869.45
670.18	57674.90
670.37	57635.98
670.57	57441.43
670.76	57341.08
670.95	57945.23
671.14	57502.87
671.33	57586.83
671.53	57707.66
671.72	57726.10
671.91	57601.17
672.10	57451.67
672.29	57492.63
672.48	57330.84
672.68	57883.79
672.87	57132.18
673.06	56960.15
673.25	57355.41
673.44	57521.30
673.64	57175.19
673.83	57248.92
674.02	56757.41
674.21	56849.56
674.40	57214.10
674.59	56392.87
674.79	56745.12
674.98	56792.22
675.17	57388.18
675.36	56712.35
675.55	57250.97
675.74	56464.55
675.94	56784.03
676.13	56980.63
676.32	57095.32
676.51	57439.38
676.70	56843.42
676.89	56845.47
677.08	57046.17
677.28	56558.75
677.47	57119.90
677.66	56853.66
677.85	56876.19
678.04	57357.46
678.23	57267.35
678.42	57160.86
678.62	56827.04
678.81	57240.73
679.00	56614.05
679.19	56906.91
679.38	56337.57
679.57	56726.69
679.76	56548.51
679.96	57050.27
680.15	56462.50
680.34	56659.10
680.53	56665.25
680.72	56911.00
680.91	56917.15
681.10	56360.10
681.29	56507.55
681.48	56302.76
681.68	56679.58
681.87	56112.30
682.06	56640.67
682.25	55809.20
682.44	55778.48
682.63	56120.49
682.82	56405.16
683.01	56253.61
683.20	55297.20
683.39	56382.63
683.59	55850.16
683.78	55481.52
683.97	56163.50
684.16	55989.42
684.35	55448.75
684.54	55882.92
684.73	55633.07
684.92	55774.38
685.11	55899.31
685.30	55549.10
685.49	55921.83
685.69	55317.68
685.88	55424.18
686.07	55178.42
686.26	55370.93
686.45	55575.73
686.64	55669.93
686.83	55686.32
687.02	55653.55
687.21	55786.67
687.40	55743.66
687.59	55334.07
687.78	55506.10
687.97	56030.38
688.16	55297.20
688.35	54875.32
688.54	55235.77
688.74	55444.66
688.93	55280.82
689.12	55205.05
689.31	55080.12
689.50	55186.61
689.69	54977.72
689.88	54781.12
690.07	55397.55
690.26	54592.70
690.45	54826.17
690.64	55096.50
690.83	54666.43
691.02	54564.03
691.21	54807.74
691.40	54635.71
691.59	54723.77
691.78	54734.01
691.97	54828.22
692.16	55159.99
692.35	54951.10
692.54	54906.04
692.73	54604.99
692.92	54291.65
693.11	54555.84
693.30	54635.71
693.49	54822.08
693.68	54273.22
693.87	54512.83
694.06	54170.82
694.25	54172.87
694.44	54195.40
694.63	54523.07
694.82	54379.71
695.01	54400.19
695.20	54244.55
695.39	53837.00
695.58	54301.89
695.77	54090.95
695.96	53886.15
696.15	54326.47
696.34	54211.78
696.53	54119.62
696.72	54314.18
696.91	54011.08
697.10	54203.59
697.29	54105.29
697.48	54314.18
697.67	54578.37
697.86	53871.82
698.05	53445.84
698.24	54316.23
698.43	53683.40
698.62	54125.77
698.81	53372.11
699.00	53937.35
699.19	53677.26
699.38	53746.89
699.57	53335.25
699.76	53941.45
699.95	53617.87
700.14	53564.62
700.32	54011.08
700.51	53593.29
700.70	53728.46
700.89	53593.29
701.08	53626.06
701.27	53429.46
701.46	53687.50
701.65	52690.14
701.84	53011.67
702.03	53152.98
702.22	53044.44
702.41	53310.67
702.60	53208.28
702.79	53320.91
702.98	52651.23
703.17	52878.55
703.35	53277.91
703.54	52901.08
703.73	53058.77
703.92	52802.78
704.11	53038.29
704.30	52645.08
704.49	52847.83
704.68	52454.62
704.87	52845.79
705.06	52925.66
705.25	52798.68
705.43	52786.39
705.62	52489.44
705.81	52770.01
706.00	52727.00
706.19	52073.70
706.38	52172.00
706.57	52438.24
706.76	52657.37
706.95	52126.95
707.14	52051.17
707.32	52147.43
707.51	52208.87
707.70	52452.58
707.89	52266.21
708.08	52483.30
708.27	52718.81
708.46	52628.70
708.65	51959.02
708.84	52364.51
709.02	52258.02
709.21	52370.66
709.40	52419.81
709.59	52468.96
709.78	52061.41
709.97	52292.83
710.16	52077.80
710.34	52012.26
710.53	51954.92
710.72	52305.12
710.91	52081.89
711.10	52352.23
711.29	51948.78
711.48	52077.80
711.66	51891.43
711.85	51795.18
712.04	51791.08
712.23	51969.26
712.42	51858.66
712.61	51440.88
712.80	51834.09
712.98	51670.25
713.17	51231.99
713.36	51784.94
713.55	51862.76
713.74	51524.85
713.93	51846.38
714.11	51555.57
714.30	51283.19
714.49	51541.23
714.68	51492.08
714.87	51451.12
715.06	51371.25
715.24	51344.62
715.43	51195.12
715.62	50433.28
715.81	51109.11
716.00	51492.08
716.18	50982.13
716.37	50973.94
716.56	50959.61
716.75	51438.83
716.94	50855.16
717.12	50969.85
717.31	51528.94
717.50	51027.19
717.69	50621.69
717.88	50564.35
718.06	50664.70
718.25	51176.69
718.44	50681.08
718.63	50474.24
718.82	50713.85
719.00	50562.30
719.19	50494.72
719.38	50799.86
719.57	49929.48
719.76	50324.74
719.94	49646.86
720.13	50466.05
720.32	49992.97
720.51	50466.05
720.69	50074.88
720.88	50025.73
721.07	50064.64
721.26	50398.46
721.44	49876.23
721.63	49739.02
721.82	49902.85
722.01	49673.48
722.20	50019.59
722.38	49661.19
722.57	49310.99
722.76	49880.33
722.95	49632.52
723.13	49220.88
723.32	49972.49
723.51	49224.98
723.70	49239.31
723.88	49552.65
724.07	49124.63
724.26	49485.07
724.44	49095.95
724.63	49341.71
724.82	49399.05
725.01	49034.52
725.19	49259.79
725.38	49321.23
725.57	48952.60
725.76	49296.66
725.94	49022.23
726.13	48932.12
726.32	49224.98
726.51	48608.54
726.69	49386.77
726.88	49327.38
727.07	48977.17
727.25	49235.22
727.44	48911.64
727.63	49298.70
727.82	49071.38
728.00	48952.60
728.19	48618.78
728.38	49106.19
728.56	48819.48
728.75	48942.36
728.94	48954.64
729.12	49048.85
729.31	49155.35
729.50	48956.69
729.69	49147.15
729.87	48723.22
730.06	48815.38
730.25	49122.58
730.43	49085.72
730.62	48749.85
730.81	49306.90
730.99	49313.04
731.18	49128.72
731.37	48690.46
731.55	49382.67
731.74	48989.46
731.93	49386.77
732.11	49374.48
732.30	48829.72
732.49	48516.38
732.67	48989.46
732.86	48641.31
733.05	49100.05
733.23	48997.65
733.42	48803.10
733.61	48717.08
733.79	48846.10
733.98	49382.67
734.17	49014.04
734.35	48944.41
734.54	49136.91
734.73	49653.00
734.91	49067.28
735.10	48651.55
735.29	49161.49
735.47	48891.16
735.66	48995.60
735.84	48749.85
736.03	48600.35
736.22	49124.63
736.40	48842.01
736.59	48938.26
736.78	48416.03
736.96	48616.73
737.15	48530.72
737.33	48553.24
737.52	48504.09
737.71	48680.22
737.89	48366.88
738.08	48084.26
738.27	48237.86
738.45	49394.96
738.64	48504.09
738.82	48579.87
739.01	48665.88
739.20	48626.97
739.38	48743.70
739.57	48600.35
739.75	48596.25
739.94	48248.10
740.13	48588.06
740.31	48522.52
740.50	48692.50
740.68	48381.21
740.87	48889.11
741.06	48340.25
741.24	47858.98
741.43	47912.23
741.61	48301.34
741.80	48223.52
741.99	48301.34
742.17	48403.74
742.36	48205.09
742.54	48168.22
742.73	47947.04
742.91	48356.64
743.10	48311.58
743.29	48067.87
743.47	48178.46
743.66	48098.59
743.84	48330.01
744.03	48213.28
744.21	47930.66
744.40	48450.84
744.59	47867.17
744.77	47717.67
744.96	47711.53
745.14	48168.22
745.33	47699.24
745.51	48168.22
745.70	48012.58
745.88	47564.07
746.07	47652.14
746.26	47588.65
746.44	48043.30
746.63	47836.45
746.81	48108.83
747.00	47664.42
747.18	47873.32
747.37	47906.08
747.55	47613.23
747.74	48080.16
747.92	47422.76
748.11	47906.08
748.29	47639.85
748.48	47510.83
748.66	47371.57
748.85	47465.77
749.03	47396.14
749.22	47779.11
749.41	47359.28
749.59	47672.62
749.78	46890.29
749.96	47041.84
750.15	47084.85
750.33	46937.40
750.52	47248.69
750.70	47023.41
750.89	47142.19
751.07	46849.33
751.26	46841.14
751.44	47000.88
751.63	47013.17
751.81	46892.34
752.00	46601.53
752.18	47238.45
752.37	46863.67
752.55	46421.31
752.74	47103.28
752.92	46464.32
753.10	46882.10
753.29	46648.63
753.47	46642.49
753.66	46511.42
753.84	46978.36
754.03	46488.89
754.21	46394.68
754.40	46468.41
754.58	46421.31
754.77	46187.84
754.95	46361.92
755.14	46214.46
755.32	46103.87
755.51	45997.38
755.69	46269.76
755.88	46038.34
756.06	46325.05
756.24	45788.49
756.43	45978.95
756.61	46585.15
756.80	46114.11
756.98	46081.34
757.17	45995.33
757.35	45980.99
757.54	45815.11
757.72	46155.07
757.90	45802.82
758.09	45436.23
758.27	45729.09
758.46	45593.93
758.64	45544.78
758.83	46167.36
759.01	45835.59
759.19	45565.26
759.38	45950.27
759.56	45874.50
759.75	45768.01
759.93	45839.68
760.12	45466.95
760.30	45546.82
760.48	45571.40
760.67	45327.69
760.85	45454.67
761.04	45491.53
761.22	45432.14
761.40	45301.07
761.59	44914.00
761.77	45155.66
761.96	45598.02
762.14	45239.63
762.32	44932.43
762.51	44922.19
762.69	44856.66
762.88	45122.90
763.06	44989.78
763.24	44895.57
763.43	44911.95
763.61	45002.07
763.80	44508.50
763.98	44467.55
764.16	45016.40
764.35	44850.52
764.53	44326.24
764.72	44574.04
764.90	44445.02
765.08	44207.45
765.27	44967.25
765.45	44320.09
765.63	43914.59
765.82	44541.27
766.00	44121.44
766.18	44285.28
766.37	44569.94
766.55	44186.97
766.74	44027.23
766.92	43965.79
767.10	44311.90
767.29	44318.04
767.47	44008.80
767.65	43986.27
767.84	43312.49
768.02	44189.02
768.20	43631.97
768.39	44086.62
768.57	43752.80
768.75	43885.92
768.94	43666.79
769.12	43820.39
769.30	43363.69
769.49	43593.06
769.67	43187.56
769.85	42882.42
770.04	43515.24
770.22	42890.61
770.40	42933.62
770.59	42890.61
770.77	43375.98
770.95	43324.78
771.14	42601.85
771.32	42816.88
771.50	42108.29
771.69	42657.14
771.87	42784.12
772.05	42710.39
772.24	42849.65
772.42	42595.70
772.60	42265.98
772.78	42139.00
772.97	42446.20
773.15	42495.35
773.33	42456.44
773.52	42149.24
773.70	42118.53
773.88	42708.34
774.07	42431.86
774.25	42179.96
774.43	42620.28
774.61	42677.62
774.80	42868.08
774.98	41960.83
775.16	42820.98
775.34	42132.86
775.53	42075.52
775.71	42614.13
775.89	42427.77
776.08	42206.59
776.26	42395.00
776.44	42816.88
776.62	42515.83
776.81	42370.43
776.99	42788.21
777.17	42677.62
777.35	42505.59
777.54	42716.53
777.72	42311.03
777.90	42831.22
778.08	42913.14
778.27	42651.00
778.45	42765.68
778.63	42884.47
778.81	42241.40
779.00	43234.67
779.18	42876.27
779.36	43079.02
779.54	42669.43
779.73	42818.93
779.91	42919.28
780.09	43162.99
780.27	42986.86
780.46	43052.40
780.64	43027.82
780.82	43099.50
781.00	42646.90
781.19	43251.05
781.37	43265.39
781.55	43261.29
781.73	43365.74
781.91	43056.50
782.10	43115.89
782.28	43210.09
782.46	43177.33
782.64	43662.69
782.82	42739.06
783.01	43199.85
783.19	43232.62
783.37	43445.61
783.55	43132.27
783.74	43273.58
783.92	43009.39
784.10	43169.13
784.28	43406.70
784.46	43152.75
784.64	43175.28
784.83	43347.31
785.01	43599.21
785.19	43345.26
785.37	43429.23
785.55	43275.63
785.74	42724.72
785.92	42519.93
786.10	43070.83
786.28	43025.78
786.46	42853.75
786.64	42921.33
786.83	42689.91
787.01	43119.98
787.19	42896.75
787.37	42667.38
787.55	42454.39
787.74	42331.51
787.92	42931.57
788.10	42259.84
788.28	42433.91
788.46	42511.74
788.64	42173.82
788.82	42743.16
789.01	42235.26
789.19	42319.23
789.37	42429.82
789.55	42499.45
789.73	41680.26
789.91	41719.17
790.09	41856.39
790.28	42489.21
790.46	41555.33
790.64	41973.12
790.82	41833.86
791.00	41911.68
791.18	41317.77
791.36	41426.31
791.55	41569.67
791.73	41670.02
791.91	40719.76
792.09	41299.34
792.27	40768.91
792.45	40828.30
792.63	40422.81
792.81	40748.43
793.00	40750.48
793.18	40590.74
793.36	40533.40
793.54	40529.30
793.72	40215.96
793.90	40215.96
794.08	40271.26
794.26	40234.39
794.44	39968.16
794.62	39878.05
794.81	40297.88
794.99	40252.83
795.17	39689.63
795.35	39699.87
795.53	39859.62
795.71	40213.91
795.89	39198.12
796.07	39243.18
796.25	38981.04
796.43	39509.41
796.61	39077.29
796.80	38766.00
796.98	38890.93
797.16	38456.76
797.34	38432.18
797.52	38413.75
797.70	38911.41
797.88	38409.65
798.06	38495.67
798.24	38124.99
798.42	38448.57
798.60	37932.48
798.78	37916.09
798.96	38292.92
799.14	37782.98
799.32	38411.70
799.51	37711.30
799.69	37832.13
799.87	37985.72
800.05	37246.41
800.23	37563.84
800.41	37152.20
800.59	37443.01
800.77	36724.18
800.95	36992.46
801.13	36578.77
801.31	36632.02
801.49	36840.91
801.67	36402.64
801.85	36797.90
802.03	36533.71
802.21	36365.78
802.39	36091.35
802.57	36212.18
802.75	36269.53
802.93	35958.24
803.11	36001.24
803.29	35741.15
803.47	35821.02
803.65	35673.57
803.83	35522.02
804.01	35538.40
804.19	35284.45
804.37	35317.22
804.55	35595.74
804.73	35050.99
804.91	35208.68
805.09	35159.53
805.27	35073.51
805.45	34819.56
805.63	34913.77
805.81	34977.26
805.99	34809.32
806.17	34883.05
806.35	34727.41
806.53	34495.99
806.71	34444.79
806.89	34489.84
807.07	34143.74
807.25	34285.04
807.43	34190.84
807.61	34264.57
807.79	34158.07
807.97	33881.60
808.15	33594.88
808.33	33719.81
808.51	33773.05
808.69	33703.42
808.87	33394.18
809.05	33394.18
809.23	33228.29
809.41	33244.68
809.59	33277.44
809.77	33173.00
809.95	32855.56
810.13	33285.64
810.31	32951.82
810.49	32771.60
810.67	32851.47
810.84	33019.40
811.02	32945.67
811.20	32630.29
811.38	32820.75
811.56	32437.78
811.74	32187.92
811.92	32140.82
812.10	32429.59
812.28	32390.67
812.46	32189.97
812.64	31956.50
812.82	31829.53
813.00	31776.28
813.18	31852.06
813.36	31694.36
813.53	31544.86
813.71	31469.09
813.89	31725.08
814.07	31790.62
814.25	31815.19
814.43	31634.97
814.61	31432.22
814.79	31426.08
814.97	31346.21
815.15	31249.96
815.33	31176.23
815.50	30971.43
815.68	31282.72
815.86	31245.86
816.04	31045.16
816.22	31055.40
816.40	30918.18
816.58	30758.44
816.76	30692.91
816.94	30420.53
817.11	30520.88
817.29	30635.56
817.47	30434.86
817.65	30252.59
817.83	30580.27
818.01	30629.42
818.19	30242.35
818.37	30236.21
818.54	29929.02
818.72	29720.12
818.90	30078.52
819.08	29795.90
819.26	29988.41
819.44	29908.54
819.62	29822.52
819.80	29630.01
819.97	29789.75
820.15	29294.14
820.33	29613.63
820.51	29744.70
820.69	29206.08
820.87	29761.08
821.05	29759.03
821.22	29541.95
821.40	29539.90
821.58	29259.33
821.76	29142.60
821.94	28898.89
822.12	29236.80
822.29	29294.14
822.47	28929.61
822.65	28874.31
822.83	28704.33
823.01	29298.24
823.19	28796.49
823.36	28569.16
823.54	28669.51
823.72	28501.58
823.90	28663.37
824.08	28374.61
824.25	28653.13
824.43	28343.89
824.61	28419.66
824.79	28261.97
824.97	28227.15
825.15	28106.32
825.32	28444.24
825.50	28073.56
825.68	28042.84
825.86	28210.77
826.04	28137.04
826.21	27989.59
826.39	27698.78
826.57	27795.03
826.75	27649.63
826.93	27706.97
827.10	27709.02
827.28	27608.67
827.46	27881.05
827.64	27674.20
827.81	27276.90
827.99	27629.15
828.17	27868.76
828.35	27659.87
828.53	27481.69
828.70	27371.10
828.88	27205.22
829.06	27268.70
829.24	27412.06
829.41	27059.81
829.59	27733.59
829.77	27235.94
829.95	27086.43
830.12	27244.13
830.30	26773.10
830.48	27219.55
830.66	26812.01
830.84	27041.38
831.01	26736.23
831.19	26898.02
831.37	26902.12
831.55	26748.52
831.72	26377.84
831.90	26594.92
832.08	26533.48
832.25	26437.23
832.43	26482.28
832.61	26371.69
832.79	26058.35
832.96	26363.50
833.14	26400.37
833.32	26525.29
833.50	26351.21
833.67	26381.93
833.85	26310.25
834.03	26084.98
834.20	26357.36
834.38	26183.28
834.56	25998.96
834.74	26130.03
834.91	26093.17
835.09	25935.48
835.27	25482.88
835.44	25687.67
835.62	25603.71
835.80	25366.14
835.98	25919.09
836.15	25607.80
836.33	25663.10
836.51	25732.73
836.68	25460.35
836.86	25747.06
837.04	25548.41
837.21	25726.58
837.39	25382.52
837.57	25788.02
837.75	25325.18
837.92	25022.08
838.10	25562.75
838.28	25030.27
838.45	25429.63
838.63	25144.96
838.81	25316.99
838.98	25110.14
839.16	25083.52
839.34	25036.42
839.51	24956.55
839.69	25034.37
839.87	24692.36
840.04	24759.94
840.22	25183.87
840.40	24561.29
840.57	24391.31
840.75	24843.91
840.93	24551.05
841.10	24637.06
841.28	24823.43
841.46	24747.65
841.63	24688.26
841.81	24309.39
841.98	24409.74
842.16	24733.32
842.34	24594.06
842.51	24381.07
842.69	24503.95
842.87	24004.24
843.04	24471.18
843.22	24086.16
843.40	24006.29
843.57	24104.59
843.75	24176.27
843.92	24200.85
844.10	24168.08
844.28	24313.48
844.45	24166.03
844.63	24080.02
844.81	23817.88
844.98	23899.80
845.16	23985.81
845.33	24026.77
845.51	23948.95
845.69	23840.40
845.86	23510.68
846.04	23617.18
846.21	23682.71
846.39	23430.81
846.57	23285.40
846.74	23563.93
846.92	23482.01
847.09	23611.03
847.27	23303.84
847.45	23582.36
847.62	23385.76
847.80	23881.36
847.97	23402.14
848.15	23533.21
848.32	23383.71
848.50	23266.97
848.68	23383.71
848.85	23430.81
849.03	22845.09
849.20	23213.73
849.38	23266.97
849.56	23144.09
849.73	22949.54
849.91	22988.45
850.08	23236.25
850.26	22898.34
850.43	23013.02
850.61	23080.61
850.78	22820.52
850.96	22845.09
851.14	22748.84
851.31	22955.68
851.49	22922.91
851.66	22726.31
851.84	22886.05
852.01	22759.08
852.19	22906.53
852.36	22679.21
852.54	22451.88
852.71	22904.48
852.89	22621.86
853.07	22750.88
853.24	22617.77
853.42	22773.41
853.59	22355.63
853.77	22492.84
853.94	22654.63
854.12	22574.76
854.29	22111.92
854.47	22343.34
854.64	22253.23
854.82	22247.08
854.99	22279.85
855.17	22238.89
855.34	21823.16
855.52	22173.36
855.69	22187.69
855.87	22216.36
856.04	21866.16
856.22	21878.45
856.39	22011.57
856.57	22021.81
856.74	21864.11
856.92	21929.65
857.09	21632.69
857.27	21786.29
857.44	22042.29
857.62	21968.56
857.79	21698.23
857.97	21507.77
858.14	21575.35
858.32	21792.44
858.49	21509.82
858.67	21716.66
858.84	21618.36
859.02	21530.30
859.19	21466.81
859.37	21612.21
859.54	21386.94
859.72	21771.96
859.89	21499.58
860.06	21366.46
860.24	21362.36
860.41	21702.32
860.59	21231.29
860.76	21550.78
860.94	21214.91
861.11	21302.97
861.29	21223.10
861.46	21204.67
861.64	20782.79
861.81	21139.13
861.98	21051.07
862.16	21053.12
862.33	20940.48
862.51	20799.17
862.68	21049.02
862.86	20711.11
863.03	20874.95
863.21	20836.03
863.38	20805.31
863.55	20909.76
863.73	20553.41
863.90	20797.12
864.08	21001.92
864.25	20829.89
864.43	20780.74
864.60	20729.54
864.77	20299.47
864.95	20741.83
865.12	20534.98
865.30	20555.46
865.47	20086.48
865.64	20457.16
865.82	20418.25
865.99	20528.84
866.17	20422.34
866.34	20580.04
866.51	20037.33
866.69	20371.15
866.86	20442.82
867.04	20135.63
867.21	20223.69
867.38	20068.05
867.56	19990.22
867.73	19930.83
867.91	19922.64
868.08	20002.51
868.25	19818.19
868.43	19771.09
868.60	19885.78
868.78	19920.59
868.95	19973.84
869.12	19887.82
869.30	19658.45
869.47	19920.59
869.64	19652.31
869.82	19685.08
869.99	19853.01
870.16	19779.28
870.34	19709.65
870.51	19629.78
870.69	19320.54
870.86	19500.76
871.03	19601.11
871.21	19437.27
871.38	19738.32
871.55	19185.37
871.73	19427.03
871.90	19345.11
872.07	19152.60
872.25	18992.86
872.42	19093.21
872.59	19302.11
872.77	19252.95
872.94	19142.36
873.11	19044.06
873.29	19136.22
873.46	19052.25
873.63	19205.85
873.81	18992.86
873.98	18550.50
874.15	18798.31
874.33	18644.71
874.50	18552.55
874.67	18761.44
874.85	18769.63
875.02	18540.26
875.19	18390.76
875.37	18513.64
875.54	18632.42
875.71	18403.05
875.88	18308.84
876.06	18527.97
876.23	18401.00
876.40	18239.21
876.58	18183.91
876.75	18476.77
876.92	18104.04
877.10	18333.42
877.27	18020.08
877.44	18083.56
877.61	18058.99
877.79	17823.47
877.96	18208.49
878.13	17811.18
878.31	17901.29
878.48	17704.69
878.65	17934.06
878.82	17592.05
879.00	17753.84
879.17	17700.59
879.34	17815.28
879.51	17663.73
879.69	17647.35
879.86	17479.41
880.03	17690.35
880.21	17489.65
880.38	17583.86
880.55	17667.83
880.72	17497.84
880.90	17608.44
881.07	17547.00
881.24	17465.08
881.41	17389.30
881.59	17211.13
881.76	17356.54
881.93	17442.55
882.10	16953.09
882.28	17184.51
882.45	17452.79
882.62	17426.17
882.79	17465.08
882.96	17266.42
883.14	17123.07
883.31	17141.50
883.48	17428.21
883.65	16992.00
883.83	17133.31
884.00	16959.23
884.17	16998.14
884.34	17413.88
884.51	17041.15
884.69	17067.77
884.86	17032.96
885.03	17000.19
885.20	16813.82
885.38	16889.60
885.55	16809.73
885.72	16795.39
885.89	16938.75
886.06	16811.78
886.24	16678.66
886.41	16553.73
886.58	16826.11
886.75	16727.81
886.92	16805.63
887.10	16774.91
887.27	16660.23
887.44	16637.70
887.61	16934.65
887.78	16643.84
887.95	16568.07
888.13	16563.97
888.30	16537.35
888.47	16494.34
888.64	16307.98
888.81	16541.44
888.99	16518.92
889.16	16361.22
889.33	16336.65
889.50	16166.67
889.67	16334.60
889.84	16162.57
890.01	16144.14
890.19	16283.40
890.36	16230.15
890.53	15978.25
890.70	16195.34
890.87	16133.90
891.04	16148.23
891.22	16092.94
891.39	16168.71
891.56	15922.96
891.73	16027.40
891.90	15783.70
892.07	15898.38
892.24	15830.80
892.42	15781.65
892.59	15732.50
892.76	15908.62
892.93	15689.49
893.10	15843.09
893.27	15744.78
893.44	15707.92
893.61	15699.73
893.79	15933.20
893.96	15671.06
894.13	15824.65
894.30	15871.76
894.47	15945.48
894.64	15767.31
894.81	15560.47
894.98	15712.02
895.15	15748.88
895.33	15820.56
895.50	15726.35
895.67	15705.87
895.84	15785.74
896.01	15640.34
896.18	15793.94
896.35	15771.41
896.52	15544.08
896.69	15601.43
896.86	15597.33
897.04	15859.47
897.21	15437.59
897.38	15689.49
897.55	15474.45
897.72	15490.84
897.89	15470.36
898.06	15795.98
898.23	15531.80
898.40	15582.99
898.57	15521.56
898.74	15410.96
898.91	15664.91
899.08	15763.22
899.26	15527.70
899.43	15558.42
899.60	15656.72
899.77	15329.05
899.94	15415.06
900.11	15556.37
900.28	15552.27
900.45	15398.68
900.62	15249.18
900.79	15511.32
900.96	15507.22
901.13	15443.73
901.30	15226.65
901.47	15562.51
901.64	15527.70
901.81	15591.19
901.98	15290.13
902.15	15433.49
902.32	15492.88
902.49	15421.20
902.66	15415.06
902.83	15621.91
903.01	15306.52
903.18	15478.55
903.35	15445.78
903.52	15517.46
903.69	15560.47
903.86	15449.88
904.03	15507.22
904.20	15716.11
904.37	15728.40
904.54	15402.77
904.71	15324.95
904.88	15372.05
905.05	15367.96
905.22	15173.40
905.39	15496.98
905.56	15693.58
905.73	15482.64
905.90	15644.43
906.07	15470.36
906.24	15515.41
906.41	15464.21
906.58	15535.89
906.75	15531.80
906.92	15302.42
907.09	15476.50
907.26	15382.29
907.43	15075.10
907.60	15413.01
907.77	15605.52
907.93	15589.14
908.10	15142.68
908.27	15804.17
908.44	15163.16
908.61	15349.53
908.78	15120.15
908.95	15281.94
909.12	15503.12
909.29	15114.01
909.46	15183.64
909.63	15183.64
909.80	15431.44
909.97	15580.95
910.14	15324.95
910.31	15327.00
910.48	15300.37
910.65	15312.66
910.82	15189.78
910.99	15187.74
911.16	15052.57
911.33	15329.05
911.50	15177.50
911.66	15193.88
911.83	15036.19
912.00	15048.47
912.17	14843.68
912.34	15058.71
912.51	15181.59
912.68	14870.30
912.85	15042.33
913.02	15048.47
913.19	14690.08
913.36	14898.97
913.53	14993.18
913.70	14855.97
913.86	14984.99
914.03	15142.68
914.20	14823.20
914.37	14913.31
914.54	14700.32
914.71	14655.26
914.88	14774.05
915.05	14681.89
915.22	14487.33
915.39	14831.39
915.55	14528.29
915.72	14782.24
915.89	14573.35
916.06	14335.78
916.23	14389.03
916.40	14384.93
916.57	14444.32
916.74	14208.81
916.91	14169.90
917.07	14141.22
917.24	14169.90
917.41	14278.44
917.58	14200.62
917.75	14221.10
917.92	14161.70
918.09	14307.11
918.26	13958.96
918.42	14085.93
918.59	13977.39
918.76	13874.99
918.93	13823.79
919.10	13752.11
919.27	13690.67
919.44	13848.36
919.60	13766.45
919.77	13844.27
919.94	13664.05
920.11	13508.40
920.28	13760.30
920.45	13514.55
920.61	13258.55
920.78	13424.44
920.95	13342.52
921.12	13371.19
921.29	13338.42
921.46	13141.82
921.62	13080.38
921.79	13274.93
921.96	13209.40
922.13	13131.58
922.30	13031.23
922.47	13072.18
922.63	12969.79
922.80	13045.56
922.97	12834.62
923.14	12689.21
923.31	12889.92
923.47	12681.02
923.64	12998.46
923.81	12762.94
923.98	12691.26
924.15	12746.56
924.32	12568.38
924.48	12439.36
924.65	12689.21
924.82	12431.17
924.99	12365.64
925.15	12033.86
925.32	12224.33
925.49	12181.32
925.66	12123.98
925.83	12085.06
925.99	12224.33
926.16	12212.04
926.33	12035.91
926.50	11614.03
926.67	12175.17
926.83	11943.75
927.00	11599.70
927.17	11747.15
927.34	11767.63
927.50	11575.12
927.67	11642.70
927.84	11603.79
928.01	11573.07
928.17	11431.76
928.34	11360.08
928.51	11487.06
928.68	11339.60
928.84	11429.71
929.01	11206.48
929.18	11161.43
929.35	11095.89
929.51	11155.29
929.68	11034.46
929.85	11075.42
930.02	10968.92
930.18	10841.95
930.35	10934.11
930.52	10835.80
930.69	10803.04
930.85	10747.74
931.02	10841.95
931.19	10708.83
931.36	10637.15
931.52	10784.60
931.69	10553.18
931.86	10563.42
932.02	10536.80
932.19	10542.94
932.36	10448.74
932.53	10479.46
932.69	10162.02
932.86	10432.35
933.03	10166.12
933.19	10086.25
933.36	10176.36
933.53	10078.05
933.70	10092.39
933.86	9787.24
934.03	9658.22
934.20	9736.04
934.36	9856.87
934.53	9406.32
934.70	9471.86
934.86	9488.24
935.03	9572.21
935.20	9314.16
935.36	9334.64
935.53	9289.59
935.70	9228.15
935.86	9170.80
936.03	8830.84
936.20	9033.59
936.36	8826.75
936.53	8949.62
936.70	8662.91
936.86	8963.96
937.03	8707.96
937.20	8654.72
937.36	8734.59
937.53	8388.48
937.70	8150.92
937.86	8241.03
938.03	8124.29
938.20	8126.34
938.36	7925.64
938.53	7997.32
938.70	7860.10
938.86	7784.33
939.03	7608.20
939.20	7397.26
939.36	7536.52
939.53	7387.02
939.70	7681.93
939.86	7237.52
940.03	7247.76
940.19	6969.24
940.36	6981.53
940.53	6872.98
940.69	6946.71
940.86	6889.37
941.03	6676.38
941.19	6637.47
941.36	6580.12
941.52	6604.70
941.69	6584.22
941.86	6516.64
942.02	6571.93
942.19	6356.90
942.35	6451.10
942.52	6201.25
942.69	6178.72
942.85	6176.67
943.02	6080.42
943.18	6057.89
943.35	5978.02
943.52	6107.04
943.68	5883.81
943.85	5951.40
944.01	5687.21
944.18	5824.42
944.35	5791.66
944.51	5709.74
944.68	5703.59
944.84	5627.82
945.01	5552.04
945.17	5818.28
945.34	5711.78
945.51	5631.91
945.67	5638.06
945.84	5582.76
946.00	5545.90
946.17	5574.57
946.33	5447.60
946.50	5490.60
946.67	5441.45
946.83	5500.84
947.00	5474.22
947.16	5535.66
947.33	5363.63
947.49	5361.58
947.66	5461.93
947.82	5445.55
947.99	5582.76
948.16	5533.61
948.32	5488.56
948.49	5531.56
948.65	5543.85
948.82	5369.77
948.98	5375.92
949.15	5410.73
949.31	5529.52
949.48	5384.11
949.64	5521.32
949.81	5425.07
949.97	5425.07
950.14	5609.39
950.30	5285.81
950.47	5443.50
950.63	5466.03
950.80	5556.14
950.96	5439.40
951.13	5394.35
951.30	5533.61
951.46	5580.71
951.63	5656.49
951.79	5717.93
951.96	5724.07
952.12	5556.14
952.29	5640.11
952.45	5498.80
952.62	5529.52
952.78	5568.43
952.94	5537.71
953.11	5679.02
953.27	5496.75
953.44	5744.55
953.60	5578.67
953.77	5578.67
953.93	5521.32
954.10	5590.95
954.26	5472.17
954.43	5734.31
954.59	5736.36
954.76	5681.07
954.92	5543.85
955.09	5629.87
955.25	5529.52
955.42	5633.96
955.58	5617.58
955.75	5679.02
955.91	5552.04
956.07	5822.38
956.24	5611.43
956.40	5820.33
956.57	5550.00
956.73	5795.75
956.90	5697.45
957.06	5568.43
957.23	5687.21
957.39	5509.04
957.56	5701.54
957.72	5517.23
957.88	5576.62
958.05	5660.59
958.21	5668.78
958.38	5650.35
958.54	5719.98
958.71	5740.46
958.87	5547.95
959.03	5621.67
959.20	5697.45
959.36	5578.67
959.53	5552.04
959.69	5609.39
959.85	5738.41
960.02	5539.76
960.18	5504.94
960.35	5615.53
960.51	5785.51
960.68	5541.80
960.84	5539.76
961.00	5722.02
961.17	5394.35
961.33	5642.15
961.50	5607.34
961.66	5580.71
961.82	5636.01
961.99	5713.83
962.15	5787.56
962.31	5633.96
962.48	5545.90
962.64	5668.78
962.81	5572.52
962.97	5474.22
963.13	5558.19
963.30	5584.81
963.46	5582.76
963.62	5347.25
963.79	5564.33
963.95	5511.08
964.12	5627.82
964.28	5525.42
964.44	5449.64
964.61	5482.41
964.77	5541.80
964.93	5652.39
965.10	5474.22
965.26	5404.59
965.42	5482.41
965.59	5418.93
965.75	5541.80
965.92	5564.33
966.08	5463.98
966.24	5498.80
966.41	5375.92
966.57	5513.13
966.73	5574.57
966.90	5433.26
967.06	5437.36
967.22	5472.17
967.39	5445.55
967.55	5402.54
967.71	5396.40
967.88	5345.20
968.04	5377.97
968.20	5269.42
968.37	5300.14
968.53	5298.10
968.69	5361.58
968.85	5283.76
969.02	5302.19
969.18	5498.80
969.34	5320.62
969.51	5400.49
969.67	5435.31
969.83	5220.27
970.00	5314.48
970.16	5175.22
970.32	5345.20
970.48	5281.71
970.65	5179.31
970.81	5195.70
970.97	5214.13
971.14	5121.97
971.30	5339.05
971.46	5119.92
971.63	5076.91
971.79	5193.65
971.95	5189.55
972.11	5105.59
972.28	5218.22
972.44	5144.50
972.60	4984.76
972.76	5236.66
972.93	5074.87
973.09	5060.53
973.25	5005.24
973.42	5029.81
973.58	4999.09
973.74	5013.43
973.90	5128.11
974.07	5015.48
974.23	4876.21
974.39	5078.96
974.55	5027.76
974.72	5044.15
974.88	4757.43
975.04	4976.56
975.20	4949.94
975.37	4872.12
975.53	4978.61
975.69	4978.61
975.85	4874.17
976.01	4982.71
976.18	4923.32
976.34	4906.93
976.50	4892.60
976.66	4898.74
976.83	4921.27
976.99	4935.60
977.15	4771.77
977.31	4636.60
977.47	4865.97
977.64	4771.77
977.80	4775.86
977.96	4812.73
978.12	4642.75
978.29	4755.38
978.45	4673.46
978.61	4644.79
978.77	4741.05
978.93	4646.84
979.10	4630.46
979.26	4685.75
979.42	4579.26
979.58	4628.41
979.74	4616.12
979.91	4616.12
980.07	4536.25
980.23	4605.88
980.39	4474.81
980.55	4515.77
980.71	4458.43
980.88	4616.12
981.04	4394.94
981.20	4530.11
981.36	4468.67
981.52	4540.35
981.68	4376.51
981.85	4521.92
982.01	4419.52
982.17	4351.93
982.33	4442.04
982.49	4458.43
982.65	4440.00
982.82	4452.28
982.98	4364.22
983.14	4270.01
983.30	4390.84
983.46	4218.82
983.62	4202.43
983.79	4259.78
983.95	4333.50
984.11	4353.98
984.27	4376.51
984.43	4362.17
984.59	4200.38
984.75	4257.73
984.91	4235.20
985.08	4290.49
985.24	4161.47
985.40	4163.52
985.56	4310.97
985.72	4212.67
985.88	4325.31
986.04	4145.09
986.20	4116.42
986.37	4112.32
986.53	4030.40
986.69	4231.10
986.85	4120.51
987.01	4214.72
987.17	4155.33
987.33	4083.65
987.49	4155.33
987.65	4114.37
987.82	3971.01
987.98	4024.26
988.14	4026.31
988.30	4083.65
988.46	4038.59
988.62	3989.44
988.78	3903.43
988.94	4016.07
989.10	3794.89
989.26	3872.71
989.42	3977.16
989.59	3803.08
989.75	3930.05
989.91	3997.64
990.07	3729.35
990.23	3821.51
990.39	3885.00
990.55	3968.96
990.71	3885.00
990.87	3913.67
991.03	3977.16
991.19	3868.61
991.35	3807.17
991.51	3747.78
991.67	3860.42
991.83	3829.70
992.00	3790.79
992.16	3930.05
992.32	3776.45
992.48	3844.04
992.64	3665.86
992.80	3796.93
992.96	3829.70
993.12	3731.40
993.28	3753.93
993.44	3749.83
993.60	3764.17
993.76	3731.40
993.92	3594.19
994.08	3729.35
994.24	3590.09
994.40	3696.58
994.56	3760.07
994.72	3581.90
994.88	3577.80
995.04	3698.63
995.20	3631.05
995.36	3583.95
995.52	3530.70
995.68	3624.90
995.84	3641.29
996.00	3686.34
996.16	3489.74
996.32	3487.69
996.48	3571.66
996.64	3565.51
996.80	3475.40
996.96	3538.89
997.12	3620.81
997.28	3479.50
997.44	3424.20
997.60	3461.07
997.76	3440.59
997.92	3411.92
998.08	3465.16
998.24	3340.24
998.40	3499.98
998.56	3440.59
998.72	3338.19
998.88	3487.69
999.04	3276.75
999.20	3436.49
999.36	3370.96
999.52	3442.64
999.68	3440.59
999.84	3481.55
1000.00	3387.34
1000.16	3442.64
1000.32	3250.13
1000.48	3407.82
1000.64	3250.13
1000.80	3264.46
1000.95	3309.52
1001.11	3379.15
1001.27	3229.65
1001.43	3252.17
1001.59	3114.96
1001.75	3297.23
1001.91	3233.74
1002.07	3248.08
1002.23	3141.58
1002.39	3231.69
1002.55	3157.97
1002.71	3082.19
1002.87	3112.91
1003.03	3043.28
1003.19	3094.48
1003.34	3184.59
1003.50	3082.19
1003.66	3344.33
1003.82	3182.54
1003.98	3065.81
1004.14	3076.05
1004.30	3172.30
1004.46	3096.53
1004.62	3086.29
1004.78	3024.85
1004.94	3092.43
1005.09	3139.54
1005.25	3110.86
1005.41	3055.57
1005.57	2985.94
1005.73	3108.82
1005.89	2865.11
1006.05	2994.13
1006.21	3022.80
1006.37	2983.89
1006.52	2922.45
1006.68	3033.04
1006.84	3055.57
1007.00	2944.98
1007.16	2985.94
1007.32	2895.83
1007.48	2938.84
1007.64	2908.12
1007.79	2912.21
1007.95	2801.62
1008.11	3006.42
1008.27	2881.49
1008.43	2899.92
1008.59	2820.05
1008.75	2873.30
1008.91	2854.87
1009.06	2791.38
1009.22	2871.25
1009.38	2783.19
1009.54	2912.21
1009.70	2809.81
1009.86	2844.63
1010.01	2926.55
1010.17	2750.42
1010.33	2781.14
1010.49	2744.28
1010.65	2914.26
1010.81	2705.37
1010.96	2770.90
1011.12	2727.89
1011.28	2744.28
1011.44	2691.03
1011.60	2772.95
1011.76	2697.17
1011.91	2721.75
1012.07	2727.89
1012.23	2697.17
1012.39	2637.78
1012.55	2678.74
1012.71	2727.89
1012.86	2668.50
1013.02	2648.02
1013.18	2559.96
1013.34	2568.15
1013.50	2734.04
1013.65	2658.26
1013.81	2627.54
1013.97	2559.96
1014.13	2754.52
1014.29	2584.54
1014.44	2729.94
1014.60	2641.88
1014.76	2602.97
1014.92	2557.91
1015.07	2598.87
1015.23	2641.88
1015.39	2523.10
1015.55	2514.91
1015.71	2629.59
1015.86	2547.67
1016.02	2455.51
1016.18	2539.48
1016.34	2564.06
1016.49	2488.28
1016.65	2539.48
1016.81	2424.80
1016.97	2494.43
1017.12	2506.71
1017.28	2488.28
1017.44	2496.47
1017.60	2531.29
1017.75	2525.15
1017.91	2453.47
1018.07	2457.56
1018.23	2410.46
1018.38	2441.18
1018.54	2435.03
1018.70	2414.56
1018.86	2351.07
1019.01	2396.12
1019.17	2422.75
1019.33	2502.62
1019.49	2402.27
1019.64	2469.85
1019.80	2369.50
1019.96	2412.51
1020.12	2367.45
1020.27	2408.41
1020.43	2416.60
1020.59	2367.45
1020.74	2451.42
1020.90	2439.13
1021.06	2336.73
1021.22	2283.49
1021.37	2332.64
1021.53	2318.30
1021.69	2381.79
1021.84	2404.32
1022.00	2316.25
1022.16	2387.93
1022.31	2291.68
1022.47	2398.17
1022.63	2385.88
1022.79	2246.62
1022.94	2316.25
1023.10	2381.79
1023.26	2365.40
1023.41	2260.96
1023.57	2285.53
1023.73	2258.91
1023.88	2285.53
1024.04	2230.24
1024.20	2242.53
1024.35	2220.00
1024.51	2252.77
1024.67	2293.72
1024.82	2291.68
1024.98	2115.55
1025.14	2203.61
1025.29	2297.82
1025.45	2252.77
1025.61	2144.22
1025.76	2181.09
1025.92	2111.46
1026.08	2240.48
1026.23	2273.25
1026.39	2232.29
1026.55	2131.94
1026.70	2146.27
1026.86	2150.37
1027.02	2232.29
1027.17	2213.85
1027.33	2230.24
1027.48	2160.61
1027.64	2121.70
1027.80	2187.23
1027.95	2142.18
1028.11	2064.35
1028.27	2236.38
1028.42	2201.57
1028.58	2082.78
1028.73	2144.22
1028.89	2078.69
1029.05	2232.29
1029.20	2162.66
>>>>>End Processed Spectral Data<<<<<
