SpectraSuite Data File
++++++++++++++++++++++++++++++++++++
Date: Fri Jun 02 14:52:30 CEST 2017
User: INFO_000
Dark Spectrum Present: No
Reference Spectrum Present: No
Number of Sampled Component Spectra: 1
Spectrometers: USB4H00879
Integration Time (usec): 80000 (USB4H00879)
Spectra Averaged: 1 (USB4H00879)
Boxcar Smoothing: 0 (USB4H00879)
Correct for Electrical Dark: No (USB4H00879)
Strobe/Lamp Enabled: No (USB4H00879)
Correct for Detector Non-linearity: No (USB4H00879)
Correct for Stray Light: No (USB4H00879)
Number of Pixels in Processed Spectrum: 3648
>>>>>Begin Processed Spectral Data<<<<<
345.13	1310.70
345.34	1310.70
345.56	1310.70
345.78	1277.93
345.99	1302.51
346.21	1650.66
346.42	1679.33
346.64	1658.85
346.86	1798.12
347.07	1617.90
347.29	1718.25
347.50	1628.14
347.72	1722.34
347.94	1820.64
348.15	1581.03
348.37	1642.47
348.59	1697.77
348.80	1695.72
349.02	1845.22
349.23	1890.28
349.45	1808.36
349.67	1910.75
349.88	1767.40
350.10	1873.89
350.31	1847.27
350.53	1810.40
350.75	1945.57
350.96	1804.26
351.18	1884.13
351.39	1783.78
351.61	1814.50
351.82	1904.61
352.04	1945.57
352.26	1789.92
352.47	1884.13
352.69	1892.32
352.90	1753.06
353.12	1902.56
353.34	1877.99
353.55	1949.67
353.77	1865.70
353.98	1882.08
354.20	1859.56
354.41	1953.76
354.63	1941.47
354.85	2050.02
355.06	1918.95
355.28	1804.26
355.49	1873.89
355.71	1884.13
355.92	1761.25
356.14	1920.99
356.35	1853.41
356.57	1871.84
356.79	1843.17
357.00	1849.32
357.22	2009.06
357.43	1839.08
357.65	1988.58
357.86	1871.84
358.08	1898.47
358.29	1873.89
358.51	1978.34
358.72	1925.09
358.94	1937.38
359.16	1873.89
359.37	1923.04
359.59	1968.10
359.80	2011.11
360.02	1900.52
360.23	1918.95
360.45	2007.01
360.66	1886.18
360.88	1908.71
361.09	1871.84
361.31	1982.43
361.52	1968.10
361.74	2105.31
361.95	2146.27
362.17	1970.15
362.38	2076.64
362.60	2054.11
362.81	2000.87
363.03	2027.49
363.24	1978.34
363.46	2019.30
363.67	2019.30
363.89	1953.76
364.10	1943.52
364.32	1955.81
364.53	2066.40
364.75	1916.90
364.96	2084.83
365.18	2078.69
365.39	2109.41
365.61	2027.49
365.82	2107.36
366.04	2070.50
366.25	2017.25
366.47	2074.59
366.68	2099.17
366.90	1968.10
367.11	2041.82
367.33	2033.63
367.54	2045.92
367.76	1951.71
367.97	2162.66
368.19	2074.59
368.40	2056.16
368.62	1974.24
368.83	2037.73
369.05	2115.55
369.26	1990.63
369.48	1982.43
369.69	1931.23
369.91	2064.35
370.12	2058.21
370.33	2154.46
370.55	1968.10
370.76	2027.49
370.98	2035.68
371.19	2103.26
371.41	1871.84
371.62	2035.68
371.84	1994.72
372.05	2228.19
372.27	2000.87
372.48	2121.70
372.69	2107.36
372.91	2152.42
373.12	2121.70
373.34	2074.59
373.55	2121.70
373.77	2197.47
373.98	2185.18
374.20	2152.42
374.41	2267.10
374.62	2174.94
374.84	2152.42
375.05	2154.46
375.27	2250.72
375.48	2115.55
375.70	2193.37
375.91	2181.09
376.12	2295.77
376.34	2205.66
376.55	2197.47
376.77	2195.42
376.98	2070.50
377.19	2121.70
377.41	2150.37
377.62	2269.15
377.84	2293.72
378.05	2361.31
378.27	2164.70
378.48	2303.96
378.69	2377.69
378.91	2324.44
379.12	2183.13
379.34	2185.18
379.55	2291.68
379.76	2297.82
379.98	2283.49
380.19	2224.09
380.41	2156.51
380.62	2275.29
380.83	2250.72
381.05	2246.62
381.26	2375.64
381.47	2207.71
381.69	2318.30
381.90	2428.89
382.12	2226.14
382.33	2314.20
382.54	2299.87
382.76	2289.63
382.97	2299.87
383.19	2244.57
383.40	2314.20
383.61	2242.53
383.83	2211.81
384.04	2260.96
384.25	2297.82
384.47	2349.02
384.68	2404.32
384.89	2211.81
385.11	2289.63
385.32	2275.29
385.54	2279.39
385.75	2381.79
385.96	2351.07
386.18	2422.75
386.39	2396.12
386.60	2381.79
386.82	2330.59
387.03	2346.97
387.24	2435.03
387.46	2441.18
387.67	2441.18
387.88	2494.43
388.10	2447.32
388.31	2426.84
388.52	2478.04
388.74	2435.03
388.95	2328.54
389.16	2496.47
389.38	2512.86
389.59	2531.29
389.80	2527.19
390.02	2486.23
390.23	2686.94
390.44	2535.39
390.66	2551.77
390.87	2596.82
391.08	2564.06
391.30	2592.73
391.51	2666.46
391.72	2613.21
391.94	2658.26
392.15	2703.32
392.36	2631.64
392.58	2500.57
392.79	2660.31
393.00	2658.26
393.22	2723.80
393.43	2822.10
393.64	2754.52
393.85	2885.59
394.07	2688.98
394.28	2678.74
394.49	2697.17
394.71	2678.74
394.92	2873.30
395.13	2654.17
395.35	2746.33
395.56	2658.26
395.77	2850.77
395.98	2869.20
396.20	2813.91
396.41	2869.20
396.62	2820.05
396.84	2832.34
397.05	2850.77
397.26	2922.45
397.47	2938.84
397.69	2832.34
397.90	2971.60
398.11	2977.75
398.32	2901.97
398.54	2887.64
398.75	2924.50
398.96	2838.48
399.18	2985.94
399.39	2944.98
399.60	2951.12
399.81	2951.12
400.03	2910.16
400.24	3178.45
400.45	2912.21
400.66	3080.14
400.88	3033.04
401.09	3174.35
401.30	3149.78
401.51	3227.60
401.73	3196.88
401.94	3047.38
402.15	3125.20
402.36	3076.05
402.58	3141.58
402.79	3200.98
403.00	3182.54
403.21	3215.31
403.43	3231.69
403.64	3272.65
403.85	3041.23
404.06	3391.44
404.27	3205.07
404.49	3280.85
404.70	3096.53
404.91	3198.93
405.12	3305.42
405.34	3217.36
405.55	3491.79
405.76	3145.68
405.97	3192.78
406.19	3350.48
406.40	3239.89
406.61	3301.33
406.82	3325.90
407.03	3350.48
407.25	3264.46
407.46	3420.11
407.67	3348.43
407.88	3516.36
408.09	3356.62
408.31	3352.52
408.52	3448.78
408.73	3280.85
408.94	3393.48
409.15	3446.73
409.37	3497.93
409.58	3516.36
409.79	3487.69
410.00	3600.33
410.21	3438.54
410.43	3446.73
410.64	3401.68
410.85	3526.60
411.06	3512.27
411.27	3547.08
411.48	3641.29
411.70	3518.41
411.91	3436.49
412.12	3706.82
412.33	3504.07
412.54	3545.03
412.76	3631.05
412.97	3665.86
413.18	3559.37
413.39	3547.08
413.60	3723.21
413.81	3592.14
414.03	3538.89
414.24	3626.95
414.45	3770.31
414.66	3571.66
414.87	3686.34
415.08	3665.86
415.30	3600.33
415.51	3686.34
415.72	3735.50
415.93	3700.68
416.14	3819.46
416.35	3786.69
416.56	3774.41
416.78	3805.13
416.99	3839.94
417.20	3798.98
417.41	3848.13
417.62	3704.78
417.83	3936.20
418.04	3878.85
418.26	3858.37
418.47	3862.47
418.68	3848.13
418.89	3874.76
419.10	3958.72
419.31	3930.05
419.52	3973.06
419.73	3991.49
419.95	3928.00
420.16	3821.51
420.37	4001.73
420.58	4014.02
420.79	3788.74
421.00	3999.68
421.21	4065.22
421.42	3997.64
421.63	4026.31
421.85	4102.08
422.06	4159.42
422.27	4034.50
422.48	4214.72
422.69	4149.18
422.90	4200.38
423.11	4247.49
423.32	4126.66
423.53	4296.64
423.75	4272.06
423.96	4358.08
424.17	4167.62
424.38	4497.34
424.59	4345.79
424.80	4540.35
425.01	4390.84
425.22	4313.02
425.43	4415.42
425.64	4646.84
425.85	4521.92
426.06	4526.01
426.28	4458.43
426.49	4423.61
426.70	4396.99
426.91	4452.28
427.12	4599.74
427.33	4523.96
427.54	4605.88
427.75	4511.68
427.96	4605.88
428.17	4698.04
428.38	4730.81
428.59	4829.11
428.80	4689.85
429.01	4794.29
429.23	4655.03
429.44	4779.96
429.65	4900.79
429.86	4999.09
430.07	4773.82
430.28	4720.57
430.49	4956.08
430.70	5068.72
430.91	5083.06
431.12	4954.04
431.33	5115.83
431.54	5236.66
431.75	5091.25
431.96	5138.35
432.17	5052.34
432.38	5216.18
432.59	5390.25
432.80	5230.51
433.01	5294.00
433.22	5189.55
433.43	5250.99
433.64	5220.27
433.85	5459.88
434.06	5267.38
434.27	5257.14
434.49	5414.83
434.70	5404.59
434.91	5328.81
435.12	5375.92
435.33	5521.32
435.54	5414.83
435.75	5253.04
435.96	5373.87
436.17	5345.20
436.38	5554.09
436.59	5531.56
436.80	5490.60
437.01	5656.49
437.22	5713.83
437.43	5752.74
437.64	5451.69
437.85	5812.14
438.06	5785.51
438.27	5568.43
438.48	5676.97
438.69	5834.66
438.90	5740.46
439.11	5765.03
439.32	5832.62
439.53	5871.53
439.74	5973.92
439.95	5861.29
440.16	5769.13
440.37	5801.90
440.57	5904.29
440.78	6016.93
440.99	6006.69
441.20	6033.32
441.41	5728.17
441.62	6023.08
441.83	5795.75
442.04	6156.19
442.25	6252.45
442.46	5965.73
442.67	6133.67
442.88	6485.92
443.09	5961.64
443.30	6072.23
443.51	6236.06
443.72	6375.33
443.93	6043.56
444.14	6471.58
444.35	6141.86
444.56	6367.13
444.77	6258.59
444.98	6336.42
445.19	6358.94
445.40	6344.61
445.61	6367.13
445.81	6606.75
446.02	6530.97
446.23	6406.05
446.44	6254.50
446.65	6475.68
446.86	6557.60
447.07	6596.51
447.28	6752.15
447.49	6713.24
447.70	6524.83
447.91	6750.10
448.12	6647.71
448.33	6686.62
448.54	6645.66
448.74	6752.15
448.95	6926.23
449.16	6688.67
449.37	6985.62
449.58	6727.58
449.79	7065.49
450.00	6875.03
450.21	7004.05
450.42	7145.36
450.63	7196.56
450.84	7088.02
451.05	7049.11
451.25	7028.63
451.46	6905.75
451.67	7327.63
451.88	7311.25
452.09	7274.38
452.30	7165.84
452.51	7356.30
452.72	7260.05
452.93	7614.35
453.13	7167.89
453.34	7069.59
453.55	7325.58
453.76	7327.63
453.97	7636.88
454.18	7532.43
454.39	7546.76
454.60	7505.81
454.81	7491.47
455.01	7741.32
455.22	7274.38
455.43	7573.39
455.64	7837.58
455.85	7911.30
456.06	7993.22
456.27	7946.12
456.48	7804.81
456.68	7978.89
456.89	7890.82
457.10	7884.68
457.31	7739.27
457.52	7841.67
457.73	8089.48
457.94	8118.15
458.14	7995.27
458.35	8361.86
458.56	8238.98
458.77	8155.01
458.98	8314.75
459.19	8306.56
459.39	8210.31
459.60	8423.30
459.81	8394.62
460.02	8544.13
460.23	8513.41
460.44	8669.05
460.65	8632.19
460.85	8683.39
461.06	8580.99
461.27	8607.61
461.48	8882.04
461.69	9037.69
461.89	8572.80
462.10	8750.97
462.31	8642.43
462.52	8830.84
462.73	8863.61
462.94	9228.15
463.14	8990.58
463.35	9023.35
463.56	9619.31
463.77	9154.42
463.98	9205.62
464.18	9283.44
464.39	9152.37
464.60	9604.97
464.81	9402.22
465.02	9348.98
465.23	9770.86
465.43	9555.82
465.64	9592.69
465.85	9531.25
466.06	9338.74
466.27	9932.65
466.47	9820.01
466.68	9740.14
466.89	9828.20
467.10	10100.58
467.30	9703.28
467.51	10131.30
467.72	10323.81
467.93	9926.50
468.14	9944.94
468.34	10493.79
468.55	10286.95
468.76	10426.21
468.97	10321.76
469.17	10526.56
469.38	10694.49
469.59	10729.31
469.80	10446.69
470.01	10809.18
470.21	10610.53
470.42	10936.15
470.63	11003.74
470.84	10841.95
471.04	10833.75
471.25	11030.36
471.46	11102.04
471.67	11257.68
471.87	11231.06
472.08	11288.40
472.29	11511.63
472.50	11243.35
472.70	11560.78
472.91	11587.41
473.12	11798.35
473.33	11663.18
473.53	12060.49
473.74	11538.26
473.95	11956.04
474.16	12066.63
474.36	12259.14
474.57	12253.00
474.78	12226.37
474.99	12171.08
475.19	12320.58
475.40	12418.88
475.61	12676.93
475.81	12687.17
476.02	12939.07
476.23	12672.83
476.44	12945.21
476.64	13002.55
476.85	13289.27
477.06	13000.51
477.27	13461.30
477.47	13291.32
477.68	13330.23
477.89	13604.66
478.09	13502.26
478.30	13592.37
478.51	13772.59
478.71	13897.52
478.92	13694.77
479.13	13940.52
479.34	14069.55
479.54	14151.46
479.75	14112.55
479.96	14470.95
480.16	14409.51
480.37	14348.07
480.58	14851.87
480.78	14819.10
480.99	14606.11
481.20	15003.42
481.41	15066.91
481.61	15138.58
481.82	15507.22
482.03	15230.74
482.23	15017.75
482.44	15419.16
482.65	15650.58
482.85	15738.64
483.06	15656.72
483.27	15767.31
483.47	16017.16
483.68	15740.69
483.89	16152.33
484.09	16146.19
484.30	16254.73
484.51	16359.17
484.71	16566.02
484.92	16391.94
485.13	16699.14
485.33	16889.60
485.54	16748.29
485.75	17035.00
485.95	17252.09
486.16	17174.27
486.37	17383.16
486.57	17135.35
486.78	17266.42
486.98	17354.49
487.19	17487.61
487.40	17452.79
487.60	17813.23
487.81	17700.59
488.02	17680.11
488.22	17899.25
488.43	18005.74
488.64	18058.99
488.84	18335.46
489.05	18427.62
489.25	18325.22
489.46	18519.78
489.67	18452.20
489.87	18841.31
490.08	18798.31
490.29	18671.33
490.49	19392.22
490.70	19295.96
490.90	19011.29
491.11	19232.47
491.32	19328.73
491.52	19158.75
491.73	19695.32
491.94	19662.55
492.14	19742.42
492.35	19992.27
492.55	20035.28
492.76	19996.37
492.97	20354.76
493.17	20094.67
493.38	20278.99
493.58	20612.81
493.79	20676.29
494.00	20428.49
494.20	20784.83
494.41	20770.50
494.61	20936.38
494.82	20811.46
495.02	20967.10
495.23	21180.09
495.44	21216.96
495.64	21343.93
495.85	21573.30
496.05	21352.12
496.26	21593.78
496.47	22032.05
496.67	21616.31
496.88	22271.66
497.08	21812.92
497.29	22279.85
497.49	21763.76
497.70	22087.34
497.91	22283.95
498.11	22322.86
498.32	22671.01
498.52	22404.78
498.73	22601.38
498.93	22701.73
499.14	22881.95
499.34	22800.04
499.55	22920.87
499.76	23105.18
499.96	23033.50
500.17	23400.09
500.37	23010.98
500.58	23096.99
500.78	23412.38
500.99	23230.11
501.19	23600.79
501.40	23404.19
501.60	23547.54
501.81	23449.24
502.02	23817.88
502.22	23844.50
502.43	24229.52
502.63	23907.99
502.84	24385.16
503.04	24063.63
503.25	24123.02
503.45	24227.47
503.66	24598.15
503.86	24376.97
504.07	24626.82
504.27	24419.98
504.48	24923.78
504.68	24491.66
504.89	25028.23
505.09	24802.95
505.30	25183.87
505.50	25161.34
505.71	25269.89
505.91	25198.21
506.12	25247.36
506.32	25339.52
506.53	25374.33
506.73	25728.63
506.94	25673.34
507.14	25732.73
507.35	25499.26
507.55	25663.10
507.76	25749.11
507.96	25900.66
508.17	25943.67
508.37	25837.17
508.58	26078.83
508.78	25869.94
508.99	26357.36
509.19	26232.43
509.40	26277.49
509.60	26242.67
509.81	26478.19
510.01	26308.21
510.22	26281.58
510.42	26504.81
510.63	26717.80
510.83	26744.42
511.04	26582.63
511.24	26898.02
511.44	27137.63
511.65	27035.24
511.85	26758.76
512.06	27045.48
512.26	26850.92
512.47	27213.41
512.67	27301.47
512.88	27115.11
513.08	27102.82
513.29	27340.38
513.49	27401.82
513.69	27225.70
513.90	27504.22
514.10	27293.28
514.31	27276.90
514.51	27831.90
514.72	27590.24
514.92	27674.20
515.13	27866.71
515.33	27758.17
515.53	27848.28
515.74	27889.24
515.94	28083.80
516.15	28089.94
516.35	27864.66
516.56	28333.65
516.76	28276.30
516.96	28292.69
517.17	28595.79
517.37	28264.02
517.58	28206.67
517.78	28358.22
517.99	28415.57
518.19	28745.29
518.39	28761.67
518.60	28763.72
518.80	28651.08
519.01	28606.03
519.21	28825.16
519.41	28853.83
519.62	28862.02
519.82	29208.13
520.03	29048.39
520.23	28945.99
520.43	29163.08
520.64	29367.87
520.84	29507.13
521.05	29529.66
521.25	29791.80
521.45	29615.68
521.66	29488.70
521.86	29650.49
522.07	29517.37
522.27	29632.06
522.47	29640.25
522.68	29808.19
522.88	29826.62
523.08	30174.77
523.29	30268.98
523.49	30215.73
523.70	30209.59
523.90	30438.96
524.10	30268.98
524.31	30809.64
524.51	30445.10
524.71	30766.63
524.92	30604.84
525.12	31161.89
525.33	30752.30
525.53	31125.03
525.73	31168.04
525.94	30834.22
526.14	30946.86
526.34	31061.54
526.55	31276.58
526.75	31266.34
526.95	31643.17
527.16	31041.06
527.36	31571.49
527.56	31516.19
527.77	31821.34
527.97	31819.29
528.17	31467.04
528.38	32206.36
528.58	31925.78
528.78	32009.75
528.99	32065.05
529.19	32263.70
529.39	31985.18
529.60	32163.35
529.80	32310.80
530.00	32566.80
530.21	32458.26
530.41	32871.95
530.61	33013.26
530.82	32605.71
531.02	32605.71
531.22	32706.06
531.43	33082.89
531.63	33115.65
531.83	33293.83
532.04	33553.92
532.24	33256.96
532.44	33852.92
532.64	33834.49
532.85	33961.47
533.05	33558.02
533.25	33867.26
533.46	33639.93
533.66	34043.38
533.86	33940.99
534.07	34446.83
534.27	34219.51
534.47	34592.24
534.67	34315.76
534.88	34291.19
535.08	34575.86
535.28	34792.94
535.49	34674.16
535.69	34754.03
535.89	34895.34
536.09	35126.76
536.30	35102.18
536.50	35337.70
536.70	35425.76
536.91	35104.23
537.11	35274.21
537.31	35440.10
537.51	35108.33
537.72	35532.26
537.92	35771.87
538.12	36142.55
538.32	35939.80
538.53	35755.49
538.73	35575.27
538.93	35616.22
539.13	35814.88
539.34	35986.91
539.54	36077.02
539.74	36281.81
539.94	36429.27
540.15	36077.02
540.35	36335.06
540.55	36517.33
540.75	36435.41
540.96	36564.43
541.16	36533.71
541.36	36754.90
541.56	36552.15
541.77	37105.10
541.97	37074.38
542.17	36959.69
542.37	36904.40
542.58	37025.23
542.78	37172.68
542.98	37137.87
543.18	37432.77
543.38	37864.89
543.59	37744.06
543.79	37279.18
543.99	37721.54
544.19	37885.37
544.40	37971.39
544.60	38186.43
544.80	37811.65
545.00	37768.64
545.20	38571.44
545.41	37602.75
545.61	37791.17
545.81	38538.68
546.01	38190.52
546.21	38090.17
546.42	38352.31
546.62	38362.55
546.82	38278.58
547.02	38467.00
547.22	38401.46
547.43	38843.82
547.63	38798.77
547.83	38624.69
548.03	38360.50
548.23	38962.61
548.44	39058.86
548.64	38876.59
548.84	39245.23
549.04	38913.45
549.24	39212.46
549.45	39394.73
549.65	38907.31
549.85	39392.68
550.05	39482.79
550.25	39378.34
550.45	39878.05
550.66	39413.16
550.86	39273.90
551.06	39794.08
551.26	39976.35
551.46	39941.53
551.66	39792.03
551.87	39796.13
552.07	39685.54
552.27	39902.62
552.47	40146.33
552.67	40170.91
552.87	40334.74
553.07	40185.24
553.28	40240.54
553.48	40273.31
553.68	39728.55
553.88	40349.08
554.08	40555.93
554.28	40582.55
554.48	40592.79
554.69	40832.40
554.89	40795.54
555.09	40713.62
555.29	40783.25
555.49	40836.50
555.69	40889.74
555.89	40627.60
556.10	40871.31
556.30	40744.34
556.50	41045.39
556.70	40738.19
556.90	40881.55
557.10	41432.46
557.30	41106.83
557.50	41493.89
557.70	41512.33
557.91	41338.25
558.11	41049.49
558.31	41725.32
558.51	41469.32
558.71	41637.25
558.91	41897.34
559.11	41887.10
559.31	41874.82
559.51	41989.50
559.72	41614.72
559.92	41919.87
560.12	41596.29
560.32	42108.29
560.52	41710.98
560.72	41932.16
560.92	41844.10
561.12	42069.37
561.32	42452.34
561.52	41964.93
561.72	42481.02
561.93	42337.66
562.13	42384.76
562.33	41862.53
562.53	42769.78
562.73	42130.81
562.93	42544.50
563.13	42646.90
563.33	42546.55
563.53	42880.37
563.73	42188.16
563.93	42911.09
564.13	43486.57
564.33	42755.44
564.53	42780.02
564.74	43011.44
564.94	42857.84
565.14	43144.56
565.34	42810.74
565.54	42990.96
565.74	43271.53
565.94	43435.37
566.14	43054.45
566.34	43408.75
566.54	43318.64
566.74	43064.69
566.94	43349.35
567.14	44025.18
567.34	43048.30
567.54	43808.10
567.74	43406.70
567.94	43255.15
568.14	43939.17
568.34	43959.65
568.54	43992.42
568.74	44051.81
568.94	43910.50
569.14	44141.92
569.34	43519.34
569.54	44234.08
569.75	43920.74
569.95	43996.51
570.15	44406.11
570.35	44266.84
570.55	44250.46
570.75	44057.95
570.95	44404.06
571.15	44586.33
571.35	44186.97
571.55	44567.90
571.75	44440.92
571.95	45049.17
572.15	44518.74
572.35	44819.80
572.55	44655.96
572.75	44680.53
572.95	44768.60
573.15	45065.55
573.35	45118.80
573.55	44881.24
573.75	45176.14
573.95	45012.31
574.15	45198.67
574.35	45491.53
574.55	45231.44
574.75	44965.20
574.95	45585.74
575.15	45219.15
575.34	45204.81
575.54	45778.25
575.74	45937.99
575.94	45708.61
576.14	45845.83
576.34	46212.41
576.54	46091.58
576.74	46077.25
576.94	46224.70
577.14	46667.06
577.34	46642.49
577.54	46009.67
577.74	46550.33
577.94	46529.85
578.14	46449.98
578.34	46638.39
578.54	45659.46
578.74	46028.10
578.94	46634.30
579.14	46441.79
579.34	46779.70
579.54	47144.24
579.74	47465.77
579.94	47152.43
580.13	46986.55
580.33	47162.67
580.53	46886.20
580.73	47144.24
580.93	47181.10
581.13	47195.44
581.33	47666.47
581.53	47666.47
581.73	47537.45
581.93	47727.91
582.13	47621.42
582.33	47789.35
582.53	47717.67
582.73	48063.78
582.92	48104.74
583.12	48069.92
583.32	48133.41
583.52	47785.25
583.72	48360.73
583.92	48108.83
584.12	48200.99
584.32	48788.76
584.52	48153.89
584.72	48346.40
584.92	48610.59
585.11	48606.49
585.31	48573.72
585.51	48776.47
585.71	48270.62
585.91	49124.63
586.11	48338.21
586.31	48413.98
586.51	48864.53
586.71	48940.31
586.91	49175.83
587.10	49120.53
587.30	49186.07
587.50	49206.55
587.70	49722.63
587.90	49110.29
588.10	49483.02
588.30	49499.40
588.50	49464.59
588.69	49704.20
588.89	49644.81
589.09	49650.95
589.29	49661.19
589.49	50199.81
589.69	49308.94
589.89	49984.77
590.08	49650.95
590.28	49868.04
590.48	49708.30
590.68	49812.74
590.88	49933.57
591.08	50111.75
591.28	49700.11
591.47	50240.77
591.67	50416.89
591.87	50015.49
592.07	50070.79
592.27	50627.84
592.47	50081.03
592.67	49984.77
592.86	50275.58
593.06	50539.77
593.26	50529.53
593.46	50464.00
593.66	50838.78
593.86	50906.36
594.05	50631.93
594.25	50971.89
594.45	50791.67
594.65	50826.49
594.85	50709.75
595.05	51188.98
595.24	51457.26
595.44	50836.73
595.64	51254.51
595.84	51072.24
596.04	50961.65
596.23	51352.82
596.43	51442.93
596.63	51451.12
596.83	51268.85
597.03	51604.72
597.22	51442.93
597.42	51617.00
597.62	51606.76
597.82	51873.00
598.02	51821.80
598.21	52016.36
598.41	51397.87
598.61	51569.90
598.81	51684.59
599.01	51967.21
599.20	51725.55
599.40	51944.68
599.60	52370.66
599.80	51938.54
600.00	52384.99
600.19	52489.44
600.39	52194.53
600.59	52002.02
600.79	52522.21
600.98	52229.35
601.18	52647.13
601.38	52174.05
601.58	52810.97
601.78	52630.75
601.97	52450.53
602.17	52968.66
602.37	52569.31
602.57	52591.84
602.76	53249.24
602.96	52862.17
603.16	52913.37
603.36	52384.99
603.55	53048.53
603.75	52860.12
603.95	53081.30
604.15	53368.02
604.34	53142.74
604.54	53693.64
604.74	53626.06
604.94	53515.47
605.13	53515.47
605.33	53185.75
605.53	53159.12
605.73	53214.42
605.92	52976.86
606.12	53673.16
606.32	53894.35
606.52	53703.88
606.71	53552.33
606.91	53552.33
607.11	53486.80
607.30	53226.71
607.50	53671.12
607.70	53515.47
607.90	53703.88
608.09	53812.43
608.29	53560.53
608.49	54107.33
608.68	53816.52
608.88	54082.76
609.08	53894.35
609.28	53867.72
609.47	53970.12
609.67	54402.24
609.87	54543.55
610.06	54224.07
610.26	53812.43
610.46	54252.74
610.66	54244.55
610.85	54564.03
611.05	53875.91
611.25	54230.21
611.44	53837.00
611.64	54320.32
611.84	53861.58
612.03	54129.86
612.23	54475.97
612.43	54316.23
612.62	54025.42
612.82	54289.60
613.02	54244.55
613.21	54326.47
613.41	53744.84
613.61	54475.97
613.80	53617.87
614.00	54021.32
614.20	54435.01
614.39	54574.27
614.59	54848.70
614.79	54457.54
614.98	53834.95
615.18	54099.14
615.38	54502.59
615.57	54346.95
615.77	54797.50
615.97	54375.62
616.16	54000.84
616.36	54004.94
616.56	54252.74
616.75	54287.56
616.95	54185.16
617.15	54195.40
617.34	54422.72
617.54	54412.48
617.74	54492.35
617.93	54244.55
618.13	54222.02
618.32	53867.72
618.52	54060.23
618.72	53982.41
618.91	54348.99
619.11	54041.80
619.31	54228.16
619.50	53925.07
619.70	54174.92
619.90	54310.08
620.09	54015.18
620.29	54138.05
620.48	53920.97
620.68	54770.88
620.88	53974.22
621.07	54033.61
621.27	54031.56
621.46	53880.01
621.66	54072.52
621.86	53834.95
622.05	53712.08
622.25	54289.60
622.44	53851.34
622.64	54133.96
622.84	54074.57
623.03	53855.43
623.23	53734.60
623.42	53923.02
623.62	53908.68
623.82	54367.43
624.01	53662.93
624.21	54181.06
624.40	53896.39
624.60	54107.33
624.80	53949.64
624.99	53970.12
625.19	53550.29
625.38	53988.55
625.58	53812.43
625.77	53818.57
625.97	53875.91
626.17	53646.54
626.36	54099.14
626.56	53988.55
626.75	53468.37
626.95	54146.25
627.14	53441.74
627.34	54158.53
627.54	53441.74
627.73	53781.71
627.93	53886.15
628.12	53540.05
628.32	53626.06
628.51	53753.04
628.71	53533.90
628.90	53847.24
629.10	53587.15
629.30	53634.25
629.49	53873.87
629.69	53484.75
629.88	53587.15
630.08	54068.42
630.27	53869.77
630.47	53687.50
630.66	53499.09
630.86	53912.78
631.05	53384.40
631.25	53990.60
631.44	53488.85
631.64	53458.13
631.84	54117.57
632.03	54310.08
632.23	53531.86
632.42	53873.87
632.62	53884.11
632.81	53535.95
633.01	53570.77
633.20	54021.32
633.40	53863.63
633.59	53902.54
633.79	53591.25
633.98	53564.62
634.18	53789.90
634.37	53585.10
634.57	53765.32
634.76	53998.79
634.96	53990.60
635.15	54156.49
635.35	53302.48
635.54	54138.05
635.74	54035.66
635.93	53974.22
636.13	54031.56
636.32	54287.56
636.52	53419.22
636.71	54080.71
636.91	54056.14
637.10	54127.81
637.30	53705.93
637.49	53843.15
637.69	53714.12
637.88	54285.51
638.08	53601.49
638.27	54383.81
638.46	53837.00
638.66	53832.91
638.85	53910.73
639.05	53673.16
639.24	54133.96
639.44	53638.35
639.63	53693.64
639.83	53804.24
640.02	53867.72
640.22	54158.53
640.41	54283.46
640.61	53757.13
640.80	54133.96
640.99	53996.74
641.19	54582.46
641.38	54084.81
641.58	53869.77
641.77	53933.26
641.97	53994.70
642.16	54207.68
642.36	54101.19
642.55	54322.37
642.74	53908.68
642.94	54750.40
643.13	53730.51
643.33	54658.24
643.52	54324.42
643.72	54842.56
643.91	54174.92
644.10	54375.62
644.30	54414.53
644.49	53961.93
644.69	54250.69
644.88	54219.97
645.08	54019.27
645.27	54000.84
645.46	54080.71
645.66	54703.29
645.85	54312.13
646.05	54811.84
646.24	54242.50
646.43	54252.74
646.63	54846.65
646.82	54664.38
647.02	54631.61
647.21	55010.49
647.40	54844.60
647.60	54785.21
647.79	54310.08
647.99	54484.16
648.18	54473.92
648.37	55043.26
648.57	54869.18
648.76	54617.28
648.96	54695.10
649.15	54869.18
649.34	54916.28
649.54	54615.23
649.73	54879.42
649.92	54826.17
650.12	54670.53
650.31	54949.05
650.51	55354.55
650.70	54834.36
650.89	54670.53
651.09	55502.00
651.28	55047.35
651.47	55268.53
651.67	54977.72
651.86	55198.90
652.06	54387.91
652.25	55203.00
652.44	54949.05
652.64	55071.93
652.83	55014.58
653.02	54813.88
653.22	55129.27
653.41	55182.52
653.60	54883.51
653.80	54908.09
653.99	55121.08
654.18	54799.55
654.38	55301.30
654.57	54981.82
654.76	55426.23
654.96	54842.56
655.15	55045.30
655.34	55297.20
655.54	54924.47
655.73	55073.98
655.92	55688.37
656.12	55282.87
656.31	55385.27
656.50	55321.78
656.70	55223.48
656.89	55235.77
657.08	55272.63
657.28	55530.67
657.47	55512.24
657.66	55772.33
657.86	55286.96
658.05	55145.65
658.24	55663.79
658.43	55037.11
658.63	55563.44
658.82	55108.79
659.01	55796.91
659.21	55903.40
659.40	55801.00
659.59	55432.37
659.79	56038.57
659.98	55737.52
660.17	55698.61
660.36	55469.23
660.56	55579.82
660.75	55733.42
660.94	55526.58
661.14	55620.78
661.33	55497.91
661.52	55399.60
661.71	55872.68
661.91	55411.89
662.10	55418.03
662.29	55925.93
662.49	55663.79
662.68	55919.79
662.87	55833.77
663.06	55981.23
663.26	55755.95
663.45	56065.19
663.64	55844.01
663.83	56124.58
664.03	56120.49
664.22	55864.49
664.41	56087.72
664.60	56071.34
664.80	55788.72
664.99	56054.95
665.18	55870.64
665.37	56319.14
665.57	56147.11
665.76	56042.66
665.95	55985.32
666.14	56048.81
666.34	56093.86
666.53	55837.87
666.72	55706.80
666.91	55837.87
667.11	55682.22
667.30	55784.62
667.49	55813.29
667.68	56067.24
667.87	55876.78
668.07	56313.00
668.26	56181.93
668.45	56245.41
668.64	56077.48
668.84	56614.05
669.03	56448.16
669.22	56616.10
669.41	56034.47
669.60	56067.24
669.80	56138.92
669.99	56267.94
670.18	56269.99
670.37	56198.31
670.57	56534.18
670.76	56372.39
670.95	56259.75
671.14	55702.70
671.33	55975.08
671.53	56345.76
671.72	56300.71
671.91	56534.18
672.10	55723.18
672.29	56222.89
672.48	55862.44
672.68	56685.73
672.87	56480.93
673.06	56108.20
673.25	56470.69
673.44	56210.60
673.64	55923.88
673.83	56075.43
674.02	55731.37
674.21	55891.12
674.40	56333.48
674.59	55985.32
674.79	56087.72
674.98	56108.20
675.17	55940.27
675.36	56018.09
675.55	56251.56
675.74	55850.16
675.94	56102.06
676.13	56226.98
676.32	56173.73
676.51	56689.82
676.70	56165.54
676.89	56306.85
677.08	56497.31
677.28	55977.13
677.47	56677.54
677.66	56296.61
677.85	56374.44
678.04	56718.49
678.23	56478.88
678.42	56456.35
678.62	56403.11
678.81	56579.23
679.00	56343.72
679.19	56970.39
679.38	56364.20
679.57	56415.40
679.76	56267.94
679.96	56599.71
680.15	56890.52
680.34	56743.07
680.53	56054.95
680.72	56423.59
680.91	56274.09
681.10	56325.28
681.29	56878.24
681.48	56237.22
681.68	56163.50
681.87	55739.57
682.06	55940.27
682.25	56153.26
682.44	55981.23
682.63	56181.93
682.82	56089.77
683.01	55964.84
683.20	55805.10
683.39	56497.31
683.59	55913.64
683.78	55690.41
683.97	56077.48
684.16	56136.87
684.35	55733.42
684.54	55639.22
684.73	56194.21
684.92	55745.71
685.11	55893.16
685.30	56194.21
685.49	56276.13
685.69	55620.78
685.88	56235.17
686.07	55786.67
686.26	55927.98
686.45	55993.51
686.64	56163.50
686.83	56118.44
687.02	55809.20
687.21	56231.08
687.40	55977.13
687.59	55844.01
687.78	56034.47
687.97	56143.02
688.16	55981.23
688.35	55571.63
688.54	55428.27
688.74	55606.45
688.93	56030.38
689.12	55852.20
689.31	56100.01
689.50	56159.40
689.69	55551.15
689.88	55098.55
690.07	55784.62
690.26	55647.41
690.45	56163.50
690.64	55925.93
690.83	55276.72
691.02	55465.14
691.21	55624.88
691.40	55383.22
691.59	55862.44
691.78	55334.07
691.97	55973.03
692.16	55575.73
692.35	55626.93
692.54	55375.03
692.73	55835.82
692.92	55569.58
693.11	55686.32
693.30	55166.13
693.49	55792.81
693.68	55841.96
693.87	55321.78
694.06	55411.89
694.25	54973.63
694.44	55274.68
694.63	55315.64
694.82	55268.53
695.01	55284.92
695.20	55061.69
695.39	54564.03
695.58	55420.08
695.77	54969.53
695.96	54899.90
696.15	55090.36
696.34	54940.86
696.53	55063.74
696.72	55184.57
696.91	54961.34
697.10	55391.41
697.29	54914.23
697.48	55207.09
697.67	54813.88
697.86	54744.25
698.05	54977.72
698.24	55073.98
698.43	54041.80
698.62	55022.78
698.81	54531.26
699.00	54969.53
699.19	54584.51
699.38	54578.37
699.57	54426.82
699.76	55178.42
699.95	54817.98
700.14	54613.18
700.32	54432.96
700.51	54809.79
700.70	54844.60
700.89	54961.34
701.08	55071.93
701.27	54475.97
701.46	54662.33
701.65	53966.02
701.84	54559.94
702.03	54324.42
702.22	54064.33
702.41	54041.80
702.60	53966.02
702.79	54277.32
702.98	54023.37
703.17	54183.11
703.35	53742.80
703.54	54228.16
703.73	54179.01
703.92	54230.21
704.11	54357.19
704.30	53730.51
704.49	53648.59
704.68	53959.88
704.87	53802.19
705.06	53699.79
705.25	53785.80
705.43	53880.01
705.62	53507.28
705.81	53597.39
706.00	53415.12
706.19	53548.24
706.38	53744.84
706.57	53679.31
706.76	53216.47
706.95	53695.69
707.14	53572.81
707.32	53421.26
707.51	52987.10
707.70	53722.32
707.89	53558.48
708.08	53540.05
708.27	53605.58
708.46	53482.70
708.65	53218.52
708.84	53382.35
709.02	53646.54
709.21	53396.69
709.40	53200.08
709.59	52903.13
709.78	53261.52
709.97	53548.24
710.16	52878.55
710.34	52456.67
710.53	53314.77
710.72	52829.40
710.91	52995.29
711.10	52917.46
711.29	53089.49
711.48	52841.69
711.66	52827.35
711.85	52872.41
712.04	53030.10
712.23	52645.08
712.42	52640.99
712.61	52915.42
712.80	52608.22
712.98	52802.78
713.17	52176.10
713.36	52542.69
713.55	52389.09
713.74	52655.32
713.93	52473.06
714.11	52419.81
714.30	52290.79
714.49	52124.90
714.68	52872.41
714.87	52098.28
715.06	52751.58
715.24	52184.29
715.43	52241.63
715.62	51946.73
715.81	51623.15
716.00	51948.78
716.18	51686.64
716.37	51979.49
716.56	51674.35
716.75	52290.79
716.94	51885.29
717.12	51758.31
717.31	52069.61
717.50	51696.88
717.69	51430.64
717.88	51621.10
718.06	51729.64
718.25	51361.01
718.44	50840.82
718.63	51594.48
718.82	51068.15
719.00	51154.16
719.19	51102.96
719.38	50935.03
719.57	50603.26
719.76	50779.39
719.94	50109.70
720.13	50793.72
720.32	50906.36
720.51	50728.19
720.69	50545.92
720.88	50099.46
721.07	50504.96
721.26	50158.85
721.44	50539.77
721.63	50668.79
721.82	49888.52
722.01	49857.80
722.20	50296.06
722.38	50316.54
722.57	49800.46
722.76	50007.30
722.95	50001.16
723.13	49538.32
723.32	49636.62
723.51	49894.66
723.70	49335.57
723.88	49300.75
724.07	49528.08
724.26	49794.31
724.44	49261.84
724.63	49376.53
724.82	49165.59
725.01	49399.05
725.19	49302.80
725.38	49255.70
725.57	49546.51
725.76	49186.07
725.94	48651.55
726.13	49224.98
726.32	49212.69
726.51	48973.08
726.69	49460.49
726.88	49005.84
727.07	48874.77
727.25	48839.96
727.44	48919.83
727.63	48735.51
727.82	48913.69
728.00	48762.14
728.19	48403.74
728.38	48913.69
728.56	48594.20
728.75	48835.86
728.94	48624.92
729.12	48895.25
729.31	48715.03
729.50	48645.40
729.69	48598.30
729.87	48678.17
730.06	48129.31
730.25	48561.44
730.43	48852.25
730.62	48461.08
730.81	48416.03
730.99	48895.25
731.18	48244.00
731.37	48162.08
731.55	48430.36
731.74	48809.24
731.93	48514.33
732.11	48459.04
732.30	48604.44
732.49	48235.81
732.67	48330.01
732.86	48364.83
733.05	48280.86
733.23	48370.97
733.42	48157.99
733.61	47867.17
733.79	48176.42
733.98	48588.06
734.17	48442.65
734.35	48604.44
734.54	48241.95
734.73	48162.08
734.91	48219.42
735.10	48256.29
735.29	48514.33
735.47	48010.53
735.66	48121.12
735.84	48012.58
736.03	48088.35
736.22	48219.42
736.40	47359.28
736.59	48043.30
736.78	47838.50
736.96	47971.62
737.15	47258.93
737.33	47332.65
737.52	47519.02
737.71	47371.57
737.89	47658.28
738.08	47523.11
738.27	47080.75
738.45	48090.40
738.64	47400.24
738.82	46873.91
739.01	47144.24
739.20	47125.81
739.38	47330.61
739.57	47631.66
739.75	47418.67
739.94	47068.47
740.13	47174.96
740.31	47355.18
740.50	46710.07
740.68	47119.66
740.87	47269.17
741.06	47226.16
741.24	46781.75
741.43	46755.13
741.61	46826.81
741.80	46740.79
741.99	46959.92
742.17	47121.71
742.36	46624.06
742.54	47088.95
742.73	46544.19
742.91	46918.96
743.10	46720.31
743.29	46708.02
743.47	46712.12
743.66	46296.38
743.84	46839.09
744.03	46540.09
744.21	46247.23
744.40	46667.06
744.59	46347.58
744.77	46611.77
744.96	46214.46
745.14	46413.12
745.33	46259.52
745.51	46564.67
745.70	46589.24
745.88	46187.84
746.07	46460.22
746.26	46255.42
746.44	45882.69
746.63	46050.63
746.81	45985.09
747.00	45976.90
747.18	46189.89
747.37	46058.82
747.55	45833.54
747.74	46331.20
747.92	45823.30
748.11	45585.74
748.29	45782.34
748.48	45673.80
748.66	45477.19
748.85	45495.63
749.03	45698.37
749.22	45761.86
749.41	45440.33
749.59	45477.19
749.78	45299.02
749.96	44926.29
750.15	45213.01
750.33	45247.82
750.52	45401.42
750.70	45155.66
750.89	44858.71
751.07	44991.83
751.26	45069.65
751.44	45028.69
751.63	45038.93
751.81	44807.51
752.00	44623.19
752.18	45120.85
752.37	44985.68
752.55	44252.51
752.74	44510.55
752.92	44672.34
753.10	44600.66
753.29	44891.48
753.47	44426.59
753.66	44060.00
753.84	44481.88
754.03	44506.46
754.21	44025.18
754.40	44414.30
754.58	44447.07
754.77	43992.42
754.95	44111.20
755.14	43890.02
755.32	44215.65
755.51	43834.72
755.69	44039.52
755.88	44014.94
756.06	43930.98
756.24	43697.51
756.43	43562.34
756.61	43599.21
756.80	43234.67
756.98	43767.14
757.17	43591.01
757.35	43890.02
757.54	43412.84
757.72	44064.10
757.90	43414.89
758.09	43574.63
758.27	43261.29
758.46	43416.94
758.64	43400.55
758.83	43502.95
759.01	43312.49
759.19	43492.71
759.38	43361.64
759.56	43535.72
759.75	42993.01
759.93	43019.63
760.12	43316.59
760.30	43029.87
760.48	43081.07
760.67	42997.10
760.85	42794.36
761.04	43083.12
761.22	42896.75
761.40	42841.46
761.59	42554.74
761.77	42921.33
761.96	42927.47
762.14	42411.38
762.32	42442.10
762.51	42521.98
762.69	42106.24
762.88	42634.61
763.06	42419.58
763.24	42577.27
763.43	42587.51
763.61	42452.34
763.80	42034.56
763.98	42360.19
764.16	42126.72
764.35	42024.32
764.53	41751.94
764.72	41944.45
764.90	42044.80
765.08	41981.31
765.27	41454.98
765.45	41661.83
765.63	41520.52
765.82	42079.61
766.00	41371.02
766.18	41747.84
766.37	41975.17
766.55	41880.96
766.74	41522.57
766.92	41491.85
767.10	41338.25
767.29	41586.05
767.47	40750.48
767.65	41383.30
767.84	41239.95
768.02	41407.88
768.20	41061.77
768.39	41158.03
768.57	41092.49
768.75	41301.39
768.94	41049.49
769.12	40973.71
769.30	40801.68
769.49	41002.38
769.67	40682.90
769.85	40373.66
770.04	40783.25
770.22	40727.95
770.40	40342.94
770.59	40398.23
770.77	40734.10
770.95	40508.82
771.14	40103.32
771.32	40269.21
771.50	40076.70
771.69	40011.17
771.87	40510.87
772.05	39896.48
772.24	39775.65
772.42	40009.12
772.60	39957.92
772.78	39941.53
772.97	39572.90
773.15	40170.91
773.33	39789.98
773.52	39417.25
773.70	39929.25
773.88	39843.23
774.07	39855.52
774.25	39728.55
774.43	40353.18
774.61	39501.22
774.80	40039.84
774.98	39695.78
775.16	39744.93
775.34	40078.75
775.53	40000.93
775.71	39845.28
775.89	39681.44
776.08	39536.04
776.26	40455.57
776.44	39781.79
776.62	39638.44
776.81	39837.09
776.99	39996.83
777.17	39873.95
777.35	39765.41
777.54	39894.43
777.72	39687.59
777.90	40066.46
778.08	40484.25
778.27	39648.68
778.45	40467.86
778.63	40310.17
778.81	39828.90
779.00	40889.74
779.18	40181.15
779.36	40508.82
779.54	40674.71
779.73	40191.39
779.91	40205.72
780.09	40449.43
780.27	40555.93
780.46	40289.69
780.64	40629.65
780.82	40633.75
781.00	40132.00
781.19	40431.00
781.37	40791.44
781.55	40756.63
781.73	41149.84
781.91	40725.91
782.10	40760.72
782.28	40664.47
782.46	40396.18
782.64	40947.09
782.82	40326.55
783.01	40629.65
783.19	40885.65
783.37	41104.78
783.55	40482.20
783.74	40961.42
783.92	40437.14
784.10	40986.00
784.28	40859.02
784.46	40664.47
784.64	40629.65
784.83	40897.94
785.01	41115.02
785.19	40934.80
785.37	40914.32
785.55	40600.98
785.74	40414.62
785.92	40682.90
786.10	40986.00
786.28	41104.78
786.46	40359.32
786.64	40093.08
786.83	40242.59
787.01	40787.35
787.19	40666.52
787.37	40265.11
787.55	40072.60
787.74	39933.34
787.92	40275.35
788.10	39990.69
788.28	40338.84
788.46	40594.84
788.64	40021.41
788.82	40539.54
789.01	40240.54
789.19	40508.82
789.37	39724.45
789.55	40232.35
789.73	39845.28
789.91	39730.59
790.09	39570.85
790.28	39648.68
790.46	39259.56
790.64	39757.22
790.82	39789.98
791.00	39173.55
791.18	39230.89
791.36	39361.96
791.55	39681.44
791.73	39462.31
791.91	38991.28
792.09	39075.24
792.27	38802.86
792.45	38925.74
792.63	38882.73
792.81	38819.25
793.00	38899.12
793.18	39022.00
793.36	38688.18
793.54	38809.01
793.72	38596.02
793.90	38448.57
794.08	38118.84
794.26	38565.30
794.44	37844.41
794.62	37936.57
794.81	38204.86
794.99	37926.33
795.17	38010.30
795.35	38219.19
795.53	38063.55
795.71	38141.37
795.89	37555.65
796.07	37627.33
796.25	37348.81
796.43	37357.00
796.61	37035.47
796.80	37309.89
796.98	37201.35
797.16	37086.67
797.34	37019.08
797.52	36861.39
797.70	37303.75
797.88	36711.89
798.06	36402.64
798.24	36699.60
798.42	36429.27
798.60	36048.35
798.78	36316.63
798.96	36484.56
799.14	36109.78
799.32	36525.52
799.51	35812.83
799.69	36380.12
799.87	35915.23
800.05	35872.22
800.23	36005.34
800.41	35722.72
800.59	35737.05
800.77	35685.86
800.95	35276.26
801.13	35515.87
801.31	35479.01
801.49	35442.15
801.67	35118.57
801.85	35214.82
802.03	35153.38
802.21	34868.72
802.39	35005.93
802.57	35137.00
802.75	34702.83
802.93	34747.89
803.11	34881.00
803.29	34594.29
803.47	34387.44
803.65	34522.61
803.83	34131.45
804.01	34790.89
804.19	34084.34
804.37	34045.43
804.55	33793.53
804.73	34070.01
804.91	33930.75
805.09	33723.90
805.27	33914.36
805.45	34088.44
805.63	33805.82
805.81	33725.95
805.99	33949.18
806.17	33748.48
806.35	33707.52
806.53	33715.71
806.71	33082.89
806.89	33533.44
807.07	33340.93
807.25	33662.46
807.43	33508.86
807.61	33168.90
807.79	32939.53
807.97	32871.95
808.15	32742.92
808.33	32566.80
808.51	32859.66
808.69	32695.82
808.87	32687.63
809.05	32742.92
809.23	32505.36
809.41	32308.76
809.59	32187.92
809.77	32572.94
809.95	31929.88
810.13	32517.65
810.31	32081.43
810.49	32468.50
810.67	31925.78
810.84	32126.49
811.02	32204.31
811.20	32132.63
811.38	31917.59
811.56	31770.14
811.74	31819.29
811.92	31417.89
812.10	31522.34
812.28	31882.78
812.46	31686.17
812.64	31598.11
812.82	31528.48
813.00	31131.17
813.18	31342.11
813.36	31204.90
813.53	30746.15
813.71	31288.87
813.89	31053.35
814.07	31307.30
814.25	31266.34
814.43	31098.41
814.61	30737.96
814.79	30813.74
814.97	30907.94
815.15	30561.84
815.33	30453.30
815.50	30279.22
815.68	30840.36
815.86	30533.17
816.04	30477.87
816.22	30023.22
816.40	30111.28
816.58	29679.16
816.76	30137.91
816.94	30234.16
817.11	30031.41
817.29	30037.56
817.47	30055.99
817.65	29705.79
817.83	29824.57
818.01	30115.38
818.19	29949.50
818.37	29972.02
818.54	30058.04
818.72	29421.12
818.90	29886.01
819.08	29711.93
819.26	29591.10
819.44	29691.45
819.62	29496.89
819.80	29437.50
819.97	29400.64
820.15	29392.45
820.33	29419.07
820.51	29312.58
820.69	29083.20
820.87	29218.37
821.05	29423.17
821.22	28683.85
821.40	29115.97
821.58	28945.99
821.76	29220.42
821.94	28829.26
822.12	28804.68
822.29	28917.32
822.47	28655.18
822.65	28780.10
822.83	28968.52
823.01	28862.02
823.19	28864.07
823.36	28331.60
823.54	28237.39
823.72	28327.50
823.90	28390.99
824.08	28450.38
824.25	28280.40
824.43	28180.05
824.61	28431.95
824.79	28634.70
824.97	28218.96
825.15	28214.87
825.32	28485.20
825.50	28221.01
825.68	28044.88
825.86	28591.69
826.04	28341.84
826.21	28114.52
826.39	28155.47
826.57	27582.04
826.75	27727.45
826.93	27668.06
827.10	27575.90
827.28	27473.50
827.46	27993.68
827.64	27655.77
827.81	27739.74
827.99	27575.90
828.17	27450.97
828.35	27813.46
828.53	27401.82
828.70	27379.29
828.88	27428.45
829.06	27432.54
829.24	27412.06
829.41	27362.91
829.59	27608.67
829.77	27203.17
829.95	27438.69
830.12	27178.59
830.30	27180.64
830.48	27387.49
830.66	27186.79
830.84	27184.74
831.01	26990.18
831.19	27121.25
831.37	27051.62
831.55	26889.83
831.72	27065.96
831.90	26889.83
832.08	27106.91
832.25	26605.16
832.43	26889.83
832.61	26562.15
832.79	26713.70
832.96	26461.80
833.14	26730.09
833.32	26754.66
833.50	26725.99
833.67	26871.40
833.85	26105.46
834.03	26367.60
834.20	26594.92
834.38	26666.60
834.56	26654.31
834.74	26015.35
834.91	26412.65
835.09	26373.74
835.27	25988.72
835.44	26109.55
835.62	25611.90
835.80	25702.01
835.98	26168.94
836.15	26101.36
836.33	26257.01
836.51	26228.34
836.68	25925.24
836.86	26097.27
837.04	25898.61
837.21	25839.22
837.39	26214.00
837.57	25759.35
837.75	25908.85
837.92	25636.47
838.10	25929.33
838.28	25273.98
838.45	25587.32
838.63	25257.60
838.81	25427.58
838.98	25601.66
839.16	25876.09
839.34	25495.16
839.51	25251.45
839.69	25204.35
839.87	25126.53
840.04	25220.74
840.22	25382.52
840.40	25177.73
840.57	24841.86
840.75	25169.54
840.93	25011.84
841.10	25085.57
841.28	25378.43
841.46	25036.42
841.63	25341.57
841.81	25116.29
841.98	24776.33
842.16	25245.31
842.34	25044.61
842.51	24876.68
842.69	25052.80
842.87	25085.57
843.04	24772.23
843.22	24536.71
843.40	24764.04
843.57	24667.78
843.75	24735.37
843.92	24905.35
844.10	24872.58
844.28	24792.71
844.45	24784.52
844.63	24526.47
844.81	24508.04
844.98	24667.78
845.16	24417.93
845.33	24432.27
845.51	24444.56
845.69	24200.85
845.86	24133.26
846.04	24213.13
846.21	24301.20
846.39	24217.23
846.57	24188.56
846.74	24282.77
846.92	23903.89
847.09	24071.82
847.27	23926.42
847.45	24163.98
847.62	24278.67
847.80	24225.42
847.97	24077.97
848.15	23975.57
848.32	24020.63
848.50	23950.99
848.68	23498.39
848.85	23844.50
849.03	23449.24
849.20	23830.16
849.38	23621.27
849.56	23881.36
849.73	23461.53
849.91	23574.17
850.08	23897.75
850.26	23361.18
850.43	23752.34
850.61	23733.91
850.78	23217.82
850.96	23604.89
851.14	23338.65
851.31	23762.58
851.49	23264.92
851.66	23623.32
851.84	23508.63
852.01	23283.36
852.19	23426.71
852.36	22953.63
852.54	23287.45
852.71	23172.77
852.89	23424.67
853.07	23109.28
853.24	23076.51
853.42	23115.42
853.59	23127.71
853.77	23342.75
853.94	23428.76
854.12	23404.19
854.29	22783.65
854.47	22902.43
854.64	22898.34
854.82	22892.19
854.99	22890.15
855.17	22691.49
855.34	22650.53
855.52	23236.25
855.69	23176.86
855.87	22683.30
856.04	22286.00
856.22	22609.58
856.39	22390.44
856.57	22709.93
856.74	22470.31
856.92	22441.64
857.09	22388.39
857.27	22531.75
857.44	22527.66
857.62	22785.70
857.79	22351.53
857.97	22464.17
858.14	22333.10
858.32	22083.25
858.49	22441.64
858.67	22564.52
858.84	22011.57
859.02	22224.56
859.19	22179.50
859.37	22103.73
859.54	21892.79
859.72	22283.95
859.89	22081.20
860.06	22009.52
860.24	22152.88
860.41	22232.75
860.59	21831.35
860.76	21913.27
860.94	21757.62
861.11	21855.92
861.29	21798.58
861.46	21747.38
861.64	21675.70
861.81	21843.63
861.98	21423.80
862.16	21403.32
862.33	21595.83
862.51	21524.15
862.68	21565.11
862.86	21636.79
863.03	21728.95
863.21	21569.21
863.38	21296.83
863.55	21407.42
863.73	21325.50
863.90	21350.07
864.08	21339.83
864.25	21337.79
864.43	21227.20
864.60	21407.42
864.77	21118.65
864.95	21243.58
865.12	21100.22
865.30	20946.62
865.47	21216.96
865.64	20917.95
865.82	20926.14
865.99	21130.94
866.17	20942.53
866.34	21315.26
866.51	20639.43
866.69	21169.85
866.86	20938.43
867.04	20778.69
867.21	20836.03
867.38	20655.81
867.56	20737.73
867.73	20672.20
867.91	20272.84
868.08	20332.23
868.25	20764.36
868.43	20336.33
868.60	20250.32
868.78	20324.04
868.95	20485.83
869.12	20336.33
869.30	20332.23
869.47	20080.33
869.64	20270.79
869.82	20000.46
869.99	20227.79
870.16	20430.54
870.34	20072.14
870.51	20285.13
870.69	20010.70
870.86	20031.18
871.03	20186.83
871.21	20053.71
871.38	20002.51
871.55	20000.46
871.73	19670.74
871.90	19799.76
872.07	19853.01
872.25	19625.68
872.42	19832.53
872.59	19351.26
872.77	19687.12
872.94	19646.16
873.11	19461.85
873.29	19726.04
873.46	19545.81
873.63	19588.82
873.81	19594.96
873.98	19584.73
874.15	19351.26
874.33	19283.67
874.50	19068.64
874.67	19162.84
874.85	19142.36
875.02	19046.11
875.19	18759.39
875.37	19168.99
875.54	18847.46
875.71	19099.36
875.88	18906.85
876.06	18775.78
876.23	18751.20
876.40	18915.04
876.58	18743.01
876.75	18802.40
876.92	18593.51
877.10	18839.26
877.27	18642.66
877.44	18689.76
877.61	18476.77
877.79	18384.62
877.96	18585.32
878.13	18489.06
878.31	18456.29
878.48	18161.39
878.65	18284.26
878.82	18210.54
879.00	18394.86
879.17	17901.29
879.34	18302.70
879.51	18198.25
879.69	17995.50
879.86	18218.73
880.03	18142.96
880.21	18304.74
880.38	18099.95
880.55	18194.15
880.72	17893.10
880.90	18052.84
881.07	17811.18
881.24	17776.37
881.41	17929.97
881.59	17862.38
881.76	17872.62
881.93	17397.49
882.10	17678.07
882.28	17815.28
882.45	17630.96
882.62	17467.13
882.79	17856.24
882.96	17258.23
883.14	17635.06
883.31	17516.28
883.48	17420.02
883.65	17532.66
883.83	17395.45
884.00	17764.08
884.17	17434.36
884.34	17360.63
884.51	17583.86
884.69	17342.20
884.86	17557.24
885.03	17129.21
885.20	17045.24
885.38	17182.46
885.55	17182.46
885.72	17176.31
885.89	16830.21
886.06	17196.79
886.24	16865.02
886.41	17039.10
886.58	17104.64
886.75	17104.64
886.92	16660.23
887.10	17223.42
887.27	16893.69
887.44	16897.79
887.61	16953.09
887.78	17166.07
887.95	16903.93
888.13	16611.07
888.30	16731.90
888.47	16668.42
888.64	16895.74
888.81	16783.10
888.99	16785.15
889.16	16408.33
889.33	16525.06
889.50	16340.74
889.67	16422.66
889.84	16385.80
890.01	16633.60
890.19	16447.24
890.36	16393.99
890.53	16342.79
890.70	16344.84
890.87	16350.98
891.04	16234.25
891.22	16224.01
891.39	16307.98
891.56	16158.47
891.73	16224.01
891.90	16209.67
892.07	16097.03
892.24	16140.04
892.42	16047.88
892.59	15820.56
892.76	16029.45
892.93	15841.04
893.10	16135.95
893.27	15904.53
893.44	15783.70
893.61	15691.54
893.79	15961.87
893.96	15869.71
894.13	15834.89
894.30	15988.49
894.47	15843.09
894.64	16070.41
894.81	15957.77
894.98	15859.47
895.15	15963.92
895.33	15724.30
895.50	15822.61
895.67	15681.30
895.84	15634.19
896.01	15873.81
896.18	15990.54
896.35	15826.70
896.52	15582.99
896.69	15566.61
896.86	15912.72
897.04	15632.15
897.21	15476.50
897.38	15681.30
897.55	15675.15
897.72	15550.23
897.89	15519.51
898.06	15681.30
898.23	15611.67
898.40	15836.94
898.57	15802.13
898.74	15501.08
898.91	15431.44
899.08	15542.03
899.26	15793.94
899.43	15712.02
899.60	15480.60
899.77	15548.18
899.94	15568.66
900.11	15376.15
900.28	15554.32
900.45	15443.73
900.62	15208.22
900.79	15992.59
900.96	15501.08
901.13	15339.29
901.30	15585.04
901.47	15488.79
901.64	15277.85
901.81	15675.15
901.98	15111.96
902.15	15740.69
902.32	15408.92
902.49	15460.12
902.66	15499.03
902.83	15419.16
903.01	15240.98
903.18	15470.36
903.35	15441.68
903.52	15380.25
903.69	15462.16
903.86	15503.12
904.03	15533.84
904.20	15380.25
904.37	15572.75
904.54	15605.52
904.71	15314.71
904.88	15363.86
905.05	15562.51
905.22	15374.10
905.39	15316.76
905.56	15441.68
905.73	15214.36
905.90	15501.08
906.07	15261.46
906.24	15384.34
906.41	15556.37
906.58	15304.47
906.75	15177.50
906.92	15138.58
907.09	15380.25
907.26	15453.97
907.43	15019.80
907.60	15337.24
907.77	15449.88
907.93	15402.77
908.10	15212.31
908.27	15386.39
908.44	15380.25
908.61	15114.01
908.78	15120.15
908.95	15218.46
909.12	14909.21
909.29	15470.36
909.46	15118.11
909.63	15372.05
909.80	15267.61
909.97	15181.59
910.14	15109.91
910.31	15161.11
910.48	15185.69
910.65	15331.09
910.82	15040.28
910.99	15101.72
911.16	15068.95
911.33	14946.08
911.50	15122.20
911.66	14837.53
911.83	15267.61
912.00	14800.67
912.17	14810.91
912.34	14761.76
912.51	14692.13
912.68	14432.04
912.85	14911.26
913.02	14677.79
913.19	14647.07
913.36	14702.37
913.53	14579.49
913.70	14626.59
913.86	14823.20
914.03	14440.23
914.20	14532.39
914.37	14636.83
914.54	14548.77
914.71	14559.01
914.88	14501.67
915.05	14415.65
915.22	14298.92
915.39	14663.46
915.55	14374.69
915.72	14305.06
915.89	14298.92
916.06	14163.75
916.23	13981.48
916.40	14085.93
916.57	13971.24
916.74	14034.73
916.91	14010.15
917.07	13844.27
917.24	13848.36
917.41	14079.79
917.58	14014.25
917.75	13963.05
917.92	13688.62
918.09	13840.17
918.26	13842.22
918.42	13922.09
918.59	13819.69
918.76	13522.74
918.93	13512.50
919.10	13528.88
919.27	13567.79
919.44	13442.87
919.60	13670.19
919.77	13330.23
919.94	13391.67
920.11	13260.60
920.28	13307.70
920.45	13186.87
920.61	13158.20
920.78	13023.03
920.95	13088.57
921.12	12912.44
921.29	13113.14
921.46	12830.52
921.62	12683.07
921.79	12906.30
921.96	12863.29
922.13	12744.51
922.30	12881.72
922.47	12756.80
922.63	12676.93
922.80	12562.24
922.97	12683.07
923.14	12425.03
923.31	12537.66
923.47	12300.10
923.64	12615.49
923.81	12296.00
923.98	12394.31
924.15	12201.80
924.32	12111.69
924.48	12166.98
924.65	12158.79
924.82	12130.12
924.99	12222.28
925.15	11855.69
925.32	11712.33
925.49	11628.37
925.66	11890.51
925.83	11718.48
925.99	11673.42
926.16	11745.10
926.33	11855.69
926.50	11421.52
926.67	11562.83
926.83	11501.39
927.00	11507.54
927.17	11429.71
927.34	11423.57
927.50	11550.54
927.67	11431.76
927.84	11233.11
928.01	11204.44
928.17	11067.22
928.34	11169.62
928.51	11202.39
928.68	10809.18
928.84	10862.43
929.01	10903.39
929.18	10669.92
929.35	10692.44
929.51	10762.08
929.68	10624.86
929.85	10733.40
930.02	10878.81
930.18	10569.57
930.35	10544.99
930.52	10547.04
930.69	10506.08
930.85	10602.33
931.02	10297.19
931.19	10143.59
931.36	10291.04
931.52	10223.46
931.69	10286.95
931.86	10061.67
932.02	10159.97
932.19	10202.98
932.36	9953.13
932.53	10297.19
932.69	9842.54
932.86	10014.57
933.03	9944.94
933.19	9707.37
933.36	9820.01
933.53	9674.60
933.70	9559.92
933.86	9641.84
934.03	9660.27
934.20	9408.37
934.36	9465.71
934.53	9314.16
934.70	9183.09
934.86	9174.90
935.03	9080.69
935.20	8990.58
935.36	9117.56
935.53	8929.14
935.70	8879.99
935.86	8904.57
936.03	8685.44
936.20	8468.35
936.36	8540.03
936.53	8638.33
936.70	8406.91
936.86	8712.06
937.03	8396.67
937.20	8124.29
937.36	8400.77
937.53	7966.60
937.70	8028.04
937.86	7718.79
938.03	7841.67
938.20	7849.86
938.36	7559.05
938.53	7548.81
938.70	7434.13
938.86	7446.41
939.03	7325.58
939.20	7241.62
939.36	7190.42
939.53	7137.17
939.70	7362.45
939.86	6893.46
940.03	6948.76
940.19	6815.64
940.36	6789.02
940.53	6729.63
940.69	6541.21
940.86	6631.32
941.03	6373.28
941.19	6432.67
941.36	6272.93
941.52	6385.57
941.69	6229.92
941.86	6141.86
942.02	6074.28
942.19	6154.15
942.35	6080.42
942.52	5922.73
942.69	6066.08
942.85	5939.11
943.02	5846.95
943.18	5947.30
943.35	5771.18
943.52	5650.35
943.68	5687.21
943.85	5679.02
944.01	5689.26
944.18	5609.39
944.35	5580.71
944.51	5511.08
944.68	5377.97
944.84	5427.12
945.01	5515.18
945.17	5425.07
945.34	5365.68
945.51	5513.13
945.67	5414.83
945.84	5418.93
946.00	5265.33
946.17	5312.43
946.33	5396.40
946.50	5308.34
946.67	5459.88
946.83	5244.85
947.00	5437.36
947.16	5285.81
947.33	5007.28
947.49	5357.49
947.66	5134.26
947.82	5203.89
947.99	5355.44
948.16	5355.44
948.32	5185.46
948.49	5339.05
948.65	5283.76
948.82	5269.42
948.98	5222.32
949.15	5187.50
949.31	5212.08
949.48	5193.65
949.64	5185.46
949.81	5248.94
949.97	5246.90
950.14	5244.85
950.30	5103.54
950.47	5347.25
950.63	5296.05
950.80	5283.76
950.96	5207.98
951.13	5345.20
951.30	5310.38
951.46	5404.59
951.63	5386.16
951.79	5230.51
951.96	5414.83
952.12	5277.62
952.29	5253.04
952.45	5345.20
952.62	5250.99
952.78	5345.20
952.94	5279.66
953.11	5418.93
953.27	5250.99
953.44	5382.06
953.60	5410.73
953.77	5459.88
953.93	5355.44
954.10	5392.30
954.26	5400.49
954.43	5222.32
954.59	5357.49
954.76	5410.73
954.92	5234.61
955.09	5439.40
955.25	5296.05
955.42	5302.19
955.58	5349.29
955.75	5500.84
955.91	5318.57
956.07	5451.69
956.24	5478.32
956.40	5437.36
956.57	5527.47
956.73	5298.10
956.90	5400.49
957.06	5310.38
957.23	5369.77
957.39	5283.76
957.56	5375.92
957.72	5261.23
957.88	5300.14
958.05	5572.52
958.21	5472.17
958.38	5433.26
958.54	5316.53
958.71	5453.74
958.87	5437.36
959.03	5390.25
959.20	5466.03
959.36	5384.11
959.53	5394.35
959.69	5343.15
959.85	5525.42
960.02	5177.26
960.18	5457.84
960.35	5326.77
960.51	5519.28
960.68	5289.90
960.84	5435.31
961.00	5351.34
961.17	5447.60
961.33	5310.38
961.50	5369.77
961.66	5492.65
961.82	5320.62
961.99	5345.20
962.15	5365.68
962.31	5302.19
962.48	5402.54
962.64	5431.21
962.81	5375.92
962.97	5216.18
963.13	5400.49
963.30	5291.95
963.46	5345.20
963.62	5382.06
963.79	5402.54
963.95	5312.43
964.12	5351.34
964.28	5326.77
964.44	5353.39
964.61	5361.58
964.77	5359.53
964.93	5265.33
965.10	5179.31
965.26	5197.74
965.42	5357.49
965.59	5271.47
965.75	5130.16
965.92	5250.99
966.08	5242.80
966.24	5195.70
966.41	5001.14
966.57	5246.90
966.73	5253.04
966.90	5205.94
967.06	5173.17
967.22	5062.58
967.39	5078.96
967.55	5113.78
967.71	5033.91
967.88	5158.83
968.04	5015.48
968.20	5023.67
968.37	5134.26
968.53	5062.58
968.69	5099.44
968.85	5150.64
969.02	5066.67
969.18	5146.55
969.34	5019.57
969.51	5144.50
969.67	5164.98
969.83	4886.45
970.00	5064.63
970.16	5009.33
970.32	5019.57
970.48	5175.22
970.65	4943.80
970.81	4937.65
970.97	4982.71
971.14	4947.89
971.30	4878.26
971.46	4999.09
971.63	4917.17
971.79	4951.99
971.95	4941.75
972.11	4747.19
972.28	4982.71
972.44	4804.53
972.60	4812.73
972.76	4839.35
972.93	4970.42
973.09	4972.47
973.25	4851.64
973.42	4773.82
973.58	4919.22
973.74	4833.21
973.90	4958.13
974.07	4718.52
974.23	4759.48
974.39	4743.10
974.55	4751.29
974.72	4812.73
974.88	4739.00
975.04	4700.09
975.20	4724.66
975.37	4804.53
975.53	4716.47
975.69	4614.07
975.85	4655.03
976.01	4677.56
976.18	4710.33
976.34	4552.63
976.50	4595.64
976.66	4687.80
976.83	4739.00
976.99	4628.41
977.15	4513.72
977.31	4483.00
977.47	4646.84
977.64	4554.68
977.80	4339.65
977.96	4581.31
978.12	4607.93
978.29	4360.13
978.45	4411.32
978.61	4493.24
978.77	4489.15
978.93	4411.32
979.10	4517.82
979.26	4476.86
979.42	4401.08
979.58	4450.24
979.74	4517.82
979.91	4392.89
980.07	4302.78
980.23	4403.13
980.39	4331.45
980.55	4425.66
980.71	4390.84
980.88	4233.15
981.04	4247.49
981.20	4374.46
981.36	4345.79
981.52	4360.13
981.68	4194.24
981.85	4384.70
982.01	4181.95
982.17	4276.16
982.33	4319.17
982.49	4329.41
982.65	4349.89
982.82	4278.21
982.98	4188.10
983.14	4155.33
983.30	4265.92
983.46	4319.17
983.62	4181.95
983.79	4251.58
983.95	4169.66
984.11	4132.80
984.27	4124.61
984.43	4181.95
984.59	4067.27
984.75	4171.71
984.91	4073.41
985.08	4161.47
985.24	4126.66
985.40	3887.04
985.56	4136.90
985.72	4020.16
985.88	4181.95
986.04	3938.24
986.20	3878.85
986.37	4042.69
986.53	3913.67
986.69	4061.12
986.85	3936.20
987.01	3956.68
987.17	4024.26
987.33	3880.90
987.49	3805.13
987.65	3956.68
987.82	3893.19
987.98	3813.32
988.14	3856.33
988.30	3989.44
988.46	3944.39
988.62	3870.66
988.78	3885.00
988.94	3887.04
989.10	3772.36
989.26	3753.93
989.42	3817.41
989.59	3788.74
989.75	3803.08
989.91	3786.69
990.07	3727.30
990.23	3796.93
990.39	3696.58
990.55	3854.28
990.71	3704.78
990.87	3686.34
991.03	3743.69
991.19	3680.20
991.35	3825.61
991.51	3739.59
991.67	3798.98
991.83	3743.69
992.00	3600.33
992.16	3669.96
992.32	3715.02
992.48	3631.05
992.64	3663.82
992.80	3794.89
992.96	3573.71
993.12	3639.24
993.28	3637.19
993.44	3571.66
993.60	3571.66
993.76	3551.18
993.92	3514.31
994.08	3614.66
994.24	3551.18
994.40	3553.23
994.56	3565.51
994.72	3510.22
994.88	3487.69
995.04	3495.88
995.20	3530.70
995.36	3409.87
995.52	3475.40
995.68	3532.75
995.84	3411.92
996.00	3542.99
996.16	3370.96
996.32	3327.95
996.48	3420.11
996.64	3510.22
996.80	3407.82
996.96	3401.68
997.12	3444.68
997.28	3313.61
997.44	3309.52
997.60	3330.00
997.76	3348.43
997.92	3387.34
998.08	3469.26
998.24	3354.57
998.40	3385.29
998.56	3258.32
998.72	3221.45
998.88	3289.04
999.04	3325.90
999.20	3334.09
999.36	3252.17
999.52	3307.47
999.68	3264.46
999.84	3223.50
1000.00	3266.51
1000.16	3248.08
1000.32	3243.98
1000.48	3307.47
1000.64	3225.55
1000.80	3217.36
1000.95	3166.16
1001.11	3207.12
1001.27	3119.06
1001.43	3166.16
1001.59	3024.85
1001.75	3207.12
1001.91	3200.98
1002.07	3168.21
1002.23	3139.54
1002.39	3026.90
1002.55	3121.10
1002.71	2957.27
1002.87	2994.13
1003.03	3139.54
1003.19	3026.90
1003.34	3123.15
1003.50	3051.47
1003.66	3037.14
1003.82	3108.82
1003.98	3051.47
1004.14	3061.71
1004.30	3012.56
1004.46	2992.08
1004.62	2996.18
1004.78	3014.61
1004.94	2975.70
1005.09	2985.94
1005.25	2983.89
1005.41	2887.64
1005.57	3067.86
1005.73	2957.27
1005.89	2912.21
1006.05	2983.89
1006.21	2973.65
1006.37	2926.55
1006.52	2856.92
1006.68	2936.79
1006.84	2961.36
1007.00	2805.72
1007.16	2990.03
1007.32	2953.17
1007.48	2893.78
1007.64	2912.21
1007.79	2885.59
1007.95	2768.85
1008.11	2936.79
1008.27	2844.63
1008.43	2789.33
1008.59	2842.58
1008.75	2901.97
1008.91	2766.81
1009.06	2789.33
1009.22	2803.67
1009.38	2852.82
1009.54	2924.50
1009.70	2695.13
1009.86	2803.67
1010.01	2777.05
1010.17	2672.60
1010.33	2723.80
1010.49	2889.68
1010.65	2787.29
1010.81	2658.26
1010.96	2783.19
1011.12	2705.37
1011.28	2707.41
1011.44	2674.65
1011.60	2678.74
1011.76	2619.35
1011.91	2662.36
1012.07	2584.54
1012.23	2691.03
1012.39	2641.88
1012.55	2697.17
1012.71	2633.69
1012.86	2525.15
1013.02	2645.98
1013.18	2666.46
1013.34	2619.35
1013.50	2703.32
1013.65	2633.69
1013.81	2545.63
1013.97	2568.15
1014.13	2592.73
1014.29	2439.13
1014.44	2719.70
1014.60	2605.02
1014.76	2541.53
1014.92	2545.63
1015.07	2633.69
1015.23	2576.34
1015.39	2494.43
1015.55	2551.77
1015.71	2492.38
1015.86	2498.52
1016.02	2459.61
1016.18	2394.08
1016.34	2570.20
1016.49	2502.62
1016.65	2607.06
1016.81	2494.43
1016.97	2422.75
1017.12	2514.91
1017.28	2432.99
1017.44	2432.99
1017.60	2449.37
1017.75	2449.37
1017.91	2404.32
1018.07	2301.92
1018.23	2502.62
1018.38	2435.03
1018.54	2392.03
1018.70	2402.27
1018.86	2414.56
1019.01	2418.65
1019.17	2402.27
1019.33	2459.61
1019.49	2336.73
1019.64	2396.12
1019.80	2396.12
1019.96	2394.08
1020.12	2392.03
1020.27	2340.83
1020.43	2365.40
1020.59	2353.12
1020.74	2344.92
1020.90	2420.70
1021.06	2281.44
1021.22	2260.96
1021.37	2447.32
1021.53	2238.43
1021.69	2344.92
1021.84	2185.18
1022.00	2334.68
1022.16	2279.39
1022.31	2277.34
1022.47	2369.50
1022.63	2330.59
1022.79	2220.00
1022.94	2260.96
1023.10	2371.55
1023.26	2287.58
1023.41	2240.48
1023.57	2299.87
1023.73	2250.72
1023.88	2285.53
1024.04	2181.09
1024.20	2246.62
1024.35	2318.30
1024.51	2303.96
1024.67	2242.53
1024.82	2281.44
1024.98	2107.36
1025.14	2226.14
1025.29	2140.13
1025.45	2289.63
1025.61	2154.46
1025.76	2152.42
1025.92	2172.89
1026.08	2222.05
1026.23	2199.52
1026.39	2240.48
1026.55	2150.37
1026.70	2162.66
1026.86	2179.04
1027.02	2215.90
1027.17	2154.46
1027.33	2179.04
1027.48	2107.36
1027.64	2152.42
1027.80	2068.45
1027.95	2164.70
1028.11	2056.16
1028.27	2125.79
1028.42	2172.89
1028.58	2088.93
1028.73	2062.30
1028.89	2095.07
1029.05	2150.37
1029.20	2052.06
>>>>>End Processed Spectral Data<<<<<
