SpectraSuite Data File
++++++++++++++++++++++++++++++++++++
Date: Fri Jun 02 14:52:29 CEST 2017
User: INFO_000
Dark Spectrum Present: No
Reference Spectrum Present: No
Number of Sampled Component Spectra: 1
Spectrometers: USB4H00879
Integration Time (usec): 80000 (USB4H00879)
Spectra Averaged: 1 (USB4H00879)
Boxcar Smoothing: 0 (USB4H00879)
Correct for Electrical Dark: No (USB4H00879)
Strobe/Lamp Enabled: No (USB4H00879)
Correct for Detector Non-linearity: No (USB4H00879)
Correct for Stray Light: No (USB4H00879)
Number of Pixels in Processed Spectrum: 3648
>>>>>Begin Processed Spectral Data<<<<<
345.13	1286.12
345.34	1286.12
345.56	1286.12
345.78	1300.46
345.99	1273.84
346.21	1681.38
346.42	1695.72
346.64	1630.18
346.86	1837.03
347.07	1665.00
347.29	1697.77
347.50	1638.38
347.72	1679.33
347.94	1755.11
348.15	1558.50
348.37	1662.95
348.59	1667.05
348.80	1589.22
349.02	1720.29
349.23	1818.60
349.45	1839.08
349.67	1877.99
349.88	1820.64
350.10	1912.80
350.31	1863.65
350.53	1738.73
350.75	1927.14
350.96	1810.40
351.18	1869.80
351.39	1873.89
351.61	1847.27
351.82	1916.90
352.04	1869.80
352.26	1834.98
352.47	1927.14
352.69	1949.67
352.90	1763.30
353.12	1789.92
353.34	1828.84
353.55	1931.23
353.77	1912.80
353.98	1787.88
354.20	1880.04
354.41	1896.42
354.63	1945.57
354.85	1953.76
355.06	1914.85
355.28	1859.56
355.49	1863.65
355.71	1912.80
355.92	1875.94
356.14	1992.67
356.35	1824.74
356.57	1857.51
356.79	2047.97
357.00	1875.94
357.22	1923.04
357.43	1869.80
357.65	1896.42
357.86	1777.64
358.08	1900.52
358.29	1884.13
358.51	2033.63
358.72	2043.87
358.94	1992.67
359.16	1896.42
359.37	1931.23
359.59	1964.00
359.80	2025.44
360.02	1980.39
360.23	1951.71
360.45	1947.62
360.66	1974.24
360.88	1847.27
361.09	1951.71
361.31	1953.76
361.52	2015.20
361.74	2113.50
361.95	2088.93
362.17	2064.35
362.38	2103.26
362.60	1990.63
362.81	1949.67
363.03	1994.72
363.24	2027.49
363.46	2113.50
363.67	2033.63
363.89	1947.62
364.10	2021.35
364.32	1916.90
364.53	2039.78
364.75	1904.61
364.96	2050.02
365.18	2013.15
365.39	2011.11
365.61	1957.86
365.82	2101.22
366.04	1984.48
366.25	1980.39
366.47	2000.87
366.68	1996.77
366.90	1920.99
367.11	2090.98
367.33	2125.79
367.54	2152.42
367.76	1990.63
367.97	2185.18
368.19	1992.67
368.40	2066.40
368.62	2011.11
368.83	1978.34
369.05	2097.12
369.26	1972.19
369.48	2025.44
369.69	2023.39
369.91	2133.98
370.12	2007.01
370.33	2222.05
370.55	1972.19
370.76	2115.55
370.98	2070.50
371.19	2013.15
371.41	2035.68
371.62	2078.69
371.84	2021.35
372.05	2099.17
372.27	2052.06
372.48	2068.45
372.69	2121.70
372.91	2105.31
373.12	2183.13
373.34	2133.98
373.55	2183.13
373.77	2211.81
373.98	2254.81
374.20	2207.71
374.41	2232.29
374.62	2203.61
374.84	2148.32
375.05	2213.85
375.27	2222.05
375.48	2203.61
375.70	2215.90
375.91	2217.95
376.12	2342.88
376.34	2222.05
376.55	2220.00
376.77	2267.10
376.98	2168.80
377.19	2166.75
377.41	2097.12
377.62	2164.70
377.84	2287.58
378.05	2334.68
378.27	2093.02
378.48	2289.63
378.69	2340.83
378.91	2306.01
379.12	2281.44
379.34	2238.43
379.55	2279.39
379.76	2197.47
379.98	2162.66
380.19	2209.76
380.41	2181.09
380.62	2334.68
380.83	2230.24
381.05	2306.01
381.26	2435.03
381.47	2301.92
381.69	2320.35
381.90	2383.84
382.12	2365.40
382.33	2256.86
382.54	2365.40
382.76	2330.59
382.97	2297.82
383.19	2279.39
383.40	2371.55
383.61	2254.81
383.83	2316.25
384.04	2332.64
384.25	2357.21
384.47	2457.56
384.68	2410.46
384.89	2301.92
385.11	2306.01
385.32	2326.49
385.54	2349.02
385.75	2371.55
385.96	2500.57
386.18	2488.28
386.39	2381.79
386.60	2367.45
386.82	2463.71
387.03	2478.04
387.24	2455.51
387.46	2486.23
387.67	2480.09
387.88	2523.10
388.10	2428.89
388.31	2506.71
388.52	2535.39
388.74	2500.57
388.95	2475.99
389.16	2473.95
389.38	2510.81
389.59	2531.29
389.80	2582.49
390.02	2650.07
390.23	2641.88
390.44	2588.63
390.66	2605.02
390.87	2582.49
391.08	2611.16
391.30	2674.65
391.51	2682.84
391.72	2623.45
391.94	2672.60
392.15	2574.30
392.36	2627.54
392.58	2625.50
392.79	2633.69
393.00	2729.94
393.22	2705.37
393.43	2752.47
393.64	2869.20
393.85	2752.47
394.07	2691.03
394.28	2740.18
394.49	2777.05
394.71	2764.76
394.92	2891.73
395.13	2736.09
395.35	2744.28
395.56	2766.81
395.77	2826.20
395.98	2895.83
396.20	2934.74
396.41	2721.75
396.62	2967.51
396.84	2830.29
397.05	2791.38
397.26	2918.36
397.47	2994.13
397.69	2949.08
397.90	3010.51
398.11	2934.74
398.32	2922.45
398.54	2879.44
398.75	2940.88
398.96	3051.47
399.18	3078.10
399.39	3076.05
399.60	3117.01
399.81	2977.75
400.03	3074.00
400.24	3362.76
400.45	3016.66
400.66	3106.77
400.88	3053.52
401.09	3250.13
401.30	3117.01
401.51	3256.27
401.73	3178.45
401.94	3207.12
402.15	3131.34
402.36	3246.03
402.58	3166.16
402.79	3153.87
403.00	3190.74
403.21	3231.69
403.43	3182.54
403.64	3354.57
403.85	3127.25
404.06	3266.51
404.27	3239.89
404.49	3262.41
404.70	3336.14
404.91	3368.91
405.12	3420.11
405.34	3264.46
405.55	3418.06
405.76	3276.75
405.97	3336.14
406.19	3454.92
406.40	3358.67
406.61	3346.38
406.82	3391.44
407.03	3346.38
407.25	3334.09
407.46	3491.79
407.67	3450.83
407.88	3555.27
408.09	3483.59
408.31	3440.59
408.52	3426.25
408.73	3342.28
408.94	3434.44
409.15	3573.71
409.37	3557.32
409.58	3534.79
409.79	3663.82
410.00	3672.01
410.21	3542.99
410.43	3551.18
410.64	3504.07
410.85	3524.55
411.06	3581.90
411.27	3663.82
411.48	3606.47
411.70	3622.86
411.91	3629.00
412.12	3676.10
412.33	3719.11
412.54	3645.38
412.76	3817.41
412.97	3858.37
413.18	3659.72
413.39	3700.68
413.60	3710.92
413.81	3813.32
414.03	3698.63
414.24	3725.26
414.45	4022.21
414.66	3608.52
414.87	3784.65
415.08	3807.17
415.30	3762.12
415.51	3887.04
415.72	3856.33
415.93	3743.69
416.14	3778.50
416.35	3878.85
416.56	3825.61
416.78	3942.34
416.99	3973.06
417.20	3764.17
417.41	3852.23
417.62	3956.68
417.83	4016.07
418.04	3968.96
418.26	4085.70
418.47	3993.54
418.68	3987.40
418.89	3991.49
419.10	4032.45
419.31	3942.34
419.52	4122.56
419.73	4042.69
419.95	4116.42
420.16	4042.69
420.37	4036.55
420.58	4124.61
420.79	3874.76
421.00	4102.08
421.21	4157.38
421.42	4237.25
421.63	4097.99
421.85	4310.97
422.06	4186.05
422.27	4206.53
422.48	4251.58
422.69	4235.20
422.90	4333.50
423.11	4255.68
423.32	4329.41
423.53	4474.81
423.75	4466.62
423.96	4351.93
424.17	4511.68
424.38	4544.44
424.59	4452.28
424.80	4628.41
425.01	4460.48
425.22	4427.71
425.43	4370.37
425.64	4741.05
425.85	4648.89
426.06	4601.79
426.28	4585.40
426.49	4468.67
426.70	4515.77
426.91	4536.25
427.12	4708.28
427.33	4652.98
427.54	4638.65
427.75	4741.05
427.96	4878.26
428.17	4728.76
428.38	4812.73
428.59	4726.71
428.80	4761.53
429.01	4800.44
429.23	4769.72
429.44	5099.44
429.65	4964.28
429.86	4988.85
430.07	4868.02
430.28	4863.93
430.49	4906.93
430.70	5089.20
430.91	5130.16
431.12	5103.54
431.33	5179.31
431.54	5300.14
431.75	5287.86
431.96	5091.25
432.17	5091.25
432.38	5230.51
432.59	5468.08
432.80	5173.17
433.01	5271.47
433.22	5439.40
433.43	5339.05
433.64	5371.82
433.85	5115.83
434.06	5406.64
434.27	5359.53
434.49	5504.94
434.70	5400.49
434.91	5525.42
435.12	5603.24
435.33	5500.84
435.54	5558.19
435.75	5437.36
435.96	5531.56
436.17	5470.12
436.38	5603.24
436.59	5636.01
436.80	5613.48
437.01	5851.05
437.22	5922.73
437.43	5726.12
437.64	5674.92
437.85	5849.00
438.06	5889.96
438.27	5672.87
438.48	5695.40
438.69	5994.40
438.90	5975.97
439.11	5808.04
439.32	5980.07
439.53	5943.21
439.74	5941.16
439.95	6088.61
440.16	5820.33
440.37	6107.04
440.57	5783.46
440.78	6061.99
440.99	6154.15
441.20	5982.12
441.41	5992.36
441.62	6258.59
441.83	6002.60
442.04	6305.70
442.25	6199.20
442.46	6215.59
442.67	6328.22
442.88	6569.88
443.09	6152.10
443.30	6246.30
443.51	6401.95
443.72	6422.43
443.93	6303.65
444.14	6526.88
444.35	6365.09
444.56	6467.49
444.77	6369.18
444.98	6410.14
445.19	6655.90
445.40	6586.27
445.61	6512.54
445.81	6633.37
446.02	6672.28
446.23	6465.44
446.44	6623.13
446.65	6674.33
446.86	6672.28
447.07	6862.74
447.28	6963.09
447.49	6821.78
447.70	6586.27
447.91	6823.83
448.12	6950.81
448.33	6967.19
448.54	6868.89
448.74	6793.11
448.95	6901.65
449.16	6893.46
449.37	7245.71
449.58	6946.71
449.79	7157.65
450.00	7061.40
450.21	7219.09
450.42	7432.08
450.63	7178.13
450.84	7221.14
451.05	7241.62
451.25	7214.99
451.46	7157.65
451.67	7241.62
451.88	7665.55
452.09	7442.32
452.30	7432.08
452.51	7405.46
452.72	7554.96
452.93	7829.38
453.13	7458.70
453.34	7524.24
453.55	7655.31
453.76	7626.64
453.97	7835.53
454.18	7858.06
454.39	7735.18
454.60	7581.58
454.81	7933.83
455.01	7905.16
455.22	7597.96
455.43	7833.48
455.64	8146.82
455.85	8023.94
456.06	8200.07
456.27	7991.17
456.48	8017.80
456.68	8052.61
456.89	8079.24
457.10	8161.16
457.31	8222.59
457.52	8265.60
457.73	8046.47
457.94	8548.22
458.14	8208.26
458.35	8640.38
458.56	8572.80
458.77	8339.33
458.98	8593.28
459.19	8499.07
459.39	8501.12
459.60	8691.58
459.81	8505.21
460.02	8812.41
460.23	8851.32
460.44	8892.28
460.65	8996.73
460.85	9097.08
461.06	8968.06
461.27	8716.16
461.48	9101.17
461.69	9113.46
461.89	8867.70
462.10	9047.93
462.31	8925.05
462.52	9090.93
462.73	9158.52
462.94	9334.64
463.14	9389.94
463.35	9453.42
463.56	9791.34
463.77	9387.89
463.98	9183.09
464.18	9525.10
464.39	9793.39
464.60	9777.00
464.81	9766.76
465.02	9709.42
465.23	10055.53
465.43	9838.44
465.64	9996.14
465.85	9846.63
466.06	9783.15
466.27	10186.60
466.47	10182.50
466.68	10260.32
466.89	10143.59
467.10	10309.47
467.30	10039.14
467.51	10370.91
467.72	10657.63
467.93	10211.17
468.14	10592.09
468.34	10676.06
468.55	10628.96
468.76	10620.77
468.97	10469.22
469.17	10870.62
469.38	10698.59
469.59	11056.98
469.80	10995.54
470.01	11013.98
470.21	11120.47
470.42	11396.95
470.63	11282.26
470.84	11267.92
471.04	11464.53
471.25	11329.36
471.46	11435.86
471.67	11695.95
471.87	11521.87
472.08	11491.15
472.29	12029.77
472.50	11450.19
472.70	11757.39
472.91	11931.47
473.12	12148.55
473.33	11906.89
473.53	12257.09
473.74	12185.41
473.95	12410.69
474.16	12398.40
474.36	12238.66
474.57	12678.97
474.78	12701.50
474.99	12527.42
475.19	12496.71
475.40	12912.44
475.61	13014.84
475.81	13086.52
476.02	13109.05
476.23	13029.18
476.44	13164.34
476.64	13539.12
476.85	13406.00
477.06	13575.98
477.27	13858.60
477.47	13735.73
477.68	13651.76
477.89	13864.75
478.09	13963.05
478.30	14161.70
478.51	14022.44
478.71	14143.27
478.92	14352.16
479.13	14636.83
479.34	14489.38
479.54	14382.88
479.75	14620.45
479.96	14683.94
480.16	14901.02
480.37	15040.28
480.58	14976.80
480.78	15130.39
480.99	15265.56
481.20	15363.86
481.41	15421.20
481.61	15535.89
481.82	15599.38
482.03	15546.13
482.23	15679.25
482.44	15890.19
482.65	16092.94
482.85	16113.42
483.06	16074.51
483.27	16019.21
483.47	16037.64
483.68	16078.60
483.89	16424.71
484.09	16367.37
484.30	16600.83
484.51	17039.10
484.71	16781.06
484.92	16936.70
485.13	16926.46
485.33	16996.09
485.54	16844.54
485.75	17237.75
485.95	17635.06
486.16	17415.93
486.37	17628.92
486.57	17559.28
486.78	17536.76
486.98	17886.96
487.19	17936.11
487.40	18138.86
487.60	18122.48
487.81	18468.58
488.02	18085.61
488.22	18388.71
488.43	18411.24
488.64	18646.76
488.84	18673.38
489.05	18749.15
489.25	18986.72
489.46	19236.57
489.67	19119.84
489.87	19205.85
490.08	19316.44
490.29	19283.67
490.49	19693.27
490.70	19703.51
490.90	19703.51
491.11	19699.41
491.32	19674.84
491.52	19660.50
491.73	19979.98
491.94	20233.93
492.14	20020.94
492.35	20238.03
492.55	20377.29
492.76	20440.78
492.97	20561.61
493.17	20809.41
493.38	20774.60
493.58	21022.40
493.79	21114.56
494.00	20893.38
494.20	20854.47
494.41	21255.87
494.61	21454.52
494.82	21509.82
495.02	21343.93
495.23	21591.73
495.44	21685.94
495.64	21880.50
495.85	22001.33
496.05	22142.64
496.26	22146.73
496.47	22343.34
496.67	22320.81
496.88	22572.71
497.08	22107.82
497.29	22720.17
497.49	22503.08
497.70	22724.26
497.91	23121.57
498.11	22951.59
498.32	22929.06
498.52	23291.55
498.73	23215.77
498.93	23029.41
499.14	23379.61
499.34	23273.12
499.55	23439.00
499.76	23441.05
499.96	23768.73
500.17	23623.32
500.37	23826.07
500.58	24104.59
500.78	24094.35
500.99	24452.75
501.19	24241.81
501.40	24333.96
501.60	24231.57
501.81	24485.51
502.02	24376.97
502.22	24303.25
502.43	24862.34
502.63	24649.35
502.84	24805.00
503.04	24927.88
503.25	25003.65
503.45	25034.37
503.66	25249.41
503.86	25026.18
504.07	25587.32
504.27	25259.65
504.48	25546.36
504.68	25575.03
504.89	25943.67
505.09	25681.53
505.30	25890.42
505.50	25677.43
505.71	26037.87
505.91	25757.30
506.12	26048.11
506.32	26197.62
506.53	26261.10
506.73	26039.92
506.94	26416.75
507.14	26248.82
507.35	26465.90
507.55	26265.20
507.76	26826.34
507.96	26453.61
508.17	26707.56
508.37	26670.70
508.58	26840.68
508.78	26857.06
508.99	27237.98
509.19	27250.27
509.40	26963.56
509.60	27268.70
509.81	27215.46
510.01	26996.32
510.22	27450.97
510.42	27293.28
510.63	27637.34
510.83	27219.55
511.04	27412.06
511.24	27580.00
511.44	27768.41
511.65	27698.78
511.85	27481.69
512.06	27479.64
512.26	28012.12
512.47	27907.67
512.67	28018.26
512.88	27913.81
513.08	27608.67
513.29	28282.45
513.49	28366.42
513.69	28200.53
513.90	28501.58
514.10	28649.03
514.31	28438.09
514.51	28757.58
514.72	28513.87
514.92	28655.18
515.13	28444.24
515.33	28874.31
515.53	28810.82
515.74	28665.42
515.94	28565.07
516.15	28784.20
516.35	28851.78
516.56	29378.11
516.76	28737.10
516.96	28919.37
517.17	29343.30
517.37	29343.30
517.58	29189.70
517.78	29345.34
517.99	29398.59
518.19	29695.55
518.39	29410.88
518.60	29611.58
518.80	29455.93
519.01	29881.91
519.21	29832.76
519.41	29732.41
519.62	29732.41
519.82	30015.03
520.03	30213.68
520.23	29787.71
520.43	30105.14
520.64	30398.00
520.84	30391.86
521.05	30357.04
521.25	30586.41
521.45	30766.63
521.66	30443.06
521.86	30275.12
522.07	30520.88
522.27	30864.94
522.47	30703.15
522.68	31061.54
522.88	30809.64
523.08	31342.11
523.29	31303.20
523.49	31493.66
523.70	31135.27
523.90	31387.17
524.10	31223.33
524.31	31764.00
524.51	31284.77
524.71	32011.80
524.92	31694.36
525.12	31890.97
525.33	31880.73
525.53	32083.48
525.73	31956.50
525.94	32173.59
526.14	32093.72
526.34	32280.08
526.55	32335.38
526.75	32237.08
526.95	32802.32
527.16	32433.68
527.36	32687.63
527.56	32757.26
527.77	32822.80
527.97	32783.88
528.17	32724.49
528.38	33246.72
528.58	32906.76
528.78	33177.09
528.99	33211.91
529.19	33246.72
529.39	33265.16
529.60	33144.33
529.80	33068.55
530.00	33152.52
530.21	33797.63
530.41	33850.88
530.61	33478.15
530.82	33687.04
531.02	33555.97
531.22	34330.10
531.43	34186.74
531.63	34018.81
531.83	34391.54
532.04	34606.58
532.24	34362.87
532.44	35005.93
532.64	34964.97
532.85	34805.23
533.05	34889.20
533.25	34821.61
533.46	34747.89
533.66	35249.64
533.86	34977.26
534.07	34960.87
534.27	35141.10
534.47	35034.60
534.67	35425.76
534.88	35173.86
535.08	35362.28
535.28	35493.35
535.49	35933.66
535.69	35708.38
535.89	35988.95
536.09	35999.19
536.30	35816.93
536.50	36085.21
536.70	36244.95
536.91	36050.39
537.11	36357.59
537.31	36603.35
537.51	36654.54
537.72	36531.67
537.92	36572.63
538.12	37074.38
538.32	36500.95
538.53	37010.89
538.73	36701.65
538.93	36718.03
539.13	36840.91
539.34	36615.63
539.54	37092.81
539.74	37455.30
539.94	36922.83
540.15	37041.61
540.35	37486.02
540.55	37017.04
540.75	37516.74
540.96	37576.13
541.16	37438.92
541.36	37938.62
541.56	37361.09
541.77	37918.14
541.97	38217.14
542.17	38094.27
542.37	37748.16
542.58	37854.65
542.78	38028.73
542.98	38170.04
543.18	38155.71
543.38	38569.40
543.59	38284.73
543.79	38356.41
543.99	38409.65
544.19	38610.35
544.40	38307.26
544.60	39099.82
544.80	38716.85
545.00	38698.42
545.20	39341.48
545.41	39085.48
545.61	38987.18
545.81	39294.38
546.01	39052.72
546.21	39148.97
546.42	38972.85
546.62	39253.42
546.82	39347.62
547.02	39136.68
547.22	39548.32
547.43	39148.97
547.63	39818.66
547.83	39990.69
548.03	39357.86
548.23	39570.85
548.44	39839.14
548.64	39861.66
548.84	39927.20
549.04	39962.01
549.24	40050.08
549.45	40060.32
549.65	39992.73
549.85	40179.10
550.05	40338.84
550.25	40031.65
550.45	40699.28
550.66	40547.73
550.86	40349.08
551.06	40560.02
551.26	40666.52
551.46	40922.51
551.66	40449.43
551.87	40418.71
552.07	40465.81
552.27	40891.79
552.47	40809.87
552.67	41207.18
552.87	40850.83
553.07	41186.70
553.28	40902.03
553.48	41112.97
553.68	41153.93
553.88	41297.29
554.08	41092.49
554.28	41006.48
554.48	41270.67
554.69	41260.43
554.89	41330.06
555.09	41385.35
555.29	41221.52
555.49	41620.87
555.69	41977.22
555.89	41690.50
556.10	41731.46
556.30	41743.75
556.50	41762.18
556.70	41837.95
556.90	41786.75
557.10	42118.53
557.30	41618.82
557.50	42331.51
557.70	42055.04
557.91	42089.85
558.11	42073.47
558.31	42612.09
558.51	42306.94
558.71	42554.74
558.91	42689.91
559.11	42444.15
559.31	42476.92
559.51	42268.03
559.72	42476.92
559.92	42784.12
560.12	42306.94
560.32	43050.35
560.52	42065.28
560.72	42718.58
560.92	43253.10
561.12	42796.40
561.32	43195.76
561.52	42759.54
561.72	43103.60
561.93	42894.71
562.13	43246.96
562.33	43130.22
562.53	43613.54
562.73	42962.29
562.93	43072.88
563.13	43292.01
563.33	43255.15
563.53	43660.65
563.73	43251.05
563.93	43476.33
564.13	43971.94
564.33	44119.39
564.53	43511.14
564.74	43681.13
564.94	43488.62
565.14	43691.37
565.34	43728.23
565.54	44170.59
565.74	44250.46
565.94	44510.55
566.14	44119.39
566.34	44111.20
566.54	44348.76
566.74	43906.40
566.94	44393.82
567.14	44363.10
567.34	44356.96
567.54	44377.43
567.74	44506.46
567.94	44373.34
568.14	44897.62
568.34	44711.25
568.54	44563.80
568.74	44729.69
568.94	44975.44
569.14	45208.91
569.34	45061.46
569.54	44979.54
569.75	44791.12
569.95	45411.66
570.15	45436.23
570.35	45493.58
570.55	45385.04
570.75	45399.37
570.95	45196.62
571.15	45448.52
571.35	45536.59
571.55	45305.16
571.75	45636.94
571.95	46159.17
572.15	45741.38
572.35	45841.73
572.55	45665.61
572.75	45618.50
572.95	45845.83
573.15	45972.80
573.35	45741.38
573.55	45638.98
573.75	46058.82
573.95	46560.57
574.15	45876.55
574.35	46097.73
574.55	46425.40
574.75	46320.96
574.95	46642.49
575.15	46579.00
575.34	46378.30
575.54	46837.05
575.74	46941.49
575.94	46724.41
576.14	46560.57
576.34	47342.89
576.54	47295.79
576.74	46980.40
576.94	46910.77
577.14	47338.80
577.34	47525.16
577.54	47148.34
577.74	47641.90
577.94	47252.78
578.14	47390.00
578.34	47516.97
578.54	47379.76
578.74	47807.78
578.94	48100.64
579.14	47699.24
579.34	47977.76
579.54	48047.39
579.74	48268.58
579.94	48317.73
580.13	48239.90
580.33	48379.17
580.53	48434.46
580.73	48604.44
580.93	48411.93
581.13	48688.41
581.33	48981.27
581.53	48968.98
581.73	48641.31
581.93	49001.75
582.13	49118.48
582.33	49028.37
582.53	49446.16
582.73	49100.05
582.92	49198.35
583.12	49374.48
583.32	48893.21
583.52	49528.08
583.72	49392.91
583.92	49691.91
584.12	49495.31
584.32	49863.94
584.52	49822.98
584.72	49820.94
584.92	49896.71
585.11	49937.67
585.31	49792.26
585.51	50312.45
585.71	49614.09
585.91	50167.04
586.11	50160.90
586.31	49992.97
586.51	50160.90
586.71	50212.10
586.91	50756.86
587.10	50136.32
587.30	50533.63
587.50	50648.32
587.70	50693.37
587.90	50914.55
588.10	50834.68
588.30	50607.36
588.50	50783.48
588.69	51115.25
588.89	50894.07
589.09	51246.32
589.29	51021.05
589.49	51619.05
589.69	50681.08
589.89	50750.71
590.08	51303.67
590.28	51535.09
590.48	51281.14
590.68	51303.67
590.88	51379.44
591.08	51397.87
591.28	51242.23
591.47	52067.56
591.67	51512.56
591.87	51760.36
592.07	51336.43
592.27	51467.50
592.47	52008.17
592.67	51942.63
592.86	51571.95
593.06	51467.50
593.26	52131.04
593.46	51877.10
593.66	52446.43
593.86	52204.77
594.05	52325.60
594.25	52333.79
594.45	52098.28
594.65	51842.28
594.85	51993.83
595.05	52735.20
595.24	52788.44
595.44	52270.31
595.64	52544.73
595.84	52602.08
596.04	52810.97
596.23	52720.86
596.43	53292.24
596.63	52851.93
596.83	52782.30
597.03	53009.62
597.22	53392.59
597.42	52804.83
597.62	52753.63
597.82	53142.74
598.02	53482.70
598.21	53230.80
598.41	52767.96
598.61	53378.26
598.81	52991.19
599.01	53492.94
599.20	53679.31
599.40	53779.66
599.60	53785.80
599.80	53566.67
600.00	53607.63
600.19	53630.16
600.39	53447.89
600.59	53812.43
600.79	53920.97
600.98	54002.89
601.18	54035.66
601.38	54097.09
601.58	53982.41
601.78	54166.73
601.97	53974.22
602.17	54668.48
602.37	54215.88
602.57	53978.31
602.76	54547.65
602.96	54138.05
603.16	54451.39
603.36	54559.94
603.55	54584.51
603.75	54090.95
603.95	54668.48
604.15	54973.63
604.34	54508.74
604.54	54746.30
604.74	54695.10
604.94	55399.60
605.13	54801.60
605.33	54869.18
605.53	54680.77
605.73	55266.48
605.92	54668.48
606.12	55329.97
606.32	55559.34
606.52	55053.50
606.71	55426.23
606.91	55706.80
607.11	55135.41
607.30	55143.61
607.50	55377.08
607.70	55985.32
607.90	55434.42
608.09	55121.08
608.29	55514.29
608.49	55264.44
608.68	55727.28
608.88	55579.82
609.08	55620.78
609.28	55661.74
609.47	55114.94
609.67	56104.10
609.87	55491.76
610.06	56259.75
610.26	55731.37
610.46	55737.52
610.66	55596.21
610.85	55811.24
611.05	55661.74
611.25	56405.16
611.44	55792.81
611.64	55651.50
611.84	55268.53
612.03	55600.30
612.23	55755.95
612.43	55626.93
612.62	55704.75
612.82	55547.06
613.02	55565.49
613.21	56171.69
613.41	55418.03
613.61	55911.59
613.80	55354.55
614.00	55837.87
614.20	55497.91
614.39	55669.93
614.59	55872.68
614.79	55436.47
614.98	55631.02
615.18	55454.90
615.38	55755.95
615.57	55125.17
615.77	56136.87
615.97	55698.61
616.16	55624.88
616.36	55608.50
616.56	55936.17
616.75	55592.11
616.95	55633.07
617.15	55502.00
617.34	55553.20
617.54	55659.69
617.74	55907.50
617.93	55758.00
618.13	55571.63
618.32	55592.11
618.52	55155.89
618.72	55639.22
618.91	55440.56
619.11	55342.26
619.31	55487.67
619.50	55424.18
619.70	55329.97
619.90	55366.84
620.09	55686.32
620.29	55592.11
620.48	55293.11
620.68	55385.27
620.88	55336.12
621.07	55162.04
621.27	55295.16
621.46	54703.29
621.66	55006.39
621.86	55260.34
622.05	55203.00
622.25	55577.78
622.44	54992.06
622.64	55049.40
622.84	55725.23
623.03	55041.21
623.23	55456.95
623.42	55096.50
623.62	55096.50
623.82	55502.00
624.01	55102.65
624.21	55473.33
624.40	55229.62
624.60	54994.10
624.80	55119.03
624.99	55272.63
625.19	54830.27
625.38	55465.14
625.58	55260.34
625.77	54836.41
625.97	55325.88
626.17	55049.40
626.36	54717.63
626.56	55207.09
626.75	54490.30
626.95	54985.91
627.14	54688.96
627.34	55375.03
627.54	55383.22
627.73	55336.12
627.93	55098.55
628.12	54752.44
628.32	54691.01
628.51	54891.71
628.71	54783.16
628.90	54740.16
629.10	54353.09
629.30	55303.35
629.49	54949.05
629.69	55276.72
629.88	54582.46
630.08	55067.83
630.27	54738.11
630.47	54629.57
630.66	54598.85
630.86	54834.36
631.05	54502.59
631.25	55092.41
631.44	54754.49
631.64	54660.29
631.84	54678.72
632.03	55317.68
632.23	54736.06
632.42	55282.87
632.62	54590.66
632.81	54408.39
633.01	54785.21
633.20	55147.70
633.40	54947.00
633.59	54748.35
633.79	54346.95
633.98	54789.31
634.18	54701.25
634.37	54897.85
634.57	55145.65
634.76	54832.32
634.96	54856.89
635.15	54613.18
635.35	54680.77
635.54	54375.62
635.74	55012.54
635.93	54924.47
636.13	55129.27
636.32	54906.04
636.52	54547.65
636.71	54803.64
636.91	55039.16
637.10	55082.17
637.30	54871.23
637.49	54684.86
637.69	55051.45
637.88	54883.51
638.08	54189.25
638.27	54924.47
638.46	54435.01
638.66	54443.20
638.85	54736.06
639.05	54711.49
639.24	54652.09
639.44	54334.66
639.63	54762.68
639.83	54850.75
640.02	54977.72
640.22	54516.93
640.41	55000.25
640.61	54639.81
640.80	54748.35
640.99	54621.37
641.19	55530.67
641.38	54865.08
641.58	54676.67
641.77	54742.20
641.97	54478.02
642.16	54695.10
642.36	54852.80
642.55	54688.96
642.74	54721.72
642.94	55268.53
643.13	54922.43
643.33	55051.45
643.52	54678.72
643.72	55065.78
643.91	54955.19
644.10	55026.87
644.30	55256.24
644.49	54742.20
644.69	55186.61
644.88	55137.46
645.08	54664.38
645.27	55125.17
645.46	54883.51
645.66	55239.86
645.85	54963.39
646.05	55186.61
646.24	55178.42
646.43	55205.05
646.63	55882.92
646.82	55157.94
647.02	55450.80
647.21	55616.69
647.40	55280.82
647.60	55411.89
647.79	55542.96
647.99	55061.69
648.18	55213.24
648.37	55909.55
648.57	55477.43
648.76	55415.99
648.96	55211.19
649.15	55680.17
649.34	55690.41
649.54	55882.92
649.73	55309.49
649.92	55801.00
650.12	55491.76
650.31	55542.96
650.51	55518.38
650.70	55731.37
650.89	55465.14
651.09	55860.40
651.28	56196.26
651.47	56128.68
651.67	56138.92
651.86	55770.28
652.06	55100.60
652.25	55272.63
652.44	55758.00
652.64	55575.73
652.83	55362.74
653.02	55741.61
653.22	55284.92
653.41	55735.47
653.60	55235.77
653.80	55528.62
653.99	55907.50
654.18	55633.07
654.38	55655.60
654.57	55823.53
654.76	55829.68
654.96	55575.73
655.15	55612.59
655.34	55702.70
655.54	55393.46
655.73	56038.57
655.92	55956.65
656.12	55952.55
656.31	55919.79
656.50	56235.17
656.70	55901.36
656.89	55995.56
657.08	56360.10
657.28	55727.28
657.47	55862.44
657.66	56261.80
657.86	56046.76
658.05	56030.38
658.24	56171.69
658.43	56097.96
658.63	56419.49
658.82	56220.84
659.01	56536.23
659.21	56407.20
659.40	56196.26
659.59	56294.56
659.79	56734.88
659.98	56677.54
660.17	56530.08
660.36	56560.80
660.56	56136.87
660.75	56616.10
660.94	56093.86
661.14	56431.78
661.33	56104.10
661.52	55659.69
661.71	56743.07
661.91	56063.14
662.10	56071.34
662.29	56695.97
662.49	56589.47
662.68	56517.79
662.87	56376.48
663.06	56530.08
663.26	56775.84
663.45	57044.12
663.64	56917.15
663.83	56759.45
664.03	56745.12
664.22	56435.87
664.41	56718.49
664.60	56409.25
664.80	57279.64
664.99	56306.85
665.18	56601.76
665.37	56888.48
665.57	57240.73
665.76	56403.11
665.95	56771.74
666.14	56612.00
666.34	56571.04
666.53	56806.56
666.72	56792.22
666.91	56906.91
667.11	56734.88
667.30	56986.78
667.49	56423.59
667.68	56888.48
667.87	56587.42
668.07	56997.02
668.26	56665.25
668.45	56667.30
668.64	56489.12
668.84	57439.38
669.03	56923.29
669.22	57214.10
669.41	57242.77
669.60	57013.40
669.80	56831.13
669.99	57019.55
670.18	56763.55
670.37	57130.14
670.57	57408.66
670.76	57021.59
670.95	57369.75
671.14	57031.83
671.33	56933.53
671.53	57824.40
671.72	57001.11
671.91	56992.92
672.10	57162.90
672.29	56745.12
672.48	56669.34
672.68	57623.70
672.87	56937.63
673.06	57529.49
673.25	57033.88
673.44	57099.42
673.64	57035.93
673.83	56771.74
674.02	57103.51
674.21	57056.41
674.40	57214.10
674.59	56837.28
674.79	56810.65
674.98	56751.26
675.17	57177.24
675.36	56693.92
675.55	57103.51
675.74	56870.04
675.94	57085.08
676.13	57281.69
676.32	57572.50
676.51	57179.29
676.70	57447.57
676.89	57328.79
677.08	57597.07
677.28	57103.51
677.47	57564.31
677.66	57619.60
677.85	57021.59
678.04	57451.67
678.23	57703.57
678.42	57398.42
678.62	57144.47
678.81	57396.37
679.00	57423.00
679.19	57943.18
679.38	57312.41
679.57	57560.21
679.76	57330.84
679.96	57302.17
680.15	57398.42
680.34	57545.87
680.53	57160.86
680.72	57898.12
680.91	57752.72
681.10	57367.70
681.29	57615.50
681.48	57617.55
681.68	57285.78
681.87	56829.08
682.06	57554.07
682.25	56669.34
682.44	57240.73
682.63	57345.17
682.82	57369.75
683.01	56908.96
683.20	56722.59
683.39	57177.24
683.59	57115.80
683.78	57154.71
683.97	56906.91
684.16	57109.66
684.35	57255.06
684.54	57160.86
684.73	57310.36
684.92	57037.98
685.11	57179.29
685.30	57037.98
685.49	57420.95
685.69	57259.16
685.88	57060.51
686.07	57076.89
686.26	57214.10
686.45	57382.04
686.64	56767.65
686.83	56990.87
687.02	57312.41
687.21	57431.19
687.40	57318.55
687.59	56997.02
687.78	57173.14
687.97	57242.77
688.16	57199.77
688.35	56812.70
688.54	56810.65
688.74	57281.69
688.93	56988.83
689.12	56673.44
689.31	57017.50
689.50	57201.82
689.69	56448.16
689.88	56491.17
690.07	57246.87
690.26	56720.54
690.45	57228.44
690.64	57062.55
690.83	56747.17
691.02	56349.86
691.21	56837.28
691.40	56824.99
691.59	56706.21
691.78	56745.12
691.97	56673.44
692.16	56824.99
692.35	57169.05
692.54	56876.19
692.73	56816.80
692.92	56693.92
693.11	56603.81
693.30	56824.99
693.49	56581.28
693.68	56599.71
693.87	56622.24
694.06	56206.50
694.25	56274.09
694.44	56661.15
694.63	56763.55
694.82	56591.52
695.01	56241.32
695.20	56413.35
695.39	56229.03
695.58	56616.10
695.77	56325.28
695.96	56149.16
696.15	56456.35
696.34	56366.24
696.53	56425.64
696.72	56224.93
696.91	56360.10
697.10	56556.70
697.29	56489.12
697.48	56865.95
697.67	56235.17
697.86	55948.46
698.05	56128.68
698.24	56249.51
698.43	55764.14
698.62	56177.83
698.81	56050.86
699.00	56652.96
699.19	55964.84
699.38	56075.43
699.57	56118.44
699.76	56763.55
699.95	56290.47
700.14	56147.11
700.32	55870.64
700.51	56302.76
700.70	56337.57
700.89	56433.83
701.08	56347.81
701.27	56245.41
701.46	55798.96
701.65	55561.39
701.84	56110.25
702.03	56095.91
702.22	55889.07
702.41	55473.33
702.60	55776.43
702.79	55794.86
702.98	55678.13
703.17	56157.35
703.35	55674.03
703.54	55239.86
703.73	55825.58
703.92	55631.02
704.11	55407.79
704.30	55499.95
704.49	55303.35
704.68	55497.91
704.87	55305.40
705.06	55526.58
705.25	55243.96
705.43	55514.29
705.62	55264.44
705.81	55006.39
706.00	54648.00
706.19	54947.00
706.38	55026.87
706.57	55243.96
706.76	55153.85
706.95	55010.49
707.14	55430.32
707.32	55014.58
707.51	54801.60
707.70	54895.80
707.89	54584.51
708.08	54926.52
708.27	54699.20
708.46	54740.16
708.65	55039.16
708.84	54887.61
709.02	55133.37
709.21	54856.89
709.40	54596.80
709.59	54627.52
709.78	54615.23
709.97	55084.22
710.16	54355.14
710.34	54447.30
710.53	54744.25
710.72	54234.31
710.91	54549.70
711.10	54557.89
711.29	54580.42
711.48	54830.27
711.66	54328.52
711.85	54238.40
712.04	54295.75
712.23	54355.14
712.42	54240.45
712.61	54621.37
712.80	54246.60
712.98	54228.16
713.17	54058.18
713.36	53963.98
713.55	53822.67
713.74	53894.35
713.93	53853.39
714.11	54334.66
714.30	53642.45
714.49	53480.66
714.68	53753.04
714.87	53830.86
715.06	54260.93
715.24	53525.71
715.43	53347.54
715.62	53406.93
715.81	53497.04
716.00	53605.58
716.18	53671.12
716.37	53081.30
716.56	53093.59
716.75	53474.51
716.94	53425.36
717.12	53015.77
717.31	53566.67
717.50	52948.18
717.69	53073.11
717.88	52993.24
718.06	53155.03
718.25	52958.42
718.44	53214.42
718.63	53087.45
718.82	52696.28
719.00	53187.80
719.19	52733.15
719.38	52749.53
719.57	52151.52
719.76	52399.33
719.94	52266.21
720.13	52358.37
720.32	52319.46
720.51	52546.78
720.69	51858.66
720.88	52153.57
721.07	52040.93
721.26	51789.03
721.44	52012.26
721.63	52110.56
721.82	51764.46
722.01	51829.99
722.20	51961.06
722.38	51819.75
722.57	51080.44
722.76	51373.30
722.95	51490.03
723.13	51080.44
723.32	51262.71
723.51	51102.96
723.70	51049.72
723.88	51160.31
724.07	50783.48
724.26	51574.00
724.44	50468.09
724.63	51000.57
724.82	50853.11
725.01	50582.78
725.19	50902.26
725.38	50617.60
725.57	50525.44
725.76	50306.30
725.94	50472.19
726.13	50746.62
726.32	50420.99
726.51	50136.32
726.69	50648.32
726.88	50474.24
727.07	50613.50
727.25	50339.07
727.44	50201.86
727.63	49853.70
727.82	50238.72
728.00	50382.08
728.19	50128.13
728.38	50109.70
728.56	49620.23
728.75	50242.82
728.94	49700.11
729.12	49937.67
729.31	50201.86
729.50	50085.12
729.69	50535.68
729.87	49612.04
730.06	49796.36
730.25	50095.36
730.43	50654.46
730.62	49702.15
730.81	50070.79
730.99	49929.48
731.18	49988.87
731.37	50115.84
731.55	50152.71
731.74	49859.85
731.93	49753.35
732.11	49958.15
732.30	49964.29
732.49	50083.08
732.67	49593.61
732.86	49419.53
733.05	49679.63
733.23	49411.34
733.42	49595.66
733.61	49437.97
733.79	49782.02
733.98	49571.08
734.17	49732.87
734.35	49499.40
734.54	49927.43
734.73	49677.58
734.91	49442.06
735.10	49485.07
735.29	50048.26
735.47	48852.25
735.66	48928.02
735.84	49190.16
736.03	49077.52
736.22	49706.25
736.40	49349.90
736.59	49605.90
736.78	48950.55
736.96	49061.14
737.15	48899.35
737.33	49055.00
737.52	49040.66
737.71	48688.41
737.89	48524.57
738.08	48878.87
738.27	48684.31
738.45	49116.43
738.64	49124.63
738.82	48413.98
739.01	48526.62
739.20	49026.32
739.38	48641.31
739.57	48925.97
739.75	48700.70
739.94	48694.55
740.13	48469.28
740.31	48409.89
740.50	48231.71
740.68	48368.93
740.87	48731.42
741.06	48256.29
741.24	48162.08
741.43	48141.60
741.61	48233.76
741.80	47975.72
741.99	47795.49
742.17	47742.25
742.36	47846.69
742.54	47754.54
742.73	47912.23
742.91	48264.48
743.10	47576.36
743.29	48166.18
743.47	47732.01
743.66	47418.67
743.84	47439.15
744.03	47631.66
744.21	47547.69
744.40	47645.99
744.59	47447.34
744.77	47398.19
744.96	47351.09
745.14	47498.54
745.33	47643.94
745.51	47809.83
745.70	47592.75
745.88	47637.80
746.07	47639.85
746.26	47185.20
746.44	47152.43
746.63	47150.38
746.81	46841.14
747.00	47066.42
747.18	47060.27
747.37	47093.04
747.55	47084.85
747.74	47420.72
747.92	46544.19
748.11	46652.73
748.29	46622.01
748.48	46935.35
748.66	47052.08
748.85	46632.25
749.03	47035.70
749.22	46247.23
749.41	46521.66
749.59	46724.41
749.78	46196.03
749.96	46198.08
750.15	46560.57
750.33	46224.70
750.52	46323.01
750.70	46198.08
750.89	45876.55
751.07	45604.17
751.26	45948.23
751.44	45917.51
751.63	45942.08
751.81	45780.29
752.00	45763.91
752.18	45860.16
752.37	45725.00
752.55	45700.42
752.74	45628.74
752.92	45632.84
753.10	45557.06
753.29	45821.25
753.47	45595.98
753.66	45247.82
753.84	45233.49
754.03	44883.28
754.21	44899.67
754.40	45233.49
754.58	45225.29
754.77	44991.83
754.95	44731.73
755.14	45180.24
755.32	45008.21
755.51	44322.14
755.69	44811.60
755.88	44610.90
756.06	44918.10
756.24	44369.24
756.43	44465.50
756.61	44914.00
756.80	44619.10
756.98	44205.41
757.17	44459.35
757.35	44635.48
757.54	44320.09
757.72	44490.07
757.90	44340.57
758.09	44006.75
758.27	44324.19
758.46	43818.34
758.64	44516.70
758.83	44567.90
759.01	43832.68
759.19	44082.53
759.38	44782.93
759.56	44721.49
759.75	44090.72
759.93	44311.90
760.12	43869.54
760.30	43709.80
760.48	43892.07
760.67	43795.81
760.85	43834.72
761.04	44070.24
761.22	44064.10
761.40	43617.64
761.59	43650.41
761.77	43386.22
761.96	43726.18
762.14	43099.50
762.32	42958.19
762.51	42995.06
762.69	43296.11
762.88	43267.44
763.06	43160.94
763.24	43095.41
763.43	43199.85
763.61	42833.27
763.80	42818.93
763.98	42968.43
764.16	42894.71
764.35	42818.93
764.53	42601.85
764.72	42659.19
764.90	43087.21
765.08	42366.33
765.27	42558.84
765.45	42278.27
765.63	42263.93
765.82	42661.24
766.00	42149.24
766.18	42134.91
766.37	42677.62
766.55	42186.11
766.74	41977.22
766.92	42190.20
767.10	41805.19
767.29	41835.91
767.47	41676.16
767.65	42263.93
767.84	41792.90
768.02	42192.25
768.20	41753.99
768.39	41706.88
768.57	41862.53
768.75	41543.05
768.94	41960.83
769.12	41737.60
769.30	41373.06
769.49	41211.28
769.67	41299.34
769.85	41018.77
770.04	41276.81
770.22	41186.70
770.40	40934.80
770.59	41147.79
770.77	41221.52
770.95	41145.74
771.14	40977.81
771.32	40658.32
771.50	40592.79
771.69	40877.46
771.87	41024.91
772.05	40584.60
772.24	40543.64
772.42	40801.68
772.60	40576.40
772.78	40525.21
772.97	40129.95
773.15	40506.77
773.33	40623.51
773.52	40254.87
773.70	40267.16
773.88	40254.87
774.07	40146.33
774.25	39800.22
774.43	40203.67
774.61	40400.28
774.80	40600.98
774.98	40355.22
775.16	40437.14
775.34	40572.31
775.53	40138.14
775.71	40551.83
775.89	40469.91
776.08	40101.28
776.26	40768.91
776.44	40267.16
776.62	40244.63
776.81	40035.74
776.99	40416.66
777.17	40381.85
777.35	40514.97
777.54	40629.65
777.72	40416.66
777.90	40383.90
778.08	40875.41
778.27	40322.46
778.45	40863.12
778.63	40684.95
778.81	40342.94
779.00	40803.73
779.18	40588.69
779.36	41051.53
779.54	40723.86
779.73	40723.86
779.91	40801.68
780.09	40570.26
780.27	40869.26
780.46	40854.93
780.64	40693.14
780.82	40820.11
781.00	40781.20
781.19	40885.65
781.37	41002.38
781.55	40932.75
781.73	41264.52
781.91	41037.20
782.10	41168.27
782.28	40924.56
782.46	41383.30
782.64	41444.74
782.82	40994.19
783.01	41219.47
783.19	41186.70
783.37	41393.54
783.55	40881.55
783.74	41553.29
783.92	41033.10
784.10	41311.63
784.28	41235.85
784.46	41063.82
784.64	40826.26
784.83	40947.09
785.01	40977.81
785.19	41321.87
785.37	41049.49
785.55	41475.46
785.74	40899.98
785.92	41020.81
786.10	40904.08
786.28	41020.81
786.46	41086.35
786.64	40893.84
786.83	40859.02
787.01	41037.20
787.19	41065.87
787.37	40613.27
787.55	41055.63
787.74	40261.02
787.92	40695.19
788.10	40304.02
788.28	40590.74
788.46	40713.62
788.64	40203.67
788.82	40654.23
789.01	40545.69
789.19	40629.65
789.37	40207.77
789.55	40267.16
789.73	40316.31
789.91	39863.71
790.09	39867.81
790.28	39687.59
790.46	39493.03
790.64	39996.83
790.82	39943.58
791.00	40035.74
791.18	39671.20
791.36	39558.56
791.55	39499.17
791.73	39495.08
791.91	39454.12
792.09	39478.69
792.27	39148.97
792.45	39458.21
792.63	39214.51
792.81	39646.63
793.00	39003.56
793.18	38892.97
793.36	38815.15
793.54	38858.16
793.72	38708.66
793.90	38571.44
794.08	38671.79
794.26	38493.62
794.44	38036.92
794.62	38294.97
794.81	38700.47
794.99	38100.41
795.17	38194.62
795.35	38206.90
795.53	38006.20
795.71	38186.43
795.89	38274.49
796.07	37656.00
796.25	37656.00
796.43	37672.39
796.61	37209.54
796.80	37520.84
796.98	37533.12
797.16	37539.27
797.34	37150.15
797.52	37324.23
797.70	37361.09
797.88	36861.39
798.06	36896.20
798.24	36955.60
798.42	36935.12
798.60	36660.69
798.78	36892.11
798.96	36802.00
799.14	36492.76
799.32	36656.59
799.51	36455.89
799.69	36365.78
799.87	36267.48
800.05	36095.45
800.23	36351.45
800.41	35980.76
800.59	36414.93
800.77	35681.76
800.95	35591.65
801.13	35595.74
801.31	35497.44
801.49	35696.10
801.67	35624.42
801.85	35562.98
802.03	35356.13
802.21	35153.38
802.39	35370.47
802.57	35085.80
802.75	35184.10
802.93	35155.43
803.11	34602.48
803.29	34584.05
803.47	34639.34
803.65	34495.99
803.83	34975.21
804.01	34715.12
804.19	34172.41
804.37	34133.50
804.55	34491.89
804.73	34287.09
804.91	34178.55
805.09	34110.97
805.27	34418.16
805.45	34141.69
805.63	33957.37
805.81	34012.66
805.99	34125.30
806.17	33826.30
806.35	33619.46
806.53	33719.81
806.71	34178.55
806.89	33467.91
807.07	33578.50
807.25	33969.66
807.43	33494.53
807.61	33664.51
807.79	33336.84
807.97	33146.37
808.15	33127.94
808.33	33005.06
808.51	33050.12
808.69	33230.34
808.87	32986.63
809.05	32779.79
809.23	32480.78
809.41	32513.55
809.59	32478.74
809.77	32667.15
809.95	32282.13
810.13	32402.96
810.31	32564.75
810.49	32609.81
810.67	32488.98
810.84	31964.70
811.02	31960.60
811.20	31999.51
811.38	32048.66
811.56	31798.81
811.74	32171.54
811.92	32017.94
812.10	31999.51
812.28	32243.22
812.46	31938.07
812.64	31938.07
812.82	32032.28
813.00	31620.64
813.18	31905.31
813.36	31405.60
813.53	31385.12
813.71	31233.57
813.89	31317.54
814.07	31288.87
814.25	31520.29
814.43	30909.99
814.61	31061.54
814.79	31153.70
814.97	30836.27
815.15	31069.73
815.33	30541.36
815.50	30443.06
815.68	31268.39
815.86	30883.37
816.04	30813.74
816.22	30434.86
816.40	30488.11
816.58	30311.99
816.76	30514.73
816.94	30258.74
817.11	30029.37
817.29	30211.64
817.47	30193.20
817.65	30197.30
817.83	30185.01
818.01	29931.06
818.19	29929.02
818.37	30058.04
818.54	29466.17
818.72	29916.73
818.90	29904.44
819.08	29814.33
819.26	30365.23
819.44	29881.91
819.62	29630.01
819.80	29789.75
819.97	29613.63
820.15	29675.07
820.33	29314.62
820.51	29587.00
820.69	29277.76
820.87	29398.59
821.05	29388.35
821.22	29437.50
821.40	29118.02
821.58	29011.53
821.76	29177.41
821.94	29005.38
822.12	29296.19
822.29	29367.87
822.47	28798.54
822.65	29181.51
822.83	29091.40
823.01	28956.23
823.19	28886.60
823.36	28626.51
823.54	28849.74
823.72	28458.57
823.90	28753.48
824.08	28399.18
824.25	28757.58
824.43	28495.44
824.61	28804.68
824.79	28667.47
824.97	28374.61
825.15	28663.37
825.32	28489.29
825.50	28339.79
825.68	28100.18
825.86	28411.47
826.04	28407.37
826.21	28472.91
826.39	28253.78
826.57	28284.50
826.75	28034.64
826.93	28112.47
827.10	27969.11
827.28	28208.72
827.46	28094.04
827.64	27706.97
827.81	28173.91
827.99	27934.29
828.17	27803.22
828.35	27823.70
828.53	27410.01
828.70	27623.00
828.88	27803.22
829.06	27666.01
829.24	27481.69
829.41	27565.66
829.59	27885.14
829.77	27440.73
829.95	27680.35
830.12	27510.36
830.30	27725.40
830.48	27493.98
830.66	27440.73
830.84	27786.84
831.01	27287.14
831.19	27344.48
831.37	27194.98
831.55	27022.95
831.72	27321.95
831.90	27213.41
832.08	27293.28
832.25	27182.69
832.43	27111.01
832.61	26764.90
832.79	27055.72
832.96	27162.21
833.14	27051.62
833.32	27063.91
833.50	26869.35
833.67	26791.53
833.85	26969.70
834.03	26830.44
834.20	27205.22
834.38	26678.89
834.56	26746.47
834.74	26685.03
834.91	26898.02
835.09	26457.71
835.27	26291.82
835.44	26408.56
835.62	26158.70
835.80	26164.85
835.98	26146.42
836.15	26230.38
836.33	26537.58
836.51	26211.95
836.68	26369.65
836.86	26515.05
837.04	26064.50
837.21	26422.89
837.39	26201.71
837.57	26351.21
837.75	26431.08
837.92	25962.10
838.10	25890.42
838.28	25812.60
838.45	26123.89
838.63	25919.09
838.81	26070.64
838.98	25788.02
839.16	25761.40
839.34	25620.09
839.51	25476.73
839.69	25392.76
839.87	25734.78
840.04	25667.19
840.22	26037.87
840.40	25554.55
840.57	25478.78
840.75	25382.52
840.93	25495.16
841.10	25474.68
841.28	25910.90
841.46	25388.67
841.63	25204.35
841.81	25382.52
841.98	25411.20
842.16	25802.36
842.34	25523.83
842.51	25214.59
842.69	24968.84
842.87	25153.15
843.04	25159.30
843.22	24942.21
843.40	25046.66
843.57	24970.88
843.75	25134.72
843.92	25259.65
844.10	24905.35
844.28	25339.52
844.45	24774.28
844.63	25134.72
844.81	24667.78
844.98	25204.35
845.16	24897.16
845.33	24823.43
845.51	24731.27
845.69	25042.56
845.86	24514.19
846.04	24831.62
846.21	24655.50
846.39	24737.41
846.57	24546.95
846.74	24841.86
846.92	24589.96
847.09	24532.62
847.27	24245.90
847.45	24391.31
847.62	24575.62
847.80	24278.67
847.97	24673.93
848.15	24503.95
848.32	24217.23
848.50	24567.43
848.68	24215.18
848.85	24153.74
849.03	23971.47
849.20	24198.80
849.38	23944.85
849.56	24274.57
849.73	23920.28
849.91	24053.39
850.08	24233.61
850.26	23998.10
850.43	24059.54
850.61	23766.68
850.78	23545.50
850.96	23744.15
851.14	23654.04
851.31	23979.67
851.49	23811.73
851.66	23789.20
851.84	23637.66
852.01	23844.50
852.19	23746.20
852.36	23670.42
852.54	23662.23
852.71	23965.33
852.89	23393.95
853.07	23746.20
853.24	23637.66
853.42	23471.77
853.59	23490.20
853.77	23629.46
853.94	23471.77
854.12	23764.63
854.29	23457.43
854.47	23180.96
854.64	23453.34
854.82	23162.53
854.99	23631.51
855.17	23092.90
855.34	22996.64
855.52	23135.90
855.69	23406.23
855.87	23031.46
856.04	22873.76
856.22	23127.71
856.39	23180.96
856.57	23178.91
856.74	23017.12
856.92	23056.03
857.09	22838.95
857.27	22947.49
857.44	22978.21
857.62	22728.36
857.79	22978.21
857.97	22892.19
858.14	22746.79
858.32	22402.73
858.49	22709.93
858.67	22429.35
858.84	22597.29
859.02	22830.76
859.19	22513.32
859.37	22460.07
859.54	22677.16
859.72	22587.05
859.89	22492.84
860.06	22572.71
860.24	22705.83
860.41	22644.39
860.59	22197.93
860.76	22369.96
860.94	22484.65
861.11	22394.54
861.29	22380.20
861.46	22259.37
861.64	22445.74
861.81	22236.84
861.98	22056.62
862.16	22226.60
862.33	21925.55
862.51	21800.63
862.68	22136.49
862.86	21802.68
863.03	21655.22
863.21	21888.69
863.38	21833.39
863.55	21763.76
863.73	21782.20
863.90	22044.34
864.08	21575.35
864.25	21964.46
864.43	21792.44
864.60	21632.69
864.77	21704.37
864.95	21591.73
865.12	21532.34
865.30	21778.10
865.47	21302.97
865.64	21108.41
865.82	21776.05
865.99	21702.32
866.17	21305.02
866.34	21520.06
866.51	21196.48
866.69	21522.10
866.86	21309.11
867.04	21319.35
867.21	21089.98
867.38	21419.71
867.56	21184.19
867.73	21229.24
867.91	20954.82
868.08	20989.63
868.25	20780.74
868.43	20864.71
868.60	21040.83
868.78	21024.45
868.95	21026.50
869.12	20879.04
869.30	20922.05
869.47	20881.09
869.64	20727.49
869.82	20629.19
869.99	20491.98
870.16	20735.68
870.34	20692.68
870.51	20741.83
870.69	20541.13
870.86	20623.05
871.03	20723.40
871.21	20440.78
871.38	20479.69
871.55	20336.33
871.73	20205.26
871.90	20207.31
872.07	20242.12
872.25	20211.40
872.42	20152.01
872.59	20031.18
872.77	20227.79
872.94	20109.01
873.11	20002.51
873.29	19926.74
873.46	20033.23
873.63	20164.30
873.81	19918.54
873.98	19769.04
874.15	20039.37
874.33	19455.70
874.50	19625.68
874.67	19855.06
874.85	19654.36
875.02	19705.56
875.19	19240.67
875.37	19451.61
875.54	19394.26
875.71	19566.29
875.88	19189.47
876.06	19134.17
876.23	19373.78
876.40	19283.67
876.58	19240.67
876.75	19373.78
876.92	19105.50
877.10	19472.09
877.27	19287.77
877.44	19207.90
877.61	19033.82
877.79	18974.43
877.96	19007.20
878.13	18802.40
878.31	18804.45
878.48	18630.37
878.65	18626.28
878.82	18616.04
879.00	18648.80
879.17	18556.64
879.34	18814.69
879.51	18489.06
879.69	18478.82
879.86	18185.96
880.03	18609.89
880.21	18376.42
880.38	18521.83
880.55	18573.03
880.72	18200.30
880.90	18155.24
881.07	18548.45
881.24	18476.77
881.41	18036.46
881.59	18437.86
881.76	18058.99
881.93	17983.21
882.10	17946.35
882.28	18175.72
882.45	18120.43
882.62	18104.04
882.79	17897.20
882.96	17829.62
883.14	18061.04
883.31	17993.45
883.48	17655.54
883.65	18196.20
883.83	17858.29
884.00	17809.14
884.17	17655.54
884.34	17739.51
884.51	17860.34
884.69	17614.58
884.86	17762.03
885.03	17802.99
885.20	17430.26
885.38	17860.34
885.55	17778.42
885.72	17528.56
885.89	17555.19
886.06	17479.41
886.24	17524.47
886.41	17483.51
886.58	17594.10
886.75	17708.79
886.92	17204.99
887.10	17700.59
887.27	17118.97
887.44	17325.82
887.61	17364.73
887.78	17354.49
887.95	17501.94
888.13	17266.42
888.30	17092.35
888.47	17270.52
888.64	17250.04
888.81	17293.05
888.99	17264.38
889.16	16985.85
889.33	17002.24
889.50	16875.26
889.67	17112.83
889.84	16977.66
890.01	16994.04
890.19	16695.04
890.36	16942.85
890.53	16879.36
890.70	16836.35
890.87	16748.29
891.04	16746.24
891.22	16748.29
891.39	16766.72
891.56	16604.93
891.73	16688.90
891.90	16533.25
892.07	16670.47
892.24	16473.86
892.42	16580.36
892.59	16609.03
892.76	16383.75
892.93	16346.89
893.10	16324.36
893.27	16457.48
893.44	16441.09
893.61	16326.41
893.79	16576.26
893.96	16236.30
894.13	16437.00
894.30	16121.61
894.47	16181.00
894.64	16461.57
894.81	16105.23
894.98	16230.15
895.15	16164.62
895.33	16152.33
895.50	16236.30
895.67	16121.61
895.84	16201.48
896.01	16097.03
896.18	16113.42
896.35	16289.54
896.52	16090.89
896.69	16152.33
896.86	16232.20
897.04	16232.20
897.21	16131.85
897.38	16461.57
897.55	16092.94
897.72	16217.86
897.89	15929.10
898.06	15980.30
898.23	16080.65
898.40	16004.88
898.57	15918.86
898.74	15992.59
898.91	16119.56
899.08	16072.46
899.26	15963.92
899.43	16097.03
899.60	15669.01
899.77	15920.91
899.94	15939.34
900.11	15652.63
900.28	16103.18
900.45	15912.72
900.62	15937.29
900.79	15994.64
900.96	15859.47
901.13	15853.33
901.30	15861.52
901.47	15847.18
901.64	15931.15
901.81	15927.05
901.98	15826.70
902.15	16283.40
902.32	15722.26
902.49	15869.71
902.66	15927.05
902.83	16058.12
903.01	15757.07
903.18	16097.03
903.35	15863.57
903.52	15922.96
903.69	15916.81
903.86	16060.17
904.03	15968.01
904.20	15974.16
904.37	15877.90
904.54	16097.03
904.71	15697.68
904.88	15658.77
905.05	15730.45
905.22	15820.56
905.39	15765.26
905.56	15664.91
905.73	15648.53
905.90	15804.17
906.07	15685.39
906.24	15925.00
906.41	15445.78
906.58	15804.17
906.75	15744.78
906.92	15621.91
907.09	15585.04
907.26	15750.93
907.43	15408.92
907.60	15607.57
907.77	15871.76
907.93	15621.91
908.10	15648.53
908.27	15615.76
908.44	15605.52
908.61	15359.77
908.78	15517.46
908.95	15531.80
909.12	15677.20
909.29	15689.49
909.46	15648.53
909.63	15648.53
909.80	15699.73
909.97	15648.53
910.14	15712.02
910.31	15638.29
910.48	15570.71
910.65	15517.46
910.82	15384.34
910.99	15202.07
911.16	15396.63
911.33	15359.77
911.50	15544.08
911.66	15251.22
911.83	15453.97
912.00	15232.79
912.17	15187.74
912.34	15216.41
912.51	15249.18
912.68	15351.57
912.85	15116.06
913.02	15224.60
913.19	14984.99
913.36	15011.61
913.53	14929.69
913.70	15107.87
913.86	15038.23
914.03	14966.56
914.20	14941.98
914.37	15064.86
914.54	14794.53
914.71	15011.61
914.88	14896.92
915.05	14796.57
915.22	14688.03
915.39	14868.25
915.55	14829.34
915.72	14739.23
915.89	14440.23
916.06	14352.16
916.23	14726.94
916.40	14479.14
916.57	14415.65
916.74	14364.45
916.91	14419.75
917.07	14180.14
917.24	14149.42
917.41	14167.85
917.58	14270.25
917.75	14184.23
917.92	13979.43
918.09	14143.27
918.26	13932.33
918.42	14217.00
918.59	14065.45
918.76	13979.43
918.93	13846.32
919.10	13719.34
919.27	13782.83
919.44	14100.26
919.60	13961.00
919.77	13668.14
919.94	13803.31
920.11	13635.38
920.28	13623.09
920.45	13551.41
920.61	13352.76
920.78	13410.10
920.95	13309.75
921.12	13586.22
921.29	13530.93
921.46	13279.03
921.62	13070.14
921.79	13180.73
921.96	13098.81
922.13	13074.23
922.30	13025.08
922.47	13020.99
922.63	12832.57
922.80	13020.99
922.97	12818.24
923.14	12691.26
923.31	12779.32
923.47	12721.98
923.64	12713.79
923.81	12758.85
923.98	12513.09
924.15	12558.14
924.32	12621.63
924.48	12541.76
924.65	12343.11
924.82	12406.59
924.99	12197.70
925.15	12031.82
925.32	12351.30
925.49	12154.69
925.66	12019.53
925.83	12091.21
925.99	12005.19
926.16	12195.65
926.33	12005.19
926.50	11716.43
926.67	11882.31
926.83	11763.53
927.00	11632.46
927.17	11738.96
927.34	11562.83
927.50	11659.09
927.67	11679.57
927.84	11321.17
928.01	11427.67
928.17	11571.02
928.34	11292.50
928.51	11315.03
928.68	11351.89
928.84	11306.84
929.01	11151.19
929.18	11097.94
929.35	11233.11
929.51	11102.04
929.68	11155.29
929.85	10819.42
930.02	10848.09
930.18	10921.82
930.35	10862.43
930.52	10676.06
930.69	10676.06
930.85	10678.11
931.02	10620.77
931.19	10555.23
931.36	10561.37
931.52	10544.99
931.69	10598.24
931.86	10192.74
932.02	10389.35
932.19	10381.15
932.36	10020.71
932.53	10276.71
932.69	10073.96
932.86	10250.08
933.03	9895.78
933.19	9887.59
933.36	9922.41
933.53	9871.21
933.70	9625.45
933.86	9955.18
934.03	9727.85
934.20	9662.32
934.36	9457.52
934.53	9340.79
934.70	9478.00
934.86	9404.27
935.03	9310.07
935.20	9254.77
935.36	9281.39
935.53	9072.50
935.70	8816.51
935.86	9117.56
936.03	8861.56
936.20	8783.74
936.36	8695.68
936.53	8576.89
936.70	8755.07
936.86	8701.82
937.03	8617.85
937.20	8517.50
937.36	8615.80
937.53	8173.44
937.70	8107.91
937.86	7997.32
938.03	7890.82
938.20	8105.86
938.36	7882.63
938.53	7731.08
938.70	7665.55
938.86	7546.76
939.03	7495.57
939.20	7382.93
939.36	7462.80
939.53	7278.48
939.70	7493.52
939.86	7045.01
940.03	7118.74
940.19	6909.85
940.36	6909.85
940.53	6932.37
940.69	6672.28
940.86	6901.65
941.03	6631.32
941.19	6465.44
941.36	6635.42
941.52	6434.72
941.69	6354.85
941.86	6389.66
942.02	6295.46
942.19	6301.60
942.35	6262.69
942.52	6088.61
942.69	5975.97
942.85	5916.58
943.02	5875.62
943.18	6074.28
943.35	5873.57
943.52	5834.66
943.68	5744.55
943.85	5732.26
944.01	5801.90
944.18	5582.76
944.35	5877.67
944.51	5588.91
944.68	5443.50
944.84	5523.37
945.01	5443.50
945.17	5560.24
945.34	5443.50
945.51	5550.00
945.67	5457.84
945.84	5445.55
946.00	5373.87
946.17	5463.98
946.33	5406.64
946.50	5490.60
946.67	5222.32
946.83	5328.81
947.00	5363.63
947.16	5375.92
947.33	5394.35
947.49	5369.77
947.66	5306.29
947.82	5207.98
947.99	5328.81
948.16	5396.40
948.32	5298.10
948.49	5349.29
948.65	5429.17
948.82	5427.12
948.98	5269.42
949.15	5244.85
949.31	5431.21
949.48	5275.57
949.64	5328.81
949.81	5353.39
949.97	5226.42
950.14	5334.96
950.30	5175.22
950.47	5443.50
950.63	5267.38
950.80	5332.91
950.96	5232.56
951.13	5375.92
951.30	5392.30
951.46	5363.63
951.63	5541.80
951.79	5521.32
951.96	5457.84
952.12	5269.42
952.29	5500.84
952.45	5365.68
952.62	5314.48
952.78	5593.00
952.94	5474.22
953.11	5353.39
953.27	5218.22
953.44	5502.89
953.60	5390.25
953.77	5523.37
953.93	5429.17
954.10	5402.54
954.26	5441.45
954.43	5365.68
954.59	5394.35
954.76	5496.75
954.92	5533.61
955.09	5355.44
955.25	5441.45
955.42	5406.64
955.58	5586.86
955.75	5498.80
955.91	5595.05
956.07	5523.37
956.24	5541.80
956.40	5498.80
956.57	5500.84
956.73	5414.83
956.90	5539.76
957.06	5455.79
957.23	5541.80
957.39	5476.27
957.56	5365.68
957.72	5416.88
957.88	5484.46
958.05	5506.99
958.21	5615.53
958.38	5367.73
958.54	5625.77
958.71	5640.11
958.87	5482.41
959.03	5425.07
959.20	5451.69
959.36	5396.40
959.53	5437.36
959.69	5398.45
959.85	5492.65
960.02	5255.09
960.18	5476.27
960.35	5420.97
960.51	5351.34
960.68	5431.21
960.84	5504.94
961.00	5506.99
961.17	5386.16
961.33	5506.99
961.50	5357.49
961.66	5445.55
961.82	5281.71
961.99	5435.31
962.15	5367.73
962.31	5302.19
962.48	5478.32
962.64	5509.04
962.81	5511.08
962.97	5273.52
963.13	5603.24
963.30	5423.02
963.46	5271.47
963.62	5359.53
963.79	5488.56
963.95	5357.49
964.12	5279.66
964.28	5390.25
964.44	5277.62
964.61	5488.56
964.77	5474.22
964.93	5480.36
965.10	5304.24
965.26	5349.29
965.42	5365.68
965.59	5236.66
965.75	5232.56
965.92	5431.21
966.08	5468.08
966.24	5302.19
966.41	5179.31
966.57	5228.46
966.73	5271.47
966.90	5351.34
967.06	5158.83
967.22	5191.60
967.39	5285.81
967.55	5148.59
967.71	5287.86
967.88	5271.47
968.04	5220.27
968.20	5238.70
968.37	5101.49
968.53	5130.16
968.69	5146.55
968.85	5177.26
969.02	5189.55
969.18	5132.21
969.34	5173.17
969.51	5304.24
969.67	5154.74
969.83	5035.96
970.00	5115.83
970.16	5093.30
970.32	5181.36
970.48	5140.40
970.65	4972.47
970.81	5062.58
970.97	4960.18
971.14	4931.51
971.30	5083.06
971.46	5009.33
971.63	4992.95
971.79	5007.28
971.95	4974.52
972.11	4857.78
972.28	5033.91
972.44	5058.48
972.60	4954.04
972.76	4980.66
972.93	4868.02
973.09	4984.76
973.25	4978.61
973.42	4800.44
973.58	4855.73
973.74	4822.97
973.90	4851.64
974.07	4816.82
974.23	4888.50
974.39	4896.69
974.55	4786.10
974.72	4790.20
974.88	4710.33
975.04	4786.10
975.20	4784.06
975.37	4919.22
975.53	4800.44
975.69	4786.10
975.85	4730.81
976.01	4681.66
976.18	4687.80
976.34	4685.75
976.50	4626.36
976.66	4796.34
976.83	4552.63
976.99	4636.60
977.15	4620.22
977.31	4515.77
977.47	4683.70
977.64	4628.41
977.80	4695.99
977.96	4542.39
978.12	4558.78
978.29	4597.69
978.45	4429.76
978.61	4595.64
978.77	4632.51
978.93	4532.15
979.10	4532.15
979.26	4476.86
979.42	4476.86
979.58	4540.35
979.74	4474.81
979.91	4485.05
980.07	4431.80
980.23	4528.06
980.39	4472.76
980.55	4349.89
980.71	4321.21
980.88	4272.06
981.04	4403.13
981.20	4108.23
981.36	4413.37
981.52	4353.98
981.68	4368.32
981.85	4319.17
982.01	4325.31
982.17	4194.24
982.33	4313.02
982.49	4368.32
982.65	4257.73
982.82	4263.87
982.98	4288.45
983.14	4181.95
983.30	4296.64
983.46	4259.78
983.62	4329.41
983.79	4280.25
983.95	4222.91
984.11	4059.07
984.27	4163.52
984.43	4114.37
984.59	4026.31
984.75	4255.68
984.91	4052.93
985.08	4200.38
985.24	4108.23
985.40	3825.61
985.56	4100.03
985.72	4155.33
985.88	4179.90
986.04	4118.47
986.20	3940.29
986.37	4118.47
986.53	4073.41
986.69	4112.32
986.85	3966.92
987.01	3989.44
987.17	4116.42
987.33	3829.70
987.49	3971.01
987.65	4052.93
987.82	4022.21
987.98	3919.81
988.14	3901.38
988.30	4032.45
988.46	3895.24
988.62	3944.39
988.78	3887.04
988.94	3950.53
989.10	3827.65
989.26	3827.65
989.42	3862.47
989.59	3801.03
989.75	3833.80
989.91	3854.28
990.07	3538.89
990.23	3846.09
990.39	3768.26
990.55	3723.21
990.71	3690.44
990.87	3794.89
991.03	3936.20
991.19	3766.21
991.35	3803.08
991.51	3735.50
991.67	3770.31
991.83	3657.67
992.00	3702.73
992.16	3682.25
992.32	3659.72
992.48	3669.96
992.64	3557.32
992.80	3684.30
992.96	3635.14
993.12	3631.05
993.28	3680.20
993.44	3622.86
993.60	3585.99
993.76	3604.42
993.92	3567.56
994.08	3629.00
994.24	3653.58
994.40	3561.42
994.56	3590.09
994.72	3522.51
994.88	3442.64
995.04	3456.97
995.20	3385.29
995.36	3502.03
995.52	3532.75
995.68	3477.45
995.84	3399.63
996.00	3528.65
996.16	3475.40
996.32	3399.63
996.48	3377.10
996.64	3393.48
996.80	3438.54
996.96	3477.45
997.12	3289.04
997.28	3327.95
997.44	3461.07
997.60	3383.24
997.76	3231.69
997.92	3407.82
998.08	3375.05
998.24	3157.97
998.40	3370.96
998.56	3467.21
998.72	3260.37
998.88	3340.24
999.04	3190.74
999.20	3330.00
999.36	3203.02
999.52	3319.76
999.68	3233.74
999.84	3289.04
1000.00	3180.50
1000.16	3385.29
1000.32	3125.20
1000.48	3346.38
1000.64	3151.82
1000.80	3174.35
1000.95	3123.15
1001.11	3200.98
1001.27	3166.16
1001.43	3166.16
1001.59	3172.30
1001.75	3063.76
1001.91	3121.10
1002.07	2955.22
1002.23	3104.72
1002.39	3209.17
1002.55	3020.75
1002.71	3059.67
1002.87	2983.89
1003.03	3125.20
1003.19	3098.58
1003.34	3162.06
1003.50	3026.90
1003.66	3076.05
1003.82	3061.71
1003.98	3035.09
1004.14	3014.61
1004.30	3047.38
1004.46	2983.89
1004.62	3020.75
1004.78	2924.50
1004.94	2983.89
1005.09	3047.38
1005.25	2967.51
1005.41	2994.13
1005.57	3057.62
1005.73	2891.73
1005.89	2959.31
1006.05	2942.93
1006.21	2949.08
1006.37	2836.44
1006.52	2787.29
1006.68	2852.82
1006.84	2971.60
1007.00	2916.31
1007.16	2977.75
1007.32	2713.56
1007.48	2883.54
1007.64	2826.20
1007.79	2869.20
1007.95	2750.42
1008.11	2877.40
1008.27	2861.01
1008.43	2793.43
1008.59	2715.61
1008.75	2928.60
1008.91	2768.85
1009.06	2871.25
1009.22	2877.40
1009.38	2863.06
1009.54	2813.91
1009.70	2789.33
1009.86	2824.15
1010.01	2754.52
1010.17	2682.84
1010.33	2787.29
1010.49	2727.89
1010.65	2887.64
1010.81	2609.11
1010.96	2748.37
1011.12	2693.08
1011.28	2648.02
1011.44	2807.77
1011.60	2760.66
1011.76	2684.89
1011.91	2682.84
1012.07	2580.44
1012.23	2531.29
1012.39	2609.11
1012.55	2695.13
1012.71	2570.20
1012.86	2588.63
1013.02	2576.34
1013.18	2588.63
1013.34	2592.73
1013.50	2695.13
1013.65	2598.87
1013.81	2592.73
1013.97	2588.63
1014.13	2607.06
1014.29	2592.73
1014.44	2678.74
1014.60	2582.49
1014.76	2519.00
1014.92	2519.00
1015.07	2584.54
1015.23	2615.26
1015.39	2475.99
1015.55	2588.63
1015.71	2623.45
1015.86	2535.39
1016.02	2475.99
1016.18	2301.92
1016.34	2473.95
1016.49	2471.90
1016.65	2494.43
1016.81	2508.76
1016.97	2441.18
1017.12	2586.58
1017.28	2385.88
1017.44	2412.51
1017.60	2494.43
1017.75	2447.32
1017.91	2549.72
1018.07	2402.27
1018.23	2392.03
1018.38	2412.51
1018.54	2432.99
1018.70	2402.27
1018.86	2344.92
1019.01	2381.79
1019.17	2371.55
1019.33	2559.96
1019.49	2379.74
1019.64	2439.13
1019.80	2473.95
1019.96	2408.41
1020.12	2418.65
1020.27	2355.16
1020.43	2312.16
1020.59	2432.99
1020.74	2355.16
1020.90	2379.74
1021.06	2263.01
1021.22	2355.16
1021.37	2297.82
1021.53	2332.64
1021.69	2412.51
1021.84	2256.86
1022.00	2273.25
1022.16	2318.30
1022.31	2273.25
1022.47	2308.06
1022.63	2412.51
1022.79	2226.14
1022.94	2299.87
1023.10	2398.17
1023.26	2297.82
1023.41	2228.19
1023.57	2301.92
1023.73	2306.01
1023.88	2236.38
1024.04	2183.13
1024.20	2148.32
1024.35	2260.96
1024.51	2256.86
1024.67	2150.37
1024.82	2240.48
1024.98	2146.27
1025.14	2269.15
1025.29	2109.41
1025.45	2287.58
1025.61	2146.27
1025.76	2140.13
1025.92	2179.04
1026.08	2215.90
1026.23	2281.44
1026.39	2209.76
1026.55	2205.66
1026.70	2121.70
1026.86	2164.70
1027.02	2174.94
1027.17	2158.56
1027.33	2162.66
1027.48	2123.74
1027.64	2195.42
1027.80	2129.89
1027.95	2230.24
1028.11	2043.87
1028.27	2133.98
1028.42	2140.13
1028.58	2138.08
1028.73	2162.66
1028.89	2056.16
1029.05	2121.70
1029.20	2148.32
>>>>>End Processed Spectral Data<<<<<
