SpectraSuite Data File
++++++++++++++++++++++++++++++++++++
Date: Fri Jun 02 14:52:24 CEST 2017
User: INFO_000
Dark Spectrum Present: No
Reference Spectrum Present: No
Number of Sampled Component Spectra: 1
Spectrometers: USB4H00879
Integration Time (usec): 80000 (USB4H00879)
Spectra Averaged: 1 (USB4H00879)
Boxcar Smoothing: 0 (USB4H00879)
Correct for Electrical Dark: No (USB4H00879)
Strobe/Lamp Enabled: No (USB4H00879)
Correct for Detector Non-linearity: No (USB4H00879)
Correct for Stray Light: No (USB4H00879)
Number of Pixels in Processed Spectrum: 3648
>>>>>Begin Processed Spectral Data<<<<<
345.13	1273.84
345.34	1273.84
345.56	1273.84
345.78	1243.12
345.99	1265.64
346.21	1761.25
346.42	1619.94
346.64	1634.28
346.86	1773.54
347.07	1642.47
347.29	1685.48
347.50	1646.57
347.72	1724.39
347.94	1765.35
348.15	1568.74
348.37	1634.28
348.59	1675.24
348.80	1665.00
349.02	1738.73
349.23	1839.08
349.45	1894.37
349.67	1929.19
349.88	1771.49
350.10	1972.19
350.31	1861.60
350.53	1798.12
350.75	1957.86
350.96	1771.49
351.18	1882.08
351.39	1783.78
351.61	1783.78
351.82	1843.17
352.04	1900.52
352.26	1882.08
352.47	1955.81
352.69	1929.19
352.90	1783.78
353.12	1820.64
353.34	1898.47
353.55	1961.95
353.77	1822.69
353.98	1941.47
354.20	1822.69
354.41	1953.76
354.63	1974.24
354.85	2105.31
355.06	1908.71
355.28	1710.05
355.49	1875.94
355.71	1875.94
355.92	1900.52
356.14	1957.86
356.35	1933.28
356.57	1796.07
356.79	1908.71
357.00	1892.32
357.22	1984.48
357.43	1894.37
357.65	1988.58
357.86	1927.14
358.08	1896.42
358.29	1978.34
358.51	2039.78
358.72	1904.61
358.94	1978.34
359.16	1970.15
359.37	2007.01
359.59	1982.43
359.80	1974.24
360.02	2015.20
360.23	2002.91
360.45	2041.82
360.66	1904.61
360.88	1884.13
361.09	1880.04
361.31	2004.96
361.52	1906.66
361.74	2009.06
361.95	2045.92
362.17	2009.06
362.38	2095.07
362.60	2009.06
362.81	1957.86
363.03	1904.61
363.24	1972.19
363.46	2002.91
363.67	2000.87
363.89	1998.82
364.10	2043.87
364.32	1951.71
364.53	2052.06
364.75	1955.81
364.96	2058.21
365.18	2039.78
365.39	2013.15
365.61	2052.06
365.82	2103.26
366.04	1974.24
366.25	2017.25
366.47	2121.70
366.68	2082.78
366.90	1937.38
367.11	2009.06
367.33	2039.78
367.54	2099.17
367.76	2043.87
367.97	2176.99
368.19	2039.78
368.40	2033.63
368.62	1961.95
368.83	1978.34
369.05	2019.30
369.26	2031.58
369.48	2000.87
369.69	2002.91
369.91	2117.60
370.12	2095.07
370.33	2099.17
370.55	2009.06
370.76	2093.02
370.98	2166.75
371.19	2078.69
371.41	2127.84
371.62	2103.26
371.84	2066.40
372.05	2209.76
372.27	2121.70
372.48	2095.07
372.69	2043.87
372.91	2072.54
373.12	2162.66
373.34	2140.13
373.55	2123.74
373.77	2191.33
373.98	2170.85
374.20	2125.79
374.41	2185.18
374.62	2144.22
374.84	2224.09
375.05	2252.77
375.27	2174.94
375.48	2209.76
375.70	2185.18
375.91	2191.33
376.12	2324.44
376.34	2150.37
376.55	2181.09
376.77	2248.67
376.98	2150.37
377.19	2252.77
377.41	2117.60
377.62	2238.43
377.84	2273.25
378.05	2301.92
378.27	2176.99
378.48	2371.55
378.69	2346.97
378.91	2263.01
379.12	2275.29
379.34	2301.92
379.55	2377.69
379.76	2260.96
379.98	2217.95
380.19	2295.77
380.41	2263.01
380.62	2361.31
380.83	2271.20
381.05	2242.53
381.26	2447.32
381.47	2291.68
381.69	2277.34
381.90	2344.92
382.12	2271.20
382.33	2336.73
382.54	2359.26
382.76	2336.73
382.97	2326.49
383.19	2326.49
383.40	2410.46
383.61	2363.36
383.83	2291.68
384.04	2394.08
384.25	2346.97
384.47	2443.23
384.68	2439.13
384.89	2299.87
385.11	2430.94
385.32	2385.88
385.54	2353.12
385.75	2316.25
385.96	2432.99
386.18	2389.98
386.39	2418.65
386.60	2381.79
386.82	2385.88
387.03	2416.60
387.24	2490.33
387.46	2494.43
387.67	2502.62
387.88	2617.30
388.10	2533.34
388.31	2437.08
388.52	2553.82
388.74	2449.37
388.95	2559.96
389.16	2566.10
389.38	2478.04
389.59	2502.62
389.80	2629.59
390.02	2609.11
390.23	2607.06
390.44	2654.17
390.66	2516.95
390.87	2398.17
391.08	2672.60
391.30	2600.92
391.51	2627.54
391.72	2781.14
391.94	2648.02
392.15	2625.50
392.36	2654.17
392.58	2590.68
392.79	2639.83
393.00	2660.31
393.22	2619.35
393.43	2826.20
393.64	2863.06
393.85	2777.05
394.07	2594.78
394.28	2688.98
394.49	2752.47
394.71	2797.53
394.92	2775.00
395.13	2697.17
395.35	2666.46
395.56	2777.05
395.77	2775.00
395.98	2811.86
396.20	2883.54
396.41	2809.81
396.62	2824.15
396.84	2879.44
397.05	2899.92
397.26	2928.60
397.47	2887.64
397.69	2772.95
397.90	3092.43
398.11	2967.51
398.32	2901.97
398.54	2910.16
398.75	2961.36
398.96	2973.65
399.18	2959.31
399.39	2951.12
399.60	3074.00
399.81	2871.25
400.03	2912.21
400.24	3323.85
400.45	3012.56
400.66	3176.40
400.88	3041.23
401.09	3237.84
401.30	3039.19
401.51	3188.69
401.73	3121.10
401.94	3170.26
402.15	3182.54
402.36	3194.83
402.58	3258.32
402.79	3188.69
403.00	3239.89
403.21	3182.54
403.43	3233.74
403.64	3209.17
403.85	3125.20
404.06	3235.79
404.27	3219.41
404.49	3297.23
404.70	3182.54
404.91	3286.99
405.12	3284.94
405.34	3252.17
405.55	3379.15
405.76	3207.12
405.97	3194.83
406.19	3387.34
406.40	3295.18
406.61	3385.29
406.82	3397.58
407.03	3311.57
407.25	3422.16
407.46	3432.40
407.67	3403.72
407.88	3491.79
408.09	3407.82
408.31	3469.26
408.52	3383.24
408.73	3366.86
408.94	3379.15
409.15	3497.93
409.37	3545.03
409.58	3622.86
409.79	3616.71
410.00	3674.06
410.21	3397.58
410.43	3456.97
410.64	3616.71
410.85	3667.91
411.06	3661.77
411.27	3569.61
411.48	3737.54
411.70	3559.37
411.91	3723.21
412.12	3780.55
412.33	3665.86
412.54	3631.05
412.76	3897.28
412.97	3690.44
413.18	3706.82
413.39	3733.45
413.60	3739.59
413.81	3778.50
414.03	3788.74
414.24	3772.36
414.45	3925.96
414.66	3655.62
414.87	3913.67
415.08	3772.36
415.30	3864.52
415.51	3827.65
415.72	3796.93
415.93	3821.51
416.14	3899.33
416.35	3819.46
416.56	3977.16
416.78	3852.23
416.99	3944.39
417.20	3966.92
417.41	4061.12
417.62	3966.92
417.83	4048.83
418.04	4014.02
418.26	3944.39
418.47	3934.15
418.68	4089.79
418.89	4136.90
419.10	4083.65
419.31	4073.41
419.52	4290.49
419.73	4016.07
419.95	4296.64
420.16	3999.68
420.37	4114.37
420.58	4245.44
420.79	4034.50
421.00	4181.95
421.21	4227.01
421.42	4081.60
421.63	4224.96
421.85	4059.07
422.06	4284.35
422.27	4237.25
422.48	4308.93
422.69	4327.36
422.90	4249.54
423.11	4333.50
423.32	4331.45
423.53	4501.44
423.75	4327.36
423.96	4657.08
424.17	4440.00
424.38	4585.40
424.59	4523.96
424.80	4671.42
425.01	4528.06
425.22	4542.39
425.43	4487.10
425.64	4771.77
425.85	4792.25
426.06	4616.12
426.28	4597.69
426.49	4450.24
426.70	4634.55
426.91	4640.70
427.12	4755.38
427.33	4618.17
427.54	4642.75
427.75	4741.05
427.96	4902.84
428.17	4855.73
428.38	4859.83
428.59	4884.41
428.80	4679.61
429.01	4945.84
429.23	4839.35
429.44	5025.72
429.65	5007.28
429.86	5019.57
430.07	4800.44
430.28	4911.03
430.49	4966.32
430.70	5177.26
430.91	5099.44
431.12	4990.90
431.33	5023.67
431.54	5298.10
431.75	5167.03
431.96	5081.01
432.17	5150.64
432.38	5113.78
432.59	5345.20
432.80	5162.93
433.01	5386.16
433.22	5377.97
433.43	5189.55
433.64	5439.40
433.85	5326.77
434.06	5423.02
434.27	5218.22
434.49	5416.88
434.70	5515.18
434.91	5500.84
435.12	5388.21
435.33	5541.80
435.54	5533.61
435.75	5306.29
435.96	5519.28
436.17	5324.72
436.38	5638.06
436.59	5652.39
436.80	5476.27
437.01	5830.57
437.22	5709.74
437.43	5633.96
437.64	5527.47
437.85	5709.74
438.06	5771.18
438.27	5679.02
438.48	5617.58
438.69	5830.57
438.90	5793.70
439.11	5844.90
439.32	5894.05
439.53	5894.05
439.74	5828.52
439.95	5857.19
440.16	5883.81
440.37	5932.97
440.57	6037.41
440.78	6064.04
440.99	5965.73
441.20	6076.32
441.41	5928.87
441.62	6004.64
441.83	5949.35
442.04	6072.23
442.25	6086.56
442.46	6025.12
442.67	6393.76
442.88	6492.06
443.09	5971.88
443.30	6086.56
443.51	6193.06
443.72	6508.44
443.93	6287.26
444.14	6512.54
444.35	6236.06
444.56	6483.87
444.77	6414.24
444.98	6307.74
445.19	6625.18
445.40	6352.80
445.61	6268.83
445.81	6547.36
446.02	6473.63
446.23	6533.02
446.44	6397.85
446.65	6608.80
446.86	6616.99
447.07	6692.76
447.28	6694.81
447.49	6836.12
447.70	6592.41
447.91	6834.07
448.12	6729.63
448.33	6997.91
448.54	6903.70
448.74	6713.24
448.95	6920.09
449.16	6774.68
449.37	7204.75
449.58	7002.01
449.79	7180.18
450.00	6952.85
450.21	7174.03
450.42	7178.13
450.63	7239.57
450.84	7081.88
451.05	6981.53
451.25	7122.84
451.46	7112.60
451.67	7434.13
451.88	7335.82
452.09	7376.78
452.30	7393.17
452.51	7296.91
452.72	7380.88
452.93	7731.08
453.13	7468.94
453.34	7509.90
453.55	7546.76
453.76	7628.68
453.97	7962.50
454.18	7593.87
454.39	7700.36
454.60	7737.23
454.81	7802.76
455.01	8019.85
455.22	7612.30
455.43	7665.55
455.64	8062.85
455.85	8187.78
456.06	8226.69
456.27	7921.54
456.48	7858.06
456.68	8001.41
456.89	8089.48
457.10	8267.65
457.31	8269.70
457.52	8128.39
457.73	8341.38
457.94	8548.22
458.14	8152.96
458.35	8640.38
458.56	8507.26
458.77	8417.15
458.98	8400.77
459.19	8472.45
459.39	8802.17
459.60	9025.40
459.81	8537.98
460.02	8787.83
460.23	8734.59
460.44	9115.51
460.65	8949.62
460.85	8820.60
461.06	9011.06
461.27	8667.00
461.48	9154.42
461.69	9375.60
461.89	8925.05
462.10	9142.13
462.31	8953.72
462.52	9056.12
462.73	9166.71
462.94	9465.71
463.14	9416.56
463.35	9150.32
463.56	9854.83
463.77	9729.90
463.98	9586.54
464.18	9418.61
464.39	9826.15
464.60	9695.08
464.81	9672.56
465.02	9901.93
465.23	10035.05
465.43	9793.39
465.64	10186.60
465.85	10030.95
466.06	10076.01
466.27	10450.78
466.47	10325.86
466.68	10313.57
466.89	10172.26
467.10	10393.44
467.30	10125.16
467.51	10407.78
467.72	10790.75
467.93	10434.40
468.14	10585.95
468.34	10764.12
468.55	10932.06
468.76	10692.44
468.97	10874.71
469.17	10997.59
469.38	11177.81
469.59	11038.55
469.80	10985.30
470.01	11075.42
470.21	11003.74
470.42	11130.71
470.63	11495.25
470.84	11263.83
471.04	11530.06
471.25	11577.17
471.46	11538.26
471.67	11769.68
471.87	11714.38
472.08	11757.39
472.29	11951.95
472.50	11679.57
472.70	11898.70
472.91	11755.34
473.12	12005.19
473.33	12230.47
473.53	12248.90
473.74	12279.62
473.95	12412.74
474.16	12502.85
474.36	12367.68
474.57	12390.21
474.78	12992.31
474.99	12695.36
475.19	12709.69
475.40	13121.34
475.61	13109.05
475.81	13141.82
476.02	13172.54
476.23	13002.55
476.44	13367.09
476.64	13475.63
476.85	13750.06
477.06	13455.15
477.27	13868.84
477.47	13733.68
477.68	13817.65
477.89	14016.30
478.09	14100.26
478.30	13834.03
478.51	14303.01
478.71	14182.18
478.92	14270.25
479.13	14417.70
479.34	14507.81
479.54	14499.62
479.75	14491.43
479.96	14685.98
480.16	14802.72
480.37	14876.44
480.58	15163.16
480.78	15329.05
480.99	15228.70
481.20	15357.72
481.41	15525.65
481.61	15490.84
481.82	15859.47
482.03	15683.34
482.23	15570.71
482.44	15732.50
482.65	16013.07
482.85	15959.82
483.06	16248.58
483.27	16205.58
483.47	16144.14
483.68	16402.18
483.89	16336.65
484.09	16600.83
484.30	16576.26
484.51	16512.77
484.71	17018.62
484.92	16936.70
485.13	17018.62
485.33	17180.41
485.54	17049.34
485.75	17436.41
485.95	17460.98
486.16	17551.09
486.37	17428.21
486.57	17215.23
486.78	17817.33
486.98	17643.25
487.19	17714.93
487.40	18167.53
487.60	17858.29
487.81	18200.30
488.02	18001.65
488.22	17985.26
488.43	18271.98
488.64	18566.88
488.84	18661.09
489.05	18814.69
489.25	18829.02
489.46	19218.14
489.67	19023.58
489.87	19388.12
490.08	19257.05
490.29	19580.63
490.49	19508.95
490.70	19404.50
490.90	19850.96
491.11	19513.05
491.32	19633.88
491.52	19824.34
491.73	20043.47
491.94	19984.08
492.14	19961.55
492.35	20485.83
492.55	20717.25
492.76	20446.92
492.97	20442.82
493.17	20803.27
493.38	20764.36
493.58	20473.54
493.79	20817.60
494.00	20895.43
494.20	21173.95
494.41	21204.67
494.61	21315.26
494.82	21315.26
495.02	21544.63
495.23	21677.75
495.44	21825.20
495.64	21956.27
495.85	21946.03
496.05	22175.41
496.26	21853.87
496.47	22544.04
496.67	22111.92
496.88	22408.87
497.08	22105.77
497.29	22374.06
497.49	22394.54
497.70	22695.59
497.91	22679.21
498.11	22726.31
498.32	23119.52
498.52	22879.91
498.73	23144.09
498.93	23178.91
499.14	23445.15
499.34	23291.55
499.55	23471.77
499.76	23185.05
499.96	23598.74
500.17	23664.28
500.37	23846.55
500.58	23678.61
500.78	24209.04
500.99	24133.26
501.19	24407.69
501.40	23942.80
501.60	24338.06
501.81	24247.95
502.02	24403.60
502.22	24241.81
502.43	24387.21
502.63	24729.22
502.84	24602.25
503.04	24694.41
503.25	24968.84
503.45	24946.31
503.66	25034.37
503.86	24931.97
504.07	25355.90
504.27	25099.90
504.48	25480.83
504.68	25316.99
504.89	25794.17
505.09	25898.61
505.30	25554.55
505.50	25708.15
505.71	25779.83
505.91	25806.45
506.12	26058.35
506.32	26101.36
506.53	26314.35
506.73	26078.83
506.94	26257.01
507.14	26197.62
507.35	26359.41
507.55	26572.39
507.76	26685.03
507.96	26447.47
508.17	26732.14
508.37	26515.05
508.58	27213.41
508.78	26930.79
508.99	27182.69
509.19	26895.97
509.40	27143.78
509.60	26820.20
509.81	27115.11
510.01	27082.34
510.22	27194.98
510.42	27047.52
510.63	27643.48
510.83	27500.12
511.04	27536.99
511.24	27649.63
511.44	27367.01
511.65	27727.45
511.85	27577.95
512.06	27575.90
512.26	27776.60
512.47	28290.64
512.67	27766.36
512.88	27946.58
513.08	27670.11
513.29	27948.63
513.49	27866.71
513.69	28126.80
513.90	28057.17
514.10	28591.69
514.31	28575.31
514.51	28489.29
514.72	28608.08
514.92	28427.85
515.13	28456.53
515.33	28765.77
515.53	28958.28
515.74	28972.61
515.94	28814.92
516.15	28884.55
516.35	28837.45
516.56	29144.64
516.76	29103.68
516.96	28937.80
517.17	29124.16
517.37	29048.39
517.58	29660.73
517.78	29457.98
517.99	29408.83
518.19	29367.87
518.39	29685.31
518.60	29683.26
518.80	29527.61
519.01	29713.98
519.21	29773.37
519.41	29922.87
519.62	29703.74
519.82	30166.58
520.03	29871.67
520.23	30066.23
520.43	29845.05
520.64	29931.06
520.84	30434.86
521.05	30520.88
521.25	30285.36
521.45	30318.13
521.66	30733.87
521.86	30432.82
522.07	30443.06
522.27	30613.04
522.47	30361.14
522.68	31122.98
522.88	30813.74
523.08	31104.55
523.29	30938.66
523.49	30893.61
523.70	31047.21
523.90	31356.45
524.10	31274.53
524.31	31260.20
524.51	31403.55
524.71	31866.39
524.92	31815.19
525.12	31829.53
525.33	31645.21
525.53	31952.41
525.73	32132.63
525.94	31841.82
526.14	32005.66
526.34	32083.48
526.55	32130.58
526.75	32075.29
526.95	32574.99
527.16	32153.11
527.36	32261.65
527.56	32601.61
527.77	32689.68
527.97	32538.13
528.17	32355.86
528.38	32771.60
528.58	32886.28
528.78	33078.79
528.99	32849.42
529.19	32984.58
529.39	32939.53
529.60	33332.74
529.80	33027.59
530.00	33297.92
530.21	33547.78
530.41	33977.85
530.61	33342.98
530.82	33453.57
531.02	33449.47
531.22	34020.86
531.43	33801.72
531.63	34231.80
531.83	33971.71
532.04	34524.66
532.24	33732.09
532.44	34311.67
532.64	34330.10
532.85	34565.62
533.05	34776.56
533.25	34536.94
533.46	34295.28
533.66	34903.53
533.86	34762.22
534.07	35124.71
534.27	34971.11
534.47	35223.01
534.67	35114.47
534.88	35247.59
535.08	34719.21
535.28	35333.60
535.49	35149.29
535.69	35685.86
535.89	35409.38
536.09	35771.87
536.30	35888.60
536.50	35581.41
536.70	36093.40
536.91	35821.02
537.11	36066.78
537.31	36406.74
537.51	36257.24
537.72	36689.36
537.92	36623.83
538.12	36537.81
538.32	36599.25
538.53	37017.04
538.73	36781.52
538.93	36605.39
539.13	36521.43
539.34	36980.17
539.54	36607.44
539.74	37295.56
539.94	36718.03
540.15	36955.60
540.35	37146.06
540.55	37187.02
540.75	37313.99
540.96	37037.51
541.16	37002.70
541.36	37813.70
541.56	37455.30
541.77	38010.30
541.97	37455.30
542.17	38100.41
542.37	37825.98
542.58	37981.63
542.78	37836.22
542.98	38208.95
543.18	38065.60
543.38	38518.20
543.59	38315.45
543.79	38346.17
543.99	38036.92
544.19	38538.68
544.40	38458.81
544.60	38815.15
544.80	38436.28
545.00	38985.13
545.20	38720.95
545.41	38761.90
545.61	38747.57
545.81	39208.36
546.01	38854.06
546.21	39046.57
546.42	39431.59
546.62	39396.77
546.82	39189.93
547.02	39646.63
547.22	39271.85
547.43	39234.99
547.63	39400.87
547.83	39746.98
548.03	39376.30
548.23	39882.14
548.44	39693.73
548.64	40142.24
548.84	39845.28
549.04	39914.91
549.24	39978.40
549.45	39998.88
549.65	40248.73
549.85	39869.86
550.05	40562.07
550.25	40371.61
550.45	40727.95
550.66	40506.77
550.86	40338.84
551.06	40443.29
551.26	40687.00
551.46	40787.35
551.66	40906.13
551.87	40600.98
552.07	40721.81
552.27	41065.87
552.47	40899.98
552.67	41500.04
552.87	41108.88
553.07	41065.87
553.28	41147.79
553.48	41446.79
553.68	41121.16
553.88	41579.91
554.08	41110.92
554.28	41438.60
554.48	41274.76
554.69	41352.58
554.89	41919.87
555.09	41692.55
555.29	41571.72
555.49	41633.16
555.69	42139.00
555.89	41860.48
556.10	41854.34
556.30	41602.44
556.50	42317.18
556.70	42071.42
556.90	42108.29
557.10	42335.61
557.30	41907.58
557.50	42110.33
557.70	42689.91
557.91	42898.80
558.11	42747.25
558.31	43117.93
558.51	42075.52
558.71	42585.46
558.91	43072.88
559.11	42890.61
559.31	42784.12
559.51	42747.25
559.72	43089.26
559.92	43388.27
560.12	43070.83
560.32	43136.37
560.52	42841.46
560.72	43214.19
560.92	43208.04
561.12	43087.21
561.32	43523.43
561.52	43107.69
561.72	43769.19
561.93	43572.58
562.13	43398.51
562.33	43191.66
562.53	44356.96
562.73	43445.61
562.93	43840.87
563.13	44062.05
563.33	44221.79
563.53	43853.15
563.73	43963.75
563.93	44057.95
564.13	44500.31
564.33	44105.06
564.53	44326.24
564.74	44389.72
564.94	44252.51
565.14	44410.20
565.34	44629.34
565.54	44637.53
565.74	44748.12
565.94	44891.48
566.14	44414.30
566.34	44500.31
566.54	45280.59
566.74	44698.97
566.94	44930.39
567.14	45186.38
567.34	45114.70
567.54	45102.42
567.74	44883.28
567.94	44938.58
568.14	45319.50
568.34	45475.15
568.54	45395.28
568.74	45669.70
568.94	45239.63
569.14	45954.37
569.34	45608.26
569.54	45696.33
569.75	45405.52
569.95	45573.45
570.15	46064.96
570.35	46069.06
570.55	45663.56
570.75	46136.64
570.95	46005.57
571.15	46626.10
571.35	46105.92
571.55	46488.89
571.75	46265.66
571.95	46523.71
572.15	46087.49
572.35	46669.11
572.55	46552.38
572.75	46576.95
572.95	46161.22
573.15	46804.28
573.35	46548.28
573.55	46789.94
573.75	46849.33
573.95	46892.34
574.15	46650.68
574.35	47025.46
574.55	47019.31
574.75	46863.67
574.95	47396.14
575.15	47267.12
575.34	47281.45
575.54	47228.21
575.74	47631.66
575.94	47494.44
576.14	47170.86
576.34	47584.55
576.54	48094.50
576.74	47924.52
576.94	47887.65
577.14	48149.79
577.34	48323.87
577.54	47617.32
577.74	47654.18
577.94	47912.23
578.14	48141.60
578.34	48485.66
578.54	47709.48
578.74	47932.71
578.94	48315.68
579.14	47936.80
579.34	48518.43
579.54	48301.34
579.74	48698.65
579.94	48870.68
580.13	48858.39
580.33	48799.00
580.53	49249.55
580.73	48844.05
580.93	48776.47
581.13	48790.81
581.33	49069.33
581.53	49331.47
581.73	49329.42
581.93	49470.73
582.13	49222.93
582.33	49233.17
582.53	49364.24
582.73	49763.59
582.92	49497.36
583.12	49634.57
583.32	49665.29
583.52	49456.40
583.72	49929.48
583.92	49472.78
584.12	50035.97
584.32	50214.15
584.52	50230.53
584.72	50001.16
584.92	49900.81
585.11	50357.50
585.31	49960.20
585.51	50222.34
585.71	49863.94
585.91	50683.13
586.11	50078.98
586.31	50466.05
586.51	50312.45
586.71	50412.80
586.91	50623.74
587.10	50623.74
587.30	50314.50
587.50	50937.08
587.70	50748.67
587.90	50550.01
588.10	50783.48
588.30	50857.21
588.50	51238.13
588.69	51033.33
588.89	50715.90
589.09	51033.33
589.29	50730.23
589.49	51467.50
589.69	51027.19
589.89	51229.94
590.08	50945.27
590.28	51272.95
590.48	50982.13
590.68	51426.54
590.88	51053.81
591.08	51352.82
591.28	51295.47
591.47	51817.71
591.67	51623.15
591.87	51756.27
592.07	51373.30
592.27	51707.12
592.47	51602.67
592.67	51586.28
592.86	51829.99
593.06	51492.08
593.26	52020.45
593.46	51739.88
593.66	52081.89
593.86	51842.28
594.05	51688.68
594.25	52163.81
594.45	51750.12
594.65	51860.71
594.85	51909.86
595.05	52112.61
595.24	52040.93
595.44	52016.36
595.64	52255.97
595.84	52022.50
596.04	51983.59
596.23	52221.16
596.43	52108.52
596.63	52073.70
596.83	52272.35
597.03	52767.96
597.22	52503.77
597.42	51807.47
597.62	52712.67
597.82	52909.27
598.02	52794.59
598.21	52559.07
598.41	52167.91
598.61	52657.37
598.81	52384.99
599.01	52786.39
599.20	52638.94
599.40	52853.98
599.60	53083.35
599.80	53015.77
600.00	53132.50
600.19	53519.57
600.39	52884.70
600.59	53325.01
600.79	53306.58
600.98	53179.60
601.18	53232.85
601.38	53230.80
601.58	53384.40
601.78	53069.01
601.97	53296.34
602.17	53736.65
602.37	53408.98
602.57	53572.81
602.76	53730.51
602.96	53140.69
603.16	54015.18
603.36	53150.93
603.55	53892.30
603.75	53109.97
603.95	53929.16
604.15	53634.25
604.34	53470.42
604.54	53572.81
604.74	53847.24
604.94	53693.64
605.13	53687.50
605.33	54080.71
605.53	53820.62
605.73	54090.95
605.92	53834.95
606.12	53941.45
606.32	54084.81
606.52	54025.42
606.71	54326.47
606.91	54228.16
607.11	53894.35
607.30	54400.19
607.50	54441.15
607.70	54279.36
607.90	54324.42
608.09	54244.55
608.29	54138.05
608.49	54770.88
608.68	54387.91
608.88	54527.17
609.08	54232.26
609.28	54428.87
609.47	54195.40
609.67	54756.54
609.87	54420.67
610.06	54277.32
610.26	54428.87
610.46	54822.08
610.66	54492.35
610.85	54443.20
611.05	54267.08
611.25	54785.21
611.44	54617.28
611.64	54473.92
611.84	54437.06
612.03	54338.75
612.23	54588.61
612.43	54600.89
612.62	54265.03
612.82	54766.78
613.02	54731.96
613.21	54408.39
613.41	54275.27
613.61	54451.39
613.80	54230.21
614.00	54693.05
614.20	54557.89
614.39	54334.66
614.59	54826.17
614.79	54572.22
614.98	54269.12
615.18	54246.60
615.38	54525.12
615.57	54348.99
615.77	54424.77
615.97	54531.26
616.16	54107.33
616.36	54461.63
616.56	54932.67
616.75	54211.78
616.95	54705.34
617.15	54430.91
617.34	54514.88
617.54	54508.74
617.74	54785.21
617.93	54297.80
618.13	54342.85
618.32	54559.94
618.52	54238.40
618.72	54258.88
618.91	54525.12
619.11	53851.34
619.31	54170.82
619.50	54559.94
619.70	54150.34
619.90	54170.82
620.09	54191.30
620.29	54385.86
620.48	54437.06
620.68	54695.10
620.88	53851.34
621.07	54086.85
621.27	54441.15
621.46	53837.00
621.66	54140.10
621.86	54635.71
622.05	53746.89
622.25	54217.92
622.44	54105.29
622.64	54148.29
622.84	54226.12
623.03	54045.90
623.23	53802.19
623.42	54279.36
623.62	54244.55
623.82	54402.24
624.01	53982.41
624.21	54222.02
624.40	54136.01
624.60	53916.87
624.80	54066.38
624.99	54164.68
625.19	54191.30
625.38	54129.86
625.58	54207.68
625.77	54176.97
625.97	54324.42
626.17	53830.86
626.36	54457.54
626.56	54181.06
626.75	53357.78
626.95	54535.36
627.14	53859.53
627.34	54652.09
627.54	53951.69
627.73	54111.43
627.93	54340.80
628.12	53951.69
628.32	54510.78
628.51	53945.54
628.71	54138.05
628.90	53765.32
629.10	53814.47
629.30	54435.01
629.49	54230.21
629.69	54049.99
629.88	53726.41
630.08	54564.03
630.27	54621.37
630.47	53888.20
630.66	54015.18
630.86	54711.49
631.05	53994.70
631.25	54498.50
631.44	54844.60
631.64	54148.29
631.84	54258.88
632.03	54555.84
632.23	54369.47
632.42	54408.39
632.62	54056.14
632.81	54387.91
633.01	54615.23
633.20	54817.98
633.40	54510.78
633.59	54736.06
633.79	54273.22
633.98	54688.96
634.18	54756.54
634.37	54435.01
634.57	54652.09
634.76	54875.32
634.96	54498.50
635.15	54518.98
635.35	54428.87
635.54	54719.68
635.74	54705.34
635.93	54695.10
636.13	54828.22
636.32	54938.81
636.52	54328.52
636.71	55096.50
636.91	55053.50
637.10	54580.42
637.30	54752.44
637.49	54926.52
637.69	54779.07
637.88	54729.92
638.08	55110.84
638.27	54998.20
638.46	54908.09
638.66	54600.89
638.85	54879.42
639.05	55155.89
639.24	55510.19
639.44	54801.60
639.63	55014.58
639.83	54834.36
640.02	54953.15
640.22	55139.51
640.41	55397.55
640.61	54826.17
640.80	55243.96
640.99	55125.17
641.19	55403.70
641.38	55000.25
641.58	55026.87
641.77	55297.20
641.97	55456.95
642.16	55071.93
642.36	55581.87
642.55	55917.74
642.74	55436.47
642.94	56059.05
643.13	55516.34
643.33	55633.07
643.52	55915.69
643.72	55854.25
643.91	55850.16
644.10	55964.84
644.30	56093.86
644.49	55555.25
644.69	55899.31
644.88	56077.48
645.08	55796.91
645.27	55610.54
645.46	55594.16
645.66	56181.93
645.85	56026.28
646.05	56075.43
646.24	56335.52
646.43	55860.40
646.63	56511.65
646.82	56573.09
647.02	56450.21
647.21	56458.40
647.40	56179.88
647.60	56585.38
647.79	56503.46
647.99	56571.04
648.18	56374.44
648.37	57050.27
648.57	56769.69
648.76	56278.18
648.96	56321.19
649.15	56915.10
649.34	56710.30
649.54	56861.85
649.73	56808.61
649.92	56607.90
650.12	56923.29
650.31	56923.29
650.51	57107.61
650.70	57027.74
650.89	57105.56
651.09	57443.48
651.28	56657.06
651.47	57193.62
651.67	57121.94
651.86	57162.90
652.06	56648.86
652.25	57308.31
652.44	57169.05
652.64	56976.54
652.83	57232.53
653.02	57547.92
653.22	57011.35
653.41	57357.46
653.60	56970.39
653.80	57230.49
653.99	57482.39
654.18	57154.71
654.38	57191.58
654.57	57398.42
654.76	57644.18
654.96	57758.86
655.15	57242.77
655.34	56900.76
655.54	57113.75
655.73	57386.13
655.92	58092.68
656.12	57541.78
656.31	57824.40
656.50	57642.13
656.70	57425.04
656.89	57709.71
657.08	57597.07
657.28	57678.99
657.47	57597.07
657.66	57697.42
657.86	57838.73
658.05	58025.10
658.24	57787.53
658.43	57488.53
658.63	57851.02
658.82	58014.86
659.01	58025.10
659.21	58115.21
659.40	58129.54
659.59	58012.81
659.79	58328.20
659.98	58465.41
660.17	58594.43
660.36	57996.43
660.56	58365.06
660.75	58547.33
660.94	58289.29
661.14	58410.12
661.33	58567.81
661.52	57824.40
661.71	58375.30
661.91	58233.99
662.10	57808.01
662.29	59030.65
662.49	58219.66
662.68	58684.54
662.87	58545.28
663.06	58401.92
663.26	58446.98
663.45	59010.17
663.64	58348.68
663.83	58793.09
664.03	58850.43
664.22	58621.06
664.41	58918.01
664.60	58522.76
664.80	58639.49
664.99	58246.28
665.18	58692.74
665.37	58270.85
665.57	58365.06
665.76	58309.77
665.95	58872.96
666.14	58406.02
666.34	58856.57
666.53	58487.94
666.72	58090.63
666.91	58344.58
667.11	58242.18
667.30	58485.89
667.49	58479.75
667.68	58635.39
667.87	58659.97
668.07	58684.54
668.26	58967.16
668.45	58567.81
668.64	58555.52
668.84	59327.61
669.03	59131.00
669.22	58834.05
669.41	58844.29
669.60	58643.59
669.80	58578.05
669.99	58793.09
670.18	58743.94
670.37	58522.76
670.57	58487.94
670.76	58610.82
670.95	58838.14
671.14	58733.70
671.33	58602.63
671.53	59276.41
671.72	58905.73
671.91	59360.37
672.10	58709.12
672.29	58922.11
672.48	58582.15
672.68	58993.79
672.87	58526.85
673.06	58678.40
673.25	58729.60
673.44	58891.39
673.64	58942.59
673.83	58870.91
674.02	58651.78
674.21	58453.12
674.40	59036.80
674.59	58612.87
674.79	58496.13
674.98	58119.31
675.17	58539.14
675.36	58459.27
675.55	58643.59
675.74	58799.23
675.94	58213.51
676.13	58586.24
676.32	58686.59
676.51	58918.01
676.70	58576.00
676.89	58717.31
677.08	58999.93
677.28	58496.13
677.47	59118.71
677.66	58950.78
677.85	58418.31
678.04	58637.44
678.23	58834.05
678.42	58766.46
678.62	58616.96
678.81	58897.53
679.00	58889.34
679.19	58895.49
679.38	58870.91
679.57	58358.92
679.76	58471.56
679.96	58864.77
680.15	58788.99
680.34	58614.91
680.53	58573.95
680.72	58676.35
680.91	58875.01
681.10	58389.64
681.29	58348.68
681.48	58539.14
681.68	58156.17
681.87	57988.24
682.06	58272.90
682.25	58053.77
682.44	58197.13
682.63	58315.91
682.82	58076.30
683.01	57715.86
683.20	58180.74
683.39	57752.72
683.59	57832.59
683.78	57672.85
683.97	57922.70
684.16	57797.77
684.35	57803.92
684.54	57648.27
684.73	58139.78
684.92	57697.42
685.11	57797.77
685.30	57664.66
685.49	58287.24
685.69	57883.79
685.88	58233.99
686.07	57537.68
686.26	57531.54
686.45	58016.91
686.64	57582.74
686.83	58016.91
687.02	57656.46
687.21	57701.52
687.40	57973.90
687.59	57961.61
687.78	57902.22
687.97	57867.40
688.16	57595.03
688.35	57197.72
688.54	57367.70
688.74	57140.38
688.93	57562.26
689.12	57793.68
689.31	57629.84
689.50	57734.29
689.69	56683.68
689.88	56589.47
690.07	56868.00
690.26	56751.26
690.45	57451.67
690.64	57121.94
690.83	57578.64
691.02	56947.87
691.21	56884.38
691.40	56798.37
691.59	56886.43
691.78	56712.35
691.97	57021.59
692.16	57132.18
692.35	57007.26
692.54	57015.45
692.73	57212.06
692.92	56546.47
693.11	56478.88
693.30	56956.06
693.49	56751.26
693.68	57005.21
693.87	56679.58
694.06	56767.65
694.25	56284.33
694.44	56192.17
694.63	56849.56
694.82	57115.80
695.01	56568.99
695.20	56001.71
695.39	56155.30
695.58	56323.24
695.77	56050.86
695.96	55882.92
696.15	56292.52
696.34	56140.97
696.53	56259.75
696.72	56071.34
696.91	55977.13
697.10	56102.06
697.29	55846.06
697.48	56116.39
697.67	55522.48
697.86	55737.52
698.05	55448.75
698.24	55702.70
698.43	55545.01
698.62	55463.09
698.81	55760.05
699.00	55659.69
699.19	55284.92
699.38	55573.68
699.57	55344.31
699.76	55686.32
699.95	55293.11
700.14	55194.81
700.32	55444.66
700.51	54985.91
700.70	55518.38
700.89	55145.65
701.08	55391.41
701.27	55002.30
701.46	55649.45
701.65	54332.61
701.84	54875.32
702.03	54729.92
702.22	54377.67
702.41	54777.02
702.60	54969.53
702.79	54998.20
702.98	54365.38
703.17	54430.91
703.35	53984.46
703.54	54213.83
703.73	54654.14
703.92	54119.62
704.11	54449.35
704.30	54086.85
704.49	54006.98
704.68	53970.12
704.87	54072.52
705.06	53794.00
705.25	54011.08
705.43	53906.63
705.62	53994.70
705.81	53867.72
706.00	53859.53
706.19	53564.62
706.38	53484.75
706.57	54101.19
706.76	53441.74
706.95	53624.01
707.14	53515.47
707.32	53621.97
707.51	53695.69
707.70	53302.48
707.89	53288.15
708.08	53232.85
708.27	53763.28
708.46	53738.70
708.65	53341.39
708.84	53875.91
709.02	53437.65
709.21	53728.46
709.40	52919.51
709.59	53026.01
709.78	52843.74
709.97	53519.57
710.16	52931.80
710.34	52696.28
710.53	53220.56
710.72	52636.89
710.91	52737.24
711.10	53322.96
711.29	52987.10
711.48	52311.27
711.66	52774.11
711.85	52403.42
712.04	52913.37
712.23	52884.70
712.42	52360.42
712.61	52552.93
712.80	52430.05
712.98	52430.05
713.17	52098.28
713.36	51997.93
713.55	52040.93
713.74	52208.87
713.93	52188.39
714.11	52118.76
714.30	51487.98
714.49	51885.29
714.68	52157.67
714.87	52061.41
715.06	52112.61
715.24	51485.93
715.43	51451.12
715.62	51182.84
715.81	51565.81
716.00	51438.83
716.18	51352.82
716.37	51266.80
716.56	50844.92
716.75	51352.82
716.94	50877.69
717.12	50967.80
717.31	51252.47
717.50	51320.05
717.69	51094.77
717.88	51451.12
718.06	51244.27
718.25	51447.02
718.44	51088.63
718.63	50902.26
718.82	50695.42
719.00	51195.12
719.19	50812.15
719.38	50199.81
719.57	49980.68
719.76	50232.58
719.94	50619.64
720.13	50144.51
720.32	50496.77
720.51	50097.41
720.69	50113.80
720.88	50171.14
721.07	49673.48
721.26	50064.64
721.44	49696.01
721.63	49624.33
721.82	49607.95
722.01	49300.75
722.20	49691.91
722.38	49497.36
722.57	49044.76
722.76	49136.91
722.95	49388.81
723.13	48545.05
723.32	49255.70
723.51	48827.67
723.70	48772.38
723.88	49091.86
724.07	48725.27
724.26	48917.78
724.44	48235.81
724.63	48649.50
724.82	48932.12
725.01	48977.17
725.19	48569.63
725.38	48579.87
725.57	48436.51
725.76	48561.44
725.94	48446.75
726.13	48655.64
726.32	48805.14
726.51	48157.99
726.69	48794.90
726.88	48100.64
727.07	48061.73
727.25	48282.91
727.44	48166.18
727.63	47734.06
727.82	48137.51
728.00	48506.14
728.19	48022.82
728.38	48510.24
728.56	47938.85
728.75	48131.36
728.94	47854.89
729.12	48452.89
729.31	47959.33
729.50	48010.53
729.69	48239.90
729.87	47973.67
730.06	47838.50
730.25	47705.38
730.43	47912.23
730.62	48117.03
730.81	47895.85
730.99	47988.00
731.18	47293.74
731.37	48293.15
731.55	48006.44
731.74	48086.31
731.93	47562.03
732.11	48012.58
732.30	47906.08
732.49	47461.68
732.67	47824.17
732.86	47732.01
733.05	47633.71
733.23	47564.07
733.42	47531.31
733.61	47533.35
733.79	47363.37
733.98	48137.51
734.17	47863.08
734.35	47736.10
734.54	47662.38
734.73	47932.71
734.91	47519.02
735.10	47346.99
735.29	47871.27
735.47	47101.23
735.66	47498.54
735.84	47418.67
736.03	47166.77
736.22	47404.33
736.40	47453.48
736.59	47594.79
736.78	47189.30
736.96	47164.72
737.15	47207.73
737.33	46941.49
737.52	47103.28
737.71	46927.16
737.89	46849.33
738.08	46845.24
738.27	46552.38
738.45	47064.37
738.64	47134.00
738.82	46918.96
739.01	47330.61
739.20	47021.36
739.38	46912.82
739.57	47142.19
739.75	47150.38
739.94	46560.57
740.13	46994.74
740.31	46595.38
740.50	46730.55
740.68	47181.10
740.87	47103.28
741.06	47179.06
741.24	46757.17
741.43	46587.19
741.61	46839.09
741.80	46830.90
741.99	46640.44
742.17	46067.01
742.36	46712.12
742.54	46167.36
742.73	46601.53
742.91	46671.16
743.10	46552.38
743.29	46605.62
743.47	46202.18
743.66	46056.77
743.84	46683.45
744.03	46632.25
744.21	46312.77
744.40	46929.20
744.59	46404.92
744.77	46034.24
744.96	46261.57
745.14	46392.64
745.33	46433.60
745.51	46357.82
745.70	46378.30
745.88	46441.79
746.07	46155.07
746.26	45864.26
746.44	45532.49
746.63	46228.80
746.81	46021.95
747.00	45802.82
747.18	46140.74
747.37	45565.26
747.55	45847.88
747.74	45864.26
747.92	45475.15
748.11	45663.56
748.29	46044.48
748.48	45872.45
748.66	45755.72
748.85	45653.32
749.03	45911.36
749.22	45720.90
749.41	45393.23
749.59	45681.99
749.78	45643.08
749.96	44852.56
750.15	45452.62
750.33	45489.48
750.52	45061.46
750.70	45569.35
750.89	45141.33
751.07	45098.32
751.26	45219.15
751.44	44918.10
751.63	44778.84
751.81	44973.39
752.00	44997.97
752.18	45389.13
752.37	45034.83
752.55	44539.22
752.74	44922.19
752.92	45061.46
753.10	44823.89
753.29	45079.89
753.47	44957.01
753.66	44483.93
753.84	44694.87
754.03	45045.07
754.21	44555.61
754.40	44727.64
754.58	44891.48
754.77	44782.93
754.95	44021.09
755.14	44660.05
755.32	44496.22
755.51	44756.31
755.69	44258.65
755.88	44498.26
756.06	44856.66
756.24	44064.10
756.43	44080.48
756.61	44193.12
756.80	44143.97
756.98	44352.86
757.17	44424.54
757.35	44428.63
757.54	44488.03
757.72	44559.70
757.90	44189.02
758.09	43945.31
758.27	44291.42
758.46	43943.27
758.64	44090.72
758.83	44184.93
759.01	44045.66
759.19	44119.39
759.38	44062.05
759.56	44301.66
759.75	43994.46
759.93	44123.49
760.12	43775.33
760.30	44078.43
760.48	43898.21
760.67	43877.73
760.85	43867.49
761.04	43595.11
761.22	43988.32
761.40	43826.53
761.59	43820.39
761.77	43513.19
761.96	43808.10
762.14	44051.81
762.32	43519.34
762.51	43445.61
762.69	43359.59
762.88	43476.33
763.06	43492.71
763.24	43439.47
763.43	43541.86
763.61	43216.24
763.80	43414.89
763.98	43349.35
764.16	43519.34
764.35	43138.41
764.53	42517.88
764.72	43074.93
764.90	43457.90
765.08	42855.79
765.27	43210.09
765.45	43062.64
765.63	42290.55
765.82	42960.24
766.00	43294.06
766.18	42794.36
766.37	43218.28
766.55	42575.22
766.74	43079.02
766.92	42689.91
767.10	42513.78
767.29	43005.30
767.47	41788.80
767.65	42806.64
767.84	42571.13
768.02	42571.13
768.20	42063.23
768.39	42358.14
768.57	42370.43
768.75	42397.05
768.94	42521.98
769.12	42425.72
769.30	42274.17
769.49	42311.03
769.67	42057.09
769.85	41774.47
770.04	42063.23
770.22	41952.64
770.40	41383.30
770.59	42018.17
770.77	42151.29
770.95	41778.56
771.14	41739.65
771.32	41565.57
771.50	41569.67
771.69	41543.05
771.87	41622.92
772.05	41532.81
772.24	41442.70
772.42	41448.84
772.60	41231.75
772.78	41117.07
772.97	41084.30
773.15	41706.88
773.33	41151.88
773.52	41258.38
773.70	41190.80
773.88	41520.52
774.07	40916.37
774.25	41416.07
774.43	41483.66
774.61	41616.77
774.80	41618.82
774.98	41794.95
775.16	41524.61
775.34	41541.00
775.53	41510.28
775.71	41676.16
775.89	41686.40
776.08	41696.64
776.26	41672.07
776.44	41194.89
776.62	41520.52
776.81	41463.18
776.99	41635.20
777.17	41514.37
777.35	42069.37
777.54	42186.11
777.72	41588.10
777.90	42116.48
778.08	42253.69
778.27	41686.40
778.45	41964.93
778.63	42390.91
778.81	42059.13
779.00	42716.53
779.18	41895.30
779.36	42593.65
779.54	42421.62
779.73	42149.24
779.91	42122.62
780.09	42265.98
780.27	42607.99
780.46	42366.33
780.64	42544.50
780.82	42497.40
781.00	42192.25
781.19	42646.90
781.37	42874.23
781.55	43087.21
781.73	42892.66
781.91	42419.58
782.10	42569.08
782.28	42573.17
782.46	43036.02
782.64	43046.26
782.82	42597.75
783.01	43142.51
783.19	43087.21
783.37	43165.04
783.55	42780.02
783.74	42945.90
783.92	42413.43
784.10	42911.09
784.28	42775.92
784.46	42868.08
784.64	42550.65
784.83	42972.53
785.01	43044.21
785.19	43074.93
785.37	42890.61
785.55	42972.53
785.74	42782.07
785.92	42354.04
786.10	43132.27
786.28	42534.26
786.46	42730.87
786.64	42638.71
786.83	42579.32
787.01	42665.33
787.19	42823.03
787.37	42839.41
787.55	42950.00
787.74	42419.58
787.92	42280.31
788.10	42362.23
788.28	42507.64
788.46	42546.55
788.64	42476.92
788.82	43007.34
789.01	42349.95
789.19	42646.90
789.37	42126.72
789.55	41969.02
789.73	42147.20
789.91	41958.78
790.09	42276.22
790.28	41997.70
790.46	41688.45
790.64	41946.50
790.82	42046.85
791.00	41770.37
791.18	41653.64
791.36	41749.89
791.55	41493.89
791.73	41170.32
791.91	41371.02
792.09	41139.60
792.27	41285.00
792.45	41072.01
792.63	41115.02
792.81	40748.43
793.00	41129.36
793.18	40986.00
793.36	40658.32
793.54	40641.94
793.72	40617.36
793.90	40752.53
794.08	40281.50
794.26	40768.91
794.44	40363.42
794.62	40240.54
794.81	40426.90
794.99	39933.34
795.17	40220.06
795.35	40215.96
795.53	40254.87
795.71	40267.16
795.89	39855.52
796.07	39683.49
796.25	39628.20
796.43	39327.14
796.61	39329.19
796.80	39179.69
796.98	39536.04
797.16	39065.00
797.34	39648.68
797.52	38856.11
797.70	39187.88
797.88	38700.47
798.06	38815.15
798.24	38774.19
798.42	39050.67
798.60	38845.87
798.78	38460.85
798.96	38882.73
799.14	38550.96
799.32	38284.73
799.51	38284.73
799.69	38200.76
799.87	38034.88
800.05	37862.85
800.23	37909.95
800.41	38127.03
800.59	37834.17
800.77	37860.80
800.95	37357.00
801.13	37742.02
801.31	37500.36
801.49	37600.71
801.67	37344.71
801.85	37651.91
802.03	36945.36
802.21	37098.95
802.39	36994.51
802.57	37094.86
802.75	37080.52
802.93	36998.60
803.11	36568.53
803.29	36529.62
803.47	36257.24
803.65	36632.02
803.83	36363.73
804.01	36578.77
804.19	35853.79
804.37	35986.91
804.55	36191.70
804.73	35880.41
804.91	35935.71
805.09	36390.36
805.27	35833.31
805.45	35808.73
805.63	35988.95
805.81	35651.04
805.99	35755.49
806.17	36394.45
806.35	35423.72
806.53	35436.00
806.71	35612.13
806.89	35128.81
807.07	35257.83
807.25	35401.19
807.43	35132.90
807.61	35493.35
807.79	34964.97
807.97	34870.76
808.15	34903.53
808.33	34461.17
808.51	34717.17
808.69	34620.91
808.87	34207.22
809.05	34450.93
809.23	34078.20
809.41	34221.56
809.59	34141.69
809.77	34262.52
809.95	33887.74
810.13	34319.86
810.31	34096.63
810.49	33766.91
810.67	33637.89
810.84	33852.92
811.02	33373.70
811.20	33263.11
811.38	33814.01
811.56	33125.89
811.74	33154.57
811.92	33277.44
812.10	33312.26
812.28	33234.44
812.46	33015.30
812.64	33322.50
812.82	32941.58
813.00	32923.15
813.18	32843.27
813.36	33033.74
813.53	32652.81
813.71	33082.89
813.89	32792.08
814.07	32609.81
814.25	32554.51
814.43	32529.94
814.61	32597.52
814.79	32507.41
814.97	32294.42
815.15	32390.67
815.33	31856.15
815.50	32118.29
815.68	32216.60
815.86	32259.60
816.04	31850.01
816.22	31723.04
816.40	31536.67
816.58	31438.37
816.76	31456.80
816.94	31618.59
817.11	31823.39
817.29	31587.87
817.47	31430.18
817.65	31077.93
817.83	31850.01
818.01	31432.22
818.19	31528.48
818.37	31335.97
818.54	31280.67
818.72	30838.31
818.90	31352.35
819.08	30791.21
819.26	31174.18
819.44	30858.79
819.62	30881.32
819.80	31061.54
819.97	30897.70
820.15	30398.00
820.33	30574.13
820.51	30828.07
820.69	30158.39
820.87	30553.65
821.05	30725.68
821.22	30664.24
821.40	30492.21
821.58	30256.69
821.76	30332.47
821.94	30307.89
822.12	30121.52
822.29	30316.08
822.47	29843.00
822.65	30520.88
822.83	30193.20
823.01	29984.31
823.19	29761.08
823.36	29318.72
823.54	29752.89
823.72	29677.12
823.90	29789.75
824.08	29652.54
824.25	29623.87
824.43	29388.35
824.61	29365.82
824.79	29482.56
824.97	29275.71
825.15	29587.00
825.32	29341.25
825.50	29222.47
825.68	29021.77
825.86	29398.59
826.04	29142.60
826.21	29066.82
826.39	29277.76
826.57	28968.52
826.75	28620.36
826.93	28886.60
827.10	28823.11
827.28	28612.17
827.46	28872.26
827.64	28730.95
827.81	28698.19
827.99	28872.26
828.17	28503.63
828.35	28438.09
828.53	28120.66
828.70	28341.84
828.88	28282.45
829.06	28597.84
829.24	28618.32
829.41	28292.69
829.59	28429.90
829.77	28302.93
829.95	28251.73
830.12	27973.21
830.30	27835.99
830.48	28126.80
830.66	28202.58
830.84	27821.66
831.01	27932.25
831.19	27924.05
831.37	27700.83
831.55	27649.63
831.72	27668.06
831.90	27723.35
832.08	27588.19
832.25	27780.70
832.43	27717.21
832.61	27498.08
832.79	27209.31
832.96	27666.01
833.14	27463.26
833.32	27248.22
833.50	27485.79
833.67	27240.03
833.85	27209.31
834.03	27164.26
834.20	27106.91
834.38	27311.71
834.56	27219.55
834.74	26646.12
834.91	27133.54
835.09	26934.88
835.27	26760.81
835.44	27063.91
835.62	26326.64
835.80	26429.04
835.98	26895.97
836.15	26465.90
836.33	26633.83
836.51	26959.46
836.68	26848.87
836.86	26599.02
837.04	26529.39
837.21	26551.91
837.39	26400.37
837.57	26625.64
837.75	26289.77
837.92	25904.76
838.10	26209.90
838.28	26078.83
838.45	26160.75
838.63	26091.12
838.81	26015.35
838.98	26107.51
839.16	25847.41
839.34	25742.97
839.51	25572.99
839.69	25388.67
839.87	25767.54
840.04	25898.61
840.22	25902.71
840.40	25523.83
840.57	25529.98
840.75	25767.54
840.93	25491.07
841.10	25515.64
841.28	25966.20
841.46	25505.40
841.63	25355.90
841.81	25554.55
841.98	25429.63
842.16	25652.86
842.34	25175.68
842.51	25230.98
842.69	25370.24
842.87	25069.19
843.04	25503.35
843.22	24940.16
843.40	25020.03
843.57	24944.26
843.75	25071.23
843.92	24874.63
844.10	24905.35
844.28	24991.36
844.45	24979.07
844.63	24964.74
844.81	24946.31
844.98	24854.15
845.16	24964.74
845.33	24923.78
845.51	25093.76
845.69	24438.41
845.86	24403.60
846.04	24344.20
846.21	24532.62
846.39	24520.33
846.57	24379.02
846.74	24307.34
846.92	24354.44
847.09	24245.90
847.27	24204.94
847.45	24168.08
847.62	24370.83
847.80	24317.58
847.97	24542.86
848.15	24200.85
848.32	23828.12
848.50	24118.93
848.68	23963.28
848.85	24073.87
849.03	23850.64
849.20	24010.39
849.38	23586.46
849.56	23666.33
849.73	23629.46
849.91	23744.15
850.08	23963.28
850.26	23862.93
850.43	23787.16
850.61	23449.24
850.78	23510.68
850.96	23459.48
851.14	23070.37
851.31	23586.46
851.49	23127.71
851.66	23211.68
851.84	23740.05
852.01	23412.38
852.19	23299.74
852.36	23303.84
852.54	23260.83
852.71	22890.15
852.89	23242.40
853.07	23326.36
853.24	23101.09
853.42	23219.87
853.59	22992.55
853.77	23129.76
853.94	23096.99
854.12	23402.14
854.29	22736.55
854.47	23101.09
854.64	22793.89
854.82	22597.29
854.99	22656.68
855.17	22777.51
855.34	22539.94
855.52	22970.02
855.69	22906.53
855.87	22503.08
856.04	22351.53
856.22	22752.93
856.39	22314.67
856.57	22689.45
856.74	22521.51
856.92	22554.28
857.09	22537.90
857.27	22304.43
857.44	22496.94
857.62	21976.75
857.79	22230.70
857.97	22333.10
858.14	21980.85
858.32	22238.89
858.49	22036.14
858.67	21937.84
858.84	22156.97
859.02	22165.17
859.19	21956.27
859.37	21956.27
859.54	21817.01
859.72	21853.87
859.89	21819.06
860.06	21929.65
860.24	21735.09
860.41	22279.85
860.59	21378.75
860.76	21991.09
860.94	21317.31
861.11	21884.59
861.29	21704.37
861.46	21565.11
861.64	21307.07
861.81	21454.52
861.98	21436.09
862.16	21456.57
862.33	21145.28
862.51	21475.00
862.68	21386.94
862.86	20805.31
863.03	21231.29
863.21	21094.08
863.38	21130.94
863.55	21194.43
863.73	21010.11
863.90	20956.86
864.08	20774.60
864.25	21108.41
864.43	20956.86
864.60	20803.27
864.77	20680.39
864.95	20795.07
865.12	20360.91
865.30	20803.27
865.47	20463.30
865.64	20842.18
865.82	20709.06
865.99	20836.03
866.17	20602.57
866.34	20487.88
866.51	20387.53
866.69	20670.15
866.86	20418.25
867.04	20147.92
867.21	20559.56
867.38	20287.18
867.56	20125.39
867.73	20156.11
867.91	20131.53
868.08	20223.69
868.25	20082.38
868.43	20006.61
868.60	20031.18
868.78	19676.88
868.95	20096.72
869.12	19828.43
869.30	19799.76
869.47	19975.89
869.64	19633.88
869.82	19986.13
869.99	19644.12
870.16	20092.62
870.34	19885.78
870.51	20006.61
870.69	19701.46
870.86	19785.43
871.03	19617.49
871.21	19490.52
871.38	19719.89
871.55	19603.16
871.73	19250.91
871.90	19562.20
872.07	19089.12
872.25	19232.47
872.42	19363.54
872.59	19255.00
872.77	19230.43
872.94	19121.88
873.11	19330.78
873.29	19132.12
873.46	19181.28
873.63	18915.04
873.81	19123.93
873.98	18898.66
874.15	19011.29
874.33	18398.95
874.50	18747.11
874.67	18736.87
874.85	19023.58
875.02	18634.47
875.19	18616.04
875.37	18657.00
875.54	18464.49
875.71	18501.35
875.88	18302.70
876.06	18450.15
876.23	18351.85
876.40	18343.66
876.58	18216.68
876.75	18261.74
876.92	18370.28
877.10	18327.27
877.27	18124.52
877.44	18026.22
877.61	18220.78
877.79	18142.96
877.96	17780.46
878.13	18351.85
878.31	18009.84
878.48	17776.37
878.65	17735.41
878.82	17493.75
879.00	17768.18
879.17	17755.89
879.34	17839.86
879.51	17610.48
879.69	17821.42
879.86	17571.57
880.03	17477.37
880.21	17420.02
880.38	17420.02
880.55	17495.80
880.72	17405.69
880.90	17458.93
881.07	17211.13
881.24	17338.10
881.41	17293.05
881.59	17415.93
881.76	17065.72
881.93	17143.55
882.10	17022.72
882.28	16932.61
882.45	17592.05
882.62	17219.32
882.79	17127.16
882.96	16826.11
883.14	17260.28
883.31	16953.09
883.48	17086.20
883.65	16975.61
883.83	16967.42
884.00	17200.89
884.17	16783.10
884.34	17012.48
884.51	16844.54
884.69	16819.97
884.86	16936.70
885.03	16748.29
885.20	16811.78
885.38	16785.15
885.55	16576.26
885.72	16613.12
885.89	16676.61
886.06	16733.95
886.24	16561.92
886.41	16568.07
886.58	16742.14
886.75	16805.63
886.92	16426.76
887.10	16447.24
887.27	16404.23
887.44	16555.78
887.61	16586.50
887.78	16643.84
887.95	16414.47
888.13	16656.13
888.30	16211.72
888.47	16176.91
888.64	16473.86
888.81	16404.23
888.99	16363.27
889.16	16068.36
889.33	16264.97
889.50	15882.00
889.67	16224.01
889.84	15900.43
890.01	15851.28
890.19	16000.78
890.36	16088.84
890.53	15736.59
890.70	15918.86
890.87	16060.17
891.04	15838.99
891.22	15949.58
891.39	15798.03
891.56	15861.52
891.73	15759.12
891.90	15486.74
892.07	15490.84
892.24	15720.21
892.42	15675.15
892.59	15757.07
892.76	15488.79
892.93	15265.56
893.10	15298.33
893.27	15494.93
893.44	15273.75
893.61	15576.85
893.79	15404.82
893.96	15523.60
894.13	15347.48
894.30	15343.38
894.47	15466.26
894.64	15544.08
894.81	15138.58
894.98	15496.98
895.15	15343.38
895.33	15345.43
895.50	15404.82
895.67	15267.61
895.84	15255.32
896.01	15265.56
896.18	15179.54
896.35	15421.20
896.52	15365.91
896.69	15306.52
896.86	15230.74
897.04	15425.30
897.21	15316.76
897.38	15097.63
897.55	15277.85
897.72	15107.87
897.89	15265.56
898.06	15226.65
898.23	15073.05
898.40	15111.96
898.57	15294.23
898.74	15169.30
898.91	15030.04
899.08	15206.17
899.26	15331.09
899.43	15015.71
899.60	15224.60
899.77	15099.67
899.94	15019.80
900.11	15064.86
900.28	15181.59
900.45	15169.30
900.62	14984.99
900.79	15327.00
900.96	15130.39
901.13	15071.00
901.30	14964.51
901.47	14798.62
901.64	15046.43
901.81	15148.82
901.98	14984.99
902.15	15079.19
902.32	14882.59
902.49	14819.10
902.66	15204.12
902.83	15058.71
903.01	15140.63
903.18	15030.04
903.35	15122.20
903.52	15087.39
903.69	15001.37
903.86	15218.46
904.03	15165.21
904.20	15017.75
904.37	15265.56
904.54	15079.19
904.71	14839.58
904.88	15118.11
905.05	14982.94
905.22	15015.71
905.39	15136.54
905.56	14817.05
905.73	14862.11
905.90	14913.31
906.07	15189.78
906.24	15208.22
906.41	15001.37
906.58	15093.53
906.75	14997.28
906.92	14905.12
907.09	14954.27
907.26	15011.61
907.43	14927.64
907.60	15087.39
907.77	15171.35
907.93	14952.22
908.10	14939.93
908.27	14896.92
908.44	14708.51
908.61	14829.34
908.78	14720.80
908.95	14817.05
909.12	14896.92
909.29	14749.47
909.46	15052.57
909.63	14909.21
909.80	14712.61
909.97	14954.27
910.14	14788.38
910.31	14974.75
910.48	14960.41
910.65	14665.50
910.82	14810.91
910.99	14788.38
911.16	14829.34
911.33	14733.09
911.50	14667.55
911.66	14532.39
911.83	14645.02
912.00	14692.13
912.17	14364.45
912.34	14470.95
912.51	14569.25
912.68	14462.76
912.85	14548.77
913.02	14604.07
913.19	14354.21
913.36	14599.97
913.53	14364.45
913.70	14501.67
913.86	14280.49
914.03	14610.21
914.20	14124.84
914.37	14298.92
914.54	14346.02
914.71	14438.18
914.88	14407.46
915.05	14245.67
915.22	14135.08
915.39	14290.73
915.55	14161.70
915.72	13870.89
915.89	14204.71
916.06	13905.71
916.23	13741.87
916.40	13989.67
916.57	13838.12
916.74	14083.88
916.91	13930.28
917.07	13788.97
917.24	13676.34
917.41	13635.38
917.58	13395.76
917.75	13541.17
917.92	13569.84
918.09	13553.46
918.26	13852.46
918.42	13516.59
918.59	13725.49
918.76	13287.22
918.93	13279.03
919.10	13254.45
919.27	13156.15
919.44	13457.20
919.60	13330.23
919.77	13240.12
919.94	13379.38
920.11	13096.76
920.28	13197.11
920.45	12984.12
920.61	13086.52
920.78	12937.02
920.95	13047.61
921.12	12920.63
921.29	12941.11
921.46	12896.06
921.62	12742.46
921.79	12863.29
921.96	12613.44
922.13	12803.90
922.30	12638.02
922.47	12640.06
922.63	12463.94
922.80	12498.75
922.97	12351.30
923.14	12195.65
923.31	12414.79
923.47	12304.20
923.64	12414.79
923.81	12177.22
923.98	12306.24
924.15	12195.65
924.32	12109.64
924.48	12078.92
924.65	12052.30
924.82	11935.56
924.99	12017.48
925.15	11677.52
925.32	11818.83
925.49	11870.03
925.66	11646.80
925.83	11800.40
925.99	11689.81
926.16	11972.43
926.33	11667.28
926.50	11501.39
926.67	11374.42
926.83	11548.50
927.00	11554.64
927.17	11263.83
927.34	11419.47
927.50	11085.65
927.67	11507.54
927.84	11181.91
928.01	11327.32
928.17	11059.03
928.34	10956.63
928.51	11093.85
928.68	10895.19
928.84	10999.64
929.01	10876.76
929.18	10688.35
929.35	10833.75
929.51	10780.51
929.68	10649.44
929.85	10649.44
930.02	10530.66
930.18	10555.23
930.35	10526.56
930.52	10604.38
930.69	10428.26
930.85	10485.60
931.02	10303.33
931.19	10258.28
931.36	10039.14
931.52	10352.48
931.69	10205.03
931.86	10127.21
932.02	10168.16
932.19	10295.14
932.36	9865.07
932.53	10164.07
932.69	10043.24
932.86	9981.80
933.03	9977.70
933.19	9768.81
933.36	9662.32
933.53	9879.40
933.70	9723.76
933.86	9594.73
934.03	9797.48
934.20	9559.92
934.36	9353.07
934.53	9332.59
934.70	9308.02
934.86	9197.43
935.03	9125.75
935.20	9226.10
935.36	9113.46
935.53	9125.75
935.70	9088.89
935.86	8818.55
936.03	8693.63
936.20	8611.71
936.36	8595.32
936.53	8503.17
936.70	8617.85
936.86	8509.31
937.03	8411.01
937.20	8216.45
937.36	8275.84
937.53	8185.73
937.70	8120.20
937.86	8003.46
938.03	8019.85
938.20	8013.70
938.36	7757.71
938.53	7632.78
938.70	7438.22
938.86	7647.12
939.03	7376.78
939.20	7352.21
939.36	7239.57
939.53	7278.48
939.70	7284.62
939.86	7100.31
940.03	6911.89
940.19	6805.40
940.36	6981.53
940.53	6803.35
940.69	6584.22
940.86	6797.21
941.03	6594.46
941.19	6571.93
941.36	6516.64
941.52	6342.56
941.69	6315.94
941.86	6215.59
942.02	6266.78
942.19	6242.21
942.35	6135.71
942.52	6051.75
942.69	6254.50
942.85	6000.55
943.02	5851.05
943.18	5943.21
943.35	5941.16
943.52	5959.59
943.68	5746.60
943.85	5744.55
944.01	5762.98
944.18	5703.59
944.35	5672.87
944.51	5687.21
944.68	5496.75
944.84	5466.03
945.01	5617.58
945.17	5441.45
945.34	5482.41
945.51	5521.32
945.67	5418.93
945.84	5496.75
946.00	5380.01
946.17	5302.19
946.33	5345.20
946.50	5523.37
946.67	5420.97
946.83	5396.40
947.00	5353.39
947.16	5238.70
947.33	5367.73
947.49	5328.81
947.66	5294.00
947.82	5425.07
947.99	5439.40
948.16	5380.01
948.32	5369.77
948.49	5369.77
948.65	5359.53
948.82	5367.73
948.98	5326.77
949.15	5244.85
949.31	5302.19
949.48	5500.84
949.64	5308.34
949.81	5392.30
949.97	5234.61
950.14	5380.01
950.30	5287.86
950.47	5380.01
950.63	5253.04
950.80	5384.11
950.96	5408.69
951.13	5400.49
951.30	5459.88
951.46	5382.06
951.63	5566.38
951.79	5427.12
951.96	5447.60
952.12	5347.25
952.29	5504.94
952.45	5371.82
952.62	5375.92
952.78	5451.69
952.94	5416.88
953.11	5382.06
953.27	5443.50
953.44	5609.39
953.60	5451.69
953.77	5461.93
953.93	5515.18
954.10	5476.27
954.26	5406.64
954.43	5515.18
954.59	5521.32
954.76	5668.78
954.92	5496.75
955.09	5509.04
955.25	5580.71
955.42	5459.88
955.58	5658.54
955.75	5580.71
955.91	5535.66
956.07	5506.99
956.24	5605.29
956.40	5683.11
956.57	5529.52
956.73	5392.30
956.90	5580.71
957.06	5449.64
957.23	5443.50
957.39	5533.61
957.56	5613.48
957.72	5492.65
957.88	5511.08
958.05	5506.99
958.21	5681.07
958.38	5685.16
958.54	5562.28
958.71	5701.54
958.87	5320.62
959.03	5562.28
959.20	5527.47
959.36	5406.64
959.53	5611.43
959.69	5402.54
959.85	5570.48
960.02	5586.86
960.18	5531.56
960.35	5443.50
960.51	5492.65
960.68	5420.97
960.84	5519.28
961.00	5640.11
961.17	5568.43
961.33	5550.00
961.50	5519.28
961.66	5558.19
961.82	5547.95
961.99	5599.15
962.15	5416.88
962.31	5566.38
962.48	5578.67
962.64	5646.25
962.81	5550.00
962.97	5511.08
963.13	5558.19
963.30	5599.15
963.46	5402.54
963.62	5496.75
963.79	5468.08
963.95	5482.41
964.12	5568.43
964.28	5453.74
964.44	5443.50
964.61	5550.00
964.77	5416.88
964.93	5689.26
965.10	5347.25
965.26	5408.69
965.42	5621.67
965.59	5392.30
965.75	5423.02
965.92	5531.56
966.08	5320.62
966.24	5451.69
966.41	5281.71
966.57	5408.69
966.73	5390.25
966.90	5543.85
967.06	5304.24
967.22	5437.36
967.39	5349.29
967.55	5255.09
967.71	5443.50
967.88	5377.97
968.04	5337.01
968.20	5275.57
968.37	5175.22
968.53	5173.17
968.69	5404.59
968.85	5343.15
969.02	5337.01
969.18	5287.86
969.34	5250.99
969.51	5334.96
969.67	5302.19
969.83	5146.55
970.00	5418.93
970.16	5132.21
970.32	5382.06
970.48	5222.32
970.65	5140.40
970.81	5203.89
970.97	5136.31
971.14	4972.47
971.30	5205.94
971.46	5167.03
971.63	5015.48
971.79	5152.69
971.95	5138.35
972.11	4960.18
972.28	5111.73
972.44	5072.82
972.60	5005.24
972.76	4954.04
972.93	4917.17
973.09	4982.71
973.25	5097.39
973.42	4978.61
973.58	5121.97
973.74	5023.67
973.90	5109.68
974.07	4949.94
974.23	4992.95
974.39	4984.76
974.55	5056.43
974.72	4921.27
974.88	4775.86
975.04	4980.66
975.20	4927.41
975.37	4947.89
975.53	4804.53
975.69	4818.87
975.85	4896.69
976.01	4886.45
976.18	4765.62
976.34	4904.89
976.50	4825.01
976.66	4814.77
976.83	4769.72
976.99	4695.99
977.15	4708.28
977.31	4712.38
977.47	4820.92
977.64	4675.51
977.80	4722.62
977.96	4671.42
978.12	4648.89
978.29	4605.88
978.45	4636.60
978.61	4657.08
978.77	4749.24
978.93	4575.16
979.10	4638.65
979.26	4599.74
979.42	4693.94
979.58	4665.27
979.74	4569.02
979.91	4626.36
980.07	4472.76
980.23	4546.49
980.39	4511.68
980.55	4587.45
980.71	4585.40
980.88	4401.08
981.04	4442.04
981.20	4433.85
981.36	4540.35
981.52	4495.29
981.68	4487.10
981.85	4509.63
982.01	4448.19
982.17	4499.39
982.33	4442.04
982.49	4417.47
982.65	4503.48
982.82	4403.13
982.98	4417.47
983.14	4374.46
983.30	4366.27
983.46	4538.30
983.62	4452.28
983.79	4204.48
983.95	4300.73
984.11	4296.64
984.27	4227.01
984.43	4337.60
984.59	4353.98
984.75	4466.62
984.91	4403.13
985.08	4284.35
985.24	4165.57
985.40	4196.29
985.56	4249.54
985.72	4327.36
985.88	4143.04
986.04	4165.57
986.20	4132.80
986.37	4108.23
986.53	4108.23
986.69	4220.86
986.85	4173.76
987.01	4042.69
987.17	4110.27
987.33	4151.23
987.49	4042.69
987.65	4198.34
987.82	4130.75
987.98	3919.81
988.14	4050.88
988.30	4050.88
988.46	3917.76
988.62	4050.88
988.78	4018.11
988.94	4059.07
989.10	3948.48
989.26	3868.61
989.42	3813.32
989.59	3960.77
989.75	3827.65
989.91	3921.86
990.07	3696.58
990.23	3864.52
990.39	3901.38
990.55	4028.35
990.71	3811.27
990.87	3817.41
991.03	3960.77
991.19	3751.88
991.35	3885.00
991.51	3764.17
991.67	3995.59
991.83	3803.08
992.00	3784.65
992.16	3770.31
992.32	3878.85
992.48	3868.61
992.64	3706.82
992.80	3725.26
992.96	3846.09
993.12	3674.06
993.28	3731.40
993.44	3745.73
993.60	3762.12
993.76	3704.78
993.92	3792.84
994.08	3764.17
994.24	3694.54
994.40	3751.88
994.56	3719.11
994.72	3649.48
994.88	3751.88
995.04	3647.43
995.20	3604.42
995.36	3585.99
995.52	3667.91
995.68	3551.18
995.84	3559.37
996.00	3641.29
996.16	3495.88
996.32	3493.83
996.48	3452.88
996.64	3596.23
996.80	3567.56
996.96	3598.28
997.12	3391.44
997.28	3438.54
997.44	3452.88
997.60	3473.36
997.76	3434.44
997.92	3530.70
998.08	3612.62
998.24	3385.29
998.40	3489.74
998.56	3436.49
998.72	3336.14
998.88	3334.09
999.04	3381.20
999.20	3495.88
999.36	3424.20
999.52	3336.14
999.68	3477.45
999.84	3422.16
1000.00	3387.34
1000.16	3360.72
1000.32	3284.94
1000.48	3442.64
1000.64	3381.20
1000.80	3215.31
1000.95	3196.88
1001.11	3256.27
1001.27	3129.30
1001.43	3243.98
1001.59	3262.41
1001.75	3243.98
1001.91	3284.94
1002.07	3379.15
1002.23	3117.01
1002.39	3133.39
1002.55	3209.17
1002.71	3182.54
1002.87	3203.02
1003.03	3065.81
1003.19	3104.72
1003.34	3192.78
1003.50	3190.74
1003.66	3280.85
1003.82	3229.65
1003.98	3153.87
1004.14	3203.02
1004.30	3123.15
1004.46	3067.86
1004.62	3067.86
1004.78	3028.95
1004.94	3086.29
1005.09	3164.11
1005.25	3166.16
1005.41	3000.27
1005.57	3078.10
1005.73	3069.91
1005.89	3035.09
1006.05	3004.37
1006.21	2977.75
1006.37	3051.47
1006.52	2975.70
1006.68	2926.55
1006.84	2916.31
1007.00	2979.79
1007.16	3067.86
1007.32	2973.65
1007.48	2936.79
1007.64	2977.75
1007.79	2963.41
1007.95	2924.50
1008.11	3000.27
1008.27	2879.44
1008.43	2842.58
1008.59	2838.48
1008.75	2963.41
1008.91	2940.88
1009.06	2893.78
1009.22	2875.35
1009.38	2869.20
1009.54	2889.68
1009.70	2904.02
1009.86	2826.20
1010.01	2899.92
1010.17	2742.23
1010.33	2861.01
1010.49	2871.25
1010.65	2846.68
1010.81	2740.18
1010.96	2770.90
1011.12	2705.37
1011.28	2699.22
1011.44	2836.44
1011.60	2799.57
1011.76	2838.48
1011.91	2756.57
1012.07	2697.17
1012.23	2643.93
1012.39	2643.93
1012.55	2879.44
1012.71	2658.26
1012.86	2641.88
1013.02	2656.22
1013.18	2682.84
1013.34	2645.98
1013.50	2723.80
1013.65	2738.13
1013.81	2688.98
1013.97	2570.20
1014.13	2682.84
1014.29	2564.06
1014.44	2617.30
1014.60	2670.55
1014.76	2590.68
1014.92	2617.30
1015.07	2568.15
1015.23	2607.06
1015.39	2549.72
1015.55	2541.53
1015.71	2578.39
1015.86	2607.06
1016.02	2578.39
1016.18	2449.37
1016.34	2541.53
1016.49	2623.45
1016.65	2590.68
1016.81	2486.23
1016.97	2627.54
1017.12	2516.95
1017.28	2514.91
1017.44	2519.00
1017.60	2578.39
1017.75	2449.37
1017.91	2428.89
1018.07	2568.15
1018.23	2445.27
1018.38	2422.75
1018.54	2494.43
1018.70	2484.19
1018.86	2383.84
1019.01	2432.99
1019.17	2404.32
1019.33	2486.23
1019.49	2461.66
1019.64	2424.80
1019.80	2324.44
1019.96	2441.18
1020.12	2498.52
1020.27	2445.27
1020.43	2351.07
1020.59	2418.65
1020.74	2334.68
1020.90	2416.60
1021.06	2365.40
1021.22	2365.40
1021.37	2404.32
1021.53	2303.96
1021.69	2375.64
1021.84	2277.34
1022.00	2379.74
1022.16	2303.96
1022.31	2312.16
1022.47	2430.94
1022.63	2404.32
1022.79	2226.14
1022.94	2355.16
1023.10	2398.17
1023.26	2303.96
1023.41	2273.25
1023.57	2285.53
1023.73	2303.96
1023.88	2324.44
1024.04	2351.07
1024.20	2230.24
1024.35	2287.58
1024.51	2203.61
1024.67	2246.62
1024.82	2334.68
1024.98	2170.85
1025.14	2199.52
1025.29	2244.57
1025.45	2246.62
1025.61	2160.61
1025.76	2314.20
1025.92	2127.84
1026.08	2287.58
1026.23	2176.99
1026.39	2191.33
1026.55	2160.61
1026.70	2056.16
1026.86	2181.09
1027.02	2256.86
1027.17	2181.09
1027.33	2203.61
1027.48	2211.81
1027.64	2099.17
1027.80	2185.18
1027.95	2226.14
1028.11	2035.68
1028.27	2220.00
1028.42	2105.31
1028.58	2152.42
1028.73	2109.41
1028.89	2082.78
1029.05	2174.94
1029.20	2205.66
>>>>>End Processed Spectral Data<<<<<
