SpectraSuite Data File
++++++++++++++++++++++++++++++++++++
Date: Fri Jun 02 14:52:24 CEST 2017
User: INFO_000
Dark Spectrum Present: No
Reference Spectrum Present: No
Number of Sampled Component Spectra: 1
Spectrometers: USB4H00879
Integration Time (usec): 80000 (USB4H00879)
Spectra Averaged: 1 (USB4H00879)
Boxcar Smoothing: 0 (USB4H00879)
Correct for Electrical Dark: No (USB4H00879)
Strobe/Lamp Enabled: No (USB4H00879)
Correct for Detector Non-linearity: No (USB4H00879)
Correct for Stray Light: No (USB4H00879)
Number of Pixels in Processed Spectrum: 3648
>>>>>Begin Processed Spectral Data<<<<<
345.13	1310.70
345.34	1310.70
345.56	1310.70
345.78	1265.64
345.99	1300.46
346.21	1691.62
346.42	1699.81
346.64	1671.14
346.86	1832.93
347.07	1701.86
347.29	1689.57
347.50	1617.90
347.72	1730.53
347.94	1740.77
348.15	1578.98
348.37	1640.42
348.59	1648.61
348.80	1658.85
349.02	1724.39
349.23	1847.27
349.45	1789.92
349.67	1939.43
349.88	1781.73
350.10	1968.10
350.31	1843.17
350.53	1847.27
350.75	1863.65
350.96	1757.16
351.18	1843.17
351.39	1884.13
351.61	1859.56
351.82	1849.32
352.04	1918.95
352.26	1830.88
352.47	1861.60
352.69	1798.12
352.90	1755.11
353.12	1849.32
353.34	1877.99
353.55	1910.75
353.77	1888.23
353.98	1798.12
354.20	1810.40
354.41	1943.52
354.63	1902.56
354.85	2097.12
355.06	1855.46
355.28	1787.88
355.49	1843.17
355.71	1880.04
355.92	1873.89
356.14	2019.30
356.35	1859.56
356.57	1841.12
356.79	2009.06
357.00	1806.31
357.22	1961.95
357.43	1875.94
357.65	1951.71
357.86	1916.90
358.08	1916.90
358.29	1941.47
358.51	1984.48
358.72	1957.86
358.94	1906.66
359.16	1972.19
359.37	1972.19
359.59	1959.91
359.80	2023.39
360.02	1966.05
360.23	1945.57
360.45	1992.67
360.66	1914.85
360.88	1804.26
361.09	1957.86
361.31	2011.11
361.52	1957.86
361.74	1961.95
361.95	2107.36
362.17	1974.24
362.38	2144.22
362.60	2056.16
362.81	2011.11
363.03	1906.66
363.24	1927.14
363.46	2088.93
363.67	2002.91
363.89	1982.43
364.10	2019.30
364.32	1992.67
364.53	2090.98
364.75	1869.80
364.96	2056.16
365.18	2029.54
365.39	2101.22
365.61	2015.20
365.82	2127.84
366.04	1978.34
366.25	2041.82
366.47	2019.30
366.68	2086.88
366.90	1892.32
367.11	2035.68
367.33	2097.12
367.54	2031.58
367.76	2070.50
367.97	2166.75
368.19	2041.82
368.40	2099.17
368.62	1957.86
368.83	1968.10
369.05	2052.06
369.26	1980.39
369.48	1968.10
369.69	1947.62
369.91	2002.91
370.12	2066.40
370.33	2097.12
370.55	1976.29
370.76	2070.50
370.98	2058.21
371.19	2045.92
371.41	2025.44
371.62	2009.06
371.84	2058.21
372.05	2088.93
372.27	2101.22
372.48	2072.54
372.69	2105.31
372.91	2066.40
373.12	2095.07
373.34	2019.30
373.55	2187.23
373.77	2189.28
373.98	2117.60
374.20	2260.96
374.41	2287.58
374.62	2111.46
374.84	2217.95
375.05	2181.09
375.27	2215.90
375.48	2236.38
375.70	2209.76
375.91	2240.48
376.12	2285.53
376.34	2238.43
376.55	2156.51
376.77	2283.49
376.98	2158.56
377.19	2164.70
377.41	2181.09
377.62	2295.77
377.84	2248.67
378.05	2381.79
378.27	2195.42
378.48	2324.44
378.69	2482.14
378.91	2394.08
379.12	2297.82
379.34	2236.38
379.55	2310.11
379.76	2289.63
379.98	2246.62
380.19	2258.91
380.41	2299.87
380.62	2269.15
380.83	2263.01
381.05	2148.32
381.26	2467.80
381.47	2299.87
381.69	2279.39
381.90	2418.65
382.12	2285.53
382.33	2287.58
382.54	2291.68
382.76	2318.30
382.97	2392.03
383.19	2267.10
383.40	2465.75
383.61	2363.36
383.83	2355.16
384.04	2387.93
384.25	2392.03
384.47	2392.03
384.68	2396.12
384.89	2355.16
385.11	2205.66
385.32	2363.36
385.54	2308.06
385.75	2336.73
385.96	2412.51
386.18	2328.54
386.39	2408.41
386.60	2303.96
386.82	2381.79
387.03	2486.23
387.24	2465.75
387.46	2404.32
387.67	2541.53
387.88	2492.38
388.10	2480.09
388.31	2516.95
388.52	2600.92
388.74	2533.34
388.95	2596.82
389.16	2527.19
389.38	2492.38
389.59	2605.02
389.80	2637.78
390.02	2543.58
390.23	2707.41
390.44	2600.92
390.66	2564.06
390.87	2596.82
391.08	2576.34
391.30	2658.26
391.51	2699.22
391.72	2742.23
391.94	2594.78
392.15	2672.60
392.36	2623.45
392.58	2666.46
392.79	2643.93
393.00	2684.89
393.22	2701.27
393.43	2762.71
393.64	2777.05
393.85	2723.80
394.07	2609.11
394.28	2793.43
394.49	2797.53
394.71	2742.23
394.92	2834.39
395.13	2672.60
395.35	2777.05
395.56	2783.19
395.77	2758.61
395.98	2840.53
396.20	2899.92
396.41	2842.58
396.62	2973.65
396.84	2770.90
397.05	2846.68
397.26	2807.77
397.47	2994.13
397.69	2920.40
397.90	3018.71
398.11	2932.69
398.32	2981.84
398.54	2942.93
398.75	2910.16
398.96	3022.80
399.18	3147.73
399.39	3053.52
399.60	3190.74
399.81	3057.62
400.03	3018.71
400.24	3278.80
400.45	3088.34
400.66	3065.81
400.88	2975.70
401.09	3323.85
401.30	3063.76
401.51	3100.62
401.73	3045.33
401.94	3184.59
402.15	3164.11
402.36	3252.17
402.58	3125.20
402.79	3184.59
403.00	3211.22
403.21	3252.17
403.43	3295.18
403.64	3418.06
403.85	3155.92
404.06	3291.09
404.27	3174.35
404.49	3221.45
404.70	3239.89
404.91	3274.70
405.12	3237.84
405.34	3391.44
405.55	3403.72
405.76	3315.66
405.97	3280.85
406.19	3444.68
406.40	3221.45
406.61	3289.04
406.82	3446.73
407.03	3346.38
407.25	3291.09
407.46	3563.47
407.67	3452.88
407.88	3528.65
408.09	3438.54
408.31	3389.39
408.52	3528.65
408.73	3432.40
408.94	3362.76
409.15	3565.51
409.37	3569.61
409.58	3614.66
409.79	3452.88
410.00	3614.66
410.21	3463.12
410.43	3536.84
410.64	3370.96
410.85	3608.52
411.06	3684.30
411.27	3629.00
411.48	3610.57
411.70	3669.96
411.91	3557.32
412.12	3594.19
412.33	3665.86
412.54	3612.62
412.76	3663.82
412.97	3698.63
413.18	3674.06
413.39	3680.20
413.60	3774.41
413.81	3782.60
414.03	3764.17
414.24	3676.10
414.45	3829.70
414.66	3585.99
414.87	3872.71
415.08	3768.26
415.30	3786.69
415.51	3846.09
415.72	3827.65
415.93	3698.63
416.14	3846.09
416.35	3780.55
416.56	3917.76
416.78	3866.56
416.99	3790.79
417.20	3829.70
417.41	3893.19
417.62	3895.24
417.83	4016.07
418.04	4005.83
418.26	3909.57
418.47	3942.34
418.68	4046.79
418.89	3923.91
419.10	4161.47
419.31	4040.64
419.52	4145.09
419.73	3954.63
419.95	4134.85
420.16	3919.81
420.37	4005.83
420.58	4120.51
420.79	3993.54
421.00	4128.70
421.21	4263.87
421.42	4106.18
421.63	4140.99
421.85	4104.13
422.06	4173.76
422.27	4247.49
422.48	4206.53
422.69	4239.30
422.90	4292.54
423.11	4204.48
423.32	4274.11
423.53	4444.09
423.75	4444.09
423.96	4446.14
424.17	4464.57
424.38	4507.58
424.59	4530.11
424.80	4648.89
425.01	4530.11
425.22	4362.17
425.43	4569.02
425.64	4644.79
425.85	4650.94
426.06	4620.22
426.28	4702.14
426.49	4499.39
426.70	4552.63
426.91	4630.46
427.12	4691.90
427.33	4759.48
427.54	4685.75
427.75	4825.01
427.96	4966.32
428.17	4765.62
428.38	4706.23
428.59	4886.45
428.80	4784.06
429.01	4736.95
429.23	4874.17
429.44	4999.09
429.65	4847.54
429.86	4999.09
430.07	4820.92
430.28	4878.26
430.49	4925.36
430.70	5164.98
430.91	5154.74
431.12	5124.02
431.33	5242.80
431.54	5101.49
431.75	5142.45
431.96	5101.49
432.17	5091.25
432.38	5261.23
432.59	5337.01
432.80	5334.96
433.01	5435.31
433.22	5367.73
433.43	5347.25
433.64	5412.78
433.85	5304.24
434.06	5339.05
434.27	5318.57
434.49	5500.84
434.70	5599.15
434.91	5615.53
435.12	5537.71
435.33	5441.45
435.54	5525.42
435.75	5449.64
435.96	5574.57
436.17	5543.85
436.38	5762.98
436.59	5584.81
436.80	5582.76
437.01	5836.71
437.22	5928.87
437.43	5726.12
437.64	5740.46
437.85	5849.00
438.06	5791.66
438.27	5765.03
438.48	5916.58
438.69	6061.99
438.90	5910.44
439.11	5889.96
439.32	6117.28
439.53	5996.45
439.74	5908.39
439.95	5959.59
440.16	6088.61
440.37	5892.01
440.57	6051.75
440.78	6111.14
440.99	6049.70
441.20	6037.41
441.41	6016.93
441.62	6201.25
441.83	6023.08
442.04	6148.00
442.25	6219.68
442.46	6234.02
442.67	6317.98
442.88	6580.12
443.09	6074.28
443.30	6180.77
443.51	6451.10
443.72	6655.90
443.93	6295.46
444.14	6590.36
444.35	6242.21
444.56	6647.71
444.77	6463.39
444.98	6608.80
445.19	6490.01
445.40	6535.07
445.61	6469.53
445.81	6743.96
446.02	6729.63
446.23	6629.27
446.44	6510.49
446.65	6811.54
446.86	6664.09
447.07	6852.50
447.28	7022.48
447.49	6700.95
447.70	6709.15
447.91	6832.02
448.12	6885.27
448.33	7040.92
448.54	6959.00
448.74	6823.83
448.95	6946.71
449.16	7114.64
449.37	7153.55
449.58	6903.70
449.79	7167.89
450.00	6999.96
450.21	7139.22
450.42	7143.32
450.63	7366.54
450.84	7262.10
451.05	7372.69
451.25	7202.71
451.46	7237.52
451.67	7374.74
451.88	7573.39
452.09	7341.97
452.30	7296.91
452.51	7278.48
452.72	7595.92
452.93	7690.12
453.13	7276.43
453.34	7425.93
453.55	7507.85
453.76	7677.83
453.97	7931.78
454.18	7499.66
454.39	7866.25
454.60	7569.29
454.81	7733.13
455.01	8030.09
455.22	7536.52
455.43	7976.84
455.64	8132.48
455.85	7997.32
456.06	8048.52
456.27	8107.91
456.48	8007.56
456.68	8046.47
456.89	8212.35
457.10	8343.42
457.31	8150.92
457.52	8146.82
457.73	8169.35
457.94	8396.67
458.14	8234.88
458.35	8607.61
458.56	8310.66
458.77	8243.07
458.98	8355.71
459.19	8478.59
459.39	8644.48
459.60	8828.79
459.81	8437.63
460.02	8683.39
460.23	8490.88
460.44	8843.13
460.65	8798.07
460.85	8824.70
461.06	8853.37
461.27	8673.15
461.48	8916.86
461.69	9138.04
461.89	8853.37
462.10	9049.97
462.31	8914.81
462.52	8970.10
462.73	9146.23
462.94	9246.58
463.14	9277.30
463.35	9369.46
463.56	9613.17
463.77	9502.58
463.98	9326.45
464.18	9449.33
464.39	9604.97
464.60	9676.65
464.81	9588.59
465.02	9572.21
465.23	9854.83
465.43	9523.05
465.64	9877.35
465.85	9652.08
466.06	9887.59
466.27	10080.10
466.47	10207.08
466.68	10254.18
466.89	9973.61
467.10	10250.08
467.30	10121.06
467.51	10315.62
467.72	10651.49
467.93	10381.15
468.14	10471.26
468.34	10536.80
468.55	10563.42
468.76	10381.15
468.97	10440.54
469.17	10794.84
469.38	10628.96
469.59	10854.23
469.80	10737.50
470.01	11024.22
470.21	10915.67
470.42	11208.53
470.63	11173.72
470.84	11147.09
471.04	11159.38
471.25	11358.03
471.46	11370.32
471.67	11571.02
471.87	11532.11
472.08	11530.06
472.29	11890.51
472.50	11585.36
472.70	11730.76
472.91	11607.89
473.12	11964.23
473.33	12085.06
473.53	12197.70
473.74	11984.71
473.95	12402.50
474.16	12238.66
474.36	12386.12
474.57	12699.45
474.78	12730.17
474.99	12564.29
475.19	12429.12
475.40	13045.56
475.61	12914.49
475.81	13041.46
476.02	13266.74
476.23	12951.35
476.44	13111.10
476.64	13498.16
476.85	13563.70
477.06	13461.30
477.27	13643.57
477.47	13717.29
477.68	13852.46
477.89	13918.00
478.09	14001.96
478.30	14038.83
478.51	14047.02
478.71	14221.10
478.92	14380.84
479.13	14667.55
479.34	14917.40
479.54	14669.60
479.75	14604.07
479.96	15048.47
480.16	14851.87
480.37	14692.13
480.58	14944.03
480.78	15433.49
480.99	15388.44
481.20	15410.96
481.41	15529.75
481.61	15488.79
481.82	15882.00
482.03	15748.88
482.23	15578.90
482.44	16002.83
482.65	15879.95
482.85	16129.80
483.06	16330.50
483.27	16328.45
483.47	16316.17
483.68	16359.17
483.89	16621.31
484.09	16555.78
484.30	16574.21
484.51	17092.35
484.71	17108.73
484.92	17012.48
485.13	17272.57
485.33	17368.82
485.54	17260.28
485.75	17452.79
485.95	17491.70
486.16	17628.92
486.37	17694.45
486.57	17889.01
486.78	17770.22
486.98	17858.29
487.19	18198.25
487.40	18214.63
487.60	17999.60
487.81	18468.58
488.02	18378.47
488.22	18521.83
488.43	18894.56
488.64	18704.10
488.84	18968.29
489.05	19044.06
489.25	19250.91
489.46	19396.31
489.67	19275.48
489.87	19642.07
490.08	19611.35
490.29	19617.49
490.49	19859.15
490.70	20145.87
490.90	20094.67
491.11	19910.35
491.32	20123.34
491.52	20268.75
491.73	20180.68
491.94	20383.43
492.14	20647.62
492.35	20696.77
492.55	20758.21
492.76	20680.39
492.97	20987.58
493.17	20737.73
493.38	21143.23
493.58	21384.89
493.79	21450.42
494.00	21147.33
494.20	21296.83
494.41	21671.61
494.61	21571.25
494.82	21765.81
495.02	21778.10
495.23	21900.98
495.44	21909.17
495.64	22161.07
495.85	22249.13
496.05	22392.49
496.26	22218.41
496.47	22378.15
496.67	22431.40
496.88	22859.43
497.08	22306.48
497.29	23017.12
497.49	22902.43
497.70	23049.89
497.91	23183.01
498.11	23234.21
498.32	23291.55
498.52	23226.01
498.73	23735.96
498.93	23291.55
499.14	23426.71
499.34	23674.52
499.55	23910.04
499.76	23686.81
499.96	24022.67
500.17	23973.52
500.37	23942.80
500.58	24110.74
500.78	24313.48
500.99	24225.42
501.19	24419.98
501.40	24426.12
501.60	24266.38
501.81	24643.21
502.02	24665.74
502.22	24600.20
502.43	24985.22
502.63	25065.09
502.84	25149.06
503.04	24940.16
503.25	25226.88
503.45	25036.42
503.66	25222.78
503.86	25316.99
504.07	25595.51
504.27	25374.33
504.48	25796.21
504.68	25552.51
504.89	25822.84
505.09	25751.16
505.30	25779.83
505.50	25611.90
505.71	25796.21
505.91	25935.48
506.12	25884.28
506.32	26271.34
506.53	26246.77
506.73	26164.85
506.94	26082.93
507.14	26381.93
507.35	26297.97
507.55	26394.22
507.76	26406.51
507.96	26322.54
508.17	26513.00
508.37	26498.67
508.58	26795.62
508.78	26687.08
508.99	27330.14
509.19	27002.47
509.40	26922.60
509.60	26816.10
509.81	27119.20
510.01	26654.31
510.22	27242.08
510.42	27260.51
510.63	27326.05
510.83	27080.29
511.04	26941.03
511.24	27278.94
511.44	27379.29
511.65	27399.77
511.85	27545.18
512.06	27645.53
512.26	27952.73
512.47	27526.75
512.67	27817.56
512.88	27801.18
513.08	27528.80
513.29	27817.56
513.49	27829.85
513.69	27645.53
513.90	28218.96
514.10	27807.32
514.31	28120.66
514.51	28233.30
514.72	28116.56
514.92	28163.67
515.13	28520.01
515.33	28481.10
515.53	28282.45
515.74	28415.57
515.94	28481.10
516.15	28370.51
516.35	27991.64
516.56	28610.12
516.76	28450.38
516.96	28591.69
517.17	28823.11
517.37	28773.96
517.58	28776.01
517.78	28573.26
517.99	28859.98
518.19	28726.86
518.39	29357.63
518.60	29212.23
518.80	29312.58
519.01	28612.17
519.21	29158.98
519.41	29144.64
519.62	29312.58
519.82	29490.75
520.03	29220.42
520.23	29326.91
520.43	29232.71
520.64	29777.47
520.84	30152.24
521.05	29548.09
521.25	30029.37
521.45	29470.27
521.66	29943.35
521.86	30010.93
522.07	29740.60
522.27	30086.71
522.47	30055.99
522.68	30162.48
522.88	30205.49
523.08	30539.31
523.29	30293.55
523.49	30279.22
523.70	30508.59
523.90	30250.55
524.10	30705.20
524.31	30838.31
524.51	30357.04
524.71	30879.27
524.92	31063.59
525.12	31241.76
525.33	30842.41
525.53	30932.52
525.73	31567.39
525.94	31258.15
526.14	31401.50
526.34	31184.42
526.55	31335.97
526.75	31450.66
526.95	32058.90
527.16	31372.83
527.36	31610.40
527.56	31733.28
527.77	32204.31
527.97	31768.09
528.17	32081.43
528.38	32306.71
528.58	32017.94
528.78	32542.22
528.99	32130.58
529.19	32394.77
529.39	32220.69
529.60	32658.96
529.80	32607.76
530.00	32441.87
530.21	33160.71
530.41	32865.80
530.61	32722.44
530.82	32994.82
531.02	32759.31
531.22	33041.93
531.43	33191.43
531.63	33791.48
531.83	33551.87
532.04	33990.14
532.24	33508.86
532.44	34188.79
532.64	34119.16
532.85	33977.85
533.05	34168.31
533.25	34448.88
533.46	34160.12
533.66	34393.59
533.86	34031.10
534.07	34680.30
534.27	34379.25
534.47	35048.94
534.67	35005.93
534.88	34682.35
535.08	34561.52
535.28	34985.45
535.49	35501.54
535.69	35710.43
535.89	35431.91
536.09	35182.06
536.30	35735.01
536.50	35427.81
536.70	35739.10
536.91	35816.93
537.11	35806.69
537.31	35986.91
537.51	35802.59
537.72	36402.64
537.92	36265.43
538.12	36701.65
538.32	36416.98
538.53	36500.95
538.73	36490.71
538.93	36505.04
539.13	36591.06
539.34	36650.45
539.54	36642.26
539.74	37227.98
539.94	37215.69
540.15	36982.22
540.35	37268.94
540.55	37004.75
540.75	37332.42
540.96	37565.89
541.16	37486.02
541.36	37590.47
541.56	37330.37
541.77	38206.90
541.97	37725.63
542.17	38284.73
542.37	37688.77
542.58	38143.42
542.78	38016.44
542.98	38196.67
543.18	38243.77
543.38	38919.60
543.59	38938.03
543.79	38278.58
543.99	38602.16
544.19	38847.92
544.40	38702.51
544.60	39120.30
544.80	38729.14
545.00	39042.48
545.20	39173.55
545.41	38929.84
545.61	38786.48
545.81	39308.71
546.01	39804.32
546.21	39458.21
546.42	39386.54
546.62	39476.65
546.82	39519.65
547.02	39880.10
547.22	39923.10
547.43	39482.79
547.63	40222.11
547.83	40148.38
548.03	39845.28
548.23	40344.98
548.44	40326.55
548.64	40412.57
548.84	40480.15
549.04	40222.11
549.24	40762.77
549.45	40834.45
549.65	40781.20
549.85	41110.92
550.05	41096.59
550.25	41072.01
550.45	41276.81
550.66	41139.60
550.86	40727.95
551.06	41584.01
551.26	41502.09
551.46	41549.19
551.66	41858.43
551.87	41559.43
552.07	41579.91
552.27	41956.74
552.47	41782.66
552.67	42194.30
552.87	41868.67
553.07	42028.41
553.28	42143.10
553.48	41913.73
553.68	41766.27
553.88	42415.48
554.08	42390.91
554.28	42216.83
554.48	42079.61
554.69	42397.05
554.89	42636.66
555.09	42319.23
555.29	42298.75
555.49	43009.39
555.69	42698.10
555.89	43072.88
556.10	43052.40
556.30	42698.10
556.50	42945.90
556.70	42993.01
556.90	43087.21
557.10	43134.32
557.30	42931.57
557.50	43226.48
557.70	43330.92
557.91	43435.37
558.11	43398.51
558.31	43750.76
558.51	43736.42
558.71	43316.59
558.91	43750.76
559.11	43660.65
559.31	43464.04
559.51	43300.20
559.72	43793.76
559.92	44098.91
560.12	43816.29
560.32	44166.49
560.52	43881.83
560.72	44406.11
560.92	44246.36
561.12	44406.11
561.32	44283.23
561.52	44316.00
561.72	44629.34
561.93	44307.80
562.13	44537.18
562.33	44334.43
562.53	44825.94
562.73	44680.53
562.93	44520.79
563.13	44770.64
563.33	44625.24
563.53	44672.34
563.73	44533.08
563.93	44987.73
564.13	45151.57
564.33	45000.02
564.53	45139.28
564.74	45385.04
564.94	45274.45
565.14	45014.35
565.34	44885.33
565.54	45290.83
565.74	45102.42
565.94	45759.81
566.14	45421.90
566.34	45612.36
566.54	46058.82
566.74	45301.07
566.94	45770.05
567.14	45481.29
567.34	45274.45
567.54	46013.76
567.74	45970.75
567.94	45659.46
568.14	46267.71
568.34	46114.11
568.54	46044.48
568.74	45995.33
568.94	45935.94
569.14	46210.37
569.34	46329.15
569.54	46060.87
569.75	45903.17
569.95	46060.87
570.15	46470.46
570.35	46210.37
570.55	46114.11
570.75	46447.93
570.95	46357.82
571.15	46671.16
571.35	46624.06
571.55	46972.21
571.75	46513.47
571.95	46685.50
572.15	46863.67
572.35	47123.76
572.55	46849.33
572.75	46843.19
572.95	46681.40
573.15	47095.09
573.35	46886.20
573.55	46505.27
573.75	46871.86
573.95	47308.08
574.15	46972.21
574.35	46892.34
574.55	46994.74
574.75	46921.01
574.95	47199.54
575.15	47428.91
575.34	47306.03
575.54	47504.68
575.74	47764.78
575.94	47543.59
576.14	47486.25
576.34	47813.93
576.54	47717.67
576.74	47435.05
576.94	47529.26
577.14	48059.68
577.34	48026.92
577.54	47598.89
577.74	47967.52
577.94	48125.22
578.14	48370.97
578.34	48168.22
578.54	47936.80
578.74	47975.72
578.94	47770.92
579.14	47846.69
579.34	47977.76
579.54	48354.59
579.74	48616.73
579.94	48452.89
580.13	48633.11
580.33	48629.02
580.53	48856.34
580.73	48629.02
580.93	48033.06
581.13	48434.46
581.33	48672.03
581.53	48874.77
581.73	48747.80
581.93	49018.13
582.13	48915.73
582.33	48915.73
582.53	48530.72
582.73	48973.08
582.92	48979.22
583.12	49655.05
583.32	49489.16
583.52	49095.95
583.72	49218.83
583.92	49104.15
584.12	49300.75
584.32	49712.39
584.52	49259.79
584.72	49630.47
584.92	49304.85
585.11	49458.45
585.31	49562.89
585.51	49564.94
585.71	49431.82
585.91	49655.05
586.11	49487.12
586.31	49368.33
586.51	49822.98
586.71	49878.28
586.91	50160.90
587.10	49722.63
587.30	49968.39
587.50	50312.45
587.70	50070.79
587.90	49960.20
588.10	50027.78
588.30	49847.56
588.50	50310.40
588.69	50185.47
588.89	49927.43
589.09	50173.19
589.29	49902.85
589.49	50746.62
589.69	50371.84
589.89	50130.18
590.08	50162.95
590.28	49972.49
590.48	50425.09
590.68	50009.35
590.88	50375.94
591.08	50779.39
591.28	50175.23
591.47	50644.22
591.67	50443.52
591.87	50717.95
592.07	50119.94
592.27	50765.05
592.47	50511.10
592.67	50631.93
592.86	50746.62
593.06	50484.48
593.26	50595.07
593.46	51072.24
593.66	50654.46
593.86	51004.66
594.05	51033.33
594.25	51088.63
594.45	50781.43
594.65	50832.63
594.85	50408.70
595.05	50832.63
595.24	51274.99
595.44	51045.62
595.64	50937.08
595.84	50756.86
596.04	50789.62
596.23	51315.95
596.43	51404.02
596.63	51129.59
596.83	51326.19
597.03	51393.78
597.22	51305.71
597.42	51324.14
597.62	51535.09
597.82	51535.09
598.02	51225.84
598.21	51975.40
598.41	51127.54
598.61	51877.10
598.81	51387.63
599.01	51496.17
599.20	51590.38
599.40	51514.61
599.60	51647.72
599.80	51705.07
600.00	51705.07
600.19	51924.20
600.39	51803.37
600.59	52053.22
600.79	51530.99
600.98	51805.42
601.18	51983.59
601.38	52522.21
601.58	52307.17
601.78	52319.46
601.97	52204.77
602.17	52853.98
602.37	51936.49
602.57	52180.20
602.76	52466.91
602.96	51965.16
603.16	52532.45
603.36	52337.89
603.55	52471.01
603.75	52307.17
603.95	52858.07
604.15	52618.46
604.34	52804.83
604.54	52950.23
604.74	52851.93
604.94	52901.08
605.13	53032.15
605.33	52958.42
605.53	52864.22
605.73	53333.20
605.92	52800.73
606.12	53466.32
606.32	53406.93
606.52	52880.60
606.71	52952.28
606.91	53619.92
607.11	52782.30
607.30	53271.76
607.50	53052.63
607.70	53759.18
607.90	53134.55
608.09	53335.25
608.29	53216.47
608.49	53400.79
608.68	53251.28
608.88	53099.73
609.08	53466.32
609.28	53693.64
609.47	53179.60
609.67	54166.73
609.87	53503.18
610.06	53949.64
610.26	53548.24
610.46	53998.79
610.66	53529.81
610.85	53839.05
611.05	53341.39
611.25	53982.41
611.44	53640.40
611.64	54207.68
611.84	53808.33
612.03	53581.01
612.23	54045.90
612.43	53730.51
612.62	54123.72
612.82	54185.16
613.02	54082.76
613.21	53943.50
613.41	53550.29
613.61	54236.36
613.80	53494.99
614.00	54172.87
614.20	54215.88
614.39	54109.38
614.59	53763.28
614.79	53914.83
614.98	54469.82
615.18	54426.82
615.38	54396.10
615.57	53992.65
615.77	54478.02
615.97	54449.35
616.16	54088.90
616.36	54342.85
616.56	54318.28
616.75	54101.19
616.95	53325.01
617.15	54082.76
617.34	53949.64
617.54	54183.11
617.74	54863.03
617.93	54746.30
618.13	54207.68
618.32	54062.28
618.52	54154.44
618.72	54658.24
618.91	54224.07
619.11	54168.77
619.31	54224.07
619.50	54269.12
619.70	53900.49
619.90	54293.70
620.09	53966.02
620.29	54572.22
620.48	54428.87
620.68	54770.88
620.88	54179.01
621.07	54553.79
621.27	54426.82
621.46	53998.79
621.66	54539.46
621.86	54205.64
622.05	54191.30
622.25	54420.67
622.44	54256.84
622.64	54387.91
622.84	54140.10
623.03	54449.35
623.23	54066.38
623.42	54523.07
623.62	54518.98
623.82	54615.23
624.01	54451.39
624.21	54865.08
624.40	54502.59
624.60	54906.04
624.80	54457.54
624.99	54654.14
625.19	54441.15
625.38	54215.88
625.58	54498.50
625.77	54385.86
625.97	54783.16
626.17	54348.99
626.36	54289.60
626.56	54648.00
626.75	54142.15
626.95	54887.61
627.14	54459.58
627.34	55260.34
627.54	54682.81
627.73	54809.79
627.93	54693.05
628.12	54584.51
628.32	55194.81
628.51	54789.31
628.71	54910.14
628.90	54789.31
629.10	54760.64
629.30	55078.07
629.49	54729.92
629.69	54650.05
629.88	54715.58
630.08	54652.09
630.27	54938.81
630.47	55022.78
630.66	54793.40
630.86	54895.80
631.05	55084.22
631.25	55366.84
631.44	54938.81
631.64	54594.75
631.84	54844.60
632.03	55407.79
632.23	55024.82
632.42	55758.00
632.62	55321.78
632.81	54760.64
633.01	55039.16
633.20	55733.42
633.40	55798.96
633.59	55401.65
633.79	54832.32
633.98	55006.39
634.18	55776.43
634.37	55405.75
634.57	55409.84
634.76	55442.61
634.96	55252.15
635.15	55649.45
635.35	55295.16
635.54	55481.52
635.74	55825.58
635.93	55317.68
636.13	56065.19
636.32	55753.90
636.52	55397.55
636.71	55579.82
636.91	55698.61
637.10	56374.44
637.30	55944.36
637.49	55891.12
637.69	56108.20
637.88	56290.47
638.08	55764.14
638.27	56374.44
638.46	55907.50
638.66	55483.57
638.85	55876.78
639.05	55948.46
639.24	56341.67
639.44	55796.91
639.63	56071.34
639.83	56372.39
640.02	56261.80
640.22	56327.33
640.41	56353.96
640.61	55655.60
640.80	56345.76
640.99	56220.84
641.19	56614.05
641.38	56321.19
641.58	56343.72
641.77	56542.37
641.97	56351.91
642.16	56306.85
642.36	56655.01
642.55	57253.01
642.74	56599.71
642.94	56937.63
643.13	56485.03
643.33	57029.79
643.52	57091.22
643.72	56673.44
643.91	56566.94
644.10	57054.36
644.30	57230.49
644.49	56599.71
644.69	56966.30
644.88	57169.05
645.08	57150.62
645.27	56943.77
645.46	56808.61
645.66	57011.35
645.85	56822.94
646.05	56931.48
646.24	57246.87
646.43	57324.69
646.63	57572.50
646.82	57711.76
647.02	57533.59
647.21	57840.78
647.40	57212.06
647.60	57650.32
647.79	57607.31
647.99	57406.61
648.18	57328.79
648.37	57922.70
648.57	58244.23
648.76	57666.70
648.96	57351.32
649.15	57525.39
649.34	57785.49
649.54	57705.62
649.73	56865.95
649.92	57484.43
650.12	57914.51
650.31	58324.10
650.51	57859.21
650.70	58086.54
650.89	57883.79
651.09	58627.20
651.28	58012.81
651.47	58064.01
651.67	58090.63
651.86	58373.25
652.06	57758.86
652.25	57754.77
652.44	58150.02
652.64	57597.07
652.83	57992.33
653.02	57787.53
653.22	58313.86
653.41	58035.34
653.60	57955.47
653.80	57846.93
653.99	58266.76
654.18	58248.33
654.38	58401.92
654.57	58340.49
654.76	58401.92
654.96	57830.54
655.15	57928.84
655.34	58016.91
655.54	57896.08
655.73	57926.80
655.92	58258.57
656.12	58227.85
656.31	58922.11
656.50	58315.91
656.70	58336.39
656.89	58236.04
657.08	58905.73
657.28	58438.79
657.47	58432.64
657.66	58823.81
657.86	58348.68
658.05	58635.39
658.24	58750.08
658.43	58279.05
658.63	58561.67
658.82	58348.68
659.01	58561.67
659.21	58602.63
659.40	58653.82
659.59	58465.41
659.79	58948.73
659.98	58946.68
660.17	58686.59
660.36	58422.40
660.56	59092.09
660.75	58713.22
660.94	58727.55
661.14	58651.78
661.33	58459.27
661.52	57832.59
661.71	58696.83
661.91	58240.14
662.10	58604.67
662.29	58793.09
662.49	59249.78
662.68	58911.87
662.87	58741.89
663.06	58770.56
663.26	58539.14
663.45	58983.55
663.64	58582.15
663.83	59296.89
664.03	59270.26
664.22	58809.47
664.41	58905.73
664.60	58446.98
664.80	58791.04
664.99	58635.39
665.18	59126.91
665.37	58881.15
665.57	58786.94
665.76	58797.18
665.95	59047.04
666.14	58856.57
666.34	59176.06
666.53	58694.78
666.72	58401.92
666.91	58379.40
667.11	58791.04
667.30	58352.77
667.49	58766.46
667.68	58684.54
667.87	58358.92
668.07	58915.96
668.26	58690.69
668.45	58672.26
668.64	58662.02
668.84	59116.67
669.03	58987.64
669.22	58692.74
669.41	58627.20
669.60	58625.15
669.80	58553.47
669.99	58819.71
670.18	58877.05
670.37	58866.81
670.57	58930.30
670.76	59077.75
670.95	58696.83
671.14	58528.90
671.33	58578.05
671.53	58637.44
671.72	59063.42
671.91	58932.35
672.10	58547.33
672.29	58938.49
672.48	58559.62
672.68	58856.57
672.87	58911.87
673.06	58838.14
673.25	58578.05
673.44	58231.94
673.64	58418.31
673.83	58082.44
674.02	58162.31
674.21	58131.59
674.40	58354.82
674.59	57715.86
674.79	57939.08
674.98	58055.82
675.17	58500.23
675.36	58147.98
675.55	58047.63
675.74	57777.29
675.94	58250.38
676.13	58211.46
676.32	58082.44
676.51	58891.39
676.70	58481.80
676.89	58207.37
677.08	58377.35
677.28	58129.54
677.47	58446.98
677.66	58551.43
677.85	58051.72
678.04	58332.29
678.23	58436.74
678.42	57934.99
678.62	57803.92
678.81	58492.04
679.00	58018.95
679.19	58600.58
679.38	57896.08
679.57	57619.60
679.76	57724.05
679.96	58162.31
680.15	57996.43
680.34	57502.87
680.53	57865.36
680.72	58074.25
680.91	58293.38
681.10	57398.42
681.29	57889.93
681.48	57554.07
681.68	57353.36
681.87	57480.34
682.06	57322.65
682.25	57253.01
682.44	57226.39
682.63	57523.35
682.82	57031.83
683.01	57267.35
683.20	57136.28
683.39	57586.83
683.59	56644.77
683.78	57218.20
683.97	57148.57
684.16	57062.55
684.35	56855.71
684.54	56984.73
684.73	57412.76
684.92	57377.94
685.11	57005.21
685.30	57058.46
685.49	57107.61
685.69	56849.56
685.88	57021.59
686.07	56771.74
686.26	56759.45
686.45	56908.96
686.64	56792.22
686.83	56620.19
687.02	56808.61
687.21	57232.53
687.40	57023.64
687.59	56841.37
687.78	56538.27
687.97	56693.92
688.16	56988.83
688.35	56538.27
688.54	56179.88
688.74	56999.07
688.93	56169.64
689.12	56235.17
689.31	56458.40
689.50	56724.64
689.69	55661.74
689.88	55839.92
690.07	56255.65
690.26	56063.14
690.45	56710.30
690.64	55901.36
690.83	56026.28
691.02	56003.75
691.21	56173.73
691.40	55764.14
691.59	55852.20
691.78	55874.73
691.97	55592.11
692.16	55897.26
692.35	55604.40
692.54	56091.82
692.73	55811.24
692.92	55837.87
693.11	55573.68
693.30	55577.78
693.49	55628.98
693.68	55415.99
693.87	55344.31
694.06	54938.81
694.25	55422.13
694.44	55061.69
694.63	55403.70
694.82	55418.03
695.01	55499.95
695.20	55526.58
695.39	54803.64
695.58	55239.86
695.77	54676.67
695.96	54820.03
696.15	55153.85
696.34	54834.36
696.53	55407.79
696.72	54809.79
696.91	54662.33
697.10	54359.23
697.29	54490.30
697.48	55112.89
697.67	54359.23
697.86	54410.43
698.05	54371.52
698.24	54572.22
698.43	54213.83
698.62	54547.65
698.81	54086.85
699.00	54740.16
699.19	54211.78
699.38	54838.46
699.57	54088.90
699.76	54301.89
699.95	53738.70
700.14	54170.82
700.32	53869.77
700.51	54031.56
700.70	54555.84
700.89	54359.23
701.08	53912.78
701.27	53918.92
701.46	53982.41
701.65	53701.84
701.84	53605.58
702.03	54027.46
702.22	53513.42
702.41	53505.23
702.60	53589.20
702.79	53388.50
702.98	53396.69
703.17	53779.66
703.35	53337.30
703.54	53189.84
703.73	53628.11
703.92	53275.86
704.11	53476.56
704.30	52765.91
704.49	53028.05
704.68	53142.74
704.87	53241.04
705.06	52952.28
705.25	52507.87
705.43	52987.10
705.62	52866.27
705.81	53239.00
706.00	53171.41
706.19	52790.49
706.38	52780.25
706.57	52923.61
706.76	52892.89
706.95	52626.65
707.14	52772.06
707.32	52045.03
707.51	52554.97
707.70	52536.54
707.89	52356.32
708.08	52776.15
708.27	52608.22
708.46	52630.75
708.65	52528.35
708.84	52991.19
709.02	52352.23
709.21	52479.20
709.40	52022.50
709.59	52221.16
709.78	51879.14
709.97	52423.90
710.16	52129.00
710.34	51815.66
710.53	52317.41
710.72	52223.20
710.91	52155.62
711.10	52167.91
711.29	52468.96
711.48	51633.39
711.66	51725.55
711.85	51840.23
712.04	51823.85
712.23	51518.70
712.42	51766.51
712.61	51318.00
712.80	51647.72
712.98	51721.45
713.17	51342.58
713.36	51301.62
713.55	51332.34
713.74	51391.73
713.93	51555.57
714.11	51426.54
714.30	51047.67
714.49	51129.59
714.68	51625.20
714.87	50896.12
715.06	51072.24
715.24	51244.27
715.43	51205.36
715.62	50996.47
715.81	50861.30
716.00	50930.93
716.18	50773.24
716.37	50937.08
716.56	50568.44
716.75	51393.78
716.94	50697.47
717.12	50400.51
717.31	51031.29
717.50	50814.20
717.69	50451.71
717.88	50705.66
718.06	50785.53
718.25	50865.40
718.44	50089.22
718.63	50255.11
718.82	49853.70
719.00	49960.20
719.19	49751.30
719.38	49614.09
719.57	49575.18
719.76	49597.71
719.94	49470.73
720.13	49870.09
720.32	50019.59
720.51	49489.16
720.69	49630.47
720.88	49800.46
721.07	49673.48
721.26	49218.83
721.44	49382.67
721.63	49267.98
721.82	49360.14
722.01	49286.42
722.20	49577.23
722.38	48768.28
722.57	48674.07
722.76	48985.36
722.95	48842.01
723.13	48809.24
723.32	48854.29
723.51	48489.76
723.70	48254.24
723.88	48880.92
724.07	48612.63
724.26	48821.53
724.44	48205.09
724.63	48960.79
724.82	48469.28
725.01	48626.97
725.19	48618.78
725.38	48209.18
725.57	48217.38
725.76	48612.63
725.94	48031.01
726.13	48141.60
726.32	48096.55
726.51	48299.30
726.69	48547.10
726.88	48409.89
727.07	48235.81
727.25	48162.08
727.44	48293.15
727.63	48006.44
727.82	47799.59
728.00	47979.81
728.19	47977.76
728.38	48086.31
728.56	47426.86
728.75	48340.25
728.94	47985.96
729.12	48117.03
729.31	47832.36
729.50	47945.00
729.69	48403.74
729.87	47715.62
730.06	47695.14
730.25	47476.01
730.43	47914.28
730.62	47842.60
730.81	48014.63
730.99	48180.51
731.18	47818.02
731.37	48248.10
731.55	48301.34
731.74	47883.56
731.93	48004.39
732.11	47844.65
732.30	48117.03
732.49	47785.25
732.67	47461.68
732.86	47844.65
733.05	47799.59
733.23	47629.61
733.42	47779.11
733.61	47826.21
733.79	47703.34
733.98	47973.67
734.17	47732.01
734.35	47953.19
734.54	47869.22
734.73	47760.68
734.91	47981.86
735.10	47084.85
735.29	48088.35
735.47	47404.33
735.66	47529.26
735.84	47830.31
736.03	47504.68
736.22	47957.28
736.40	47682.86
736.59	47732.01
736.78	47549.74
736.96	47285.55
737.15	47420.72
737.33	47715.62
737.52	47433.00
737.71	47349.04
737.89	47480.11
738.08	47111.47
738.27	46849.33
738.45	47723.82
738.64	47879.46
738.82	47732.01
739.01	47027.51
739.20	47756.58
739.38	47433.00
739.57	47541.55
739.75	47357.23
739.94	47387.95
740.13	47572.27
740.31	47054.13
740.50	47236.40
740.68	47365.42
740.87	47361.33
741.06	47668.52
741.24	46957.88
741.43	46843.19
741.61	47289.65
741.80	46906.68
741.99	46814.52
742.17	46624.06
742.36	47185.20
742.54	46478.65
742.73	47267.12
742.91	47367.47
743.10	46994.74
743.29	47430.96
743.47	46812.47
743.66	46908.72
743.84	46998.83
744.03	47172.91
744.21	46656.82
744.40	47449.39
744.59	47174.96
744.77	46531.90
744.96	46794.04
745.14	47013.17
745.33	46693.69
745.51	46931.25
745.70	47101.23
745.88	46822.71
746.07	47013.17
746.26	46626.10
746.44	46693.69
746.63	46519.61
746.81	46640.44
747.00	46517.56
747.18	46896.44
747.37	46476.60
747.55	46251.33
747.74	46400.83
747.92	46075.20
748.11	46484.79
748.29	46472.51
748.48	46828.85
748.66	46093.63
748.85	46261.57
749.03	46427.45
749.22	46519.61
749.41	45835.59
749.59	46449.98
749.78	45751.62
749.96	46077.25
750.15	45880.64
750.33	46458.17
750.52	46118.21
750.70	45890.88
750.89	45954.37
751.07	45720.90
751.26	46134.59
751.44	45925.70
751.63	46282.05
751.81	45811.01
752.00	46196.03
752.18	46378.30
752.37	45989.19
752.55	45303.12
752.74	45757.77
752.92	45512.01
753.10	45219.15
753.29	45866.31
753.47	46032.19
753.66	45630.79
753.84	45585.74
754.03	45448.52
754.21	45079.89
754.40	45276.49
754.58	45708.61
754.77	45178.19
754.95	45280.59
755.14	45649.22
755.32	45557.06
755.51	44969.30
755.69	45421.90
755.88	45344.08
756.06	45253.97
756.24	45233.49
756.43	45047.12
756.61	45073.74
756.80	45159.76
756.98	45022.54
757.17	45292.88
757.35	45120.85
757.54	44711.25
757.72	45012.31
757.90	44862.80
758.09	44932.43
758.27	44889.43
758.46	44954.96
758.64	44584.28
758.83	45000.02
759.01	45403.47
759.19	44791.12
759.38	44510.55
759.56	44993.87
759.75	45110.61
759.93	45196.62
760.12	44682.58
760.30	44885.33
760.48	44365.15
760.67	44889.43
760.85	44762.45
761.04	44776.79
761.22	44698.97
761.40	44676.44
761.59	44569.94
761.77	44242.27
761.96	44514.65
762.14	44377.43
762.32	44129.63
762.51	43959.65
762.69	44107.10
762.88	44451.16
763.06	44442.97
763.24	44076.38
763.43	44066.14
763.61	43756.90
763.80	44229.98
763.98	44227.93
764.16	44111.20
764.35	44025.18
764.53	43799.91
764.72	44021.09
764.90	43965.79
765.08	43943.27
765.27	43902.31
765.45	44201.31
765.63	43330.92
765.82	43744.61
766.00	43629.93
766.18	43816.29
766.37	43861.35
766.55	43732.32
766.74	43857.25
766.92	43427.18
767.10	43554.15
767.29	43646.31
767.47	42634.61
767.65	43396.46
767.84	43349.35
768.02	43435.37
768.20	43236.72
768.39	43281.77
768.57	43298.16
768.75	43222.38
768.94	43408.75
769.12	42939.76
769.30	43058.54
769.49	43005.30
769.67	42767.73
769.85	42827.12
770.04	43175.28
770.22	42556.79
770.40	42995.06
770.59	42374.52
770.77	42782.07
770.95	42435.96
771.14	42364.28
771.32	42229.12
771.50	42100.09
771.69	42440.06
771.87	42677.62
772.05	42308.99
772.24	42341.75
772.42	42411.38
772.60	42476.92
772.78	42163.58
772.97	42122.62
773.15	42177.92
773.33	42100.09
773.52	42143.10
773.70	41944.45
773.88	42227.07
774.07	41784.71
774.25	42253.69
774.43	42147.20
774.61	42194.30
774.80	42108.29
774.98	42280.31
775.16	42581.37
775.34	41862.53
775.53	42259.84
775.71	42589.56
775.89	41903.49
776.08	42411.38
776.26	42290.55
776.44	42675.57
776.62	42268.03
776.81	42403.19
776.99	42667.38
777.17	42403.19
777.35	42405.24
777.54	42833.27
777.72	42165.63
777.90	42671.48
778.08	42724.72
778.27	42444.15
778.45	42851.70
778.63	42704.24
778.81	42460.54
779.00	42898.80
779.18	42470.78
779.36	43111.79
779.54	43154.80
779.73	42325.37
779.91	42882.42
780.09	42796.40
780.27	43357.55
780.46	43062.64
780.64	43173.23
780.82	43154.80
781.00	42970.48
781.19	43261.29
781.37	43461.99
781.55	43302.25
781.73	43185.52
781.91	42911.09
782.10	43511.14
782.28	43388.27
782.46	42993.01
782.64	43314.54
782.82	43079.02
783.01	43486.57
783.19	43787.62
783.37	42829.17
783.55	43588.97
783.74	43687.27
783.92	43044.21
784.10	44105.06
784.28	43636.07
784.46	43124.08
784.64	42980.72
784.83	43363.69
785.01	43341.16
785.19	43152.75
785.37	43457.90
785.55	43801.96
785.74	43154.80
785.92	42870.13
786.10	43292.01
786.28	43101.55
786.46	43310.44
786.64	42739.06
786.83	42960.24
787.01	43148.65
787.19	43191.66
787.37	43451.75
787.55	43009.39
787.74	42794.36
787.92	42706.29
788.10	42673.52
788.28	42337.66
788.46	42929.52
788.64	42775.92
788.82	43105.65
789.01	42767.73
789.19	43103.60
789.37	42706.29
789.55	42696.05
789.73	42343.80
789.91	42167.68
790.09	42564.98
790.28	42513.78
790.46	41694.60
790.64	42327.42
790.82	41848.19
791.00	41856.39
791.18	41645.44
791.36	42351.99
791.55	41809.28
791.73	41848.19
791.91	41483.66
792.09	41813.38
792.27	41610.63
792.45	41729.41
792.63	41360.78
792.81	41147.79
793.00	41203.08
793.18	40768.91
793.36	40926.61
793.54	41069.97
793.72	41000.33
793.90	41166.22
794.08	40521.11
794.26	40705.43
794.44	40619.41
794.62	40283.55
794.81	40555.93
794.99	40127.90
795.17	40349.08
795.35	40185.24
795.53	40439.19
795.71	40449.43
795.89	39749.03
796.07	39851.42
796.25	39720.35
796.43	39876.00
796.61	39503.27
796.80	39370.15
796.98	39525.80
797.16	39179.69
797.34	39312.81
797.52	39359.91
797.70	39177.64
797.88	39032.24
798.06	38722.99
798.24	38811.06
798.42	38698.42
798.60	38602.16
798.78	38430.13
798.96	38835.63
799.14	38483.38
799.32	38155.71
799.51	38190.52
799.69	38208.95
799.87	38567.35
800.05	38198.71
800.23	38151.61
800.41	37299.65
800.59	38131.13
800.77	37584.32
800.95	37414.34
801.13	37512.64
801.31	37514.69
801.49	37625.28
801.67	37580.23
801.85	37406.15
802.03	37101.00
802.21	36826.57
802.39	37170.63
802.57	37117.39
802.75	36797.90
802.93	36865.49
803.11	36576.72
803.29	36400.60
803.47	36140.50
803.65	36455.89
803.83	36416.98
804.01	36378.07
804.19	35747.29
804.37	35956.19
804.55	36132.31
804.73	35878.36
804.91	35759.58
805.09	35425.76
805.27	35644.90
805.45	35603.94
805.63	35685.86
805.81	35702.24
805.99	35505.63
806.17	35794.40
806.35	35311.08
806.53	34776.56
806.71	35114.47
806.89	35182.06
807.07	35204.58
807.25	35216.87
807.43	34956.78
807.61	34938.35
807.79	34688.49
807.97	34389.49
808.15	34551.28
808.33	34412.02
808.51	34530.80
808.69	34577.90
808.87	34399.73
809.05	34289.14
809.23	33973.75
809.41	33945.08
809.59	33936.89
809.77	34545.14
809.95	33635.84
810.13	33885.69
810.31	33547.78
810.49	33824.25
810.67	33644.03
810.84	33771.00
811.02	33512.96
811.20	32982.54
811.38	33594.88
811.56	32851.47
811.74	33211.91
811.92	32812.56
812.10	32861.71
812.28	33324.55
812.46	33316.36
812.64	33021.45
812.82	32626.19
813.00	32478.74
813.18	32458.26
813.36	32783.88
813.53	32405.01
813.71	32675.34
813.89	31933.98
814.07	32359.95
814.25	32493.07
814.43	32138.77
814.61	32194.07
814.79	32396.82
814.97	32085.53
815.15	32333.33
815.33	31886.87
815.50	31594.01
815.68	31888.92
815.86	32124.44
816.04	31565.34
816.22	31563.29
816.40	31505.95
816.58	31505.95
816.76	31125.03
816.94	31249.96
817.11	31317.54
817.29	31522.34
817.47	30938.66
817.65	31047.21
817.83	30967.34
818.01	30826.03
818.19	30893.61
818.37	31120.93
818.54	30697.00
818.72	30905.90
818.90	30772.78
819.08	30852.65
819.26	30680.62
819.44	30527.02
819.62	30639.66
819.80	30664.24
819.97	30346.80
820.15	30486.06
820.33	30125.62
820.51	30170.68
820.69	30187.06
820.87	30242.35
821.05	30533.17
821.22	29781.56
821.40	29761.08
821.58	29929.02
821.76	29832.76
821.94	29654.59
822.12	29771.32
822.29	29980.21
822.47	29275.71
822.65	29910.58
822.83	29597.24
823.01	29367.87
823.19	29378.11
823.36	29197.89
823.54	29097.54
823.72	28954.18
823.90	29376.06
824.08	29085.25
824.25	29267.52
824.43	29310.53
824.61	29283.91
824.79	28825.16
824.97	28730.95
825.15	28972.61
825.32	28894.79
825.50	28470.86
825.68	28567.12
825.86	28894.79
826.04	28759.63
826.21	28626.51
826.39	28649.03
826.57	28556.88
826.75	28532.30
826.93	28495.44
827.10	28313.17
827.28	28319.31
827.46	28444.24
827.64	28163.67
827.81	28440.14
827.99	28249.68
828.17	28053.08
828.35	27907.67
828.53	27915.86
828.70	27706.97
828.88	27891.29
829.06	27862.61
829.24	27842.14
829.41	27543.13
829.59	27805.27
829.77	27627.10
829.95	27752.02
830.12	27643.48
830.30	27496.03
830.48	27465.31
830.66	27473.50
830.84	27532.89
831.01	27496.03
831.19	27680.35
831.37	27387.49
831.55	27336.29
831.72	27092.58
831.90	27500.12
832.08	27164.26
832.25	27084.39
832.43	27065.96
832.61	26906.21
832.79	26762.86
832.96	26637.93
833.14	26601.07
833.32	26941.03
833.50	27016.80
833.67	26592.87
833.85	26879.59
834.03	26570.35
834.20	26633.83
834.38	26807.91
834.56	26537.58
834.74	26521.20
834.91	26867.30
835.09	26625.64
835.27	26168.94
835.44	26556.01
835.62	25792.12
835.80	26283.63
835.98	26224.24
836.15	26142.32
836.33	26244.72
836.51	26224.24
836.68	25853.56
836.86	25976.44
837.04	26289.77
837.21	26105.46
837.39	26302.06
837.57	25970.29
837.75	25919.09
837.92	25806.45
838.10	25351.81
838.28	25257.60
838.45	25624.18
838.63	25296.51
838.81	25421.44
838.98	25343.61
839.16	25374.33
839.34	25192.06
839.51	25464.44
839.69	25327.23
839.87	25386.62
840.04	25251.45
840.22	25566.84
840.40	25288.32
840.57	24850.05
840.75	25067.14
840.93	25040.51
841.10	25155.20
841.28	25417.34
841.46	25077.38
841.63	25364.09
841.81	24958.60
841.98	25175.68
842.16	25022.08
842.34	24753.80
842.51	24790.66
842.69	24817.29
842.87	24751.75
843.04	24764.04
843.22	24479.37
843.40	24540.81
843.57	24422.03
843.75	24440.46
843.92	24387.21
844.10	24407.69
844.28	24792.71
844.45	24467.08
844.63	24368.78
844.81	24102.54
844.98	24592.01
845.16	24149.65
845.33	24043.15
845.51	24145.55
845.69	24147.60
845.86	24176.27
846.04	23834.26
846.21	24137.36
846.39	23772.82
846.57	23930.51
846.74	23965.33
846.92	23975.57
847.09	23983.76
847.27	23660.18
847.45	23924.37
847.62	23633.56
847.80	23895.70
847.97	23623.32
848.15	23504.54
848.32	23303.84
848.50	23654.04
848.68	23574.17
848.85	23228.06
849.03	23283.36
849.20	23594.65
849.38	23266.97
849.56	23316.12
849.73	23131.81
849.91	23275.16
850.08	23615.13
850.26	23215.77
850.43	23053.98
850.61	23197.34
850.78	22994.59
850.96	23137.95
851.14	22642.34
851.31	22912.67
851.49	22957.73
851.66	22841.00
851.84	23074.46
852.01	23160.48
852.19	22912.67
852.36	22775.46
852.54	22695.59
852.71	22789.80
852.89	22417.07
853.07	22947.49
853.24	22929.06
853.42	22517.42
853.59	22781.60
853.77	22660.77
853.94	22793.89
854.12	22718.12
854.29	22425.26
854.47	22431.40
854.64	22208.17
854.82	22390.44
854.99	22802.08
855.17	22638.25
855.34	22214.32
855.52	22247.08
855.69	22374.06
855.87	22228.65
856.04	22357.67
856.22	22357.67
856.39	22152.88
856.57	21923.51
856.74	22038.19
856.92	22195.89
857.09	22204.08
857.27	21776.05
857.44	22224.56
857.62	22070.96
857.79	21958.32
857.97	21755.57
858.14	21921.46
858.32	21489.34
858.49	21743.28
858.67	21845.68
858.84	21526.20
859.02	21515.96
859.19	21589.69
859.37	21360.31
859.54	21487.29
859.72	21663.41
859.89	21483.19
860.06	21784.24
860.24	21298.88
860.41	21878.45
860.59	21339.83
860.76	21395.13
860.94	21184.19
861.11	21292.73
861.29	21552.82
861.46	21292.73
861.64	21110.46
861.81	21178.04
861.98	21382.84
862.16	20965.06
862.33	20954.82
862.51	20924.10
862.68	20930.24
862.86	20850.37
863.03	21204.67
863.21	20885.19
863.38	20876.99
863.55	20815.55
863.73	21071.55
863.90	20715.20
864.08	20784.83
864.25	20846.27
864.43	20537.03
864.60	20596.42
864.77	20451.02
864.95	20700.87
865.12	20496.07
865.30	20788.93
865.47	20133.58
865.64	20743.88
865.82	20518.60
865.99	20713.16
866.17	20514.50
866.34	20537.03
866.51	19963.60
866.69	20121.29
866.86	20500.17
867.04	20309.71
867.21	20416.20
867.38	20008.65
867.56	19922.64
867.73	19830.48
867.91	19865.30
868.08	19934.93
868.25	19912.40
868.43	19674.84
868.60	19875.54
868.78	19633.88
868.95	19732.18
869.12	19597.01
869.30	19625.68
869.47	19736.27
869.64	19644.12
869.82	19674.84
869.99	19572.44
870.16	19605.20
870.34	19377.88
870.51	19828.43
870.69	19240.67
870.86	19531.48
871.03	19355.35
871.21	19293.91
871.38	19568.34
871.55	19087.07
871.73	19146.46
871.90	19308.25
872.07	18964.19
872.25	18790.11
872.42	19021.53
872.59	19039.97
872.77	18960.09
872.94	18968.29
873.11	18824.93
873.29	18994.91
873.46	18820.83
873.63	18798.31
873.81	18898.66
873.98	18554.60
874.15	18775.78
874.33	18667.24
874.50	18697.95
874.67	18659.04
874.85	18370.28
875.02	18450.15
875.19	18542.31
875.37	18331.37
875.54	18288.36
875.71	18261.74
875.88	18224.87
876.06	18110.19
876.23	18116.33
876.40	18112.24
876.58	18124.52
876.75	18185.96
876.92	18292.46
877.10	18345.70
877.27	18183.91
877.44	17985.26
877.61	18046.70
877.79	17876.72
877.96	18065.13
878.13	18110.19
878.31	17483.51
878.48	17647.35
878.65	17506.04
878.82	17397.49
879.00	17878.77
879.17	17813.23
879.34	17714.93
879.51	17420.02
879.69	17538.80
879.86	17573.62
880.03	17622.77
880.21	17356.54
880.38	17381.11
880.55	17581.81
880.72	17350.39
880.90	17477.37
881.07	17295.10
881.24	17434.36
881.41	17682.16
881.59	17116.92
881.76	17301.24
881.93	17137.40
882.10	17039.10
882.28	17016.57
882.45	17164.03
882.62	17053.44
882.79	17100.54
882.96	16559.88
883.14	16862.97
883.31	16819.97
883.48	16881.41
883.65	16889.60
883.83	17127.16
884.00	16981.76
884.17	16846.59
884.34	16987.90
884.51	16899.84
884.69	16783.10
884.86	16899.84
885.03	16850.69
885.20	16633.60
885.38	16779.01
885.55	16674.56
885.72	16461.57
885.89	16559.88
886.06	16492.29
886.24	16574.21
886.41	16586.50
886.58	16566.02
886.75	16717.57
886.92	16633.60
887.10	16389.89
887.27	16369.41
887.44	16391.94
887.61	16684.80
887.78	16643.84
887.95	16422.66
888.13	16432.90
888.30	16273.16
888.47	16197.38
888.64	16422.66
888.81	16252.68
888.99	16107.27
889.16	16056.08
889.33	15965.96
889.50	15959.82
889.67	16002.83
889.84	16178.95
890.01	16031.50
890.19	16047.88
890.36	16230.15
890.53	15824.65
890.70	15755.02
890.87	16066.31
891.04	15906.57
891.22	15908.62
891.39	15578.90
891.56	15607.57
891.73	15617.81
891.90	15507.22
892.07	15636.24
892.24	15648.53
892.42	15740.69
892.59	15548.18
892.76	15462.16
892.93	15281.94
893.10	15658.77
893.27	15552.27
893.44	15431.44
893.61	15488.79
893.79	15515.41
893.96	15681.30
894.13	15513.36
894.30	15474.45
894.47	15437.59
894.64	15406.87
894.81	15249.18
894.98	15605.52
895.15	15456.02
895.33	15599.38
895.50	15173.40
895.67	15462.16
895.84	15269.66
896.01	15154.97
896.18	15443.73
896.35	15462.16
896.52	15173.40
896.69	15220.50
896.86	15308.57
897.04	15257.37
897.21	15271.70
897.38	15249.18
897.55	14995.23
897.72	15329.05
897.89	15298.33
898.06	15456.02
898.23	15359.77
898.40	15187.74
898.57	15157.02
898.74	15247.13
898.91	15472.40
899.08	15267.61
899.26	15097.63
899.43	15171.35
899.60	15200.02
899.77	15099.67
899.94	15148.82
900.11	15087.39
900.28	15218.46
900.45	15238.94
900.62	15034.14
900.79	15234.84
900.96	15027.99
901.13	15171.35
901.30	14882.59
901.47	15245.08
901.64	15329.05
901.81	15007.52
901.98	15044.38
902.15	15341.33
902.32	14849.82
902.49	15148.82
902.66	15212.31
902.83	15107.87
903.01	15163.16
903.18	15361.81
903.35	15333.14
903.52	15087.39
903.69	15103.77
903.86	15304.47
904.03	15218.46
904.20	15480.60
904.37	15261.46
904.54	14944.03
904.71	15238.94
904.88	15107.87
905.05	15048.47
905.22	14987.04
905.39	15011.61
905.56	15128.35
905.73	15175.45
905.90	15226.65
906.07	15140.63
906.24	15394.58
906.41	14962.46
906.58	15302.42
906.75	15134.49
906.92	14960.41
907.09	15122.20
907.26	15083.29
907.43	15099.67
907.60	14884.64
907.77	15314.71
907.93	15050.52
908.10	14868.25
908.27	15138.58
908.44	14892.83
908.61	14960.41
908.78	14991.13
908.95	14960.41
909.12	15099.67
909.29	14903.07
909.46	15011.61
909.63	14921.50
909.80	15152.92
909.97	15150.87
910.14	14870.30
910.31	15232.79
910.48	15308.57
910.65	15169.30
910.82	14683.94
910.99	14905.12
911.16	14905.12
911.33	14774.05
911.50	14808.86
911.66	14759.71
911.83	14862.11
912.00	14835.49
912.17	14659.36
912.34	14759.71
912.51	14739.23
912.68	14499.62
912.85	14862.11
913.02	14612.26
913.19	14839.58
913.36	14575.39
913.53	14671.65
913.70	14366.50
913.86	14559.01
914.03	14561.06
914.20	14481.19
914.37	14438.18
914.54	14243.62
914.71	14397.22
914.88	14446.37
915.05	14272.29
915.22	14346.02
915.39	14223.14
915.55	14448.42
915.72	14049.07
915.89	14368.55
916.06	14075.69
916.23	14036.78
916.40	14122.79
916.57	14260.01
916.74	14214.95
916.91	13993.77
917.07	13715.25
917.24	13836.08
917.41	13782.83
917.58	13893.42
917.75	13664.05
917.92	13651.76
918.09	13717.29
918.26	13797.17
918.42	13801.26
918.59	13532.98
918.76	13664.05
918.93	13485.87
919.10	13627.18
919.27	13276.98
919.44	13772.59
919.60	13618.99
919.77	13334.32
919.94	13459.25
920.11	13412.15
920.28	13340.47
920.45	13240.12
920.61	13049.66
920.78	13240.12
920.95	13352.76
921.12	13096.76
921.29	12877.63
921.46	12887.87
921.62	12709.69
921.79	12975.93
921.96	12877.63
922.13	12961.59
922.30	12754.75
922.47	12572.48
922.63	12662.59
922.80	12650.30
922.97	12832.57
923.14	12539.71
923.31	12566.34
923.47	12439.36
923.64	12656.45
923.81	12474.18
923.98	12396.35
924.15	12404.55
924.32	12388.16
924.48	12504.90
924.65	12207.94
924.82	11968.33
924.99	12130.12
925.15	11847.50
925.32	12189.51
925.49	11724.62
925.66	12185.41
925.83	11919.18
925.99	11552.59
926.16	11927.37
926.33	11784.01
926.50	11618.13
926.67	11677.52
926.83	11712.33
927.00	11513.68
927.17	11525.97
927.34	11495.25
927.50	11362.13
927.67	11573.07
927.84	11421.52
928.01	11233.11
928.17	11132.76
928.34	11349.84
928.51	11231.06
928.68	11056.98
928.84	11071.32
929.01	11061.08
929.18	10807.13
929.35	10946.39
929.51	10991.45
929.68	10839.90
929.85	10702.68
930.02	10895.19
930.18	10764.12
930.35	10747.74
930.52	10760.03
930.69	10461.02
930.85	10690.40
931.02	10436.45
931.19	10346.34
931.36	10485.60
931.52	10198.88
931.69	10317.67
931.86	10303.33
932.02	10293.09
932.19	10143.59
932.36	10209.12
932.53	10231.65
932.69	10004.33
932.86	10237.80
933.03	10276.71
933.19	9766.76
933.36	9707.37
933.53	9955.18
933.70	9875.31
933.86	9836.39
934.03	9688.94
934.20	9731.95
934.36	9619.31
934.53	9353.07
934.70	9193.33
934.86	9437.04
935.03	9363.31
935.20	9293.68
935.36	9437.04
935.53	9013.11
935.70	9009.01
935.86	9170.80
936.03	8990.58
936.20	8869.75
936.36	8802.17
936.53	8812.41
936.70	8687.48
936.86	8847.22
937.03	8525.69
937.20	8425.34
937.36	8519.55
937.53	8269.70
937.70	8236.93
937.86	8109.96
938.03	7964.55
938.20	8105.86
938.36	7982.98
938.53	7972.74
938.70	7749.51
938.86	7714.70
939.03	7536.52
939.20	7276.43
939.36	7522.19
939.53	7370.64
939.70	7563.15
939.86	7128.98
940.03	7073.68
940.19	6860.70
940.36	7024.53
940.53	7040.92
940.69	6832.02
940.86	6838.17
941.03	6717.34
941.19	6651.80
941.36	6430.62
941.52	6377.37
941.69	6340.51
941.86	6387.61
942.02	6418.33
942.19	6274.98
942.35	6180.77
942.52	6197.15
942.69	6168.48
942.85	6061.99
943.02	6004.64
943.18	5926.82
943.35	6029.22
943.52	5873.57
943.68	5861.29
943.85	5834.66
944.01	5849.00
944.18	5660.59
944.35	5908.39
944.51	5681.07
944.68	5586.86
944.84	5582.76
945.01	5670.83
945.17	5674.92
945.34	5699.50
945.51	5615.53
945.67	5449.64
945.84	5441.45
946.00	5619.63
946.17	5476.27
946.33	5425.07
946.50	5486.51
946.67	5484.46
946.83	5373.87
947.00	5406.64
947.16	5404.59
947.33	5308.34
947.49	5453.74
947.66	5455.79
947.82	5443.50
947.99	5429.17
948.16	5433.26
948.32	5451.69
948.49	5445.55
948.65	5416.88
948.82	5433.26
948.98	5337.01
949.15	5330.86
949.31	5545.90
949.48	5390.25
949.64	5400.49
949.81	5300.14
949.97	5355.44
950.14	5382.06
950.30	5355.44
950.47	5476.27
950.63	5431.21
950.80	5310.38
950.96	5547.95
951.13	5398.45
951.30	5412.78
951.46	5500.84
951.63	5595.05
951.79	5599.15
951.96	5607.34
952.12	5451.69
952.29	5576.62
952.45	5382.06
952.62	5484.46
952.78	5414.83
952.94	5408.69
953.11	5484.46
953.27	5449.64
953.44	5513.13
953.60	5552.04
953.77	5603.24
953.93	5509.04
954.10	5490.60
954.26	5539.76
954.43	5463.98
954.59	5519.28
954.76	5699.50
954.92	5502.89
955.09	5650.35
955.25	5525.42
955.42	5588.91
955.58	5730.22
955.75	5545.90
955.91	5541.80
956.07	5621.67
956.24	5734.31
956.40	5756.84
956.57	5746.60
956.73	5484.46
956.90	5636.01
957.06	5627.82
957.23	5576.62
957.39	5599.15
957.56	5574.57
957.72	5482.41
957.88	5545.90
958.05	5650.35
958.21	5689.26
958.38	5646.25
958.54	5525.42
958.71	5689.26
958.87	5627.82
959.03	5597.10
959.20	5730.22
959.36	5656.49
959.53	5588.91
959.69	5668.78
959.85	5496.75
960.02	5461.93
960.18	5550.00
960.35	5672.87
960.51	5674.92
960.68	5584.81
960.84	5566.38
961.00	5595.05
961.17	5619.63
961.33	5629.87
961.50	5625.77
961.66	5574.57
961.82	5492.65
961.99	5621.67
962.15	5603.24
962.31	5681.07
962.48	5617.58
962.64	5619.63
962.81	5605.29
962.97	5537.71
963.13	5662.63
963.30	5615.53
963.46	5525.42
963.62	5451.69
963.79	5599.15
963.95	5578.67
964.12	5576.62
964.28	5560.24
964.44	5461.93
964.61	5494.70
964.77	5656.49
964.93	5730.22
965.10	5377.97
965.26	5484.46
965.42	5527.47
965.59	5511.08
965.75	5390.25
965.92	5533.61
966.08	5459.88
966.24	5566.38
966.41	5404.59
966.57	5455.79
966.73	5418.93
966.90	5449.64
967.06	5429.17
967.22	5410.73
967.39	5283.76
967.55	5334.96
967.71	5363.63
967.88	5345.20
968.04	5402.54
968.20	5324.72
968.37	5289.90
968.53	5279.66
968.69	5398.45
968.85	5226.42
969.02	5226.42
969.18	5349.29
969.34	5298.10
969.51	5230.51
969.67	5253.04
969.83	5240.75
970.00	5234.61
970.16	5279.66
970.32	5201.84
970.48	5382.06
970.65	5115.83
970.81	5173.17
970.97	5228.46
971.14	5117.87
971.30	5222.32
971.46	5224.37
971.63	5081.01
971.79	5363.63
971.95	5167.03
972.11	5027.76
972.28	4986.80
972.44	5089.20
972.60	4988.85
972.76	5121.97
972.93	5060.53
973.09	5101.49
973.25	5220.27
973.42	5099.44
973.58	5150.64
973.74	4941.75
973.90	5072.82
974.07	4935.60
974.23	5011.38
974.39	4990.90
974.55	4810.68
974.72	4896.69
974.88	4956.08
975.04	4980.66
975.20	5003.19
975.37	4962.23
975.53	4816.82
975.69	4915.12
975.85	4706.23
976.01	5001.14
976.18	4784.06
976.34	4876.21
976.50	4843.45
976.66	4896.69
976.83	4816.82
976.99	4870.07
977.15	4810.68
977.31	4648.89
977.47	4792.25
977.64	4710.33
977.80	4693.94
977.96	4712.38
978.12	4745.14
978.29	4667.32
978.45	4794.29
978.61	4710.33
978.77	4722.62
978.93	4661.18
979.10	4722.62
979.26	4675.51
979.42	4763.58
979.58	4548.54
979.74	4632.51
979.91	4679.61
980.07	4681.66
980.23	4444.09
980.39	4622.27
980.55	4571.07
980.71	4554.68
980.88	4556.73
981.04	4501.44
981.20	4646.84
981.36	4509.63
981.52	4440.00
981.68	4448.19
981.85	4620.22
982.01	4515.77
982.17	4433.85
982.33	4495.29
982.49	4640.70
982.65	4513.72
982.82	4341.69
982.98	4325.31
983.14	4409.28
983.30	4505.53
983.46	4386.75
983.62	4378.56
983.79	4239.30
983.95	4394.94
984.11	4251.58
984.27	4351.93
984.43	4321.21
984.59	4427.71
984.75	4358.08
984.91	4249.54
985.08	4409.28
985.24	4292.54
985.40	4136.90
985.56	4206.53
985.72	4315.07
985.88	4263.87
986.04	4261.82
986.20	4161.47
986.37	4177.86
986.53	4157.38
986.69	4253.63
986.85	4016.07
987.01	4184.00
987.17	4165.57
987.33	4224.96
987.49	4089.79
987.65	4235.20
987.82	3983.30
987.98	4100.03
988.14	4042.69
988.30	4016.07
988.46	4044.74
988.62	4079.55
988.78	3958.72
988.94	4067.27
989.10	4057.03
989.26	3989.44
989.42	3966.92
989.59	3874.76
989.75	3899.33
989.91	3981.25
990.07	3833.80
990.23	3940.29
990.39	3854.28
990.55	3975.11
990.71	3997.64
990.87	3915.72
991.03	3983.30
991.19	3971.01
991.35	3876.80
991.51	3856.33
991.67	3901.38
991.83	3938.24
992.00	3774.41
992.16	3755.97
992.32	3805.13
992.48	3893.19
992.64	3600.33
992.80	3895.24
992.96	3749.83
993.12	3758.02
993.28	3774.41
993.44	3717.06
993.60	3850.18
993.76	3852.23
993.92	3733.45
994.08	3680.20
994.24	3721.16
994.40	3667.91
994.56	3794.89
994.72	3667.91
994.88	3565.51
995.04	3733.45
995.20	3569.61
995.36	3631.05
995.52	3565.51
995.68	3565.51
995.84	3379.15
996.00	3751.88
996.16	3528.65
996.32	3573.71
996.48	3555.27
996.64	3657.67
996.80	3569.61
996.96	3569.61
997.12	3483.59
997.28	3502.03
997.44	3360.72
997.60	3542.99
997.76	3454.92
997.92	3450.83
998.08	3411.92
998.24	3327.95
998.40	3450.83
998.56	3469.26
998.72	3420.11
998.88	3360.72
999.04	3379.15
999.20	3465.16
999.36	3272.65
999.52	3534.79
999.68	3301.33
999.84	3395.53
1000.00	3395.53
1000.16	3405.77
1000.32	3309.52
1000.48	3504.07
1000.64	3286.99
1000.80	3186.64
1000.95	3280.85
1001.11	3383.24
1001.27	3266.51
1001.43	3278.80
1001.59	3168.21
1001.75	3172.30
1001.91	3248.08
1002.07	3157.97
1002.23	3340.24
1002.39	3213.26
1002.55	3237.84
1002.71	3196.88
1002.87	3239.89
1003.03	3117.01
1003.19	3254.22
1003.34	3188.69
1003.50	3096.53
1003.66	3127.25
1003.82	3196.88
1003.98	3067.86
1004.14	3094.48
1004.30	3055.57
1004.46	2990.03
1004.62	3102.67
1004.78	3051.47
1004.94	3002.32
1005.09	3074.00
1005.25	3076.05
1005.41	2975.70
1005.57	2996.18
1005.73	3084.24
1005.89	3078.10
1006.05	3041.23
1006.21	3063.76
1006.37	3080.14
1006.52	2842.58
1006.68	2904.02
1006.84	2977.75
1007.00	2944.98
1007.16	3041.23
1007.32	2953.17
1007.48	2904.02
1007.64	2928.60
1007.79	2828.24
1007.95	2879.44
1008.11	2912.21
1008.27	2949.08
1008.43	2936.79
1008.59	2895.83
1008.75	2899.92
1008.91	2985.94
1009.06	2832.34
1009.22	2924.50
1009.38	2910.16
1009.54	2852.82
1009.70	2813.91
1009.86	2850.77
1010.01	2871.25
1010.17	2744.28
1010.33	2752.47
1010.49	2758.61
1010.65	2969.55
1010.81	2811.86
1010.96	2858.96
1011.12	2686.94
1011.28	2660.31
1011.44	2801.62
1011.60	2699.22
1011.76	2695.13
1011.91	2738.13
1012.07	2600.92
1012.23	2754.52
1012.39	2670.55
1012.55	2762.71
1012.71	2637.78
1012.86	2652.12
1013.02	2707.41
1013.18	2686.94
1013.34	2643.93
1013.50	2621.40
1013.65	2627.54
1013.81	2586.58
1013.97	2641.88
1014.13	2666.46
1014.29	2549.72
1014.44	2709.46
1014.60	2516.95
1014.76	2717.65
1014.92	2639.83
1015.07	2668.50
1015.23	2594.78
1015.39	2617.30
1015.55	2564.06
1015.71	2494.43
1015.86	2557.91
1016.02	2535.39
1016.18	2467.80
1016.34	2555.86
1016.49	2519.00
1016.65	2652.12
1016.81	2555.86
1016.97	2490.33
1017.12	2562.01
1017.28	2521.05
1017.44	2445.27
1017.60	2457.56
1017.75	2480.09
1017.91	2510.81
1018.07	2412.51
1018.23	2494.43
1018.38	2498.52
1018.54	2424.80
1018.70	2516.95
1018.86	2416.60
1019.01	2486.23
1019.17	2490.33
1019.33	2469.85
1019.49	2404.32
1019.64	2494.43
1019.80	2422.75
1019.96	2416.60
1020.12	2459.61
1020.27	2342.88
1020.43	2404.32
1020.59	2355.16
1020.74	2387.93
1020.90	2426.84
1021.06	2334.68
1021.22	2330.59
1021.37	2365.40
1021.53	2342.88
1021.69	2369.50
1021.84	2373.60
1022.00	2336.73
1022.16	2338.78
1022.31	2408.41
1022.47	2404.32
1022.63	2371.55
1022.79	2201.57
1022.94	2250.72
1023.10	2486.23
1023.26	2351.07
1023.41	2265.05
1023.57	2189.28
1023.73	2320.35
1023.88	2353.12
1024.04	2303.96
1024.20	2201.57
1024.35	2324.44
1024.51	2209.76
1024.67	2263.01
1024.82	2279.39
1024.98	2238.43
1025.14	2240.48
1025.29	2267.10
1025.45	2238.43
1025.61	2164.70
1025.76	2242.53
1025.92	2183.13
1026.08	2242.53
1026.23	2203.61
1026.39	2254.81
1026.55	2199.52
1026.70	2093.02
1026.86	2078.69
1027.02	2289.63
1027.17	2191.33
1027.33	2236.38
1027.48	2213.85
1027.64	2166.75
1027.80	2201.57
1027.95	2195.42
1028.11	2060.26
1028.27	2136.03
1028.42	2189.28
1028.58	2117.60
1028.73	2056.16
1028.89	2023.39
1029.05	2289.63
1029.20	2109.41
>>>>>End Processed Spectral Data<<<<<
