SpectraSuite Data File
++++++++++++++++++++++++++++++++++++
Date: Fri Jun 02 14:52:27 CEST 2017
User: INFO_000
Dark Spectrum Present: No
Reference Spectrum Present: No
Number of Sampled Component Spectra: 1
Spectrometers: USB4H00879
Integration Time (usec): 80000 (USB4H00879)
Spectra Averaged: 1 (USB4H00879)
Boxcar Smoothing: 0 (USB4H00879)
Correct for Electrical Dark: No (USB4H00879)
Strobe/Lamp Enabled: No (USB4H00879)
Correct for Detector Non-linearity: No (USB4H00879)
Correct for Stray Light: No (USB4H00879)
Number of Pixels in Processed Spectrum: 3648
>>>>>Begin Processed Spectral Data<<<<<
345.13	1333.23
345.34	1333.23
345.56	1333.23
345.78	1214.45
345.99	1228.78
346.21	1689.57
346.42	1712.10
346.64	1624.04
346.86	1794.02
347.07	1751.01
347.29	1722.34
347.50	1552.36
347.72	1667.05
347.94	1695.72
348.15	1556.46
348.37	1613.80
348.59	1683.43
348.80	1642.47
349.02	1798.12
349.23	1871.84
349.45	1787.88
349.67	1886.18
349.88	1808.36
350.10	1939.43
350.31	1847.27
350.53	1802.21
350.75	1943.52
350.96	1861.60
351.18	1877.99
351.39	1837.03
351.61	1839.08
351.82	1925.09
352.04	1855.46
352.26	1869.80
352.47	1931.23
352.69	1888.23
352.90	1859.56
353.12	1886.18
353.34	1894.37
353.55	1910.75
353.77	1984.48
353.98	1849.32
354.20	1855.46
354.41	1984.48
354.63	1925.09
354.85	2029.54
355.06	1892.32
355.28	1701.86
355.49	1988.58
355.71	1951.71
355.92	1851.36
356.14	1959.91
356.35	1918.95
356.57	1937.38
356.79	1957.86
357.00	1873.89
357.22	2002.91
357.43	1769.44
357.65	1968.10
357.86	1931.23
358.08	1918.95
358.29	1914.85
358.51	1976.29
358.72	2033.63
358.94	1943.52
359.16	1912.80
359.37	1855.46
359.59	1980.39
359.80	1970.15
360.02	1964.00
360.23	1994.72
360.45	2090.98
360.66	1929.19
360.88	1865.70
361.09	1961.95
361.31	1945.57
361.52	1976.29
361.74	2029.54
361.95	2088.93
362.17	1984.48
362.38	2093.02
362.60	2013.15
362.81	2035.68
363.03	1978.34
363.24	2058.21
363.46	2088.93
363.67	2023.39
363.89	1988.58
364.10	2039.78
364.32	1961.95
364.53	2131.94
364.75	1873.89
364.96	2107.36
365.18	2052.06
365.39	2037.73
365.61	1933.28
365.82	2207.71
366.04	2058.21
366.25	2015.20
366.47	2107.36
366.68	2039.78
366.90	1937.38
367.11	2174.94
367.33	2115.55
367.54	2160.61
367.76	1978.34
367.97	2185.18
368.19	2066.40
368.40	2088.93
368.62	1982.43
368.83	1961.95
369.05	2052.06
369.26	1974.24
369.48	1972.19
369.69	2058.21
369.91	2131.94
370.12	2004.96
370.33	2183.13
370.55	1961.95
370.76	2045.92
370.98	2136.03
371.19	2035.68
371.41	1998.82
371.62	2105.31
371.84	1986.53
372.05	2265.05
372.27	2066.40
372.48	2121.70
372.69	2127.84
372.91	2244.57
373.12	2246.62
373.34	2052.06
373.55	2105.31
373.77	2181.09
373.98	2162.66
374.20	2160.61
374.41	2324.44
374.62	2068.45
374.84	2166.75
375.05	2224.09
375.27	2197.47
375.48	2213.85
375.70	2199.52
375.91	2191.33
376.12	2322.40
376.34	2232.29
376.55	2211.81
376.77	2207.71
376.98	2099.17
377.19	2090.98
377.41	2125.79
377.62	2191.33
377.84	2312.16
378.05	2359.26
378.27	2189.28
378.48	2340.83
378.69	2398.17
378.91	2318.30
379.12	2217.95
379.34	2320.35
379.55	2295.77
379.76	2297.82
379.98	2267.10
380.19	2310.11
380.41	2269.15
380.62	2387.93
380.83	2308.06
381.05	2217.95
381.26	2363.36
381.47	2220.00
381.69	2205.66
381.90	2420.70
382.12	2301.92
382.33	2306.01
382.54	2363.36
382.76	2273.25
382.97	2344.92
383.19	2295.77
383.40	2404.32
383.61	2365.40
383.83	2265.05
384.04	2404.32
384.25	2285.53
384.47	2447.32
384.68	2394.08
384.89	2404.32
385.11	2328.54
385.32	2328.54
385.54	2426.84
385.75	2312.16
385.96	2430.94
386.18	2516.95
386.39	2441.18
386.60	2379.74
386.82	2541.53
387.03	2359.26
387.24	2441.18
387.46	2437.08
387.67	2512.86
387.88	2506.71
388.10	2519.00
388.31	2492.38
388.52	2523.10
388.74	2543.58
388.95	2627.54
389.16	2666.46
389.38	2514.91
389.59	2586.58
389.80	2613.21
390.02	2514.91
390.23	2547.67
390.44	2576.34
390.66	2588.63
390.87	2574.30
391.08	2660.31
391.30	2678.74
391.51	2701.27
391.72	2709.46
391.94	2660.31
392.15	2576.34
392.36	2699.22
392.58	2574.30
392.79	2713.56
393.00	2699.22
393.22	2705.37
393.43	2809.81
393.64	2836.44
393.85	2744.28
394.07	2686.94
394.28	2742.23
394.49	2834.39
394.71	2887.64
394.92	2791.38
395.13	2779.09
395.35	2764.76
395.56	2777.05
395.77	2789.33
395.98	2852.82
396.20	2924.50
396.41	2799.57
396.62	2881.49
396.84	2846.68
397.05	2856.92
397.26	2852.82
397.47	2961.36
397.69	2920.40
397.90	3026.90
398.11	2918.36
398.32	2873.30
398.54	2938.84
398.75	2897.88
398.96	2957.27
399.18	3176.40
399.39	3030.99
399.60	3114.96
399.81	3069.91
400.03	3098.58
400.24	3327.95
400.45	3100.62
400.66	3055.57
400.88	3082.19
401.09	3239.89
401.30	3100.62
401.51	3225.55
401.73	3151.82
401.94	3264.46
402.15	3069.91
402.36	3203.02
402.58	3117.01
402.79	3213.26
403.00	3213.26
403.21	3248.08
403.43	3166.16
403.64	3420.11
403.85	3121.10
404.06	3207.12
404.27	3088.34
404.49	3280.85
404.70	3284.94
404.91	3297.23
405.12	3334.09
405.34	3190.74
405.55	3540.94
405.76	3203.02
405.97	3264.46
406.19	3444.68
406.40	3289.04
406.61	3338.19
406.82	3450.83
407.03	3428.30
407.25	3286.99
407.46	3534.79
407.67	3446.73
407.88	3493.83
408.09	3342.28
408.31	3467.21
408.52	3426.25
408.73	3377.10
408.94	3317.71
409.15	3456.97
409.37	3551.18
409.58	3481.55
409.79	3665.86
410.00	3549.13
410.21	3489.74
410.43	3542.99
410.64	3473.36
410.85	3649.48
411.06	3514.31
411.27	3575.75
411.48	3667.91
411.70	3620.81
411.91	3661.77
412.12	3770.31
412.33	3688.39
412.54	3626.95
412.76	3809.22
412.97	3751.88
413.18	3540.94
413.39	3747.78
413.60	3665.86
413.81	3684.30
414.03	3581.90
414.24	3633.10
414.45	3930.05
414.66	3737.54
414.87	3688.39
415.08	3772.36
415.30	3780.55
415.51	3821.51
415.72	3772.36
415.93	3858.37
416.14	3686.34
416.35	3817.41
416.56	3915.72
416.78	3938.24
416.99	3928.00
417.20	3878.85
417.41	3870.66
417.62	4011.97
417.83	3985.35
418.04	3874.76
418.26	4026.31
418.47	3889.09
418.68	4026.31
418.89	3962.82
419.10	4173.76
419.31	4009.92
419.52	4059.07
419.73	4110.27
419.95	4104.13
420.16	4067.27
420.37	4104.13
420.58	4122.56
420.79	3973.06
421.00	4259.78
421.21	4106.18
421.42	4124.61
421.63	4267.97
421.85	4169.66
422.06	4212.67
422.27	4216.77
422.48	4163.52
422.69	4302.78
422.90	4216.77
423.11	4392.89
423.32	4329.41
423.53	4513.72
423.75	4186.05
423.96	4601.79
424.17	4470.72
424.38	4638.65
424.59	4452.28
424.80	4474.81
425.01	4491.20
425.22	4409.28
425.43	4440.00
425.64	4640.70
425.85	4730.81
426.06	4630.46
426.28	4577.21
426.49	4544.44
426.70	4519.87
426.91	4751.29
427.12	4745.14
427.33	4593.59
427.54	4687.80
427.75	4769.72
427.96	4767.67
428.17	4720.57
428.38	4896.69
428.59	4970.42
428.80	4894.65
429.01	4820.92
429.23	4775.86
429.44	5130.16
429.65	5074.87
429.86	5095.35
430.07	4786.10
430.28	5001.14
430.49	4990.90
430.70	5177.26
430.91	5177.26
431.12	5242.80
431.33	5343.15
431.54	5242.80
431.75	5205.94
431.96	5238.70
432.17	5230.51
432.38	5214.13
432.59	5294.00
432.80	5314.48
433.01	5400.49
433.22	5388.21
433.43	5361.58
433.64	5435.31
433.85	5396.40
434.06	5543.85
434.27	5353.39
434.49	5511.08
434.70	5734.31
434.91	5525.42
435.12	5566.38
435.33	5599.15
435.54	5605.29
435.75	5330.86
435.96	5621.67
436.17	5623.72
436.38	5705.64
436.59	5633.96
436.80	5584.81
437.01	6035.36
437.22	5849.00
437.43	5752.74
437.64	5636.01
437.85	5805.99
438.06	5799.85
438.27	5687.21
438.48	5781.42
438.69	6045.60
438.90	5885.86
439.11	5832.62
439.32	6066.08
439.53	5939.11
439.74	6082.47
439.95	6129.57
440.16	5961.64
440.37	6164.39
440.57	5932.97
440.78	6125.47
440.99	6203.30
441.20	6047.65
441.41	5978.02
441.62	6205.35
441.83	5906.34
442.04	6260.64
442.25	6301.60
442.46	6145.95
442.67	6358.94
442.88	6743.96
443.09	6162.34
443.30	6324.13
443.51	6530.97
443.72	6610.84
443.93	6156.19
444.14	6539.16
444.35	6344.61
444.56	6561.69
444.77	6537.12
444.98	6404.00
445.19	6569.88
445.40	6459.29
445.61	6490.01
445.81	6635.42
446.02	6641.56
446.23	6705.05
446.44	6485.92
446.65	6768.54
446.86	6731.67
447.07	6668.19
447.28	7053.20
447.49	6860.70
447.70	6868.89
447.91	6764.44
448.12	6848.41
448.33	6942.61
448.54	6942.61
448.74	6762.39
448.95	6934.42
449.16	6737.82
449.37	7073.68
449.58	6981.53
449.79	7194.51
450.00	6971.29
450.21	7110.55
450.42	7059.35
450.63	7184.27
450.84	7196.56
451.05	7313.30
451.25	7110.55
451.46	7090.07
451.67	7405.46
451.88	7376.78
452.09	7292.82
452.30	7344.02
452.51	7413.65
452.72	7552.91
452.93	7726.99
453.13	7446.41
453.34	7333.78
453.55	7436.17
453.76	7356.30
453.97	7714.70
454.18	7630.73
454.39	7716.75
454.60	7538.57
454.81	7733.13
455.01	7948.17
455.22	7577.48
455.43	7913.35
455.64	7939.97
455.85	7980.93
456.06	8097.67
456.27	7833.48
456.48	7999.37
456.68	7966.60
456.89	8161.16
457.10	8112.00
457.31	8138.63
457.52	8083.33
457.73	8083.33
457.94	8423.30
458.14	8159.11
458.35	8724.35
458.56	8458.11
458.77	8142.72
458.98	8490.88
459.19	8519.55
459.39	8499.07
459.60	8873.85
459.81	8435.58
460.02	8499.07
460.23	8652.67
460.44	8896.38
460.65	8798.07
460.85	8974.20
461.06	8906.62
461.27	8540.03
461.48	9191.28
461.69	8988.53
461.89	8826.75
462.10	8961.91
462.31	8822.65
462.52	8892.28
462.73	9013.11
462.94	9232.24
463.14	9211.76
463.35	9213.81
463.56	9621.36
463.77	9523.05
463.98	9275.25
464.18	9453.42
464.39	9514.86
464.60	9742.19
464.81	9650.03
465.02	9502.58
465.23	10106.73
465.43	9764.72
465.64	9932.65
465.85	9854.83
466.06	9756.52
466.27	10202.98
466.47	9994.09
466.68	10135.40
466.89	10071.91
467.10	10184.55
467.30	9963.37
467.51	10178.40
467.72	10516.32
467.93	10145.64
468.14	10254.18
468.34	10489.70
468.55	10571.61
468.76	10663.77
468.97	10522.46
469.17	10848.09
469.38	11001.69
469.59	10878.81
469.80	10768.22
470.01	10798.94
470.21	11050.84
470.42	11312.98
470.63	11183.96
470.84	11224.92
471.04	11335.51
471.25	11497.30
471.46	11272.02
471.67	11634.51
471.87	11425.62
472.08	11714.38
472.29	11806.54
472.50	11532.11
472.70	11827.02
472.91	11841.36
473.12	12212.04
473.33	12201.80
473.53	12166.98
473.74	12238.66
473.95	12216.13
474.16	12390.21
474.36	12580.67
474.57	12664.64
474.78	12687.17
474.99	12601.15
475.19	12672.83
475.40	13100.86
475.61	13002.55
475.81	13281.08
476.02	13258.55
476.23	13223.73
476.44	13209.40
476.64	13766.45
476.85	13745.97
477.06	13492.02
477.27	13969.19
477.47	13934.38
477.68	13715.25
477.89	14255.91
478.09	13936.43
478.30	14184.23
478.51	14194.47
478.71	14329.64
478.92	14423.84
479.13	14610.21
479.34	14860.06
479.54	14870.30
479.75	14868.25
479.96	15001.37
480.16	15234.84
480.37	15066.91
480.58	15318.81
480.78	15548.18
480.99	15230.74
481.20	15464.21
481.41	15566.61
481.61	16021.26
481.82	16070.41
482.03	16101.13
482.23	15920.91
482.44	16248.58
482.65	16537.35
482.85	16117.51
483.06	16240.39
483.27	16424.71
483.47	16310.02
483.68	16547.59
483.89	16682.75
484.09	16826.11
484.30	17012.48
484.51	17133.31
484.71	17260.28
484.92	16944.89
485.13	17590.00
485.33	17557.24
485.54	17415.93
485.75	17731.31
485.95	17954.54
486.16	17749.75
486.37	18116.33
486.57	18056.94
486.78	18175.72
486.98	18228.97
487.19	18347.75
487.40	18470.63
487.60	18345.70
487.81	18869.98
488.02	18783.97
488.22	18439.91
488.43	19048.16
488.64	18904.80
488.84	18923.23
489.05	19177.18
489.25	19191.52
489.46	19594.96
489.67	19306.20
489.87	19934.93
490.08	19728.08
490.29	19672.79
490.49	19906.26
490.70	20049.61
490.90	20170.44
491.11	20102.86
491.32	20391.62
491.52	20125.39
491.73	20545.22
491.94	20606.66
492.14	20608.71
492.35	20637.38
492.55	20776.64
492.76	20956.86
492.97	21075.65
493.17	21188.28
493.38	21042.88
493.58	21456.57
493.79	21417.66
494.00	21096.13
494.20	21647.03
494.41	21456.57
494.61	21624.50
494.82	21870.26
495.02	21698.23
495.23	22011.57
495.44	21825.20
495.64	22189.74
495.85	22400.68
496.05	22345.39
496.26	22496.94
496.47	22615.72
496.67	22523.56
496.88	22503.08
497.08	22640.29
497.29	23043.74
497.49	22918.82
497.70	23068.32
497.91	23060.13
498.11	23422.62
498.32	23230.11
498.52	23228.06
498.73	23703.19
498.93	23461.53
499.14	23365.28
499.34	23453.34
499.55	23801.49
499.76	23783.06
499.96	23764.63
500.17	23631.51
500.37	24112.78
500.58	24161.94
500.78	24049.30
500.99	24166.03
501.19	24301.20
501.40	24239.76
501.60	24336.01
501.81	24395.40
502.02	24510.09
502.22	24639.11
502.43	24540.81
502.63	24929.92
502.84	24815.24
503.04	24968.84
503.25	24888.96
503.45	24839.81
503.66	25364.09
503.86	24929.92
504.07	25503.35
504.27	25181.82
504.48	25699.96
504.68	25470.59
504.89	25585.27
505.09	25366.14
505.30	25554.55
505.50	25398.91
505.71	25648.76
505.91	26039.92
506.12	25861.75
506.32	25585.27
506.53	25785.97
506.73	26146.42
506.94	26281.58
507.14	25808.50
507.35	26285.68
507.55	26064.50
507.76	26410.60
507.96	26117.75
508.17	26404.46
508.37	26238.58
508.58	26422.89
508.78	26494.57
508.99	26687.08
509.19	26658.41
509.40	26760.81
509.60	26660.46
509.81	26889.83
510.01	26971.75
510.22	26732.14
510.42	27041.38
510.63	26707.56
510.83	26996.32
511.04	27016.80
511.24	27422.30
511.44	27057.76
511.65	27309.66
511.85	27383.39
512.06	27031.14
512.26	27604.57
512.47	27719.26
512.67	27553.37
512.88	27260.51
513.08	27188.83
513.29	27350.62
513.49	27475.55
513.69	27653.72
513.90	27528.80
514.10	27823.70
514.31	27737.69
514.51	27985.49
514.72	27883.09
514.92	27696.73
515.13	27752.02
515.33	27934.29
515.53	28085.84
515.74	28200.53
515.94	28100.18
516.15	28294.74
516.35	27840.09
516.56	28300.88
516.76	28452.43
516.96	28292.69
517.17	28614.22
517.37	28675.66
517.58	28620.36
517.78	28763.72
517.99	28689.99
518.19	28864.07
518.39	28800.58
518.60	29187.65
518.80	29015.62
519.01	29101.64
519.21	29357.63
519.41	28882.50
519.62	29093.44
519.82	28941.89
520.03	29488.70
520.23	28960.33
520.43	29560.38
520.64	29517.37
520.84	29584.96
521.05	29478.46
521.25	29615.68
521.45	29869.62
521.66	29963.83
521.86	30019.13
522.07	30199.35
522.27	29931.06
522.47	29933.11
522.68	30381.62
522.88	30236.21
523.08	30256.69
523.29	30344.75
523.49	30516.78
523.70	30174.77
523.90	30649.90
524.10	30768.68
524.31	30539.31
524.51	30443.06
524.71	31194.66
524.92	30969.38
525.12	30977.58
525.33	30989.86
525.53	31344.16
525.73	31407.65
525.94	31032.87
526.14	31577.63
526.34	31510.05
526.55	31628.83
526.75	31528.48
526.95	32046.62
527.16	31716.89
527.36	31733.28
527.56	31915.54
527.77	31987.22
527.97	32124.44
528.17	32269.84
528.38	32347.67
528.58	32429.59
528.78	32476.69
528.99	32216.60
529.19	32828.94
529.39	32046.62
529.60	33175.05
529.80	32804.36
530.00	32779.79
530.21	32835.08
530.41	33396.23
530.61	33248.77
530.82	33336.84
531.02	33179.14
531.22	33441.28
531.43	33598.98
531.63	33699.33
531.83	33684.99
532.04	34362.87
532.24	33834.49
532.44	34315.76
532.64	34272.76
532.85	34567.66
533.05	34493.94
533.25	34442.74
533.46	34334.20
533.66	34706.93
533.86	35071.46
534.07	35206.63
534.27	34772.46
534.47	35427.81
534.67	35040.75
534.88	34794.99
535.08	35194.34
535.28	35534.31
535.49	35378.66
535.69	35902.94
535.89	35845.60
536.09	35816.93
536.30	36218.33
536.50	36197.85
536.70	36111.83
536.91	36382.16
537.11	36120.02
537.31	36474.32
537.51	36593.11
537.72	36902.35
537.92	36908.49
538.12	36941.26
538.32	36672.98
538.53	36971.98
538.73	36546.00
538.93	36822.48
539.13	37103.05
539.34	37014.99
539.54	37213.64
539.74	37592.51
539.94	37383.62
540.15	37238.22
540.35	37746.11
540.55	37705.15
540.75	37656.00
540.96	37610.95
541.16	37971.39
541.36	38383.03
541.56	38307.26
541.77	38454.71
541.97	38174.14
542.17	38481.33
542.37	38540.72
542.58	38632.88
542.78	38528.44
542.98	38407.61
543.18	38874.54
543.38	39261.61
543.59	39179.69
543.79	38950.32
543.99	38811.06
544.19	39222.70
544.40	39638.44
544.60	39456.17
544.80	39372.20
545.00	39402.92
545.20	39994.78
545.41	39929.25
545.61	40021.41
545.81	40007.07
546.01	40437.14
546.21	40224.15
546.42	40175.00
546.62	39941.53
546.82	40439.19
547.02	40426.90
547.22	40144.28
547.43	40498.58
547.63	40693.14
547.83	40844.69
548.03	40402.33
548.23	41061.77
548.44	40619.41
548.64	40793.49
548.84	41088.40
549.04	41254.28
549.24	41024.91
549.45	41418.12
549.65	40951.18
549.85	41213.32
550.05	41272.71
550.25	41522.57
550.45	41796.99
550.66	41469.32
550.86	41344.39
551.06	41569.67
551.26	41844.10
551.46	41586.05
551.66	41799.04
551.87	42132.86
552.07	42085.76
552.27	41991.55
552.47	42429.82
552.67	42685.81
552.87	42106.24
553.07	42124.67
553.28	42380.67
553.48	42476.92
553.68	42493.30
553.88	42378.62
554.08	42632.57
554.28	43025.78
554.48	42298.75
554.69	43130.22
554.89	42433.91
555.09	42845.55
555.29	42759.54
555.49	42952.05
555.69	43056.50
555.89	42947.95
556.10	43373.93
556.30	43167.09
556.50	43349.35
556.70	43046.26
556.90	43529.58
557.10	43124.08
557.30	43085.17
557.50	43707.75
557.70	43562.34
557.91	43742.56
558.11	43705.70
558.31	44041.57
558.51	43636.07
558.71	43631.97
558.91	43861.35
559.11	43873.63
559.31	44342.62
559.51	43636.07
559.72	43853.15
559.92	44361.05
560.12	43777.38
560.32	43775.33
560.52	44049.76
560.72	44213.60
560.92	44232.03
561.12	44584.28
561.32	44627.29
561.52	44201.31
561.72	44426.59
561.93	44340.57
562.13	44369.24
562.33	44283.23
562.53	45346.12
562.73	44379.48
562.93	44672.34
563.13	44766.55
563.33	44930.39
563.53	44895.57
563.73	44668.25
563.93	45231.44
564.13	45331.79
564.33	45055.31
564.53	45200.72
564.74	45225.29
564.94	45126.99
565.14	45108.56
565.34	44965.20
565.54	45348.17
565.74	45288.78
565.94	45708.61
566.14	45176.14
566.34	45172.05
566.54	45243.73
566.74	45176.14
566.94	45544.78
567.14	45509.96
567.34	45614.41
567.54	45733.19
567.74	45516.11
567.94	45350.22
568.14	45681.99
568.34	45661.51
568.54	45350.22
568.74	45755.72
568.94	45411.66
569.14	46019.91
569.34	46171.46
569.54	45718.85
569.75	45720.90
569.95	45774.15
570.15	46157.12
570.35	46304.57
570.55	45927.75
570.75	45811.01
570.95	45987.14
571.15	45942.08
571.35	46011.71
571.55	46419.26
571.75	46345.53
571.95	46204.22
572.15	46099.78
572.35	46490.94
572.55	46067.01
572.75	46249.28
572.95	46413.12
573.15	46187.84
573.35	46130.50
573.55	46538.04
573.75	46746.93
573.95	46990.64
574.15	46261.57
574.35	46916.92
574.55	46820.66
574.75	46857.52
574.95	46701.88
575.15	47088.95
575.34	46765.37
575.54	47209.78
575.74	47181.10
575.94	47316.27
576.14	47009.07
576.34	47260.97
576.54	47193.39
576.74	47297.84
576.94	47170.86
577.14	47334.70
577.34	47836.45
577.54	47412.52
577.74	47318.32
577.94	47537.45
578.14	47611.18
578.34	47308.08
578.54	46951.73
578.74	47510.83
578.94	47689.00
579.14	47375.66
579.34	47568.17
579.54	47672.62
579.74	48403.74
579.94	48063.78
580.13	47854.89
580.33	48141.60
580.53	47723.82
580.73	48024.87
580.93	48260.38
581.13	48264.48
581.33	48170.27
581.53	48213.28
581.73	48045.35
581.93	48188.70
582.13	48270.62
582.33	48289.06
582.53	48399.65
582.73	48907.54
582.92	48469.28
583.12	49147.15
583.32	48645.40
583.52	48100.64
583.72	48694.55
583.92	48870.68
584.12	48782.62
584.32	49382.67
584.52	49022.23
584.72	49143.06
584.92	48960.79
585.11	48977.17
585.31	49116.43
585.51	49399.05
585.71	48938.26
585.91	48895.25
586.11	48774.42
586.31	49003.80
586.51	49130.77
586.71	49218.83
586.91	49339.66
587.10	49710.35
587.30	49532.17
587.50	49610.00
587.70	49407.25
587.90	49595.66
588.10	49593.61
588.30	49214.74
588.50	49857.80
588.69	49726.73
588.89	49460.49
589.09	49587.47
589.29	49792.26
589.49	50046.21
589.69	49734.92
589.89	50058.50
590.08	50003.20
590.28	49911.05
590.48	50091.27
590.68	49724.68
590.88	49820.94
591.08	49755.40
591.28	49493.26
591.47	50427.13
591.67	49839.37
591.87	50181.38
592.07	50367.74
592.27	50148.61
592.47	50474.24
592.67	50353.41
592.86	49935.62
593.06	50287.87
593.26	50670.84
593.46	50396.42
593.66	50337.02
593.86	50863.35
594.05	50509.05
594.25	50515.20
594.45	50420.99
594.65	50801.91
594.85	50722.04
595.05	50957.56
595.24	50740.47
595.44	50566.40
595.64	51102.96
595.84	51072.24
596.04	50838.78
596.23	51137.78
596.43	50967.80
596.63	51031.29
596.83	51262.71
597.03	50799.86
597.22	51262.71
597.42	51281.14
597.62	51313.90
597.82	51199.22
598.02	51215.60
598.21	51836.14
598.41	51090.68
598.61	51301.62
598.81	51363.06
599.01	51657.96
599.20	51371.25
599.40	51492.08
599.60	52065.51
599.80	51387.63
600.00	51842.28
600.19	52225.25
600.39	51711.21
600.59	52120.80
600.79	51819.75
600.98	51909.86
601.18	52045.03
601.38	52505.82
601.58	52282.59
601.78	51993.83
601.97	52133.09
602.17	52456.67
602.37	52544.73
602.57	52557.02
602.76	52651.23
602.96	52331.75
603.16	52845.79
603.36	52514.01
603.55	52317.41
603.75	52593.89
603.95	52714.72
604.15	53138.65
604.34	53216.47
604.54	53140.69
604.74	53011.67
604.94	52610.27
605.13	53107.93
605.33	53445.84
605.53	52944.09
605.73	53343.44
605.92	53425.36
606.12	53482.70
606.32	53251.28
606.52	53404.88
606.71	53396.69
606.91	54191.30
607.11	53126.36
607.30	53548.24
607.50	53417.17
607.70	53490.90
607.90	53597.39
608.09	53648.59
608.29	53724.36
608.49	54164.68
608.68	53699.79
608.88	53923.02
609.08	53966.02
609.28	53959.88
609.47	53599.44
609.67	54154.44
609.87	54299.84
610.06	54219.97
610.26	53974.22
610.46	54574.27
610.66	54240.45
610.85	54207.68
611.05	54441.15
611.25	54035.66
611.44	54228.16
611.64	54318.28
611.84	54566.08
612.03	53976.26
612.23	54191.30
612.43	54131.91
612.62	54514.88
612.82	54947.00
613.02	54396.10
613.21	54375.62
613.41	54832.32
613.61	54670.53
613.80	53877.96
614.00	54551.74
614.20	54310.08
614.39	54707.39
614.59	54383.81
614.79	54516.93
614.98	54428.87
615.18	55000.25
615.38	54772.92
615.57	54498.50
615.77	54721.72
615.97	54895.80
616.16	54656.19
616.36	54754.49
616.56	54936.76
616.75	54758.59
616.95	54430.91
617.15	54717.63
617.34	54711.49
617.54	54797.50
617.74	55370.93
617.93	54826.17
618.13	54768.83
618.32	54580.42
618.52	54725.82
618.72	54852.80
618.91	54734.01
619.11	54252.74
619.31	54979.77
619.50	55166.13
619.70	55178.42
619.90	54840.51
620.09	54713.53
620.29	55227.57
620.48	54674.62
620.68	55071.93
620.88	54514.88
621.07	54682.81
621.27	54969.53
621.46	54330.56
621.66	54748.35
621.86	55049.40
622.05	54457.54
622.25	55301.30
622.44	54998.20
622.64	54957.24
622.84	55235.77
623.03	55033.02
623.23	54824.12
623.42	55205.05
623.62	55012.54
623.82	54916.28
624.01	54940.86
624.21	55241.91
624.40	54887.61
624.60	55145.65
624.80	55061.69
624.99	55266.48
625.19	54514.88
625.38	55241.91
625.58	55168.18
625.77	55237.81
625.97	55094.46
626.17	54815.93
626.36	55637.17
626.56	54949.05
626.75	55092.41
626.95	55522.48
627.14	55258.29
627.34	56087.72
627.54	55551.15
627.73	55479.47
627.93	55499.95
628.12	55366.84
628.32	55391.41
628.51	55385.27
628.71	55131.32
628.90	55499.95
629.10	55229.62
629.30	55495.86
629.49	55440.56
629.69	55616.69
629.88	55215.29
630.08	55755.95
630.27	55964.84
630.47	56362.15
630.66	55538.86
630.86	55901.36
631.05	55893.16
631.25	55925.93
631.44	55950.51
631.64	55588.02
631.84	55655.60
632.03	56386.72
632.23	55641.26
632.42	55919.79
632.62	55997.61
632.81	55858.35
633.01	55659.69
633.20	56013.99
633.40	55991.47
633.59	56194.21
633.79	55698.61
633.98	56016.04
634.18	55964.84
634.37	56691.87
634.57	56253.61
634.76	55991.47
634.96	55790.76
635.15	55958.70
635.35	55909.55
635.54	55698.61
635.74	56300.71
635.93	56081.58
636.13	56665.25
636.32	56595.62
636.52	55788.72
636.71	56499.36
636.91	56222.89
637.10	56267.94
637.30	56507.55
637.49	56448.16
637.69	56071.34
637.88	56669.34
638.08	56577.18
638.27	56759.45
638.46	56226.98
638.66	56237.22
638.85	56513.70
639.05	56247.46
639.24	56560.80
639.44	56296.61
639.63	56759.45
639.83	56689.82
640.02	56808.61
640.22	56630.43
640.41	56753.31
640.61	56659.10
640.80	56419.49
640.99	56505.51
641.19	57001.11
641.38	56911.00
641.58	56812.70
641.77	56720.54
641.97	56681.63
642.16	57066.65
642.36	57066.65
642.55	57332.89
642.74	56972.44
642.94	57234.58
643.13	56906.91
643.33	57136.28
643.52	57314.45
643.72	57558.16
643.91	57302.17
644.10	57466.00
644.30	57427.09
644.49	57351.32
644.69	57244.82
644.88	57336.98
645.08	57253.01
645.27	57046.17
645.46	56892.57
645.66	57654.42
645.85	57328.79
646.05	57357.46
646.24	57621.65
646.43	57504.91
646.63	57558.16
646.82	57668.75
647.02	57633.94
647.21	57904.27
647.40	57791.63
647.60	58162.31
647.79	57627.79
647.99	58080.39
648.18	57595.03
648.37	57988.24
648.57	57685.14
648.76	57638.03
648.96	57302.17
649.15	57824.40
649.34	57902.22
649.54	57818.25
649.73	57734.29
649.92	58053.77
650.12	57877.64
650.31	58604.67
650.51	58299.53
650.70	58209.42
650.89	57998.48
651.09	58549.38
651.28	58250.38
651.47	58508.42
651.67	58180.74
651.86	58444.93
652.06	57889.93
652.25	58246.28
652.44	58113.16
652.64	57941.13
652.83	57756.81
653.02	58029.19
653.22	58033.29
653.41	57840.78
653.60	57576.59
653.80	57789.58
653.99	58025.10
654.18	58047.63
654.38	58379.40
654.57	58190.98
654.76	58463.36
654.96	58055.82
655.15	58203.27
655.34	57848.97
655.54	58195.08
655.73	58252.42
655.92	57986.19
656.12	58061.96
656.31	58424.45
656.50	58512.52
656.70	58012.81
656.89	58475.65
657.08	58143.88
657.28	58213.51
657.47	57910.41
657.66	58381.45
657.86	58305.67
658.05	58145.93
658.24	58569.86
658.43	58401.92
658.63	58240.14
658.82	58446.98
659.01	58692.74
659.21	59036.80
659.40	58608.77
659.59	58897.53
659.79	58555.52
659.98	58530.95
660.17	58686.59
660.36	58580.10
660.56	58997.88
660.75	58825.85
660.94	58715.26
661.14	58078.35
661.33	58238.09
661.52	58027.15
661.71	58111.11
661.91	57810.06
662.10	58467.46
662.29	59153.53
662.49	58039.43
662.68	58760.32
662.87	58856.57
663.06	58432.64
663.26	58389.64
663.45	58748.03
663.64	58653.82
663.83	58967.16
664.03	58434.69
664.22	58354.82
664.41	58555.52
664.60	58004.62
664.80	58551.43
664.99	58535.04
665.18	57980.04
665.37	58381.45
665.57	59044.99
665.76	57967.76
665.95	58567.81
666.14	58676.35
666.34	58297.48
666.53	58174.60
666.72	58315.91
666.91	57984.14
667.11	57914.51
667.30	58227.85
667.49	58406.02
667.68	58295.43
667.87	58012.81
668.07	58266.76
668.26	58639.49
668.45	58555.52
668.64	58168.46
668.84	58881.15
669.03	58383.49
669.22	58481.80
669.41	58082.44
669.60	58158.22
669.80	58201.22
669.99	58535.04
670.18	58000.52
670.37	58064.01
670.57	58336.39
670.76	58211.46
670.95	58623.11
671.14	58152.07
671.33	58168.46
671.53	58465.41
671.72	58246.28
671.91	58131.59
672.10	58170.50
672.29	57959.56
672.48	58039.43
672.68	58709.12
672.87	58215.56
673.06	57877.64
673.25	57693.33
673.44	57578.64
673.64	58260.62
673.83	57894.03
674.02	57734.29
674.21	57386.13
674.40	58053.77
674.59	57373.84
674.79	57404.56
674.98	57703.57
675.17	57896.08
675.36	57472.15
675.55	57975.95
675.74	57521.30
675.94	57472.15
676.13	57726.10
676.32	58074.25
676.51	58078.35
676.70	58082.44
676.89	57873.55
677.08	58035.34
677.28	57341.08
677.47	57685.14
677.66	57715.86
677.85	57756.81
678.04	57881.74
678.23	57683.09
678.42	57697.42
678.62	57273.49
678.81	57846.93
679.00	57420.95
679.19	57812.11
679.38	57414.80
679.57	57549.97
679.76	57531.54
679.96	57367.70
680.15	57541.78
680.34	57296.02
680.53	57117.85
680.72	57324.69
680.91	57373.84
681.10	57160.86
681.29	57160.86
681.48	57089.18
681.68	57134.23
681.87	56972.44
682.06	57189.53
682.25	56882.33
682.44	57246.87
682.63	57101.46
682.82	56767.65
683.01	57281.69
683.20	56421.54
683.39	56622.24
683.59	56446.11
683.78	56466.59
683.97	56474.79
684.16	56747.17
684.35	56366.24
684.54	56116.39
684.73	56499.36
684.92	56208.55
685.11	56505.51
685.30	56063.14
685.49	56485.03
685.69	56595.62
685.88	56554.66
686.07	56456.35
686.26	56642.72
686.45	56120.49
686.64	56392.87
686.83	56439.97
687.02	56190.12
687.21	56601.76
687.40	56458.40
687.59	56259.75
687.78	56411.30
687.97	56476.83
688.16	55999.66
688.35	56394.92
688.54	55637.17
688.74	55811.24
688.93	55831.72
689.12	55604.40
689.31	55958.70
689.50	55934.12
689.69	55432.37
689.88	55268.53
690.07	56186.02
690.26	55571.63
690.45	56136.87
690.64	55569.58
690.83	55540.91
691.02	55379.12
691.21	55663.79
691.40	55342.26
691.59	55616.69
691.78	55583.92
691.97	55694.51
692.16	55325.88
692.35	55956.65
692.54	55452.85
692.73	55495.86
692.92	55522.48
693.11	55178.42
693.30	55585.97
693.49	55735.47
693.68	55073.98
693.87	55092.41
694.06	54996.15
694.25	55370.93
694.44	54879.42
694.63	54973.63
694.82	55196.85
695.01	54885.56
695.20	54856.89
695.39	54895.80
695.58	54903.99
695.77	54990.01
695.96	54738.11
696.15	54903.99
696.34	54576.32
696.53	54359.23
696.72	54508.74
696.91	54885.56
697.10	54699.20
697.29	54232.26
697.48	54684.86
697.67	54295.75
697.86	54129.86
698.05	54211.78
698.24	54523.07
698.43	54103.24
698.62	54338.75
698.81	53908.68
699.00	54342.85
699.19	54107.33
699.38	54238.40
699.57	53978.31
699.76	54572.22
699.95	54060.23
700.14	53925.07
700.32	53720.27
700.51	53941.45
700.70	53818.57
700.89	53890.25
701.08	54285.51
701.27	53877.96
701.46	54285.51
701.65	53376.21
701.84	53662.93
702.03	53611.73
702.22	53712.08
702.41	53646.54
702.60	53712.08
702.79	53593.29
702.98	53499.09
703.17	53753.04
703.35	53652.69
703.54	53347.54
703.73	53644.49
703.92	53308.63
704.11	53130.45
704.30	53083.35
704.49	52876.51
704.68	52876.51
704.87	52878.55
705.06	52991.19
705.25	53132.50
705.43	53136.60
705.62	52839.64
705.81	52966.62
706.00	52907.22
706.19	52573.41
706.38	52634.84
706.57	52976.86
706.76	52657.37
706.95	52344.03
707.14	52688.09
707.32	52659.42
707.51	52333.79
707.70	52669.66
707.89	52526.30
708.08	52409.57
708.27	52581.60
708.46	53435.60
708.65	52657.37
708.84	52704.48
709.02	52577.50
709.21	52821.21
709.40	52458.72
709.59	52532.45
709.78	52063.46
709.97	52610.27
710.16	52002.02
710.34	52208.87
710.53	51967.21
710.72	52090.09
710.91	52327.65
711.10	52403.42
711.29	52430.05
711.48	51844.33
711.66	52006.12
711.85	52016.36
712.04	52223.20
712.23	51606.76
712.42	52090.09
712.61	51401.97
712.80	51717.35
712.98	52088.04
713.17	51289.33
713.36	51817.71
713.55	51574.00
713.74	51610.86
713.93	51864.81
714.11	51541.23
714.30	51635.44
714.49	51584.24
714.68	51621.10
714.87	50984.18
715.06	51879.14
715.24	51287.28
715.43	51344.62
715.62	51342.58
715.81	50941.17
716.00	51291.38
716.18	50926.84
716.37	50760.95
716.56	50492.67
716.75	51221.75
716.94	51002.61
717.12	50912.50
717.31	50859.26
717.50	50785.53
717.69	51019.00
717.88	50791.67
718.06	50896.12
718.25	50978.04
718.44	50390.27
718.63	50707.71
718.82	50533.63
719.00	50537.72
719.19	50498.81
719.38	50468.09
719.57	50412.80
719.76	50052.36
719.94	50394.37
720.13	50093.32
720.32	50283.78
720.51	49822.98
720.69	50085.12
720.88	49536.27
721.07	49624.33
721.26	49515.79
721.44	49943.81
721.63	49749.26
721.82	49743.11
722.01	49550.60
722.20	49878.28
722.38	49507.60
722.57	48860.44
722.76	49542.41
722.95	49104.15
723.13	49204.50
723.32	49675.53
723.51	49038.61
723.70	49224.98
723.88	49055.00
724.07	48995.60
724.26	49386.77
724.44	48913.69
724.63	49181.97
724.82	48893.21
725.01	49061.14
725.19	49003.80
725.38	48440.60
725.57	48665.88
725.76	48977.17
725.94	48543.00
726.13	48993.56
726.32	48323.87
726.51	48456.99
726.69	49071.38
726.88	48989.46
727.07	48305.44
727.25	48235.81
727.44	48796.95
727.63	48459.04
727.82	48495.90
728.00	48717.08
728.19	47957.28
728.38	48719.13
728.56	48166.18
728.75	48985.36
728.94	48411.93
729.12	48282.91
729.31	48708.89
729.50	48313.63
729.69	48610.59
729.87	48551.20
730.06	48313.63
730.25	48616.73
730.43	48821.53
730.62	48272.67
730.81	48596.25
730.99	48532.76
731.18	48411.93
731.37	48594.20
731.55	48364.83
731.74	48641.31
731.93	48467.23
732.11	48065.83
732.30	48706.84
732.49	48022.82
732.67	48401.69
732.86	48497.95
733.05	48356.64
733.23	48461.08
733.42	48461.08
733.61	48497.95
733.79	48571.67
733.98	48936.21
734.17	48287.01
734.35	48031.01
734.54	48620.83
734.73	48360.73
734.91	48401.69
735.10	48092.45
735.29	48571.67
735.47	48086.31
735.66	48416.03
735.84	48647.45
736.03	48510.24
736.22	48557.34
736.40	48211.23
736.59	48579.87
736.78	48080.16
736.96	47865.13
737.15	47469.87
737.33	48178.46
737.52	48160.03
737.71	47541.55
737.89	47920.42
738.08	47357.23
738.27	47918.37
738.45	48389.41
738.64	47977.76
738.82	47672.62
739.01	47977.76
739.20	47951.14
739.38	47910.18
739.57	47783.21
739.75	47924.52
739.94	48074.02
740.13	48049.44
740.31	47811.88
740.50	47457.58
740.68	47947.04
740.87	48088.35
741.06	48401.69
741.24	47940.90
741.43	47527.21
741.61	47961.38
741.80	47668.52
741.99	47316.27
742.17	47734.06
742.36	47547.69
742.54	47512.88
742.73	47353.13
742.91	47705.38
743.10	47318.32
743.29	47676.71
743.47	47805.73
743.66	47355.18
743.84	47562.03
744.03	47752.49
744.21	47240.50
744.40	47645.99
744.59	47058.23
744.77	47496.49
744.96	47473.96
745.14	47594.79
745.33	47459.63
745.51	47334.70
745.70	47439.15
745.88	47379.76
746.07	47383.85
746.26	47041.84
746.44	47060.27
746.63	47187.25
746.81	47215.92
747.00	46941.49
747.18	47476.01
747.37	46961.97
747.55	46966.07
747.74	47158.58
747.92	46665.02
748.11	46761.27
748.29	47045.94
748.48	46507.32
748.66	46814.52
748.85	46904.63
749.03	46841.14
749.22	47086.90
749.41	46423.36
749.59	46566.71
749.78	46376.25
749.96	46683.45
750.15	46337.34
750.33	47158.58
750.52	46456.12
750.70	46546.23
750.89	46431.55
751.07	46495.03
751.26	46814.52
751.44	46384.44
751.63	46685.50
751.81	45931.84
752.00	46286.14
752.18	46660.92
752.37	46294.33
752.55	46056.77
752.74	46380.35
752.92	45968.71
753.10	45843.78
753.29	46079.30
753.47	46011.71
753.66	45868.36
753.84	46030.15
754.03	46101.82
754.21	45778.25
754.40	46132.54
754.58	46142.78
754.77	45876.55
754.95	45311.31
755.14	45725.00
755.32	45632.84
755.51	45489.48
755.69	45823.30
755.88	45808.96
756.06	45985.09
756.24	45274.45
756.43	45632.84
756.61	45518.15
756.80	45342.03
756.98	45274.45
757.17	45600.07
757.35	45534.54
757.54	45509.96
757.72	45403.47
757.90	45155.66
758.09	45444.43
758.27	45352.27
758.46	44993.87
758.64	45475.15
758.83	45317.45
759.01	45286.73
759.19	45194.57
759.38	45450.57
759.56	45325.64
759.75	45131.09
759.93	45034.83
760.12	44873.04
760.30	44739.93
760.48	45124.94
760.67	44813.65
760.85	44770.64
761.04	45323.60
761.22	45292.88
761.40	44875.09
761.59	45153.62
761.77	44604.76
761.96	44744.02
762.14	44606.81
762.32	44338.52
762.51	44741.97
762.69	44328.28
762.88	44227.93
763.06	44707.16
763.24	44760.40
763.43	44725.59
763.61	44270.94
763.80	44438.87
763.98	44338.52
764.16	44293.47
764.35	44432.73
764.53	44080.48
764.72	44016.99
764.90	44090.72
765.08	44412.25
765.27	44148.06
765.45	44004.70
765.63	44027.23
765.82	44266.84
766.00	43775.33
766.18	43887.97
766.37	44121.44
766.55	43677.03
766.74	43791.72
766.92	44023.14
767.10	43642.21
767.29	43586.92
767.47	43521.38
767.65	43511.14
767.84	43294.06
768.02	43677.03
768.20	43138.41
768.39	43701.61
768.57	43234.67
768.75	43453.80
768.94	43500.90
769.12	43302.25
769.30	43107.69
769.49	43181.42
769.67	42978.67
769.85	42775.92
770.04	42620.28
770.22	42792.31
770.40	42558.84
770.59	42812.79
770.77	43175.28
770.95	42702.20
771.14	42571.13
771.32	42425.72
771.50	42556.79
771.69	42612.09
771.87	42734.96
772.05	42474.87
772.24	42407.29
772.42	42728.82
772.60	41964.93
772.78	42335.61
772.97	42534.26
773.15	42341.75
773.33	42446.20
773.52	42026.37
773.70	42249.60
773.88	42757.49
774.07	42562.93
774.25	42227.07
774.43	42495.35
774.61	42308.99
774.80	42458.49
774.98	42003.84
775.16	42235.26
775.34	42765.68
775.53	42268.03
775.71	42345.85
775.89	42116.48
776.08	41975.17
776.26	42509.69
776.44	42704.24
776.62	42366.33
776.81	42499.45
776.99	42390.91
777.17	42231.16
777.35	42311.03
777.54	42638.71
777.72	42345.85
777.90	42501.50
778.08	43130.22
778.27	42446.20
778.45	42872.18
778.63	42620.28
778.81	42300.79
779.00	43017.58
779.18	42382.71
779.36	43195.76
779.54	42796.40
779.73	42730.87
779.91	42720.63
780.09	42833.27
780.27	43230.57
780.46	42642.81
780.64	43179.37
780.82	42732.92
781.00	42808.69
781.19	43408.75
781.37	43296.11
781.55	42868.08
781.73	43431.27
781.91	42861.94
782.10	42952.05
782.28	43095.41
782.46	43322.73
782.64	43203.95
782.82	43085.17
783.01	43304.30
783.19	43292.01
783.37	43449.70
783.55	43472.23
783.74	43369.83
783.92	43226.48
784.10	43758.95
784.28	43316.59
784.46	43013.49
784.64	43173.23
784.83	42999.15
785.01	43826.53
785.19	43230.57
785.37	43216.24
785.55	43265.39
785.74	42888.56
785.92	42784.12
786.10	43203.95
786.28	42972.53
786.46	43201.90
786.64	42804.59
786.83	43216.24
787.01	42902.90
787.19	42939.76
787.37	43079.02
787.55	43277.68
787.74	42605.94
787.92	42777.97
788.10	42438.01
788.28	42775.92
788.46	42853.75
788.64	42450.30
788.82	43023.73
789.01	42642.81
789.19	42446.20
789.37	42497.40
789.55	42179.96
789.73	41919.87
789.91	41864.58
790.09	42415.48
790.28	42114.43
790.46	41635.20
790.64	42562.93
790.82	42124.67
791.00	41751.94
791.18	41420.17
791.36	41575.81
791.55	41727.36
791.73	41440.65
791.91	41643.40
792.09	41342.35
792.27	41287.05
792.45	41274.76
792.63	41244.04
792.81	40977.81
793.00	41123.21
793.18	40793.49
793.36	40826.26
793.54	40797.59
793.72	40932.75
793.90	40199.58
794.08	40555.93
794.26	40791.44
794.44	40162.72
794.62	40127.90
794.81	40224.15
794.99	40172.96
795.17	40062.36
795.35	39720.35
795.53	40066.46
795.71	40021.41
795.89	39523.75
796.07	39445.93
796.25	39376.30
796.43	39380.39
796.61	39370.15
796.80	39095.72
796.98	39429.54
797.16	38860.21
797.34	39265.70
797.52	38845.87
797.70	39101.87
797.88	39007.66
798.06	38593.97
798.24	38768.05
798.42	39155.11
798.60	38213.05
798.78	38442.42
798.96	38395.32
799.14	38081.98
799.32	38460.85
799.51	38206.90
799.69	37957.05
799.87	38143.42
800.05	37791.17
800.23	37840.32
800.41	37584.32
800.59	37383.62
800.77	37656.00
800.95	37123.53
801.13	37496.26
801.31	36986.32
801.49	37156.30
801.67	37103.05
801.85	37010.89
802.03	36920.78
802.21	36437.46
802.39	36810.19
802.57	36378.07
802.75	36482.52
802.93	36339.16
803.11	36070.87
803.29	36173.27
803.47	35911.13
803.65	36068.83
803.83	35939.80
804.01	36052.44
804.19	35880.41
804.37	35505.63
804.55	35821.02
804.73	35605.98
804.91	35522.02
805.09	35794.40
805.27	35362.28
805.45	35507.68
805.63	35513.83
805.81	35124.71
805.99	35366.37
806.17	35667.42
806.35	35415.52
806.53	34971.11
806.71	34960.87
806.89	34838.00
807.07	35091.94
807.25	34686.45
807.43	34547.18
807.61	34995.69
807.79	34807.28
807.97	34123.26
808.15	34168.31
808.33	34016.76
808.51	33936.89
808.69	34190.84
808.87	33488.38
809.05	33668.61
809.23	33627.65
809.41	33572.35
809.59	33574.40
809.77	33805.82
809.95	33357.32
810.13	33431.04
810.31	33371.65
810.49	33590.78
810.67	33469.95
810.84	33355.27
811.02	33342.98
811.20	32927.24
811.38	33359.36
811.56	32898.57
811.74	32722.44
811.92	32781.84
812.10	32628.24
812.28	33173.00
812.46	32894.47
812.64	32880.14
812.82	32464.40
813.00	32767.50
813.18	32904.71
813.36	32165.40
813.53	32130.58
813.71	32364.05
813.89	31841.82
814.07	32310.80
814.25	32450.06
814.43	32097.81
814.61	31835.67
814.79	32054.81
814.97	31933.98
815.15	31964.70
815.33	31139.36
815.50	31372.83
815.68	31634.97
815.86	31260.20
816.04	31155.75
816.22	31239.72
816.40	31481.38
816.58	31112.74
816.76	30834.22
816.94	30979.62
817.11	31153.70
817.29	30991.91
817.47	30815.79
817.65	30633.52
817.83	31008.29
818.01	30740.01
818.19	30465.58
818.37	30787.11
818.54	30412.34
818.72	30387.76
818.90	30584.37
819.08	30219.83
819.26	30154.29
819.44	30330.42
819.62	30549.55
819.80	30168.63
819.97	30189.11
820.15	29738.55
820.33	29865.53
820.51	29935.16
820.69	29318.72
820.87	29855.29
821.05	30076.47
821.22	29851.19
821.40	29953.59
821.58	29709.88
821.76	29806.14
821.94	29587.00
822.12	29226.56
822.29	29455.93
822.47	29101.64
822.65	29765.18
822.83	29752.89
823.01	29244.99
823.19	29439.55
823.36	28882.50
823.54	29001.29
823.72	28862.02
823.90	29068.87
824.08	28857.93
824.25	28730.95
824.43	28460.62
824.61	28831.30
824.79	29001.29
824.97	28759.63
825.15	28806.73
825.32	28749.39
825.50	28141.14
825.68	28515.92
825.86	28671.56
826.04	28448.33
826.21	28417.61
826.39	28372.56
826.57	28331.60
826.75	28188.24
826.93	27962.97
827.10	28231.25
827.28	28114.52
827.46	28544.59
827.64	27852.38
827.81	27917.91
827.99	28085.84
828.17	27846.23
828.35	27768.41
828.53	27854.42
828.70	27612.76
828.88	27727.45
829.06	27911.77
829.24	27375.20
829.41	27524.70
829.59	27784.79
829.77	27729.50
829.95	27528.80
830.12	27362.91
830.30	27600.47
830.48	27385.44
830.66	27438.69
830.84	27461.21
831.01	27039.33
831.19	27100.77
831.37	27139.68
831.55	26922.60
831.72	26871.40
831.90	26918.50
832.08	27004.52
832.25	27106.91
832.43	26861.16
832.61	26789.48
832.79	26576.49
832.96	26658.41
833.14	26818.15
833.32	26650.22
833.50	26588.78
833.67	26584.68
833.85	26547.82
834.03	26230.38
834.20	25890.42
834.38	26517.10
834.56	26795.62
834.74	26635.88
834.91	26508.91
835.09	26242.67
835.27	26031.73
835.44	26138.23
835.62	25953.91
835.80	26214.00
835.98	26078.83
836.15	26242.67
836.33	26457.71
836.51	26240.62
836.68	25984.63
836.86	25800.31
837.04	26027.63
837.21	25976.44
837.39	26033.78
837.57	26158.70
837.75	26023.54
837.92	25513.59
838.10	25689.72
838.28	25353.85
838.45	25173.63
838.63	25370.24
838.81	25624.18
838.98	25276.03
839.16	25218.69
839.34	25259.65
839.51	25056.90
839.69	25392.76
839.87	25087.62
840.04	24903.30
840.22	25357.95
840.40	25118.34
840.57	24794.76
840.75	25085.57
840.93	24829.57
841.10	24907.40
841.28	25185.92
841.46	25036.42
841.63	25087.62
841.81	25017.99
841.98	24964.74
842.16	24802.95
842.34	24979.07
842.51	24411.79
842.69	24780.42
842.87	24491.66
843.04	24712.84
843.22	24487.56
843.40	24753.80
843.57	24264.33
843.75	24206.99
843.92	24512.14
844.10	24225.42
844.28	23987.86
844.45	24323.72
844.63	24305.29
844.81	24170.13
844.98	24131.22
845.16	23959.19
845.33	24532.62
845.51	23936.66
845.69	24166.03
845.86	23701.14
846.04	24110.74
846.21	23977.62
846.39	23723.67
846.57	23875.22
846.74	23819.92
846.92	23629.46
847.09	23654.04
847.27	23613.08
847.45	23940.75
847.62	24016.53
847.80	23981.71
847.97	23701.14
848.15	23690.90
848.32	23508.63
848.50	23350.94
848.68	23486.11
848.85	23342.75
849.03	23271.07
849.20	23322.27
849.38	23348.89
849.56	23162.53
849.73	22650.53
849.91	23355.04
850.08	23238.30
850.26	23338.65
850.43	23125.66
850.61	23314.08
850.78	23013.02
850.96	23047.84
851.14	22783.65
851.31	23158.43
851.49	23049.89
851.66	23207.58
851.84	22884.00
852.01	22996.64
852.19	22818.47
852.36	22642.34
852.54	22660.77
852.71	22984.35
852.89	22677.16
853.07	22685.35
853.24	22648.49
853.42	22841.00
853.59	22566.57
853.77	22697.64
853.94	22777.51
854.12	22994.59
854.29	22412.97
854.47	22353.58
854.64	22582.95
854.82	22355.63
854.99	22451.88
855.17	22400.68
855.34	21984.94
855.52	22337.20
855.69	22505.13
855.87	21941.94
856.04	22130.35
856.22	22066.86
856.39	21972.66
856.57	22161.07
856.74	22173.36
856.92	21915.31
857.09	22113.97
857.27	22081.20
857.44	22023.86
857.62	21806.77
857.79	22116.01
857.97	22159.02
858.14	21737.14
858.32	21403.32
858.49	22042.29
858.67	21774.00
858.84	21776.05
859.02	21872.31
859.19	21518.01
859.37	21421.75
859.54	21302.97
859.72	21593.78
859.89	21659.32
860.06	21692.08
860.24	21456.57
860.41	21817.01
860.59	21431.99
860.76	21405.37
860.94	21106.37
861.11	21464.76
861.29	21415.61
861.46	21345.98
861.64	21302.97
861.81	20989.63
861.98	20973.25
862.16	20887.23
862.33	20950.72
862.51	21192.38
862.68	21124.80
862.86	20809.41
863.03	21067.45
863.21	21128.89
863.38	20960.96
863.55	20928.19
863.73	20793.03
863.90	20905.66
864.08	20772.55
864.25	20844.23
864.43	20700.87
864.60	21077.69
864.77	20604.61
864.95	20780.74
865.12	20391.62
865.30	20553.41
865.47	20512.46
865.64	20432.58
865.82	20547.27
865.99	20575.94
866.17	20365.00
866.34	20676.29
866.51	20240.08
866.69	20608.71
866.86	20340.43
867.04	20190.92
867.21	20170.44
867.38	20332.23
867.56	19992.27
867.73	20156.11
867.91	19932.88
868.08	19953.36
868.25	20106.96
868.43	19947.22
868.60	19861.20
868.78	19758.80
868.95	20387.53
869.12	19936.98
869.30	19766.99
869.47	20059.85
869.64	19764.95
869.82	19840.72
869.99	19850.96
870.16	19568.34
870.34	19625.68
870.51	19939.02
870.69	19588.82
870.86	19511.00
871.03	19732.18
871.21	19525.33
871.38	19609.30
871.55	19252.95
871.73	19529.43
871.90	19316.44
872.07	19564.25
872.25	19021.53
872.42	18976.48
872.59	19140.32
872.77	19281.63
872.94	19066.59
873.11	19050.21
873.29	19144.41
873.46	18931.42
873.63	18857.70
873.81	18964.19
873.98	18919.14
874.15	19048.16
874.33	18607.84
874.50	18454.25
874.67	18806.50
874.85	18751.20
875.02	18779.87
875.19	18394.86
875.37	18380.52
875.54	18357.99
875.71	18513.64
875.88	18339.56
876.06	18583.27
876.23	18294.50
876.40	18423.53
876.58	18317.03
876.75	18009.84
876.92	18128.62
877.10	18116.33
877.27	18048.75
877.44	18276.07
877.61	18087.66
877.79	18181.87
877.96	17866.48
878.13	18167.53
878.31	17774.32
878.48	18038.51
878.65	17794.80
878.82	17608.44
879.00	17893.10
879.17	17815.28
879.34	17889.01
879.51	17809.14
879.69	17444.60
879.86	17637.11
880.03	17561.33
880.21	17348.34
880.38	17647.35
880.55	17633.01
880.72	17231.61
880.90	17469.17
881.07	17438.45
881.24	17321.72
881.41	17590.00
881.59	17432.31
881.76	17051.39
881.93	17262.33
882.10	16965.37
882.28	17061.63
882.45	17409.78
882.62	17125.11
882.79	17405.69
882.96	16846.59
883.14	17258.23
883.31	17131.26
883.48	16940.80
883.65	17080.06
883.83	17196.79
884.00	16869.12
884.17	16981.76
884.34	17112.83
884.51	16723.71
884.69	16922.37
884.86	16731.90
885.03	16834.30
885.20	16592.64
885.38	16905.98
885.55	16686.85
885.72	16680.71
885.89	16744.19
886.06	16779.01
886.24	16422.66
886.41	16432.90
886.58	16727.81
886.75	16953.09
886.92	16613.12
887.10	16832.26
887.27	16447.24
887.44	16518.92
887.61	16813.82
887.78	16629.51
887.95	16740.10
888.13	16437.00
888.30	16490.24
888.47	16490.24
888.64	16363.27
888.81	16357.13
888.99	16246.54
889.16	16148.23
889.33	16146.19
889.50	16154.38
889.67	16084.75
889.84	15744.78
890.01	16283.40
890.19	16152.33
890.36	16199.43
890.53	16201.48
890.70	15965.96
890.87	16201.48
891.04	15931.15
891.22	16015.12
891.39	16008.97
891.56	15810.32
891.73	15814.41
891.90	15826.70
892.07	15955.72
892.24	15804.17
892.42	15808.27
892.59	15662.86
892.76	15755.02
892.93	15605.52
893.10	15609.62
893.27	15458.07
893.44	15613.71
893.61	15558.42
893.79	15867.66
893.96	15537.94
894.13	15662.86
894.30	15671.06
894.47	15664.91
894.64	15746.83
894.81	15327.00
894.98	15521.56
895.15	15605.52
895.33	15324.95
895.50	15488.79
895.67	15671.06
895.84	15462.16
896.01	15552.27
896.18	15157.02
896.35	15695.63
896.52	15447.83
896.69	15566.61
896.86	15533.84
897.04	15564.56
897.21	15335.19
897.38	15458.07
897.55	15447.83
897.72	15615.76
897.89	15425.30
898.06	15525.65
898.23	15496.98
898.40	15421.20
898.57	15458.07
898.74	15468.31
898.91	15322.90
899.08	15466.26
899.26	15275.80
899.43	15286.04
899.60	15367.96
899.77	15161.11
899.94	15150.87
900.11	15216.41
900.28	15470.36
900.45	15511.32
900.62	15482.64
900.79	15392.53
900.96	15390.49
901.13	15378.20
901.30	15271.70
901.47	15372.05
901.64	15423.25
901.81	15144.73
901.98	15222.55
902.15	15394.58
902.32	15236.89
902.49	15281.94
902.66	15327.00
902.83	15290.13
903.01	15152.92
903.18	15238.94
903.35	15283.99
903.52	15013.66
903.69	15480.60
903.86	15689.49
904.03	15224.60
904.20	15271.70
904.37	15421.20
904.54	15288.09
904.71	15341.33
904.88	15324.95
905.05	15091.48
905.22	15509.27
905.39	15290.13
905.56	15144.73
905.73	15171.35
905.90	15372.05
906.07	15298.33
906.24	15243.03
906.41	15177.50
906.58	15441.68
906.75	15224.60
906.92	15089.43
907.09	15165.21
907.26	15314.71
907.43	15169.30
907.60	15185.69
907.77	15116.06
907.93	15257.37
908.10	15097.63
908.27	15283.99
908.44	15025.95
908.61	15083.29
908.78	15058.71
908.95	15331.09
909.12	14894.88
909.29	15064.86
909.46	15302.42
909.63	15085.34
909.80	15281.94
909.97	15312.66
910.14	15040.28
910.31	15302.42
910.48	15099.67
910.65	15060.76
910.82	14974.75
910.99	15015.71
911.16	15111.96
911.33	15197.98
911.50	15175.45
911.66	14935.84
911.83	15165.21
912.00	14755.61
912.17	14769.95
912.34	14733.09
912.51	14870.30
912.68	14761.76
912.85	14757.66
913.02	14728.99
913.19	14786.33
913.36	14765.85
913.53	14585.63
913.70	14473.00
913.86	14833.44
914.03	14489.38
914.20	14667.55
914.37	14642.98
914.54	14655.26
914.71	14513.95
914.88	14667.55
915.05	14532.39
915.22	14462.76
915.39	14401.32
915.55	14571.30
915.72	14298.92
915.89	14380.84
916.06	14161.70
916.23	14044.97
916.40	14260.01
916.57	13979.43
916.74	14126.89
916.91	14278.44
917.07	14012.20
917.24	13938.48
917.41	13889.32
917.58	13983.53
917.75	13856.56
917.92	13741.87
918.09	14051.11
918.26	13788.97
918.42	13846.32
918.59	14087.98
918.76	13584.18
918.93	13567.79
919.10	13475.63
919.27	13573.94
919.44	13637.42
919.60	13522.74
919.77	13614.90
919.94	13416.24
920.11	13373.24
920.28	13506.35
920.45	13485.87
920.61	13332.28
920.78	13326.13
920.95	13158.20
921.12	13117.24
921.29	13291.32
921.46	13109.05
921.62	13178.68
921.79	13117.24
921.96	13025.08
922.13	13031.23
922.30	12869.44
922.47	12816.19
922.63	12783.42
922.80	12707.65
922.97	12830.52
923.14	12435.27
923.31	12781.37
923.47	12447.55
923.64	12717.89
923.81	12500.80
923.98	12490.56
924.15	12369.73
924.32	12552.00
924.48	12398.40
924.65	12517.18
924.82	12140.36
924.99	12248.90
925.15	12136.26
925.32	12111.69
925.49	12019.53
925.66	12052.30
925.83	12035.91
925.99	11810.64
926.16	11818.83
926.33	11820.88
926.50	11587.41
926.67	11814.73
926.83	11786.06
927.00	11624.27
927.17	11556.69
927.34	11497.30
927.50	11466.58
927.67	11775.82
927.84	11525.97
928.01	11425.62
928.17	11104.09
928.34	11376.47
928.51	11239.25
928.68	11390.80
928.84	11161.43
929.01	11079.51
929.18	10901.34
929.35	11126.61
929.51	11005.78
929.68	10729.31
929.85	10889.05
930.02	11093.85
930.18	10798.94
930.35	10833.75
930.52	10647.39
930.69	10739.55
930.85	10622.81
931.02	10542.94
931.19	10639.20
931.36	10489.70
931.52	10653.53
931.69	10497.89
931.86	10430.30
932.02	10250.08
932.19	10250.08
932.36	10188.64
932.53	10413.92
932.69	10049.38
932.86	10209.12
933.03	10137.45
933.19	9924.46
933.36	9789.29
933.53	9928.55
933.70	9856.87
933.86	9981.80
934.03	9838.44
934.20	9750.38
934.36	9793.39
934.53	9414.51
934.70	9381.74
934.86	9531.25
935.03	9293.68
935.20	9209.72
935.36	9267.06
935.53	9078.65
935.70	9070.45
935.86	9125.75
936.03	8851.32
936.20	8902.52
936.36	8853.37
936.53	8841.08
936.70	8726.39
936.86	8683.39
937.03	8537.98
937.20	8365.95
937.36	8499.07
937.53	8232.83
937.70	8085.38
937.86	8021.89
938.03	8175.49
938.20	8277.89
938.36	7868.30
938.53	7825.29
938.70	7616.40
938.86	7759.75
939.03	7557.00
939.20	7643.02
939.36	7464.85
939.53	7327.63
939.70	7434.13
939.86	7161.75
940.03	7065.49
940.19	6991.77
940.36	7071.64
940.53	7157.65
940.69	6870.94
940.86	6721.43
941.03	6832.02
941.19	6498.20
941.36	6580.12
941.52	6614.94
941.69	6399.90
941.86	6410.14
942.02	6188.96
942.19	6317.98
942.35	6248.35
942.52	6160.29
942.69	6221.73
942.85	6111.14
943.02	5990.31
943.18	6010.79
943.35	5982.12
943.52	5818.28
943.68	5969.83
943.85	5887.91
944.01	5828.52
944.18	5820.33
944.35	5785.51
944.51	5771.18
944.68	5562.28
944.84	5613.48
945.01	5742.50
945.17	5525.42
945.34	5566.38
945.51	5539.76
945.67	5572.52
945.84	5541.80
946.00	5433.26
946.17	5570.48
946.33	5398.45
946.50	5550.00
946.67	5629.87
946.83	5515.18
947.00	5560.24
947.16	5466.03
947.33	5365.68
947.49	5523.37
947.66	5367.73
947.82	5433.26
947.99	5361.58
948.16	5404.59
948.32	5306.29
948.49	5502.89
948.65	5375.92
948.82	5355.44
948.98	5320.62
949.15	5437.36
949.31	5529.52
949.48	5588.91
949.64	5300.14
949.81	5402.54
949.97	5377.97
950.14	5447.60
950.30	5330.86
950.47	5500.84
950.63	5435.31
950.80	5470.12
950.96	5468.08
951.13	5494.70
951.30	5474.22
951.46	5437.36
951.63	5588.91
951.79	5408.69
951.96	5570.48
952.12	5519.28
952.29	5484.46
952.45	5377.97
952.62	5451.69
952.78	5558.19
952.94	5472.17
953.11	5500.84
953.27	5394.35
953.44	5730.22
953.60	5662.63
953.77	5633.96
953.93	5566.38
954.10	5513.13
954.26	5584.81
954.43	5484.46
954.59	5689.26
954.76	5676.97
954.92	5613.48
955.09	5613.48
955.25	5709.74
955.42	5554.09
955.58	5795.75
955.75	5627.82
955.91	5484.46
956.07	5695.40
956.24	5541.80
956.40	5496.75
956.57	5646.25
956.73	5498.80
956.90	5599.15
957.06	5590.95
957.23	5611.43
957.39	5613.48
957.56	5533.61
957.72	5676.97
957.88	5595.05
958.05	5699.50
958.21	5670.83
958.38	5574.57
958.54	5703.59
958.71	5724.07
958.87	5603.24
959.03	5601.19
959.20	5674.92
959.36	5603.24
959.53	5533.61
959.69	5578.67
959.85	5613.48
960.02	5474.22
960.18	5744.55
960.35	5590.95
960.51	5564.33
960.68	5615.53
960.84	5793.70
961.00	5693.35
961.17	5550.00
961.33	5629.87
961.50	5545.90
961.66	5640.11
961.82	5474.22
961.99	5588.91
962.15	5498.80
962.31	5521.32
962.48	5685.16
962.64	5676.97
962.81	5595.05
962.97	5603.24
963.13	5537.71
963.30	5463.98
963.46	5509.04
963.62	5556.14
963.79	5474.22
963.95	5484.46
964.12	5545.90
964.28	5695.40
964.44	5423.02
964.61	5541.80
964.77	5576.62
964.93	5582.76
965.10	5511.08
965.26	5525.42
965.42	5545.90
965.59	5539.76
965.75	5435.31
965.92	5533.61
966.08	5408.69
966.24	5513.13
966.41	5488.56
966.57	5482.41
966.73	5470.12
966.90	5480.36
967.06	5353.39
967.22	5380.01
967.39	5291.95
967.55	5377.97
967.71	5584.81
967.88	5418.93
968.04	5322.67
968.20	5296.05
968.37	5351.34
968.53	5246.90
968.69	5367.73
968.85	5357.49
969.02	5406.64
969.18	5337.01
969.34	5269.42
969.51	5263.28
969.67	5277.62
969.83	5259.18
970.00	5269.42
970.16	5230.51
970.32	5162.93
970.48	5320.62
970.65	5109.68
970.81	5205.94
970.97	5226.42
971.14	5111.73
971.30	5197.74
971.46	5150.64
971.63	5156.79
971.79	5212.08
971.95	5173.17
972.11	5031.86
972.28	5103.54
972.44	5050.29
972.60	5091.25
972.76	4999.09
972.93	5148.59
973.09	5078.96
973.25	5025.72
973.42	5078.96
973.58	5138.35
973.74	5089.20
973.90	4925.36
974.07	4964.28
974.23	5064.63
974.39	5105.59
974.55	4935.60
974.72	4951.99
974.88	4792.25
975.04	5007.28
975.20	5021.62
975.37	4945.84
975.53	4804.53
975.69	4931.51
975.85	4872.12
976.01	4857.78
976.18	4800.44
976.34	4798.39
976.50	4851.64
976.66	4872.12
976.83	4906.93
976.99	4870.07
977.15	4775.86
977.31	4614.07
977.47	4792.25
977.64	4706.23
977.80	4773.82
977.96	4771.77
978.12	4706.23
978.29	4757.43
978.45	4673.46
978.61	4685.75
978.77	4700.09
978.93	4597.69
979.10	4630.46
979.26	4720.57
979.42	4677.56
979.58	4523.96
979.74	4616.12
979.91	4646.84
980.07	4464.57
980.23	4593.59
980.39	4609.98
980.55	4495.29
980.71	4526.01
980.88	4544.44
981.04	4454.33
981.20	4517.82
981.36	4556.73
981.52	4505.53
981.68	4540.35
981.85	4491.20
982.01	4480.96
982.17	4474.81
982.33	4427.71
982.49	4538.30
982.65	4360.13
982.82	4382.65
982.98	4489.15
983.14	4446.14
983.30	4421.56
983.46	4360.13
983.62	4310.97
983.79	4241.34
983.95	4306.88
984.11	4231.10
984.27	4411.32
984.43	4192.19
984.59	4343.74
984.75	4229.06
984.91	4296.64
985.08	4310.97
985.24	4233.15
985.40	4274.11
985.56	4134.85
985.72	4288.45
985.88	4237.25
986.04	4241.34
986.20	4147.14
986.37	4216.77
986.53	4198.34
986.69	4218.82
986.85	4214.72
987.01	4130.75
987.17	4222.91
987.33	3981.25
987.49	4048.83
987.65	4175.81
987.82	4073.41
987.98	3960.77
988.14	4036.55
988.30	4214.72
988.46	4005.83
988.62	4024.26
988.78	4032.45
988.94	4028.35
989.10	4005.83
989.26	3917.76
989.42	3780.55
989.59	4026.31
989.75	3878.85
989.91	3872.71
990.07	3762.12
990.23	3952.58
990.39	3909.57
990.55	3995.59
990.71	3833.80
990.87	3848.13
991.03	3907.52
991.19	3792.84
991.35	3774.41
991.51	3925.96
991.67	3839.94
991.83	3805.13
992.00	3887.04
992.16	3825.61
992.32	3856.33
992.48	3780.55
992.64	3760.07
992.80	3721.16
992.96	3735.50
993.12	3839.94
993.28	3665.86
993.44	3831.75
993.60	3686.34
993.76	3825.61
993.92	3694.54
994.08	3702.73
994.24	3735.50
994.40	3651.53
994.56	3778.50
994.72	3624.90
994.88	3563.47
995.04	3702.73
995.20	3569.61
995.36	3624.90
995.52	3682.25
995.68	3715.02
995.84	3604.42
996.00	3694.54
996.16	3674.06
996.32	3493.83
996.48	3510.22
996.64	3659.72
996.80	3440.59
996.96	3497.93
997.12	3426.25
997.28	3499.98
997.44	3354.57
997.60	3493.83
997.76	3327.95
997.92	3499.98
998.08	3477.45
998.24	3356.62
998.40	3413.96
998.56	3518.41
998.72	3286.99
998.88	3428.30
999.04	3405.77
999.20	3411.92
999.36	3334.09
999.52	3473.36
999.68	3432.40
999.84	3440.59
1000.00	3385.29
1000.16	3430.35
1000.32	3420.11
1000.48	3420.11
1000.64	3309.52
1000.80	3215.31
1000.95	3215.31
1001.11	3264.46
1001.27	3164.11
1001.43	3223.50
1001.59	3258.32
1001.75	3162.06
1001.91	3301.33
1002.07	3330.00
1002.23	3196.88
1002.39	3131.34
1002.55	3147.73
1002.71	3215.31
1002.87	3243.98
1003.03	3203.02
1003.19	3114.96
1003.34	3254.22
1003.50	3207.12
1003.66	3203.02
1003.82	3196.88
1003.98	3057.62
1004.14	3102.67
1004.30	3080.14
1004.46	3098.58
1004.62	3065.81
1004.78	3069.91
1004.94	3098.58
1005.09	3180.50
1005.25	3141.58
1005.41	3010.51
1005.57	3117.01
1005.73	2975.70
1005.89	2906.07
1006.05	3080.14
1006.21	3039.19
1006.37	2957.27
1006.52	2975.70
1006.68	2955.22
1006.84	2987.99
1007.00	2893.78
1007.16	2977.75
1007.32	2949.08
1007.48	2961.36
1007.64	2942.93
1007.79	2971.60
1007.95	2869.20
1008.11	2926.55
1008.27	2811.86
1008.43	2971.60
1008.59	2881.49
1008.75	2940.88
1008.91	3012.56
1009.06	2840.53
1009.22	2887.64
1009.38	2922.45
1009.54	2787.29
1009.70	2844.63
1009.86	2754.52
1010.01	2830.29
1010.17	2740.18
1010.33	2815.96
1010.49	2840.53
1010.65	2820.05
1010.81	2686.94
1010.96	2762.71
1011.12	2727.89
1011.28	2756.57
1011.44	2832.34
1011.60	2734.04
1011.76	2676.70
1011.91	2783.19
1012.07	2633.69
1012.23	2609.11
1012.39	2656.22
1012.55	2750.42
1012.71	2688.98
1012.86	2695.13
1013.02	2678.74
1013.18	2547.67
1013.34	2656.22
1013.50	2613.21
1013.65	2664.41
1013.81	2508.76
1013.97	2703.32
1014.13	2688.98
1014.29	2648.02
1014.44	2695.13
1014.60	2682.84
1014.76	2693.08
1014.92	2559.96
1015.07	2588.63
1015.23	2682.84
1015.39	2494.43
1015.55	2574.30
1015.71	2582.49
1015.86	2508.76
1016.02	2504.67
1016.18	2392.03
1016.34	2576.34
1016.49	2549.72
1016.65	2609.11
1016.81	2512.86
1016.97	2529.24
1017.12	2611.16
1017.28	2385.88
1017.44	2416.60
1017.60	2383.84
1017.75	2490.33
1017.91	2437.08
1018.07	2498.52
1018.23	2582.49
1018.38	2402.27
1018.54	2365.40
1018.70	2504.67
1018.86	2473.95
1019.01	2473.95
1019.17	2441.18
1019.33	2480.09
1019.49	2424.80
1019.64	2432.99
1019.80	2385.88
1019.96	2527.19
1020.12	2549.72
1020.27	2351.07
1020.43	2455.51
1020.59	2398.17
1020.74	2502.62
1020.90	2371.55
1021.06	2308.06
1021.22	2424.80
1021.37	2351.07
1021.53	2332.64
1021.69	2357.21
1021.84	2293.72
1022.00	2353.12
1022.16	2301.92
1022.31	2332.64
1022.47	2439.13
1022.63	2346.97
1022.79	2312.16
1022.94	2328.54
1023.10	2406.36
1023.26	2318.30
1023.41	2291.68
1023.57	2297.82
1023.73	2301.92
1023.88	2238.43
1024.04	2207.71
1024.20	2269.15
1024.35	2291.68
1024.51	2318.30
1024.67	2312.16
1024.82	2332.64
1024.98	2207.71
1025.14	2242.53
1025.29	2213.85
1025.45	2285.53
1025.61	2172.89
1025.76	2211.81
1025.92	2154.46
1026.08	2295.77
1026.23	2240.48
1026.39	2193.37
1026.55	2230.24
1026.70	2076.64
1026.86	2183.13
1027.02	2213.85
1027.17	2279.39
1027.33	2162.66
1027.48	2109.41
1027.64	2193.37
1027.80	2097.12
1027.95	2162.66
1028.11	2052.06
1028.27	2138.08
1028.42	2207.71
1028.58	2193.37
1028.73	2084.83
1028.89	2107.36
1029.05	2230.24
1029.20	2133.98
>>>>>End Processed Spectral Data<<<<<
