SpectraSuite Data File
++++++++++++++++++++++++++++++++++++
Date: Fri Jun 02 14:52:28 CEST 2017
User: INFO_000
Dark Spectrum Present: No
Reference Spectrum Present: No
Number of Sampled Component Spectra: 1
Spectrometers: USB4H00879
Integration Time (usec): 80000 (USB4H00879)
Spectra Averaged: 1 (USB4H00879)
Boxcar Smoothing: 0 (USB4H00879)
Correct for Electrical Dark: No (USB4H00879)
Strobe/Lamp Enabled: No (USB4H00879)
Correct for Detector Non-linearity: No (USB4H00879)
Correct for Stray Light: No (USB4H00879)
Number of Pixels in Processed Spectrum: 3648
>>>>>Begin Processed Spectral Data<<<<<
345.13	1191.92
345.34	1191.92
345.56	1191.92
345.78	1269.74
345.99	1234.93
346.21	1703.91
346.42	1699.81
346.64	1685.48
346.86	1740.77
347.07	1710.05
347.29	1679.33
347.50	1597.42
347.72	1662.95
347.94	1683.43
348.15	1585.13
348.37	1689.57
348.59	1660.90
348.80	1630.18
349.02	1843.17
349.23	1896.42
349.45	1769.44
349.67	1908.71
349.88	1806.31
350.10	2019.30
350.31	1877.99
350.53	1832.93
350.75	2019.30
350.96	1800.16
351.18	1867.75
351.39	1882.08
351.61	1767.40
351.82	1923.04
352.04	1939.43
352.26	1906.66
352.47	1886.18
352.69	1830.88
352.90	1794.02
353.12	1920.99
353.34	1869.80
353.55	1914.85
353.77	1882.08
353.98	1902.56
354.20	1837.03
354.41	1961.95
354.63	1896.42
354.85	1990.63
355.06	1943.52
355.28	1771.49
355.49	1900.52
355.71	1912.80
355.92	1880.04
356.14	1945.57
356.35	1945.57
356.57	1865.70
356.79	1953.76
357.00	1947.62
357.22	1990.63
357.43	1818.60
357.65	2050.02
357.86	1875.94
358.08	1894.37
358.29	1906.66
358.51	2047.97
358.72	1939.43
358.94	1945.57
359.16	1943.52
359.37	1968.10
359.59	1959.91
359.80	1990.63
360.02	1966.05
360.23	1910.75
360.45	1951.71
360.66	1994.72
360.88	1933.28
361.09	1935.33
361.31	1957.86
361.52	1939.43
361.74	2013.15
361.95	2109.41
362.17	1910.75
362.38	2090.98
362.60	2111.46
362.81	2015.20
363.03	1943.52
363.24	1982.43
363.46	2140.13
363.67	2011.11
363.89	2064.35
364.10	2050.02
364.32	1988.58
364.53	2050.02
364.75	1937.38
364.96	2011.11
365.18	2066.40
365.39	2002.91
365.61	1906.66
365.82	2117.60
366.04	2101.22
366.25	1982.43
366.47	2074.59
366.68	2076.64
366.90	1953.76
367.11	2047.97
367.33	2088.93
367.54	2019.30
367.76	2099.17
367.97	2086.88
368.19	2095.07
368.40	2099.17
368.62	2052.06
368.83	1939.43
369.05	1974.24
369.26	2013.15
369.48	1929.19
369.69	2035.68
369.91	2004.96
370.12	2017.25
370.33	2148.32
370.55	1988.58
370.76	2070.50
370.98	2090.98
371.19	2039.78
371.41	1953.76
371.62	2013.15
371.84	2043.87
372.05	2158.56
372.27	2007.01
372.48	2107.36
372.69	2101.22
372.91	2107.36
373.12	2201.57
373.34	2060.26
373.55	2131.94
373.77	2123.74
373.98	2232.29
374.20	2179.04
374.41	2244.57
374.62	2181.09
374.84	2140.13
375.05	2158.56
375.27	2123.74
375.48	2105.31
375.70	2107.36
375.91	2166.75
376.12	2303.96
376.34	2154.46
376.55	2228.19
376.77	2258.91
376.98	2105.31
377.19	2195.42
377.41	2140.13
377.62	2164.70
377.84	2306.01
378.05	2349.02
378.27	2248.67
378.48	2260.96
378.69	2412.51
378.91	2336.73
379.12	2281.44
379.34	2254.81
379.55	2361.31
379.76	2301.92
379.98	2332.64
380.19	2250.72
380.41	2303.96
380.62	2332.64
380.83	2260.96
381.05	2109.41
381.26	2371.55
381.47	2236.38
381.69	2246.62
381.90	2422.75
382.12	2318.30
382.33	2297.82
382.54	2265.05
382.76	2258.91
382.97	2306.01
383.19	2297.82
383.40	2385.88
383.61	2277.34
383.83	2230.24
384.04	2422.75
384.25	2430.94
384.47	2437.08
384.68	2389.98
384.89	2250.72
385.11	2400.22
385.32	2346.97
385.54	2494.43
385.75	2428.89
385.96	2428.89
386.18	2465.75
386.39	2486.23
386.60	2432.99
386.82	2553.82
387.03	2453.47
387.24	2498.52
387.46	2492.38
387.67	2547.67
387.88	2486.23
388.10	2484.19
388.31	2539.48
388.52	2502.62
388.74	2506.71
388.95	2547.67
389.16	2539.48
389.38	2533.34
389.59	2723.80
389.80	2656.22
390.02	2578.39
390.23	2615.26
390.44	2557.91
390.66	2619.35
390.87	2519.00
391.08	2660.31
391.30	2678.74
391.51	2645.98
391.72	2807.77
391.94	2744.28
392.15	2562.01
392.36	2746.33
392.58	2670.55
392.79	2725.85
393.00	2662.36
393.22	2787.29
393.43	2846.68
393.64	2832.34
393.85	2832.34
394.07	2559.96
394.28	2772.95
394.49	2856.92
394.71	2787.29
394.92	2785.24
395.13	2740.18
395.35	2731.99
395.56	2861.01
395.77	2822.10
395.98	2901.97
396.20	2940.88
396.41	2959.31
396.62	2949.08
396.84	2727.89
397.05	2908.12
397.26	2891.73
397.47	2918.36
397.69	2838.48
397.90	3080.14
398.11	2930.64
398.32	3020.75
398.54	2955.22
398.75	2924.50
398.96	2899.92
399.18	3065.81
399.39	3033.04
399.60	3086.29
399.81	3002.32
400.03	3053.52
400.24	3309.52
400.45	2971.60
400.66	3063.76
400.88	3119.06
401.09	3219.41
401.30	3018.71
401.51	3157.97
401.73	3188.69
401.94	3272.65
402.15	3223.50
402.36	3219.41
402.58	3162.06
402.79	3196.88
403.00	3211.22
403.21	3248.08
403.43	3205.07
403.64	3229.65
403.85	3196.88
404.06	3192.78
404.27	3225.55
404.49	3172.30
404.70	3174.35
404.91	3282.89
405.12	3223.50
405.34	3256.27
405.55	3356.62
405.76	3114.96
405.97	3170.26
406.19	3438.54
406.40	3207.12
406.61	3334.09
406.82	3391.44
407.03	3381.20
407.25	3229.65
407.46	3499.98
407.67	3438.54
407.88	3461.07
408.09	3428.30
408.31	3403.72
408.52	3524.55
408.73	3342.28
408.94	3483.59
409.15	3442.64
409.37	3536.84
409.58	3440.59
409.79	3522.51
410.00	3626.95
410.21	3553.23
410.43	3567.56
410.64	3368.91
410.85	3616.71
411.06	3469.26
411.27	3631.05
411.48	3676.10
411.70	3547.08
411.91	3629.00
412.12	3749.83
412.33	3618.76
412.54	3690.44
412.76	3823.56
412.97	3651.53
413.18	3680.20
413.39	3774.41
413.60	3766.21
413.81	3692.49
414.03	3643.34
414.24	3663.82
414.45	3860.42
414.66	3715.02
414.87	3727.30
415.08	3782.60
415.30	3733.45
415.51	3882.95
415.72	3958.72
415.93	3805.13
416.14	3907.52
416.35	3860.42
416.56	3850.18
416.78	3936.20
416.99	3991.49
417.20	3973.06
417.41	3954.63
417.62	3950.53
417.83	4018.11
418.04	4048.83
418.26	3858.37
418.47	3915.72
418.68	3973.06
418.89	3997.64
419.10	4157.38
419.31	3950.53
419.52	4106.18
419.73	4100.03
419.95	4134.85
420.16	4034.50
420.37	4165.57
420.58	4112.32
420.79	3966.92
421.00	4079.55
421.21	4267.97
421.42	4067.27
421.63	4222.91
421.85	4294.59
422.06	4421.56
422.27	4235.20
422.48	4200.38
422.69	4296.64
422.90	4200.38
423.11	4386.75
423.32	4378.56
423.53	4444.09
423.75	4290.49
423.96	4394.94
424.17	4433.85
424.38	4503.48
424.59	4353.98
424.80	4755.38
425.01	4550.59
425.22	4521.92
425.43	4483.00
425.64	4724.66
425.85	4784.06
426.06	4612.03
426.28	4628.41
426.49	4509.63
426.70	4550.59
426.91	4550.59
427.12	4792.25
427.33	4802.49
427.54	4710.33
427.75	4863.93
427.96	4968.37
428.17	4849.59
428.38	5001.14
428.59	4786.10
428.80	4945.84
429.01	5095.35
429.23	4941.75
429.44	5105.59
429.65	5189.55
429.86	5205.94
430.07	5005.24
430.28	5005.24
430.49	5056.43
430.70	5216.18
430.91	5246.90
431.12	5148.59
431.33	5220.27
431.54	5238.70
431.75	5158.83
431.96	5312.43
432.17	5177.26
432.38	5187.50
432.59	5558.19
432.80	5382.06
433.01	5461.93
433.22	5449.64
433.43	5416.88
433.64	5349.29
433.85	5367.73
434.06	5406.64
434.27	5490.60
434.49	5484.46
434.70	5463.98
434.91	5451.69
435.12	5588.91
435.33	5687.21
435.54	5590.95
435.75	5400.49
435.96	5603.24
436.17	5425.07
436.38	5734.31
436.59	5705.64
436.80	5756.84
437.01	5842.85
437.22	5957.54
437.43	5793.70
437.64	5670.83
437.85	5916.58
438.06	5773.22
438.27	5836.71
438.48	5935.01
438.69	5943.21
438.90	5859.24
439.11	5857.19
439.32	5873.57
439.53	5787.56
439.74	6041.51
439.95	5844.90
440.16	5920.68
440.37	5988.26
440.57	5808.04
440.78	5961.64
440.99	6092.71
441.20	6123.43
441.41	5810.09
441.62	6025.12
441.83	5943.21
442.04	6299.55
442.25	6148.00
442.46	6123.43
442.67	6270.88
442.88	6549.40
443.09	6252.45
443.30	6197.15
443.51	6238.11
443.72	6539.16
443.93	6252.45
444.14	6498.20
444.35	6145.95
444.56	6420.38
444.77	6408.09
444.98	6393.76
445.19	6539.16
445.40	6420.38
445.61	6512.54
445.81	6705.05
446.02	6578.08
446.23	6420.38
446.44	6293.41
446.65	6420.38
446.86	6502.30
447.07	6733.72
447.28	6858.65
447.49	6832.02
447.70	6606.75
447.91	6719.39
448.12	6729.63
448.33	6817.69
448.54	6764.44
448.74	6868.89
448.95	6817.69
449.16	6809.50
449.37	7085.97
449.58	6961.05
449.79	7155.60
450.00	6795.16
450.21	7016.34
450.42	7262.10
450.63	7071.64
450.84	7020.44
451.05	7073.68
451.25	7061.40
451.46	7073.68
451.67	7329.68
451.88	7290.77
452.09	7356.30
452.30	7210.90
452.51	7327.63
452.72	7333.78
452.93	7567.24
453.13	7274.38
453.34	7286.67
453.55	7389.07
453.76	7444.37
453.97	7858.06
454.18	7583.63
454.39	7618.44
454.60	7587.72
454.81	7618.44
455.01	7735.18
455.22	7618.44
455.43	7636.88
455.64	7763.85
455.85	7808.90
456.06	8023.94
456.27	7884.68
456.48	7892.87
456.68	7888.78
456.89	8134.53
457.10	8007.56
457.31	8152.96
457.52	8023.94
457.73	8195.97
457.94	8466.30
458.14	8198.02
458.35	8494.97
458.56	8322.94
458.77	8257.41
458.98	8392.58
459.19	8417.15
459.39	8417.15
459.60	8699.77
459.81	8451.97
460.02	8777.59
460.23	8755.07
460.44	8879.99
460.65	8802.17
460.85	8816.51
461.06	9052.02
461.27	8560.51
461.48	9090.93
461.69	9168.76
461.89	8826.75
462.10	8986.49
462.31	8896.38
462.52	9029.49
462.73	8966.01
462.94	9250.67
463.14	9277.30
463.35	9166.71
463.56	9588.59
463.77	9461.62
463.98	9355.12
464.18	9545.58
464.39	9469.81
464.60	9791.34
464.81	9727.85
465.02	9535.34
465.23	9908.07
465.43	9754.48
465.64	10168.16
465.85	10045.29
466.06	9783.15
466.27	10114.92
466.47	10006.38
466.68	10139.49
466.89	10096.49
467.10	10362.72
467.30	10043.24
467.51	10334.05
467.72	10714.97
467.93	10176.36
468.14	10526.56
468.34	10647.39
468.55	10645.34
468.76	10770.27
468.97	10614.62
469.17	11097.94
469.38	10915.67
469.59	11118.42
469.80	11018.07
470.01	11038.55
470.21	11050.84
470.42	11290.45
470.63	11388.75
470.84	11315.03
471.04	11398.99
471.25	11556.69
471.46	11704.14
471.67	11867.98
471.87	11679.57
472.08	11882.31
472.29	12171.08
472.50	11661.13
472.70	12013.38
472.91	11794.25
473.12	12257.09
473.33	11978.57
473.53	12322.63
473.74	12476.23
473.95	12449.60
474.16	12592.96
474.36	12484.42
474.57	12629.82
474.78	12830.52
474.99	12920.63
475.19	12730.17
475.40	13072.18
475.61	13176.63
475.81	13494.07
476.02	13555.51
476.23	13283.13
476.44	13334.32
476.64	13625.14
476.85	13954.86
477.06	13651.76
477.27	14130.98
477.47	14001.96
477.68	13975.34
477.89	14223.14
478.09	14106.41
478.30	14167.85
478.51	14511.91
478.71	14501.67
478.92	14636.83
479.13	14618.40
479.34	14800.67
479.54	14806.81
479.75	14755.61
479.96	14995.23
480.16	14984.99
480.37	15240.98
480.58	15458.07
480.78	15965.96
480.99	15335.19
481.20	15845.13
481.41	15513.36
481.61	15951.63
481.82	16002.83
482.03	15980.30
482.23	15916.81
482.44	16213.77
482.65	16385.80
482.85	16551.68
483.06	16291.59
483.27	16670.47
483.47	16434.95
483.68	16822.02
483.89	16932.61
484.09	16768.77
484.30	16854.78
484.51	17415.93
484.71	17223.42
484.92	17252.09
485.13	17442.55
485.33	17284.86
485.54	17295.10
485.75	17749.75
485.95	17645.30
486.16	17690.35
486.37	17921.77
486.57	17983.21
486.78	18046.70
486.98	17975.02
487.19	18321.13
487.40	18468.58
487.60	18052.84
487.81	18456.29
488.02	18464.49
488.22	18484.97
488.43	18867.94
488.64	18843.36
488.84	18980.57
489.05	19396.31
489.25	18980.57
489.46	19263.19
489.67	19271.39
489.87	19408.60
490.08	19535.57
490.29	19470.04
490.49	19844.82
490.70	19922.64
490.90	19904.21
491.11	19867.34
491.32	20063.95
491.52	20084.43
491.73	20043.47
491.94	20231.88
492.14	20186.83
492.35	20330.19
492.55	20657.86
492.76	20805.31
492.97	20797.12
493.17	20741.83
493.38	21012.16
493.58	20991.68
493.79	21032.64
494.00	21051.07
494.20	21421.75
494.41	21401.27
494.61	21532.34
494.82	21630.65
495.02	21415.61
495.23	21548.73
495.44	21800.63
495.64	21911.22
495.85	21857.97
496.05	22034.10
496.26	22027.95
496.47	22376.11
496.67	21958.32
496.88	22331.05
497.08	22197.93
497.29	22671.01
497.49	22316.72
497.70	22812.32
497.91	22554.28
498.11	22976.16
498.32	23070.37
498.52	23301.79
498.73	23406.23
498.93	22873.76
499.14	23146.14
499.34	23248.54
499.55	23496.35
499.76	23031.46
499.96	23684.76
500.17	23619.22
500.37	23795.35
500.58	23436.95
500.78	23549.59
500.99	23649.94
501.19	23979.67
501.40	23924.37
501.60	23795.35
501.81	23887.51
502.02	24184.46
502.22	24063.63
502.43	24295.05
502.63	24559.24
502.84	24438.41
503.04	24516.23
503.25	24346.25
503.45	24782.47
503.66	24790.66
503.86	24643.21
504.07	24850.05
504.27	24997.51
504.48	24917.64
504.68	24915.59
504.89	25521.79
505.09	25280.13
505.30	25009.79
505.50	25235.07
505.71	25609.85
505.91	25458.30
506.12	25671.29
506.32	25499.26
506.53	25671.29
506.73	25689.72
506.94	26076.79
507.14	25677.43
507.35	26119.79
507.55	26082.93
507.76	26048.11
507.96	25945.72
508.17	26076.79
508.37	26308.21
508.58	26334.83
508.78	26406.51
508.99	26642.03
509.19	26226.29
509.40	26388.08
509.60	26302.06
509.81	26402.41
510.01	26715.75
510.22	26586.73
510.42	26793.58
510.63	26750.57
510.83	26969.70
511.04	26984.04
511.24	27131.49
511.44	27154.02
511.65	26945.12
511.85	27264.61
512.06	26949.22
512.26	27317.86
512.47	27436.64
512.67	27205.22
512.88	27422.30
513.08	27266.66
513.29	27526.75
513.49	27512.41
513.69	27827.80
513.90	27852.38
514.10	27944.53
514.31	27733.59
514.51	27827.80
514.72	27821.66
514.92	28145.23
515.13	27946.58
515.33	28264.02
515.53	28147.28
515.74	28112.47
515.94	28161.62
516.15	28304.98
516.35	28225.11
516.56	28491.34
516.76	28468.81
516.96	28649.03
517.17	28511.82
517.37	28423.76
517.58	28474.96
517.78	28958.28
517.99	28689.99
518.19	29056.58
518.39	28991.05
518.60	29556.28
518.80	29075.01
519.01	29122.12
519.21	29384.26
519.41	29562.43
519.62	29146.69
519.82	29634.11
520.03	29652.54
520.23	29974.07
520.43	29548.09
520.64	29630.01
520.84	29531.71
521.05	29822.52
521.25	30305.84
521.45	30127.67
521.66	30414.38
521.86	30055.99
522.07	30262.83
522.27	30430.77
522.47	30170.68
522.68	30547.50
522.88	30324.27
523.08	30883.37
523.29	30717.48
523.49	30891.56
523.70	31067.69
523.90	30946.86
524.10	30770.73
524.31	31153.70
524.51	31024.68
524.71	31528.48
524.92	31159.84
525.12	31774.24
525.33	31671.84
525.53	31688.22
525.73	31774.24
525.94	31985.18
526.14	31938.07
526.34	32157.21
526.55	32210.45
526.75	32130.58
526.95	32531.98
527.16	32286.23
527.36	32298.52
527.56	32581.13
527.77	32474.64
527.97	32607.76
528.17	32605.71
528.38	32873.99
528.58	32849.42
528.78	33031.69
528.99	32910.86
529.19	33377.79
529.39	32599.57
529.60	33412.61
529.80	33351.17
530.00	33125.89
530.21	33928.70
530.41	33730.05
530.61	33451.52
530.82	34035.19
531.02	33977.85
531.22	34239.99
531.43	34092.54
531.63	34065.91
531.83	34217.46
532.04	34643.44
532.24	34309.62
532.44	34850.28
532.64	34846.19
532.85	35274.21
533.05	34973.16
533.25	35151.34
533.46	34948.59
533.66	35210.73
533.86	35173.86
534.07	35575.27
534.27	35493.35
534.47	35558.88
534.67	35677.66
534.88	35493.35
535.08	35655.14
535.28	35929.56
535.49	35681.76
535.69	36390.36
535.89	36419.03
536.09	36503.00
536.30	36527.57
536.50	36496.85
536.70	36791.76
536.91	36507.09
537.11	36681.17
537.31	37125.58
537.51	36722.13
537.72	37187.02
537.92	37199.30
538.12	37393.86
538.32	37017.04
538.53	37627.33
538.73	37217.74
538.93	37348.81
539.13	37498.31
539.34	37346.76
539.54	37344.71
539.74	37590.47
539.94	37828.03
540.15	37598.66
540.35	38026.68
540.55	38297.02
540.75	38151.61
540.96	38321.59
541.16	38049.21
541.36	38522.29
541.56	38559.16
541.77	38954.41
541.97	38579.64
542.17	38866.35
542.37	38782.38
542.58	38845.87
542.78	38571.44
542.98	39056.81
543.18	39206.31
543.38	39468.45
543.59	39318.95
543.79	39026.09
543.99	39701.92
544.19	39304.62
544.40	39245.23
544.60	39445.93
544.80	39583.14
545.00	39765.41
545.20	39916.96
545.41	39761.31
545.61	39710.11
545.81	40244.63
546.01	40060.32
546.21	39771.55
546.42	39900.58
546.62	40224.15
546.82	39839.14
547.02	40091.04
547.22	40431.00
547.43	40187.29
547.63	40254.87
547.83	40543.64
548.03	40013.21
548.23	40687.00
548.44	40467.86
548.64	40842.64
548.84	40854.93
549.04	40416.66
549.24	40904.08
549.45	41051.53
549.65	40850.83
549.85	40693.14
550.05	41252.23
550.25	41051.53
550.45	41565.57
550.66	41475.46
550.86	41149.84
551.06	41590.15
551.26	41045.39
551.46	41459.08
551.66	41584.01
551.87	41303.43
552.07	41688.45
552.27	41596.29
552.47	41917.82
552.67	42091.90
552.87	42044.80
553.07	41958.78
553.28	41917.82
553.48	41987.46
553.68	41596.29
553.88	41989.50
554.08	42190.20
554.28	41930.11
554.48	42282.36
554.69	42233.21
554.89	42247.55
555.09	42456.44
555.29	42384.76
555.49	42388.86
555.69	42456.44
555.89	42433.91
556.10	42728.82
556.30	42392.95
556.50	42685.81
556.70	42663.28
556.90	42669.43
557.10	43122.03
557.30	42505.59
557.50	42718.58
557.70	42995.06
557.91	43345.26
558.11	43017.58
558.31	42909.04
558.51	42904.95
558.71	42861.94
558.91	43144.56
559.11	42700.15
559.31	42980.72
559.51	43058.54
559.72	43361.64
559.92	43232.62
560.12	43064.69
560.32	43283.82
560.52	43478.38
560.72	43513.19
560.92	43650.41
561.12	43326.83
561.32	43969.89
561.52	43109.74
561.72	43820.39
561.93	43177.33
562.13	43500.90
562.33	43287.92
562.53	43873.63
562.73	43517.29
562.93	43498.86
563.13	43734.37
563.33	43732.32
563.53	43791.72
563.73	43668.84
563.93	43808.10
564.13	44275.04
564.33	43672.93
564.53	43799.91
564.74	44232.03
564.94	43435.37
565.14	43902.31
565.34	44270.94
565.54	44381.53
565.74	44295.52
565.94	44287.32
566.14	44483.93
566.34	44299.61
566.54	44463.45
566.74	44156.25
566.94	44490.07
567.14	44916.05
567.34	44432.73
567.54	44619.10
567.74	44463.45
567.94	44617.05
568.14	44950.87
568.34	44852.56
568.54	44930.39
568.74	44981.59
568.94	44948.82
569.14	45186.38
569.34	45270.35
569.54	44803.41
569.75	44938.58
569.95	45124.94
570.15	45507.91
570.35	45425.99
570.55	44991.83
570.75	45434.19
570.95	45307.21
571.15	44938.58
571.35	45387.08
571.55	45561.16
571.75	45434.19
571.95	45483.34
572.15	45016.40
572.35	45530.44
572.55	45622.60
572.75	45229.39
572.95	45892.93
573.15	45768.01
573.35	45757.77
573.55	45757.77
573.75	45509.96
573.95	46249.28
574.15	45800.77
574.35	46249.28
574.55	46009.67
574.75	46048.58
574.95	46081.34
575.15	46130.50
575.34	46308.67
575.54	46290.24
575.74	46392.64
575.94	46110.02
576.14	46144.83
576.34	46697.78
576.54	46650.68
576.74	46748.98
576.94	46703.93
577.14	46619.96
577.34	46978.36
577.54	46540.09
577.74	47082.80
577.94	46611.77
578.14	46949.68
578.34	47125.81
578.54	46738.74
578.74	46736.69
578.94	46972.21
579.14	46955.83
579.34	47000.88
579.54	47381.80
579.74	47641.90
579.94	47082.80
580.13	47439.15
580.33	47453.48
580.53	47590.70
580.73	47928.61
580.93	47336.75
581.13	47512.88
581.33	47723.82
581.53	47985.96
581.73	48303.39
581.93	48225.57
582.13	47885.61
582.33	47912.23
582.53	48026.92
582.73	48444.70
582.92	48456.99
583.12	48555.29
583.32	48293.15
583.52	48526.62
583.72	48594.20
583.92	48487.71
584.12	48612.63
584.32	48930.07
584.52	48805.14
584.72	48749.85
584.92	48518.43
585.11	48850.20
585.31	48848.15
585.51	49276.18
585.71	48710.94
585.91	49769.74
586.11	49001.75
586.31	49464.59
586.51	48710.94
586.71	49304.85
586.91	49648.91
587.10	49448.21
587.30	49585.42
587.50	49587.47
587.70	49560.84
587.90	49499.40
588.10	49532.17
588.30	49693.96
588.50	49919.24
588.69	49528.08
588.89	49734.92
589.09	49730.83
589.29	50109.70
589.49	50279.68
589.69	49632.52
589.89	50091.27
590.08	50115.84
590.28	49868.04
590.48	50162.95
590.68	50009.35
590.88	50248.96
591.08	49943.81
591.28	50154.75
591.47	50187.52
591.67	50601.21
591.87	50377.98
592.07	50332.93
592.27	51008.76
592.47	50701.56
592.67	51090.68
592.86	50728.19
593.06	50873.59
593.26	51250.42
593.46	50787.58
593.66	51252.47
593.86	50953.46
594.05	51311.86
594.25	51602.67
594.45	51086.58
594.65	51332.34
594.85	50953.46
595.05	51567.85
595.24	51662.06
595.44	51600.62
595.64	51461.36
595.84	51664.11
596.04	51379.44
596.23	51739.88
596.43	51842.28
596.63	51600.62
596.83	52022.50
597.03	52229.35
597.22	52387.04
597.42	52036.84
597.62	52098.28
597.82	52032.74
598.02	51909.86
598.21	52237.54
598.41	52221.16
598.61	52483.30
598.81	52100.32
599.01	52360.42
599.20	52399.33
599.40	52655.32
599.60	52618.46
599.80	52565.21
600.00	52505.82
600.19	53142.74
600.39	53023.96
600.59	52724.96
600.79	52616.41
600.98	52724.96
601.18	53314.77
601.38	53331.15
601.58	53138.65
601.78	53388.50
601.97	53116.12
602.17	53834.95
602.37	53404.88
602.57	53081.30
602.76	53511.38
602.96	53322.96
603.16	53791.95
603.36	53712.08
603.55	53982.41
603.75	53796.04
603.95	53949.64
604.15	53748.94
604.34	53976.26
604.54	54305.99
604.74	53939.40
604.94	54392.00
605.13	54109.38
605.33	54412.48
605.53	54107.33
605.73	54312.13
605.92	54109.38
606.12	54680.77
606.32	54490.30
606.52	54817.98
606.71	54240.45
606.91	54891.71
607.11	54416.58
607.30	54932.67
607.50	55170.23
607.70	54553.79
607.90	54637.76
608.09	54961.34
608.29	54754.49
608.49	55157.94
608.68	55159.99
608.88	55133.37
609.08	55364.79
609.28	55264.44
609.47	55458.99
609.67	55604.40
609.87	54944.95
610.06	55622.83
610.26	55227.57
610.46	55852.20
610.66	55401.65
610.85	55612.59
611.05	55520.43
611.25	55465.14
611.44	55352.50
611.64	55577.78
611.84	55231.67
612.03	55424.18
612.23	55620.78
612.43	55215.29
612.62	55397.55
612.82	55749.81
613.02	55487.67
613.21	55399.60
613.41	55444.66
613.61	55960.75
613.80	55297.20
614.00	55907.50
614.20	55508.14
614.39	55540.91
614.59	55970.99
614.79	55696.56
614.98	55714.99
615.18	55553.20
615.38	55860.40
615.57	55626.93
615.77	55925.93
615.97	55979.18
616.16	55690.41
616.36	56126.63
616.56	56341.67
616.75	55743.66
616.95	56009.90
617.15	56257.70
617.34	55876.78
617.54	55876.78
617.74	56229.03
617.93	55958.70
618.13	55608.50
618.32	55960.75
618.52	55483.57
618.72	56198.31
618.91	55862.44
619.11	55399.60
619.31	56046.76
619.50	55903.40
619.70	55559.34
619.90	56087.72
620.09	55346.36
620.29	55827.63
620.48	55755.95
620.68	55823.53
620.88	55542.96
621.07	55960.75
621.27	55798.96
621.46	55696.56
621.66	56054.95
621.86	56163.50
622.05	55317.68
622.25	56169.64
622.44	55551.15
622.64	55139.51
622.84	56063.14
623.03	55723.18
623.23	55678.13
623.42	56376.48
623.62	55952.55
623.82	56171.69
624.01	55846.06
624.21	55694.51
624.40	55809.20
624.60	55708.85
624.80	55588.02
624.99	55620.78
625.19	55571.63
625.38	55876.78
625.58	56300.71
625.77	56009.90
625.97	55911.59
626.17	55438.51
626.36	55741.61
626.56	55620.78
626.75	55065.78
626.95	56267.94
627.14	55743.66
627.34	56253.61
627.54	55590.06
627.73	55641.26
627.93	56042.66
628.12	55792.81
628.32	56052.90
628.51	55792.81
628.71	55862.44
628.90	55788.72
629.10	55645.36
629.30	55579.82
629.49	55846.06
629.69	55678.13
629.88	55626.93
630.08	56054.95
630.27	55887.02
630.47	55686.32
630.66	55610.54
630.86	55897.26
631.05	54901.95
631.25	55895.21
631.44	56007.85
631.64	55764.14
631.84	55911.59
632.03	56186.02
632.23	55592.11
632.42	56255.65
632.62	55897.26
632.81	55721.13
633.01	55997.61
633.20	55874.73
633.40	56138.92
633.59	56075.43
633.79	55643.31
633.98	56157.35
634.18	56016.04
634.37	55901.36
634.57	56161.45
634.76	55930.03
634.96	55829.68
635.15	55991.47
635.35	55841.96
635.54	55751.85
635.74	55887.02
635.93	55471.28
636.13	55977.13
636.32	56218.79
636.52	55731.37
636.71	55813.29
636.91	56190.12
637.10	55690.41
637.30	55938.22
637.49	56050.86
637.69	56050.86
637.88	56448.16
638.08	55506.10
638.27	55778.48
638.46	55989.42
638.66	55964.84
638.85	55889.07
639.05	56020.14
639.24	56317.09
639.44	55833.77
639.63	55823.53
639.83	56171.69
640.02	55698.61
640.22	55915.69
640.41	56210.60
640.61	55483.57
640.80	56333.48
640.99	56061.10
641.19	56159.40
641.38	56192.17
641.58	55923.88
641.77	55909.55
641.97	55780.52
642.16	56100.01
642.36	56073.38
642.55	56235.17
642.74	55415.99
642.94	56319.14
643.13	55637.17
643.33	55813.29
643.52	56306.85
643.72	56521.89
643.91	56079.53
644.10	56366.24
644.30	56294.56
644.49	56317.09
644.69	56456.35
644.88	56800.41
645.08	56366.24
645.27	55901.36
645.46	55692.46
645.66	56482.98
645.85	55962.79
646.05	56296.61
646.24	55973.03
646.43	56245.41
646.63	56356.00
646.82	56693.92
647.02	56288.42
647.21	56816.80
647.40	56210.60
647.60	56638.62
647.79	56202.41
647.99	56724.64
648.18	56319.14
648.37	56779.93
648.57	56630.43
648.76	56458.40
648.96	56325.28
649.15	57119.90
649.34	56784.03
649.54	56437.92
649.73	56241.32
649.92	56456.35
650.12	56333.48
650.31	56710.30
650.51	56523.94
650.70	56902.81
650.89	56712.35
651.09	56962.20
651.28	56317.09
651.47	56698.01
651.67	56788.13
651.86	57187.48
652.06	56118.44
652.25	56556.70
652.44	56667.30
652.64	56603.81
652.83	56317.09
653.02	56292.52
653.22	56380.58
653.41	56362.15
653.60	56509.60
653.80	56196.26
653.99	56648.86
654.18	56491.17
654.38	56880.28
654.57	56736.93
654.76	56618.14
654.96	56902.81
655.15	56630.43
655.34	56489.12
655.54	56669.34
655.73	56736.93
655.92	56702.11
656.12	56988.83
656.31	56693.92
656.50	56573.09
656.70	56943.77
656.89	56642.72
657.08	56773.79
657.28	56515.75
657.47	56796.32
657.66	56755.36
657.86	56517.79
658.05	56667.30
658.24	57271.45
658.43	56480.93
658.63	56888.48
658.82	56771.74
659.01	57097.37
659.21	56638.62
659.40	56960.15
659.59	56349.86
659.79	56788.13
659.98	56638.62
660.17	56769.69
660.36	56775.84
660.56	57132.18
660.75	57009.31
660.94	57132.18
661.14	56761.50
661.33	56333.48
661.52	56370.34
661.71	56933.53
661.91	56587.42
662.10	56104.10
662.29	57152.66
662.49	56517.79
662.68	56534.18
662.87	56796.32
663.06	56798.37
663.26	56820.89
663.45	56997.02
663.64	56974.49
663.83	57197.72
664.03	56964.25
664.22	56917.15
664.41	56777.89
664.60	56941.72
664.80	56730.78
664.99	56646.82
665.18	56765.60
665.37	56562.85
665.57	57179.29
665.76	56407.20
665.95	56820.89
666.14	56972.44
666.34	57044.12
666.53	56898.72
666.72	56888.48
666.91	56409.25
667.11	56784.03
667.30	56638.62
667.49	56493.22
667.68	56665.25
667.87	56892.57
668.07	57058.46
668.26	56892.57
668.45	56951.96
668.64	56384.68
668.84	57332.89
669.03	56849.56
669.22	56751.26
669.41	56974.49
669.60	56941.72
669.80	56331.43
669.99	57287.83
670.18	57140.38
670.37	56943.77
670.57	56978.59
670.76	56853.66
670.95	57197.72
671.14	56917.15
671.33	56943.77
671.53	57269.40
671.72	57171.10
671.91	56892.57
672.10	56636.58
672.29	57146.52
672.48	56560.80
672.68	57717.90
672.87	56759.45
673.06	56702.11
673.25	56677.54
673.44	57201.82
673.64	56771.74
673.83	56759.45
674.02	56812.70
674.21	56579.23
674.40	56353.96
674.59	56296.61
674.79	56448.16
674.98	56568.99
675.17	56573.09
675.36	56513.70
675.55	56925.34
675.74	56507.55
675.94	56743.07
676.13	56911.00
676.32	57226.39
676.51	56865.95
676.70	57070.75
676.89	56915.10
677.08	57572.50
677.28	56460.45
677.47	56964.25
677.66	56829.08
677.85	56487.07
678.04	56665.25
678.23	56818.84
678.42	56788.13
678.62	56364.20
678.81	56612.00
679.00	56724.64
679.19	57216.15
679.38	56882.33
679.57	56568.99
679.76	56712.35
679.96	57083.03
680.15	56818.84
680.34	56556.70
680.53	55893.16
680.72	56628.38
680.91	56677.54
681.10	56198.31
681.29	56781.98
681.48	56411.30
681.68	56292.52
681.87	56423.59
682.06	56726.69
682.25	55927.98
682.44	56587.42
682.63	56698.01
682.82	56257.70
683.01	56222.89
683.20	55923.88
683.39	56360.10
683.59	56208.55
683.78	56198.31
683.97	55618.74
684.16	56192.17
684.35	55848.11
684.54	55882.92
684.73	56251.56
684.92	55633.07
685.11	56138.92
685.30	55647.41
685.49	56366.24
685.69	56112.30
685.88	56505.51
686.07	56106.15
686.26	56042.66
686.45	56560.80
686.64	56437.92
686.83	55958.70
687.02	56296.61
687.21	56132.78
687.40	56175.78
687.59	56007.85
687.78	56319.14
687.97	55901.36
688.16	55870.64
688.35	55913.64
688.54	55858.35
688.74	56173.73
688.93	55907.50
689.12	55723.18
689.31	56095.91
689.50	55923.88
689.69	55561.39
689.88	55356.60
690.07	55911.59
690.26	55932.07
690.45	56259.75
690.64	55895.21
690.83	55657.65
691.02	55678.13
691.21	55489.71
691.40	55690.41
691.59	56220.84
691.78	55911.59
691.97	55940.27
692.16	55956.65
692.35	55839.92
692.54	55899.31
692.73	55899.31
692.92	55753.90
693.11	55776.43
693.30	55686.32
693.49	55837.87
693.68	55620.78
693.87	55514.29
694.06	55219.38
694.25	55540.91
694.44	55532.72
694.63	55676.08
694.82	55555.25
695.01	55854.25
695.20	55268.53
695.39	55538.86
695.58	55002.30
695.77	55151.80
695.96	54803.64
696.15	55368.88
696.34	55102.65
696.53	55647.41
696.72	55319.73
696.91	55237.81
697.10	55532.72
697.29	55063.74
697.48	55639.22
697.67	55102.65
697.86	55055.54
698.05	54990.01
698.24	55424.18
698.43	54836.41
698.62	55012.54
698.81	54604.99
699.00	55311.54
699.19	54635.71
699.38	54801.60
699.57	54494.40
699.76	55170.23
699.95	54789.31
700.14	54711.49
700.32	55076.02
700.51	54668.48
700.70	55207.09
700.89	54992.06
701.08	55162.04
701.27	55299.25
701.46	54957.24
701.65	54359.23
701.84	54381.76
702.03	54793.40
702.22	54170.82
702.41	54578.37
702.60	54531.26
702.79	54828.22
702.98	54195.40
703.17	54439.11
703.35	54377.67
703.54	54070.47
703.73	54656.19
703.92	54641.85
704.11	54361.28
704.30	54641.85
704.49	54066.38
704.68	54033.61
704.87	54490.30
705.06	54281.41
705.25	54142.15
705.43	54295.75
705.62	54148.29
705.81	54142.15
706.00	53681.36
706.19	54420.67
706.38	54006.98
706.57	53980.36
706.76	53791.95
706.95	53902.54
707.14	53908.68
707.32	53193.94
707.51	53693.64
707.70	54021.32
707.89	53896.39
708.08	53949.64
708.27	54260.93
708.46	54183.11
708.65	53761.23
708.84	54138.05
709.02	53499.09
709.21	53839.05
709.40	53912.78
709.59	53099.73
709.78	53601.49
709.97	53943.50
710.16	53535.95
710.34	53886.15
710.53	53468.37
710.72	53437.65
710.91	53382.35
711.10	53761.23
711.29	53413.07
711.48	53945.54
711.66	53241.04
711.85	53435.60
712.04	53374.16
712.23	53531.86
712.42	53091.54
712.61	52878.55
712.80	53316.82
712.98	53310.67
713.17	53105.88
713.36	53026.01
713.55	52999.38
713.74	52841.69
713.93	53275.86
714.11	52987.10
714.30	52853.98
714.49	52819.16
714.68	53116.12
714.87	52829.40
715.06	53216.47
715.24	53271.76
715.43	53089.49
715.62	52411.62
715.81	52567.26
716.00	52696.28
716.18	52341.99
716.37	52643.04
716.56	52307.17
716.75	52432.10
716.94	52636.89
717.12	52417.76
717.31	53019.86
717.50	52573.41
717.69	52049.13
717.88	52778.20
718.06	52395.23
718.25	52729.05
718.44	51842.28
718.63	52339.94
718.82	52098.28
719.00	52477.15
719.19	52028.65
719.38	51750.12
719.57	52024.55
719.76	51723.50
719.94	51686.64
720.13	51584.24
720.32	51776.75
720.51	51500.27
720.69	51680.49
720.88	51416.30
721.07	51539.18
721.26	51285.23
721.44	51141.88
721.63	51088.63
721.82	50863.35
722.01	50959.61
722.20	51537.13
722.38	50679.03
722.57	50697.47
722.76	51238.13
722.95	50183.43
723.13	50728.19
723.32	50525.44
723.51	50615.55
723.70	50126.08
723.88	50566.40
724.07	50390.27
724.26	50248.96
724.44	50392.32
724.63	50683.13
724.82	50449.66
725.01	50343.17
725.19	49960.20
725.38	50470.14
725.57	50212.10
725.76	50353.41
725.94	49909.00
726.13	50291.97
726.32	50367.74
726.51	50218.24
726.69	50445.57
726.88	50369.79
727.07	49755.40
727.25	50103.56
727.44	50386.18
727.63	50464.00
727.82	49966.34
728.00	49945.86
728.19	49921.29
728.38	50519.29
728.56	49591.56
728.75	49566.99
728.94	49675.53
729.12	50093.32
729.31	50119.94
729.50	49747.21
729.69	49923.33
729.87	50074.88
730.06	49566.99
730.25	50093.32
730.43	50031.88
730.62	49560.84
730.81	50017.54
730.99	50005.25
731.18	49526.03
731.37	50083.08
731.55	49909.00
731.74	49997.06
731.93	49992.97
732.11	49976.58
732.30	49800.46
732.49	49771.78
732.67	49554.70
732.86	49501.45
733.05	49806.60
733.23	49837.32
733.42	49595.66
733.61	49149.20
733.79	49714.44
733.98	49956.10
734.17	49347.86
734.35	49556.75
734.54	49775.88
734.73	49464.59
734.91	49896.71
735.10	49495.31
735.29	49902.85
735.47	49159.44
735.66	49523.98
735.84	49550.60
736.03	49440.01
736.22	49497.36
736.40	49227.02
736.59	49448.21
736.78	49435.92
736.96	48911.64
737.15	48917.78
737.33	48872.73
737.52	48803.10
737.71	49100.05
737.89	48719.13
738.08	48721.18
738.27	48944.41
738.45	48885.01
738.64	49151.25
738.82	48950.55
739.01	48719.13
739.20	49179.92
739.38	49159.44
739.57	49196.31
739.75	48983.32
739.94	48850.20
740.13	48936.21
740.31	48682.27
740.50	48452.89
740.68	49034.52
740.87	48641.31
741.06	48659.74
741.24	48710.94
741.43	48678.17
741.61	48821.53
741.80	48166.18
741.99	48188.70
742.17	48368.93
742.36	48061.73
742.54	48233.76
742.73	48680.22
742.91	48586.01
743.10	48424.22
743.29	48352.54
743.47	48141.60
743.66	47858.98
743.84	48012.58
744.03	48416.03
744.21	47760.68
744.40	48645.40
744.59	48031.01
744.77	48080.16
744.96	48135.46
745.14	48078.11
745.33	48293.15
745.51	47813.93
745.70	47977.76
745.88	47641.90
746.07	47834.41
746.26	47789.35
746.44	47541.55
746.63	47848.74
746.81	47789.35
747.00	47578.41
747.18	47600.94
747.37	47764.78
747.55	47578.41
747.74	47727.91
747.92	46992.69
748.11	47486.25
748.29	47441.20
748.48	47385.90
748.66	47295.79
748.85	47160.62
749.03	46996.79
749.22	47088.95
749.41	46826.81
749.59	47308.08
749.78	46800.18
749.96	46783.80
750.15	46921.01
750.33	47062.32
750.52	46949.68
750.70	46638.39
750.89	47015.22
751.07	46425.40
751.26	46767.41
751.44	46648.63
751.63	46841.14
751.81	46720.31
752.00	46351.68
752.18	46677.30
752.37	46189.89
752.55	46120.26
752.74	46071.10
752.92	46277.95
753.10	46382.40
753.29	46421.31
753.47	45966.66
753.66	45733.19
753.84	46191.94
754.03	45849.92
754.21	46105.92
754.40	46259.52
754.58	45991.23
754.77	45980.99
754.95	45722.95
755.14	45479.24
755.32	45870.40
755.51	45647.18
755.69	45651.27
755.88	45448.52
756.06	45514.06
756.24	45409.61
756.43	45317.45
756.61	45391.18
756.80	45221.20
756.98	45233.49
757.17	45495.63
757.35	45198.67
757.54	45208.91
757.72	45331.79
757.90	45321.55
758.09	45133.14
758.27	45167.95
758.46	44938.58
758.64	45462.86
758.83	45071.70
759.01	44877.14
759.19	44821.84
759.38	45339.98
759.56	45155.66
759.75	44848.47
759.93	45176.14
760.12	44868.95
760.30	44827.99
760.48	44461.40
760.67	44467.55
760.85	45147.47
761.04	44520.79
761.22	44604.76
761.40	44631.38
761.59	44416.35
761.77	44248.41
761.96	44250.46
762.14	44260.70
762.32	44174.69
762.51	43730.28
762.69	43824.48
762.88	44455.26
763.06	43980.13
763.24	44193.12
763.43	44199.26
763.61	44049.76
763.80	43990.37
763.98	43832.68
764.16	43824.48
764.35	43507.05
764.53	43263.34
764.72	43861.35
764.90	44031.33
765.08	43394.41
765.27	43834.72
765.45	42950.00
765.63	42626.42
765.82	43554.15
766.00	43214.19
766.18	43253.10
766.37	43582.82
766.55	43255.15
766.74	43566.44
766.92	43175.28
767.10	42915.19
767.29	43013.49
767.47	42343.80
767.65	43306.35
767.84	42521.98
768.02	42775.92
768.20	42636.66
768.39	42683.76
768.57	43146.61
768.75	42581.37
768.94	42614.13
769.12	42696.05
769.30	42134.91
769.49	42313.08
769.67	42255.74
769.85	42327.42
770.04	42263.93
770.22	41610.63
770.40	41708.93
770.59	41866.63
770.77	42014.08
770.95	42196.35
771.14	41463.18
771.32	41915.78
771.50	41700.74
771.69	41436.55
771.87	41794.95
772.05	42069.37
772.24	41344.39
772.42	41264.52
772.60	41522.57
772.78	41244.04
772.97	40811.92
773.15	41497.99
773.33	41211.28
773.52	41260.43
773.70	41155.98
773.88	41493.89
774.07	40926.61
774.25	41158.03
774.43	41334.15
774.61	41354.63
774.80	41403.78
774.98	41211.28
775.16	41016.72
775.34	41463.18
775.53	40988.05
775.71	41411.98
775.89	41190.80
776.08	41336.20
776.26	41432.46
776.44	41293.19
776.62	41285.00
776.81	41055.63
776.99	41336.20
777.17	41137.55
777.35	41176.46
777.54	41588.10
777.72	41354.63
777.90	41506.18
778.08	41565.57
778.27	40906.13
778.45	41514.37
778.63	41569.67
778.81	41293.19
779.00	41776.51
779.18	41510.28
779.36	41731.46
779.54	41561.48
779.73	41538.95
779.91	41774.47
780.09	41653.64
780.27	42122.62
780.46	41708.93
780.64	42089.85
780.82	41831.81
781.00	41502.09
781.19	41749.89
781.37	41887.10
781.55	42098.05
781.73	42173.82
781.91	41817.47
782.10	42143.10
782.28	42163.58
782.46	41973.12
782.64	41868.67
782.82	41637.25
783.01	41747.84
783.19	42073.47
783.37	42319.23
783.55	41782.66
783.74	42096.00
783.92	41612.68
784.10	42325.37
784.28	41921.92
784.46	41973.12
784.64	41653.64
784.83	41977.22
785.01	42126.72
785.19	41944.45
785.37	41942.40
785.55	41954.69
785.74	41092.49
785.92	41776.51
786.10	41971.07
786.28	41672.07
786.46	41676.16
786.64	41086.35
786.83	41631.11
787.01	41727.36
787.19	41399.69
787.37	41686.40
787.55	41776.51
787.74	41297.29
787.92	41467.27
788.10	41350.54
788.28	40916.37
788.46	41497.99
788.64	40961.42
788.82	40875.41
789.01	41100.68
789.19	41033.10
789.37	41016.72
789.55	40832.40
789.73	40607.12
789.91	40740.24
790.09	40351.13
790.28	40662.42
790.46	40506.77
790.64	40883.60
790.82	40715.67
791.00	40328.60
791.18	40203.67
791.36	40506.77
791.55	40445.33
791.73	39644.58
791.91	40263.07
792.09	39957.92
792.27	39953.82
792.45	39732.64
792.63	39876.00
792.81	39570.85
793.00	39595.43
793.18	39202.22
793.36	39445.93
793.54	39636.39
793.72	39277.99
793.90	39163.31
794.08	38872.49
794.26	39251.37
794.44	38702.51
794.62	38974.89
794.81	38956.46
794.99	38684.08
795.17	39099.82
795.35	38688.18
795.53	38766.00
795.71	38862.26
795.89	38393.27
796.07	37809.60
796.25	37873.09
796.43	38114.75
796.61	37803.46
796.80	37938.62
796.98	37983.68
797.16	37979.58
797.34	37942.72
797.52	37430.72
797.70	38032.83
797.88	37557.70
798.06	37311.94
798.24	37811.65
798.42	36931.02
798.60	36959.69
798.78	37354.95
798.96	37211.59
799.14	36824.53
799.32	36916.68
799.51	36748.75
799.69	36707.79
799.87	36830.67
800.05	36441.56
800.23	36660.69
800.41	36441.56
800.59	36365.78
800.77	36378.07
800.95	36103.64
801.13	36290.01
801.31	35941.85
801.49	35839.45
801.67	35708.38
801.85	35577.31
802.03	35685.86
802.21	35294.69
802.39	35440.10
802.57	35214.82
802.75	35296.74
802.93	35413.48
803.11	35255.78
803.29	35104.23
803.47	34749.93
803.65	34883.05
803.83	34909.68
804.01	34876.91
804.19	34483.70
804.37	34614.77
804.55	34526.71
804.73	34534.90
804.91	34655.73
805.09	34473.46
805.27	34303.48
805.45	34280.95
805.63	34416.11
805.81	34170.36
805.99	34002.43
806.17	34266.61
806.35	34104.82
806.53	33560.06
806.71	34029.05
806.89	33637.89
807.07	33756.67
807.25	33725.95
807.43	33582.59
807.61	33785.34
807.79	33273.35
807.97	33324.55
808.15	33521.15
808.33	32835.08
808.51	33111.56
808.69	33209.86
808.87	32976.39
809.05	32929.29
809.23	32835.08
809.41	32679.44
809.59	32597.52
809.77	32826.89
809.95	32902.67
810.13	32661.01
810.31	32460.30
810.49	32726.54
810.67	32384.53
810.84	32517.65
811.02	32384.53
811.20	32202.26
811.38	32071.19
811.56	31714.84
811.74	32034.33
811.92	31675.93
812.10	31983.13
812.28	31882.78
812.46	31825.43
812.64	32069.14
812.82	31661.60
813.00	31634.97
813.18	31430.18
813.36	31239.72
813.53	31460.90
813.71	31276.58
813.89	31088.17
814.07	31436.32
814.25	31145.51
814.43	31290.91
814.61	31102.50
814.79	30953.00
814.97	30733.87
815.15	31030.82
815.33	30535.21
815.50	30633.52
815.68	30639.66
815.86	30647.85
816.04	30481.97
816.22	30582.32
816.40	30230.07
816.58	30514.73
816.76	30721.58
816.94	30486.06
817.11	30182.96
817.29	30422.58
817.47	29791.80
817.65	29926.97
817.83	30418.48
818.01	30015.03
818.19	30160.44
818.37	30090.80
818.54	29711.93
818.72	29546.05
818.90	29908.54
819.08	29605.44
819.26	29668.92
819.44	29306.43
819.62	29638.20
819.80	29539.90
819.97	29679.16
820.15	29140.55
820.33	29081.16
820.51	29404.74
820.69	28827.21
820.87	29142.60
821.05	29265.47
821.22	29249.09
821.40	29087.30
821.58	29163.08
821.76	28702.28
821.94	28972.61
822.12	29003.33
822.29	29339.20
822.47	28681.80
822.65	29124.16
822.83	28972.61
823.01	28728.91
823.19	28640.84
823.36	28626.51
823.54	28460.62
823.72	28544.59
823.90	28313.17
824.08	28313.17
824.25	28194.39
824.43	28063.32
824.61	28542.54
824.79	28423.76
824.97	28221.01
825.15	28202.58
825.32	28393.04
825.50	27946.58
825.68	28175.95
825.86	28165.71
826.04	27962.97
826.21	27903.57
826.39	27758.17
826.57	27643.48
826.75	27498.08
826.93	27354.72
827.10	27702.87
827.28	27854.42
827.46	27706.97
827.64	27280.99
827.81	27731.54
827.99	27328.10
828.17	27467.36
828.35	27483.74
828.53	27440.73
828.70	27158.11
828.88	27311.71
829.06	27641.43
829.24	27432.54
829.41	27342.43
829.59	27123.30
829.77	27350.62
829.95	27332.19
830.12	26998.37
830.30	27199.07
830.48	27078.24
830.66	27121.25
830.84	26994.28
831.01	26699.37
831.19	27156.07
831.37	27078.24
831.55	27158.11
831.72	26637.93
831.90	26685.03
832.08	27170.40
832.25	26865.25
832.43	26582.63
832.61	26685.03
832.79	26525.29
832.96	26631.79
833.14	26502.76
833.32	26508.91
833.50	26431.08
833.67	26455.66
833.85	26365.55
834.03	26130.03
834.20	26572.39
834.38	26537.58
834.56	26470.00
834.74	25972.34
834.91	26386.03
835.09	25767.54
835.27	25884.28
835.44	26193.52
835.62	25826.93
835.80	26041.97
835.98	25878.13
836.15	26087.03
836.33	25978.48
836.51	26056.31
836.68	25482.88
836.86	25945.72
837.04	26240.62
837.21	25749.11
837.39	25859.70
837.57	25919.09
837.75	25837.17
837.92	25603.71
838.10	25886.32
838.28	25364.09
838.45	25452.16
838.63	25398.91
838.81	25605.75
838.98	25493.12
839.16	25187.97
839.34	25304.70
839.51	25093.76
839.69	25028.23
839.87	25116.29
840.04	25296.51
840.22	25134.72
840.40	25132.67
840.57	24850.05
840.75	25273.98
840.93	24712.84
841.10	24866.44
841.28	25054.85
841.46	24917.64
841.63	24966.79
841.81	24870.53
841.98	24772.23
842.16	24786.57
842.34	24856.20
842.51	24522.38
842.69	24936.07
842.87	24725.13
843.04	24860.29
843.22	24843.91
843.40	24366.73
843.57	24458.89
843.75	24467.08
843.92	24944.26
844.10	24764.04
844.28	24821.38
844.45	24665.74
844.63	24620.68
844.81	24174.22
844.98	24510.09
845.16	24413.84
845.33	24325.77
845.51	24471.18
845.69	24229.52
845.86	24190.61
846.04	24082.06
846.21	24233.61
846.39	23852.69
846.57	24065.68
846.74	23867.03
846.92	23883.41
847.09	23875.22
847.27	23813.78
847.45	24313.48
847.62	23918.23
847.80	23879.32
847.97	23987.86
848.15	24088.21
848.32	23938.71
848.50	23996.05
848.68	23498.39
848.85	23498.39
849.03	23502.49
849.20	23752.34
849.38	23621.27
849.56	23684.76
849.73	23301.79
849.91	23746.20
850.08	23756.44
850.26	23387.80
850.43	23600.79
850.61	23604.89
850.78	23119.52
850.96	23023.26
851.14	23082.66
851.31	23293.60
851.49	23418.52
851.66	23422.62
851.84	23342.75
852.01	23195.29
852.19	23307.93
852.36	22965.92
852.54	22972.07
852.71	23295.64
852.89	23238.30
853.07	23129.76
853.24	23111.33
853.42	23256.73
853.59	23019.17
853.77	23195.29
853.94	23013.02
854.12	23164.57
854.29	22867.62
854.47	22863.52
854.64	22785.70
854.82	22871.72
854.99	23033.50
855.17	22693.54
855.34	22734.50
855.52	22748.84
855.69	22937.25
855.87	22607.53
856.04	22740.64
856.22	22607.53
856.39	22527.66
856.57	22208.17
856.74	22369.96
856.92	22365.87
857.09	22355.63
857.27	22666.92
857.44	22472.36
857.62	22398.63
857.79	22259.37
857.97	22449.83
858.14	22003.38
858.32	22269.61
858.49	22433.45
858.67	22300.33
858.84	22136.49
859.02	22308.52
859.19	22038.19
859.37	21958.32
859.54	21900.98
859.72	21974.70
859.89	22062.77
860.06	22113.97
860.24	21958.32
860.41	22183.60
860.59	21681.85
860.76	21956.27
860.94	21790.39
861.11	21829.30
861.29	21771.96
861.46	21825.20
861.64	21677.75
861.81	21606.07
861.98	21866.16
862.16	21577.40
862.33	21534.39
862.51	21552.82
862.68	21800.63
862.86	21522.10
863.03	21264.06
863.21	21595.83
863.38	21505.72
863.55	21079.74
863.73	21171.90
863.90	21243.58
864.08	21311.16
864.25	21272.25
864.43	21268.16
864.60	21270.20
864.77	20793.03
864.95	21206.72
865.12	21231.29
865.30	21151.42
865.47	20903.62
865.64	21001.92
865.82	21151.42
865.99	21137.09
866.17	20948.67
866.34	20754.12
866.51	20776.64
866.69	20987.58
866.86	20643.52
867.04	20879.04
867.21	21040.83
867.38	20795.07
867.56	20817.60
867.73	20647.62
867.91	20426.44
868.08	20569.80
868.25	20309.71
868.43	20299.47
868.60	20479.69
868.78	20416.20
868.95	20686.53
869.12	20336.33
869.30	20244.17
869.47	20305.61
869.64	20158.16
869.82	20352.71
869.99	20473.54
870.16	20508.36
870.34	20260.55
870.51	20313.80
870.69	20047.57
870.86	20084.43
871.03	20326.09
871.21	20080.33
871.38	20377.29
871.55	19842.77
871.73	19875.54
871.90	19676.88
872.07	19826.39
872.25	19666.64
872.42	19676.88
872.59	19793.62
872.77	19928.78
872.94	19588.82
873.11	19762.90
873.29	19578.58
873.46	19732.18
873.63	19697.36
873.81	19609.30
873.98	19574.49
874.15	19377.88
874.33	19363.54
874.50	19220.19
874.67	19295.96
874.85	19361.50
875.02	19089.12
875.19	18943.71
875.37	19214.04
875.54	19298.01
875.71	19058.40
875.88	18847.46
876.06	19263.19
876.23	19005.15
876.40	18921.18
876.58	18697.95
876.75	18949.85
876.92	18855.65
877.10	18734.82
877.27	18366.18
877.44	18613.99
877.61	18691.81
877.79	18540.26
877.96	18634.47
878.13	18540.26
878.31	18405.10
878.48	18429.67
878.65	18333.42
878.82	18388.71
879.00	18243.31
879.17	18274.03
879.34	18353.90
879.51	18386.66
879.69	18165.48
879.86	17983.21
880.03	18249.45
880.21	18128.62
880.38	18226.92
880.55	18126.57
880.72	18038.51
880.90	18028.27
881.07	17901.29
881.24	18255.59
881.41	18118.38
881.59	17665.78
881.76	17766.13
881.93	17964.78
882.10	17606.39
882.28	17852.14
882.45	17921.77
882.62	17741.55
882.79	17970.93
882.96	17417.97
883.14	17657.59
883.31	17956.59
883.48	17882.86
883.65	17565.43
883.83	17571.57
884.00	17585.91
884.17	17721.07
884.34	17884.91
884.51	17698.55
884.69	17463.03
884.86	17313.53
885.03	17313.53
885.20	17219.32
885.38	17467.13
885.55	17338.10
885.72	17303.29
885.89	17227.51
886.06	17284.86
886.24	17338.10
886.41	17071.87
886.58	17262.33
886.75	17475.32
886.92	17104.64
887.10	17252.09
887.27	17110.78
887.44	17254.14
887.61	17307.38
887.78	17360.63
887.95	17428.21
888.13	16938.75
888.30	17028.86
888.47	17041.15
888.64	17035.00
888.81	16983.80
888.99	16832.26
889.16	16809.73
889.33	16809.73
889.50	16627.46
889.67	16805.63
889.84	16824.06
890.01	16692.99
890.19	16992.00
890.36	16887.55
890.53	16729.86
890.70	16502.53
890.87	16781.06
891.04	16418.57
891.22	16666.37
891.39	16396.04
891.56	16332.55
891.73	16473.86
891.90	16365.32
892.07	16316.17
892.24	16525.06
892.42	16283.40
892.59	15957.77
892.76	16058.12
892.93	16258.82
893.10	16207.62
893.27	16207.62
893.44	16133.90
893.61	15841.04
893.79	16246.54
893.96	16029.45
894.13	16004.88
894.30	16201.48
894.47	16217.86
894.64	16334.60
894.81	16107.27
894.98	16322.31
895.15	16158.47
895.33	16013.07
895.50	15978.25
895.67	16107.27
895.84	16019.21
896.01	16262.92
896.18	15838.99
896.35	16183.05
896.52	16045.84
896.69	16183.05
896.86	16017.16
897.04	16101.13
897.21	16123.66
897.38	15927.05
897.55	15769.36
897.72	15906.57
897.89	15902.48
898.06	15882.00
898.23	15898.38
898.40	16031.50
898.57	15824.65
898.74	16097.03
898.91	15974.16
899.08	15943.44
899.26	15859.47
899.43	15642.39
899.60	15755.02
899.77	15795.98
899.94	15777.55
900.11	15752.98
900.28	15775.50
900.45	15845.13
900.62	15654.67
900.79	15951.63
900.96	15968.01
901.13	15736.59
901.30	15722.26
901.47	15824.65
901.64	15775.50
901.81	15808.27
901.98	15707.92
902.15	15744.78
902.32	15724.30
902.49	15871.76
902.66	15992.59
902.83	15699.73
903.01	15746.83
903.18	15578.90
903.35	15560.47
903.52	15818.51
903.69	15793.94
903.86	15943.44
904.03	15630.10
904.20	15853.33
904.37	16006.92
904.54	15664.91
904.71	15662.86
904.88	16082.70
905.05	15695.63
905.22	15709.97
905.39	15521.56
905.56	15611.67
905.73	15435.54
905.90	15722.26
906.07	15775.50
906.24	15812.37
906.41	15582.99
906.58	15623.95
906.75	15736.59
906.92	15738.64
907.09	15664.91
907.26	15816.46
907.43	15398.68
907.60	15492.88
907.77	15793.94
907.93	15640.34
908.10	15638.29
908.27	15638.29
908.44	15355.67
908.61	15716.11
908.78	15470.36
908.95	15585.04
909.12	15648.53
909.29	15384.34
909.46	15445.78
909.63	15595.28
909.80	15841.04
909.97	15611.67
910.14	15511.32
910.31	15490.84
910.48	15501.08
910.65	15320.85
910.82	15476.50
910.99	15453.97
911.16	15413.01
911.33	15501.08
911.50	15298.33
911.66	15415.06
911.83	15875.85
912.00	15249.18
912.17	15075.10
912.34	15085.34
912.51	15167.26
912.68	15048.47
912.85	15128.35
913.02	15175.45
913.19	14954.27
913.36	15374.10
913.53	15142.68
913.70	15105.82
913.86	14921.50
914.03	15165.21
914.20	15019.80
914.37	15109.91
914.54	14933.79
914.71	15027.99
914.88	15017.75
915.05	14905.12
915.22	14716.70
915.39	14823.20
915.55	14845.73
915.72	14649.12
915.89	14681.89
916.06	14642.98
916.23	14475.04
916.40	14614.30
916.57	14409.51
916.74	14419.75
916.91	14311.21
917.07	14309.16
917.24	14513.95
917.41	14360.36
917.58	14137.13
917.75	14333.73
917.92	13864.75
918.09	14126.89
918.26	14077.74
918.42	14217.00
918.59	14128.94
918.76	14034.73
918.93	13973.29
919.10	13963.05
919.27	13881.13
919.44	13911.85
919.60	13879.08
919.77	13944.62
919.94	13473.59
920.11	13649.71
920.28	13707.05
920.45	13756.21
920.61	13367.09
920.78	13397.81
920.95	13436.72
921.12	13365.04
921.29	13229.88
921.46	13453.11
921.62	12977.98
921.79	13363.00
921.96	13422.39
922.13	13221.69
922.30	13260.60
922.47	13115.19
922.63	13115.19
922.80	13035.32
922.97	12934.97
923.14	12789.56
923.31	12908.35
923.47	12851.00
923.64	12822.33
923.81	12660.54
923.98	12748.61
924.15	12488.51
924.32	12388.16
924.48	12762.94
924.65	12633.92
924.82	12392.26
924.99	12369.73
925.15	12332.87
925.32	12214.09
925.49	12300.10
925.66	12246.85
925.83	12169.03
925.99	12013.38
926.16	11990.86
926.33	12089.16
926.50	12003.14
926.67	12123.98
926.83	11966.28
927.00	11769.68
927.17	11722.57
927.34	11585.36
927.50	11689.81
927.67	11734.86
927.84	11683.66
928.01	11493.20
928.17	11439.95
928.34	11452.24
928.51	11327.32
928.68	11296.60
928.84	11274.07
929.01	11224.92
929.18	11134.81
929.35	11013.98
929.51	11112.28
929.68	11011.93
929.85	11063.13
930.02	10927.96
930.18	10864.47
930.35	10833.75
930.52	10973.02
930.69	10659.68
930.85	10602.33
931.02	10596.19
931.19	10602.33
931.36	10573.66
931.52	10448.74
931.69	10714.97
931.86	10440.54
932.02	10381.15
932.19	10465.12
932.36	10411.87
932.53	10372.96
932.69	10186.60
932.86	10243.94
933.03	10045.29
933.19	10026.86
933.36	9955.18
933.53	10135.40
933.70	10080.10
933.86	9928.55
934.03	10037.09
934.20	9832.30
934.36	9826.15
934.53	9471.86
934.70	9439.09
934.86	9559.92
935.03	9469.81
935.20	9334.64
935.36	9232.24
935.53	9142.13
935.70	9162.61
935.86	9099.13
936.03	9015.16
936.20	8800.12
936.36	8912.76
936.53	8900.47
936.70	8791.93
936.86	8957.82
937.03	8656.76
937.20	8433.54
937.36	8540.03
937.53	8214.40
937.70	8327.04
937.86	8023.94
938.03	8042.37
938.20	8275.84
938.36	7993.22
938.53	7837.58
938.70	7698.31
938.86	7720.84
939.03	7720.84
939.20	7653.26
939.36	7663.50
939.53	7475.09
939.70	7448.46
939.86	7292.82
940.03	7040.92
940.19	6915.99
940.36	7024.53
940.53	6915.99
940.69	6797.21
940.86	6819.74
941.03	6662.04
941.19	6610.84
941.36	6680.47
941.52	6412.19
941.69	6219.68
941.86	6375.33
942.02	6266.78
942.19	6234.02
942.35	6277.02
942.52	6115.23
942.69	6195.11
942.85	6117.28
943.02	6098.85
943.18	6061.99
943.35	6098.85
943.52	5795.75
943.68	5920.68
943.85	5851.05
944.01	5849.00
944.18	5853.09
944.35	5750.70
944.51	5447.60
944.68	5496.75
944.84	5670.83
945.01	5564.33
945.17	5556.14
945.34	5517.23
945.51	5568.43
945.67	5642.15
945.84	5580.71
946.00	5365.68
946.17	5406.64
946.33	5431.21
946.50	5470.12
946.67	5451.69
946.83	5453.74
947.00	5515.18
947.16	5490.60
947.33	5349.29
947.49	5492.65
947.66	5527.47
947.82	5556.14
947.99	5353.39
948.16	5410.73
948.32	5429.17
948.49	5392.30
948.65	5545.90
948.82	5439.40
948.98	5267.38
949.15	5384.11
949.31	5488.56
949.48	5423.02
949.64	5369.77
949.81	5435.31
949.97	5330.86
950.14	5519.28
950.30	5304.24
950.47	5490.60
950.63	5474.22
950.80	5365.68
950.96	5359.53
951.13	5287.86
951.30	5521.32
951.46	5420.97
951.63	5576.62
951.79	5443.50
951.96	5523.37
952.12	5431.21
952.29	5425.07
952.45	5308.34
952.62	5486.51
952.78	5445.55
952.94	5453.74
953.11	5502.89
953.27	5459.88
953.44	5719.98
953.60	5564.33
953.77	5498.80
953.93	5400.49
954.10	5646.25
954.26	5476.27
954.43	5562.28
954.59	5631.91
954.76	5566.38
954.92	5562.28
955.09	5463.98
955.25	5420.97
955.42	5566.38
955.58	5832.62
955.75	5543.85
955.91	5449.64
956.07	5572.52
956.24	5506.99
956.40	5691.31
956.57	5685.16
956.73	5408.69
956.90	5619.63
957.06	5599.15
957.23	5470.12
957.39	5396.40
957.56	5509.04
957.72	5545.90
957.88	5582.76
958.05	5603.24
958.21	5695.40
958.38	5558.19
958.54	5588.91
958.71	5611.43
958.87	5463.98
959.03	5623.72
959.20	5599.15
959.36	5439.40
959.53	5527.47
959.69	5537.71
959.85	5496.75
960.02	5525.42
960.18	5498.80
960.35	5558.19
960.51	5638.06
960.68	5455.79
960.84	5560.24
961.00	5463.98
961.17	5617.58
961.33	5597.10
961.50	5500.84
961.66	5625.77
961.82	5459.88
961.99	5537.71
962.15	5633.96
962.31	5459.88
962.48	5558.19
962.64	5517.23
962.81	5541.80
962.97	5423.02
963.13	5500.84
963.30	5480.36
963.46	5390.25
963.62	5470.12
963.79	5506.99
963.95	5478.32
964.12	5425.07
964.28	5439.40
964.44	5222.32
964.61	5517.23
964.77	5468.08
964.93	5521.32
965.10	5390.25
965.26	5500.84
965.42	5437.36
965.59	5343.15
965.75	5414.83
965.92	5453.74
966.08	5357.49
966.24	5435.31
966.41	5382.06
966.57	5496.75
966.73	5459.88
966.90	5377.97
967.06	5339.05
967.22	5283.76
967.39	5224.37
967.55	5197.74
967.71	5302.19
967.88	5294.00
968.04	5253.04
968.20	5214.13
968.37	5285.81
968.53	5177.26
968.69	5373.87
968.85	5300.14
969.02	5218.22
969.18	5117.87
969.34	5287.86
969.51	5236.66
969.67	5175.22
969.83	5152.69
970.00	5142.45
970.16	5146.55
970.32	5314.48
970.48	5220.27
970.65	5083.06
970.81	5156.79
970.97	5144.50
971.14	5085.11
971.30	5025.72
971.46	5052.34
971.63	5038.00
971.79	5017.52
971.95	5113.78
972.11	4984.76
972.28	4962.23
972.44	5007.28
972.60	4954.04
972.76	5056.43
972.93	4923.32
973.09	4988.85
973.25	5083.06
973.42	5066.67
973.58	4933.56
973.74	4837.30
973.90	4896.69
974.07	4847.54
974.23	4896.69
974.39	5025.72
974.55	4810.68
974.72	4812.73
974.88	4798.39
975.04	4835.25
975.20	4968.37
975.37	4945.84
975.53	4616.12
975.69	4904.89
975.85	4679.61
976.01	4779.96
976.18	4818.87
976.34	4753.34
976.50	4888.50
976.66	4855.73
976.83	4689.85
976.99	4755.38
977.15	4575.16
977.31	4636.60
977.47	4808.63
977.64	4591.55
977.80	4747.19
977.96	4591.55
978.12	4712.38
978.29	4683.70
978.45	4605.88
978.61	4542.39
978.77	4626.36
978.93	4526.01
979.10	4607.93
979.26	4599.74
979.42	4614.07
979.58	4454.33
979.74	4413.37
979.91	4571.07
980.07	4546.49
980.23	4515.77
980.39	4468.67
980.55	4433.85
980.71	4493.24
980.88	4429.76
981.04	4489.15
981.20	4366.27
981.36	4423.61
981.52	4452.28
981.68	4233.15
981.85	4353.98
982.01	4327.36
982.17	4425.66
982.33	4442.04
982.49	4462.52
982.65	4454.33
982.82	4370.37
982.98	4382.65
983.14	4245.44
983.30	4370.37
983.46	4341.69
983.62	4186.05
983.79	4284.35
983.95	4282.30
984.11	4104.13
984.27	4315.07
984.43	4179.90
984.59	4134.85
984.75	4081.60
984.91	4138.94
985.08	4173.76
985.24	4138.94
985.40	4116.42
985.56	4073.41
985.72	4202.43
985.88	4188.10
986.04	4067.27
986.20	4071.36
986.37	4091.84
986.53	4065.22
986.69	4155.33
986.85	3936.20
987.01	3979.20
987.17	4249.54
987.33	4038.59
987.49	3923.91
987.65	4050.88
987.82	4007.87
987.98	3905.48
988.14	4097.99
988.30	3940.29
988.46	4112.32
988.62	4026.31
988.78	3944.39
988.94	3848.13
989.10	3893.19
989.26	3841.99
989.42	3665.86
989.59	3813.32
989.75	3768.26
989.91	3870.66
990.07	3807.17
990.23	3887.04
990.39	3823.56
990.55	3827.65
990.71	3889.09
990.87	3735.50
991.03	3874.76
991.19	3835.85
991.35	3760.07
991.51	3803.08
991.67	3889.09
991.83	3751.88
992.00	3690.44
992.16	3893.19
992.32	3833.80
992.48	3743.69
992.64	3620.81
992.80	3745.73
992.96	3704.78
993.12	3788.74
993.28	3645.38
993.44	3715.02
993.60	3663.82
993.76	3633.10
993.92	3741.64
994.08	3669.96
994.24	3629.00
994.40	3612.62
994.56	3745.73
994.72	3594.19
994.88	3565.51
995.04	3573.71
995.20	3592.14
995.36	3538.89
995.52	3456.97
995.68	3456.97
995.84	3432.40
996.00	3551.18
996.16	3481.55
996.32	3303.37
996.48	3495.88
996.64	3542.99
996.80	3467.21
996.96	3485.64
997.12	3428.30
997.28	3330.00
997.44	3450.83
997.60	3430.35
997.76	3387.34
997.92	3370.96
998.08	3303.37
998.24	3319.76
998.40	3352.52
998.56	3495.88
998.72	3330.00
998.88	3379.15
999.04	3278.80
999.20	3399.63
999.36	3295.18
999.52	3434.44
999.68	3391.44
999.84	3352.52
1000.00	3203.02
1000.16	3276.75
1000.32	3227.60
1000.48	3231.69
1000.64	3237.84
1000.80	3233.74
1000.95	3155.92
1001.11	3268.56
1001.27	3147.73
1001.43	3176.40
1001.59	3190.74
1001.75	3088.34
1001.91	3155.92
1002.07	3104.72
1002.23	3129.30
1002.39	3190.74
1002.55	3145.68
1002.71	3020.75
1002.87	3114.96
1003.03	3039.19
1003.19	3059.67
1003.34	3100.62
1003.50	3030.99
1003.66	3106.77
1003.82	3225.55
1003.98	3127.25
1004.14	3082.19
1004.30	2940.88
1004.46	2914.26
1004.62	3035.09
1004.78	3112.91
1004.94	3016.66
1005.09	3047.38
1005.25	3030.99
1005.41	2953.17
1005.57	2938.84
1005.73	3016.66
1005.89	2967.51
1006.05	2953.17
1006.21	2901.97
1006.37	2863.06
1006.52	2940.88
1006.68	2830.29
1006.84	2992.08
1007.00	2883.54
1007.16	3030.99
1007.32	2899.92
1007.48	2953.17
1007.64	2852.82
1007.79	2916.31
1007.95	2824.15
1008.11	2910.16
1008.27	2830.29
1008.43	2846.68
1008.59	2818.00
1008.75	2918.36
1008.91	2848.72
1009.06	2820.05
1009.22	2863.06
1009.38	2727.89
1009.54	2826.20
1009.70	2920.40
1009.86	2738.13
1010.01	2785.24
1010.17	2754.52
1010.33	2926.55
1010.49	2822.10
1010.65	2750.42
1010.81	2635.74
1010.96	2707.41
1011.12	2688.98
1011.28	2654.17
1011.44	2693.08
1011.60	2754.52
1011.76	2729.94
1011.91	2813.91
1012.07	2674.65
1012.23	2680.79
1012.39	2625.50
1012.55	2680.79
1012.71	2527.19
1012.86	2600.92
1013.02	2715.61
1013.18	2621.40
1013.34	2650.07
1013.50	2645.98
1013.65	2629.59
1013.81	2615.26
1013.97	2625.50
1014.13	2658.26
1014.29	2617.30
1014.44	2660.31
1014.60	2629.59
1014.76	2617.30
1014.92	2545.63
1015.07	2566.10
1015.23	2600.92
1015.39	2498.52
1015.55	2490.33
1015.71	2594.78
1015.86	2461.66
1016.02	2416.60
1016.18	2394.08
1016.34	2623.45
1016.49	2519.00
1016.65	2592.73
1016.81	2471.90
1016.97	2531.29
1017.12	2547.67
1017.28	2467.80
1017.44	2402.27
1017.60	2469.85
1017.75	2445.27
1017.91	2541.53
1018.07	2459.61
1018.23	2502.62
1018.38	2422.75
1018.54	2406.36
1018.70	2406.36
1018.86	2461.66
1019.01	2418.65
1019.17	2484.19
1019.33	2463.71
1019.49	2351.07
1019.64	2410.46
1019.80	2381.79
1019.96	2377.69
1020.12	2418.65
1020.27	2369.50
1020.43	2355.16
1020.59	2383.84
1020.74	2322.40
1020.90	2402.27
1021.06	2289.63
1021.22	2338.78
1021.37	2336.73
1021.53	2330.59
1021.69	2334.68
1021.84	2228.19
1022.00	2369.50
1022.16	2306.01
1022.31	2355.16
1022.47	2359.26
1022.63	2365.40
1022.79	2248.67
1022.94	2248.67
1023.10	2330.59
1023.26	2205.66
1023.41	2301.92
1023.57	2265.05
1023.73	2289.63
1023.88	2242.53
1024.04	2254.81
1024.20	2240.48
1024.35	2320.35
1024.51	2271.20
1024.67	2234.33
1024.82	2297.82
1024.98	2146.27
1025.14	2181.09
1025.29	2207.71
1025.45	2207.71
1025.61	2144.22
1025.76	2189.28
1025.92	2217.95
1026.08	2215.90
1026.23	2189.28
1026.39	2263.01
1026.55	2172.89
1026.70	2131.94
1026.86	2170.85
1027.02	2279.39
1027.17	2172.89
1027.33	2191.33
1027.48	2158.56
1027.64	2078.69
1027.80	2090.98
1027.95	2201.57
1028.11	2082.78
1028.27	2164.70
1028.42	2166.75
1028.58	2133.98
1028.73	2047.97
1028.89	2060.26
1029.05	2164.70
1029.20	2037.73
>>>>>End Processed Spectral Data<<<<<
