SpectraSuite Data File
++++++++++++++++++++++++++++++++++++
Date: Fri Jun 02 14:52:29 CEST 2017
User: INFO_000
Dark Spectrum Present: No
Reference Spectrum Present: No
Number of Sampled Component Spectra: 1
Spectrometers: USB4H00879
Integration Time (usec): 80000 (USB4H00879)
Spectra Averaged: 1 (USB4H00879)
Boxcar Smoothing: 0 (USB4H00879)
Correct for Electrical Dark: No (USB4H00879)
Strobe/Lamp Enabled: No (USB4H00879)
Correct for Detector Non-linearity: No (USB4H00879)
Correct for Stray Light: No (USB4H00879)
Number of Pixels in Processed Spectrum: 3648
>>>>>Begin Processed Spectral Data<<<<<
345.13	1241.07
345.34	1241.07
345.56	1241.07
345.78	1200.11
345.99	1290.22
346.21	1673.19
346.42	1722.34
346.64	1576.94
346.86	1806.31
347.07	1648.61
347.29	1718.25
347.50	1607.66
347.72	1679.33
347.94	1669.09
348.15	1570.79
348.37	1628.14
348.59	1763.30
348.80	1626.09
349.02	1816.55
349.23	1826.79
349.45	1863.65
349.67	1865.70
349.88	1785.83
350.10	2043.87
350.31	1761.25
350.53	1832.93
350.75	1912.80
350.96	1789.92
351.18	1912.80
351.39	1826.79
351.61	1734.63
351.82	1873.89
352.04	1959.91
352.26	1800.16
352.47	1843.17
352.69	1869.80
352.90	1722.34
353.12	1871.84
353.34	1906.66
353.55	1884.13
353.77	1908.71
353.98	1783.78
354.20	1847.27
354.41	1970.15
354.63	1925.09
354.85	2127.84
355.06	1904.61
355.28	1826.79
355.49	1949.67
355.71	1949.67
355.92	1902.56
356.14	1898.47
356.35	1843.17
356.57	1871.84
356.79	1943.52
357.00	1896.42
357.22	1957.86
357.43	1830.88
357.65	1988.58
357.86	1837.03
358.08	1929.19
358.29	1925.09
358.51	1953.76
358.72	1894.37
358.94	1912.80
359.16	1994.72
359.37	1861.60
359.59	1986.53
359.80	1953.76
360.02	1916.90
360.23	1978.34
360.45	1986.53
360.66	2023.39
360.88	1937.38
361.09	1894.37
361.31	1986.53
361.52	1990.63
361.74	2111.46
361.95	2072.54
362.17	1920.99
362.38	2052.06
362.60	2082.78
362.81	2033.63
363.03	1906.66
363.24	2019.30
363.46	2095.07
363.67	1990.63
363.89	1935.33
364.10	1982.43
364.32	1951.71
364.53	2043.87
364.75	1961.95
364.96	2019.30
365.18	2045.92
365.39	1978.34
365.61	1910.75
365.82	2140.13
366.04	1994.72
366.25	1927.14
366.47	2060.26
366.68	2043.87
366.90	1984.48
367.11	2129.89
367.33	2064.35
367.54	1998.82
367.76	1980.39
367.97	2125.79
368.19	2064.35
368.40	2146.27
368.62	2023.39
368.83	2064.35
369.05	2105.31
369.26	1939.43
369.48	1988.58
369.69	2017.25
369.91	2070.50
370.12	2004.96
370.33	2168.80
370.55	2021.35
370.76	2050.02
370.98	2136.03
371.19	2043.87
371.41	2103.26
371.62	2039.78
371.84	2043.87
372.05	2158.56
372.27	2078.69
372.48	2078.69
372.69	2144.22
372.91	2213.85
373.12	2168.80
373.34	2074.59
373.55	2140.13
373.77	2217.95
373.98	2121.70
374.20	2111.46
374.41	2312.16
374.62	2166.75
374.84	2187.23
375.05	2170.85
375.27	2125.79
375.48	2252.77
375.70	2207.71
375.91	2242.53
376.12	2271.20
376.34	2205.66
376.55	2201.57
376.77	2224.09
376.98	2105.31
377.19	2131.94
377.41	2197.47
377.62	2166.75
377.84	2373.60
378.05	2336.73
378.27	2215.90
378.48	2396.12
378.69	2357.21
378.91	2379.74
379.12	2189.28
379.34	2265.05
379.55	2330.59
379.76	2324.44
379.98	2271.20
380.19	2312.16
380.41	2224.09
380.62	2275.29
380.83	2260.96
381.05	2238.43
381.26	2428.89
381.47	2187.23
381.69	2244.57
381.90	2410.46
382.12	2369.50
382.33	2312.16
382.54	2342.88
382.76	2295.77
382.97	2361.31
383.19	2256.86
383.40	2342.88
383.61	2349.02
383.83	2320.35
384.04	2379.74
384.25	2361.31
384.47	2342.88
384.68	2340.83
384.89	2314.20
385.11	2367.45
385.32	2363.36
385.54	2318.30
385.75	2387.93
385.96	2437.08
386.18	2385.88
386.39	2404.32
386.60	2475.99
386.82	2412.51
387.03	2408.41
387.24	2566.10
387.46	2533.34
387.67	2506.71
387.88	2523.10
388.10	2500.57
388.31	2467.80
388.52	2512.86
388.74	2582.49
388.95	2463.71
389.16	2555.86
389.38	2389.98
389.59	2598.87
389.80	2602.97
390.02	2566.10
390.23	2639.83
390.44	2533.34
390.66	2467.80
390.87	2580.44
391.08	2641.88
391.30	2775.00
391.51	2666.46
391.72	2664.41
391.94	2623.45
392.15	2566.10
392.36	2713.56
392.58	2674.65
392.79	2650.07
393.00	2705.37
393.22	2762.71
393.43	2762.71
393.64	2850.77
393.85	2783.19
394.07	2656.22
394.28	2627.54
394.49	2840.53
394.71	2803.67
394.92	2895.83
395.13	2787.29
395.35	2754.52
395.56	2813.91
395.77	2809.81
395.98	2887.64
396.20	2869.20
396.41	2983.89
396.62	2942.93
396.84	2901.97
397.05	2879.44
397.26	2959.31
397.47	3024.85
397.69	2844.63
397.90	3055.57
398.11	2983.89
398.32	2951.12
398.54	2969.55
398.75	2883.54
398.96	2908.12
399.18	3057.62
399.39	3047.38
399.60	3010.51
399.81	2985.94
400.03	3041.23
400.24	3266.51
400.45	2990.03
400.66	3145.68
400.88	2994.13
401.09	3205.07
401.30	3035.09
401.51	3198.93
401.73	3147.73
401.94	3188.69
402.15	3030.99
402.36	3180.50
402.58	3186.64
402.79	3280.85
403.00	3344.33
403.21	3207.12
403.43	3434.44
403.64	3360.72
403.85	3229.65
404.06	3346.38
404.27	3196.88
404.49	3297.23
404.70	3252.17
404.91	3319.76
405.12	3207.12
405.34	3411.92
405.55	3411.92
405.76	3266.51
405.97	3293.13
406.19	3526.60
406.40	3301.33
406.61	3401.68
406.82	3422.16
407.03	3385.29
407.25	3303.37
407.46	3471.31
407.67	3528.65
407.88	3573.71
408.09	3434.44
408.31	3446.73
408.52	3428.30
408.73	3446.73
408.94	3360.72
409.15	3520.46
409.37	3510.22
409.58	3629.00
409.79	3641.29
410.00	3657.67
410.21	3497.93
410.43	3561.42
410.64	3481.55
410.85	3659.72
411.06	3581.90
411.27	3684.30
411.48	3694.54
411.70	3639.24
411.91	3680.20
412.12	3704.78
412.33	3698.63
412.54	3553.23
412.76	3839.94
412.97	3721.16
413.18	3610.57
413.39	3690.44
413.60	3661.77
413.81	3700.68
414.03	3688.39
414.24	3762.12
414.45	3880.90
414.66	3653.58
414.87	3831.75
415.08	3786.69
415.30	3751.88
415.51	3874.76
415.72	3751.88
415.93	3915.72
416.14	3936.20
416.35	3827.65
416.56	3938.24
416.78	3923.91
416.99	3960.77
417.20	3870.66
417.41	3979.20
417.62	3987.40
417.83	3995.59
418.04	3991.49
418.26	4007.87
418.47	3985.35
418.68	4153.28
418.89	4126.66
419.10	4118.47
419.31	4009.92
419.52	4050.88
419.73	4026.31
419.95	4165.57
420.16	3907.52
420.37	4065.22
420.58	4079.55
420.79	4044.74
421.00	3991.49
421.21	4159.42
421.42	4030.40
421.63	4163.52
421.85	4089.79
422.06	4196.29
422.27	4353.98
422.48	4233.15
422.69	4245.44
422.90	4337.60
423.11	4263.87
423.32	4317.12
423.53	4300.73
423.75	4435.90
423.96	4505.53
424.17	4399.04
424.38	4427.71
424.59	4345.79
424.80	4605.88
425.01	4489.15
425.22	4409.28
425.43	4413.37
425.64	4632.51
425.85	4648.89
426.06	4509.63
426.28	4519.87
426.49	4483.00
426.70	4597.69
426.91	4677.56
427.12	4528.06
427.33	4665.27
427.54	4636.60
427.75	4622.27
427.96	4872.12
428.17	4706.23
428.38	4933.56
428.59	4872.12
428.80	4833.21
429.01	4937.65
429.23	4820.92
429.44	5083.06
429.65	5029.81
429.86	4943.80
430.07	4921.27
430.28	4773.82
430.49	4966.32
430.70	5179.31
430.91	5064.63
431.12	4992.95
431.33	5091.25
431.54	5156.79
431.75	5236.66
431.96	5095.35
432.17	5191.60
432.38	5179.31
432.59	5373.87
432.80	5289.90
433.01	5439.40
433.22	5373.87
433.43	5306.29
433.64	5345.20
433.85	5156.79
434.06	5435.31
434.27	5406.64
434.49	5398.45
434.70	5545.90
434.91	5484.46
435.12	5511.08
435.33	5488.56
435.54	5539.76
435.75	5447.60
435.96	5492.65
436.17	5347.25
436.38	5619.63
436.59	5746.60
436.80	5535.66
437.01	5797.80
437.22	5822.38
437.43	5777.32
437.64	5492.65
437.85	5756.84
438.06	5746.60
438.27	5797.80
438.48	5732.26
438.69	5914.53
438.90	5916.58
439.11	5805.99
439.32	5924.77
439.53	5777.32
439.74	5871.53
439.95	6012.84
440.16	5914.53
440.37	5971.88
440.57	5810.09
440.78	6115.23
440.99	6055.84
441.20	6076.32
441.41	5951.40
441.62	6143.91
441.83	5992.36
442.04	6262.69
442.25	6297.50
442.46	5953.45
442.67	6305.70
442.88	6639.51
443.09	6254.50
443.30	6180.77
443.51	6348.70
443.72	6481.82
443.93	6225.82
444.14	6541.21
444.35	6295.46
444.56	6350.75
444.77	6373.28
444.98	6498.20
445.19	6578.08
445.40	6500.25
445.61	6571.93
445.81	6801.30
446.02	6668.19
446.23	6696.86
446.44	6471.58
446.65	6657.95
446.86	6698.91
447.07	6762.39
447.28	6739.87
447.49	6881.18
447.70	6735.77
447.91	6868.89
448.12	6899.61
448.33	6932.37
448.54	7083.92
448.74	6862.74
448.95	7008.15
449.16	6832.02
449.37	7268.24
449.58	6942.61
449.79	7204.75
450.00	6901.65
450.21	7268.24
450.42	7155.60
450.63	7262.10
450.84	7135.12
451.05	7354.26
451.25	7065.49
451.46	7223.19
451.67	7438.22
451.88	7319.44
452.09	7282.58
452.30	7075.73
452.51	7292.82
452.72	7440.27
452.93	7628.68
453.13	7438.22
453.34	7384.98
453.55	7530.38
453.76	7698.31
453.97	8007.56
454.18	7673.74
454.39	7942.02
454.60	7960.45
454.81	7778.19
455.01	8007.56
455.22	7774.09
455.43	7917.45
455.64	8056.71
455.85	8267.65
456.06	8157.06
456.27	7954.31
456.48	8005.51
456.68	8187.78
456.89	8294.27
457.10	8130.44
457.31	8243.07
457.52	8116.10
457.73	8324.99
457.94	8548.22
458.14	8089.48
458.35	8691.58
458.56	8437.63
458.77	8488.83
458.98	8449.92
459.19	8605.56
459.39	8548.22
459.60	8742.78
459.81	8611.71
460.02	8681.34
460.23	8720.25
460.44	8904.57
460.65	8920.95
460.85	8800.12
461.06	9023.35
461.27	8775.55
461.48	9097.08
461.69	9144.18
461.89	8961.91
462.10	9056.12
462.31	8927.10
462.52	9054.07
462.73	9383.79
462.94	9398.13
463.14	9449.33
463.35	9226.10
463.56	9690.99
463.77	9576.30
463.98	9379.70
464.18	9619.31
464.39	9668.46
464.60	9697.13
464.81	9879.40
465.02	9699.18
465.23	10022.76
465.43	9787.24
465.64	10235.75
465.85	10004.33
466.06	9899.88
466.27	10383.20
466.47	10329.95
466.68	10264.42
466.89	10153.83
467.10	10481.50
467.30	9973.61
467.51	10452.83
467.72	10825.56
467.93	10264.42
468.14	10518.37
468.34	10663.77
468.55	10741.60
468.76	10719.07
468.97	10614.62
469.17	11056.98
469.38	10964.82
469.59	11077.46
469.80	10817.37
470.01	11095.89
470.21	10970.97
470.42	11020.12
470.63	11335.51
470.84	11091.80
471.04	11226.96
471.25	11698.00
471.46	11278.16
471.67	11759.44
471.87	11530.06
472.08	11626.32
472.29	11687.76
472.50	11657.04
472.70	11611.98
472.91	11775.82
473.12	11964.23
473.33	11921.23
473.53	12085.06
473.74	12103.50
473.95	12347.20
474.16	12285.76
474.36	12398.40
474.57	12609.34
474.78	12816.19
474.99	12721.98
475.19	12746.56
475.40	13107.00
475.61	13276.98
475.81	13180.73
476.02	13248.31
476.23	13002.55
476.44	13418.29
476.64	13363.00
476.85	13780.78
477.06	13535.03
477.27	13795.12
477.47	13668.14
477.68	13770.54
477.89	14073.64
478.09	14034.73
478.30	14094.12
478.51	14100.26
478.71	14366.50
478.92	14442.28
479.13	14296.87
479.34	14735.14
479.54	14661.41
479.75	14536.48
479.96	14563.11
480.16	14862.11
480.37	14630.69
480.58	15097.63
480.78	15206.17
480.99	15286.04
481.20	15322.90
481.41	15394.58
481.61	15642.39
481.82	15750.93
482.03	15511.32
482.23	15757.07
482.44	15884.05
482.65	15996.68
482.85	16160.52
483.06	15765.26
483.27	16131.85
483.47	16320.26
483.68	16287.50
483.89	16477.96
484.09	16375.56
484.30	16310.02
484.51	16764.67
484.71	16828.16
484.92	16854.78
485.13	17084.16
485.33	17088.25
485.54	17030.91
485.75	17180.41
485.95	17377.01
486.16	17325.82
486.37	17616.63
486.57	17665.78
486.78	17604.34
486.98	17751.79
487.19	17811.18
487.40	17899.25
487.60	17952.49
487.81	18329.32
488.02	18292.46
488.22	18007.79
488.43	18398.95
488.64	18364.14
488.84	18484.97
489.05	18738.91
489.25	18775.78
489.46	18824.93
489.67	18790.11
489.87	19144.41
490.08	19224.28
490.29	19214.04
490.49	19607.25
490.70	19744.47
490.90	19488.47
491.11	19801.81
491.32	19844.82
491.52	19930.83
491.73	20158.16
491.94	20139.72
492.14	19945.17
492.35	20481.74
492.55	20436.68
492.76	20373.19
492.97	20858.56
493.17	20764.36
493.38	20416.20
493.58	21208.76
493.79	21026.50
494.00	21065.41
494.20	21388.99
494.41	21124.80
494.61	21319.35
494.82	21339.83
495.02	21417.66
495.23	21290.68
495.44	21354.17
495.64	21964.46
495.85	21900.98
496.05	21980.85
496.26	21925.55
496.47	22185.65
496.67	22195.89
496.88	22427.31
497.08	22058.67
497.29	22464.17
497.49	22404.78
497.70	22595.24
497.91	22912.67
498.11	22914.72
498.32	23064.22
498.52	23021.22
498.73	23391.90
498.93	23117.47
499.14	23297.69
499.34	23154.33
499.55	23633.56
499.76	23594.65
499.96	23660.18
500.17	23750.29
500.37	23588.50
500.58	23711.38
500.78	23725.72
500.99	24026.77
501.19	24116.88
501.40	24129.17
501.60	23844.50
501.81	24256.14
502.02	24286.86
502.22	24135.31
502.43	24516.23
502.63	24944.26
502.84	24825.48
503.04	24993.41
503.25	25089.67
503.45	24964.74
503.66	24886.92
503.86	24997.51
504.07	25273.98
504.27	25212.54
504.48	25552.51
504.68	25450.11
504.89	25878.13
505.09	25708.15
505.30	25546.36
505.50	25589.37
505.71	25677.43
505.91	25960.05
506.12	26029.68
506.32	26017.40
506.53	26148.46
506.73	26109.55
506.94	26224.24
507.14	26156.66
507.35	26406.51
507.55	26537.58
507.76	26648.17
507.96	26449.52
508.17	26578.54
508.37	26889.83
508.58	26750.57
508.78	26830.44
508.99	27205.22
509.19	27151.97
509.40	27231.84
509.60	26932.84
509.81	27342.43
510.01	27092.58
510.22	27403.87
510.42	27276.90
510.63	27317.86
510.83	27287.14
511.04	27645.53
511.24	27606.62
511.44	27772.50
511.65	27586.14
511.85	27670.11
512.06	28048.98
512.26	27887.19
512.47	28159.57
512.67	28229.20
512.88	28098.13
513.08	27772.50
513.29	28388.94
513.49	28091.99
513.69	28364.37
513.90	28546.64
514.10	28479.05
514.31	28210.77
514.51	28366.42
514.72	28982.85
514.92	28503.63
515.13	28800.58
515.33	29019.72
515.53	28782.15
515.74	28841.54
515.94	28941.89
516.15	29136.45
516.35	28855.88
516.56	28941.89
516.76	29279.81
516.96	29161.03
517.17	29152.84
517.37	29150.79
517.58	29351.49
517.78	29500.99
517.99	29505.09
518.19	29978.17
518.39	29996.60
518.60	29937.21
518.80	29720.12
519.01	29744.70
519.21	29943.35
519.41	30129.72
519.62	30074.42
519.82	30314.03
520.03	30191.16
520.23	30314.03
520.43	30223.92
520.64	30260.79
520.84	30365.23
521.05	30148.15
521.25	30651.95
521.45	31022.63
521.66	30809.64
521.86	30934.57
522.07	30901.80
522.27	30969.38
522.47	30856.75
522.68	31196.71
522.88	30551.60
523.08	31209.00
523.29	31446.56
523.49	31325.73
523.70	31301.15
523.90	31526.43
524.10	31686.17
524.31	31622.69
524.51	31764.00
524.71	32056.85
524.92	31944.22
525.12	32175.64
525.33	31817.24
525.53	32130.58
525.73	32306.71
525.94	32327.19
526.14	32304.66
526.34	32474.64
526.55	32601.61
526.75	32300.56
526.95	32755.21
527.16	32480.78
527.36	32615.95
527.56	32871.95
527.77	33011.21
527.97	32947.72
528.17	33179.14
528.38	33113.61
528.58	32953.87
528.78	33347.08
528.99	33158.66
529.19	33635.84
529.39	33125.89
529.60	33445.38
529.80	33531.39
530.00	33449.47
530.21	34147.83
530.41	33926.65
530.61	33601.02
530.82	33803.77
531.02	33854.97
531.22	33822.20
531.43	33863.16
531.63	34346.48
531.83	34616.82
532.04	34762.22
532.24	34457.07
532.44	34792.94
532.64	34629.10
532.85	34958.83
533.05	34774.51
533.25	34889.20
533.46	35059.18
533.66	35427.81
533.86	34995.69
534.07	35501.54
534.27	35096.04
534.47	35644.90
534.67	35411.43
534.88	35294.69
535.08	35540.45
535.28	35446.24
535.49	35886.56
535.69	36222.42
535.89	36009.43
536.09	36292.05
536.30	36115.93
536.50	36414.93
536.70	36345.30
536.91	36421.08
537.11	36554.19
537.31	36300.25
537.51	36832.72
537.72	37025.23
537.92	36752.85
538.12	36904.40
538.32	36445.65
538.53	36769.23
538.73	37039.56
538.93	36939.21
539.13	36728.27
539.34	37191.11
539.54	37238.22
539.74	37379.53
539.94	37694.91
540.15	37342.66
540.35	37492.16
540.55	37637.57
540.75	37662.15
540.96	37576.13
541.16	37840.32
541.36	37651.91
541.56	38049.21
541.77	38536.63
541.97	37866.94
542.17	37916.09
542.37	38135.23
542.58	38475.19
542.78	38223.29
542.98	38155.71
543.18	38583.73
543.38	38659.51
543.59	38606.26
543.79	38458.81
543.99	38624.69
544.19	38854.06
544.40	38608.31
544.60	39003.56
544.80	38380.98
545.00	38759.86
545.20	39269.80
545.41	39050.67
545.61	39052.72
545.81	39306.66
546.01	39372.20
546.21	39122.35
546.42	38921.65
546.62	39540.13
546.82	39142.83
547.02	39482.79
547.22	39656.87
547.43	39292.33
547.63	39431.59
547.83	39738.79
548.03	39218.60
548.23	40060.32
548.44	39935.39
548.64	39882.14
548.84	40068.51
549.04	39861.66
549.24	40240.54
549.45	39630.24
549.65	40017.31
549.85	40383.90
550.05	40146.33
550.25	40387.99
550.45	40666.52
550.66	40553.88
550.86	40121.76
551.06	40418.71
551.26	40236.44
551.46	40547.73
551.66	40766.87
551.87	40377.75
552.07	40797.59
552.27	40828.30
552.47	40893.84
552.67	40942.99
552.87	40689.04
553.07	40895.89
553.28	41080.21
553.48	41422.22
553.68	41104.78
553.88	41516.42
554.08	41389.45
554.28	41270.67
554.48	41340.30
554.69	41252.23
554.89	41307.53
555.09	41467.27
555.29	41004.43
555.49	41606.53
555.69	41119.12
555.89	41411.98
556.10	41688.45
556.30	41526.66
556.50	41837.95
556.70	41825.67
556.90	41739.65
557.10	41915.78
557.30	41512.33
557.50	42235.26
557.70	42044.80
557.91	42204.54
558.11	42347.90
558.31	42331.51
558.51	42124.67
558.71	42370.43
558.91	42370.43
559.11	42071.42
559.31	42358.14
559.51	42038.65
559.72	42724.72
559.92	42558.84
560.12	42315.13
560.32	42831.22
560.52	42673.52
560.72	42530.17
560.92	42771.83
561.12	42806.64
561.32	43287.92
561.52	42761.59
561.72	43228.52
561.93	42657.14
562.13	42767.73
562.33	42628.47
562.53	43535.72
562.73	42999.15
562.93	42923.38
563.13	43562.34
563.33	43193.71
563.53	43193.71
563.73	43277.68
563.93	43595.11
564.13	43951.46
564.33	43541.86
564.53	43629.93
564.74	43691.37
564.94	43443.56
565.14	43541.86
565.34	43967.84
565.54	43935.07
565.74	44008.80
565.94	43914.59
566.14	43947.36
566.34	43818.34
566.54	44115.29
566.74	43746.66
566.94	44459.35
567.14	44574.04
567.34	44021.09
567.54	44348.76
567.74	44172.64
567.94	43703.65
568.14	44674.39
568.34	44545.37
568.54	44598.62
568.74	44836.18
568.94	44733.78
569.14	44901.71
569.34	44840.28
569.54	44891.48
569.75	44391.77
569.95	44750.17
570.15	45137.23
570.35	44770.64
570.55	44969.30
570.75	45018.45
570.95	45272.40
571.15	45686.09
571.35	45307.21
571.55	45440.33
571.75	45131.09
571.95	45643.08
572.15	45372.75
572.35	45591.88
572.55	45849.92
572.75	45643.08
572.95	45819.20
573.15	46056.77
573.35	45980.99
573.55	45360.46
573.75	46103.87
573.95	46110.02
574.15	45600.07
574.35	45933.89
574.55	46114.11
574.75	46054.72
574.95	46349.63
575.15	46146.88
575.34	46423.36
575.54	46579.00
575.74	46708.02
575.94	46937.40
576.14	46984.50
576.34	46912.82
576.54	47105.33
576.74	46951.73
576.94	47078.71
577.14	47213.87
577.34	47482.16
577.54	46982.45
577.74	47228.21
577.94	47308.08
578.14	47727.91
578.34	47783.21
578.54	47148.34
578.74	47453.48
578.94	47803.69
579.14	47934.76
579.34	47805.73
579.54	48047.39
579.74	48538.91
579.94	48149.79
580.13	48338.21
580.33	47838.50
580.53	48200.99
580.73	48143.65
580.93	48393.50
581.13	48039.20
581.33	48469.28
581.53	48731.42
581.73	48925.97
581.93	48549.15
582.13	48549.15
582.33	48764.18
582.53	48598.30
582.73	49267.98
582.92	49231.12
583.12	49462.54
583.32	49200.40
583.52	49091.86
583.72	49126.67
583.92	49112.34
584.12	49489.16
584.32	49808.65
584.52	49329.42
584.72	49392.91
584.92	49890.57
585.11	50570.49
585.31	49775.88
585.51	50009.35
585.71	49431.82
585.91	50087.17
586.11	49816.84
586.31	50148.61
586.51	49941.77
586.71	50226.43
586.91	50533.63
587.10	50537.72
587.30	50767.10
587.50	50453.76
587.70	50642.17
587.90	50566.40
588.10	50511.10
588.30	50627.84
588.50	51125.49
588.69	50877.69
588.89	50674.94
589.09	50894.07
589.29	50828.54
589.49	51295.47
589.69	50914.55
589.89	51358.96
590.08	51369.20
590.28	51168.50
590.48	51238.13
590.68	51250.42
590.88	51213.55
591.08	51422.45
591.28	51430.64
591.47	51846.38
591.67	51563.76
591.87	51440.88
592.07	51643.63
592.27	51717.35
592.47	51922.15
592.67	51975.40
592.86	51983.59
593.06	52425.95
593.26	52083.94
593.46	52051.17
593.66	51926.25
593.86	52471.01
594.05	52294.88
594.25	52129.00
594.45	52100.32
594.65	52430.05
594.85	51864.81
595.05	52540.64
595.24	53023.96
595.44	52538.59
595.64	52454.62
595.84	52239.59
596.04	52696.28
596.23	52933.85
596.43	53343.44
596.63	52462.82
596.83	53189.84
597.03	53349.59
597.22	53683.40
597.42	53374.16
597.62	53671.12
597.82	53533.90
598.02	53492.94
598.21	53312.72
598.41	53247.19
598.61	53200.08
598.81	53503.18
599.01	53683.40
599.20	53705.93
599.40	53195.99
599.60	54023.37
599.80	53738.70
600.00	53845.19
600.19	54193.35
600.39	53486.80
600.59	54019.27
600.79	54207.68
600.98	54031.56
601.18	54348.99
601.38	54011.08
601.58	54387.91
601.78	54281.41
601.97	54441.15
602.17	54658.24
602.37	54498.50
602.57	54662.33
602.76	54621.37
602.96	54373.57
603.16	54963.39
603.36	54768.83
603.55	54762.68
603.75	54639.81
603.95	54985.91
604.15	54981.82
604.34	54822.08
604.54	55243.96
604.74	55127.22
604.94	55051.45
605.13	55256.24
605.33	55043.26
605.53	55194.81
605.73	55545.01
605.92	54957.24
606.12	55241.91
606.32	55631.02
606.52	54967.48
606.71	55162.04
606.91	55631.02
607.11	54953.15
607.30	55708.85
607.50	56073.38
607.70	55420.08
607.90	55573.68
608.09	55440.56
608.29	55674.03
608.49	55973.03
608.68	55925.93
608.88	56061.10
609.08	55960.75
609.28	55975.08
609.47	55393.46
609.67	56173.73
609.87	55993.51
610.06	55540.91
610.26	55915.69
610.46	55936.17
610.66	55583.92
610.85	55661.74
611.05	55665.84
611.25	56112.30
611.44	55891.12
611.64	55803.05
611.84	55870.64
612.03	55674.03
612.23	55946.41
612.43	55993.51
612.62	56136.87
612.82	56315.04
613.02	55946.41
613.21	56439.97
613.41	55956.65
613.61	56167.59
613.80	55895.21
614.00	55868.59
614.20	56071.34
614.39	56143.02
614.59	56235.17
614.79	56100.01
614.98	56138.92
615.18	55723.18
615.38	55948.46
615.57	56073.38
615.77	56157.35
615.97	56063.14
616.16	56120.49
616.36	55743.66
616.56	55637.17
616.75	55880.88
616.95	55620.78
617.15	56194.21
617.34	56126.63
617.54	56433.83
617.74	56153.26
617.93	56243.37
618.13	55801.00
618.32	56300.71
618.52	55735.47
618.72	55788.72
618.91	55571.63
619.11	55606.45
619.31	55827.63
619.50	55712.94
619.70	55438.51
619.90	55940.27
620.09	55827.63
620.29	55395.51
620.48	55825.58
620.68	56016.04
620.88	55162.04
621.07	55727.28
621.27	55966.89
621.46	55235.77
621.66	55579.82
621.86	55620.78
622.05	55569.58
622.25	55819.44
622.44	55137.46
622.64	54961.34
622.84	55946.41
623.03	55121.08
623.23	55379.12
623.42	55540.91
623.62	54916.28
623.82	55655.60
624.01	55039.16
624.21	55395.51
624.40	55203.00
624.60	55289.01
624.80	55338.16
624.99	55252.15
625.19	54592.70
625.38	55567.54
625.58	55014.58
625.77	55743.66
625.97	55442.61
626.17	54793.40
626.36	55051.45
626.56	55319.73
626.75	54396.10
626.95	55370.93
627.14	54801.60
627.34	55717.04
627.54	54717.63
627.73	55035.06
627.93	55334.07
628.12	54828.22
628.32	55100.60
628.51	55129.27
628.71	55094.46
628.90	54854.84
629.10	55301.30
629.30	55395.51
629.49	54824.12
629.69	54994.10
629.88	54840.51
630.08	55696.56
630.27	55573.68
630.47	54963.39
630.66	54817.98
630.86	55293.11
631.05	54500.54
631.25	55073.98
631.44	55266.48
631.64	54791.36
631.84	55338.16
632.03	55276.72
632.23	54836.41
632.42	55524.53
632.62	55016.63
632.81	54498.50
633.01	54897.85
633.20	55139.51
633.40	55153.85
633.59	54963.39
633.79	54615.23
633.98	54711.49
634.18	54852.80
634.37	54918.33
634.57	54580.42
634.76	54836.41
634.96	55112.89
635.15	54697.15
635.35	54940.86
635.54	54809.79
635.74	54903.99
635.93	54500.54
636.13	55059.64
636.32	54607.04
636.52	54535.36
636.71	54965.43
636.91	54672.57
637.10	55129.27
637.30	54817.98
637.49	54631.61
637.69	54828.22
637.88	54944.95
638.08	54572.22
638.27	54803.64
638.46	54691.01
638.66	54566.08
638.85	54846.65
639.05	54699.20
639.24	55108.79
639.44	54656.19
639.63	54953.15
639.83	55170.23
640.02	55002.30
640.22	55071.93
640.41	54834.36
640.61	54701.25
640.80	54924.47
640.99	55006.39
641.19	55399.60
641.38	55116.98
641.58	54648.00
641.77	54940.86
641.97	54535.36
642.16	55139.51
642.36	55397.55
642.55	55305.40
642.74	54949.05
642.94	55628.98
643.13	54648.00
643.33	55350.45
643.52	55108.79
643.72	55008.44
643.91	54828.22
644.10	54998.20
644.30	54975.67
644.49	54906.04
644.69	55463.09
644.88	54901.95
645.08	54250.69
645.27	55057.59
645.46	54457.54
645.66	54779.07
645.85	54801.60
646.05	55262.39
646.24	55477.43
646.43	55080.12
646.63	55530.67
646.82	55407.79
647.02	54871.23
647.21	55811.24
647.40	54842.56
647.60	55327.92
647.79	55235.77
647.99	55674.03
648.18	54981.82
648.37	55917.74
648.57	55497.91
648.76	55430.32
648.96	55043.26
649.15	55770.28
649.34	55723.18
649.54	55442.61
649.73	55458.99
649.92	55370.93
650.12	55489.71
650.31	55246.00
650.51	55768.24
650.70	55645.36
650.89	55907.50
651.09	56409.25
651.28	55755.95
651.47	55407.79
651.67	55958.70
651.86	55956.65
652.06	55153.85
652.25	55852.20
652.44	55618.74
652.64	55530.67
652.83	55608.50
653.02	55334.07
653.22	55776.43
653.41	55321.78
653.60	55229.62
653.80	55127.22
653.99	55835.82
654.18	55616.69
654.38	55729.33
654.57	55706.80
654.76	55688.37
654.96	55432.37
655.15	55714.99
655.34	55456.95
655.54	55547.06
655.73	55823.53
655.92	55755.95
656.12	55821.48
656.31	55776.43
656.50	55942.31
656.70	55702.70
656.89	55432.37
657.08	56022.19
657.28	55983.27
657.47	55841.96
657.66	56159.40
657.86	55747.76
658.05	56194.21
658.24	55927.98
658.43	55731.37
658.63	56251.56
658.82	55907.50
659.01	56177.83
659.21	56374.44
659.40	56186.02
659.59	55977.13
659.79	56382.63
659.98	56140.97
660.17	56489.12
660.36	56263.85
660.56	56018.09
660.75	55956.65
660.94	56349.86
661.14	56100.01
661.33	56417.44
661.52	55692.46
661.71	56048.81
661.91	56153.26
662.10	55952.55
662.29	56720.54
662.49	56698.01
662.68	56394.92
662.87	55964.84
663.06	56804.51
663.26	56702.11
663.45	56970.39
663.64	56155.30
663.83	57062.55
664.03	56919.20
664.22	56546.47
664.41	56771.74
664.60	56100.01
664.80	56528.03
664.99	56487.07
665.18	55997.61
665.37	56501.41
665.57	56685.73
665.76	56325.28
665.95	56755.36
666.14	56792.22
666.34	56718.49
666.53	56700.06
666.72	56267.94
666.91	56388.77
667.11	56134.82
667.30	56435.87
667.49	56521.89
667.68	56333.48
667.87	56470.69
668.07	56890.52
668.26	56593.57
668.45	56753.31
668.64	56691.87
668.84	57218.20
669.03	56999.07
669.22	56833.18
669.41	56681.63
669.60	57259.16
669.80	56614.05
669.99	57324.69
670.18	56788.13
670.37	57033.88
670.57	57136.28
670.76	56382.63
670.95	57420.95
671.14	56894.62
671.33	56861.85
671.53	57123.99
671.72	57308.31
671.91	56982.68
672.10	56820.89
672.29	57187.48
672.48	56710.30
672.68	57353.36
672.87	56976.54
673.06	56898.72
673.25	56845.47
673.44	56497.31
673.64	56751.26
673.83	56759.45
674.02	56824.99
674.21	56435.87
674.40	57445.52
674.59	56781.98
674.79	56915.10
674.98	56581.28
675.17	56562.85
675.36	56591.52
675.55	57033.88
675.74	56722.59
675.94	56933.53
676.13	57271.45
676.32	57275.54
676.51	57205.91
676.70	57212.06
676.89	57619.60
677.08	57066.65
677.28	56874.14
677.47	57150.62
677.66	57648.27
677.85	57042.07
678.04	57291.93
678.23	57420.95
678.42	56847.52
678.62	57332.89
678.81	57668.75
679.00	57226.39
679.19	57500.82
679.38	57152.66
679.57	57164.95
679.76	56814.75
679.96	57156.76
680.15	57181.34
680.34	57087.13
680.53	57341.08
680.72	57277.59
680.91	57238.68
681.10	57203.86
681.29	57226.39
681.48	57189.53
681.68	57261.21
681.87	57005.21
682.06	57070.75
682.25	56595.62
682.44	57058.46
682.63	57478.29
682.82	57003.16
683.01	56865.95
683.20	56667.30
683.39	56978.59
683.59	56759.45
683.78	57242.77
683.97	57146.52
684.16	56822.94
684.35	56919.20
684.54	57011.35
684.73	56865.95
684.92	57001.11
685.11	56695.97
685.30	57046.17
685.49	57144.47
685.69	56898.72
685.88	57291.93
686.07	56911.00
686.26	57193.62
686.45	57054.36
686.64	56763.55
686.83	56640.67
687.02	57042.07
687.21	57283.73
687.40	57326.74
687.59	56890.52
687.78	56876.19
687.97	57089.18
688.16	57224.34
688.35	56853.66
688.54	56931.48
688.74	57037.98
688.93	56706.21
689.12	56949.92
689.31	56831.13
689.50	57136.28
689.69	56612.00
689.88	56497.31
690.07	56822.94
690.26	56798.37
690.45	57207.96
690.64	56525.99
690.83	56550.56
691.02	56573.09
691.21	56313.00
691.40	56644.77
691.59	56857.76
691.78	56448.16
691.97	57275.54
692.16	56736.93
692.35	57162.90
692.54	57115.80
692.73	56497.31
692.92	56988.83
693.11	56808.61
693.30	56556.70
693.49	56669.34
693.68	56366.24
693.87	56550.56
694.06	56042.66
694.25	56792.22
694.44	56267.94
694.63	56138.92
694.82	56781.98
695.01	56616.10
695.20	56237.22
695.39	56302.76
695.58	56960.15
695.77	56669.34
695.96	56194.21
696.15	56399.01
696.34	56087.72
696.53	56505.51
696.72	56194.21
696.91	56439.97
697.10	56716.45
697.29	56341.67
697.48	56405.16
697.67	56198.31
697.86	56136.87
698.05	56089.77
698.24	56745.12
698.43	55753.90
698.62	56165.54
698.81	55628.98
699.00	56376.48
699.19	55899.31
699.38	55884.97
699.57	55833.77
699.76	56564.90
699.95	55934.12
700.14	55571.63
700.32	56091.82
700.51	55821.48
700.70	56403.11
700.89	56167.59
701.08	56138.92
701.27	55727.28
701.46	56452.26
701.65	55502.00
701.84	55860.40
702.03	56028.33
702.22	55755.95
702.41	55688.37
702.60	55688.37
702.79	55436.47
702.98	55354.55
703.17	55684.27
703.35	55233.72
703.54	55309.49
703.73	55710.89
703.92	55522.48
704.11	55579.82
704.30	55086.26
704.49	55393.46
704.68	55299.25
704.87	55491.76
705.06	55047.35
705.25	55098.55
705.43	55172.28
705.62	55456.95
705.81	55469.23
706.00	55342.26
706.19	55153.85
706.38	55188.66
706.57	54858.94
706.76	54908.09
706.95	55100.60
707.14	54695.10
707.32	54797.50
707.51	54754.49
707.70	54875.32
707.89	55264.44
708.08	54707.39
708.27	55239.86
708.46	55258.29
708.65	54645.95
708.84	55190.71
709.02	55059.64
709.21	55112.89
709.40	54963.39
709.59	54830.27
709.78	54308.04
709.97	54643.90
710.16	53963.98
710.34	54643.90
710.53	54555.84
710.72	54633.66
710.91	54598.85
711.10	54664.38
711.29	54725.82
711.48	54750.40
711.66	54482.11
711.85	53853.39
712.04	54596.80
712.23	54301.89
712.42	54082.76
712.61	54478.02
712.80	53951.69
712.98	54385.86
713.17	54248.64
713.36	54213.83
713.55	54138.05
713.74	53884.11
713.93	54205.64
714.11	54127.81
714.30	53794.00
714.49	54084.81
714.68	54258.88
714.87	54125.77
715.06	54328.52
715.24	53761.23
715.43	54109.38
715.62	53327.06
715.81	53640.40
716.00	54090.95
716.18	53382.35
716.37	52983.00
716.56	53056.73
716.75	53413.07
716.94	53486.80
717.12	52849.88
717.31	53421.26
717.50	53408.98
717.69	53353.68
717.88	53460.18
718.06	52985.05
718.25	53462.22
718.44	52860.12
718.63	52813.02
718.82	52471.01
719.00	52843.74
719.19	52876.51
719.38	52436.19
719.57	52481.25
719.76	52180.20
719.94	52022.50
720.13	52761.82
720.32	52516.06
720.51	52415.71
720.69	52636.89
720.88	52290.79
721.07	52172.00
721.26	51852.52
721.44	51920.10
721.63	52139.24
721.82	51623.15
722.01	52206.82
722.20	52190.44
722.38	51668.20
722.57	51440.88
722.76	51623.15
722.95	51592.43
723.13	50996.47
723.32	51094.77
723.51	51252.47
723.70	51127.54
723.88	51436.78
724.07	51186.93
724.26	51502.32
724.44	50713.85
724.63	51582.19
724.82	51358.96
725.01	51152.12
725.19	51057.91
725.38	50736.38
725.57	50844.92
725.76	50814.20
725.94	50603.26
726.13	50861.30
726.32	50701.56
726.51	50611.45
726.69	50832.63
726.88	50756.86
727.07	50521.34
727.25	50345.22
727.44	50574.59
727.63	50351.36
727.82	50781.43
728.00	50715.90
728.19	50134.28
728.38	50758.91
728.56	49878.28
728.75	50494.72
728.94	49990.92
729.12	50652.41
729.31	50709.75
729.50	50005.25
729.69	50484.48
729.87	49939.72
730.06	49904.90
730.25	50148.61
730.43	50605.31
730.62	49874.18
730.81	50160.90
730.99	50709.75
731.18	49915.14
731.37	50238.72
731.55	50640.12
731.74	49935.62
731.93	49876.23
732.11	50337.02
732.30	49943.81
732.49	50019.59
732.67	49800.46
732.86	49523.98
733.05	50144.51
733.23	49585.42
733.42	50173.19
733.61	49317.14
733.79	49794.31
733.98	49837.32
734.17	49566.99
734.35	49947.91
734.54	49902.85
734.73	50068.74
734.91	49693.96
735.10	49661.19
735.29	50251.01
735.47	49145.11
735.66	49476.88
735.84	49593.61
736.03	49321.23
736.22	49478.92
736.40	49284.37
736.59	49614.09
736.78	49480.97
736.96	49184.02
737.15	49231.12
737.33	48661.79
737.52	48915.73
737.71	48831.77
737.89	49057.04
738.08	48755.99
738.27	48420.13
738.45	49155.35
738.64	48792.86
738.82	48755.99
739.01	48704.79
739.20	48637.21
739.38	48977.17
739.57	49087.76
739.75	48606.49
739.94	49128.72
740.13	49046.80
740.31	48731.42
740.50	48518.43
740.68	48571.67
740.87	48801.05
741.06	48565.53
741.24	48067.87
741.43	48327.97
741.61	48387.36
741.80	47686.95
741.99	48313.63
742.17	48053.54
742.36	48289.06
742.54	47887.65
742.73	48061.73
742.91	48200.99
743.10	48063.78
743.29	48301.34
743.47	48215.33
743.66	47904.04
743.84	48086.31
744.03	47686.95
744.21	47742.25
744.40	48755.99
744.59	47371.57
744.77	47648.04
744.96	47727.91
745.14	47945.00
745.33	47633.71
745.51	47484.20
745.70	47875.37
745.88	47224.11
746.07	47713.58
746.26	47381.80
746.44	47373.61
746.63	47877.41
746.81	47494.44
747.00	46949.68
747.18	47332.65
747.37	47103.28
747.55	47015.22
747.74	47369.52
747.92	46718.26
748.11	47023.41
748.29	47043.89
748.48	46773.56
748.66	46884.15
748.85	46767.41
749.03	46783.80
749.22	46890.29
749.41	46259.52
749.59	46574.91
749.78	46660.92
749.96	46339.39
750.15	46497.08
750.33	46548.28
750.52	46329.15
750.70	46275.90
750.89	45995.33
751.07	46345.53
751.26	46038.34
751.44	45960.51
751.63	46200.13
751.81	45849.92
752.00	45862.21
752.18	46140.74
752.37	45974.85
752.55	45690.18
752.74	45892.93
752.92	45839.68
753.10	45563.21
753.29	45542.73
753.47	45417.80
753.66	45499.72
753.84	45872.45
754.03	45561.16
754.21	45288.78
754.40	45516.11
754.58	45489.48
754.77	45321.55
754.95	45292.88
755.14	45016.40
755.32	45032.78
755.51	44897.62
755.69	44686.68
755.88	45049.17
756.06	44676.44
756.24	44703.06
756.43	44772.69
756.61	44922.19
756.80	44348.76
756.98	45047.12
757.17	44989.78
757.35	44627.29
757.54	44469.59
757.72	44819.80
757.90	44418.39
758.09	44340.57
758.27	44500.31
758.46	44365.15
758.64	44336.48
758.83	44598.62
759.01	44492.12
759.19	44205.41
759.38	44516.70
759.56	44637.53
759.75	44320.09
759.93	44232.03
760.12	43980.13
760.30	44166.49
760.48	43933.03
760.67	44111.20
760.85	43865.44
761.04	43728.23
761.22	43869.54
761.40	43738.47
761.59	43666.79
761.77	43492.71
761.96	43554.15
762.14	43619.69
762.32	43220.33
762.51	43173.23
762.69	43349.35
762.88	43453.80
763.06	43531.62
763.24	43091.31
763.43	43144.56
763.61	43212.14
763.80	43226.48
763.98	42902.90
764.16	43144.56
764.35	42798.45
764.53	42775.92
764.72	42634.61
764.90	43058.54
765.08	42734.96
765.27	43031.92
765.45	42614.13
765.63	42231.16
765.82	42919.28
766.00	42083.71
766.18	42272.12
766.37	42624.37
766.55	42268.03
766.74	42368.38
766.92	42206.59
767.10	42188.16
767.29	42225.02
767.47	41637.25
767.65	42143.10
767.84	41586.05
768.02	42132.86
768.20	41772.42
768.39	41999.74
768.57	41753.99
768.75	41936.26
768.94	41399.69
769.12	41606.53
769.30	41786.75
769.49	41153.93
769.67	41409.93
769.85	41104.78
770.04	41655.68
770.22	41268.62
770.40	41143.69
770.59	40717.71
770.77	41233.80
770.95	41080.21
771.14	40912.27
771.32	41029.01
771.50	40551.83
771.69	40433.05
771.87	40680.85
772.05	40560.02
772.24	40523.16
772.42	40592.79
772.60	40732.05
772.78	40621.46
772.97	40553.88
773.15	40562.07
773.33	40930.70
773.52	40162.72
773.70	40177.05
773.88	40684.95
774.07	39916.96
774.25	40009.12
774.43	40744.34
774.61	40080.80
774.80	40619.41
774.98	40121.76
775.16	40482.20
775.34	40578.45
775.53	40043.93
775.71	40623.51
775.89	40127.90
776.08	40572.31
776.26	40459.67
776.44	40474.01
776.62	40371.61
776.81	40613.27
776.99	40670.61
777.17	40541.59
777.35	40392.09
777.54	40732.05
777.72	40383.90
777.90	40457.62
778.08	40760.72
778.27	40334.74
778.45	40828.30
778.63	40818.07
778.81	40566.16
779.00	41182.60
779.18	40195.48
779.36	41112.97
779.54	40875.41
779.73	40455.57
779.91	40789.39
780.09	40641.94
780.27	41201.04
780.46	40891.79
780.64	40840.59
780.82	40684.95
781.00	40510.87
781.19	40916.37
781.37	40711.57
781.55	41237.90
781.73	41414.02
781.91	40916.37
782.10	41088.40
782.28	41239.95
782.46	41557.38
782.64	41379.21
782.82	40854.93
783.01	41219.47
783.19	41241.99
783.37	40942.99
783.55	40883.60
783.74	41545.09
783.92	40859.02
784.10	41354.63
784.28	41471.37
784.46	41100.68
784.64	41086.35
784.83	40887.70
785.01	41186.70
785.19	40990.09
785.37	41121.16
785.55	40916.37
785.74	40818.07
785.92	40742.29
786.10	41188.75
786.28	41162.12
786.46	40895.89
786.64	40586.64
786.83	40994.19
787.01	41133.45
787.19	40670.61
787.37	40730.00
787.55	40793.49
787.74	40785.30
787.92	40715.67
788.10	40328.60
788.28	40621.46
788.46	40658.32
788.64	40197.53
788.82	40766.87
789.01	40504.73
789.19	40996.24
789.37	40222.11
789.55	40293.79
789.73	40068.51
789.91	39832.99
790.09	40031.65
790.28	39998.88
790.46	40031.65
790.64	40177.05
790.82	39962.01
791.00	39269.80
791.18	39175.59
791.36	39564.71
791.55	39546.28
791.73	39380.39
791.91	39523.75
792.09	39003.56
792.27	39329.19
792.45	39089.58
792.63	38679.99
792.81	38792.62
793.00	38753.71
793.18	38874.54
793.36	38811.06
793.54	38829.49
793.72	38698.42
793.90	38669.75
794.08	38342.07
794.26	38110.65
794.44	38274.49
794.62	38118.84
794.81	38737.33
794.99	38303.16
795.17	38106.55
795.35	37993.92
795.53	38520.24
795.71	38178.23
795.89	37508.55
796.07	37723.58
796.25	37393.86
796.43	37406.15
796.61	37336.52
796.80	37486.02
796.98	37400.01
797.16	37369.29
797.34	37459.40
797.52	37000.65
797.70	37389.77
797.88	37172.68
798.06	37047.75
798.24	36918.73
798.42	37146.06
798.60	37045.71
798.78	37076.43
798.96	36828.62
799.14	36378.07
799.32	36570.58
799.51	36214.23
799.69	36253.14
799.87	36013.53
800.05	35864.03
800.23	36296.15
800.41	35284.45
800.59	35993.05
800.77	35542.50
800.95	35612.13
801.13	36120.02
801.31	35182.06
801.49	35528.16
801.67	35137.00
801.85	35374.56
802.03	35120.62
802.21	34794.99
802.39	35241.45
802.57	35028.46
802.75	34751.98
802.93	34874.86
803.11	35288.55
803.29	34520.56
803.47	34524.66
803.65	34641.39
803.83	34606.58
804.01	34289.14
804.19	34387.44
804.37	34133.50
804.55	34160.12
804.73	34379.25
804.91	34182.65
805.09	34135.54
805.27	33908.22
805.45	34092.54
805.63	33617.41
805.81	33592.83
805.99	34420.21
806.17	33826.30
806.35	33779.20
806.53	33527.30
806.71	33639.93
806.89	33539.58
807.07	33644.03
807.25	33166.85
807.43	33506.82
807.61	33478.15
807.79	33031.69
807.97	32931.34
808.15	33197.57
808.33	32478.74
808.51	32964.10
808.69	32830.99
808.87	32828.94
809.05	32718.35
809.23	32618.00
809.41	32556.56
809.59	32337.43
809.77	32388.63
809.95	32347.67
810.13	32511.50
810.31	32157.21
810.49	32407.06
810.67	32302.61
810.84	32435.73
811.02	32370.19
811.20	32001.56
811.38	31888.92
811.56	31659.55
811.74	31933.98
811.92	31217.19
812.10	31788.57
812.28	31878.68
812.46	31825.43
812.64	31731.23
812.82	31180.32
813.00	31585.82
813.18	31102.50
813.36	31247.91
813.53	30961.19
813.71	31213.09
813.89	30953.00
814.07	31288.87
814.25	31360.55
814.43	30883.37
814.61	30879.27
814.79	30623.28
814.97	31024.68
815.15	30983.72
815.33	30567.98
815.50	30709.29
815.68	30834.22
815.86	30768.68
816.04	30223.92
816.22	30225.97
816.40	30428.72
816.58	30514.73
816.76	30268.98
816.94	30228.02
817.11	30559.79
817.29	30244.40
817.47	30191.16
817.65	30055.99
817.83	30225.97
818.01	30092.85
818.19	30135.86
818.37	29849.14
818.54	29660.73
818.72	29593.15
818.90	30072.37
819.08	29607.48
819.26	29812.28
819.44	29509.18
819.62	29935.16
819.80	29703.74
819.97	29494.85
820.15	29503.04
820.33	29005.38
820.51	29470.27
820.69	29195.84
820.87	29273.67
821.05	29494.85
821.22	29167.17
821.40	29290.05
821.58	29134.40
821.76	29091.40
821.94	29167.17
822.12	28984.90
822.29	29075.01
822.47	28995.14
822.65	28927.56
822.83	28960.33
823.01	29193.79
823.19	28560.97
823.36	28751.43
823.54	28534.35
823.72	28849.74
823.90	28679.75
824.08	28354.13
824.25	28716.62
824.43	28544.59
824.61	28511.82
824.79	28460.62
824.97	28390.99
825.15	28442.19
825.32	28245.58
825.50	28376.66
825.68	28210.77
825.86	28264.02
826.04	28563.02
826.21	28266.06
826.39	28327.50
826.57	28319.31
826.75	28194.39
826.93	28075.60
827.10	27706.97
827.28	28194.39
827.46	27715.16
827.64	27973.21
827.81	27803.22
827.99	27471.45
828.17	27569.76
828.35	27639.39
828.53	27543.13
828.70	27360.86
828.88	27430.49
829.06	27369.05
829.24	27846.23
829.41	27547.23
829.59	27463.26
829.77	27383.39
829.95	27561.56
830.12	27342.43
830.30	27448.93
830.48	27580.00
830.66	27334.24
830.84	27520.60
831.01	27299.42
831.19	27403.87
831.37	27082.34
831.55	27002.47
831.72	26994.28
831.90	26863.21
832.08	27311.71
832.25	27158.11
832.43	26619.50
832.61	26805.86
832.79	26953.32
832.96	26719.85
833.14	26996.32
833.32	27098.72
833.50	27027.04
833.67	26664.55
833.85	26613.35
834.03	26433.13
834.20	26662.51
834.38	26508.91
834.56	26842.73
834.74	26517.10
834.91	26523.24
835.09	26330.73
835.27	26349.17
835.44	26250.86
835.62	26005.11
835.80	25982.58
835.98	26433.13
836.15	26814.05
836.33	26048.11
836.51	26162.80
836.68	26185.33
836.86	26267.25
837.04	26406.51
837.21	26228.34
837.39	26220.14
837.57	26179.18
837.75	26095.22
837.92	25857.65
838.10	25597.56
838.28	25882.23
838.45	25988.72
838.63	25441.92
838.81	25835.13
838.98	25671.29
839.16	25566.84
839.34	25609.85
839.51	25556.60
839.69	25493.12
839.87	25792.12
840.04	25433.72
840.22	25675.38
840.40	25290.37
840.57	25200.26
840.75	25605.75
840.93	25235.07
841.10	25519.74
841.28	25648.76
841.46	25443.96
841.63	25585.27
841.81	25355.90
841.98	25448.06
842.16	25175.68
842.34	25142.91
842.51	24985.22
842.69	25398.91
842.87	25233.02
843.04	25118.34
843.22	24862.34
843.40	24727.17
843.57	24802.95
843.75	25095.81
843.92	24956.55
844.10	24884.87
844.28	25017.99
844.45	24966.79
844.63	24960.64
844.81	24843.91
844.98	24741.51
845.16	24897.16
845.33	24837.76
845.51	24766.09
845.69	24635.02
845.86	24434.32
846.04	24651.40
846.21	24661.64
846.39	24493.71
846.57	24483.47
846.74	24413.84
846.92	24503.95
847.09	24483.47
847.27	24430.22
847.45	24450.70
847.62	24188.56
847.80	24444.56
847.97	24223.37
848.15	24538.76
848.32	24307.34
848.50	24415.88
848.68	24198.80
848.85	23910.04
849.03	24125.07
849.20	23848.60
849.38	24049.30
849.56	24239.76
849.73	23881.36
849.91	24184.46
850.08	24067.73
850.26	23916.18
850.43	23805.59
850.61	23666.33
850.78	23426.71
850.96	23766.68
851.14	23602.84
851.31	23692.95
851.49	23461.53
851.66	23729.81
851.84	23674.52
852.01	23690.90
852.19	23697.05
852.36	23627.42
852.54	23305.88
852.71	23686.81
852.89	23658.14
853.07	23721.62
853.24	23635.61
853.42	23447.19
853.59	23565.98
853.77	23287.45
853.94	23565.98
854.12	23582.36
854.29	23350.94
854.47	23522.97
854.64	23467.67
854.82	23287.45
854.99	23326.36
855.17	23295.64
855.34	23189.15
855.52	23170.72
855.69	23377.56
855.87	22994.59
856.04	22791.84
856.22	23154.33
856.39	22808.23
856.57	22939.30
856.74	22630.05
856.92	23119.52
857.09	22501.03
857.27	22922.91
857.44	23037.60
857.62	22781.60
857.79	22691.49
857.97	22675.11
858.14	22705.83
858.32	22675.11
858.49	22800.04
858.67	22632.10
858.84	22400.68
859.02	22449.83
859.19	22396.59
859.37	22455.98
859.54	22230.70
859.72	22470.31
859.89	22619.81
860.06	22329.00
860.24	22316.72
860.41	22781.60
860.59	22378.15
860.76	22488.74
860.94	22136.49
861.11	22488.74
861.29	22165.17
861.46	22306.48
861.64	22109.87
861.81	22101.68
861.98	22003.38
862.16	21677.75
862.33	21878.45
862.51	21894.83
862.68	22226.60
862.86	21696.18
863.03	21876.40
863.21	21978.80
863.38	22161.07
863.55	21823.16
863.73	21939.89
863.90	21751.48
864.08	21943.99
864.25	21673.65
864.43	21857.97
864.60	21558.97
864.77	21620.41
864.95	21552.82
865.12	21468.86
865.30	21601.97
865.47	21464.76
865.64	21481.14
865.82	21624.50
865.99	21565.11
866.17	21429.94
866.34	21380.79
866.51	21184.19
866.69	21210.81
866.86	21309.11
867.04	21102.27
867.21	21524.15
867.38	20876.99
867.56	21030.59
867.73	20809.41
867.91	20788.93
868.08	21128.89
868.25	21202.62
868.43	20940.48
868.60	20561.61
868.78	20938.43
868.95	20997.82
869.12	20788.93
869.30	20879.04
869.47	20940.48
869.64	20606.66
869.82	20848.32
869.99	20377.29
870.16	20836.03
870.34	20496.07
870.51	20725.44
870.69	20532.93
870.86	20696.77
871.03	20651.72
871.21	20489.93
871.38	20696.77
871.55	20180.68
871.73	20328.14
871.90	20229.84
872.07	20018.89
872.25	19992.27
872.42	19930.83
872.59	20192.97
872.77	19832.53
872.94	20149.96
873.11	19883.73
873.29	20141.77
873.46	19973.84
873.63	19842.77
873.81	20059.85
873.98	19879.63
874.15	19750.61
874.33	19449.56
874.50	19496.66
874.67	19603.16
874.85	19885.78
875.02	19521.24
875.19	19472.09
875.37	19334.87
875.54	19302.11
875.71	19326.68
875.88	19531.48
876.06	19173.08
876.23	19367.64
876.40	19146.46
876.58	18992.86
876.75	19300.06
876.92	19166.94
877.10	19164.89
877.27	19201.76
877.44	19072.73
877.61	19089.12
877.79	19015.39
877.96	18878.18
878.13	18859.74
878.31	18970.33
878.48	18519.78
878.65	18732.77
878.82	18552.55
879.00	18603.75
879.17	18601.70
879.34	18581.22
879.51	18609.89
879.69	18470.63
879.86	18532.07
880.03	18460.39
880.21	18493.16
880.38	18564.84
880.55	18587.36
880.72	18208.49
880.90	18525.93
881.07	18257.64
881.24	18460.39
881.41	18179.82
881.59	18132.72
881.76	18237.16
881.93	18325.22
882.10	18364.14
882.28	18065.13
882.45	18331.37
882.62	18030.32
882.79	17991.41
882.96	17716.98
883.14	17927.92
883.31	17962.73
883.48	17897.20
883.65	17686.26
883.83	17710.83
884.00	17800.94
884.17	17622.77
884.34	17989.36
884.51	17802.99
884.69	17923.82
884.86	17561.33
885.03	17745.65
885.20	17516.28
885.38	17780.46
885.55	17389.30
885.72	17802.99
885.89	17561.33
886.06	17538.80
886.24	17469.17
886.41	17497.84
886.58	17661.68
886.75	17827.57
886.92	17336.06
887.10	17450.74
887.27	17344.25
887.44	17399.54
887.61	17475.32
887.78	17540.85
887.95	17379.06
888.13	17268.47
888.30	17207.03
888.47	17258.23
888.64	17131.26
888.81	17184.51
888.99	17139.45
889.16	17061.63
889.33	17202.94
889.50	16957.18
889.67	16842.50
889.84	16942.85
890.01	16840.45
890.19	16985.85
890.36	16819.97
890.53	16875.26
890.70	16846.59
890.87	16787.20
891.04	16740.10
891.22	16715.52
891.39	16932.61
891.56	16379.65
891.73	16559.88
891.90	16584.45
892.07	16275.21
892.24	16410.37
892.42	16727.81
892.59	16480.00
892.76	16531.20
892.93	16385.80
893.10	16398.09
893.27	16391.94
893.44	16228.10
893.61	16285.45
893.79	16408.33
893.96	16424.71
894.13	16381.70
894.30	16426.76
894.47	16267.02
894.64	16615.17
894.81	16082.70
894.98	16379.65
895.15	16406.28
895.33	16119.56
895.50	16289.54
895.67	16234.25
895.84	16443.14
896.01	16207.62
896.18	16334.60
896.35	16365.32
896.52	16201.48
896.69	16017.16
896.86	16041.74
897.04	16240.39
897.21	16041.74
897.38	15877.90
897.55	16154.38
897.72	16187.14
897.89	16113.42
898.06	16299.78
898.23	15884.05
898.40	15974.16
898.57	16217.86
898.74	15959.82
898.91	16101.13
899.08	16140.04
899.26	15951.63
899.43	16199.43
899.60	15623.95
899.77	15902.48
899.94	15927.05
900.11	15693.58
900.28	15980.30
900.45	15787.79
900.62	15949.58
900.79	15988.49
900.96	15959.82
901.13	16011.02
901.30	15982.35
901.47	16000.78
901.64	15806.22
901.81	15863.57
901.98	15894.29
902.15	16113.42
902.32	15666.96
902.49	15961.87
902.66	15873.81
902.83	16074.51
903.01	15984.40
903.18	15912.72
903.35	15855.37
903.52	15898.38
903.69	16129.80
903.86	15888.14
904.03	15599.38
904.20	15968.01
904.37	16043.79
904.54	15656.72
904.71	15820.56
904.88	15972.11
905.05	15542.03
905.22	15968.01
905.39	15886.09
905.56	15836.94
905.73	15691.54
905.90	15785.74
906.07	15896.33
906.24	16015.12
906.41	15752.98
906.58	15738.64
906.75	15810.32
906.92	15562.51
907.09	15861.52
907.26	15929.10
907.43	15560.47
907.60	15646.48
907.77	15634.19
907.93	15687.44
908.10	15709.97
908.27	16043.79
908.44	15550.23
908.61	15585.04
908.78	15671.06
908.95	15812.37
909.12	15486.74
909.29	15324.95
909.46	15726.35
909.63	15560.47
909.80	15685.39
909.97	15851.28
910.14	15671.06
910.31	15441.68
910.48	15496.98
910.65	15671.06
910.82	15443.73
910.99	15382.29
911.16	15595.28
911.33	15535.89
911.50	15517.46
911.66	15394.58
911.83	15558.42
912.00	15273.75
912.17	15165.21
912.34	15302.42
912.51	15392.53
912.68	15146.78
912.85	15353.62
913.02	15013.66
913.19	15361.81
913.36	15222.55
913.53	15111.96
913.70	15068.95
913.86	15091.48
914.03	14849.82
914.20	15128.35
914.37	14884.64
914.54	14872.35
914.71	14946.08
914.88	14921.50
915.05	14894.88
915.22	14827.29
915.39	14716.70
915.55	14839.58
915.72	14888.73
915.89	14798.62
916.06	14520.10
916.23	14440.23
916.40	14464.80
916.57	14444.32
916.74	14395.17
916.91	14403.36
917.07	14309.16
917.24	14376.74
917.41	14403.36
917.58	14323.49
917.75	14223.14
917.92	14126.89
918.09	14223.14
918.26	14169.90
918.42	14192.42
918.59	14114.60
918.76	13883.18
918.93	13881.13
919.10	13844.27
919.27	13717.29
919.44	14028.59
919.60	13750.06
919.77	13717.29
919.94	13553.46
920.11	13690.67
920.28	13756.21
920.45	13440.82
920.61	13471.54
920.78	13238.07
920.95	13612.85
921.12	13438.77
921.29	13442.87
921.46	13350.71
921.62	13100.86
921.79	13496.11
921.96	13127.48
922.13	13356.85
922.30	13080.38
922.47	13188.92
922.63	13094.71
922.80	12939.07
922.97	12803.90
923.14	12681.02
923.31	12961.59
923.47	12740.41
923.64	12969.79
923.81	12545.86
923.98	12683.07
924.15	12668.73
924.32	12648.26
924.48	12525.38
924.65	12388.16
924.82	12357.44
924.99	12365.64
925.15	12283.72
925.32	12447.55
925.49	12064.58
925.66	12228.42
925.83	12044.10
925.99	12001.10
926.16	12128.07
926.33	12005.19
926.50	12013.38
926.67	12093.26
926.83	11827.02
927.00	11857.74
927.17	11751.24
927.34	11622.22
927.50	11435.86
927.67	11781.96
927.84	11679.57
928.01	11476.82
928.17	11425.62
928.34	11640.65
928.51	11302.74
928.68	11349.84
928.84	11075.42
929.01	11159.38
929.18	11204.44
929.35	11095.89
929.51	11200.34
929.68	11026.26
929.85	10856.28
930.02	10712.92
930.18	10876.76
930.35	10846.04
930.52	10751.84
930.69	10792.80
930.85	10690.40
931.02	10420.06
931.19	10569.57
931.36	10497.89
931.52	10616.67
931.69	10614.62
931.86	10415.97
932.02	10409.83
932.19	10108.77
932.36	10377.06
932.53	10342.24
932.69	10147.69
932.86	10245.99
933.03	10207.08
933.19	9975.66
933.36	10202.98
933.53	10008.42
933.70	9799.53
933.86	9828.20
934.03	9803.63
934.20	9662.32
934.36	9629.55
934.53	9420.66
934.70	9314.16
934.86	9377.65
935.03	9377.65
935.20	9269.11
935.36	9224.05
935.53	9133.94
935.70	9238.39
935.86	9088.89
936.03	8945.53
936.20	8742.78
936.36	8750.97
936.53	9058.17
936.70	8785.79
936.86	8728.44
937.03	8679.29
937.20	8505.21
937.36	8527.74
937.53	8292.23
937.70	8167.30
937.86	8140.68
938.03	8023.94
938.20	8152.96
938.36	7866.25
938.53	7929.74
938.70	7649.16
938.86	7597.96
939.03	7413.65
939.20	7438.22
939.36	7491.47
939.53	7161.75
939.70	7421.84
939.86	6948.76
940.03	7147.41
940.19	6954.90
940.36	6954.90
940.53	6789.02
940.69	6717.34
940.86	6768.54
941.03	6588.32
941.19	6576.03
941.36	6590.36
941.52	6410.14
941.69	6399.90
941.86	6356.90
942.02	6301.60
942.19	6137.76
942.35	6315.94
942.52	6049.70
942.69	6184.87
942.85	6121.38
943.02	6053.80
943.18	6025.12
943.35	5803.94
943.52	6045.60
943.68	5814.18
943.85	5746.60
944.01	5732.26
944.18	5580.71
944.35	5697.45
944.51	5593.00
944.68	5550.00
944.84	5627.82
945.01	5529.52
945.17	5529.52
945.34	5668.78
945.51	5490.60
945.67	5476.27
945.84	5455.79
946.00	5586.86
946.17	5562.28
946.33	5506.99
946.50	5500.84
946.67	5443.50
946.83	5466.03
947.00	5386.16
947.16	5457.84
947.33	5410.73
947.49	5328.81
947.66	5339.05
947.82	5365.68
947.99	5259.18
948.16	5355.44
948.32	5345.20
948.49	5279.66
948.65	5406.64
948.82	5345.20
948.98	5271.47
949.15	5193.65
949.31	5316.53
949.48	5396.40
949.64	5289.90
949.81	5259.18
949.97	5357.49
950.14	5363.63
950.30	5222.32
950.47	5445.55
950.63	5400.49
950.80	5398.45
950.96	5418.93
951.13	5267.38
951.30	5353.39
951.46	5363.63
951.63	5476.27
951.79	5341.10
951.96	5490.60
952.12	5414.83
952.29	5533.61
952.45	5365.68
952.62	5406.64
952.78	5427.12
952.94	5375.92
953.11	5351.34
953.27	5371.82
953.44	5470.12
953.60	5554.09
953.77	5476.27
953.93	5443.50
954.10	5478.32
954.26	5410.73
954.43	5539.76
954.59	5511.08
954.76	5636.01
954.92	5343.15
955.09	5420.97
955.25	5390.25
955.42	5451.69
955.58	5369.77
955.75	5423.02
955.91	5558.19
956.07	5640.11
956.24	5443.50
956.40	5418.93
956.57	5437.36
956.73	5390.25
956.90	5400.49
957.06	5566.38
957.23	5480.36
957.39	5400.49
957.56	5566.38
957.72	5552.04
957.88	5435.31
958.05	5660.59
958.21	5566.38
958.38	5494.70
958.54	5550.00
958.71	5515.18
958.87	5382.06
959.03	5443.50
959.20	5578.67
959.36	5435.31
959.53	5496.75
959.69	5457.84
959.85	5543.85
960.02	5443.50
960.18	5371.82
960.35	5541.80
960.51	5509.04
960.68	5396.40
960.84	5519.28
961.00	5433.26
961.17	5439.40
961.33	5468.08
961.50	5482.41
961.66	5513.13
961.82	5449.64
961.99	5451.69
962.15	5402.54
962.31	5386.16
962.48	5435.31
962.64	5396.40
962.81	5277.62
962.97	5455.79
963.13	5386.16
963.30	5484.46
963.46	5357.49
963.62	5382.06
963.79	5304.24
963.95	5420.97
964.12	5328.81
964.28	5427.12
964.44	5212.08
964.61	5511.08
964.77	5375.92
964.93	5375.92
965.10	5353.39
965.26	5214.13
965.42	5310.38
965.59	5318.57
965.75	5351.34
965.92	5294.00
966.08	5195.70
966.24	5312.43
966.41	5232.56
966.57	5228.46
966.73	5326.77
966.90	5347.25
967.06	5398.45
967.22	5191.60
967.39	5148.59
967.55	5210.03
967.71	5244.85
967.88	5134.26
968.04	5236.66
968.20	5136.31
968.37	5136.31
968.53	5097.39
968.69	5248.94
968.85	5156.79
969.02	5218.22
969.18	5195.70
969.34	5248.94
969.51	5197.74
969.67	5171.12
969.83	5038.00
970.00	5212.08
970.16	5101.49
970.32	5150.64
970.48	5101.49
970.65	4974.52
970.81	5025.72
970.97	5042.10
971.14	4966.32
971.30	5160.88
971.46	5031.86
971.63	5027.76
971.79	5038.00
971.95	4980.66
972.11	4911.03
972.28	4947.89
972.44	4962.23
972.60	4849.59
972.76	4935.60
972.93	4831.16
973.09	4937.65
973.25	4919.22
973.42	4884.41
973.58	4931.51
973.74	4970.42
973.90	4816.82
974.07	4874.17
974.23	4868.02
974.39	4880.31
974.55	4755.38
974.72	4759.48
974.88	4630.46
975.04	4949.94
975.20	4808.63
975.37	4847.54
975.53	4599.74
975.69	4667.32
975.85	4798.39
976.01	4616.12
976.18	4687.80
976.34	4747.19
976.50	4794.29
976.66	4763.58
976.83	4753.34
976.99	4706.23
977.15	4648.89
977.31	4466.62
977.47	4745.14
977.64	4620.22
977.80	4468.67
977.96	4618.17
978.12	4554.68
978.29	4509.63
978.45	4409.28
978.61	4501.44
978.77	4573.11
978.93	4478.91
979.10	4573.11
979.26	4546.49
979.42	4509.63
979.58	4378.56
979.74	4403.13
979.91	4417.47
980.07	4394.94
980.23	4411.32
980.39	4411.32
980.55	4405.18
980.71	4478.91
980.88	4345.79
981.04	4288.45
981.20	4370.37
981.36	4401.08
981.52	4370.37
981.68	4452.28
981.85	4325.31
982.01	4288.45
982.17	4243.39
982.33	4218.82
982.49	4360.13
982.65	4212.67
982.82	4327.36
982.98	4284.35
983.14	4163.52
983.30	4376.51
983.46	4308.93
983.62	4360.13
983.79	4124.61
983.95	4237.25
984.11	4132.80
984.27	4186.05
984.43	4165.57
984.59	4149.18
984.75	4255.68
984.91	4229.06
985.08	4190.14
985.24	3952.58
985.40	4128.70
985.56	4059.07
985.72	4190.14
985.88	4184.00
986.04	4091.84
986.20	4048.83
986.37	4089.79
986.53	3944.39
986.69	4030.40
986.85	4057.03
987.01	3989.44
987.17	4022.21
987.33	3950.53
987.49	3925.96
987.65	3940.29
987.82	4001.73
987.98	3999.68
988.14	4128.70
988.30	4026.31
988.46	3858.37
988.62	3954.63
988.78	3887.04
988.94	3868.61
989.10	3780.55
989.26	3768.26
989.42	3794.89
989.59	3741.64
989.75	3887.04
989.91	3735.50
990.07	3813.32
990.23	3719.11
990.39	3739.59
990.55	3858.37
990.71	3737.54
990.87	3796.93
991.03	3823.56
991.19	3727.30
991.35	3743.69
991.51	3651.53
991.67	3813.32
991.83	3735.50
992.00	3694.54
992.16	3790.79
992.32	3682.25
992.48	3694.54
992.64	3684.30
992.80	3682.25
992.96	3583.95
993.12	3608.52
993.28	3794.89
993.44	3667.91
993.60	3674.06
993.76	3602.38
993.92	3778.50
994.08	3688.39
994.24	3510.22
994.40	3559.37
994.56	3676.10
994.72	3547.08
994.88	3534.79
995.04	3567.56
995.20	3481.55
995.36	3461.07
995.52	3508.17
995.68	3520.46
995.84	3420.11
996.00	3624.90
996.16	3344.33
996.32	3446.73
996.48	3434.44
996.64	3413.96
996.80	3434.44
996.96	3534.79
997.12	3373.00
997.28	3430.35
997.44	3313.61
997.60	3323.85
997.76	3485.64
997.92	3362.76
998.08	3385.29
998.24	3260.37
998.40	3430.35
998.56	3346.38
998.72	3252.17
998.88	3243.98
999.04	3311.57
999.20	3370.96
999.36	3243.98
999.52	3303.37
999.68	3248.08
999.84	3305.42
1000.00	3340.24
1000.16	3383.24
1000.32	3074.00
1000.48	3354.57
1000.64	3182.54
1000.80	3272.65
1000.95	3215.31
1001.11	3194.83
1001.27	3129.30
1001.43	3297.23
1001.59	3100.62
1001.75	2983.89
1001.91	3117.01
1002.07	3112.91
1002.23	3160.02
1002.39	3129.30
1002.55	3149.78
1002.71	2969.55
1002.87	3084.24
1003.03	2977.75
1003.19	3104.72
1003.34	3057.62
1003.50	3104.72
1003.66	3172.30
1003.82	3108.82
1003.98	2957.27
1004.14	3084.24
1004.30	2932.69
1004.46	2854.87
1004.62	2910.16
1004.78	2967.51
1004.94	2944.98
1005.09	2969.55
1005.25	3071.95
1005.41	2981.84
1005.57	2979.79
1005.73	2994.13
1005.89	2887.64
1006.05	2951.12
1006.21	2953.17
1006.37	2869.20
1006.52	2799.57
1006.68	2832.34
1006.84	2975.70
1007.00	2938.84
1007.16	3059.67
1007.32	2807.77
1007.48	2936.79
1007.64	2944.98
1007.79	2856.92
1007.95	2828.24
1008.11	2836.44
1008.27	2818.00
1008.43	2846.68
1008.59	2822.10
1008.75	2852.82
1008.91	2863.06
1009.06	2840.53
1009.22	2768.85
1009.38	2828.24
1009.54	2807.77
1009.70	2772.95
1009.86	2752.47
1010.01	2901.97
1010.17	2736.09
1010.33	2787.29
1010.49	2734.04
1010.65	2897.88
1010.81	2729.94
1010.96	2668.50
1011.12	2641.88
1011.28	2635.74
1011.44	2754.52
1011.60	2629.59
1011.76	2691.03
1011.91	2707.41
1012.07	2605.02
1012.23	2590.68
1012.39	2637.78
1012.55	2586.58
1012.71	2645.98
1012.86	2643.93
1013.02	2564.06
1013.18	2562.01
1013.34	2574.30
1013.50	2676.70
1013.65	2648.02
1013.81	2639.83
1013.97	2572.25
1014.13	2670.55
1014.29	2648.02
1014.44	2734.04
1014.60	2572.25
1014.76	2578.39
1014.92	2602.97
1015.07	2621.40
1015.23	2535.39
1015.39	2410.46
1015.55	2549.72
1015.71	2549.72
1015.86	2484.19
1016.02	2516.95
1016.18	2508.76
1016.34	2535.39
1016.49	2445.27
1016.65	2568.15
1016.81	2500.57
1016.97	2455.51
1017.12	2457.56
1017.28	2406.36
1017.44	2488.28
1017.60	2385.88
1017.75	2490.33
1017.91	2437.08
1018.07	2449.37
1018.23	2437.08
1018.38	2385.88
1018.54	2389.98
1018.70	2453.47
1018.86	2314.20
1019.01	2392.03
1019.17	2412.51
1019.33	2447.32
1019.49	2387.93
1019.64	2467.80
1019.80	2396.12
1019.96	2383.84
1020.12	2432.99
1020.27	2291.68
1020.43	2385.88
1020.59	2367.45
1020.74	2369.50
1020.90	2396.12
1021.06	2297.82
1021.22	2318.30
1021.37	2367.45
1021.53	2226.14
1021.69	2408.41
1021.84	2353.12
1022.00	2273.25
1022.16	2240.48
1022.31	2271.20
1022.47	2379.74
1022.63	2287.58
1022.79	2154.46
1022.94	2213.85
1023.10	2379.74
1023.26	2215.90
1023.41	2156.51
1023.57	2246.62
1023.73	2303.96
1023.88	2318.30
1024.04	2183.13
1024.20	2283.49
1024.35	2183.13
1024.51	2265.05
1024.67	2179.04
1024.82	2232.29
1024.98	2191.33
1025.14	2246.62
1025.29	2179.04
1025.45	2279.39
1025.61	2052.06
1025.76	2183.13
1025.92	2246.62
1026.08	2238.43
1026.23	2205.66
1026.39	2287.58
1026.55	2179.04
1026.70	2168.80
1026.86	2154.46
1027.02	2232.29
1027.17	2121.70
1027.33	2187.23
1027.48	2170.85
1027.64	2117.60
1027.80	2133.98
1027.95	2164.70
1028.11	1978.34
1028.27	2207.71
1028.42	2193.37
1028.58	2090.98
1028.73	2099.17
1028.89	2062.30
1029.05	2207.71
1029.20	2162.66
>>>>>End Processed Spectral Data<<<<<
