SpectraSuite Data File
++++++++++++++++++++++++++++++++++++
Date: Fri Jun 02 14:52:26 CEST 2017
User: INFO_000
Dark Spectrum Present: No
Reference Spectrum Present: No
Number of Sampled Component Spectra: 1
Spectrometers: USB4H00879
Integration Time (usec): 80000 (USB4H00879)
Spectra Averaged: 1 (USB4H00879)
Boxcar Smoothing: 0 (USB4H00879)
Correct for Electrical Dark: No (USB4H00879)
Strobe/Lamp Enabled: No (USB4H00879)
Correct for Detector Non-linearity: No (USB4H00879)
Correct for Stray Light: No (USB4H00879)
Number of Pixels in Processed Spectrum: 3648
>>>>>Begin Processed Spectral Data<<<<<
345.13	1298.41
345.34	1298.41
345.56	1298.41
345.78	1241.07
345.99	1296.36
346.21	1740.77
346.42	1726.44
346.64	1583.08
346.86	1779.68
347.07	1650.66
347.29	1712.10
347.50	1607.66
347.72	1679.33
347.94	1783.78
348.15	1546.22
348.37	1605.61
348.59	1656.81
348.80	1687.53
349.02	1798.12
349.23	1892.32
349.45	1841.12
349.67	1851.36
349.88	1720.29
350.10	2019.30
350.31	1824.74
350.53	1918.95
350.75	1904.61
350.96	1765.35
351.18	1855.46
351.39	1851.36
351.61	1785.83
351.82	1902.56
352.04	1851.36
352.26	1855.46
352.47	1837.03
352.69	1953.76
352.90	1791.97
353.12	1748.97
353.34	1863.65
353.55	1896.42
353.77	1812.45
353.98	1877.99
354.20	1884.13
354.41	1957.86
354.63	1933.28
354.85	2007.01
355.06	1931.23
355.28	1822.69
355.49	1953.76
355.71	1890.28
355.92	1884.13
356.14	1941.47
356.35	1941.47
356.57	1843.17
356.79	1867.75
357.00	1787.88
357.22	2002.91
357.43	1869.80
357.65	2017.25
357.86	1906.66
358.08	1886.18
358.29	1955.81
358.51	1998.82
358.72	1896.42
358.94	1912.80
359.16	1937.38
359.37	1925.09
359.59	1937.38
359.80	1996.77
360.02	1964.00
360.23	1984.48
360.45	1957.86
360.66	1994.72
360.88	1904.61
361.09	1896.42
361.31	2023.39
361.52	1953.76
361.74	2062.30
361.95	2074.59
362.17	1974.24
362.38	2017.25
362.60	1970.15
362.81	1978.34
363.03	1992.67
363.24	1996.77
363.46	2033.63
363.67	2099.17
363.89	2056.16
364.10	2002.91
364.32	1980.39
364.53	2088.93
364.75	1896.42
364.96	2101.22
365.18	2015.20
365.39	2060.26
365.61	2058.21
365.82	2150.37
366.04	2045.92
366.25	2000.87
366.47	2058.21
366.68	2066.40
366.90	1953.76
367.11	2080.74
367.33	2052.06
367.54	2131.94
367.76	2066.40
367.97	2129.89
368.19	2047.97
368.40	2076.64
368.62	2082.78
368.83	1982.43
369.05	2037.73
369.26	1953.76
369.48	2009.06
369.69	2007.01
369.91	2105.31
370.12	2002.91
370.33	2129.89
370.55	2023.39
370.76	2056.16
370.98	2066.40
371.19	2080.74
371.41	2125.79
371.62	2002.91
371.84	2035.68
372.05	2150.37
372.27	2025.44
372.48	2195.42
372.69	2179.04
372.91	2142.18
373.12	2146.27
373.34	2164.70
373.55	2127.84
373.77	2146.27
373.98	2136.03
374.20	2207.71
374.41	2254.81
374.62	2170.85
374.84	2201.57
375.05	2179.04
375.27	2154.46
375.48	2144.22
375.70	2158.56
375.91	2232.29
376.12	2322.40
376.34	2166.75
376.55	2240.48
376.77	2260.96
376.98	2176.99
377.19	2074.59
377.41	2205.66
377.62	2308.06
377.84	2150.37
378.05	2299.87
378.27	2197.47
378.48	2312.16
378.69	2389.98
378.91	2344.92
379.12	2265.05
379.34	2213.85
379.55	2330.59
379.76	2289.63
379.98	2271.20
380.19	2228.19
380.41	2303.96
380.62	2293.72
380.83	2265.05
381.05	2277.34
381.26	2414.56
381.47	2322.40
381.69	2246.62
381.90	2451.42
382.12	2334.68
382.33	2324.44
382.54	2240.48
382.76	2263.01
382.97	2342.88
383.19	2363.36
383.40	2387.93
383.61	2357.21
383.83	2213.85
384.04	2371.55
384.25	2308.06
384.47	2379.74
384.68	2437.08
384.89	2295.77
385.11	2353.12
385.32	2340.83
385.54	2338.78
385.75	2404.32
385.96	2494.43
386.18	2400.22
386.39	2404.32
386.60	2404.32
386.82	2475.99
387.03	2422.75
387.24	2451.42
387.46	2473.95
387.67	2463.71
387.88	2541.53
388.10	2478.04
388.31	2510.81
388.52	2605.02
388.74	2475.99
388.95	2555.86
389.16	2584.54
389.38	2527.19
389.59	2648.02
389.80	2725.85
390.02	2615.26
390.23	2639.83
390.44	2633.69
390.66	2617.30
390.87	2572.25
391.08	2633.69
391.30	2670.55
391.51	2717.65
391.72	2703.32
391.94	2680.79
392.15	2654.17
392.36	2615.26
392.58	2627.54
392.79	2643.93
393.00	2772.95
393.22	2781.14
393.43	2789.33
393.64	2813.91
393.85	2844.63
394.07	2777.05
394.28	2740.18
394.49	2779.09
394.71	2824.15
394.92	2977.75
395.13	2787.29
395.35	2863.06
395.56	2756.57
395.77	2879.44
395.98	2932.69
396.20	2861.01
396.41	2998.23
396.62	2942.93
396.84	2879.44
397.05	2883.54
397.26	2908.12
397.47	2994.13
397.69	2938.84
397.90	3145.68
398.11	2983.89
398.32	3035.09
398.54	3014.61
398.75	2924.50
398.96	3049.43
399.18	3172.30
399.39	3084.24
399.60	3211.22
399.81	2985.94
400.03	2906.07
400.24	3358.67
400.45	2979.79
400.66	3155.92
400.88	3004.37
401.09	3289.04
401.30	3051.47
401.51	3141.58
401.73	3184.59
401.94	3108.82
402.15	3174.35
402.36	3194.83
402.58	3198.93
402.79	3137.49
403.00	3190.74
403.21	3243.98
403.43	3301.33
403.64	3299.28
403.85	3153.87
404.06	3286.99
404.27	3155.92
404.49	3338.19
404.70	3289.04
404.91	3370.96
405.12	3330.00
405.34	3334.09
405.55	3346.38
405.76	3203.02
405.97	3311.57
406.19	3432.40
406.40	3379.15
406.61	3278.80
406.82	3477.45
407.03	3338.19
407.25	3248.08
407.46	3379.15
407.67	3420.11
407.88	3538.89
408.09	3350.48
408.31	3446.73
408.52	3459.02
408.73	3379.15
408.94	3442.64
409.15	3477.45
409.37	3481.55
409.58	3420.11
409.79	3530.70
410.00	3608.52
410.21	3442.64
410.43	3508.17
410.64	3481.55
410.85	3416.01
411.06	3555.27
411.27	3692.49
411.48	3588.04
411.70	3575.75
411.91	3579.85
412.12	3690.44
412.33	3594.19
412.54	3592.14
412.76	3755.97
412.97	3770.31
413.18	3536.84
413.39	3721.16
413.60	3706.82
413.81	3710.92
414.03	3577.80
414.24	3653.58
414.45	3796.93
414.66	3680.20
414.87	3721.16
415.08	3674.06
415.30	3782.60
415.51	3762.12
415.72	3700.68
415.93	3784.65
416.14	3819.46
416.35	3878.85
416.56	3801.03
416.78	3844.04
416.99	3764.17
417.20	3880.90
417.41	3848.13
417.62	3903.43
417.83	4020.16
418.04	3948.48
418.26	3942.34
418.47	3817.41
418.68	3903.43
418.89	3979.20
419.10	4222.91
419.31	4057.03
419.52	4220.86
419.73	4116.42
419.95	4114.37
420.16	3930.05
420.37	3956.68
420.58	4157.38
420.79	4034.50
421.00	4067.27
421.21	4206.53
421.42	3971.01
421.63	4216.77
421.85	4169.66
422.06	4171.71
422.27	4190.14
422.48	4308.93
422.69	4304.83
422.90	4276.16
423.11	4237.25
423.32	4327.36
423.53	4427.71
423.75	4337.60
423.96	4597.69
424.17	4403.13
424.38	4626.36
424.59	4419.52
424.80	4652.98
425.01	4513.72
425.22	4593.59
425.43	4448.19
425.64	4769.72
425.85	4716.47
426.06	4550.59
426.28	4636.60
426.49	4546.49
426.70	4511.68
426.91	4755.38
427.12	4749.24
427.33	4812.73
427.54	4665.27
427.75	4847.54
427.96	4943.80
428.17	4954.04
428.38	4859.83
428.59	4984.76
428.80	4886.45
429.01	4878.26
429.23	4984.76
429.44	5093.30
429.65	5072.82
429.86	5068.72
430.07	5066.67
430.28	5029.81
430.49	5060.53
430.70	5246.90
430.91	5179.31
431.12	5091.25
431.33	5259.18
431.54	5316.53
431.75	5390.25
431.96	5283.76
432.17	5214.13
432.38	5197.74
432.59	5447.60
432.80	5351.34
433.01	5351.34
433.22	5484.46
433.43	5400.49
433.64	5343.15
433.85	5484.46
434.06	5517.23
434.27	5408.69
434.49	5719.98
434.70	5693.35
434.91	5795.75
435.12	5597.10
435.33	5644.20
435.54	5760.94
435.75	5445.55
435.96	5625.77
436.17	5529.52
436.38	5762.98
436.59	6078.37
436.80	5705.64
437.01	5900.20
437.22	5887.91
437.43	5775.27
437.64	5744.55
437.85	5859.24
438.06	6010.79
438.27	5922.73
438.48	5894.05
438.69	5914.53
438.90	5937.06
439.11	5894.05
439.32	6031.27
439.53	6092.71
439.74	6100.90
439.95	6029.22
440.16	6059.94
440.37	6129.57
440.57	5922.73
440.78	6174.63
440.99	6184.87
441.20	6211.49
441.41	5969.83
441.62	6117.28
441.83	6008.74
442.04	6260.64
442.25	6125.47
442.46	6176.67
442.67	6475.68
442.88	6733.72
443.09	6137.76
443.30	6344.61
443.51	6309.79
443.72	6692.76
443.93	6322.08
444.14	6565.79
444.35	6336.42
444.56	6475.68
444.77	6387.61
444.98	6498.20
445.19	6614.94
445.40	6592.41
445.61	6692.76
445.81	6739.87
446.02	6643.61
446.23	6590.36
446.44	6475.68
446.65	6711.19
446.86	6680.47
447.07	6643.61
447.28	6981.53
447.49	6926.23
447.70	6600.60
447.91	6735.77
448.12	6686.62
448.33	6915.99
448.54	6870.94
448.74	6848.41
448.95	6901.65
449.16	6877.08
449.37	7190.42
449.58	7012.24
449.79	7200.66
450.00	7016.34
450.21	7022.48
450.42	7192.47
450.63	7090.07
450.84	7030.68
451.05	7276.43
451.25	6971.29
451.46	6989.72
451.67	7092.12
451.88	7475.09
452.09	7282.58
452.30	7214.99
452.51	7194.51
452.72	7497.61
452.93	7524.24
453.13	7327.63
453.34	7344.02
453.55	7417.74
453.76	7354.26
453.97	7843.72
454.18	7335.82
454.39	7536.52
454.60	7589.77
454.81	7694.22
455.01	7882.63
455.22	7364.50
455.43	7663.50
455.64	7878.54
455.85	7991.17
456.06	7964.55
456.27	7790.47
456.48	7698.31
456.68	7735.18
456.89	7968.65
457.10	8193.92
457.31	8021.89
457.52	7841.67
457.73	8202.11
457.94	8245.12
458.14	8023.94
458.35	8499.07
458.56	8040.33
458.77	7966.60
458.98	8431.49
459.19	8267.65
459.39	8468.35
459.60	8408.96
459.81	8437.63
460.02	8486.78
460.23	8419.20
460.44	8634.24
460.65	8695.68
460.85	8796.03
461.06	8564.61
461.27	8712.06
461.48	8900.47
461.69	9023.35
461.89	8603.52
462.10	8843.13
462.31	8740.73
462.52	8953.72
462.73	9029.49
462.94	9168.76
463.14	9031.54
463.35	9095.03
463.56	9570.16
463.77	9592.69
463.98	9342.83
464.18	9312.11
464.39	9516.91
464.60	9762.67
464.81	9650.03
465.02	9441.14
465.23	9942.89
465.43	9658.22
465.64	9785.19
465.85	9729.90
466.06	9598.83
466.27	10092.39
466.47	9936.74
466.68	9973.61
466.89	9922.41
467.10	10194.79
467.30	10082.15
467.51	10114.92
467.72	10340.19
467.93	10088.29
468.14	10493.79
468.34	10657.63
468.55	10450.78
468.76	10590.05
468.97	10471.26
469.17	10831.71
469.38	10813.28
469.59	11124.57
469.80	10737.50
470.01	10893.15
470.21	11108.18
470.42	11370.32
470.63	11233.11
470.84	11192.15
471.04	11495.25
471.25	11300.69
471.46	11521.87
471.67	11777.87
471.87	11681.61
472.08	11652.94
472.29	11917.13
472.50	11560.78
472.70	11712.33
472.91	12019.53
473.12	11994.95
473.33	12087.11
473.53	12390.21
473.74	12201.80
473.95	12330.82
474.16	12633.92
474.36	12638.02
474.57	12711.74
474.78	13014.84
474.99	12705.60
475.19	12744.51
475.40	13193.01
475.61	13266.74
475.81	13231.93
476.02	13584.18
476.23	13315.89
476.44	13776.69
476.64	13633.33
476.85	13721.39
477.06	13541.17
477.27	13993.77
477.47	14122.79
477.68	14231.33
477.89	14323.49
478.09	14143.27
478.30	14542.63
478.51	14489.38
478.71	14608.16
478.92	14815.01
479.13	15068.95
479.34	15025.95
479.54	15015.71
479.75	15130.39
479.96	15034.14
480.16	15222.55
480.37	15464.21
480.58	15470.36
480.78	15798.03
480.99	15558.42
481.20	15947.53
481.41	15886.09
481.61	15955.72
481.82	16301.83
482.03	16027.40
482.23	16330.50
482.44	16549.64
482.65	16531.20
482.85	16781.06
483.06	16881.41
483.27	16748.29
483.47	16791.30
483.68	17055.48
483.89	16807.68
484.09	16842.50
484.30	17196.79
484.51	17596.15
484.71	17483.51
484.92	17415.93
485.13	17624.82
485.33	17739.51
485.54	17866.48
485.75	18120.43
485.95	18110.19
486.16	18271.98
486.37	18523.88
486.57	18099.95
486.78	18304.74
486.98	18487.01
487.19	18605.80
487.40	18544.36
487.60	18937.57
487.81	18939.62
488.02	19201.76
488.22	19101.40
488.43	19048.16
488.64	19302.11
488.84	19533.53
489.05	19807.95
489.25	19341.02
489.46	19576.53
489.67	19517.14
489.87	20082.38
490.08	19977.94
490.29	20125.39
490.49	20489.93
490.70	20281.03
490.90	20514.50
491.11	20307.66
491.32	20510.41
491.52	20661.96
491.73	20704.96
491.94	20676.29
492.14	20866.75
492.35	21247.68
492.55	21270.20
492.76	20909.76
492.97	21182.14
493.17	21286.59
493.38	21431.99
493.58	21870.26
493.79	21647.03
494.00	21524.15
494.20	21759.67
494.41	21851.83
494.61	21995.18
494.82	22087.34
495.02	21984.94
495.23	21745.33
495.44	22032.05
495.64	22161.07
495.85	22232.75
496.05	22593.19
496.26	22363.82
496.47	22861.48
496.67	22576.81
496.88	22982.31
497.08	22675.11
497.29	23070.37
497.49	22859.43
497.70	23049.89
497.91	23107.23
498.11	23434.91
498.32	23357.08
498.52	23312.03
498.73	23678.61
498.93	23260.83
499.14	23701.14
499.34	23477.91
499.55	23813.78
499.76	23750.29
499.96	23813.78
500.17	24012.43
500.37	24219.28
500.58	23922.32
500.78	24331.92
500.99	23977.62
501.19	24481.42
501.40	24297.10
501.60	24039.06
501.81	24446.60
502.02	24493.71
502.22	24526.47
502.43	24655.50
502.63	24772.23
502.84	24731.27
503.04	24811.14
503.25	24772.23
503.45	24649.35
503.66	24989.31
503.86	24938.12
504.07	25151.10
504.27	24612.49
504.48	25396.86
504.68	25165.44
504.89	25622.14
505.09	25181.82
505.30	25521.79
505.50	25249.41
505.71	25362.04
505.91	25542.27
506.12	25771.64
506.32	25239.17
506.53	25546.36
506.73	25871.99
506.94	25978.48
507.14	25687.67
507.35	25904.76
507.55	26046.07
507.76	25996.92
507.96	25812.60
508.17	25935.48
508.37	26326.64
508.58	26340.97
508.78	26308.21
508.99	26459.76
509.19	26433.13
509.40	26052.21
509.60	26338.93
509.81	26441.32
510.01	26410.60
510.22	26457.71
510.42	26637.93
510.63	26746.47
510.83	26676.84
511.04	26762.86
511.24	26801.77
511.44	26492.52
511.65	27364.96
511.85	26744.42
512.06	26533.48
512.26	27051.62
512.47	27330.14
512.67	27059.81
512.88	27371.10
513.08	26969.70
513.29	27229.79
513.49	27149.92
513.69	27491.93
513.90	27385.44
514.10	27123.30
514.31	27655.77
514.51	27387.49
514.72	27524.70
514.92	27590.24
515.13	27147.87
515.33	27608.67
515.53	27520.60
515.74	27725.40
515.94	27661.91
516.15	27801.18
516.35	27987.54
516.56	28327.50
516.76	27801.18
516.96	28036.69
517.17	28405.33
517.37	28167.76
517.58	28376.66
517.78	28431.95
517.99	28128.85
518.19	28745.29
518.39	28503.63
518.60	28616.27
518.80	28468.81
519.01	28548.68
519.21	28907.08
519.41	28714.57
519.62	28511.82
519.82	28823.11
520.03	29083.20
520.23	29009.48
520.43	28929.61
520.64	29304.38
520.84	29566.52
521.05	29105.73
521.25	29419.07
521.45	29441.60
521.66	29345.34
521.86	29738.55
522.07	29556.28
522.27	29574.72
522.47	29767.23
522.68	30119.48
522.88	29830.71
523.08	30248.50
523.29	29830.71
523.49	30070.33
523.70	30248.50
523.90	30414.38
524.10	29877.82
524.31	30459.44
524.51	30365.23
524.71	30719.53
524.92	30821.93
525.12	30762.54
525.33	30795.31
525.53	30985.77
525.73	31325.73
525.94	31374.88
526.14	31604.25
526.34	31272.48
526.55	31391.26
526.75	31643.17
526.95	31917.59
527.16	31512.10
527.36	31698.46
527.56	32081.43
527.77	31845.91
527.97	32079.38
528.17	32022.04
528.38	32118.29
528.58	32175.64
528.78	32095.77
528.99	32108.05
529.19	32615.95
529.39	32704.01
529.60	32740.88
529.80	32665.10
530.00	32402.96
530.21	33136.13
530.41	33031.69
530.61	33265.16
530.82	33316.36
531.02	33474.05
531.22	33549.82
531.43	33218.05
531.63	33672.70
531.83	33875.45
532.04	34184.69
532.24	33730.05
532.44	33986.04
532.64	34049.53
532.85	34567.66
533.05	34369.01
533.25	34643.44
533.46	34665.97
533.66	35012.07
533.86	34534.90
534.07	35012.07
534.27	35161.58
534.47	35407.33
534.67	35323.36
534.88	35272.17
535.08	35311.08
535.28	35554.79
535.49	35685.86
535.69	35821.02
535.89	35984.86
536.09	36210.14
536.30	36378.07
536.50	36343.25
536.70	36738.51
536.91	36087.26
537.11	36586.96
537.31	36691.41
537.51	36206.04
537.72	37369.29
537.92	37365.19
538.12	37742.02
538.32	36992.46
538.53	37277.13
538.73	37295.56
538.93	37469.64
539.13	37531.08
539.34	37477.83
539.54	37467.59
539.74	37819.84
539.94	37578.18
540.15	37809.60
540.35	38122.94
540.55	38006.20
540.75	38290.87
540.96	38190.52
541.16	38471.09
541.36	38759.86
541.56	38516.15
541.77	38999.47
541.97	38700.47
542.17	39038.38
542.37	39239.08
542.58	39185.83
542.78	38864.30
542.98	39290.28
543.18	39413.16
543.38	39749.03
543.59	39572.90
543.79	39144.87
543.99	39546.28
544.19	40009.12
544.40	39513.51
544.60	40236.44
544.80	39841.18
545.00	40183.19
545.20	40609.17
545.41	39912.86
545.61	40082.84
545.81	41074.06
546.01	40721.81
546.21	40478.10
546.42	40457.62
546.62	41061.77
546.82	40756.63
547.02	41182.60
547.22	41082.25
547.43	41100.68
547.63	41227.66
547.83	40832.40
548.03	40924.56
548.23	41831.81
548.44	41639.30
548.64	41522.57
548.84	41670.02
549.04	41553.29
549.24	41969.02
549.45	41885.06
549.65	41731.46
549.85	41866.63
550.05	42335.61
550.25	42087.81
550.45	42423.67
550.66	42425.72
550.86	42038.65
551.06	42677.62
551.26	42255.74
551.46	42325.37
551.66	42567.03
551.87	42782.07
552.07	42423.67
552.27	42642.81
552.47	43150.70
552.67	43038.06
552.87	43072.88
553.07	42792.31
553.28	43210.09
553.48	43003.25
553.68	43122.03
553.88	43455.85
554.08	43210.09
554.28	43165.04
554.48	43306.35
554.69	43662.69
554.89	43459.94
555.09	43335.02
555.29	43455.85
555.49	43724.13
555.69	43701.61
555.89	43603.30
556.10	43795.81
556.30	43894.11
556.50	43955.55
556.70	43707.75
556.90	43971.94
557.10	44340.57
557.30	43578.73
557.50	44369.24
557.70	44025.18
557.91	44178.78
558.11	44176.73
558.31	44135.77
558.51	43906.40
558.71	44553.56
558.91	44475.74
559.11	44451.16
559.31	44131.68
559.51	44815.70
559.72	44655.96
559.92	44330.33
560.12	44121.44
560.32	44477.79
560.52	44457.31
560.72	44733.78
560.92	44621.14
561.12	44422.49
561.32	44889.43
561.52	44725.59
561.72	45032.78
561.93	44490.07
562.13	44926.29
562.33	44651.86
562.53	45319.50
562.73	44576.09
562.93	44684.63
563.13	45069.65
563.33	44969.30
563.53	45247.82
563.73	45077.84
563.93	45010.26
564.13	45735.24
564.33	45243.73
564.53	45145.42
564.74	45256.01
564.94	44954.96
565.14	45591.88
565.34	45192.53
565.54	45301.07
565.74	45450.57
565.94	45806.92
566.14	45473.10
566.34	45548.87
566.54	45655.37
566.74	45729.09
566.94	45421.90
567.14	45628.74
567.34	45491.53
567.54	45882.69
567.74	45727.05
567.94	45782.34
568.14	45964.61
568.34	45821.25
568.54	46007.62
568.74	45665.61
568.94	45561.16
569.14	46310.72
569.34	46052.67
569.54	45716.81
569.75	45350.22
569.95	45835.59
570.15	46282.05
570.35	46112.06
570.55	45978.95
570.75	45935.94
570.95	46462.27
571.15	46198.08
571.35	46101.82
571.55	46292.29
571.75	46445.88
571.95	46390.59
572.15	45784.39
572.35	46286.14
572.55	46101.82
572.75	46427.45
572.95	46306.62
573.15	46685.50
573.35	46433.60
573.55	46093.63
573.75	46024.00
573.95	46249.28
574.15	46515.51
574.35	46556.47
574.55	46521.66
574.75	46437.69
574.95	46568.76
575.15	46146.88
575.34	46765.37
575.54	46720.31
575.74	47074.61
575.94	47041.84
576.14	46802.23
576.34	47140.14
576.54	46855.48
576.74	47062.32
576.94	46947.64
577.14	47473.96
577.34	47547.69
577.54	46843.19
577.74	46665.02
577.94	47127.86
578.14	47162.67
578.34	47310.13
578.54	46814.52
578.74	47244.59
578.94	47351.09
579.14	46945.59
579.34	47318.32
579.54	46884.15
579.74	47670.57
579.94	47430.96
580.13	47596.84
580.33	47426.86
580.53	47150.38
580.73	47625.51
580.93	47656.23
581.13	47791.40
581.33	47844.65
581.53	47811.88
581.73	47820.07
581.93	48086.31
582.13	48094.50
582.33	48166.18
582.53	47664.42
582.73	48063.78
582.92	48106.79
583.12	48295.20
583.32	47965.48
583.52	48088.35
583.72	48289.06
583.92	47815.97
584.12	48266.53
584.32	48512.28
584.52	48239.90
584.72	48334.11
584.92	48315.68
585.11	48510.24
585.31	48440.60
585.51	48631.07
585.71	48604.44
585.91	48731.42
586.11	48250.14
586.31	48344.35
586.51	48407.84
586.71	48751.90
586.91	49067.28
587.10	48968.98
587.30	49132.82
587.50	49009.94
587.70	48887.06
587.90	49118.48
588.10	48909.59
588.30	48452.89
588.50	49059.09
588.69	49216.78
588.89	48983.32
589.09	48768.28
589.29	48975.12
589.49	49116.43
589.69	49151.25
589.89	49460.49
590.08	49495.31
590.28	49165.59
590.48	49378.57
590.68	49151.25
590.88	49730.83
591.08	49204.50
591.28	49159.44
591.47	49483.02
591.67	49411.34
591.87	49552.65
592.07	49792.26
592.27	49620.23
592.47	49644.81
592.67	50007.30
592.86	49437.97
593.06	49841.42
593.26	49628.43
593.46	49566.99
593.66	49779.98
593.86	49923.33
594.05	49880.33
594.25	50289.92
594.45	49673.48
594.65	50064.64
594.85	49833.22
595.05	50164.99
595.24	50717.95
595.44	50023.68
595.64	49952.01
595.84	50169.09
596.04	50130.18
596.23	50261.25
596.43	50773.24
596.63	50386.18
596.83	50607.36
597.03	50660.60
597.22	51035.38
597.42	51062.00
597.62	50730.23
597.82	51053.81
598.02	50685.18
598.21	51156.21
598.41	50834.68
598.61	51035.38
598.81	50742.52
599.01	51350.77
599.20	51049.72
599.40	50955.51
599.60	51287.28
599.80	51164.40
600.00	51365.10
600.19	51602.67
600.39	51088.63
600.59	51653.87
600.79	51803.37
600.98	51487.98
601.18	51789.03
601.38	52010.21
601.58	51870.95
601.78	51733.74
601.97	51621.10
602.17	52200.68
602.37	51979.49
602.57	52172.00
602.76	52335.84
602.96	51860.71
603.16	52145.38
603.36	51909.86
603.55	52774.11
603.75	52133.09
603.95	52532.45
604.15	52919.51
604.34	52491.49
604.54	52628.70
604.74	52686.04
604.94	52899.03
605.13	52911.32
605.33	52692.19
605.53	52665.56
605.73	53333.20
605.92	52595.93
606.12	53329.11
606.32	53083.35
606.52	53114.07
606.71	53400.79
606.91	53443.79
607.11	53349.59
607.30	53173.46
607.50	53224.66
607.70	53193.94
607.90	53224.66
608.09	53624.01
608.29	53658.83
608.49	53892.30
608.68	53335.25
608.88	53898.44
609.08	53898.44
609.28	54226.12
609.47	54006.98
609.67	54590.66
609.87	54176.97
610.06	54205.64
610.26	54183.11
610.46	54408.39
610.66	53796.04
610.85	54375.62
611.05	53744.84
611.25	53927.11
611.44	54179.01
611.64	54009.03
611.84	54017.22
612.03	53957.83
612.23	54594.75
612.43	54359.23
612.62	53947.59
612.82	54840.51
613.02	54154.44
613.21	54572.22
613.41	54607.04
613.61	55125.17
613.80	54207.68
614.00	54371.52
614.20	54957.24
614.39	55166.13
614.59	54656.19
614.79	54627.52
614.98	55086.26
615.18	54711.49
615.38	54895.80
615.57	54959.29
615.77	55186.61
615.97	55262.39
616.16	55276.72
616.36	55078.07
616.56	55116.98
616.75	55033.02
616.95	54893.75
617.15	55243.96
617.34	55153.85
617.54	54928.57
617.74	55282.87
617.93	55483.57
618.13	55483.57
618.32	55461.04
618.52	55037.11
618.72	55276.72
618.91	55604.40
619.11	55008.44
619.31	55448.75
619.50	55266.48
619.70	55110.84
619.90	55280.82
620.09	55714.99
620.29	55248.05
620.48	55502.00
620.68	55764.14
620.88	55399.60
621.07	55372.98
621.27	56071.34
621.46	55588.02
621.66	55178.42
621.86	55467.19
622.05	55319.73
622.25	55827.63
622.44	55813.29
622.64	55702.70
622.84	55760.05
623.03	55628.98
623.23	55784.62
623.42	55563.44
623.62	55940.27
623.82	56022.19
624.01	55970.99
624.21	56212.65
624.40	55434.42
624.60	55833.77
624.80	55598.26
624.99	55657.65
625.19	55688.37
625.38	55946.41
625.58	55923.88
625.77	56233.13
625.97	56165.54
626.17	56120.49
626.36	56044.71
626.56	56474.79
626.75	55694.51
626.95	56388.77
627.14	55903.40
627.34	56747.17
627.54	56095.91
627.73	55981.23
627.93	56272.04
628.12	55878.83
628.32	56229.03
628.51	56095.91
628.71	56149.16
628.90	55893.16
629.10	56274.09
629.30	56087.72
629.49	56466.59
629.69	56296.61
629.88	56255.65
630.08	56515.75
630.27	56411.30
630.47	56317.09
630.66	56542.37
630.86	56712.35
631.05	55801.00
631.25	56151.21
631.44	56517.79
631.64	56712.35
631.84	56597.66
632.03	57169.05
632.23	56284.33
632.42	56853.66
632.62	57029.79
632.81	56362.15
633.01	56667.30
633.20	56841.37
633.40	57011.35
633.59	56779.93
633.79	56634.53
633.98	56587.42
634.18	57050.27
634.37	56839.32
634.57	56949.92
634.76	57144.47
634.96	57138.33
635.15	57269.40
635.35	56669.34
635.54	56695.97
635.74	57068.70
635.93	56882.33
636.13	57234.58
636.32	57361.56
636.52	56726.69
636.71	56976.54
636.91	57095.32
637.10	57193.62
637.30	56839.32
637.49	57298.07
637.69	57134.23
637.88	57308.31
638.08	57283.73
638.27	57402.52
638.46	56949.92
638.66	56974.49
638.85	57312.41
639.05	57386.13
639.24	57330.84
639.44	57328.79
639.63	57668.75
639.83	57455.76
640.02	57934.99
640.22	57402.52
640.41	57914.51
640.61	57150.62
640.80	57830.54
640.99	57429.14
641.19	57967.76
641.38	57699.47
641.58	57341.08
641.77	57439.38
641.97	57138.33
642.16	57574.55
642.36	57621.65
642.55	58043.53
642.74	57484.43
642.94	58203.27
643.13	57531.54
643.33	58170.50
643.52	57812.11
643.72	58072.20
643.91	57873.55
644.10	58371.21
644.30	58094.73
644.49	57939.08
644.69	58504.32
644.88	58348.68
645.08	57656.46
645.27	58162.31
645.46	57801.87
645.66	58113.16
645.85	57982.09
646.05	58221.70
646.24	57814.16
646.43	58188.94
646.63	58571.91
646.82	58274.95
647.02	57738.38
647.21	58154.12
647.40	58406.02
647.60	58485.89
647.79	58625.15
647.99	58178.70
648.18	58064.01
648.37	58840.19
648.57	58653.82
648.76	58225.80
648.96	58227.85
649.15	58586.24
649.34	58963.07
649.54	58258.57
649.73	58135.69
649.92	58731.65
650.12	58508.42
650.31	58645.63
650.51	58852.48
650.70	58934.40
650.89	58535.04
651.09	59186.30
651.28	58666.11
651.47	58713.22
651.67	58516.61
651.86	59430.01
652.06	58483.84
652.25	58270.85
652.44	58471.56
652.64	58397.83
652.83	58315.91
653.02	58229.90
653.22	58365.06
653.41	58141.83
653.60	58553.47
653.80	58543.23
653.99	58801.28
654.18	58483.84
654.38	58391.68
654.57	58987.64
654.76	58410.12
654.96	58369.16
655.15	58152.07
655.34	58219.66
655.54	57867.40
655.73	58432.64
655.92	58328.20
656.12	58127.50
656.31	58991.74
656.50	58662.02
656.70	58985.60
656.89	58580.10
657.08	58743.94
657.28	58516.61
657.47	58711.17
657.66	58508.42
657.86	58365.06
658.05	58659.97
658.24	58717.31
658.43	58135.69
658.63	58172.55
658.82	58479.75
659.01	58504.32
659.21	58594.43
659.40	58670.21
659.59	58346.63
659.79	59085.95
659.98	58522.76
660.17	58524.80
660.36	58397.83
660.56	58653.82
660.75	58242.18
660.94	58446.98
661.14	58557.57
661.33	58393.73
661.52	58283.14
661.71	58602.63
661.91	58084.49
662.10	58102.92
662.29	58659.97
662.49	58481.80
662.68	58481.80
662.87	58887.29
663.06	58430.60
663.26	58186.89
663.45	58606.72
663.64	58459.27
663.83	58799.23
664.03	58879.10
664.22	58588.29
664.41	58317.96
664.60	58373.25
664.80	58199.18
664.99	58066.06
665.18	58549.38
665.37	58186.89
665.57	58315.91
665.76	58381.45
665.95	58768.51
666.14	58430.60
666.34	58231.94
666.53	57918.60
666.72	57939.08
666.91	58004.62
667.11	57789.58
667.30	57701.52
667.49	57758.86
667.68	57906.32
667.87	57750.67
668.07	58385.54
668.26	57951.37
668.45	58186.89
668.64	57789.58
668.84	58430.60
669.03	58336.39
669.22	58297.48
669.41	58330.25
669.60	57736.34
669.80	57814.16
669.99	57779.34
670.18	58061.96
670.37	58029.19
670.57	58524.80
670.76	57656.46
670.95	58305.67
671.14	58111.11
671.33	57556.11
671.53	58408.07
671.72	58029.19
671.91	57939.08
672.10	57521.30
672.29	57980.04
672.48	58008.71
672.68	58147.98
672.87	57535.63
673.06	57318.55
673.25	57574.55
673.44	57801.87
673.64	57685.14
673.83	57107.61
674.02	57382.04
674.21	57443.48
674.40	57701.52
674.59	57363.60
674.79	57250.97
674.98	57033.88
675.17	57513.11
675.36	57203.86
675.55	57283.73
675.74	57058.46
675.94	56693.92
676.13	57115.80
676.32	57334.93
676.51	57631.89
676.70	57070.75
676.89	57025.69
677.08	57201.82
677.28	56956.06
677.47	57373.84
677.66	57468.05
677.85	57056.41
678.04	57410.71
678.23	57271.45
678.42	57083.03
678.62	56710.30
678.81	57123.99
679.00	57169.05
679.19	57611.41
679.38	56954.01
679.57	56624.29
679.76	56767.65
679.96	56947.87
680.15	56796.32
680.34	56775.84
680.53	56626.34
680.72	56589.47
680.91	56882.33
681.10	56435.87
681.29	57089.18
681.48	56806.56
681.68	56650.91
681.87	56575.14
682.06	56659.10
682.25	56030.38
682.44	56583.33
682.63	56366.24
682.82	55866.54
683.01	56493.22
683.20	55923.88
683.39	56091.82
683.59	56001.71
683.78	55995.56
683.97	55770.28
684.16	55884.97
684.35	55563.44
684.54	56104.10
684.73	55612.59
684.92	55835.82
685.11	55590.06
685.30	55618.74
685.49	55854.25
685.69	55934.12
685.88	55753.90
686.07	55571.63
686.26	55833.77
686.45	55825.58
686.64	55448.75
686.83	55571.63
687.02	55846.06
687.21	55358.64
687.40	55860.40
687.59	55473.33
687.78	55280.82
687.97	56036.52
688.16	55596.21
688.35	55458.99
688.54	55788.72
688.74	55065.78
688.93	55514.29
689.12	55094.46
689.31	54820.03
689.50	55624.88
689.69	55002.30
689.88	54557.89
690.07	55096.50
690.26	54949.05
690.45	55286.96
690.64	55205.05
690.83	55248.05
691.02	54940.86
691.21	55174.33
691.40	54670.53
691.59	54887.61
691.78	54873.27
691.97	54891.71
692.16	54830.27
692.35	55049.40
692.54	55108.79
692.73	55000.25
692.92	55051.45
693.11	54750.40
693.30	54699.20
693.49	54836.41
693.68	54469.82
693.87	54424.77
694.06	54297.80
694.25	54678.72
694.44	54219.97
694.63	54736.06
694.82	54418.63
695.01	54877.37
695.20	54308.04
695.39	54510.78
695.58	54131.91
695.77	54107.33
695.96	53892.30
696.15	54353.09
696.34	53947.59
696.53	53914.83
696.72	53986.50
696.91	53966.02
697.10	54148.29
697.29	54025.42
697.48	54408.39
697.67	53902.54
697.86	53630.16
698.05	53171.41
698.24	53945.54
698.43	53646.54
698.62	54047.94
698.81	53730.51
699.00	53830.86
699.19	53779.66
699.38	53906.63
699.57	53017.82
699.76	53986.50
699.95	53531.86
700.14	53306.58
700.32	53517.52
700.51	53650.64
700.70	53615.82
700.89	53636.30
701.08	53664.97
701.27	53515.47
701.46	53595.34
701.65	53142.74
701.84	53234.90
702.03	53394.64
702.22	52968.66
702.41	53195.99
702.60	52929.75
702.79	53150.93
702.98	52839.64
703.17	53048.53
703.35	52825.31
703.54	53048.53
703.73	53298.39
703.92	53005.53
704.11	53253.33
704.30	52425.95
704.49	52540.64
704.68	52491.49
704.87	52620.51
705.06	52638.94
705.25	52473.06
705.43	52384.99
705.62	52405.47
705.81	52438.24
706.00	52770.01
706.19	52397.28
706.38	52530.40
706.57	52593.89
706.76	52178.15
706.95	52712.67
707.14	52587.74
707.32	52305.12
707.51	51848.42
707.70	52446.43
707.89	52335.84
708.08	52188.39
708.27	52106.47
708.46	52649.18
708.65	52131.04
708.84	52380.90
709.02	52462.82
709.21	52380.90
709.40	52075.75
709.59	52151.52
709.78	51827.95
709.97	52573.41
710.16	51932.39
710.34	52350.18
710.53	51789.03
710.72	51827.95
710.91	52102.37
711.10	51979.49
711.29	51854.57
711.48	52059.37
711.66	51242.23
711.85	51434.74
712.04	51426.54
712.23	52065.51
712.42	51995.88
712.61	52020.45
712.80	51729.64
712.98	51502.32
713.17	51258.61
713.36	51207.41
713.55	51444.98
713.74	51119.35
713.93	51604.72
714.11	51682.54
714.30	51070.20
714.49	51410.16
714.68	51379.44
714.87	51389.68
715.06	51913.96
715.24	51045.62
715.43	51246.32
715.62	50980.09
715.81	50668.79
716.00	51231.99
716.18	50812.15
716.37	50965.75
716.56	50902.26
716.75	51668.20
716.94	50885.88
717.12	50615.55
717.31	51342.58
717.50	50775.29
717.69	50836.73
717.88	50613.50
718.06	50918.65
718.25	50922.74
718.44	50660.60
718.63	50722.04
718.82	50672.89
719.00	50664.70
719.19	50208.00
719.38	50507.01
719.57	50232.58
719.76	49927.43
719.94	49841.42
720.13	50285.82
720.32	50396.42
720.51	50142.47
720.69	49839.37
720.88	49612.04
721.07	49790.22
721.26	49519.88
721.44	49470.73
721.63	49898.76
721.82	49325.33
722.01	49362.19
722.20	50179.33
722.38	49141.01
722.57	49149.20
722.76	49691.91
722.95	49354.00
723.13	49485.07
723.32	49310.99
723.51	48901.40
723.70	49186.07
723.88	49294.61
724.07	49272.08
724.26	49317.14
724.44	48796.95
724.63	49417.49
724.82	49366.29
725.01	48989.46
725.19	49089.81
725.38	49003.80
725.57	48999.70
725.76	48973.08
725.94	48848.15
726.13	48473.37
726.32	48782.62
726.51	48938.26
726.69	48864.53
726.88	49173.78
727.07	48911.64
727.25	49048.85
727.44	49020.18
727.63	48678.17
727.82	48706.84
728.00	48618.78
728.19	48973.08
728.38	49040.66
728.56	48325.92
728.75	48543.00
728.94	48698.65
729.12	48932.12
729.31	48872.73
729.50	49022.23
729.69	48831.77
729.87	48559.39
730.06	48420.13
730.25	48651.55
730.43	49257.74
730.62	48213.28
730.81	49347.86
730.99	48776.47
731.18	48805.14
731.37	48231.71
731.55	49544.46
731.74	48868.63
731.93	48809.24
732.11	48758.04
732.30	48543.00
732.49	48405.79
732.67	48280.86
732.86	48788.76
733.05	48821.53
733.23	48420.13
733.42	48854.29
733.61	49304.85
733.79	48782.62
733.98	48823.58
734.17	48764.18
734.35	48817.43
734.54	48946.45
734.73	49227.02
734.91	48721.18
735.10	48694.55
735.29	48993.56
735.47	48540.96
735.66	48817.43
735.84	48583.96
736.03	48301.34
736.22	49202.45
736.40	48925.97
736.59	48676.12
736.78	48555.29
736.96	48246.05
737.15	48870.68
737.33	48637.21
737.52	48411.93
737.71	48211.23
737.89	48473.37
738.08	48160.03
738.27	48350.49
738.45	49034.52
738.64	48530.72
738.82	48618.78
739.01	48495.90
739.20	48344.35
739.38	48518.43
739.57	48393.50
739.75	48635.16
739.94	48344.35
740.13	48254.24
740.31	48055.59
740.50	48264.48
740.68	48444.70
740.87	48829.72
741.06	48594.20
741.24	48258.34
741.43	48065.83
741.61	48428.32
741.80	48020.77
741.99	48313.63
742.17	48147.75
742.36	48049.44
742.54	47887.65
742.73	47928.61
742.91	48348.45
743.10	48305.44
743.29	48082.21
743.47	48137.51
743.66	48526.62
743.84	48217.38
744.03	48043.30
744.21	47858.98
744.40	48012.58
744.59	47938.85
744.77	47781.16
744.96	48047.39
745.14	48432.41
745.33	47863.08
745.51	47758.63
745.70	47897.89
745.88	47691.05
746.07	47977.76
746.26	47701.29
746.44	47762.73
746.63	47977.76
746.81	48098.59
747.00	47428.91
747.18	47506.73
747.37	47433.00
747.55	47893.80
747.74	48334.11
747.92	47734.06
748.11	47666.47
748.29	47461.68
748.48	47281.45
748.66	47435.05
748.85	47289.65
749.03	47838.50
749.22	47420.72
749.41	47564.07
749.59	47750.44
749.78	46990.64
749.96	47043.89
750.15	47140.14
750.33	47322.41
750.52	46689.59
750.70	47367.47
750.89	46871.86
751.07	47187.25
751.26	47324.46
751.44	46847.29
751.63	47101.23
751.81	46458.17
752.00	46724.41
752.18	47338.80
752.37	46724.41
752.55	46589.24
752.74	46802.23
752.92	46611.77
753.10	46433.60
753.29	46771.51
753.47	46878.00
753.66	46716.22
753.84	46779.70
754.03	46421.31
754.21	46429.50
754.40	46734.65
754.58	46564.67
754.77	46275.90
754.95	46036.29
755.14	46392.64
755.32	46388.54
755.51	46220.61
755.69	46314.81
755.88	46585.15
756.06	46103.87
756.24	45948.23
756.43	46343.48
756.61	46083.39
756.80	45864.26
756.98	45823.30
757.17	46024.00
757.35	46175.55
757.54	46261.57
757.72	45739.33
757.90	45905.22
758.09	46060.87
758.27	46060.87
758.46	45258.06
758.64	45845.83
758.83	46099.78
759.01	46044.48
759.19	46132.54
759.38	45749.57
759.56	46482.75
759.75	45995.33
759.93	45802.82
760.12	45602.12
760.30	45583.69
760.48	45890.88
760.67	45991.23
760.85	45815.11
761.04	45806.92
761.22	45356.36
761.40	45520.20
761.59	45735.24
761.77	44989.78
761.96	45153.62
762.14	45690.18
762.32	45190.48
762.51	45270.35
762.69	44830.04
762.88	45258.06
763.06	45077.84
763.24	45395.28
763.43	45010.26
763.61	44864.85
763.80	44793.17
763.98	44866.90
764.16	44528.98
764.35	45004.11
764.53	44776.79
764.72	44834.13
764.90	45167.95
765.08	44770.64
765.27	44664.15
765.45	44377.43
765.63	44164.45
765.82	44717.40
766.00	44113.25
766.18	44408.15
766.37	44733.78
766.55	44365.15
766.74	44655.96
766.92	43930.98
767.10	44512.60
767.29	44475.74
767.47	43711.84
767.65	44074.34
767.84	43423.08
768.02	44070.24
768.20	43656.55
768.39	43863.39
768.57	44285.28
768.75	44422.49
768.94	44019.04
769.12	43851.11
769.30	43767.14
769.49	43691.37
769.67	43300.20
769.85	42636.66
770.04	43392.36
770.22	43206.00
770.40	43242.86
770.59	43275.63
770.77	43648.36
770.95	43226.48
771.14	43054.45
771.32	42990.96
771.50	42810.74
771.69	42866.03
771.87	43533.67
772.05	42839.41
772.24	42800.50
772.42	42802.55
772.60	43011.44
772.78	42372.47
772.97	42941.81
773.15	42579.32
773.33	42915.19
773.52	42304.89
773.70	42825.07
773.88	43029.87
774.07	42614.13
774.25	42820.98
774.43	42843.51
774.61	42794.36
774.80	42708.34
774.98	42909.04
775.16	42954.10
775.34	43074.93
775.53	42427.77
775.71	43115.89
775.89	42718.58
776.08	42458.49
776.26	43021.68
776.44	42737.01
776.62	42454.39
776.81	42220.92
776.99	42909.04
777.17	42880.37
777.35	42814.83
777.54	42841.46
777.72	42190.20
777.90	42853.75
778.08	42935.66
778.27	42837.36
778.45	43144.56
778.63	43011.44
778.81	42853.75
779.00	43400.55
779.18	43117.93
779.36	43210.09
779.54	42841.46
779.73	42884.47
779.91	43130.22
780.09	43025.78
780.27	43193.71
780.46	43277.68
780.64	43752.80
780.82	43056.50
781.00	43339.11
781.19	43357.55
781.37	43482.47
781.55	43244.91
781.73	43902.31
781.91	43416.94
782.10	43357.55
782.28	43576.68
782.46	43515.24
782.64	43662.69
782.82	43056.50
783.01	43117.93
783.19	43758.95
783.37	43529.58
783.55	43109.74
783.74	43873.63
783.92	43040.11
784.10	44217.69
784.28	43343.21
784.46	43390.31
784.64	43509.10
784.83	43586.92
785.01	43611.49
785.19	43445.61
785.37	44092.77
785.55	43771.24
785.74	43148.65
785.92	42614.13
786.10	43535.72
786.28	43572.58
786.46	43369.83
786.64	42808.69
786.83	43021.68
787.01	42999.15
787.19	42902.90
787.37	43156.85
787.55	43371.88
787.74	42745.20
787.92	43111.79
788.10	42747.25
788.28	42569.08
788.46	42620.28
788.64	42380.67
788.82	43033.97
789.01	42653.05
789.19	42763.64
789.37	42409.34
789.55	42354.04
789.73	42198.40
789.91	42251.64
790.09	42116.48
790.28	42345.85
790.46	41719.17
790.64	42177.92
790.82	41901.44
791.00	41878.91
791.18	41592.20
791.36	41772.42
791.55	41848.19
791.73	41727.36
791.91	41207.18
792.09	41506.18
792.27	41178.51
792.45	41080.21
792.63	41309.58
792.81	41172.36
793.00	40912.27
793.18	41153.93
793.36	40598.93
793.54	40664.47
793.72	40844.69
793.90	40875.41
794.08	40531.35
794.26	40904.08
794.44	40072.60
794.62	40175.00
794.81	40127.90
794.99	40445.33
795.17	39892.38
795.35	40263.07
795.53	40263.07
795.71	40086.94
795.89	39779.74
796.07	39622.05
796.25	39574.95
796.43	39568.80
796.61	39015.85
796.80	39040.43
796.98	39513.51
797.16	38884.78
797.34	39058.86
797.52	38976.94
797.70	38987.18
797.88	38782.38
798.06	38446.52
798.24	38497.72
798.42	38704.56
798.60	38022.59
798.78	38165.95
798.96	38292.92
799.14	38114.75
799.32	38116.79
799.51	37754.30
799.69	38180.28
799.87	37604.80
800.05	37635.52
800.23	37776.83
800.41	37643.71
800.59	37623.23
800.77	37121.48
800.95	37328.33
801.13	37148.11
801.31	37039.56
801.49	36888.01
801.67	36724.18
801.85	36877.77
802.03	36711.89
802.21	36560.34
802.39	36345.30
802.57	36595.15
802.75	36535.76
802.93	36263.38
803.11	36005.34
803.29	35825.12
803.47	36093.40
803.65	35644.90
803.83	35974.62
804.01	35956.19
804.19	35390.95
804.37	35407.33
804.55	35853.79
804.73	35626.46
804.91	35083.75
805.09	35255.78
805.27	35319.27
805.45	35296.74
805.63	35329.51
805.81	35290.60
805.99	35003.88
806.17	35075.56
806.35	34905.58
806.53	34909.68
806.71	34741.74
806.89	34663.92
807.07	34280.95
807.25	34735.60
807.43	34055.67
807.61	34788.85
807.79	34477.55
807.97	34223.61
808.15	34262.52
808.33	34008.57
808.51	34225.65
808.69	34088.44
808.87	33711.61
809.05	33297.92
809.23	33740.29
809.41	33426.95
809.59	33334.79
809.77	33551.87
809.95	33211.91
810.13	33269.25
810.31	33127.94
810.49	33189.38
810.67	33191.43
810.84	32792.08
811.02	33025.54
811.20	33021.45
811.38	32667.15
811.56	32689.68
811.74	32220.69
811.92	32507.41
812.10	32607.76
812.28	32607.76
812.46	32450.06
812.64	32445.97
812.82	32333.33
813.00	32265.75
813.18	32478.74
813.36	31903.26
813.53	31796.76
813.71	32083.48
813.89	31483.42
814.07	31895.07
814.25	31747.61
814.43	31680.03
814.61	31587.87
814.79	31614.49
814.97	31151.65
815.15	31409.70
815.33	31323.68
815.50	30768.68
815.68	31172.13
815.86	31415.84
816.04	31024.68
816.22	31036.97
816.40	31069.73
816.58	30766.63
816.76	30649.90
816.94	30709.29
817.11	30866.98
817.29	30842.41
817.47	30662.19
817.65	30694.96
817.83	30627.37
818.01	30565.93
818.19	30096.95
818.37	30334.51
818.54	29888.06
818.72	29896.25
818.90	30176.82
819.08	30176.82
819.26	30127.67
819.44	29955.64
819.62	29941.30
819.80	29736.51
819.97	30031.41
820.15	29662.78
820.33	29552.19
820.51	29673.02
820.69	29548.09
820.87	29382.21
821.05	29621.82
821.22	29498.94
821.40	29417.02
821.58	29210.18
821.76	28991.05
821.94	29029.96
822.12	28958.28
822.29	29111.88
822.47	29038.15
822.65	29331.01
822.83	28812.87
823.01	29218.37
823.19	29046.34
823.36	29021.77
823.54	28773.96
823.72	28573.26
823.90	28833.35
824.08	28808.78
824.25	28761.67
824.43	28397.13
824.61	28315.22
824.79	28393.04
824.97	28370.51
825.15	28622.41
825.32	28165.71
825.50	28165.71
825.68	28034.64
825.86	28390.99
826.04	28286.54
826.21	27940.44
826.39	28008.02
826.57	28108.37
826.75	28194.39
826.93	27739.74
827.10	27690.59
827.28	27928.15
827.46	27721.30
827.64	27977.30
827.81	27663.96
827.99	27688.54
828.17	27541.08
828.35	27240.03
828.53	27407.97
828.70	27674.20
828.88	27797.08
829.06	27272.80
829.24	27205.22
829.41	27237.98
829.59	27516.51
829.77	27227.74
829.95	27043.43
830.12	27111.01
830.30	27188.83
830.48	27285.09
830.66	27084.39
830.84	27014.76
831.01	26895.97
831.19	27000.42
831.37	26914.41
831.55	26607.21
831.72	26822.25
831.90	26824.29
832.08	26406.51
832.25	26388.08
832.43	26562.15
832.61	26426.99
832.79	26285.68
832.96	26441.32
833.14	26521.20
833.32	26328.69
833.50	26519.15
833.67	26265.20
833.85	26371.69
834.03	26140.27
834.20	26285.68
834.38	26390.13
834.56	26238.58
834.74	25943.67
834.91	25818.74
835.09	26117.75
835.27	25894.52
835.44	26011.25
835.62	25769.59
835.80	25945.72
835.98	25775.73
836.15	25661.05
836.33	25601.66
836.51	25747.06
836.68	25624.18
836.86	25433.72
837.04	25687.67
837.21	25654.90
837.39	25640.57
837.57	25640.57
837.75	25507.45
837.92	25159.30
838.10	24999.55
838.28	25149.06
838.45	25099.90
838.63	24872.58
838.81	25208.45
838.98	25038.47
839.16	24905.35
839.34	25071.23
839.51	24938.12
839.69	25036.42
839.87	24802.95
840.04	24761.99
840.22	24995.46
840.40	24776.33
840.57	24594.06
840.75	24807.05
840.93	24514.19
841.10	24639.11
841.28	25013.89
841.46	24831.62
841.63	24749.70
841.81	24555.15
841.98	24571.53
842.16	24413.84
842.34	24557.19
842.51	24331.92
842.69	24571.53
842.87	24262.29
843.04	24479.37
843.22	24346.25
843.40	24084.11
843.57	24053.39
843.75	24354.44
843.92	24356.49
844.10	24086.16
844.28	24417.93
844.45	24327.82
844.63	24262.29
844.81	23989.91
844.98	24018.58
845.16	23879.32
845.33	24065.68
845.51	23936.66
845.69	23760.53
845.86	23897.75
846.04	23436.95
846.21	23809.68
846.39	23647.90
846.57	23516.83
846.74	23740.05
846.92	23541.40
847.09	23502.49
847.27	23649.94
847.45	23414.43
847.62	23398.04
847.80	23887.51
847.97	23525.02
848.15	23619.22
848.32	23373.47
848.50	23240.35
848.68	23056.03
848.85	23123.62
849.03	22806.18
849.20	23092.90
849.38	23082.66
849.56	23361.18
849.73	23119.52
849.91	23154.33
850.08	23105.18
850.26	22550.18
850.43	23140.00
850.61	22912.67
850.78	22644.39
850.96	23056.03
851.14	22548.14
851.31	23078.56
851.49	22550.18
851.66	22906.53
851.84	22689.45
852.01	22779.56
852.19	22429.35
852.36	22668.97
852.54	22793.89
852.71	22531.75
852.89	22353.58
853.07	22365.87
853.24	22570.66
853.42	22722.21
853.59	22630.05
853.77	22546.09
853.94	22410.92
854.12	22503.08
854.29	22347.44
854.47	22386.35
854.64	22326.96
854.82	22359.72
854.99	22353.58
855.17	21999.28
855.34	22167.21
855.52	22466.22
855.69	22286.00
855.87	22066.86
856.04	21845.68
856.22	22075.06
856.39	21663.41
856.57	21962.42
856.74	22130.35
856.92	22216.36
857.09	21728.95
857.27	21812.92
857.44	22101.68
857.62	21784.24
857.79	21855.92
857.97	21907.12
858.14	21974.70
858.32	21655.22
858.49	21814.96
858.67	21526.20
858.84	21382.84
859.02	21601.97
859.19	21286.59
859.37	20967.10
859.54	21388.99
859.72	21573.30
859.89	21393.08
860.06	21663.41
860.24	21368.51
860.41	21270.20
860.59	21212.86
860.76	21434.04
860.94	21257.92
861.11	21276.35
861.29	21061.31
861.46	21087.93
861.64	20889.28
861.81	20956.86
861.98	20823.75
862.16	21018.30
862.33	20690.63
862.51	20960.96
862.68	21063.36
862.86	21059.26
863.03	20868.80
863.21	21042.88
863.38	20942.53
863.55	20924.10
863.73	20754.12
863.90	20758.21
864.08	20850.37
864.25	20872.90
864.43	20625.09
864.60	20713.16
864.77	20575.94
864.95	20573.89
865.12	20344.52
865.30	20627.14
865.47	20651.72
865.64	20463.30
865.82	20494.02
865.99	20616.90
866.17	20358.86
866.34	20453.06
866.51	20070.09
866.69	20514.50
866.86	20272.84
867.04	20287.18
867.21	20580.04
867.38	20061.90
867.56	20125.39
867.73	20293.32
867.91	20149.96
868.08	19957.46
868.25	19783.38
868.43	19594.96
868.60	19885.78
868.78	19689.17
868.95	20014.80
869.12	19683.03
869.30	19916.50
869.47	19818.19
869.64	19508.95
869.82	19930.83
869.99	19736.27
870.16	19494.61
870.34	19664.60
870.51	19756.75
870.69	19470.04
870.86	19345.11
871.03	19590.87
871.21	19525.33
871.38	19631.83
871.55	19693.27
871.73	19420.89
871.90	19402.46
872.07	19472.09
872.25	19058.40
872.42	19166.94
872.59	19189.47
872.77	19095.26
872.94	18906.85
873.11	18986.72
873.29	19369.69
873.46	19123.93
873.63	18798.31
873.81	18806.50
873.98	18906.85
874.15	18802.40
874.33	18650.85
874.50	18706.15
874.67	18945.76
874.85	18458.34
875.02	18480.87
875.19	18634.47
875.37	18360.04
875.54	18401.00
875.71	18622.18
875.88	18280.17
876.06	18482.92
876.23	18341.61
876.40	18253.55
876.58	18521.83
876.75	18271.98
876.92	18102.00
877.10	18306.79
877.27	17915.63
877.44	18183.91
877.61	18128.62
877.79	18110.19
877.96	17999.60
878.13	17966.83
878.31	17768.18
878.48	17864.43
878.65	17774.32
878.82	17649.39
879.00	17573.62
879.17	17665.78
879.34	17878.77
879.51	17422.07
879.69	17618.68
879.86	17600.24
880.03	17688.31
880.21	17573.62
880.38	17379.06
880.55	17581.81
880.72	17313.53
880.90	17516.28
881.07	17436.41
881.24	17200.89
881.41	17587.96
881.59	17301.24
881.76	17106.68
881.93	17305.34
882.10	17348.34
882.28	17164.03
882.45	17395.45
882.62	17041.15
882.79	17485.56
882.96	16865.02
883.14	17084.16
883.31	17198.84
883.48	17110.78
883.65	17112.83
883.83	17098.49
884.00	16733.95
884.17	17073.92
884.34	16922.37
884.51	16903.93
884.69	16953.09
884.86	17073.92
885.03	16875.26
885.20	16490.24
885.38	16932.61
885.55	16844.54
885.72	17055.48
885.89	16832.26
886.06	16649.99
886.24	16862.97
886.41	16658.18
886.58	16908.03
886.75	17014.52
886.92	16871.17
887.10	16758.53
887.27	16357.13
887.44	16649.99
887.61	16766.72
887.78	16699.14
887.95	16580.36
888.13	16293.64
888.30	16248.58
888.47	16471.81
888.64	16711.42
888.81	16422.66
888.99	16342.79
889.16	16238.34
889.33	16217.86
889.50	16187.14
889.67	16271.11
889.84	16144.14
890.01	15970.06
890.19	16119.56
890.36	16256.78
890.53	16258.82
890.70	16125.71
890.87	16056.08
891.04	16037.64
891.22	16146.19
891.39	16404.23
891.56	15884.05
891.73	16060.17
891.90	15830.80
892.07	15810.32
892.24	16025.36
892.42	15795.98
892.59	15755.02
892.76	15707.92
892.93	15929.10
893.10	15714.06
893.27	15875.85
893.44	15718.16
893.61	15595.28
893.79	15810.32
893.96	15916.81
894.13	15691.54
894.30	15843.09
894.47	15882.00
894.64	15693.58
894.81	15795.98
894.98	15933.20
895.15	16004.88
895.33	15779.60
895.50	15578.90
895.67	15855.37
895.84	15568.66
896.01	15376.15
896.18	15660.82
896.35	15972.11
896.52	15327.00
896.69	15859.47
896.86	15384.34
897.04	15703.82
897.21	15660.82
897.38	15642.39
897.55	15443.73
897.72	15589.14
897.89	15595.28
898.06	15595.28
898.23	15781.65
898.40	15537.94
898.57	15492.88
898.74	15470.36
898.91	15249.18
899.08	15386.39
899.26	15222.55
899.43	15406.87
899.60	15533.84
899.77	15449.88
899.94	15525.65
900.11	15286.04
900.28	15392.53
900.45	15349.53
900.62	15386.39
900.79	15421.20
900.96	15499.03
901.13	15413.01
901.30	15392.53
901.47	15341.33
901.64	15656.72
901.81	15458.07
901.98	15601.43
902.15	15634.19
902.32	15267.61
902.49	15681.30
902.66	15353.62
902.83	15515.41
903.01	15496.98
903.18	15587.09
903.35	15304.47
903.52	15314.71
903.69	15339.29
903.86	15820.56
904.03	15490.84
904.20	15374.10
904.37	15718.16
904.54	15400.72
904.71	15460.12
904.88	15331.09
905.05	15468.31
905.22	15449.88
905.39	15257.37
905.56	15150.87
905.73	15286.04
905.90	15292.18
906.07	15609.62
906.24	15398.68
906.41	15462.16
906.58	15566.61
906.75	15453.97
906.92	15210.26
907.09	15173.40
907.26	15533.84
907.43	15208.22
907.60	15437.59
907.77	15544.08
907.93	15511.32
908.10	15374.10
908.27	15462.16
908.44	15419.16
908.61	15085.34
908.78	15322.90
908.95	15359.77
909.12	15134.49
909.29	15255.32
909.46	15118.11
909.63	15275.80
909.80	15447.83
909.97	15329.05
910.14	15374.10
910.31	15281.94
910.48	15197.98
910.65	15419.16
910.82	15021.85
910.99	15154.97
911.16	15204.12
911.33	15290.13
911.50	15298.33
911.66	15097.63
911.83	15130.39
912.00	15030.04
912.17	15296.28
912.34	15015.71
912.51	14919.45
912.68	14806.81
912.85	15066.91
913.02	15179.54
913.19	15030.04
913.36	15068.95
913.53	14921.50
913.70	14706.46
913.86	14944.03
914.03	14984.99
914.20	14970.65
914.37	14970.65
914.54	14874.40
914.71	14745.38
914.88	14602.02
915.05	14657.31
915.22	14593.83
915.39	14753.57
915.55	14802.72
915.72	14544.67
915.89	14405.41
916.06	14339.88
916.23	14284.58
916.40	14286.63
916.57	14249.77
916.74	14376.74
916.91	14272.29
917.07	13913.90
917.24	13979.43
917.41	14262.05
917.58	14235.43
917.75	14204.71
917.92	13938.48
918.09	13881.13
918.26	14061.35
918.42	14020.39
918.59	13825.84
918.76	14010.15
918.93	13838.12
919.10	13758.25
919.27	13596.46
919.44	13918.00
919.60	13829.93
919.77	13606.70
919.94	13569.84
920.11	13639.47
920.28	13602.61
920.45	13469.49
920.61	13315.89
920.78	13528.88
920.95	13514.55
921.12	13506.35
921.29	13133.62
921.46	13260.60
921.62	13127.48
921.79	13303.60
921.96	13160.25
922.13	13197.11
922.30	12812.09
922.47	13221.69
922.63	13098.81
922.80	12787.52
922.97	12805.95
923.14	12744.51
923.31	12877.63
923.47	12533.57
923.64	12826.43
923.81	12349.25
923.98	12791.61
924.15	12656.45
924.32	12492.61
924.48	12740.41
924.65	12513.09
924.82	12343.11
924.99	12138.31
925.15	12080.97
925.32	12244.81
925.49	12244.81
925.66	12197.70
925.83	12015.43
925.99	12138.31
926.16	12025.67
926.33	12244.81
926.50	11898.70
926.67	12031.82
926.83	11906.89
927.00	11845.45
927.17	11781.96
927.34	11663.18
927.50	11599.70
927.67	11900.75
927.84	11646.80
928.01	11493.20
928.17	11374.42
928.34	11439.95
928.51	11497.30
928.68	11456.34
928.84	11233.11
929.01	11089.75
929.18	11333.46
929.35	11075.42
929.51	11018.07
929.68	10862.43
929.85	10923.87
930.02	10907.48
930.18	10862.43
930.35	10927.96
930.52	10913.63
930.69	10979.16
930.85	10772.32
931.02	10735.45
931.19	10776.41
931.36	10714.97
931.52	10684.25
931.69	10725.21
931.86	10544.99
932.02	10424.16
932.19	10499.94
932.36	10526.56
932.53	10549.09
932.69	10073.96
932.86	10293.09
933.03	10166.12
933.19	9809.77
933.36	10219.36
933.53	10221.41
933.70	9961.32
933.86	10137.45
934.03	10024.81
934.20	9660.27
934.36	9869.16
934.53	9539.44
934.70	9480.05
934.86	9596.78
935.03	9490.29
935.20	9463.66
935.36	9553.77
935.53	9303.92
935.70	9332.59
935.86	9201.52
936.03	9019.25
936.20	8920.95
936.36	9064.31
936.53	8961.91
936.70	8931.19
936.86	8904.57
937.03	8697.72
937.20	8636.28
937.36	8585.08
937.53	8329.09
937.70	8394.62
937.86	8146.82
938.03	8257.41
938.20	8048.52
938.36	7980.93
938.53	8081.28
938.70	7653.26
938.86	7804.81
939.03	7755.66
939.20	7454.61
939.36	7542.67
939.53	7329.68
939.70	7620.49
939.86	7147.41
940.03	7092.12
940.19	7042.96
940.36	7171.99
940.53	6950.81
940.69	6860.70
940.86	6776.73
941.03	6752.15
941.19	6543.26
941.36	6512.54
941.52	6670.23
941.69	6614.94
941.86	6561.69
942.02	6586.27
942.19	6379.42
942.35	6285.22
942.52	6205.35
942.69	6088.61
942.85	6121.38
943.02	6049.70
943.18	6117.28
943.35	5978.02
943.52	6066.08
943.68	5959.59
943.85	5996.45
944.01	5859.24
944.18	5760.94
944.35	5736.36
944.51	5685.16
944.68	5779.37
944.84	5756.84
945.01	5730.22
945.17	5625.77
945.34	5619.63
945.51	5777.32
945.67	5617.58
945.84	5543.85
946.00	5636.01
946.17	5562.28
946.33	5439.40
946.50	5679.02
946.67	5527.47
946.83	5484.46
947.00	5513.13
947.16	5500.84
947.33	5435.31
947.49	5472.17
947.66	5445.55
947.82	5435.31
947.99	5506.99
948.16	5517.23
948.32	5588.91
948.49	5586.86
948.65	5543.85
948.82	5416.88
948.98	5416.88
949.15	5529.52
949.31	5449.64
949.48	5629.87
949.64	5515.18
949.81	5492.65
949.97	5382.06
950.14	5425.07
950.30	5459.88
950.47	5562.28
950.63	5382.06
950.80	5463.98
950.96	5414.83
951.13	5562.28
951.30	5619.63
951.46	5521.32
951.63	5644.20
951.79	5609.39
951.96	5648.30
952.12	5543.85
952.29	5400.49
952.45	5474.22
952.62	5519.28
952.78	5478.32
952.94	5590.95
953.11	5466.03
953.27	5676.97
953.44	5732.26
953.60	5674.92
953.77	5656.49
953.93	5574.57
954.10	5656.49
954.26	5556.14
954.43	5580.71
954.59	5674.92
954.76	5629.87
954.92	5705.64
955.09	5576.62
955.25	5556.14
955.42	5619.63
955.58	5666.73
955.75	5679.02
955.91	5572.52
956.07	5713.83
956.24	5762.98
956.40	5781.42
956.57	5687.21
956.73	5607.34
956.90	5701.54
957.06	5564.33
957.23	5631.91
957.39	5599.15
957.56	5767.08
957.72	5613.48
957.88	5732.26
958.05	5633.96
958.21	5646.25
958.38	5738.41
958.54	5715.88
958.71	5803.94
958.87	5707.69
959.03	5599.15
959.20	5660.59
959.36	5517.23
959.53	5552.04
959.69	5480.36
959.85	5685.16
960.02	5611.43
960.18	5574.57
960.35	5539.76
960.51	5795.75
960.68	5578.67
960.84	5744.55
961.00	5691.31
961.17	5527.47
961.33	5601.19
961.50	5656.49
961.66	5746.60
961.82	5754.79
961.99	5603.24
962.15	5576.62
962.31	5631.91
962.48	5593.00
962.64	5681.07
962.81	5633.96
962.97	5717.93
963.13	5656.49
963.30	5539.76
963.46	5441.45
963.62	5453.74
963.79	5562.28
963.95	5558.19
964.12	5711.78
964.28	5578.67
964.44	5550.00
964.61	5525.42
964.77	5627.82
964.93	5633.96
965.10	5513.13
965.26	5433.26
965.42	5486.51
965.59	5466.03
965.75	5375.92
965.92	5537.71
966.08	5373.87
966.24	5439.40
966.41	5621.67
966.57	5418.93
966.73	5314.48
966.90	5586.86
967.06	5588.91
967.22	5332.91
967.39	5500.84
967.55	5423.02
967.71	5410.73
967.88	5283.76
968.04	5300.14
968.20	5357.49
968.37	5175.22
968.53	5212.08
968.69	5377.97
968.85	5357.49
969.02	5306.29
969.18	5476.27
969.34	5261.23
969.51	5289.90
969.67	5398.45
969.83	5351.34
970.00	5449.64
970.16	5345.20
970.32	5142.45
970.48	5320.62
970.65	5273.52
970.81	5341.10
970.97	5232.56
971.14	5113.78
971.30	5181.36
971.46	5304.24
971.63	5142.45
971.79	5226.42
971.95	5201.84
972.11	5031.86
972.28	5058.48
972.44	5160.88
972.60	4988.85
972.76	5095.35
972.93	5078.96
973.09	5242.80
973.25	5246.90
973.42	4984.76
973.58	5103.54
973.74	5081.01
973.90	5140.40
974.07	5011.38
974.23	5040.05
974.39	4992.95
974.55	5023.67
974.72	4935.60
974.88	4917.17
975.04	4931.51
975.20	5027.76
975.37	4958.13
975.53	4751.29
975.69	5031.86
975.85	4892.60
976.01	4827.06
976.18	4851.64
976.34	4876.21
976.50	4841.40
976.66	4988.85
976.83	4773.82
976.99	4925.36
977.15	4743.10
977.31	4685.75
977.47	4767.67
977.64	4708.28
977.80	4794.29
977.96	4745.14
978.12	4941.75
978.29	4630.46
978.45	4673.46
978.61	4704.18
978.77	4736.95
978.93	4741.05
979.10	4655.03
979.26	4706.23
979.42	4657.08
979.58	4538.30
979.74	4552.63
979.91	4593.59
980.07	4544.44
980.23	4573.11
980.39	4595.64
980.55	4675.51
980.71	4503.48
980.88	4456.38
981.04	4493.24
981.20	4591.55
981.36	4595.64
981.52	4388.80
981.68	4378.56
981.85	4648.89
982.01	4515.77
982.17	4521.92
982.33	4300.73
982.49	4507.58
982.65	4452.28
982.82	4456.38
982.98	4442.04
983.14	4302.78
983.30	4429.76
983.46	4440.00
983.62	4452.28
983.79	4296.64
983.95	4306.88
984.11	4179.90
984.27	4472.76
984.43	4263.87
984.59	4245.44
984.75	4345.79
984.91	4310.97
985.08	4372.41
985.24	4171.71
985.40	4270.01
985.56	4325.31
985.72	4368.32
985.88	4220.86
986.04	4216.77
986.20	4214.72
986.37	4128.70
986.53	4108.23
986.69	4218.82
986.85	4147.14
987.01	4110.27
987.17	4175.81
987.33	4112.32
987.49	3966.92
987.65	4100.03
987.82	4120.51
987.98	4063.17
988.14	4210.62
988.30	4046.79
988.46	4050.88
988.62	4181.95
988.78	3983.30
988.94	4048.83
989.10	3911.62
989.26	3897.28
989.42	3809.22
989.59	3782.60
989.75	3923.91
989.91	3919.81
990.07	3776.45
990.23	3827.65
990.39	4009.92
990.55	3798.98
990.71	3891.14
990.87	3930.05
991.03	3897.28
991.19	3829.70
991.35	3872.71
991.51	3868.61
991.67	3790.79
991.83	3715.02
992.00	3751.88
992.16	3948.48
992.32	3848.13
992.48	3981.25
992.64	3690.44
992.80	3858.37
992.96	3762.12
993.12	3815.37
993.28	3708.87
993.44	3760.07
993.60	3811.27
993.76	3604.42
993.92	3727.30
994.08	3710.92
994.24	3772.36
994.40	3686.34
994.56	3770.31
994.72	3592.14
994.88	3571.66
995.04	3741.64
995.20	3588.04
995.36	3629.00
995.52	3737.54
995.68	3678.15
995.84	3579.85
996.00	3727.30
996.16	3555.27
996.32	3465.16
996.48	3557.32
996.64	3559.37
996.80	3506.12
996.96	3534.79
997.12	3555.27
997.28	3487.69
997.44	3342.28
997.60	3448.78
997.76	3454.92
997.92	3563.47
998.08	3450.83
998.24	3303.37
998.40	3461.07
998.56	3434.44
998.72	3356.62
998.88	3377.10
999.04	3352.52
999.20	3311.57
999.36	3243.98
999.52	3547.08
999.68	3276.75
999.84	3323.85
1000.00	3346.38
1000.16	3420.11
1000.32	3411.92
1000.48	3334.09
1000.64	3243.98
1000.80	3332.05
1000.95	3233.74
1001.11	3352.52
1001.27	3205.07
1001.43	3293.13
1001.59	3241.93
1001.75	3225.55
1001.91	3157.97
1002.07	3143.63
1002.23	3170.26
1002.39	3137.49
1002.55	3147.73
1002.71	3164.11
1002.87	3192.78
1003.03	3174.35
1003.19	3137.49
1003.34	3203.02
1003.50	3155.92
1003.66	3149.78
1003.82	3129.30
1003.98	3125.20
1004.14	3168.21
1004.30	3076.05
1004.46	3082.19
1004.62	3014.61
1004.78	3024.85
1004.94	3082.19
1005.09	3137.49
1005.25	3024.85
1005.41	3092.43
1005.57	3041.23
1005.73	3008.47
1005.89	3030.99
1006.05	2994.13
1006.21	3110.86
1006.37	2930.64
1006.52	2951.12
1006.68	2815.96
1006.84	3024.85
1007.00	2879.44
1007.16	2985.94
1007.32	2975.70
1007.48	2977.75
1007.64	2944.98
1007.79	2916.31
1007.95	2826.20
1008.11	2975.70
1008.27	2885.59
1008.43	2899.92
1008.59	2846.68
1008.75	3002.32
1008.91	2838.48
1009.06	2746.33
1009.22	2901.97
1009.38	2766.81
1009.54	2908.12
1009.70	2809.81
1009.86	2914.26
1010.01	2838.48
1010.17	2850.77
1010.33	2807.77
1010.49	2688.98
1010.65	2807.77
1010.81	2721.75
1010.96	2764.76
1011.12	2758.61
1011.28	2744.28
1011.44	2818.00
1011.60	2754.52
1011.76	2623.45
1011.91	2838.48
1012.07	2656.22
1012.23	2566.10
1012.39	2633.69
1012.55	2746.33
1012.71	2686.94
1012.86	2650.07
1013.02	2688.98
1013.18	2584.54
1013.34	2676.70
1013.50	2750.42
1013.65	2662.36
1013.81	2617.30
1013.97	2635.74
1014.13	2674.65
1014.29	2676.70
1014.44	2695.13
1014.60	2609.11
1014.76	2664.41
1014.92	2660.31
1015.07	2621.40
1015.23	2510.81
1015.39	2502.62
1015.55	2574.30
1015.71	2519.00
1015.86	2469.85
1016.02	2549.72
1016.18	2480.09
1016.34	2559.96
1016.49	2586.58
1016.65	2693.08
1016.81	2437.08
1016.97	2451.42
1017.12	2508.76
1017.28	2389.98
1017.44	2387.93
1017.60	2469.85
1017.75	2439.13
1017.91	2443.23
1018.07	2512.86
1018.23	2418.65
1018.38	2475.99
1018.54	2492.38
1018.70	2465.75
1018.86	2467.80
1019.01	2359.26
1019.17	2469.85
1019.33	2529.24
1019.49	2404.32
1019.64	2426.84
1019.80	2451.42
1019.96	2355.16
1020.12	2428.89
1020.27	2396.12
1020.43	2445.27
1020.59	2424.80
1020.74	2361.31
1020.90	2392.03
1021.06	2299.87
1021.22	2412.51
1021.37	2402.27
1021.53	2320.35
1021.69	2377.69
1021.84	2310.11
1022.00	2383.84
1022.16	2314.20
1022.31	2238.43
1022.47	2342.88
1022.63	2377.69
1022.79	2156.51
1022.94	2242.53
1023.10	2387.93
1023.26	2273.25
1023.41	2314.20
1023.57	2291.68
1023.73	2330.59
1023.88	2289.63
1024.04	2299.87
1024.20	2346.97
1024.35	2363.36
1024.51	2197.47
1024.67	2250.72
1024.82	2353.12
1024.98	2201.57
1025.14	2328.54
1025.29	2234.33
1025.45	2267.10
1025.61	2152.42
1025.76	2199.52
1025.92	2226.14
1026.08	2275.29
1026.23	2254.81
1026.39	2269.15
1026.55	2133.98
1026.70	2131.94
1026.86	2183.13
1027.02	2230.24
1027.17	2240.48
1027.33	2168.80
1027.48	2140.13
1027.64	2090.98
1027.80	2199.52
1027.95	2226.14
1028.11	2115.55
1028.27	2142.18
1028.42	2136.03
1028.58	2160.61
1028.73	2088.93
1028.89	2029.54
1029.05	2113.50
1029.20	2117.60
>>>>>End Processed Spectral Data<<<<<
