SpectraSuite Data File
++++++++++++++++++++++++++++++++++++
Date: Fri Jun 02 14:52:23 CEST 2017
User: INFO_000
Dark Spectrum Present: No
Reference Spectrum Present: No
Number of Sampled Component Spectra: 1
Spectrometers: USB4H00879
Integration Time (usec): 80000 (USB4H00879)
Spectra Averaged: 1 (USB4H00879)
Boxcar Smoothing: 0 (USB4H00879)
Correct for Electrical Dark: No (USB4H00879)
Strobe/Lamp Enabled: No (USB4H00879)
Correct for Detector Non-linearity: No (USB4H00879)
Correct for Stray Light: No (USB4H00879)
Number of Pixels in Processed Spectrum: 3648
>>>>>Begin Processed Spectral Data<<<<<
345.13	1314.80
345.34	1314.80
345.56	1314.80
345.78	1349.61
345.99	1331.18
346.21	1632.23
346.42	1669.09
346.64	1662.95
346.86	1783.78
347.07	1609.70
347.29	1753.06
347.50	1607.66
347.72	1638.38
347.94	1705.96
348.15	1560.55
348.37	1546.22
348.59	1773.54
348.80	1601.51
349.02	1738.73
349.23	1769.44
349.45	1705.96
349.67	1753.06
349.88	1644.52
350.10	1880.04
350.31	1748.97
350.53	1679.33
350.75	1916.90
350.96	1705.96
351.18	1767.40
351.39	1679.33
351.61	1697.77
351.82	1880.04
352.04	1763.30
352.26	1667.05
352.47	1736.68
352.69	1812.45
352.90	1679.33
353.12	1738.73
353.34	1708.01
353.55	1728.49
353.77	1796.07
353.98	1705.96
354.20	1638.38
354.41	1767.40
354.63	1765.35
354.85	1900.52
355.06	1738.73
355.28	1589.22
355.49	1796.07
355.71	1798.12
355.92	1757.16
356.14	1757.16
356.35	1683.43
356.57	1753.06
356.79	1812.45
357.00	1744.87
357.22	1859.56
357.43	1617.90
357.65	1791.97
357.86	1665.00
358.08	1689.57
358.29	1779.68
358.51	1796.07
358.72	1806.31
358.94	1779.68
359.16	1798.12
359.37	1800.16
359.59	1804.26
359.80	1830.88
360.02	1751.01
360.23	1808.36
360.45	1830.88
360.66	1771.49
360.88	1640.42
361.09	1781.73
361.31	1740.77
361.52	1689.57
361.74	1830.88
361.95	1851.36
362.17	1730.53
362.38	1914.85
362.60	1886.18
362.81	1765.35
363.03	1755.11
363.24	1720.29
363.46	1939.43
363.67	1832.93
363.89	1787.88
364.10	1740.77
364.32	1744.87
364.53	1802.21
364.75	1675.24
364.96	1775.59
365.18	1757.16
365.39	1830.88
365.61	1671.14
365.82	1970.15
366.04	1787.88
366.25	1673.19
366.47	1753.06
366.68	1740.77
366.90	1767.40
367.11	1791.97
367.33	1736.68
367.54	1806.31
367.76	1726.44
367.97	1839.08
368.19	1800.16
368.40	1798.12
368.62	1654.76
368.83	1650.66
369.05	1757.16
369.26	1771.49
369.48	1716.20
369.69	1687.53
369.91	1724.39
370.12	1753.06
370.33	1789.92
370.55	1675.24
370.76	1712.10
370.98	1865.70
371.19	1767.40
371.41	1742.82
371.62	1718.25
371.84	1726.44
372.05	1865.70
372.27	1777.64
372.48	1824.74
372.69	1736.68
372.91	1896.42
373.12	1851.36
373.34	1738.73
373.55	1794.02
373.77	1828.84
373.98	1771.49
374.20	1953.76
374.41	1933.28
374.62	1763.30
374.84	1898.47
375.05	1796.07
375.27	1794.02
375.48	1837.03
375.70	1771.49
375.91	1847.27
376.12	1957.86
376.34	1855.46
376.55	1847.27
376.77	1863.65
376.98	1753.06
377.19	1732.58
377.41	1929.19
377.62	1853.41
377.84	1990.63
378.05	1992.67
378.27	1884.13
378.48	1941.47
378.69	2021.35
378.91	2039.78
379.12	1861.60
379.34	1877.99
379.55	1976.29
379.76	1880.04
379.98	1884.13
380.19	1937.38
380.41	1863.65
380.62	1914.85
380.83	1912.80
381.05	1740.77
381.26	1994.72
381.47	1773.54
381.69	1826.79
381.90	1961.95
382.12	1859.56
382.33	1777.64
382.54	1839.08
382.76	1853.41
382.97	1959.91
383.19	1880.04
383.40	1990.63
383.61	1882.08
383.83	1943.52
384.04	1888.23
384.25	1953.76
384.47	1982.43
384.68	1802.21
384.89	1771.49
385.11	1925.09
385.32	1941.47
385.54	1822.69
385.75	1888.23
385.96	1925.09
386.18	1957.86
386.39	1877.99
386.60	1935.33
386.82	2002.91
387.03	1861.60
387.24	2045.92
387.46	2019.30
387.67	1945.57
387.88	2080.74
388.10	1937.38
388.31	1904.61
388.52	2039.78
388.74	2002.91
388.95	2090.98
389.16	1974.24
389.38	1988.58
389.59	2062.30
389.80	2127.84
390.02	1992.67
390.23	2095.07
390.44	1945.57
390.66	2041.82
390.87	2021.35
391.08	2037.73
391.30	2205.66
391.51	2154.46
391.72	2144.22
391.94	2226.14
392.15	2201.57
392.36	2029.54
392.58	2097.12
392.79	2090.98
393.00	2174.94
393.22	2283.49
393.43	2314.20
393.64	2176.99
393.85	2203.61
394.07	2211.81
394.28	2338.78
394.49	2250.72
394.71	2394.08
394.92	2283.49
395.13	2101.22
395.35	2199.52
395.56	2027.49
395.77	2377.69
395.98	2222.05
396.20	2236.38
396.41	2408.41
396.62	2318.30
396.84	2332.64
397.05	2238.43
397.26	2154.46
397.47	2512.86
397.69	2365.40
397.90	2484.19
398.11	2480.09
398.32	2285.53
398.54	2201.57
398.75	2320.35
398.96	2480.09
399.18	2521.05
399.39	2387.93
399.60	2488.28
399.81	2414.56
400.03	2463.71
400.24	2639.83
400.45	2500.57
400.66	2506.71
400.88	2412.51
401.09	2666.46
401.30	2404.32
401.51	2568.15
401.73	2562.01
401.94	2562.01
402.15	2656.22
402.36	2779.09
402.58	2787.29
402.79	2854.87
403.00	2768.85
403.21	2748.37
403.43	2729.94
403.64	2844.63
403.85	2838.48
404.06	2889.68
404.27	2688.98
404.49	2617.30
404.70	2688.98
404.91	2826.20
405.12	2627.54
405.34	2682.84
405.55	2963.41
405.76	2764.76
405.97	2883.54
406.19	3176.40
406.40	2729.94
406.61	3035.09
406.82	3006.42
407.03	2879.44
407.25	2850.77
407.46	3037.14
407.67	2938.84
407.88	3268.56
408.09	2914.26
408.31	3061.71
408.52	2983.89
408.73	3006.42
408.94	2899.92
409.15	3035.09
409.37	3088.34
409.58	3147.73
409.79	3080.14
410.00	3205.07
410.21	3035.09
410.43	3243.98
410.64	2848.72
410.85	3035.09
411.06	3274.70
411.27	3309.52
411.48	3211.22
411.70	3305.42
411.91	3157.97
412.12	3483.59
412.33	3250.13
412.54	3241.93
412.76	3356.62
412.97	3309.52
413.18	3258.32
413.39	3276.75
413.60	3506.12
413.81	3284.94
414.03	3409.87
414.24	3231.69
414.45	3555.27
414.66	3360.72
414.87	3585.99
415.08	3295.18
415.30	3518.41
415.51	3459.02
415.72	3237.84
415.93	3608.52
416.14	3542.99
416.35	3483.59
416.56	3606.47
416.78	3563.47
416.99	3612.62
417.20	3592.14
417.41	3651.53
417.62	3659.72
417.83	3749.83
418.04	3698.63
418.26	3801.03
418.47	3792.84
418.68	3858.37
418.89	3837.89
419.10	3913.67
419.31	3782.60
419.52	3860.42
419.73	3676.10
419.95	4009.92
420.16	3680.20
420.37	3817.41
420.58	3934.15
420.79	3690.44
421.00	3893.19
421.21	4073.41
421.42	3860.42
421.63	3973.06
421.85	3954.63
422.06	4040.64
422.27	4018.11
422.48	3948.48
422.69	4007.87
422.90	4118.47
423.11	4100.03
423.32	4192.19
423.53	4196.29
423.75	4138.94
423.96	4399.04
424.17	4263.87
424.38	4474.81
424.59	4317.12
424.80	4450.24
425.01	4403.13
425.22	4351.93
425.43	4358.08
425.64	4528.06
425.85	4566.97
426.06	4491.20
426.28	4579.26
426.49	4380.61
426.70	4417.47
426.91	4677.56
427.12	4585.40
427.33	4612.03
427.54	4657.08
427.75	4720.57
427.96	4771.77
428.17	4636.60
428.38	4732.86
428.59	4902.84
428.80	4786.10
429.01	4900.79
429.23	4820.92
429.44	4968.37
429.65	5005.24
429.86	4939.70
430.07	4884.41
430.28	4874.17
430.49	5054.39
430.70	5052.34
430.91	5066.67
431.12	5021.62
431.33	5167.03
431.54	5089.20
431.75	5160.88
431.96	5300.14
432.17	5097.39
432.38	5162.93
432.59	5353.39
432.80	5246.90
433.01	5263.28
433.22	5414.83
433.43	5259.18
433.64	5279.66
433.85	5330.86
434.06	5396.40
434.27	5394.35
434.49	5453.74
434.70	5595.05
434.91	5459.88
435.12	5535.66
435.33	5398.45
435.54	5371.82
435.75	5447.60
435.96	5599.15
436.17	5543.85
436.38	5834.66
436.59	5697.45
436.80	5556.14
437.01	5853.09
437.22	5742.50
437.43	5754.79
437.64	5627.82
437.85	5894.05
438.06	5918.63
438.27	5801.90
438.48	5842.85
438.69	5949.35
438.90	5894.05
439.11	5664.68
439.32	6057.89
439.53	5916.58
439.74	6041.51
439.95	5953.45
440.16	5818.28
440.37	6021.03
440.57	5926.82
440.78	5998.50
440.99	6125.47
441.20	6078.37
441.41	6021.03
441.62	6094.76
441.83	5971.88
442.04	6231.97
442.25	6148.00
442.46	5912.49
442.67	6148.00
442.88	6680.47
443.09	6231.97
443.30	6399.90
443.51	6227.87
443.72	6526.88
443.93	6193.06
444.14	6543.26
444.35	6256.54
444.56	6539.16
444.77	6524.83
444.98	6244.26
445.19	6344.61
445.40	6573.98
445.61	6348.70
445.81	6551.45
446.02	6518.68
446.23	6363.04
446.44	6502.30
446.65	6680.47
446.86	6561.69
447.07	6729.63
447.28	6805.40
447.49	6870.94
447.70	6555.55
447.91	6848.41
448.12	6815.64
448.33	6885.27
448.54	6954.90
448.74	6694.81
448.95	6936.47
449.16	6721.43
449.37	7233.43
449.58	6836.12
449.79	7032.72
450.00	7077.78
450.21	7038.87
450.42	7077.78
450.63	7153.55
450.84	6946.71
451.05	7251.86
451.25	7120.79
451.46	7157.65
451.67	7249.81
451.88	7391.12
452.09	7366.54
452.30	7296.91
452.51	7360.40
452.72	7534.48
452.93	7610.25
453.13	7374.74
453.34	7319.44
453.55	7446.41
453.76	7311.25
453.97	7860.10
454.18	7581.58
454.39	7608.20
454.60	7587.72
454.81	7769.99
455.01	7839.62
455.22	7565.20
455.43	7901.06
455.64	7962.50
455.85	7974.79
456.06	8122.24
456.27	7862.15
456.48	7806.86
456.68	8069.00
456.89	8103.81
457.10	8251.27
457.31	8028.04
457.52	7982.98
457.73	8126.34
457.94	8370.05
458.14	8101.76
458.35	8544.13
458.56	8302.47
458.77	8357.76
458.98	8488.83
459.19	8447.87
459.39	8445.82
459.60	8630.14
459.81	8378.24
460.02	8707.96
460.23	8669.05
460.44	8966.01
460.65	8861.56
460.85	8894.33
461.06	8750.97
461.27	8740.73
461.48	9004.92
461.69	9176.95
461.89	8906.62
462.10	9062.26
462.31	8906.62
462.52	9144.18
462.73	9125.75
462.94	9258.87
463.14	9222.00
463.35	9416.56
463.56	9594.73
463.77	9607.02
463.98	9232.24
464.18	9365.36
464.39	9668.46
464.60	9858.92
464.81	9760.62
465.02	9740.14
465.23	10053.48
465.43	9631.60
465.64	9924.46
465.85	10047.33
466.06	9924.46
466.27	10250.08
466.47	10207.08
466.68	10342.24
466.89	10006.38
467.10	10188.64
467.30	10114.92
467.51	10375.01
467.72	10526.56
467.93	10295.14
468.14	10506.08
468.34	10676.06
468.55	10719.07
468.76	10667.87
468.97	10485.60
469.17	10938.20
469.38	10803.04
469.59	11140.95
469.80	10768.22
470.01	10866.52
470.21	10950.49
470.42	11239.25
470.63	11573.07
470.84	11099.99
471.04	11380.56
471.25	11274.07
471.46	11376.47
471.67	11788.11
471.87	11636.56
472.08	11716.43
472.29	12046.15
472.50	11511.63
472.70	11870.03
472.91	12009.29
473.12	12144.45
473.33	12367.68
473.53	12203.85
473.74	12128.07
473.95	12420.93
474.16	12627.78
474.36	12568.38
474.57	12554.05
474.78	12975.93
474.99	12990.27
475.19	12752.70
475.40	13180.73
475.61	13166.39
475.81	13283.13
476.02	13483.83
476.23	13090.62
476.44	13279.03
476.64	13455.15
476.85	13840.17
477.06	13918.00
477.27	13913.90
477.47	14063.40
477.68	13862.70
477.89	14245.67
478.09	14186.28
478.30	14053.16
478.51	14257.96
478.71	14618.40
478.92	14503.71
479.13	14681.89
479.34	14749.47
479.54	14778.14
479.75	14931.74
479.96	14886.68
480.16	15042.33
480.37	15263.51
480.58	15380.25
480.78	15576.85
480.99	15548.18
481.20	15613.71
481.41	15812.37
481.61	15990.54
481.82	15879.95
482.03	15857.42
482.23	15933.20
482.44	16183.05
482.65	16340.74
482.85	16289.54
483.06	16160.52
483.27	16645.89
483.47	16568.07
483.68	16631.55
483.89	16922.37
484.09	16719.62
484.30	17082.11
484.51	17045.24
484.71	17137.40
484.92	17161.98
485.13	17506.04
485.33	17491.70
485.54	17426.17
485.75	17528.56
485.95	17729.27
486.16	17796.85
486.37	17954.54
486.57	17868.53
486.78	17936.11
486.98	18042.60
487.19	18056.94
487.40	18255.59
487.60	18460.39
487.81	18482.92
488.02	18568.93
488.22	18573.03
488.43	18788.07
488.64	18757.35
488.84	18947.81
489.05	19199.71
489.25	18884.32
489.46	19459.80
489.67	19224.28
489.87	19627.73
490.08	19535.57
490.29	19300.06
490.49	19867.34
490.70	19961.55
490.90	19949.26
491.11	19949.26
491.32	20233.93
491.52	20106.96
491.73	20106.96
491.94	20362.95
492.14	20066.00
492.35	20403.91
492.55	20614.85
492.76	20573.89
492.97	20815.55
493.17	21032.64
493.38	21106.37
493.58	21335.74
493.79	20876.99
494.00	21110.46
494.20	21241.53
494.41	21239.48
494.61	21462.71
494.82	21296.83
495.02	21565.11
495.23	21860.02
495.44	21638.84
495.64	21890.74
495.85	22290.09
496.05	21923.51
496.26	22034.10
496.47	22316.72
496.67	22075.06
496.88	22591.14
497.08	22447.79
497.29	22617.77
497.49	22455.98
497.70	22529.70
497.91	22691.49
498.11	23045.79
498.32	22898.34
498.52	23170.72
498.73	23193.25
498.93	22914.72
499.14	23193.25
499.34	23201.44
499.55	23342.75
499.76	23383.71
499.96	23602.84
500.17	23586.46
500.37	23404.19
500.58	23836.31
500.78	23940.75
500.99	23783.06
501.19	23926.42
501.40	23944.85
501.60	23953.04
501.81	24159.89
502.02	24192.65
502.22	24149.65
502.43	24598.15
502.63	24567.43
502.84	24534.67
503.04	24387.21
503.25	24733.32
503.45	24587.91
503.66	25024.13
503.86	24733.32
504.07	24936.07
504.27	24624.78
504.48	25523.83
504.68	24950.40
504.89	25128.58
505.09	25296.51
505.30	25349.76
505.50	25347.71
505.71	25415.29
505.91	25640.57
506.12	25372.28
506.32	25439.87
506.53	26064.50
506.73	25964.15
506.94	25671.29
507.14	25831.03
507.35	26072.69
507.55	25976.44
507.76	26218.10
507.96	25978.48
508.17	25990.77
508.37	26261.10
508.58	26046.07
508.78	26238.58
508.99	26578.54
509.19	26404.46
509.40	26603.11
509.60	26336.88
509.81	26916.45
510.01	26498.67
510.22	26814.05
510.42	26769.00
510.63	26981.99
510.83	27086.43
511.04	26734.18
511.24	27213.41
511.44	27084.39
511.65	27291.23
511.85	27283.04
512.06	27317.86
512.26	27332.19
512.47	27670.11
512.67	27297.38
512.88	27487.84
513.08	27518.56
513.29	27629.15
513.49	27545.18
513.69	27698.78
513.90	27723.35
514.10	27563.61
514.31	27889.24
514.51	28204.63
514.72	27799.13
514.92	27758.17
515.13	28139.09
515.33	28343.89
515.53	28008.02
515.74	28124.75
515.94	28307.02
516.15	28268.11
516.35	28345.94
516.56	28372.56
516.76	28180.05
516.96	28515.92
517.17	28718.67
517.37	28847.69
517.58	28796.49
517.78	29054.53
517.99	29005.38
518.19	28786.25
518.39	28978.76
518.60	29451.84
518.80	28952.13
519.01	29263.43
519.21	29304.38
519.41	29238.85
519.62	29259.33
519.82	29484.61
520.03	29482.56
520.23	29683.26
520.43	29496.89
520.64	29898.30
520.84	30197.30
521.05	30246.45
521.25	30094.90
521.45	30103.09
521.66	30266.93
521.86	30078.52
522.07	30066.23
522.27	30375.47
522.47	30604.84
522.68	30627.37
522.88	30406.19
523.08	30758.44
523.29	30395.95
523.49	30871.08
523.70	30823.98
523.90	30930.47
524.10	31002.15
524.31	31034.92
524.51	31043.11
524.71	31266.34
524.92	31311.39
525.12	31383.07
525.33	31333.92
525.53	31751.71
525.73	31657.50
525.94	31647.26
526.14	31575.58
526.34	31860.25
526.55	31739.42
526.75	31770.14
526.95	32513.55
527.16	32402.96
527.36	32253.46
527.56	32470.54
527.77	32603.66
527.97	32697.87
528.17	32609.81
528.38	32826.89
528.58	32671.25
528.78	33062.41
528.99	32753.16
529.19	33281.54
529.39	32769.55
529.60	33449.47
529.80	33496.58
530.00	33472.00
530.21	33517.06
530.41	33809.92
530.61	33330.69
530.82	33877.50
531.02	33768.96
531.22	34051.58
531.43	33461.76
531.63	33990.14
531.83	34502.13
532.04	34477.55
532.24	34291.19
532.44	34547.18
532.64	34801.13
532.85	34602.48
533.05	34598.38
533.25	34737.65
533.46	34975.21
533.66	35317.22
533.86	34792.94
534.07	35640.80
534.27	34969.07
534.47	35601.89
534.67	35587.55
534.88	35612.13
535.08	35677.66
535.28	36054.49
535.49	35943.90
535.69	36015.58
535.89	35993.05
536.09	36255.19
536.30	36324.82
536.50	36566.48
536.70	36496.85
536.91	36392.40
537.11	36206.04
537.31	36623.83
537.51	36609.49
537.72	36890.06
537.92	37270.98
538.12	37426.63
538.32	36892.11
538.53	36875.73
538.73	37111.24
538.93	37168.58
539.13	37410.25
539.34	37275.08
539.54	37449.16
539.74	38053.31
539.94	37553.60
540.15	37672.39
540.35	37834.17
540.55	38084.03
540.75	37887.42
540.96	38051.26
541.16	37895.61
541.36	38225.34
541.56	38323.64
541.77	38684.08
541.97	38507.96
542.17	38354.36
542.37	38542.77
542.58	38780.34
542.78	38948.27
542.98	38583.73
543.18	39103.92
543.38	39470.50
543.59	39341.48
543.79	39157.16
543.99	39269.80
544.19	38974.89
544.40	39134.63
544.60	39626.15
544.80	39425.45
545.00	39468.45
545.20	39849.38
545.41	39736.74
545.61	39597.48
545.81	40000.93
546.01	40021.41
546.21	39892.38
546.42	39880.10
546.62	40304.02
546.82	40109.47
547.02	40119.71
547.22	40203.67
547.43	40154.52
547.63	40299.93
547.83	40349.08
548.03	40236.44
548.23	40867.22
548.44	40557.97
548.64	40588.69
548.84	40639.89
549.04	40697.24
549.24	40695.19
549.45	40803.73
549.65	40760.72
549.85	40748.43
550.05	41321.87
550.25	41094.54
550.45	41594.25
550.66	41026.96
550.86	40988.05
551.06	41387.40
551.26	41727.36
551.46	41131.40
551.66	41801.09
551.87	41667.97
552.07	41598.34
552.27	41526.66
552.47	42055.04
552.67	42130.81
552.87	41907.58
553.07	41973.12
553.28	41870.72
553.48	41966.98
553.68	41960.83
553.88	42431.86
554.08	42014.08
554.28	42351.99
554.48	42401.14
554.69	42700.15
554.89	42669.43
555.09	42552.69
555.29	42306.94
555.49	42909.04
555.69	42618.23
555.89	42517.88
556.10	42614.13
556.30	42612.09
556.50	42694.00
556.70	42405.24
556.90	42698.10
557.10	42894.71
557.30	42558.84
557.50	42970.48
557.70	43388.27
557.91	43169.13
558.11	43175.28
558.31	43357.55
558.51	43416.94
558.71	42939.76
558.91	43580.78
559.11	42947.95
559.31	42978.67
559.51	43335.02
559.72	43267.44
559.92	43625.83
560.12	43375.98
560.32	43631.97
560.52	43490.66
560.72	43593.06
560.92	43507.05
561.12	43890.02
561.32	43992.42
561.52	43705.70
561.72	44377.43
561.93	43894.11
562.13	43373.93
562.33	43529.58
562.53	44098.91
562.73	43316.59
562.93	43930.98
563.13	44369.24
563.33	43875.68
563.53	44189.02
563.73	44248.41
563.93	44178.78
564.13	44748.12
564.33	44195.17
564.53	44289.37
564.74	44709.21
564.94	44092.77
565.14	44496.22
565.34	44002.66
565.54	44471.64
565.74	44858.71
565.94	44664.15
566.14	44504.41
566.34	44520.79
566.54	44868.95
566.74	44619.10
566.94	45100.37
567.14	44864.85
567.34	44580.18
567.54	45137.23
567.74	44672.34
567.94	44860.76
568.14	45274.45
568.34	45256.01
568.54	45069.65
568.74	45153.62
568.94	44963.15
569.14	45399.37
569.34	45479.24
569.54	45167.95
569.75	45151.57
569.95	45337.93
570.15	45630.79
570.35	45643.08
570.55	45204.81
570.75	45092.18
570.95	45516.11
571.15	45649.22
571.35	45712.71
571.55	45647.18
571.75	45669.70
571.95	45677.90
572.15	45874.50
572.35	46097.73
572.55	45520.20
572.75	45976.90
572.95	46044.48
573.15	45956.42
573.35	45849.92
573.55	46036.29
573.75	45765.96
573.95	46118.21
574.15	45743.43
574.35	46130.50
574.55	45892.93
574.75	45995.33
574.95	46136.64
575.15	46005.57
575.34	46609.72
575.54	46607.67
575.74	46644.54
575.94	46286.14
576.14	46429.50
576.34	46863.67
576.54	46806.33
576.74	46896.44
576.94	46875.96
577.14	46994.74
577.34	47492.40
577.54	46679.35
577.74	47207.73
577.94	47230.26
578.14	46941.49
578.34	47119.66
578.54	46544.19
578.74	47039.79
578.94	47412.52
579.14	47177.01
579.34	47512.88
579.54	47568.17
579.74	47699.24
579.94	47265.07
580.13	47650.09
580.33	47744.30
580.53	47830.31
580.73	47580.46
580.93	48104.74
581.13	48076.07
581.33	48092.45
581.53	47570.22
581.73	47824.17
581.93	48385.31
582.13	48063.78
582.33	48231.71
582.53	47934.76
582.73	48180.51
582.92	48411.93
583.12	48274.72
583.32	48514.33
583.52	48051.49
583.72	48407.84
583.92	48223.52
584.12	48530.72
584.32	49331.47
584.52	49276.18
584.72	48700.70
584.92	48981.27
585.11	48911.64
585.31	49251.60
585.51	49241.36
585.71	49079.57
585.91	49370.38
586.11	49184.02
586.31	49136.91
586.51	49235.22
586.71	49198.35
586.91	49337.62
587.10	49392.91
587.30	49587.47
587.50	49556.75
587.70	49759.50
587.90	49573.13
588.10	49845.51
588.30	49988.87
588.50	49679.63
588.69	49718.54
588.89	49802.50
589.09	49894.66
589.29	49825.03
589.49	50459.90
589.69	49976.58
589.89	49902.85
590.08	50201.86
590.28	50119.94
590.48	50105.60
590.68	50121.99
590.88	50212.10
591.08	50267.39
591.28	50185.47
591.47	50738.43
591.67	50627.84
591.87	50822.39
592.07	50545.92
592.27	50486.53
592.47	50697.47
592.67	50824.44
592.86	50795.77
593.06	51145.97
593.26	50599.16
593.46	50967.80
593.66	50982.13
593.86	50990.33
594.05	50711.80
594.25	51381.49
594.45	50566.40
594.65	51285.23
594.85	50808.06
595.05	51246.32
595.24	51442.93
595.44	51062.00
595.64	51123.44
595.84	51715.31
596.04	51522.80
596.23	51842.28
596.43	51778.79
596.63	51346.67
596.83	51854.57
597.03	52053.22
597.22	52182.24
597.42	51823.85
597.62	51977.45
597.82	52069.61
598.02	52122.85
598.21	52239.59
598.41	51940.58
598.61	52245.73
598.81	52231.40
599.01	52419.81
599.20	52356.32
599.40	52258.02
599.60	52458.72
599.80	52507.87
600.00	52589.79
600.19	52745.44
600.39	52045.03
600.59	53034.20
600.79	53136.60
600.98	52956.38
601.18	52825.31
601.38	52991.19
601.58	53026.01
601.78	53322.96
601.97	53400.79
602.17	53550.29
602.37	53148.88
602.57	53230.80
602.76	53558.48
602.96	53103.83
603.16	53759.18
603.36	53564.62
603.55	53667.02
603.75	53662.93
603.95	53771.47
604.15	53611.73
604.34	53417.17
604.54	53779.66
604.74	54133.96
604.94	53945.54
605.13	54240.45
605.33	54258.88
605.53	53810.38
605.73	54351.04
605.92	54113.48
606.12	54328.52
606.32	54498.50
606.52	54017.22
606.71	54375.62
606.91	54203.59
607.11	54310.08
607.30	54510.78
607.50	54428.87
607.70	54361.28
607.90	54361.28
608.09	54549.70
608.29	54215.88
608.49	54938.81
608.68	54592.70
608.88	55225.53
609.08	54990.01
609.28	54885.56
609.47	54832.32
609.67	55514.29
609.87	55243.96
610.06	55594.16
610.26	55409.84
610.46	55080.12
610.66	54676.67
610.85	55272.63
611.05	55024.82
611.25	55391.41
611.44	54764.73
611.64	55436.47
611.84	55100.60
612.03	54662.33
612.23	55170.23
612.43	55684.27
612.62	54932.67
612.82	55671.98
613.02	55301.30
613.21	55383.22
613.41	55438.51
613.61	55370.93
613.80	55057.59
614.00	55088.31
614.20	55680.17
614.39	55264.44
614.59	55610.54
614.79	55690.41
614.98	54889.66
615.18	55555.25
615.38	55344.31
615.57	55172.28
615.77	55891.12
615.97	55743.66
616.16	55430.32
616.36	55540.91
616.56	55579.82
616.75	55415.99
616.95	55268.53
617.15	55909.55
617.34	55139.51
617.54	55338.16
617.74	55948.46
617.93	55426.23
618.13	55295.16
618.32	55612.59
618.52	55430.32
618.72	55555.25
618.91	55340.21
619.11	55153.85
619.31	55461.04
619.50	55377.08
619.70	55354.55
619.90	55620.78
620.09	55340.21
620.29	55592.11
620.48	55415.99
620.68	55940.27
620.88	55477.43
621.07	55301.30
621.27	55399.60
621.46	55071.93
621.66	55315.64
621.86	55620.78
622.05	55008.44
622.25	55792.81
622.44	55344.31
622.64	55180.47
622.84	55782.57
623.03	55336.12
623.23	55153.85
623.42	55510.19
623.62	55475.38
623.82	55657.65
624.01	55033.02
624.21	55291.06
624.40	55041.21
624.60	55456.95
624.80	55489.71
624.99	55051.45
625.19	55182.52
625.38	55334.07
625.58	55788.72
625.77	55243.96
625.97	55358.64
626.17	55116.98
626.36	55338.16
626.56	55590.06
626.75	54977.72
626.95	55944.36
627.14	55227.57
627.34	55692.46
627.54	55215.29
627.73	54969.53
627.93	55375.03
628.12	55082.17
628.32	55170.23
628.51	55276.72
628.71	55395.51
628.90	55463.09
629.10	55260.34
629.30	55186.61
629.49	55403.70
629.69	55338.16
629.88	55514.29
630.08	55905.45
630.27	55579.82
630.47	55743.66
630.66	54967.48
630.86	55360.69
631.05	55243.96
631.25	56085.67
631.44	55344.31
631.64	55205.05
631.84	55778.48
632.03	55895.21
632.23	55561.39
632.42	55844.01
632.62	55528.62
632.81	55297.20
633.01	55497.91
633.20	55446.71
633.40	55653.55
633.59	55952.55
633.79	55262.39
633.98	55329.97
634.18	55710.89
634.37	55499.95
634.57	55446.71
634.76	55573.68
634.96	55678.13
635.15	55628.98
635.35	55559.34
635.54	55078.07
635.74	56136.87
635.93	55547.06
636.13	55669.93
636.32	56032.42
636.52	55450.80
636.71	55276.72
636.91	56005.80
637.10	55733.42
637.30	55907.50
637.49	55776.43
637.69	55970.99
637.88	56001.71
638.08	55452.85
638.27	56407.20
638.46	55968.94
638.66	55635.12
638.85	55753.90
639.05	55643.31
639.24	55964.84
639.44	55745.71
639.63	55895.21
639.83	55760.05
640.02	56155.30
640.22	55948.46
640.41	56009.90
640.61	55168.18
640.80	55893.16
640.99	56159.40
641.19	56532.13
641.38	55790.76
641.58	56149.16
641.77	55925.93
641.97	55768.24
642.16	55862.44
642.36	56071.34
642.55	56591.52
642.74	56028.33
642.94	56595.62
643.13	55620.78
643.33	55934.12
643.52	56532.13
643.72	56485.03
643.91	56048.81
644.10	56319.14
644.30	56712.35
644.49	56095.91
644.69	56464.55
644.88	56267.94
645.08	56030.38
645.27	56509.60
645.46	56419.49
645.66	56743.07
645.85	56284.33
646.05	56024.23
646.24	56470.69
646.43	56513.70
646.63	56878.24
646.82	56863.90
647.02	56317.09
647.21	56906.91
647.40	56454.31
647.60	56935.58
647.79	56687.78
647.99	56861.85
648.18	56448.16
648.37	56927.39
648.57	56775.84
648.76	56741.02
648.96	56200.36
649.15	57318.55
649.34	57128.09
649.54	56771.74
649.73	56824.99
649.92	56593.57
650.12	56661.15
650.31	57037.98
650.51	56908.96
650.70	57220.25
650.89	56925.34
651.09	57441.43
651.28	56849.56
651.47	57382.04
651.67	56923.29
651.86	57250.97
652.06	56818.84
652.25	57027.74
652.44	57101.46
652.64	56603.81
652.83	57103.51
653.02	56587.42
653.22	57132.18
653.41	56966.30
653.60	57009.31
653.80	57029.79
653.99	57017.50
654.18	56710.30
654.38	57238.68
654.57	57259.16
654.76	57285.78
654.96	57345.17
655.15	56872.09
655.34	57183.38
655.54	56882.33
655.73	57296.02
655.92	57275.54
656.12	57371.80
656.31	57255.06
656.50	57226.39
656.70	57001.11
656.89	57361.56
657.08	57382.04
657.28	57066.65
657.47	57552.02
657.66	57517.20
657.86	57040.03
658.05	57080.98
658.24	57758.86
658.43	57328.79
658.63	57633.94
658.82	57566.35
659.01	57466.00
659.21	57898.12
659.40	57447.57
659.59	57513.11
659.79	57574.55
659.98	57783.44
660.17	57693.33
660.36	57668.75
660.56	57873.55
660.75	57517.20
660.94	57611.41
661.14	57519.25
661.33	57357.46
661.52	57261.21
661.71	58057.87
661.91	57476.24
662.10	57203.86
662.29	57660.56
662.49	57140.38
662.68	57613.46
662.87	57572.50
663.06	57283.73
663.26	57777.29
663.45	57781.39
663.64	57453.72
663.83	58096.78
664.03	57646.22
664.22	58137.74
664.41	57678.99
664.60	57384.08
664.80	57930.89
664.99	57382.04
665.18	57631.89
665.37	57345.17
665.57	57515.15
665.76	57490.58
665.95	57609.36
666.14	57584.79
666.34	57578.64
666.53	57543.83
666.72	57502.87
666.91	57601.17
667.11	57324.69
667.30	57253.01
667.49	56931.48
667.68	57601.17
667.87	57519.25
668.07	57705.62
668.26	57572.50
668.45	57459.86
668.64	57472.15
668.84	58082.44
669.03	57926.80
669.22	57396.37
669.41	57506.96
669.60	57537.68
669.80	57144.47
669.99	57758.86
670.18	57396.37
670.37	57619.60
670.57	58012.81
670.76	57713.81
670.95	57674.90
671.14	57599.12
671.33	57511.06
671.53	57908.36
671.72	57416.85
671.91	57715.86
672.10	57099.42
672.29	57607.31
672.48	57486.48
672.68	57805.97
672.87	57734.29
673.06	57832.59
673.25	57347.22
673.44	56956.06
673.64	57332.89
673.83	57283.73
674.02	57052.31
674.21	56882.33
674.40	57613.46
674.59	57193.62
674.79	57263.25
674.98	57050.27
675.17	56923.29
675.36	57005.21
675.55	57539.73
675.74	57468.05
675.94	56931.48
676.13	57390.23
676.32	57482.39
676.51	57934.99
676.70	57355.41
676.89	57341.08
677.08	57384.08
677.28	56945.82
677.47	57455.76
677.66	57957.52
677.85	57463.96
678.04	57498.77
678.23	57541.78
678.42	57457.81
678.62	56923.29
678.81	57447.57
679.00	57410.71
679.19	57375.89
679.38	57097.37
679.57	57142.42
679.76	57293.97
679.96	57638.03
680.15	57459.86
680.34	57152.66
680.53	57152.66
680.72	57500.82
680.91	57314.45
681.10	56986.78
681.29	57607.31
681.48	57033.88
681.68	56824.99
681.87	56571.04
682.06	57070.75
682.25	56751.26
682.44	56951.96
682.63	57117.85
682.82	56911.00
683.01	56958.11
683.20	56704.16
683.39	56949.92
683.59	56454.31
683.78	56755.36
683.97	56835.23
684.16	56376.48
684.35	56030.38
684.54	56407.20
684.73	56700.06
684.92	56220.84
685.11	56218.79
685.30	56493.22
685.49	56755.36
685.69	56343.72
685.88	56689.82
686.07	56362.15
686.26	56558.75
686.45	56458.40
686.64	56284.33
686.83	56165.54
687.02	56358.05
687.21	56835.23
687.40	56612.00
687.59	56327.33
687.78	56407.20
687.97	56456.35
688.16	56593.57
688.35	56071.34
688.54	56116.39
688.74	56485.03
688.93	56022.19
689.12	56153.26
689.31	56022.19
689.50	56310.95
689.69	55545.01
689.88	55903.40
690.07	55954.60
690.26	55788.72
690.45	55995.56
690.64	56497.31
690.83	55858.35
691.02	55624.88
691.21	55884.97
691.40	55780.52
691.59	55927.98
691.78	56059.05
691.97	55966.89
692.16	55637.17
692.35	55850.16
692.54	55975.08
692.73	55925.93
692.92	56009.90
693.11	55813.29
693.30	55866.54
693.49	55540.91
693.68	55393.46
693.87	55588.02
694.06	55213.24
694.25	55243.96
694.44	55284.92
694.63	54996.15
694.82	56114.34
695.01	55643.31
695.20	55430.32
695.39	55573.68
695.58	55180.47
695.77	55155.89
695.96	55000.25
696.15	55280.82
696.34	54680.77
696.53	55164.09
696.72	55387.31
696.91	54834.36
697.10	55358.64
697.29	55180.47
697.48	55248.05
697.67	55002.30
697.86	54992.06
698.05	54858.94
698.24	55037.11
698.43	54363.33
698.62	54805.69
698.81	54437.06
699.00	54830.27
699.19	54760.64
699.38	55053.50
699.57	54561.98
699.76	55379.12
699.95	54604.99
700.14	54756.54
700.32	54498.50
700.51	54498.50
700.70	55094.46
700.89	54924.47
701.08	55362.74
701.27	54600.89
701.46	54938.81
701.65	53646.54
701.84	54709.44
702.03	54533.31
702.22	54486.21
702.41	54478.02
702.60	54256.84
702.79	54398.15
702.98	54256.84
703.17	54062.28
703.35	54113.48
703.54	53982.41
703.73	54154.44
703.92	54170.82
704.11	53560.53
704.30	53331.15
704.49	53699.79
704.68	53581.01
704.87	53806.28
705.06	53720.27
705.25	54117.57
705.43	53941.45
705.62	53726.41
705.81	53763.28
706.00	54006.98
706.19	53646.54
706.38	53396.69
706.57	53761.23
706.76	53550.29
706.95	53294.29
707.14	53695.69
707.32	53046.49
707.51	53206.23
707.70	53200.08
707.89	53650.64
708.08	53429.46
708.27	53222.61
708.46	53908.68
708.65	53384.40
708.84	53851.34
709.02	53714.12
709.21	53558.48
709.40	53341.39
709.59	53222.61
709.78	53136.60
709.97	53796.04
710.16	53011.67
710.34	53007.58
710.53	53101.78
710.72	52944.09
710.91	52796.63
711.10	52706.52
711.29	53277.91
711.48	53150.93
711.66	52751.58
711.85	52802.78
712.04	52899.03
712.23	52860.12
712.42	52800.73
712.61	52727.00
712.80	52976.86
712.98	53026.01
713.17	52450.53
713.36	52704.48
713.55	52884.70
713.74	52675.80
713.93	52270.31
714.11	52677.85
714.30	52411.62
714.49	52333.79
714.68	52477.15
714.87	52493.54
715.06	52524.25
715.24	52272.35
715.43	52047.08
715.62	51999.97
715.81	51746.03
716.00	52339.94
716.18	52004.07
716.37	51975.40
716.56	51752.17
716.75	52341.99
716.94	51983.59
717.12	51422.45
717.31	51897.58
717.50	51866.86
717.69	51746.03
717.88	51537.13
718.06	51625.20
718.25	52223.20
718.44	51598.57
718.63	51475.69
718.82	51422.45
719.00	51582.19
719.19	51410.16
719.38	51541.23
719.57	50605.31
719.76	50900.22
719.94	50545.92
720.13	51236.08
720.32	51291.38
720.51	50879.74
720.69	50722.04
720.88	51303.67
721.07	51049.72
721.26	50377.98
721.44	50799.86
721.63	50425.09
721.82	50527.48
722.01	50386.18
722.20	50625.79
722.38	50498.81
722.57	50603.26
722.76	50025.73
722.95	50046.21
723.13	49849.61
723.32	49974.53
723.51	49728.78
723.70	50009.35
723.88	49962.25
724.07	49665.29
724.26	49882.37
724.44	49456.40
724.63	50332.93
724.82	50171.14
725.01	49603.85
725.19	49501.45
725.38	49743.11
725.57	49630.47
725.76	49513.74
725.94	49540.36
726.13	49513.74
726.32	49577.23
726.51	49321.23
726.69	49810.70
726.88	49720.59
727.07	49177.87
727.25	49210.64
727.44	49599.76
727.63	49499.40
727.82	49026.32
728.00	49421.58
728.19	49474.83
728.38	49523.98
728.56	48616.73
728.75	49458.45
728.94	49263.89
729.12	49427.73
729.31	49605.90
729.50	49075.48
729.69	49356.05
729.87	49206.55
730.06	49308.94
730.25	49380.62
730.43	49607.95
730.62	49153.30
730.81	49341.71
730.99	49345.81
731.18	49188.11
731.37	49413.39
731.55	49648.91
731.74	49714.44
731.93	49286.42
732.11	49147.15
732.30	49405.20
732.49	48868.63
732.67	49020.18
732.86	49222.93
733.05	49108.24
733.23	48618.78
733.42	48903.45
733.61	48758.04
733.79	49165.59
733.98	49390.86
734.17	48739.61
734.35	49272.08
734.54	48989.46
734.73	49411.34
734.91	48919.83
735.10	48905.49
735.29	49235.22
735.47	48622.87
735.66	49155.35
735.84	48702.74
736.03	48678.17
736.22	49341.71
736.40	48784.66
736.59	49134.87
736.78	48706.84
736.96	48518.43
737.15	48370.97
737.33	48626.97
737.52	48237.86
737.71	48452.89
737.89	48536.86
738.08	47869.22
738.27	48465.18
738.45	48454.94
738.64	48530.72
738.82	48600.35
739.01	48260.38
739.20	48346.40
739.38	48319.77
739.57	48184.61
739.75	48534.81
739.94	48440.60
740.13	48248.10
740.31	48129.31
740.50	48188.70
740.68	48248.10
740.87	48325.92
741.06	48119.07
741.24	48016.68
741.43	48160.03
741.61	48092.45
741.80	48006.44
741.99	47639.85
742.17	47500.59
742.36	47506.73
742.54	47760.68
742.73	47904.04
742.91	48194.85
743.10	47750.44
743.29	47740.20
743.47	47777.06
743.66	47764.78
743.84	47781.16
744.03	47748.39
744.21	47310.13
744.40	48000.29
744.59	46961.97
744.77	47193.39
744.96	47349.04
745.14	48057.63
745.33	47764.78
745.51	47410.48
745.70	47551.79
745.88	47068.47
746.07	47418.67
746.26	46882.10
746.44	47191.34
746.63	47467.82
746.81	47236.40
747.00	47285.55
747.18	47590.70
747.37	47078.71
747.55	46855.48
747.74	47353.13
747.92	46875.96
748.11	46748.98
748.29	47377.71
748.48	46904.63
748.66	46882.10
748.85	46890.29
749.03	46937.40
749.22	46898.48
749.41	46703.93
749.59	46794.04
749.78	46660.92
749.96	46718.26
750.15	46304.57
750.33	46617.91
750.52	46476.60
750.70	46267.71
750.89	46601.53
751.07	46253.37
751.26	46329.15
751.44	46208.32
751.63	46273.85
751.81	45806.92
752.00	46292.29
752.18	46150.98
752.37	45706.57
752.55	46110.02
752.74	45993.28
752.92	45792.58
753.10	45395.28
753.29	45999.43
753.47	45534.54
753.66	45651.27
753.84	46024.00
754.03	45727.05
754.21	45493.58
754.40	45907.27
754.58	45655.37
754.77	45548.87
754.95	45425.99
755.14	45487.43
755.32	45612.36
755.51	44963.15
755.69	44914.00
755.88	45196.62
756.06	45116.75
756.24	45501.77
756.43	45141.33
756.61	45243.73
756.80	45071.70
756.98	45129.04
757.17	45245.77
757.35	45137.23
757.54	44940.63
757.72	45503.82
757.90	44793.17
758.09	44770.64
758.27	44907.86
758.46	44268.89
758.64	44602.71
758.83	44959.06
759.01	45059.41
759.19	44756.31
759.38	44873.04
759.56	45065.55
759.75	44864.85
759.93	44469.59
760.12	44492.12
760.30	44758.36
760.48	44416.35
760.67	44447.07
760.85	44825.94
761.04	44465.50
761.22	44541.27
761.40	43902.31
761.59	44213.60
761.77	43894.11
761.96	43945.31
762.14	44127.58
762.32	43855.20
762.51	43687.27
762.69	43750.76
762.88	43832.68
763.06	44162.40
763.24	44168.54
763.43	43992.42
763.61	43496.81
763.80	43480.42
763.98	43552.10
764.16	43844.96
764.35	43324.78
764.53	43183.47
764.72	43439.47
764.90	43332.97
765.08	43709.80
765.27	43165.04
765.45	42878.32
765.63	42990.96
765.82	43124.08
766.00	43066.73
766.18	43144.56
766.37	43478.38
766.55	42847.60
766.74	43238.76
766.92	42863.99
767.10	42616.18
767.29	42767.73
767.47	42235.26
767.65	42759.54
767.84	42263.93
768.02	42618.23
768.20	42438.01
768.39	42659.19
768.57	42597.75
768.75	42487.16
768.94	42427.77
769.12	42804.59
769.30	42005.89
769.49	42204.54
769.67	41919.87
769.85	41698.69
770.04	42251.64
770.22	41895.30
770.40	41915.78
770.59	41971.07
770.77	42122.62
770.95	41858.43
771.14	41520.52
771.32	41739.65
771.50	41203.08
771.69	41346.44
771.87	42139.00
772.05	41508.23
772.24	41198.99
772.42	41831.81
772.60	41514.37
772.78	41278.86
772.97	40936.85
773.15	41643.40
773.33	41135.50
773.52	41041.29
773.70	41041.29
773.88	41096.59
774.07	41143.69
774.25	41420.17
774.43	41485.70
774.61	41387.40
774.80	41547.14
774.98	41145.74
775.16	41524.61
775.34	41285.00
775.53	41151.88
775.71	41651.59
775.89	41321.87
776.08	41395.59
776.26	41219.47
776.44	41287.05
776.62	41397.64
776.81	41321.87
776.99	41194.89
777.17	41282.95
777.35	41735.56
777.54	41581.96
777.72	41303.43
777.90	41385.35
778.08	41270.67
778.27	41645.44
778.45	41956.74
778.63	41899.39
778.81	41586.05
779.00	41952.64
779.18	41514.37
779.36	42044.80
779.54	41907.58
779.73	41592.20
779.91	41917.82
780.09	41835.91
780.27	41962.88
780.46	41741.70
780.64	42247.55
780.82	41649.54
781.00	41833.86
781.19	41827.71
781.37	42390.91
781.55	42216.83
781.73	42503.54
781.91	41717.12
782.10	42038.65
782.28	42405.24
782.46	41930.11
782.64	42243.45
782.82	41696.64
783.01	42089.85
783.19	42055.04
783.37	42317.18
783.55	42300.79
783.74	42253.69
783.92	41901.44
784.10	42341.75
784.28	42321.27
784.46	42126.72
784.64	41670.02
784.83	42366.33
785.01	42653.05
785.19	42325.37
785.37	41911.68
785.55	42374.52
785.74	41928.06
785.92	41577.86
786.10	42124.67
786.28	42059.13
786.46	41559.43
786.64	41588.10
786.83	42042.75
787.01	41776.51
787.19	42261.88
787.37	41682.31
787.55	41817.47
787.74	41727.36
787.92	41606.53
788.10	41618.82
788.28	41057.68
788.46	41405.83
788.64	41514.37
788.82	41837.95
789.01	41452.94
789.19	41594.25
789.37	41465.22
789.55	41117.07
789.73	41069.97
789.91	40965.52
790.09	41203.08
790.28	40959.38
790.46	40818.07
790.64	40926.61
790.82	40652.18
791.00	40496.53
791.18	40756.63
791.36	40852.88
791.55	40820.11
791.73	40355.22
791.91	40426.90
792.09	40713.62
792.27	40285.59
792.45	40566.16
792.63	40068.51
792.81	40072.60
793.00	39880.10
793.18	40054.17
793.36	39855.52
793.54	39638.44
793.72	39751.07
793.90	39585.19
794.08	39521.70
794.26	39624.10
794.44	38796.72
794.62	39253.42
794.81	39239.08
794.99	39392.68
795.17	39380.39
795.35	39175.59
795.53	39022.00
795.71	39316.90
795.89	38604.21
796.07	38577.59
796.25	38323.64
796.43	38475.19
796.61	38516.15
796.80	38182.33
796.98	38303.16
797.16	38266.30
797.34	38241.72
797.52	38129.08
797.70	38165.95
797.88	37963.20
798.06	37508.55
798.24	37844.41
798.42	37916.09
798.60	37752.26
798.78	37187.02
798.96	37682.62
799.14	37508.55
799.32	37447.11
799.51	37369.29
799.69	37232.07
799.87	36885.97
800.05	37041.61
800.23	36937.16
800.41	36840.91
800.59	36853.20
800.77	36705.74
800.95	36486.61
801.13	36689.36
801.31	36724.18
801.49	36427.22
801.67	36107.74
801.85	36142.55
802.03	36353.49
802.21	36261.33
802.39	36281.81
802.57	36025.82
802.75	35976.67
802.93	35884.51
803.11	35806.69
803.29	35896.80
803.47	35560.93
803.65	35554.79
803.83	35444.20
804.01	35526.11
804.19	35274.21
804.37	35214.82
804.55	35038.70
804.73	34932.20
804.91	34872.81
805.09	34964.97
805.27	34792.94
805.45	34840.04
805.63	34719.21
805.81	34739.69
805.99	34645.49
806.17	34827.76
806.35	34643.44
806.53	34059.77
806.71	34381.30
806.89	34418.16
807.07	34225.65
807.25	34694.64
807.43	34067.96
807.61	34196.98
807.79	34051.58
807.97	33951.23
808.15	33568.26
808.33	34104.82
808.51	33414.66
808.69	33811.96
808.87	33404.42
809.05	33351.17
809.23	33508.86
809.41	33136.13
809.59	33207.81
809.77	33728.00
809.95	33426.95
810.13	32843.27
810.31	32921.10
810.49	33291.78
810.67	32816.65
810.84	32994.82
811.02	32720.40
811.20	32753.16
811.38	32669.20
811.56	31772.19
811.74	32235.03
811.92	32302.61
812.10	32282.13
812.28	32540.18
812.46	32128.53
812.64	32097.81
812.82	32177.68
813.00	32124.44
813.18	32175.64
813.36	31807.00
813.53	31829.53
813.71	31766.04
813.89	31499.81
814.07	31843.87
814.25	32351.76
814.43	31880.73
814.61	31553.05
814.79	31440.42
814.97	31139.36
815.15	31671.84
815.33	31233.57
815.50	31284.77
815.68	31583.77
815.86	31307.30
816.04	30944.81
816.22	31163.94
816.40	31215.14
816.58	30840.36
816.76	30627.37
816.94	30883.37
817.11	31073.83
817.29	30635.56
817.47	30428.72
817.65	30686.76
817.83	30789.16
818.01	30465.58
818.19	30543.41
818.37	30631.47
818.54	30127.67
818.72	30199.35
818.90	30393.90
819.08	29906.49
819.26	30178.87
819.44	30148.15
819.62	30039.61
819.80	30215.73
819.97	30479.92
820.15	29910.58
820.33	29699.64
820.51	29822.52
820.69	29695.55
820.87	29941.30
821.05	29933.11
821.22	29730.36
821.40	29611.58
821.58	29374.02
821.76	29550.14
821.94	30058.04
822.12	29423.17
822.29	29716.03
822.47	29435.45
822.65	29486.65
822.83	29371.97
823.01	29308.48
823.19	29070.92
823.36	29087.30
823.54	29072.96
823.72	28872.26
823.90	28810.82
824.08	29109.83
824.25	28864.07
824.43	28278.35
824.61	28735.05
824.79	29107.78
824.97	28405.33
825.15	28909.13
825.32	28603.98
825.50	28425.81
825.68	28649.03
825.86	28759.63
826.04	28808.78
826.21	28593.74
826.39	28743.24
826.57	28481.10
826.75	28429.90
826.93	28153.43
827.10	27954.77
827.28	28583.50
827.46	28241.49
827.64	27891.29
827.81	28016.21
827.99	27856.47
828.17	27852.38
828.35	27571.80
828.53	27866.71
828.70	27780.70
828.88	27838.04
829.06	27856.47
829.24	27872.85
829.41	27899.48
829.59	27866.71
829.77	27971.16
829.95	27674.20
830.12	27680.35
830.30	27397.73
830.48	27635.29
830.66	27418.21
830.84	27405.92
831.01	27659.87
831.19	27330.14
831.37	27553.37
831.55	27205.22
831.72	27223.65
831.90	27256.42
832.08	27227.74
832.25	27176.55
832.43	27117.15
832.61	26717.80
832.79	26885.73
832.96	26992.23
833.14	26959.46
833.32	26926.69
833.50	27217.50
833.67	27178.59
833.85	26930.79
834.03	26637.93
834.20	26584.68
834.38	26601.07
834.56	27027.04
834.74	26525.29
834.91	26635.88
835.09	26627.69
835.27	26259.06
835.44	26117.75
835.62	26037.87
835.80	26220.14
835.98	26353.26
836.15	26553.96
836.33	26334.83
836.51	26451.56
836.68	26189.42
836.86	26414.70
837.04	26044.02
837.21	26310.25
837.39	26211.95
837.57	26209.90
837.75	26222.19
837.92	25839.22
838.10	26015.35
838.28	25671.29
838.45	26005.11
838.63	25755.26
838.81	26119.79
838.98	25755.26
839.16	25403.00
839.34	25405.05
839.51	25548.41
839.69	25380.48
839.87	25615.99
840.04	25462.40
840.22	25589.37
840.40	25394.81
840.57	25286.27
840.75	25171.58
840.93	25259.65
841.10	25251.45
841.28	25556.60
841.46	25491.07
841.63	25224.83
841.81	25095.81
841.98	25058.95
842.16	25286.27
842.34	25003.65
842.51	24835.72
842.69	25114.24
842.87	24956.55
843.04	25122.43
843.22	24886.92
843.40	25017.99
843.57	24866.44
843.75	25159.30
843.92	24802.95
844.10	24688.26
844.28	24950.40
844.45	24536.71
844.63	25022.08
844.81	24714.89
844.98	24723.08
845.16	24551.05
845.33	24559.24
845.51	24571.53
845.69	24497.80
845.86	24391.31
846.04	24454.79
846.21	24569.48
846.39	24233.61
846.57	24452.75
846.74	24272.53
846.92	24266.38
847.09	24245.90
847.27	23854.74
847.45	24219.28
847.62	24419.98
847.80	24303.25
847.97	24241.81
848.15	24123.02
848.32	23922.32
848.50	24022.67
848.68	23789.20
848.85	23742.10
849.03	23555.74
849.20	23705.24
849.38	23803.54
849.56	23639.70
849.73	23697.05
849.91	24141.46
850.08	23840.40
850.26	23295.64
850.43	23586.46
850.61	23598.74
850.78	23408.28
850.96	23420.57
851.14	23412.38
851.31	23412.38
851.49	23383.71
851.66	23393.95
851.84	23563.93
852.01	23285.40
852.19	23436.95
852.36	23426.71
852.54	23375.52
852.71	23168.67
852.89	23180.96
853.07	23121.57
853.24	23029.41
853.42	23172.77
853.59	23176.86
853.77	23381.66
853.94	23238.30
854.12	23133.86
854.29	22832.80
854.47	22910.63
854.64	22705.83
854.82	22750.88
854.99	22869.67
855.17	22783.65
855.34	22742.69
855.52	22478.50
855.69	22920.87
855.87	22673.06
856.04	22593.19
856.22	22726.31
856.39	22152.88
856.57	22519.46
856.74	22615.72
856.92	22324.91
857.09	22386.35
857.27	22519.46
857.44	22789.80
857.62	22394.54
857.79	22349.48
857.97	22363.82
858.14	22359.72
858.32	22347.44
858.49	22353.58
858.67	22040.24
858.84	22269.61
859.02	22163.12
859.19	22021.81
859.37	21868.21
859.54	22134.45
859.72	22222.51
859.89	21794.48
860.06	22179.50
860.24	21823.16
860.41	22023.86
860.59	21864.11
860.76	21710.52
860.94	21780.15
861.11	22077.10
861.29	21911.22
861.46	21677.75
861.64	21354.17
861.81	21567.16
861.98	21634.74
862.16	21266.11
862.33	21305.02
862.51	21356.22
862.68	21550.78
862.86	21569.21
863.03	21573.30
863.21	21563.06
863.38	21409.47
863.55	21372.60
863.73	21558.97
863.90	21323.45
864.08	21145.28
864.25	21188.28
864.43	21081.79
864.60	21071.55
864.77	20915.90
864.95	20942.53
865.12	20944.58
865.30	21034.69
865.47	21032.64
865.64	20965.06
865.82	21069.50
865.99	21042.88
866.17	20537.03
866.34	20917.95
866.51	20610.76
866.69	20854.47
866.86	20774.60
867.04	20811.46
867.21	20973.25
867.38	20618.95
867.56	20657.86
867.73	20354.76
867.91	20494.02
868.08	20483.78
868.25	20350.67
868.43	20362.95
868.60	20149.96
868.78	20022.99
868.95	20379.34
869.12	20272.84
869.30	20252.36
869.47	20338.38
869.64	19982.03
869.82	20154.06
869.99	19879.63
870.16	20221.64
870.34	20283.08
870.51	20553.41
870.69	20119.24
870.86	20205.26
871.03	20035.28
871.21	19842.77
871.38	20076.24
871.55	19873.49
871.73	19816.15
871.90	19730.13
872.07	19850.96
872.25	19410.65
872.42	19384.02
872.59	19660.50
872.77	19674.84
872.94	19678.93
873.11	19685.08
873.29	19517.14
873.46	19287.77
873.63	19625.68
873.81	19355.35
873.98	19158.75
874.15	19250.91
874.33	19003.10
874.50	19037.92
874.67	19021.53
874.85	18939.62
875.02	19046.11
875.19	18747.11
875.37	18718.43
875.54	18910.94
875.71	18566.88
875.88	18906.85
876.06	19085.02
876.23	18769.63
876.40	18661.09
876.58	18534.12
876.75	18554.60
876.92	18419.43
877.10	18577.12
877.27	18585.32
877.44	18661.09
877.61	18409.19
877.79	18351.85
877.96	18075.37
878.13	18165.48
878.31	17958.64
878.48	18040.56
878.65	18235.11
878.82	17927.92
879.00	18384.62
879.17	17925.87
879.34	18153.20
879.51	18007.79
879.69	17755.89
879.86	18065.13
880.03	17870.58
880.21	17764.08
880.38	18009.84
880.55	18046.70
880.72	17698.55
880.90	17772.27
881.07	17921.77
881.24	17676.02
881.41	17766.13
881.59	17714.93
881.76	17557.24
881.93	17561.33
882.10	17374.97
882.28	17602.29
882.45	17602.29
882.62	17473.27
882.79	17587.96
882.96	16987.90
883.14	17506.04
883.31	17788.66
883.48	17352.44
883.65	17407.73
883.83	17182.46
884.00	17204.99
884.17	17309.43
884.34	17534.71
884.51	17282.81
884.69	17057.53
884.86	16948.99
885.03	17141.50
885.20	17024.76
885.38	17069.82
885.55	17020.67
885.72	17114.87
885.89	16938.75
886.06	17057.53
886.24	16811.78
886.41	16828.16
886.58	17000.19
886.75	17026.81
886.92	16865.02
887.10	17065.72
887.27	16934.65
887.44	16981.76
887.61	16832.26
887.78	16807.68
887.95	16862.97
888.13	16805.63
888.30	16916.22
888.47	16580.36
888.64	16627.46
888.81	16516.87
888.99	16744.19
889.16	16217.86
889.33	16516.87
889.50	16340.74
889.67	16488.20
889.84	16072.46
890.01	16754.43
890.19	16512.77
890.36	16469.76
890.53	16340.74
890.70	16363.27
890.87	16310.02
891.04	16297.74
891.22	15994.64
891.39	16211.72
891.56	16144.14
891.73	16092.94
891.90	15925.00
892.07	16054.03
892.24	15787.79
892.42	15765.26
892.59	15996.68
892.76	15894.29
892.93	15798.03
893.10	15949.58
893.27	16049.93
893.44	16070.41
893.61	15808.27
893.79	15953.68
893.96	15783.70
894.13	15847.18
894.30	15845.13
894.47	15871.76
894.64	15802.13
894.81	15914.77
894.98	15671.06
895.15	15683.34
895.33	15795.98
895.50	15847.18
895.67	15750.93
895.84	15886.09
896.01	15550.23
896.18	15486.74
896.35	15935.24
896.52	15640.34
896.69	15546.13
896.86	15523.60
897.04	15894.29
897.21	15478.55
897.38	15687.44
897.55	15421.20
897.72	15656.72
897.89	15331.09
898.06	15564.56
898.23	15345.43
898.40	15638.29
898.57	15609.62
898.74	15490.84
898.91	15382.29
899.08	15550.23
899.26	15511.32
899.43	15570.71
899.60	15609.62
899.77	15484.69
899.94	15324.95
900.11	15331.09
900.28	15310.61
900.45	15451.92
900.62	15390.49
900.79	15623.95
900.96	15601.43
901.13	15687.44
901.30	15267.61
901.47	15533.84
901.64	15511.32
901.81	15603.47
901.98	15392.53
902.15	15720.21
902.32	15253.27
902.49	15466.26
902.66	15527.70
902.83	15298.33
903.01	15419.16
903.18	15505.17
903.35	15501.08
903.52	15347.48
903.69	15396.63
903.86	15585.04
904.03	15519.51
904.20	15630.10
904.37	15535.89
904.54	15605.52
904.71	15251.22
904.88	15413.01
905.05	15345.43
905.22	15277.85
905.39	15193.88
905.56	15380.25
905.73	15314.71
905.90	15480.60
906.07	15314.71
906.24	15281.94
906.41	15345.43
906.58	15413.01
906.75	15290.13
906.92	15085.34
907.09	15542.03
907.26	15445.78
907.43	15386.39
907.60	15236.89
907.77	15349.53
907.93	15138.58
908.10	15402.77
908.27	15404.82
908.44	15085.34
908.61	15181.59
908.78	15050.52
908.95	15109.91
909.12	15273.75
909.29	15048.47
909.46	15154.97
909.63	15390.49
909.80	15269.66
909.97	15413.01
910.14	15134.49
910.31	15032.09
910.48	15210.26
910.65	15210.26
910.82	15005.47
910.99	15060.76
911.16	15058.71
911.33	15085.34
911.50	15027.99
911.66	14972.70
911.83	15181.59
912.00	15105.82
912.17	14786.33
912.34	14653.22
912.51	15058.71
912.68	14776.09
912.85	15079.19
913.02	15001.37
913.19	14858.01
913.36	14976.80
913.53	14819.10
913.70	14712.61
913.86	14737.18
914.03	14616.35
914.20	14622.50
914.37	14802.72
914.54	14462.76
914.71	14524.19
914.88	14518.05
915.05	14540.58
915.22	14376.74
915.39	14636.83
915.55	14458.66
915.72	14327.59
915.89	14178.09
916.06	14339.88
916.23	14157.61
916.40	14352.16
916.57	14255.91
916.74	14239.53
916.91	14044.97
917.07	13858.60
917.24	14067.50
917.41	14075.69
917.58	14106.41
917.75	13870.89
917.92	13725.49
918.09	13938.48
918.26	13936.43
918.42	13856.56
918.59	13739.82
918.76	13719.34
918.93	13551.41
919.10	13729.58
919.27	13469.49
919.44	13725.49
919.60	13399.86
919.77	13559.60
919.94	13377.33
920.11	13383.48
920.28	13432.63
920.45	13256.50
920.61	13047.61
920.78	13279.03
920.95	13465.39
921.12	13063.99
921.29	13076.28
921.46	12912.44
921.62	12855.10
921.79	13201.21
921.96	13029.18
922.13	12998.46
922.30	12863.29
922.47	12783.42
922.63	12818.24
922.80	12715.84
922.97	12672.83
923.14	12576.58
923.31	12879.68
923.47	12482.37
923.64	12701.50
923.81	12457.79
923.98	12539.71
924.15	12361.54
924.32	12275.52
924.48	12287.81
924.65	12283.72
924.82	12189.51
924.99	12119.88
925.15	11972.43
925.32	12062.54
925.49	11837.26
925.66	11917.13
925.83	11951.95
925.99	11839.31
926.16	11804.49
926.33	11886.41
926.50	11630.41
926.67	12027.72
926.83	11732.81
927.00	11720.53
927.17	11435.86
927.34	11435.86
927.50	11435.86
927.67	11511.63
927.84	11603.79
928.01	11300.69
928.17	11378.51
928.34	11083.61
928.51	11153.24
928.68	11001.69
928.84	11095.89
929.01	11067.22
929.18	11087.70
929.35	10895.19
929.51	10915.67
929.68	10788.70
929.85	10727.26
930.02	10590.05
930.18	10757.98
930.35	10583.90
930.52	10858.33
930.69	10753.88
930.85	10774.36
931.02	10325.86
931.19	10364.77
931.36	10424.16
931.52	10454.88
931.69	10448.74
931.86	10209.12
932.02	10151.78
932.19	10076.01
932.36	10311.52
932.53	10137.45
932.69	9973.61
932.86	10289.00
933.03	9996.14
933.19	9899.88
933.36	9885.55
933.53	9815.91
933.70	9787.24
933.86	9650.03
934.03	9713.52
934.20	9586.54
934.36	9809.77
934.53	9578.35
934.70	9252.72
934.86	9432.94
935.03	9111.41
935.20	9199.48
935.36	9193.33
935.53	9068.41
935.70	8873.85
935.86	9045.88
936.03	8759.16
936.20	8851.32
936.36	8759.16
936.53	8710.01
936.70	8687.48
936.86	8628.09
937.03	8574.85
937.20	8238.98
937.36	8374.14
937.53	8163.20
937.70	8134.53
937.86	8128.39
938.03	7886.73
938.20	7999.37
938.36	7960.45
938.53	7835.53
938.70	7640.97
938.86	7561.10
939.03	7550.86
939.20	7407.50
939.36	7266.19
939.53	7462.80
939.70	7346.06
939.86	7026.58
940.03	6918.04
940.19	6801.30
940.36	6786.97
940.53	6811.54
940.69	6834.07
940.86	6705.05
941.03	6737.82
941.19	6397.85
941.36	6528.92
941.52	6377.37
941.69	6404.00
941.86	6381.47
942.02	6289.31
942.19	6219.68
942.35	6125.47
942.52	6088.61
942.69	5947.30
942.85	5902.25
943.02	6049.70
943.18	5965.73
943.35	5877.67
943.52	5730.22
943.68	5799.85
943.85	5779.37
944.01	5648.30
944.18	5576.62
944.35	5791.66
944.51	5543.85
944.68	5578.67
944.84	5470.12
945.01	5504.94
945.17	5449.64
945.34	5486.51
945.51	5427.12
945.67	5521.32
945.84	5427.12
946.00	5359.53
946.17	5382.06
946.33	5396.40
946.50	5320.62
946.67	5337.01
946.83	5218.22
947.00	5402.54
947.16	5388.21
947.33	5345.20
947.49	5277.62
947.66	5261.23
947.82	5195.70
947.99	5250.99
948.16	5402.54
948.32	5177.26
948.49	5349.29
948.65	5347.25
948.82	5228.46
948.98	5361.58
949.15	5156.79
949.31	5296.05
949.48	5263.28
949.64	5312.43
949.81	5337.01
949.97	5367.73
950.14	5263.28
950.30	5265.33
950.47	5314.48
950.63	5408.69
950.80	5271.47
950.96	5250.99
951.13	5406.64
951.30	5261.23
951.46	5357.49
951.63	5457.84
951.79	5371.82
951.96	5461.93
952.12	5337.01
952.29	5377.97
952.45	5257.14
952.62	5250.99
952.78	5386.16
952.94	5447.60
953.11	5482.41
953.27	5253.04
953.44	5539.76
953.60	5361.58
953.77	5418.93
953.93	5359.53
954.10	5416.88
954.26	5486.51
954.43	5420.97
954.59	5472.17
954.76	5640.11
954.92	5398.45
955.09	5500.84
955.25	5619.63
955.42	5431.21
955.58	5646.25
955.75	5470.12
955.91	5545.90
956.07	5463.98
956.24	5570.48
956.40	5550.00
956.57	5443.50
956.73	5484.46
956.90	5466.03
957.06	5373.87
957.23	5349.29
957.39	5343.15
957.56	5519.28
957.72	5396.40
957.88	5455.79
958.05	5566.38
958.21	5541.80
958.38	5478.32
958.54	5474.22
958.71	5607.34
958.87	5431.21
959.03	5404.59
959.20	5687.21
959.36	5271.47
959.53	5568.43
959.69	5343.15
959.85	5590.95
960.02	5443.50
960.18	5439.40
960.35	5531.56
960.51	5552.04
960.68	5443.50
960.84	5586.86
961.00	5455.79
961.17	5484.46
961.33	5527.47
961.50	5484.46
961.66	5431.21
961.82	5294.00
961.99	5427.12
962.15	5445.55
962.31	5386.16
962.48	5541.80
962.64	5552.04
962.81	5332.91
962.97	5466.03
963.13	5486.51
963.30	5334.96
963.46	5439.40
963.62	5412.78
963.79	5361.58
963.95	5298.10
964.12	5377.97
964.28	5429.17
964.44	5281.71
964.61	5418.93
964.77	5310.38
964.93	5509.04
965.10	5406.64
965.26	5271.47
965.42	5244.85
965.59	5250.99
965.75	5302.19
965.92	5273.52
966.08	5355.44
966.24	5334.96
966.41	5083.06
966.57	5277.62
966.73	5291.95
966.90	5506.99
967.06	5277.62
967.22	5238.70
967.39	5240.75
967.55	5250.99
967.71	5074.87
967.88	5255.09
968.04	5050.29
968.20	5304.24
968.37	5107.63
968.53	5058.48
968.69	5185.46
968.85	5246.90
969.02	5232.56
969.18	5117.87
969.34	4995.00
969.51	5369.77
969.67	5179.31
969.83	5048.24
970.00	5273.52
970.16	5130.16
970.32	5101.49
970.48	5271.47
970.65	4970.42
970.81	4997.04
970.97	5093.30
971.14	4954.04
971.30	5091.25
971.46	4968.37
971.63	4954.04
971.79	4966.32
971.95	5031.86
972.11	5068.72
972.28	4931.51
972.44	5019.57
972.60	4929.46
972.76	4927.41
972.93	5013.43
973.09	4919.22
973.25	4964.28
973.42	4794.29
973.58	4917.17
973.74	4763.58
973.90	4874.17
974.07	4671.42
974.23	4906.93
974.39	4933.56
974.55	4829.11
974.72	4720.57
974.88	4698.04
975.04	4667.32
975.20	4722.62
975.37	4730.81
975.53	4693.94
975.69	4777.91
975.85	4704.18
976.01	4589.50
976.18	4732.86
976.34	4634.55
976.50	4722.62
976.66	4712.38
976.83	4671.42
976.99	4583.35
977.15	4581.31
977.31	4442.04
977.47	4667.32
977.64	4640.70
977.80	4603.83
977.96	4501.44
978.12	4435.90
978.29	4474.81
978.45	4458.43
978.61	4437.95
978.77	4476.86
978.93	4431.80
979.10	4437.95
979.26	4411.32
979.42	4513.72
979.58	4415.42
979.74	4304.83
979.91	4317.12
980.07	4278.21
980.23	4343.74
980.39	4392.89
980.55	4222.91
980.71	4298.69
980.88	4261.82
981.04	4163.52
981.20	4173.76
981.36	4288.45
981.52	4294.59
981.68	4128.70
981.85	4413.37
982.01	4179.90
982.17	4116.42
982.33	4155.33
982.49	4304.83
982.65	4302.78
982.82	4194.24
982.98	4188.10
983.14	4102.08
983.30	4167.62
983.46	4140.99
983.62	4198.34
983.79	4063.17
983.95	4089.79
984.11	3950.53
984.27	4075.46
984.43	4018.11
984.59	4087.75
984.75	4229.06
984.91	4001.73
985.08	4124.61
985.24	3856.33
985.40	3801.03
985.56	4061.12
985.72	3940.29
985.88	3794.89
986.04	3882.95
986.20	3760.07
986.37	3960.77
986.53	3772.36
986.69	3854.28
986.85	3870.66
987.01	3805.13
987.17	3979.20
987.33	3792.84
987.49	3676.10
987.65	3835.85
987.82	3760.07
987.98	3608.52
988.14	3749.83
988.30	3780.55
988.46	3600.33
988.62	3747.78
988.78	3663.82
988.94	3473.36
989.10	3606.47
989.26	3540.94
989.42	3446.73
989.59	3508.17
989.75	3567.56
989.91	3571.66
990.07	3401.68
990.23	3530.70
990.39	3393.48
990.55	3563.47
990.71	3448.78
990.87	3596.23
991.03	3616.71
991.19	3317.71
991.35	3399.63
991.51	3434.44
991.67	3745.73
991.83	3416.01
992.00	3336.14
992.16	3325.90
992.32	3405.77
992.48	3397.58
992.64	3217.36
992.80	3344.33
992.96	3366.86
993.12	3368.91
993.28	3332.05
993.44	3166.16
993.60	3264.46
993.76	3295.18
993.92	3200.98
994.08	3411.92
994.24	3071.95
994.40	3241.93
994.56	3317.71
994.72	3172.30
994.88	3133.39
995.04	3203.02
995.20	3256.27
995.36	3239.89
995.52	3207.12
995.68	3162.06
995.84	3004.37
996.00	3264.46
996.16	2967.51
996.32	3119.06
996.48	3078.10
996.64	3231.69
996.80	3129.30
996.96	3114.96
997.12	2953.17
997.28	3004.37
997.44	2936.79
997.60	3047.38
997.76	2965.46
997.92	3008.47
998.08	2985.94
998.24	2818.00
998.40	2779.09
998.56	2920.40
998.72	2836.44
998.88	2811.86
999.04	2848.72
999.20	2922.45
999.36	2861.01
999.52	2926.55
999.68	2922.45
999.84	2785.24
1000.00	2854.87
1000.16	2922.45
1000.32	2650.07
1000.48	2793.43
1000.64	2746.33
1000.80	2568.15
1000.95	2453.47
1001.11	2940.88
1001.27	2805.72
1001.43	2770.90
1001.59	2703.32
1001.75	2609.11
1001.91	2719.70
1002.07	2625.50
1002.23	2502.62
1002.39	2611.16
1002.55	2377.69
1002.71	2506.71
1002.87	2850.77
1003.03	2559.96
1003.19	2598.87
1003.34	2705.37
1003.50	2516.95
1003.66	2625.50
1003.82	2523.10
1003.98	2516.95
1004.14	2811.86
1004.30	2402.27
1004.46	2404.32
1004.62	2559.96
1004.78	2478.04
1004.94	2533.34
1005.09	2521.05
1005.25	2469.85
1005.41	2576.34
1005.57	2306.01
1005.73	2410.46
1005.89	2394.08
1006.05	2420.70
1006.21	2365.40
1006.37	2349.02
1006.52	2312.16
1006.68	2265.05
1006.84	2453.47
1007.00	2322.40
1007.16	2387.93
1007.32	2189.28
1007.48	2285.53
1007.64	2379.74
1007.79	2260.96
1007.95	2146.27
1008.11	2373.60
1008.27	2299.87
1008.43	2244.57
1008.59	2318.30
1008.75	2220.00
1008.91	2310.11
1009.06	2213.85
1009.22	2160.61
1009.38	2254.81
1009.54	2183.13
1009.70	2097.12
1009.86	2279.39
1010.01	2222.05
1010.17	2093.02
1010.33	2287.58
1010.49	2172.89
1010.65	2377.69
1010.81	2093.02
1010.96	2176.99
1011.12	2111.46
1011.28	2043.87
1011.44	2357.21
1011.60	2023.39
1011.76	2031.58
1011.91	2074.59
1012.07	2062.30
1012.23	2004.96
1012.39	2031.58
1012.55	2095.07
1012.71	2166.75
1012.86	2076.64
1013.02	2007.01
1013.18	2017.25
1013.34	2011.11
1013.50	2095.07
1013.65	2058.21
1013.81	2109.41
1013.97	2019.30
1014.13	2068.45
1014.29	2023.39
1014.44	2099.17
1014.60	2066.40
1014.76	2035.68
1014.92	1918.95
1015.07	1988.58
1015.23	2029.54
1015.39	2007.01
1015.55	1953.76
1015.71	1953.76
1015.86	1957.86
1016.02	1925.09
1016.18	1832.93
1016.34	1978.34
1016.49	1867.75
1016.65	1968.10
1016.81	1927.14
1016.97	1941.47
1017.12	1982.43
1017.28	1943.52
1017.44	1798.12
1017.60	1951.71
1017.75	1849.32
1017.91	1929.19
1018.07	1941.47
1018.23	1951.71
1018.38	1863.65
1018.54	1898.47
1018.70	1978.34
1018.86	1783.78
1019.01	1894.37
1019.17	1949.67
1019.33	2052.06
1019.49	1849.32
1019.64	1908.71
1019.80	1863.65
1019.96	1984.48
1020.12	1843.17
1020.27	1771.49
1020.43	1830.88
1020.59	1773.54
1020.74	1986.53
1020.90	1918.95
1021.06	1703.91
1021.22	1816.55
1021.37	1824.74
1021.53	1773.54
1021.69	1789.92
1021.84	1681.38
1022.00	1865.70
1022.16	1867.75
1022.31	1824.74
1022.47	1923.04
1022.63	1798.12
1022.79	1794.02
1022.94	1744.87
1023.10	1959.91
1023.26	1814.50
1023.41	1806.31
1023.57	1763.30
1023.73	1798.12
1023.88	1853.41
1024.04	1716.20
1024.20	1775.59
1024.35	1781.73
1024.51	1779.68
1024.67	1712.10
1024.82	1769.44
1024.98	1732.58
1025.14	1734.63
1025.29	1732.58
1025.45	1826.79
1025.61	1722.34
1025.76	1765.35
1025.92	1740.77
1026.08	1787.88
1026.23	1818.60
1026.39	1822.69
1026.55	1728.49
1026.70	1732.58
1026.86	1734.63
1027.02	1814.50
1027.17	1701.86
1027.33	1751.01
1027.48	1734.63
1027.64	1753.06
1027.80	1746.92
1027.95	1769.44
1028.11	1689.57
1028.27	1691.62
1028.42	1914.85
1028.58	1662.95
1028.73	1714.15
1028.89	1605.61
1029.05	1826.79
1029.20	1800.16
>>>>>End Processed Spectral Data<<<<<
