SpectraSuite Data File
++++++++++++++++++++++++++++++++++++
Date: Fri Jun 02 14:52:24 CEST 2017
User: INFO_000
Dark Spectrum Present: No
Reference Spectrum Present: No
Number of Sampled Component Spectra: 1
Spectrometers: USB4H00879
Integration Time (usec): 80000 (USB4H00879)
Spectra Averaged: 1 (USB4H00879)
Boxcar Smoothing: 0 (USB4H00879)
Correct for Electrical Dark: No (USB4H00879)
Strobe/Lamp Enabled: No (USB4H00879)
Correct for Detector Non-linearity: No (USB4H00879)
Correct for Stray Light: No (USB4H00879)
Number of Pixels in Processed Spectrum: 3648
>>>>>Begin Processed Spectral Data<<<<<
345.13	1245.16
345.34	1245.16
345.56	1245.16
345.78	1337.32
345.99	1376.24
346.21	1765.35
346.42	1689.57
346.64	1695.72
346.86	1818.60
347.07	1640.42
347.29	1722.34
347.50	1583.08
347.72	1626.09
347.94	1720.29
348.15	1611.75
348.37	1609.70
348.59	1705.96
348.80	1667.05
349.02	1794.02
349.23	1935.33
349.45	1877.99
349.67	1886.18
349.88	1789.92
350.10	1953.76
350.31	1812.45
350.53	1845.22
350.75	1984.48
350.96	1796.07
351.18	1810.40
351.39	1853.41
351.61	1810.40
351.82	1925.09
352.04	1875.94
352.26	1832.93
352.47	1925.09
352.69	1871.84
352.90	1732.58
353.12	1783.78
353.34	1877.99
353.55	1912.80
353.77	1880.04
353.98	1906.66
354.20	1839.08
354.41	1918.95
354.63	2097.12
354.85	2007.01
355.06	1875.94
355.28	1822.69
355.49	1869.80
355.71	1882.08
355.92	1929.19
356.14	1951.71
356.35	1875.94
356.57	1824.74
356.79	1920.99
357.00	1914.85
357.22	1941.47
357.43	1882.08
357.65	1916.90
357.86	1892.32
358.08	1884.13
358.29	1941.47
358.51	2007.01
358.72	2015.20
358.94	1966.05
359.16	1933.28
359.37	1986.53
359.59	1894.37
359.80	1941.47
360.02	1959.91
360.23	2031.58
360.45	2052.06
360.66	1916.90
360.88	1900.52
361.09	1964.00
361.31	1957.86
361.52	2019.30
361.74	2154.46
361.95	2105.31
362.17	1953.76
362.38	2039.78
362.60	2041.82
362.81	2013.15
363.03	1968.10
363.24	2052.06
363.46	2027.49
363.67	1984.48
363.89	2004.96
364.10	1941.47
364.32	1920.99
364.53	2113.50
364.75	1990.63
364.96	2007.01
365.18	2011.11
365.39	2013.15
365.61	1939.43
365.82	2158.56
366.04	1974.24
366.25	2002.91
366.47	2033.63
366.68	2070.50
366.90	1988.58
367.11	2090.98
367.33	2082.78
367.54	2095.07
367.76	2050.02
367.97	2209.76
368.19	2115.55
368.40	1998.82
368.62	1929.19
368.83	1945.57
369.05	2045.92
369.26	2019.30
369.48	2072.54
369.69	2039.78
369.91	2009.06
370.12	1933.28
370.33	2162.66
370.55	1994.72
370.76	2056.16
370.98	2097.12
371.19	2019.30
371.41	2074.59
371.62	2056.16
371.84	2031.58
372.05	2189.28
372.27	2093.02
372.48	2084.83
372.69	2099.17
372.91	2201.57
373.12	2181.09
373.34	2138.08
373.55	2150.37
373.77	2138.08
373.98	2086.88
374.20	2174.94
374.41	2273.25
374.62	2164.70
374.84	2189.28
375.05	2181.09
375.27	2140.13
375.48	2158.56
375.70	2242.53
375.91	2244.57
376.12	2303.96
376.34	2076.64
376.55	2193.37
376.77	2224.09
376.98	2160.61
377.19	2111.46
377.41	2195.42
377.62	2209.76
377.84	2265.05
378.05	2344.92
378.27	2254.81
378.48	2363.36
378.69	2367.45
378.91	2336.73
379.12	2287.58
379.34	2142.18
379.55	2392.03
379.76	2293.72
379.98	2228.19
380.19	2351.07
380.41	2263.01
380.62	2342.88
380.83	2297.82
381.05	2361.31
381.26	2402.27
381.47	2277.34
381.69	2195.42
381.90	2475.99
382.12	2271.20
382.33	2355.16
382.54	2256.86
382.76	2336.73
382.97	2312.16
383.19	2269.15
383.40	2355.16
383.61	2308.06
383.83	2265.05
384.04	2338.78
384.25	2373.60
384.47	2363.36
384.68	2449.37
384.89	2299.87
385.11	2404.32
385.32	2291.68
385.54	2443.23
385.75	2498.52
385.96	2437.08
386.18	2502.62
386.39	2353.12
386.60	2277.34
386.82	2463.71
387.03	2463.71
387.24	2498.52
387.46	2478.04
387.67	2531.29
387.88	2551.77
388.10	2502.62
388.31	2502.62
388.52	2539.48
388.74	2619.35
388.95	2539.48
389.16	2537.43
389.38	2478.04
389.59	2600.92
389.80	2611.16
390.02	2580.44
390.23	2654.17
390.44	2541.53
390.66	2525.15
390.87	2469.85
391.08	2621.40
391.30	2744.28
391.51	2650.07
391.72	2615.26
391.94	2576.34
392.15	2713.56
392.36	2607.06
392.58	2582.49
392.79	2652.12
393.00	2658.26
393.22	2740.18
393.43	2705.37
393.64	2920.40
393.85	2818.00
394.07	2635.74
394.28	2748.37
394.49	2731.99
394.71	2793.43
394.92	2822.10
395.13	2775.00
395.35	2727.89
395.56	2760.66
395.77	2840.53
395.98	2789.33
396.20	2875.35
396.41	2818.00
396.62	3000.27
396.84	2901.97
397.05	2797.53
397.26	2936.79
397.47	2951.12
397.69	2832.34
397.90	2992.08
398.11	2961.36
398.32	2842.58
398.54	2947.03
398.75	2957.27
398.96	2977.75
399.18	3186.64
399.39	3057.62
399.60	3020.75
399.81	3024.85
400.03	2996.18
400.24	3284.94
400.45	3026.90
400.66	3086.29
400.88	3051.47
401.09	3248.08
401.30	3055.57
401.51	3192.78
401.73	3151.82
401.94	3082.19
402.15	3076.05
402.36	3170.26
402.58	3160.02
402.79	3188.69
403.00	3217.36
403.21	3182.54
403.43	3354.57
403.64	3248.08
403.85	3162.06
404.06	3346.38
404.27	3119.06
404.49	3256.27
404.70	3155.92
404.91	3461.07
405.12	3274.70
405.34	3252.17
405.55	3444.68
405.76	3248.08
405.97	3315.66
406.19	3368.91
406.40	3307.47
406.61	3315.66
406.82	3340.24
407.03	3393.48
407.25	3344.33
407.46	3504.07
407.67	3499.98
407.88	3563.47
408.09	3370.96
408.31	3456.97
408.52	3422.16
408.73	3514.31
408.94	3340.24
409.15	3534.79
409.37	3581.90
409.58	3532.75
409.79	3514.31
410.00	3567.56
410.21	3508.17
410.43	3637.19
410.64	3485.64
410.85	3620.81
411.06	3577.80
411.27	3557.32
411.48	3760.07
411.70	3569.61
411.91	3629.00
412.12	3782.60
412.33	3704.78
412.54	3669.96
412.76	3698.63
412.97	3719.11
413.18	3575.75
413.39	3788.74
413.60	3696.58
413.81	3633.10
414.03	3704.78
414.24	3792.84
414.45	3858.37
414.66	3641.29
414.87	3784.65
415.08	3829.70
415.30	3833.80
415.51	3829.70
415.72	3751.88
415.93	3850.18
416.14	3819.46
416.35	3862.47
416.56	3811.27
416.78	3786.69
416.99	3915.72
417.20	3915.72
417.41	3954.63
417.62	3911.62
417.83	4016.07
418.04	3977.16
418.26	4124.61
418.47	3964.87
418.68	3973.06
418.89	4059.07
419.10	4153.28
419.31	4005.83
419.52	3954.63
419.73	4102.08
419.95	4206.53
420.16	4040.64
420.37	4028.35
420.58	4128.70
420.79	3928.00
421.00	4077.51
421.21	4231.10
421.42	4138.94
421.63	4220.86
421.85	4130.75
422.06	4253.63
422.27	4300.73
422.48	4286.40
422.69	4351.93
422.90	4313.02
423.11	4294.59
423.32	4345.79
423.53	4526.01
423.75	4349.89
423.96	4528.06
424.17	4321.21
424.38	4681.66
424.59	4386.75
424.80	4589.50
425.01	4489.15
425.22	4460.48
425.43	4478.91
425.64	4665.27
425.85	4665.27
426.06	4546.49
426.28	4612.03
426.49	4517.82
426.70	4673.46
426.91	4564.92
427.12	4628.41
427.33	4671.42
427.54	4839.35
427.75	4812.73
427.96	4855.73
428.17	4716.47
428.38	4732.86
428.59	4847.54
428.80	4911.03
429.01	4827.06
429.23	5009.33
429.44	5031.86
429.65	5109.68
429.86	5142.45
430.07	4882.36
430.28	4890.55
430.49	5109.68
430.70	5058.48
430.91	5062.58
431.12	4929.46
431.33	5294.00
431.54	5068.72
431.75	5269.42
431.96	5072.82
432.17	5177.26
432.38	5173.17
432.59	5261.23
432.80	5287.86
433.01	5220.27
433.22	5361.58
433.43	5359.53
433.64	5169.07
433.85	5156.79
434.06	5459.88
434.27	5355.44
434.49	5480.36
434.70	5431.21
434.91	5418.93
435.12	5529.52
435.33	5506.99
435.54	5527.47
435.75	5283.76
435.96	5459.88
436.17	5377.97
436.38	5552.04
436.59	5605.29
436.80	5621.67
437.01	5713.83
437.22	5773.22
437.43	5703.59
437.64	5570.48
437.85	5636.01
438.06	5926.82
438.27	5711.78
438.48	5873.57
438.69	5836.71
438.90	5853.09
439.11	5697.45
439.32	5963.68
439.53	5998.50
439.74	5963.68
439.95	6031.27
440.16	5857.19
440.37	6076.32
440.57	5799.85
440.78	6004.64
440.99	6154.15
441.20	6049.70
441.41	5881.77
441.62	6084.52
441.83	5996.45
442.04	6246.30
442.25	6143.91
442.46	6287.26
442.67	6250.40
442.88	6559.64
443.09	6158.24
443.30	6186.91
443.51	6326.18
443.72	6600.60
443.93	6258.59
444.14	6743.96
444.35	6326.18
444.56	6442.91
444.77	6502.30
444.98	6490.01
445.19	6678.43
445.40	6592.41
445.61	6379.42
445.81	6635.42
446.02	6653.85
446.23	6563.74
446.44	6436.77
446.65	6705.05
446.86	6793.11
447.07	6746.01
447.28	6926.23
447.49	6860.70
447.70	6729.63
447.91	6725.53
448.12	6741.91
448.33	7014.29
448.54	7008.15
448.74	6817.69
448.95	6864.79
449.16	6901.65
449.37	7301.01
449.58	6909.85
449.79	7339.92
450.00	7008.15
450.21	7264.15
450.42	7100.31
450.63	7370.64
450.84	7225.23
451.05	7249.81
451.25	7296.91
451.46	7180.18
451.67	7301.01
451.88	7489.42
452.09	7409.55
452.30	7266.19
452.51	7368.59
452.72	7690.12
452.93	7778.19
453.13	7219.09
453.34	7399.31
453.55	7548.81
453.76	7481.23
453.97	7968.65
454.18	7614.35
454.39	7866.25
454.60	7722.89
454.81	7843.72
455.01	7903.11
455.22	7759.75
455.43	7882.63
455.64	7892.87
455.85	8134.53
456.06	8093.57
456.27	7862.15
456.48	8023.94
456.68	8118.15
456.89	8099.72
457.10	8288.13
457.31	8157.06
457.52	8245.12
457.73	8376.19
457.94	8484.73
458.14	8234.88
458.35	8621.95
458.56	8263.55
458.77	8171.40
458.98	8429.44
459.19	8443.78
459.39	8634.24
459.60	8777.59
459.81	8810.36
460.02	8802.17
460.23	8652.67
460.44	8882.04
460.65	9002.87
460.85	8986.49
461.06	9115.51
461.27	8757.11
461.48	9121.65
461.69	9242.48
461.89	8839.03
462.10	9320.31
462.31	9211.76
462.52	8923.00
462.73	9265.01
462.94	9326.45
463.14	9398.13
463.35	9207.67
463.56	9682.80
463.77	9613.17
463.98	9475.95
464.18	9553.77
464.39	9447.28
464.60	9807.72
464.81	9758.57
465.02	9705.32
465.23	9949.03
465.43	9762.67
465.64	10094.44
465.85	9852.78
466.06	9873.26
466.27	10282.85
466.47	10217.32
466.68	10325.86
466.89	10051.43
467.10	10389.35
467.30	10295.14
467.51	10336.10
467.72	10592.09
467.93	10317.67
468.14	10536.80
468.34	10616.67
468.55	10612.57
468.76	10757.98
468.97	10588.00
469.17	10815.32
469.38	10747.74
469.59	11044.70
469.80	11085.65
470.01	10866.52
470.21	11028.31
470.42	11292.50
470.63	11378.51
470.84	11118.42
471.04	11319.12
471.25	11460.43
471.46	11333.46
471.67	11611.98
471.87	11714.38
472.08	11751.24
472.29	11878.22
472.50	11640.65
472.70	11786.06
472.91	11745.10
473.12	12138.31
473.33	11945.80
473.53	12283.72
473.74	12142.41
473.95	12369.73
474.16	12572.48
474.36	12287.81
474.57	12554.05
474.78	12603.20
474.99	12619.58
475.19	12418.88
475.40	13152.06
475.61	12891.96
475.81	12986.17
476.02	13131.58
476.23	13154.10
476.44	13186.87
476.64	13342.52
476.85	13528.88
477.06	13436.72
477.27	13600.56
477.47	13639.47
477.68	13459.25
477.89	13807.41
478.09	13944.62
478.30	14194.47
478.51	14075.69
478.71	14360.36
478.92	14137.13
479.13	14583.59
479.34	14579.49
479.54	14397.22
479.75	14477.09
479.96	14499.62
480.16	14704.42
480.37	14794.53
480.58	14862.11
480.78	15333.14
480.99	15335.19
481.20	15320.85
481.41	15615.76
481.61	15568.66
481.82	15793.94
482.03	15378.20
482.23	15683.34
482.44	15628.05
482.65	16015.12
482.85	16449.28
483.06	16142.09
483.27	16449.28
483.47	16256.78
483.68	16422.66
483.89	16361.22
484.09	16174.86
484.30	16774.91
484.51	16844.54
484.71	16871.17
484.92	17059.58
485.13	16979.71
485.33	17112.83
485.54	17237.75
485.75	17598.20
485.95	17432.31
486.16	17622.77
486.37	17637.11
486.57	17581.81
486.78	17618.68
486.98	17827.57
487.19	18015.98
487.40	17936.11
487.60	18181.87
487.81	18554.60
488.02	18421.48
488.22	18325.22
488.43	18446.05
488.64	18786.02
488.84	18702.05
489.05	18941.66
489.25	18820.83
489.46	18829.02
489.67	18968.29
489.87	19371.74
490.08	19265.24
490.29	19588.82
490.49	19629.78
490.70	19691.22
490.90	19754.71
491.11	20088.53
491.32	19922.64
491.52	19728.08
491.73	20074.19
491.94	20418.25
492.14	20235.98
492.35	20451.02
492.55	20672.20
492.76	20723.40
492.97	20967.10
493.17	20829.89
493.38	20993.73
493.58	21044.93
493.79	21077.69
494.00	20917.95
494.20	21345.98
494.41	21513.91
494.61	21358.27
494.82	21536.44
495.02	21460.66
495.23	21870.26
495.44	22052.53
495.64	22036.14
495.85	22048.43
496.05	22400.68
496.26	22077.10
496.47	22392.49
496.67	22562.47
496.88	22711.97
497.08	22427.31
497.29	22564.52
497.49	22660.77
497.70	22673.06
497.91	22953.63
498.11	23183.01
498.32	23056.03
498.52	23168.67
498.73	23721.62
498.93	23504.54
499.14	23647.90
499.34	23703.19
499.55	23778.97
499.76	23703.19
499.96	23991.95
500.17	23903.89
500.37	23969.43
500.58	24065.68
500.78	24127.12
500.99	23955.09
501.19	24481.42
501.40	24391.31
501.60	24090.26
501.81	24729.22
502.02	24395.40
502.22	24788.61
502.43	25079.43
502.63	24702.60
502.84	25013.89
503.04	24856.20
503.25	24977.03
503.45	25009.79
503.66	25292.41
503.86	25360.00
504.07	25560.70
504.27	25478.78
504.48	25648.76
504.68	25663.10
504.89	25693.82
505.09	25751.16
505.30	25529.98
505.50	25613.95
505.71	26015.35
505.91	26187.38
506.12	26091.12
506.32	25976.44
506.53	25978.48
506.73	26441.32
506.94	26306.16
507.14	26332.78
507.35	26498.67
507.55	26410.60
507.76	26580.59
507.96	26680.94
508.17	26429.04
508.37	26953.32
508.58	26865.25
508.78	26750.57
508.99	27301.47
509.19	27078.24
509.40	27088.48
509.60	27061.86
509.81	27192.93
510.01	26957.41
510.22	27139.68
510.42	26981.99
510.63	27584.09
510.83	27565.66
511.04	27481.69
511.24	27817.56
511.44	27573.85
511.65	27561.56
511.85	27565.66
512.06	27786.84
512.26	27764.31
512.47	28108.37
512.67	27852.38
512.88	27864.66
513.08	27565.66
513.29	27870.81
513.49	27997.78
513.69	27811.42
513.90	28034.64
514.10	28227.15
514.31	28290.64
514.51	28491.34
514.72	28462.67
514.92	28292.69
515.13	28286.54
515.33	28593.74
515.53	28753.48
515.74	28771.91
515.94	28900.94
516.15	28589.64
516.35	28624.46
516.56	28978.76
516.76	28608.08
516.96	29011.53
517.17	28941.89
517.37	29128.26
517.58	29169.22
517.78	29134.40
517.99	29388.35
518.19	29171.27
518.39	29335.10
518.60	29812.28
518.80	29183.55
519.01	29738.55
519.21	29498.94
519.41	29763.13
519.62	29709.88
519.82	29736.51
520.03	29906.49
520.23	29658.68
520.43	29572.67
520.64	29947.45
520.84	30217.78
521.05	29853.24
521.25	30170.68
521.45	30094.90
521.66	30438.96
521.86	30254.64
522.07	30309.94
522.27	30217.78
522.47	30301.75
522.68	30455.34
522.88	30627.37
523.08	31036.97
523.29	31047.21
523.49	30834.22
523.70	30907.94
523.90	31135.27
524.10	30918.18
524.31	30938.66
524.51	30504.49
524.71	31444.51
524.92	31122.98
525.12	31415.84
525.33	31120.93
525.53	31510.05
525.73	31731.23
525.94	31497.76
526.14	31725.08
526.34	31714.84
526.55	31540.77
526.75	31663.64
526.95	32118.29
527.16	31819.29
527.36	32044.57
527.56	32167.45
527.77	32271.89
527.97	31921.69
528.17	32167.45
528.38	32585.23
528.58	32484.88
528.78	32794.12
528.99	32577.04
529.19	33041.93
529.39	32243.22
529.60	32873.99
529.80	32828.94
530.00	32992.78
530.21	33287.68
530.41	33379.84
530.61	33365.51
530.82	33154.57
531.02	32828.94
531.22	33226.24
531.43	33373.70
531.63	33738.24
531.83	33934.84
532.04	33994.23
532.24	33510.91
532.44	34180.60
532.64	34139.64
532.85	34412.02
533.05	34383.35
533.25	34231.80
533.46	33904.12
533.66	34754.03
533.86	34289.14
534.07	34835.95
534.27	34526.71
534.47	34766.32
534.67	34987.50
534.88	34786.80
535.08	35149.29
535.28	34917.87
535.49	35378.66
535.69	35708.38
535.89	35485.15
536.09	35282.41
536.30	35732.96
536.50	35452.39
536.70	35919.32
536.91	35837.41
537.11	35648.99
537.31	36199.90
537.51	36185.56
537.72	36150.74
537.92	36328.92
538.12	36017.63
538.32	36185.56
538.53	36763.09
538.73	36521.43
538.93	36595.15
539.13	36247.00
539.34	36828.62
539.54	36490.71
539.74	36632.02
539.94	36742.61
540.15	36824.53
540.35	37475.78
540.55	37141.96
540.75	36971.98
540.96	37397.96
541.16	37473.73
541.36	37340.61
541.56	37428.68
541.77	37834.17
541.97	37551.56
542.17	37744.06
542.37	37815.74
542.58	37998.01
542.78	37676.48
542.98	38012.35
543.18	38172.09
543.38	38364.60
543.59	38288.82
543.79	38364.60
543.99	38378.93
544.19	38442.42
544.40	38102.46
544.60	38729.14
544.80	38475.19
545.00	38667.70
545.20	39120.30
545.41	38520.24
545.61	39013.80
545.81	39359.91
546.01	39052.72
546.21	39056.81
546.42	39138.73
546.62	39050.67
546.82	39452.07
547.02	39161.26
547.22	39787.94
547.43	39564.71
547.63	39558.56
547.83	39638.44
548.03	39583.14
548.23	39978.40
548.44	39746.98
548.64	40082.84
548.84	39785.89
549.04	40129.95
549.24	40267.16
549.45	40494.49
549.65	40256.92
549.85	40351.13
550.05	40459.67
550.25	40631.70
550.45	41162.12
550.66	40635.80
550.86	40467.86
551.06	40846.74
551.26	40738.19
551.46	41014.67
551.66	41037.20
551.87	41137.55
552.07	41133.45
552.27	41203.08
552.47	41160.08
552.67	41375.11
552.87	41270.67
553.07	41385.35
553.28	41524.61
553.48	41526.66
553.68	41649.54
553.88	42016.13
554.08	41788.80
554.28	41971.07
554.48	41876.86
554.69	41966.98
554.89	42292.60
555.09	42159.48
555.29	42206.59
555.49	42710.39
555.69	42319.23
555.89	42288.51
556.10	42481.02
556.30	42347.90
556.50	42782.07
556.70	42302.84
556.90	42884.47
557.10	42855.79
557.30	42581.37
557.50	43050.35
557.70	42923.38
557.91	42825.07
558.11	43017.58
558.31	43019.63
558.51	43058.54
558.71	43281.77
558.91	43461.99
559.11	43242.86
559.31	43281.77
559.51	42945.90
559.72	43599.21
559.92	43545.96
560.12	43615.59
560.32	43726.18
560.52	43337.07
560.72	43652.45
560.92	43668.84
561.12	43738.47
561.32	43898.21
561.52	43955.55
561.72	43988.32
561.93	43865.44
562.13	44199.26
562.33	43742.56
562.53	44465.50
562.73	43926.88
562.93	44393.82
563.13	44604.76
563.33	44422.49
563.53	44918.10
563.73	44369.24
563.93	44741.97
564.13	45368.65
564.33	44578.14
564.53	44690.77
564.74	44836.18
564.94	44606.81
565.14	44864.85
565.34	44586.33
565.54	45215.05
565.74	45348.17
565.94	45237.58
566.14	44954.96
566.34	45026.64
566.54	45688.13
566.74	45088.08
566.94	45268.30
567.14	45540.68
567.34	45460.81
567.54	45241.68
567.74	45497.67
567.94	45382.99
568.14	45647.18
568.34	45567.30
568.54	45598.02
568.74	45948.23
568.94	45679.94
569.14	46107.97
569.34	46335.29
569.54	45919.56
569.75	46013.76
569.95	45983.04
570.15	46554.43
570.35	46153.02
570.55	45985.09
570.75	46167.36
570.95	46308.67
571.15	46562.62
571.35	46290.24
571.55	46671.16
571.75	46533.95
571.95	46955.83
572.15	46746.93
572.35	46624.06
572.55	46847.29
572.75	46775.61
572.95	47000.88
573.15	47109.43
573.35	47156.53
573.55	46837.05
573.75	47031.60
573.95	47197.49
574.15	47007.03
574.35	47637.80
574.55	47162.67
574.75	47088.95
574.95	47349.04
575.15	47172.91
575.34	47934.76
575.54	47449.39
575.74	47848.74
575.94	47619.37
576.14	47580.46
576.34	47963.43
576.54	47748.39
576.74	47756.58
576.94	47910.18
577.14	47863.08
577.34	48340.25
577.54	47871.27
577.74	48143.65
577.94	48190.75
578.14	48235.81
578.34	48729.37
578.54	48022.82
578.74	48039.20
578.94	48319.77
579.14	48160.03
579.34	48508.19
579.54	48340.25
579.74	48708.89
579.94	48815.38
580.13	48305.44
580.33	48739.61
580.53	49110.29
580.73	48641.31
580.93	48792.86
581.13	48598.30
581.33	49071.38
581.53	49245.46
581.73	48858.39
581.93	49306.90
582.13	49181.97
582.33	48989.46
582.53	49442.06
582.73	49663.24
582.92	49538.32
583.12	49886.47
583.32	49413.39
583.52	49190.16
583.72	49675.53
583.92	49239.31
584.12	49659.15
584.32	50455.81
584.52	49724.68
584.72	50156.80
584.92	50038.02
585.11	50300.16
585.31	50134.28
585.51	49841.42
585.71	49804.55
585.91	50388.22
586.11	49937.67
586.31	49956.10
586.51	49941.77
586.71	50214.15
586.91	50119.94
587.10	50468.09
587.30	50621.69
587.50	50664.70
587.70	50507.01
587.90	50490.62
588.10	50547.96
588.30	50214.15
588.50	50625.79
588.69	50476.29
588.89	50666.75
589.09	50707.71
589.29	50808.06
589.49	50904.31
589.69	50410.75
589.89	50975.99
590.08	50939.13
590.28	50746.62
590.48	51008.76
590.68	50990.33
590.88	51025.14
591.08	50750.71
591.28	50574.59
591.47	51166.45
591.67	50705.66
591.87	51043.57
592.07	50820.34
592.27	51221.75
592.47	51053.81
592.67	51320.05
592.86	50638.08
593.06	51188.98
593.26	51340.53
593.46	51313.90
593.66	51254.51
593.86	51330.29
594.05	50779.39
594.25	51135.73
594.45	51070.20
594.65	51127.54
594.85	51336.43
595.05	51705.07
595.24	51299.57
595.44	51549.42
595.64	51639.53
595.84	51453.17
596.04	51383.54
596.23	51561.71
596.43	51567.85
596.63	51496.17
596.83	51289.33
597.03	52059.37
597.22	51846.38
597.42	51494.13
597.62	52407.52
597.82	52036.84
598.02	51756.27
598.21	52083.94
598.41	51868.90
598.61	52374.75
598.81	52008.17
599.01	51987.69
599.20	52131.04
599.40	52040.93
599.60	52446.43
599.80	52372.70
600.00	52511.97
600.19	52868.31
600.39	52229.35
600.59	52620.51
600.79	52704.48
600.98	52520.16
601.18	52356.32
601.38	52356.32
601.58	52645.08
601.78	52507.87
601.97	52700.38
602.17	53302.48
602.37	52901.08
602.57	52853.98
602.76	53152.98
602.96	52673.76
603.16	52909.27
603.36	53048.53
603.55	53146.84
603.75	52993.24
603.95	52978.90
604.15	53245.14
604.34	52989.14
604.54	53347.54
604.74	52970.71
604.94	53349.59
605.13	53269.72
605.33	53322.96
605.53	53163.22
605.73	53370.07
605.92	52970.71
606.12	53646.54
606.32	53222.61
606.52	53073.11
606.71	53408.98
606.91	53583.05
607.11	53236.95
607.30	54250.69
607.50	53476.56
607.70	53714.12
607.90	54129.86
608.09	53570.77
608.29	53718.22
608.49	53576.91
608.68	53322.96
608.88	53540.05
609.08	54019.27
609.28	53736.65
609.47	54170.82
609.67	54385.86
609.87	53896.39
610.06	54039.75
610.26	53834.95
610.46	54242.50
610.66	53509.33
610.85	53916.87
611.05	54129.86
611.25	54205.64
611.44	53605.58
611.64	53695.69
611.84	53564.62
612.03	53757.13
612.23	53968.07
612.43	54027.46
612.62	53794.00
612.82	54172.87
613.02	54093.00
613.21	54191.30
613.41	53880.01
613.61	54164.68
613.80	53955.78
614.00	54162.63
614.20	54164.68
614.39	53826.76
614.59	54355.14
614.79	54297.80
614.98	53748.94
615.18	53914.83
615.38	54158.53
615.57	53730.51
615.77	54475.97
615.97	54236.36
616.16	53691.60
616.36	54303.94
616.56	54213.83
616.75	54420.67
616.95	53798.09
617.15	54058.18
617.34	53945.54
617.54	53923.02
617.74	54711.49
617.93	54457.54
618.13	53511.38
618.32	54121.67
618.52	53920.97
618.72	53931.21
618.91	54148.29
619.11	53654.73
619.31	54187.21
619.50	54383.81
619.70	54074.57
619.90	54217.92
620.09	53974.22
620.29	54555.84
620.48	54058.18
620.68	54959.29
620.88	53607.63
621.07	53818.57
621.27	53998.79
621.46	54230.21
621.66	54451.39
621.86	54451.39
622.05	53918.92
622.25	54453.44
622.44	53869.77
622.64	53968.07
622.84	54090.95
623.03	54226.12
623.23	54346.95
623.42	54555.84
623.62	54154.44
623.82	54639.81
624.01	53843.15
624.21	54318.28
624.40	54136.01
624.60	53877.96
624.80	53951.69
624.99	54318.28
625.19	53894.35
625.38	54146.25
625.58	54549.70
625.77	54404.29
625.97	54396.10
626.17	53845.19
626.36	54086.85
626.56	54500.54
626.75	53826.76
626.95	54559.94
627.14	53998.79
627.34	54523.07
627.54	54654.14
627.73	54242.50
627.93	54633.66
628.12	54355.14
628.32	54047.94
628.51	54027.46
628.71	54254.79
628.90	54955.19
629.10	54011.08
629.30	54170.82
629.49	54297.80
629.69	54244.55
629.88	54273.22
630.08	54811.84
630.27	54623.42
630.47	54131.91
630.66	54482.11
630.86	54539.46
631.05	54093.00
631.25	54555.84
631.44	54439.11
631.64	54455.49
631.84	54985.91
632.03	55301.30
632.23	54621.37
632.42	55098.55
632.62	54916.28
632.81	54590.66
633.01	54635.71
633.20	55108.79
633.40	55039.16
633.59	55358.64
633.79	54707.39
633.98	54930.62
634.18	55010.49
634.37	55243.96
634.57	54998.20
634.76	55135.41
634.96	54936.76
635.15	55014.58
635.35	54639.81
635.54	55293.11
635.74	55366.84
635.93	54940.86
636.13	55489.71
636.32	55430.32
636.52	54912.19
636.71	55229.62
636.91	55358.64
637.10	55508.14
637.30	55405.75
637.49	55260.34
637.69	55418.03
637.88	55626.93
638.08	55348.40
638.27	55452.85
638.46	55237.81
638.66	54932.67
638.85	55397.55
639.05	55262.39
639.24	55493.81
639.44	55289.01
639.63	55600.30
639.83	55524.53
640.02	56073.38
640.22	55338.16
640.41	56388.77
640.61	55286.96
640.80	56040.62
640.99	55612.59
641.19	56304.80
641.38	55712.94
641.58	55674.03
641.77	55653.55
641.97	55489.71
642.16	55784.62
642.36	56052.90
642.55	56194.21
642.74	56052.90
642.94	56726.69
643.13	56038.57
643.33	56194.21
643.52	56349.86
643.72	56366.24
643.91	56298.66
644.10	56253.61
644.30	56333.48
644.49	56186.02
644.69	56837.28
644.88	56331.43
645.08	56216.74
645.27	56339.62
645.46	56292.52
645.66	56927.39
645.85	56218.79
646.05	56923.29
646.24	56517.79
646.43	56642.72
646.63	56761.50
646.82	57392.28
647.02	56415.40
647.21	56859.80
647.40	56759.45
647.60	57171.10
647.79	57533.59
647.99	57199.77
648.18	56804.51
648.37	57318.55
648.57	57078.94
648.76	56919.20
648.96	57326.74
649.15	57244.82
649.34	57343.12
649.54	57443.48
649.73	57261.21
649.92	57640.08
650.12	57365.65
650.31	57713.81
650.51	57414.80
650.70	57953.42
650.89	57054.36
651.09	58193.03
651.28	57468.05
651.47	58053.77
651.67	58074.25
651.86	58363.01
652.06	57695.38
652.25	57762.96
652.44	57889.93
652.64	57330.84
652.83	57693.33
653.02	57844.88
653.22	57937.04
653.41	57373.84
653.60	57826.45
653.80	57654.42
653.99	57726.10
654.18	57746.57
654.38	57588.88
654.57	58049.67
654.76	58045.58
654.96	57760.91
655.15	57861.26
655.34	57889.93
655.54	57904.27
655.73	58021.00
655.92	58309.77
656.12	58082.44
656.31	57975.95
656.50	57920.65
656.70	57975.95
656.89	58332.29
657.08	58197.13
657.28	58221.70
657.47	58377.35
657.66	58008.71
657.86	58078.35
658.05	58473.60
658.24	58414.21
658.43	57842.83
658.63	58272.90
658.82	58211.46
659.01	58414.21
659.21	58815.61
659.40	58571.91
659.59	58268.81
659.79	58715.26
659.98	58694.78
660.17	58700.93
660.36	58537.09
660.56	58639.49
660.75	58408.07
660.94	58197.13
661.14	58614.91
661.33	58172.55
661.52	57908.36
661.71	58662.02
661.91	58430.60
662.10	58545.28
662.29	58569.86
662.49	58659.97
662.68	58268.81
662.87	58518.66
663.06	58856.57
663.26	58360.97
663.45	58889.34
663.64	59063.42
663.83	58991.74
664.03	59020.41
664.22	58821.76
664.41	59329.65
664.60	58406.02
664.80	58897.53
664.99	58545.28
665.18	59020.41
665.37	59108.47
665.57	58829.95
665.76	58897.53
665.95	59255.93
666.14	58872.96
666.34	58440.84
666.53	58776.70
666.72	58872.96
666.91	58471.56
667.11	58936.44
667.30	58664.06
667.49	58692.74
667.68	58848.38
667.87	58512.52
668.07	58893.44
668.26	58692.74
668.45	58748.03
668.64	58537.09
668.84	59278.46
669.03	59053.18
669.22	58971.26
669.41	58889.34
669.60	59245.69
669.80	58666.11
669.99	59004.03
670.18	58539.14
670.37	58614.91
670.57	59180.15
670.76	58750.08
670.95	59065.47
671.14	58684.54
671.33	58827.90
671.53	59022.46
671.72	58752.13
671.91	58739.84
672.10	59034.75
672.29	58631.30
672.48	58754.18
672.68	58788.99
672.87	58549.38
673.06	58365.06
673.25	58668.16
673.44	58557.57
673.64	58430.60
673.83	58897.53
674.02	58434.69
674.21	58227.85
674.40	58723.46
674.59	58266.76
674.79	58504.32
674.98	58668.16
675.17	58416.26
675.36	58299.53
675.55	58479.75
675.74	58373.25
675.94	58330.25
676.13	58698.88
676.32	58733.70
676.51	58889.34
676.70	58569.86
676.89	58412.16
677.08	58760.32
677.28	58303.62
677.47	58938.49
677.66	58520.71
677.85	58260.62
678.04	58772.61
678.23	58864.77
678.42	58465.41
678.62	58332.29
678.81	58414.21
679.00	58541.19
679.19	59047.04
679.38	58473.60
679.57	58201.22
679.76	58717.31
679.96	58506.37
680.15	58188.94
680.34	58164.36
680.53	57988.24
680.72	58010.76
680.91	58375.30
681.10	58279.05
681.29	58061.96
681.48	58082.44
681.68	58233.99
681.87	57715.86
682.06	57918.60
682.25	57816.21
682.44	57746.57
682.63	58195.08
682.82	57345.17
683.01	57853.07
683.20	57339.03
683.39	58039.43
683.59	57932.94
683.78	57128.09
683.97	57394.32
684.16	57474.20
684.35	57234.58
684.54	57574.55
684.73	57746.57
684.92	57255.06
685.11	57281.69
685.30	57029.79
685.49	57951.37
685.69	57439.38
685.88	57517.20
686.07	57242.77
686.26	57846.93
686.45	57578.64
686.64	57009.31
686.83	57375.89
687.02	57250.97
687.21	57144.47
687.40	56964.25
687.59	57134.23
687.78	57191.58
687.97	57279.64
688.16	57154.71
688.35	56769.69
688.54	56677.54
688.74	57109.66
688.93	56229.03
689.12	56683.68
689.31	56728.73
689.50	57070.75
689.69	56724.64
689.88	56493.22
690.07	56503.46
690.26	56423.59
690.45	57074.84
690.64	56779.93
690.83	56835.23
691.02	56235.17
691.21	56624.29
691.40	56052.90
691.59	56534.18
691.78	56327.33
691.97	56513.70
692.16	56181.93
692.35	56550.56
692.54	56122.54
692.73	56153.26
692.92	56327.33
693.11	56493.22
693.30	56038.57
693.49	56482.98
693.68	56269.99
693.87	56046.76
694.06	55702.70
694.25	55973.03
694.44	55528.62
694.63	55620.78
694.82	55678.13
695.01	55770.28
695.20	55700.65
695.39	55375.03
695.58	55809.20
695.77	55422.13
695.96	55135.41
696.15	55694.51
696.34	55237.81
696.53	55784.62
696.72	56210.60
696.91	55444.66
697.10	55747.76
697.29	55418.03
697.48	55375.03
697.67	55178.42
697.86	54496.45
698.05	54686.91
698.24	55078.07
698.43	54418.63
698.62	55037.11
698.81	54672.57
699.00	55084.22
699.19	54453.44
699.38	55002.30
699.57	54428.87
699.76	55321.78
699.95	54813.88
700.14	54858.94
700.32	54688.96
700.51	54111.43
700.70	54584.51
700.89	54774.97
701.08	54801.60
701.27	54318.28
701.46	54760.64
701.65	53933.26
701.84	54449.35
702.03	54099.14
702.22	54273.22
702.41	53460.18
702.60	54572.22
702.79	54109.38
702.98	53679.31
703.17	53908.68
703.35	53775.56
703.54	53664.97
703.73	54557.89
703.92	53505.23
704.11	53630.16
704.30	53718.22
704.49	53535.95
704.68	53675.21
704.87	53400.79
705.06	52905.18
705.25	53597.39
705.43	53691.60
705.62	53394.64
705.81	53224.66
706.00	53392.59
706.19	53222.61
706.38	53142.74
706.57	53173.46
706.76	53126.36
706.95	53212.37
707.14	52921.56
707.32	52901.08
707.51	52757.72
707.70	52712.67
707.89	52862.17
708.08	52524.25
708.27	52600.03
708.46	53189.84
708.65	52794.59
708.84	52933.85
709.02	52974.81
709.21	52851.93
709.40	52755.68
709.59	52393.18
709.78	51950.82
709.97	52684.00
710.16	52153.57
710.34	52399.33
710.53	52354.27
710.72	52096.23
710.91	52180.20
711.10	52370.66
711.29	52497.63
711.48	52428.00
711.66	52008.17
711.85	52016.36
712.04	51723.50
712.23	52147.43
712.42	52071.65
712.61	51983.59
712.80	51711.21
712.98	51971.30
713.17	51729.64
713.36	51993.83
713.55	51754.22
713.74	51918.06
713.93	51750.12
714.11	51623.15
714.30	51082.48
714.49	51231.99
714.68	51676.40
714.87	51272.95
715.06	51516.65
715.24	51164.40
715.43	51272.95
715.62	50869.50
715.81	51098.87
716.00	51399.92
716.18	50937.08
716.37	50894.07
716.56	50828.54
716.75	50947.32
716.94	51115.25
717.12	50289.92
717.31	51105.01
717.50	50953.46
717.69	50885.88
717.88	50836.73
718.06	50713.85
718.25	50922.74
718.44	50074.88
718.63	50214.15
718.82	49972.49
719.00	50337.02
719.19	49913.09
719.38	50148.61
719.57	49431.82
719.76	49560.84
719.94	49546.51
720.13	50001.16
720.32	49960.20
720.51	49800.46
720.69	49550.60
720.88	49534.22
721.07	49657.10
721.26	49427.73
721.44	49509.64
721.63	49364.24
721.82	48981.27
722.01	49108.24
722.20	49677.58
722.38	48778.52
722.57	48538.91
722.76	49272.08
722.95	48418.08
723.13	48807.19
723.32	48561.44
723.51	48469.28
723.70	48723.22
723.88	48940.31
724.07	48803.10
724.26	48665.88
724.44	48061.73
724.63	48956.69
724.82	48422.17
725.01	48411.93
725.19	48205.09
725.38	48454.94
725.57	48674.07
725.76	48719.13
725.94	48250.14
726.13	48112.93
726.32	48186.66
726.51	48321.82
726.69	48469.28
726.88	48426.27
727.07	48377.12
727.25	47570.22
727.44	47848.74
727.63	48260.38
727.82	48057.63
728.00	47813.93
728.19	47852.84
728.38	48051.49
728.56	47732.01
728.75	48235.81
728.94	47461.68
729.12	48026.92
729.31	47824.17
729.50	47932.71
729.69	48051.49
729.87	47861.03
730.06	47764.78
730.25	47863.08
730.43	48024.87
730.62	47713.58
730.81	48133.41
730.99	47936.80
731.18	47666.47
731.37	47523.11
731.55	47904.04
731.74	47815.97
731.93	47885.61
732.11	47957.28
732.30	47394.09
732.49	47381.80
732.67	47476.01
732.86	47588.65
733.05	47695.14
733.23	46941.49
733.42	47435.05
733.61	47541.55
733.79	47770.92
733.98	47537.45
734.17	47746.34
734.35	47861.03
734.54	47861.03
734.73	48297.25
734.91	47549.74
735.10	47183.15
735.29	47682.86
735.47	47224.11
735.66	47588.65
735.84	47600.94
736.03	47662.38
736.22	47715.62
736.40	47621.42
736.59	47576.36
736.78	47002.93
736.96	47351.09
737.15	47043.89
737.33	47453.48
737.52	47250.74
737.71	46998.83
737.89	47222.06
738.08	46732.60
738.27	47004.98
738.45	47164.72
738.64	47215.92
738.82	47047.99
739.01	47045.94
739.20	47041.84
739.38	46839.09
739.57	47613.23
739.75	47101.23
739.94	47058.23
740.13	47047.99
740.31	47027.51
740.50	46791.99
740.68	47287.60
740.87	47090.99
741.06	46900.53
741.24	46302.53
741.43	46478.65
741.61	47027.51
741.80	46859.57
741.99	46689.59
742.17	46308.67
742.36	46505.27
742.54	46222.65
742.73	46781.75
742.91	46937.40
743.10	46622.01
743.29	46882.10
743.47	46308.67
743.66	46685.50
743.84	46388.54
744.03	46617.91
744.21	46544.19
744.40	46671.16
744.59	46497.08
744.77	46679.35
744.96	46513.47
745.14	46701.88
745.33	46906.68
745.51	46513.47
745.70	46794.04
745.88	46398.78
746.07	46638.39
746.26	46310.72
746.44	46443.84
746.63	46202.18
746.81	46513.47
747.00	46394.68
747.18	45970.75
747.37	46273.85
747.55	46304.57
747.74	46376.25
747.92	46136.64
748.11	46138.69
748.29	46024.00
748.48	45872.45
748.66	45714.76
748.85	45888.84
749.03	46064.96
749.22	46024.00
749.41	45665.61
749.59	46030.15
749.78	45710.66
749.96	45460.81
750.15	45702.47
750.33	45899.08
750.52	45466.95
750.70	45446.47
750.89	45307.21
751.07	45890.88
751.26	45800.77
751.44	45561.16
751.63	45643.08
751.81	45083.98
752.00	45536.59
752.18	45503.82
752.37	45258.06
752.55	45106.51
752.74	45163.85
752.92	45380.94
753.10	45202.77
753.29	45520.20
753.47	45163.85
753.66	44862.80
753.84	45577.54
754.03	45063.50
754.21	45116.75
754.40	45143.38
754.58	45288.78
754.77	45008.21
754.95	44557.66
755.14	44838.23
755.32	45081.94
755.51	44963.15
755.69	45038.93
755.88	44727.64
756.06	44772.69
756.24	44602.71
756.43	44316.00
756.61	44733.78
756.80	44473.69
756.98	44422.49
757.17	44713.30
757.35	44922.19
757.54	44746.07
757.72	44569.94
757.90	44637.53
758.09	44283.23
758.27	44494.17
758.46	44227.93
758.64	44389.72
758.83	44363.10
759.01	45016.40
759.19	44201.31
759.38	44520.79
759.56	44549.46
759.75	44586.33
759.93	44316.00
760.12	43971.94
760.30	44461.40
760.48	44369.24
760.67	44438.87
760.85	44371.29
761.04	44416.35
761.22	44078.43
761.40	44066.14
761.59	43996.51
761.77	43801.96
761.96	44053.86
762.14	44016.99
762.32	43771.24
762.51	44088.67
762.69	43767.14
762.88	43857.25
763.06	44012.90
763.24	44178.78
763.43	43775.33
763.61	43945.31
763.80	43824.48
763.98	43365.74
764.16	43560.30
764.35	43421.03
764.53	43144.56
764.72	43750.76
764.90	43488.62
765.08	43324.78
765.27	43179.37
765.45	43601.25
765.63	42829.17
765.82	43509.10
766.00	43341.16
766.18	43117.93
766.37	43607.40
766.55	43052.40
766.74	43255.15
766.92	43148.65
767.10	43339.11
767.29	42603.89
767.47	42667.38
767.65	43390.31
767.84	42923.38
768.02	42829.17
768.20	42638.71
768.39	42939.76
768.57	42954.10
768.75	43005.30
768.94	43109.74
769.12	43130.22
769.30	42671.48
769.49	42784.12
769.67	42440.06
769.85	42120.57
770.04	42351.99
770.22	42288.51
770.40	41966.98
770.59	42106.24
770.77	42435.96
770.95	42536.31
771.14	41868.67
771.32	41817.47
771.50	42022.27
771.69	42157.44
771.87	42136.96
772.05	41815.43
772.24	42048.89
772.42	41883.01
772.60	41932.16
772.78	41991.55
772.97	41667.97
773.15	41756.03
773.33	41708.93
773.52	41493.89
773.70	41784.71
773.88	41950.59
774.07	41393.54
774.25	41741.70
774.43	41911.68
774.61	41328.01
774.80	41731.46
774.98	41852.29
775.16	41913.73
775.34	41942.40
775.53	41774.47
775.71	42093.95
775.89	41796.99
776.08	42018.17
776.26	41989.50
776.44	42139.00
776.62	41747.84
776.81	42120.57
776.99	42288.51
777.17	42179.96
777.35	42435.96
777.54	42251.64
777.72	42026.37
777.90	42182.01
778.08	42481.02
778.27	42540.41
778.45	42513.78
778.63	42734.96
778.81	42108.29
779.00	42866.03
779.18	42317.18
779.36	42876.27
779.54	42583.41
779.73	42448.25
779.91	42450.30
780.09	42622.33
780.27	42843.51
780.46	43107.69
780.64	42982.77
780.82	42671.48
781.00	42567.03
781.19	42737.01
781.37	42757.49
781.55	42931.57
781.73	43244.91
781.91	42722.68
782.10	42923.38
782.28	43126.13
782.46	43306.35
782.64	43087.21
782.82	42759.54
783.01	43355.50
783.19	43212.14
783.37	43500.90
783.55	42831.22
783.74	43584.87
783.92	43060.59
784.10	43519.34
784.28	43189.61
784.46	42802.55
784.64	43175.28
784.83	43206.00
785.01	43220.33
785.19	43152.75
785.37	43484.52
785.55	43388.27
785.74	42780.02
785.92	42849.65
786.10	43222.38
786.28	42909.04
786.46	43070.83
786.64	42995.06
786.83	43193.71
787.01	42825.07
787.19	42966.38
787.37	42882.42
787.55	43181.42
787.74	42761.59
787.92	42896.75
788.10	42741.11
788.28	42294.65
788.46	42974.58
788.64	42122.62
788.82	43167.09
789.01	42509.69
789.19	42597.75
789.37	42524.02
789.55	42536.31
789.73	42139.00
789.91	42151.29
790.09	42442.10
790.28	42345.85
790.46	41960.83
790.64	42411.38
790.82	41811.33
791.00	41962.88
791.18	41399.69
791.36	41973.12
791.55	41975.17
791.73	41596.29
791.91	41448.84
792.09	41293.19
792.27	41833.86
792.45	41614.72
792.63	41416.07
792.81	41108.88
793.00	41295.24
793.18	41145.74
793.36	41008.53
793.54	41352.58
793.72	40787.35
793.90	40689.04
794.08	40779.15
794.26	40816.02
794.44	40385.94
794.62	39990.69
794.81	40519.06
794.99	40367.51
795.17	40119.71
795.35	40269.21
795.53	40312.22
795.71	40797.59
795.89	39962.01
796.07	39939.49
796.25	39443.88
796.43	39497.13
796.61	39454.12
796.80	39474.60
796.98	39482.79
797.16	39333.29
797.34	39714.21
797.52	39601.57
797.70	39626.15
797.88	38815.15
798.06	38942.13
798.24	39294.38
798.42	38806.96
798.60	39163.31
798.78	39108.01
798.96	38878.64
799.14	38483.38
799.32	38557.11
799.51	38251.96
799.69	38450.61
799.87	38487.48
800.05	37873.09
800.23	37967.29
800.41	37830.08
800.59	37877.18
800.77	37737.92
800.95	37643.71
801.13	37674.43
801.31	37324.23
801.49	37631.43
801.67	37045.71
801.85	37260.74
802.03	37160.39
802.21	37359.05
802.39	36990.41
802.57	36957.64
802.75	36877.77
802.93	37014.99
803.11	36836.81
803.29	36685.26
803.47	36251.09
803.65	36689.36
803.83	36779.47
804.01	36242.90
804.19	36214.23
804.37	35796.45
804.55	35870.17
804.73	35988.95
804.91	35710.43
805.09	36128.22
805.27	35872.22
805.45	35997.15
805.63	35907.04
805.81	35667.42
805.99	35683.81
806.17	35919.32
806.35	35778.01
806.53	35323.36
806.71	35669.47
806.89	35343.84
807.07	35173.86
807.25	35231.21
807.43	34936.30
807.61	35073.51
807.79	35010.03
807.97	34541.04
808.15	34848.24
808.33	34741.74
808.51	34717.17
808.69	34463.22
808.87	34289.14
809.05	34358.77
809.23	34319.86
809.41	34119.16
809.59	34256.37
809.77	34276.85
809.95	34522.61
810.13	33850.88
810.31	33684.99
810.49	33691.13
810.67	33748.48
810.84	33754.62
811.02	33764.86
811.20	33754.62
811.38	33199.62
811.56	33115.65
811.74	33244.68
811.92	33111.56
812.10	33400.32
812.28	33191.43
812.46	33115.65
812.64	33086.98
812.82	33009.16
813.00	33177.09
813.18	32814.60
813.36	32982.54
813.53	32843.27
813.71	32624.14
813.89	32536.08
814.07	32521.74
814.25	32806.41
814.43	32583.18
814.61	32304.66
814.79	32394.77
814.97	32286.23
815.15	32443.92
815.33	32085.53
815.50	31688.22
815.68	31796.76
815.86	31839.77
816.04	31735.32
816.22	31749.66
816.40	31579.68
816.58	31641.12
816.76	31643.17
816.94	31583.77
817.11	31325.73
817.29	31446.56
817.47	31430.18
817.65	31477.28
817.83	31327.78
818.01	31155.75
818.19	31079.97
818.37	31016.49
818.54	31016.49
818.72	30830.12
818.90	31092.26
819.08	30762.54
819.26	30848.55
819.44	30723.63
819.62	30610.99
819.80	30733.87
819.97	30381.62
820.15	30346.80
820.33	30352.94
820.51	30275.12
820.69	30164.53
820.87	30481.97
821.05	30545.45
821.22	29961.78
821.40	30066.23
821.58	29711.93
821.76	30080.56
821.94	30092.85
822.12	30139.96
822.29	30207.54
822.47	30084.66
822.65	30088.76
822.83	29836.86
823.01	29630.01
823.19	29603.39
823.36	29451.84
823.54	29249.09
823.72	29320.77
823.90	29283.91
824.08	29189.70
824.25	29300.29
824.43	29058.63
824.61	29238.85
824.79	29414.98
824.97	28999.24
825.15	29455.93
825.32	29081.16
825.50	28870.22
825.68	29015.62
825.86	29046.34
826.04	29077.06
826.21	29177.41
826.39	28751.43
826.57	28585.55
826.75	28808.78
826.93	28587.60
827.10	28178.00
827.28	28524.11
827.46	28710.47
827.64	28489.29
827.81	28464.72
827.99	28395.09
828.17	28438.09
828.35	28178.00
828.53	28401.23
828.70	28337.74
828.88	27971.16
829.06	28208.72
829.24	28517.96
829.41	28067.41
829.59	28034.64
829.77	28014.16
829.95	27780.70
830.12	27899.48
830.30	27917.91
830.48	27907.67
830.66	27659.87
830.84	27846.23
831.01	27428.45
831.19	27696.73
831.37	27217.50
831.55	27727.45
831.72	27457.12
831.90	27543.13
832.08	27491.93
832.25	27360.86
832.43	27252.32
832.61	27199.07
832.79	26809.96
832.96	27250.27
833.14	27178.59
833.32	27395.68
833.50	27274.85
833.67	27025.00
833.85	27031.14
834.03	26576.49
834.20	26855.01
834.38	26781.29
834.56	27000.42
834.74	26496.62
834.91	26693.22
835.09	26482.28
835.27	26883.69
835.44	26801.77
835.62	26072.69
835.80	26273.39
835.98	26316.40
836.15	26365.55
836.33	26470.00
836.51	26699.37
836.68	26265.20
836.86	26465.90
837.04	26281.58
837.21	26082.93
837.39	26183.28
837.57	26261.10
837.75	26658.41
837.92	25831.03
838.10	26164.85
838.28	25837.17
838.45	26011.25
838.63	26142.32
838.81	26005.11
838.98	25607.80
839.16	25542.27
839.34	25675.38
839.51	25470.59
839.69	25433.72
839.87	25507.45
840.04	25296.51
840.22	25331.33
840.40	25405.05
840.57	24944.26
840.75	25515.64
840.93	25005.70
841.10	25558.65
841.28	25554.55
841.46	25104.00
841.63	25489.02
841.81	25527.93
841.98	25122.43
842.16	24874.63
842.34	24919.68
842.51	25089.67
842.69	25054.85
842.87	25038.47
843.04	25288.32
843.22	24723.08
843.40	24862.34
843.57	24526.47
843.75	24706.70
843.92	24680.07
844.10	24759.94
844.28	24919.68
844.45	24518.28
844.63	24700.55
844.81	24708.74
844.98	24577.67
845.16	24516.23
845.33	24364.68
845.51	24518.28
845.69	24381.07
845.86	24493.71
846.04	23848.60
846.21	24202.89
846.39	24057.49
846.57	24041.11
846.74	23801.49
846.92	24006.29
847.09	24080.02
847.27	23778.97
847.45	24118.93
847.62	23940.75
847.80	23973.52
847.97	23821.97
848.15	23862.93
848.32	23598.74
848.50	23787.16
848.68	23559.83
848.85	23639.70
849.03	23314.08
849.20	23508.63
849.38	23740.05
849.56	23228.06
849.73	23359.13
849.91	23414.43
850.08	23856.79
850.26	23408.28
850.43	23293.60
850.61	23592.60
850.78	22963.87
850.96	23549.59
851.14	23123.62
851.31	23266.97
851.49	23176.86
851.66	23248.54
851.84	23023.26
852.01	23000.74
852.19	23070.37
852.36	23004.83
852.54	22996.64
852.71	23140.00
852.89	22732.45
853.07	22773.41
853.24	22677.16
853.42	22941.35
853.59	22965.92
853.77	22906.53
853.94	22806.18
854.12	23400.09
854.29	22574.76
854.47	22615.72
854.64	22783.65
854.82	22533.80
854.99	22681.25
855.17	22628.01
855.34	22232.75
855.52	22603.43
855.69	22462.12
855.87	22578.86
856.04	22255.28
856.22	22441.64
856.39	22120.11
856.57	22148.78
856.74	22224.56
856.92	22103.73
857.09	22226.60
857.27	22038.19
857.44	22269.61
857.62	21966.51
857.79	21927.60
857.97	22259.37
858.14	22118.06
858.32	21954.22
858.49	21882.55
858.67	21661.37
858.84	21880.50
859.02	21886.64
859.19	21747.38
859.37	21534.39
859.54	21601.97
859.72	21915.31
859.89	21640.89
860.06	21853.87
860.24	21411.51
860.41	21630.65
860.59	21505.72
860.76	21640.89
860.94	21427.90
861.11	21333.69
861.29	21601.97
861.46	21182.14
861.64	21026.50
861.81	20905.66
861.98	21040.83
862.16	21180.09
862.33	21053.12
862.51	20946.62
862.68	20987.58
862.86	20938.43
863.03	20924.10
863.21	20944.58
863.38	20809.41
863.55	20905.66
863.73	20922.05
863.90	20641.48
864.08	20698.82
864.25	20629.19
864.43	20924.10
864.60	20801.22
864.77	20555.46
864.95	20739.78
865.12	20637.38
865.30	20754.12
865.47	20625.09
865.64	20588.23
865.82	20543.17
865.99	20784.83
866.17	20440.78
866.34	20852.42
866.51	20164.30
866.69	20498.12
866.86	20541.13
867.04	20434.63
867.21	20231.88
867.38	19967.70
867.56	20068.05
867.73	20197.07
867.91	20096.72
868.08	19994.32
868.25	19844.82
868.43	19781.33
868.60	19979.98
868.78	19701.46
868.95	19986.13
869.12	19789.52
869.30	19922.64
869.47	19709.65
869.64	19709.65
869.82	19842.77
869.99	19711.70
870.16	19787.47
870.34	19502.81
870.51	19844.82
870.69	19508.95
870.86	19617.49
871.03	19730.13
871.21	19476.18
871.38	19508.95
871.55	19494.61
871.73	19187.42
871.90	19164.89
872.07	19109.60
872.25	19068.64
872.42	18869.98
872.59	19130.08
872.77	19302.11
872.94	19068.64
873.11	19113.69
873.29	19357.40
873.46	18984.67
873.63	18611.94
873.81	18740.96
873.98	18685.67
874.15	18611.94
874.33	18734.82
874.50	18593.51
874.67	18362.09
874.85	18726.63
875.02	18495.21
875.19	18513.64
875.37	18243.31
875.54	18278.12
875.71	18497.25
875.88	18415.34
876.06	18177.77
876.23	18388.71
876.40	18405.10
876.58	18058.99
876.75	18069.23
876.92	18071.28
877.10	18351.85
877.27	18069.23
877.44	17999.60
877.61	18024.17
877.79	18015.98
877.96	17569.52
878.13	18026.22
878.31	17673.97
878.48	17526.52
878.65	17223.42
878.82	17637.11
879.00	17780.46
879.17	17643.25
879.34	17708.79
879.51	17606.39
879.69	17356.54
879.86	17639.15
880.03	17501.94
880.21	17297.14
880.38	17567.48
880.55	17305.34
880.72	17061.63
880.90	17317.62
881.07	17229.56
881.24	17221.37
881.41	17268.47
881.59	17102.59
881.76	17274.62
881.93	17071.87
882.10	17147.64
882.28	17018.62
882.45	17184.51
882.62	16940.80
882.79	17221.37
882.96	16699.14
883.14	17002.24
883.31	17018.62
883.48	16998.14
883.65	16942.85
883.83	17051.39
884.00	16846.59
884.17	16809.73
884.34	16916.22
884.51	16920.32
884.69	16707.33
884.86	16768.77
885.03	16940.80
885.20	16848.64
885.38	16711.42
885.55	16731.90
885.72	16688.90
885.89	16471.81
886.06	16539.40
886.24	16373.51
886.41	16336.65
886.58	16805.63
886.75	16846.59
886.92	16183.05
887.10	16588.55
887.27	16369.41
887.44	16482.05
887.61	16848.64
887.78	16316.17
887.95	16520.96
888.13	16289.54
888.30	16340.74
888.47	16248.58
888.64	16197.38
888.81	16353.03
888.99	16004.88
889.16	16031.50
889.33	16021.26
889.50	16056.08
889.67	16121.61
889.84	15900.43
890.01	15781.65
890.19	15982.35
890.36	15894.29
890.53	15949.58
890.70	15892.24
890.87	15812.37
891.04	15734.54
891.22	15933.20
891.39	15736.59
891.56	15609.62
891.73	15679.25
891.90	15697.68
892.07	15406.87
892.24	15695.63
892.42	15699.73
892.59	15662.86
892.76	15310.61
892.93	15406.87
893.10	15421.20
893.27	15666.96
893.44	15271.70
893.61	15589.14
893.79	15533.84
893.96	15503.12
894.13	15449.88
894.30	15570.71
894.47	15423.25
894.64	15847.18
894.81	15388.44
894.98	15466.26
895.15	15327.00
895.33	15279.89
895.50	15296.28
895.67	15587.09
895.84	15253.27
896.01	15320.85
896.18	15181.59
896.35	15363.86
896.52	15052.57
896.69	15134.49
896.86	15404.82
897.04	15413.01
897.21	15257.37
897.38	15089.43
897.55	15148.82
897.72	15173.40
897.89	15353.62
898.06	15204.12
898.23	15068.95
898.40	15298.33
898.57	15335.19
898.74	15081.24
898.91	15210.26
899.08	15191.83
899.26	15310.61
899.43	15296.28
899.60	15111.96
899.77	15107.87
899.94	15050.52
900.11	15097.63
900.28	14978.84
900.45	15148.82
900.62	15320.85
900.79	15075.10
900.96	15238.94
901.13	15048.47
901.30	14946.08
901.47	14892.83
901.64	15060.76
901.81	15085.34
901.98	15068.95
902.15	15148.82
902.32	15075.10
902.49	15179.54
902.66	15011.61
902.83	14944.03
903.01	14917.40
903.18	15253.27
903.35	15281.94
903.52	15142.68
903.69	15206.17
903.86	15302.42
904.03	14941.98
904.20	15245.08
904.37	15132.44
904.54	15314.71
904.71	14917.40
904.88	14966.56
905.05	14847.77
905.22	15206.17
905.39	15038.23
905.56	15034.14
905.73	15005.47
905.90	15124.25
906.07	15107.87
906.24	15247.13
906.41	15013.66
906.58	15066.91
906.75	15023.90
906.92	15064.86
907.09	14855.97
907.26	15011.61
907.43	14821.15
907.60	15111.96
907.77	14982.94
907.93	15130.39
908.10	14946.08
908.27	15013.66
908.44	15025.95
908.61	14745.38
908.78	14853.92
908.95	15019.80
909.12	14532.39
909.29	14888.73
909.46	14855.97
909.63	15142.68
909.80	14925.60
909.97	14833.44
910.14	14903.07
910.31	15001.37
910.48	15011.61
910.65	14806.81
910.82	14683.94
910.99	14812.96
911.16	14710.56
911.33	14858.01
911.50	14847.77
911.66	14782.24
911.83	14804.77
912.00	14767.90
912.17	14685.98
912.34	14681.89
912.51	14552.87
912.68	14538.53
912.85	14710.56
913.02	14745.38
913.19	14384.93
913.36	14577.44
913.53	14542.63
913.70	14266.15
913.86	14456.61
914.03	14409.51
914.20	14298.92
914.37	14239.53
914.54	14382.88
914.71	14257.96
914.88	14425.89
915.05	14059.31
915.22	14296.87
915.39	14393.12
915.55	14208.81
915.72	14087.98
915.89	13989.67
916.06	13791.02
916.23	14028.59
916.40	13748.01
916.57	13823.79
916.74	13922.09
916.91	13803.31
917.07	13778.73
917.24	13836.08
917.41	13647.66
917.58	13897.52
917.75	13737.77
917.92	13498.16
918.09	13782.83
918.26	13420.34
918.42	13524.79
918.59	13465.39
918.76	13383.48
918.93	13319.99
919.10	13248.31
919.27	13465.39
919.44	13360.95
919.60	13596.46
919.77	13393.72
919.94	13090.62
920.11	13231.93
920.28	13180.73
920.45	13020.99
920.61	13274.93
920.78	13121.34
920.95	13086.52
921.12	12961.59
921.29	13025.08
921.46	12920.63
921.62	12502.85
921.79	12879.68
921.96	12764.99
922.13	12689.21
922.30	12369.73
922.47	12898.11
922.63	12681.02
922.80	12861.24
922.97	12574.53
923.14	12511.04
923.31	12599.10
923.47	12476.23
923.64	12500.80
923.81	12216.13
923.98	12416.83
924.15	12234.57
924.32	12246.85
924.48	12072.78
924.65	12248.90
924.82	12060.49
924.99	11904.84
925.15	11755.34
925.32	12013.38
925.49	11732.81
925.66	11814.73
925.83	11913.03
925.99	11913.03
926.16	11849.55
926.33	11800.40
926.50	11552.59
926.67	11628.37
926.83	11540.30
927.00	11599.70
927.17	11517.78
927.34	11407.19
927.50	11450.19
927.67	11466.58
927.84	11280.21
928.01	11222.87
928.17	11341.65
928.34	11245.40
928.51	11067.22
928.68	11218.77
928.84	11241.30
929.01	10962.78
929.18	10725.21
929.35	10762.08
929.51	10889.05
929.68	10651.49
929.85	10788.70
930.02	10608.48
930.18	10727.26
930.35	10674.01
930.52	10678.11
930.69	10479.46
930.85	10420.06
931.02	10463.07
931.19	10413.92
931.36	10413.92
931.52	10418.02
931.69	10481.50
931.86	10276.71
932.02	10329.95
932.19	10129.25
932.36	9987.94
932.53	9903.98
932.69	9963.37
932.86	10086.25
933.03	9811.82
933.19	9981.80
933.36	10125.16
933.53	9965.42
933.70	9697.13
933.86	9514.86
934.03	9617.26
934.20	9480.05
934.36	9699.18
934.53	9305.97
934.70	9328.50
934.86	9398.13
935.03	9168.76
935.20	9215.86
935.36	9125.75
935.53	9088.89
935.70	9213.81
935.86	9021.30
936.03	8800.12
936.20	8750.97
936.36	8667.00
936.53	8521.60
936.70	8605.56
936.86	8681.34
937.03	8515.45
937.20	8286.08
937.36	8396.67
937.53	8083.33
937.70	8146.82
937.86	7993.22
938.03	7946.12
938.20	8040.33
938.36	7843.72
938.53	7731.08
938.70	7649.16
938.86	7595.92
939.03	7643.02
939.20	7366.54
939.36	7352.21
939.53	7296.91
939.70	7626.64
939.86	7088.02
940.03	6991.77
940.19	7049.11
940.36	6809.50
940.53	6893.46
940.69	6666.14
940.86	6766.49
941.03	6602.65
941.19	6457.25
941.36	6451.10
941.52	6438.81
941.69	6270.88
941.86	6414.24
942.02	6420.38
942.19	6311.84
942.35	6121.38
942.52	6248.35
942.69	6086.56
942.85	6158.24
943.02	6045.60
943.18	6039.46
943.35	5967.78
943.52	5816.23
943.68	5771.18
943.85	5719.98
944.01	5705.64
944.18	5685.16
944.35	5603.24
944.51	5560.24
944.68	5529.52
944.84	5556.14
945.01	5527.47
945.17	5535.66
945.34	5590.95
945.51	5654.44
945.67	5580.71
945.84	5433.26
946.00	5478.32
946.17	5599.15
946.33	5427.12
946.50	5423.02
946.67	5578.67
946.83	5535.66
947.00	5412.78
947.16	5478.32
947.33	5404.59
947.49	5343.15
947.66	5443.50
947.82	5502.89
947.99	5316.53
948.16	5463.98
948.32	5398.45
948.49	5410.73
948.65	5449.64
948.82	5322.67
948.98	5431.21
949.15	5277.62
949.31	5373.87
949.48	5373.87
949.64	5461.93
949.81	5334.96
949.97	5275.57
950.14	5433.26
950.30	5224.37
950.47	5550.00
950.63	5570.48
950.80	5470.12
950.96	5380.01
951.13	5466.03
951.30	5328.81
951.46	5603.24
951.63	5543.85
951.79	5412.78
951.96	5521.32
952.12	5599.15
952.29	5521.32
952.45	5535.66
952.62	5435.31
952.78	5484.46
952.94	5351.34
953.11	5474.22
953.27	5382.06
953.44	5525.42
953.60	5513.13
953.77	5541.80
953.93	5609.39
954.10	5525.42
954.26	5388.21
954.43	5406.64
954.59	5607.34
954.76	5636.01
954.92	5545.90
955.09	5506.99
955.25	5572.52
955.42	5601.19
955.58	5646.25
955.75	5623.72
955.91	5550.00
956.07	5691.31
956.24	5455.79
956.40	5623.72
956.57	5582.76
956.73	5531.56
956.90	5625.77
957.06	5347.25
957.23	5570.48
957.39	5504.94
957.56	5619.63
957.72	5472.17
957.88	5588.91
958.05	5572.52
958.21	5693.35
958.38	5502.89
958.54	5492.65
958.71	5623.72
958.87	5588.91
959.03	5582.76
959.20	5588.91
959.36	5541.80
959.53	5615.53
959.69	5447.60
959.85	5687.21
960.02	5406.64
960.18	5666.73
960.35	5580.71
960.51	5611.43
960.68	5576.62
960.84	5627.82
961.00	5509.04
961.17	5611.43
961.33	5566.38
961.50	5574.57
961.66	5697.45
961.82	5652.39
961.99	5570.48
962.15	5648.30
962.31	5457.84
962.48	5531.56
962.64	5478.32
962.81	5545.90
962.97	5476.27
963.13	5568.43
963.30	5584.81
963.46	5590.95
963.62	5638.06
963.79	5453.74
963.95	5463.98
964.12	5484.46
964.28	5533.61
964.44	5476.27
964.61	5617.58
964.77	5498.80
964.93	5556.14
965.10	5543.85
965.26	5425.07
965.42	5322.67
965.59	5494.70
965.75	5418.93
965.92	5480.36
966.08	5435.31
966.24	5523.37
966.41	5363.63
966.57	5423.02
966.73	5515.18
966.90	5541.80
967.06	5525.42
967.22	5310.38
967.39	5328.81
967.55	5443.50
967.71	5339.05
967.88	5318.57
968.04	5427.12
968.20	5357.49
968.37	5337.01
968.53	5271.47
968.69	5463.98
968.85	5406.64
969.02	5337.01
969.18	5263.28
969.34	5152.69
969.51	5300.14
969.67	5285.81
969.83	5148.59
970.00	5275.57
970.16	5140.40
970.32	5283.76
970.48	5294.00
970.65	5126.07
970.81	5091.25
970.97	5156.79
971.14	5113.78
971.30	5277.62
971.46	5267.38
971.63	4968.37
971.79	5332.91
971.95	5160.88
972.11	5124.02
972.28	5040.05
972.44	5173.17
972.60	5038.00
972.76	5087.15
972.93	4990.90
973.09	5097.39
973.25	5083.06
973.42	5095.35
973.58	5048.24
973.74	5124.02
973.90	4927.41
974.07	5003.19
974.23	4784.06
974.39	5150.64
974.55	4927.41
974.72	4949.94
974.88	4870.07
975.04	4915.12
975.20	4798.39
975.37	4945.84
975.53	4949.94
975.69	5009.33
975.85	4904.89
976.01	4743.10
976.18	4982.71
976.34	4857.78
976.50	4908.98
976.66	4913.08
976.83	4716.47
976.99	4730.81
977.15	4777.91
977.31	4755.38
977.47	4822.97
977.64	4822.97
977.80	4734.90
977.96	4722.62
978.12	4816.82
978.29	4706.23
978.45	4581.31
978.61	4657.08
978.77	4810.68
978.93	4497.34
979.10	4767.67
979.26	4599.74
979.42	4661.18
979.58	4628.41
979.74	4595.64
979.91	4622.27
980.07	4548.54
980.23	4534.20
980.39	4534.20
980.55	4630.46
980.71	4589.50
980.88	4448.19
981.04	4548.54
981.20	4483.00
981.36	4593.59
981.52	4538.30
981.68	4425.66
981.85	4513.72
982.01	4536.25
982.17	4374.46
982.33	4339.65
982.49	4485.05
982.65	4407.23
982.82	4302.78
982.98	4536.25
983.14	4288.45
983.30	4503.48
983.46	4435.90
983.62	4372.41
983.79	4417.47
983.95	4368.32
984.11	4272.06
984.27	4304.83
984.43	4296.64
984.59	4343.74
984.75	4284.35
984.91	4333.50
985.08	4437.95
985.24	4288.45
985.40	4255.68
985.56	4114.37
985.72	4202.43
985.88	4229.06
986.04	4192.19
986.20	4200.38
986.37	4216.77
986.53	4097.99
986.69	4247.49
986.85	4157.38
987.01	4218.82
987.17	4218.82
987.33	4308.93
987.49	4073.41
987.65	4208.58
987.82	4063.17
987.98	3987.40
988.14	3979.20
988.30	4073.41
988.46	3995.59
988.62	4138.94
988.78	3938.24
988.94	4003.78
989.10	3903.43
989.26	3997.64
989.42	3962.82
989.59	3868.61
989.75	3813.32
989.91	3971.01
990.07	3921.86
990.23	3811.27
990.39	3985.35
990.55	4007.87
990.71	3690.44
990.87	4007.87
991.03	3919.81
991.19	3788.74
991.35	3909.57
991.51	3786.69
991.67	3874.76
991.83	3837.89
992.00	3833.80
992.16	3895.24
992.32	3721.16
992.48	3786.69
992.64	3622.86
992.80	3815.37
992.96	3688.39
993.12	3758.02
993.28	3698.63
993.44	3772.36
993.60	3747.78
993.76	3794.89
993.92	3684.30
994.08	3815.37
994.24	3743.69
994.40	3600.33
994.56	3710.92
994.72	3606.47
994.88	3641.29
995.04	3680.20
995.20	3592.14
995.36	3534.79
995.52	3624.90
995.68	3696.58
995.84	3612.62
996.00	3739.59
996.16	3655.62
996.32	3542.99
996.48	3499.98
996.64	3712.97
996.80	3499.98
996.96	3512.27
997.12	3510.22
997.28	3436.49
997.44	3631.05
997.60	3504.07
997.76	3459.02
997.92	3526.60
998.08	3532.75
998.24	3350.48
998.40	3360.72
998.56	3557.32
998.72	3444.68
998.88	3530.70
999.04	3387.34
999.20	3420.11
999.36	3393.48
999.52	3465.16
999.68	3424.20
999.84	3409.87
1000.00	3381.20
1000.16	3416.01
1000.32	3280.85
1000.48	3387.34
1000.64	3170.26
1000.80	3278.80
1000.95	3262.41
1001.11	3278.80
1001.27	3256.27
1001.43	3356.62
1001.59	3200.98
1001.75	3252.17
1001.91	3194.83
1002.07	3196.88
1002.23	3141.58
1002.39	3186.64
1002.55	3129.30
1002.71	3162.06
1002.87	3200.98
1003.03	3096.53
1003.19	3237.84
1003.34	3211.22
1003.50	3137.49
1003.66	3192.78
1003.82	3194.83
1003.98	3098.58
1004.14	3082.19
1004.30	3039.19
1004.46	3030.99
1004.62	3065.81
1004.78	3119.06
1004.94	3076.05
1005.09	3114.96
1005.25	3051.47
1005.41	3061.71
1005.57	3016.66
1005.73	3067.86
1005.89	3030.99
1006.05	2996.18
1006.21	3039.19
1006.37	3026.90
1006.52	3022.80
1006.68	2916.31
1006.84	3071.95
1007.00	2912.21
1007.16	2957.27
1007.32	2990.03
1007.48	2949.08
1007.64	2924.50
1007.79	2973.65
1007.95	2836.44
1008.11	3018.71
1008.27	2944.98
1008.43	2818.00
1008.59	2850.77
1008.75	2949.08
1008.91	2981.84
1009.06	2936.79
1009.22	2930.64
1009.38	2975.70
1009.54	2914.26
1009.70	2865.11
1009.86	2873.30
1010.01	2897.88
1010.17	2717.65
1010.33	2938.84
1010.49	2738.13
1010.65	2899.92
1010.81	2783.19
1010.96	2660.31
1011.12	2688.98
1011.28	2703.32
1011.44	2746.33
1011.60	2717.65
1011.76	2758.61
1011.91	2885.59
1012.07	2617.30
1012.23	2564.06
1012.39	2686.94
1012.55	2725.85
1012.71	2639.83
1012.86	2682.84
1013.02	2580.44
1013.18	2678.74
1013.34	2719.70
1013.50	2731.99
1013.65	2734.04
1013.81	2607.06
1013.97	2643.93
1014.13	2715.61
1014.29	2584.54
1014.44	2674.65
1014.60	2588.63
1014.76	2590.68
1014.92	2584.54
1015.07	2559.96
1015.23	2713.56
1015.39	2547.67
1015.55	2521.05
1015.71	2543.58
1015.86	2516.95
1016.02	2609.11
1016.18	2510.81
1016.34	2559.96
1016.49	2586.58
1016.65	2635.74
1016.81	2510.81
1016.97	2516.95
1017.12	2600.92
1017.28	2486.23
1017.44	2492.38
1017.60	2600.92
1017.75	2471.90
1017.91	2535.39
1018.07	2494.43
1018.23	2502.62
1018.38	2441.18
1018.54	2498.52
1018.70	2490.33
1018.86	2412.51
1019.01	2494.43
1019.17	2508.76
1019.33	2576.34
1019.49	2400.22
1019.64	2512.86
1019.80	2432.99
1019.96	2494.43
1020.12	2447.32
1020.27	2387.93
1020.43	2367.45
1020.59	2408.41
1020.74	2408.41
1020.90	2531.29
1021.06	2295.77
1021.22	2344.92
1021.37	2379.74
1021.53	2230.24
1021.69	2349.02
1021.84	2295.77
1022.00	2297.82
1022.16	2330.59
1022.31	2297.82
1022.47	2373.60
1022.63	2418.65
1022.79	2295.77
1022.94	2316.25
1023.10	2355.16
1023.26	2203.61
1023.41	2287.58
1023.57	2183.13
1023.73	2306.01
1023.88	2269.15
1024.04	2217.95
1024.20	2189.28
1024.35	2320.35
1024.51	2281.44
1024.67	2322.40
1024.82	2275.29
1024.98	2248.67
1025.14	2289.63
1025.29	2222.05
1025.45	2293.72
1025.61	2250.72
1025.76	2195.42
1025.92	2215.90
1026.08	2371.55
1026.23	2230.24
1026.39	2226.14
1026.55	2260.96
1026.70	2150.37
1026.86	2211.81
1027.02	2244.57
1027.17	2238.43
1027.33	2267.10
1027.48	2205.66
1027.64	2140.13
1027.80	2201.57
1027.95	2179.04
1028.11	2076.64
1028.27	2142.18
1028.42	2232.29
1028.58	2142.18
1028.73	2103.26
1028.89	2064.35
1029.05	2099.17
1029.20	2125.79
>>>>>End Processed Spectral Data<<<<<
