SpectraSuite Data File
++++++++++++++++++++++++++++++++++++
Date: Fri Jun 02 14:52:27 CEST 2017
User: INFO_000
Dark Spectrum Present: No
Reference Spectrum Present: No
Number of Sampled Component Spectra: 1
Spectrometers: USB4H00879
Integration Time (usec): 80000 (USB4H00879)
Spectra Averaged: 1 (USB4H00879)
Boxcar Smoothing: 0 (USB4H00879)
Correct for Electrical Dark: No (USB4H00879)
Strobe/Lamp Enabled: No (USB4H00879)
Correct for Detector Non-linearity: No (USB4H00879)
Correct for Stray Light: No (USB4H00879)
Number of Pixels in Processed Spectrum: 3648
>>>>>Begin Processed Spectral Data<<<<<
345.13	1271.79
345.34	1271.79
345.56	1271.79
345.78	1292.27
345.99	1290.22
346.21	1712.10
346.42	1675.24
346.64	1628.14
346.86	1800.16
347.07	1732.58
347.29	1777.64
347.50	1556.46
347.72	1708.01
347.94	1834.98
348.15	1564.65
348.37	1646.57
348.59	1791.97
348.80	1621.99
349.02	1814.50
349.23	1857.51
349.45	1824.74
349.67	1863.65
349.88	1832.93
350.10	1892.32
350.31	1859.56
350.53	1783.78
350.75	1902.56
350.96	1736.68
351.18	1787.88
351.39	1855.46
351.61	1759.21
351.82	1873.89
352.04	1914.85
352.26	1832.93
352.47	1914.85
352.69	1920.99
352.90	1777.64
353.12	1920.99
353.34	1843.17
353.55	1861.60
353.77	1976.29
353.98	1869.80
354.20	1769.44
354.41	1937.38
354.63	1984.48
354.85	2056.16
355.06	1841.12
355.28	1787.88
355.49	1857.51
355.71	1886.18
355.92	1789.92
356.14	2019.30
356.35	1875.94
356.57	1943.52
356.79	1990.63
357.00	1853.41
357.22	1974.24
357.43	1767.40
357.65	1957.86
357.86	1914.85
358.08	1937.38
358.29	1970.15
358.51	1941.47
358.72	2007.01
358.94	1898.47
359.16	1908.71
359.37	1947.62
359.59	1937.38
359.80	1990.63
360.02	1982.43
360.23	1953.76
360.45	2045.92
360.66	1935.33
360.88	1806.31
361.09	1871.84
361.31	1970.15
361.52	1994.72
361.74	2007.01
361.95	2156.51
362.17	1929.19
362.38	2084.83
362.60	2056.16
362.81	1972.19
363.03	2002.91
363.24	2019.30
363.46	2066.40
363.67	2047.97
363.89	1976.29
364.10	1959.91
364.32	1964.00
364.53	2015.20
364.75	1914.85
364.96	2058.21
365.18	2047.97
365.39	2080.74
365.61	2002.91
365.82	2160.61
366.04	1988.58
366.25	2045.92
366.47	2123.74
366.68	2074.59
366.90	1992.67
367.11	2050.02
367.33	2086.88
367.54	2125.79
367.76	2060.26
367.97	2060.26
368.19	2095.07
368.40	2090.98
368.62	1953.76
368.83	1970.15
369.05	2056.16
369.26	2017.25
369.48	1994.72
369.69	2060.26
369.91	2064.35
370.12	2105.31
370.33	2084.83
370.55	1939.43
370.76	1941.47
370.98	2119.65
371.19	2076.64
371.41	2035.68
371.62	2023.39
371.84	1978.34
372.05	2197.47
372.27	2070.50
372.48	2119.65
372.69	2093.02
372.91	2232.29
373.12	2201.57
373.34	2109.41
373.55	2154.46
373.77	2156.51
373.98	2054.11
374.20	2191.33
374.41	2281.44
374.62	2123.74
374.84	2086.88
375.05	2138.08
375.27	2156.51
375.48	2160.61
375.70	2185.18
375.91	2209.76
376.12	2308.06
376.34	2156.51
376.55	2222.05
376.77	2222.05
376.98	2170.85
377.19	2133.98
377.41	2164.70
377.62	2228.19
377.84	2240.48
378.05	2279.39
378.27	2275.29
378.48	2277.34
378.69	2392.03
378.91	2332.64
379.12	2273.25
379.34	2222.05
379.55	2234.33
379.76	2349.02
379.98	2299.87
380.19	2306.01
380.41	2236.38
380.62	2260.96
380.83	2238.43
381.05	2203.61
381.26	2379.74
381.47	2324.44
381.69	2281.44
381.90	2389.98
382.12	2283.49
382.33	2316.25
382.54	2312.16
382.76	2361.31
382.97	2238.43
383.19	2314.20
383.40	2469.85
383.61	2316.25
383.83	2297.82
384.04	2353.12
384.25	2373.60
384.47	2486.23
384.68	2269.15
384.89	2263.01
385.11	2359.26
385.32	2357.21
385.54	2377.69
385.75	2363.36
385.96	2402.27
386.18	2385.88
386.39	2480.09
386.60	2426.84
386.82	2455.51
387.03	2400.22
387.24	2447.32
387.46	2549.72
387.67	2473.95
387.88	2529.24
388.10	2572.25
388.31	2506.71
388.52	2605.02
388.74	2525.15
388.95	2512.86
389.16	2598.87
389.38	2519.00
389.59	2666.46
389.80	2639.83
390.02	2553.82
390.23	2688.98
390.44	2516.95
390.66	2588.63
390.87	2537.43
391.08	2686.94
391.30	2775.00
391.51	2654.17
391.72	2758.61
391.94	2740.18
392.15	2643.93
392.36	2731.99
392.58	2627.54
392.79	2727.89
393.00	2820.05
393.22	2760.66
393.43	2791.38
393.64	2813.91
393.85	2949.08
394.07	2731.99
394.28	2693.08
394.49	2838.48
394.71	2762.71
394.92	2869.20
395.13	2760.66
395.35	2744.28
395.56	2701.27
395.77	2844.63
395.98	2805.72
396.20	2932.69
396.41	2887.64
396.62	2985.94
396.84	2879.44
397.05	2854.87
397.26	2930.64
397.47	2979.79
397.69	2815.96
397.90	3098.58
398.11	2920.40
398.32	2977.75
398.54	2940.88
398.75	2889.68
398.96	2981.84
399.18	3119.06
399.39	3014.61
399.60	2987.99
399.81	2959.31
400.03	3039.19
400.24	3307.47
400.45	2973.65
400.66	3133.39
400.88	3180.50
401.09	3270.61
401.30	3254.22
401.51	3198.93
401.73	3166.16
401.94	3180.50
402.15	3194.83
402.36	3205.07
402.58	3260.37
402.79	3229.65
403.00	3194.83
403.21	3256.27
403.43	3266.51
403.64	3303.37
403.85	3295.18
404.06	3350.48
404.27	3289.04
404.49	3123.15
404.70	3207.12
404.91	3284.94
405.12	3315.66
405.34	3250.13
405.55	3506.12
405.76	3096.53
405.97	3209.17
406.19	3403.72
406.40	3194.83
406.61	3364.81
406.82	3391.44
407.03	3434.44
407.25	3362.76
407.46	3426.25
407.67	3481.55
407.88	3520.46
408.09	3452.88
408.31	3401.68
408.52	3428.30
408.73	3286.99
408.94	3375.05
409.15	3461.07
409.37	3497.93
409.58	3448.78
409.79	3516.36
410.00	3557.32
410.21	3491.79
410.43	3608.52
410.64	3524.55
410.85	3532.75
411.06	3524.55
411.27	3542.99
411.48	3680.20
411.70	3647.43
411.91	3622.86
412.12	3702.73
412.33	3583.95
412.54	3485.64
412.76	3708.87
412.97	3555.27
413.18	3542.99
413.39	3637.19
413.60	3758.02
413.81	3669.96
414.03	3561.42
414.24	3665.86
414.45	3784.65
414.66	3696.58
414.87	3678.15
415.08	3766.21
415.30	3786.69
415.51	3841.99
415.72	3688.39
415.93	3696.58
416.14	3786.69
416.35	3721.16
416.56	3891.14
416.78	3819.46
416.99	3866.56
417.20	3889.09
417.41	3858.37
417.62	3885.00
417.83	3852.23
418.04	3854.28
418.26	3930.05
418.47	3993.54
418.68	4028.35
418.89	4032.45
419.10	4231.10
419.31	4001.73
419.52	4106.18
419.73	4032.45
419.95	4081.60
420.16	4040.64
420.37	3950.53
420.58	4087.75
420.79	3932.10
421.00	4097.99
421.21	4140.99
421.42	4122.56
421.63	4077.51
421.85	4077.51
422.06	4206.53
422.27	4169.66
422.48	4251.58
422.69	4296.64
422.90	4200.38
423.11	4329.41
423.32	4360.13
423.53	4415.42
423.75	4376.51
423.96	4407.23
424.17	4478.91
424.38	4628.41
424.59	4521.92
424.80	4609.98
425.01	4419.52
425.22	4437.95
425.43	4454.33
425.64	4693.94
425.85	4763.58
426.06	4685.75
426.28	4628.41
426.49	4566.97
426.70	4532.15
426.91	4767.67
427.12	4739.00
427.33	4718.52
427.54	4710.33
427.75	4810.68
427.96	4800.44
428.17	4892.60
428.38	4898.74
428.59	5033.91
428.80	4943.80
429.01	5042.10
429.23	4951.99
429.44	5068.72
429.65	5052.34
429.86	4935.60
430.07	5029.81
430.28	4886.45
430.49	4988.85
430.70	5130.16
430.91	5164.98
431.12	5281.71
431.33	5269.42
431.54	5158.83
431.75	5429.17
431.96	5222.32
432.17	5218.22
432.38	5302.19
432.59	5564.33
432.80	5343.15
433.01	5380.01
433.22	5410.73
433.43	5478.32
433.64	5515.18
433.85	5443.50
434.06	5552.04
434.27	5404.59
434.49	5726.12
434.70	5719.98
434.91	5676.97
435.12	5808.04
435.33	5648.30
435.54	5654.44
435.75	5459.88
435.96	5652.39
436.17	5533.61
436.38	5732.26
436.59	5838.76
436.80	5623.72
437.01	6012.84
437.22	6076.32
437.43	5795.75
437.64	5736.36
437.85	5932.97
438.06	5975.97
438.27	5859.24
438.48	5947.30
438.69	6119.33
438.90	6049.70
439.11	5975.97
439.32	6035.36
439.53	6029.22
439.74	6160.29
439.95	6107.04
440.16	6051.75
440.37	5951.40
440.57	6029.22
440.78	6107.04
440.99	6344.61
441.20	6227.87
441.41	6109.09
441.62	6311.84
441.83	5988.26
442.04	6383.52
442.25	6277.02
442.46	6207.39
442.67	6297.50
442.88	6733.72
443.09	6047.65
443.30	6367.13
443.51	6360.99
443.72	6602.65
443.93	6238.11
444.14	6592.41
444.35	6285.22
444.56	6395.81
444.77	6651.80
444.98	6500.25
445.19	6606.75
445.40	6573.98
445.61	6463.39
445.81	6614.94
446.02	6610.84
446.23	6578.08
446.44	6659.99
446.65	6717.34
446.86	6692.76
447.07	6725.53
447.28	6928.28
447.49	6807.45
447.70	6688.67
447.91	6897.56
448.12	6676.38
448.33	6852.50
448.54	6836.12
448.74	6686.62
448.95	6995.86
449.16	6682.52
449.37	7026.58
449.58	6909.85
449.79	7145.36
450.00	6897.56
450.21	7106.45
450.42	7073.68
450.63	7126.93
450.84	6979.48
451.05	7069.59
451.25	7073.68
451.46	7081.88
451.67	7206.80
451.88	7298.96
452.09	7225.23
452.30	7075.73
452.51	7331.73
452.72	7268.24
452.93	7624.59
453.13	7387.02
453.34	7274.38
453.55	7288.72
453.76	7262.10
453.97	7804.81
454.18	7403.41
454.39	7423.89
454.60	7528.33
454.81	7464.85
455.01	7620.49
455.22	7427.98
455.43	7587.72
455.64	7794.57
455.85	7878.54
456.06	8015.75
456.27	7761.80
456.48	7837.58
456.68	7851.91
456.89	7917.45
457.10	8005.51
457.31	7985.03
457.52	7860.10
457.73	8191.88
457.94	8251.27
458.14	7968.65
458.35	8331.14
458.56	8181.64
458.77	8275.84
458.98	8421.25
459.19	8456.06
459.39	8449.92
459.60	8425.34
459.81	8458.11
460.02	8613.76
460.23	8503.17
460.44	8671.10
460.65	8859.51
460.85	8718.20
461.06	8789.88
461.27	8546.17
461.48	8955.77
461.69	9037.69
461.89	8626.04
462.10	8941.43
462.31	8695.68
462.52	8873.85
462.73	8941.43
462.94	9228.15
463.14	9271.15
463.35	9082.74
463.56	9506.67
463.77	9496.43
463.98	9236.34
464.18	9308.02
464.39	9422.70
464.60	9650.03
464.81	9686.89
465.02	9541.49
465.23	9817.96
465.43	9705.32
465.64	10020.71
465.85	9740.14
466.06	9625.45
466.27	10157.92
466.47	10037.09
466.68	10014.57
466.89	9920.36
467.10	10301.28
467.30	9887.59
467.51	10344.29
467.72	10628.96
467.93	10293.09
468.14	10372.96
468.34	10491.74
468.55	10557.28
468.76	10606.43
468.97	10479.46
469.17	10708.83
469.38	10778.46
469.59	10899.29
469.80	10913.63
470.01	10942.30
470.21	10930.01
470.42	11202.39
470.63	11233.11
470.84	11093.85
471.04	11439.95
471.25	11577.17
471.46	11265.88
471.67	11886.41
471.87	11523.92
472.08	11886.41
472.29	11988.81
472.50	11827.02
472.70	11953.99
472.91	11951.95
473.12	12246.85
473.33	12265.28
473.53	12388.16
473.74	12298.05
473.95	12523.33
474.16	12844.86
474.36	12691.26
474.57	12848.96
474.78	12928.83
474.99	12764.99
475.19	12556.10
475.40	13100.86
475.61	13125.43
475.81	13264.69
476.02	13498.16
476.23	13328.18
476.44	13594.42
476.64	13721.39
476.85	14085.93
477.06	13909.80
477.27	14059.31
477.47	14206.76
477.68	14161.70
477.89	14434.08
478.09	14214.95
478.30	14563.11
478.51	14561.06
478.71	14518.05
478.92	14569.25
479.13	14896.92
479.34	14755.61
479.54	14987.04
479.75	15073.05
479.96	15148.82
480.16	15347.48
480.37	15261.46
480.58	15425.30
480.78	15859.47
480.99	15677.20
481.20	15978.25
481.41	15994.64
481.61	16097.03
481.82	16236.30
482.03	16416.52
482.23	16078.60
482.44	16451.33
482.65	16621.31
482.85	16707.33
483.06	16559.88
483.27	17035.00
483.47	16903.93
483.68	16918.27
483.89	17506.04
484.09	17069.82
484.30	17127.16
484.51	17344.25
484.71	17565.43
484.92	17684.21
485.13	17655.54
485.33	18056.94
485.54	17841.90
485.75	17999.60
485.95	18192.11
486.16	18183.91
486.37	18364.14
486.57	18255.59
486.78	18345.70
486.98	18468.58
487.19	18753.25
487.40	18538.21
487.60	18607.84
487.81	19394.26
488.02	18900.70
488.22	18763.49
488.43	19281.63
488.64	19156.70
488.84	19355.35
489.05	19644.12
489.25	19564.25
489.46	19736.27
489.67	19615.44
489.87	19877.58
490.08	19873.49
490.29	19957.46
490.49	20227.79
490.70	20301.51
490.90	20571.85
491.11	20219.60
491.32	20399.82
491.52	20504.26
491.73	20547.27
491.94	20397.77
492.14	20528.84
492.35	20852.42
492.55	20893.38
492.76	20999.87
492.97	21202.62
493.17	21063.36
493.38	21173.95
493.58	21458.62
493.79	21431.99
494.00	21360.31
494.20	21608.12
494.41	21704.37
494.61	21966.51
494.82	21782.20
495.02	21872.31
495.23	22113.97
495.44	22191.79
495.64	22173.36
495.85	22300.33
496.05	22081.20
496.26	22318.76
496.47	22425.26
496.67	22648.49
496.88	22785.70
497.08	22320.81
497.29	22709.93
497.49	22943.39
497.70	23013.02
497.91	23197.34
498.11	23283.36
498.32	23115.42
498.52	23277.21
498.73	23404.19
498.93	23359.13
499.14	23228.06
499.34	23439.00
499.55	23516.83
499.76	23322.27
499.96	23500.44
500.17	23717.53
500.37	23731.86
500.58	23776.92
500.78	24151.70
500.99	23957.14
501.19	24319.63
501.40	24037.01
501.60	24024.72
501.81	24317.58
502.02	24112.78
502.22	24260.24
502.43	24370.83
502.63	24749.70
502.84	24483.47
503.04	24673.93
503.25	24575.62
503.45	24553.10
503.66	24778.37
503.86	24708.74
504.07	24831.62
504.27	24381.07
504.48	25271.93
504.68	24913.54
504.89	25302.65
505.09	25216.64
505.30	25157.25
505.50	25357.95
505.71	25497.21
505.91	25818.74
506.12	25476.73
506.32	25357.95
506.53	25562.75
506.73	25544.31
506.94	25759.35
507.14	25552.51
507.35	25663.10
507.55	25615.99
507.76	26056.31
507.96	26152.56
508.17	25828.98
508.37	25867.89
508.58	25863.80
508.78	26058.35
508.99	26257.01
509.19	26252.91
509.40	26148.46
509.60	26230.38
509.81	26009.20
510.01	26324.59
510.22	26314.35
510.42	26467.95
510.63	26414.70
510.83	26396.27
511.04	26443.37
511.24	26590.83
511.44	26637.93
511.65	26924.65
511.85	26752.62
512.06	26787.43
512.26	26945.12
512.47	27041.38
512.67	27145.83
512.88	27059.81
513.08	26789.48
513.29	27430.49
513.49	27262.56
513.69	27108.96
513.90	27436.64
514.10	27383.39
514.31	27141.73
514.51	27721.30
514.72	27645.53
514.92	27326.05
515.13	27317.86
515.33	27651.67
515.53	27465.31
515.74	27600.47
515.94	27795.03
516.15	27885.14
516.35	27774.55
516.56	27778.65
516.76	27682.39
516.96	27856.47
517.17	28225.11
517.37	28010.07
517.58	27915.86
517.78	28077.65
517.99	28300.88
518.19	28429.90
518.39	28532.30
518.60	28542.54
518.80	28569.16
519.01	28823.11
519.21	28526.16
519.41	28436.05
519.62	28829.26
519.82	28999.24
520.03	29105.73
520.23	28919.37
520.43	28884.55
520.64	29290.05
520.84	29294.14
521.05	29267.52
521.25	29310.53
521.45	29443.65
521.66	29564.48
521.86	29517.37
522.07	29464.13
522.27	29705.79
522.47	29767.23
522.68	30252.59
522.88	29855.29
523.08	30185.01
523.29	29912.63
523.49	30037.56
523.70	30412.34
523.90	30352.94
524.10	30023.22
524.31	30862.89
524.51	30641.71
524.71	31026.73
524.92	30844.46
525.12	31008.29
525.33	30764.59
525.53	31135.27
525.73	31464.99
525.94	31114.79
526.14	31217.19
526.34	31274.53
526.55	31508.00
526.75	31409.70
526.95	31864.35
527.16	31993.37
527.36	31249.96
527.56	31884.83
527.77	32597.52
527.97	32204.31
528.17	32368.15
528.38	32493.07
528.58	32482.83
528.78	32661.01
528.99	32402.96
529.19	32935.43
529.39	33015.30
529.60	33037.83
529.80	32945.67
530.00	33078.79
530.21	33183.24
530.41	33426.95
530.61	33109.51
530.82	33498.62
531.02	33267.20
531.22	33900.03
531.43	33682.94
531.63	33906.17
531.83	34000.38
532.04	34366.96
532.24	34002.43
532.44	34395.64
532.64	34371.06
532.85	34571.76
533.05	34661.87
533.25	34657.78
533.46	34571.76
533.66	35454.44
533.86	34952.68
534.07	35067.37
534.27	35284.45
534.47	35505.63
534.67	35708.38
534.88	35395.04
535.08	35218.92
535.28	35898.84
535.49	36066.78
535.69	36324.82
535.89	36298.20
536.09	36355.54
536.30	36310.49
536.50	36195.80
536.70	37033.42
536.91	36498.90
537.11	36888.01
537.31	36871.63
537.51	37248.46
537.72	37176.78
537.92	37150.15
538.12	37477.83
538.32	37504.45
538.53	37713.34
538.73	37555.65
538.93	37656.00
539.13	37955.00
539.34	38262.20
539.54	37799.36
539.74	38565.30
539.94	38073.79
540.15	37985.72
540.35	38675.89
540.55	38647.22
540.75	38389.17
540.96	38616.50
541.16	38432.18
541.36	38958.51
541.56	38997.42
541.77	39208.36
541.97	38919.60
542.17	39077.29
542.37	39148.97
542.58	39022.00
542.78	39462.31
542.98	39566.76
543.18	39626.15
543.38	40015.26
543.59	39929.25
543.79	39789.98
543.99	39863.71
544.19	39896.48
544.40	39892.38
544.60	40402.33
544.80	40048.03
545.00	40738.19
545.20	40934.80
545.41	40375.70
545.61	40523.16
545.81	40615.32
546.01	40574.36
546.21	40945.04
546.42	40668.56
546.62	40922.51
546.82	40865.17
547.02	41190.80
547.22	41317.77
547.43	41008.53
547.63	41317.77
547.83	41264.52
548.03	41076.11
548.23	41551.24
548.44	41285.00
548.64	41379.21
548.84	41954.69
549.04	41500.04
549.24	41780.61
549.45	42308.99
549.65	41448.84
549.85	41883.01
550.05	42335.61
550.25	42151.29
550.45	42579.32
550.66	42042.75
550.86	42157.44
551.06	42581.37
551.26	42128.77
551.46	42632.57
551.66	42390.91
551.87	42571.13
552.07	42853.75
552.27	42548.60
552.47	42939.76
552.67	43029.87
552.87	42501.50
553.07	42898.80
553.28	42896.75
553.48	43353.45
553.68	42741.11
553.88	43689.32
554.08	43214.19
554.28	43142.51
554.48	43244.91
554.69	43167.09
554.89	43271.53
555.09	43162.99
555.29	43128.17
555.49	43824.48
555.69	43330.92
555.89	43552.10
556.10	43949.41
556.30	43146.61
556.50	43593.06
556.70	43785.57
556.90	43797.86
557.10	44039.52
557.30	43486.57
557.50	44086.62
557.70	43816.29
557.91	44154.21
558.11	43660.65
558.31	44219.74
558.51	43849.06
558.71	44197.21
558.91	44373.34
559.11	43971.94
559.31	44412.25
559.51	43824.48
559.72	44316.00
559.92	44598.62
560.12	44250.46
560.32	44604.76
560.52	44154.21
560.72	44383.58
560.92	44453.21
561.12	44565.85
561.32	44619.10
561.52	44066.14
561.72	44668.25
561.93	44434.78
562.13	44705.11
562.33	44371.29
562.53	45346.12
562.73	44660.05
562.93	45059.41
563.13	44639.57
563.33	44539.22
563.53	45233.49
563.73	44606.81
563.93	44668.25
564.13	45393.23
564.33	45135.18
564.53	44985.68
564.74	45458.76
564.94	44889.43
565.14	45720.90
565.34	44916.05
565.54	45237.58
565.74	44885.33
565.94	45475.15
566.14	45008.21
566.34	44954.96
566.54	45782.34
566.74	45118.80
566.94	45466.95
567.14	45430.09
567.34	45346.12
567.54	45344.08
567.74	45143.38
567.94	45110.61
568.14	45731.14
568.34	45600.07
568.54	45299.02
568.74	45913.41
568.94	45495.63
569.14	45772.10
569.34	45630.79
569.54	45573.45
569.75	45299.02
569.95	45872.45
570.15	45743.43
570.35	45862.21
570.55	45686.09
570.75	45819.20
570.95	45536.59
571.15	46118.21
571.35	45405.52
571.55	45952.32
571.75	46067.01
571.95	45899.08
572.15	45784.39
572.35	45790.53
572.55	45823.30
572.75	45798.73
572.95	45786.44
573.15	46288.19
573.35	45946.18
573.55	45729.09
573.75	45905.22
573.95	45907.27
574.15	46187.84
574.35	46349.63
574.55	46368.06
574.75	46204.22
574.95	46585.15
575.15	46204.22
575.34	46187.84
575.54	46429.50
575.74	46417.21
575.94	46638.39
576.14	46245.18
576.34	46701.88
576.54	46384.44
576.74	46646.58
576.94	46306.62
577.14	46435.64
577.34	46556.47
577.54	46687.54
577.74	46947.64
577.94	46845.24
578.14	46511.42
578.34	47121.71
578.54	46669.11
578.74	46654.78
578.94	47121.71
579.14	46943.54
579.34	47076.66
579.54	46970.16
579.74	47625.51
579.94	47097.14
580.13	47232.30
580.33	47217.97
580.53	47170.86
580.73	47377.71
580.93	47131.95
581.13	47306.03
581.33	47594.79
581.53	47750.44
581.73	47377.71
581.93	47580.46
582.13	47602.99
582.33	47574.31
582.53	47641.90
582.73	47654.18
582.92	47840.55
583.12	47879.46
583.32	47635.75
583.52	47428.91
583.72	47637.80
583.92	47957.28
584.12	47744.30
584.32	48674.07
584.52	47973.67
584.72	48190.75
584.92	47619.37
585.11	48373.02
585.31	47885.61
585.51	48602.39
585.71	47863.08
585.91	48688.41
586.11	48407.84
586.31	48192.80
586.51	48295.20
586.71	48733.46
586.91	48624.92
587.10	48821.53
587.30	48872.73
587.50	49005.84
587.70	48719.13
587.90	48782.62
588.10	48796.95
588.30	48885.01
588.50	48751.90
588.69	48559.39
588.89	48153.89
589.09	49333.52
589.29	49009.94
589.49	49270.03
589.69	49300.75
589.89	49239.31
590.08	49360.14
590.28	49165.59
590.48	48997.65
590.68	49069.33
590.88	48846.10
591.08	48739.61
591.28	49116.43
591.47	49208.59
591.67	49505.55
591.87	49640.71
592.07	49306.90
592.27	49349.90
592.47	49173.78
592.67	49315.09
592.86	49591.56
593.06	49192.21
593.26	49708.30
593.46	49730.83
593.66	49659.15
593.86	49966.34
594.05	49714.44
594.25	50380.03
594.45	49612.04
594.65	49911.05
594.85	50128.13
595.05	50093.32
595.24	50195.71
595.44	49806.60
595.64	50289.92
595.84	49968.39
596.04	50031.88
596.23	50083.08
596.43	50459.90
596.63	50420.99
596.83	50982.13
597.03	50638.08
597.22	50705.66
597.42	51016.95
597.62	50623.74
597.82	50695.42
598.02	50791.67
598.21	51207.41
598.41	50507.01
598.61	51010.81
598.81	50947.32
599.01	51494.13
599.20	51086.58
599.40	51289.33
599.60	51424.50
599.80	51352.82
600.00	51262.71
600.19	51746.03
600.39	50975.99
600.59	51629.29
600.79	51494.13
600.98	51533.04
601.18	51516.65
601.38	52051.17
601.58	51856.62
601.78	51887.34
601.97	51903.72
602.17	51903.72
602.37	52229.35
602.57	51866.86
602.76	52524.25
602.96	51909.86
603.16	52735.20
603.36	52358.37
603.55	52657.37
603.75	52145.38
603.95	52530.40
604.15	52206.82
604.34	52206.82
604.54	52856.03
604.74	52886.74
604.94	52974.81
605.13	52933.85
605.33	53355.73
605.53	52813.02
605.73	53329.11
605.92	52686.04
606.12	53601.49
606.32	53564.62
606.52	53380.31
606.71	53359.83
606.91	53304.53
607.11	53271.76
607.30	53732.56
607.50	53572.81
607.70	53730.51
607.90	53271.76
608.09	53521.62
608.29	54064.33
608.49	53826.76
608.68	53908.68
608.88	54142.15
609.08	53566.67
609.28	53955.78
609.47	53998.79
609.67	54381.76
609.87	54219.97
610.06	54506.69
610.26	54076.61
610.46	54516.93
610.66	54273.22
610.85	54344.90
611.05	54348.99
611.25	54742.20
611.44	54277.32
611.64	54219.97
611.84	54492.35
612.03	54398.15
612.23	54936.76
612.43	54803.64
612.62	54623.42
612.82	54899.90
613.02	55246.00
613.21	54854.84
613.41	54828.22
613.61	55254.20
613.80	54570.18
614.00	55030.97
614.20	54822.08
614.39	54949.05
614.59	55006.39
614.79	54901.95
614.98	55045.30
615.18	55116.98
615.38	54947.00
615.57	55112.89
615.77	55583.92
615.97	55254.20
616.16	55131.32
616.36	55190.71
616.56	55815.34
616.75	55469.23
616.95	55456.95
617.15	55696.56
617.34	55225.53
617.54	55334.07
617.74	55809.20
617.93	55712.94
618.13	55336.12
618.32	55532.72
618.52	54934.71
618.72	55307.44
618.91	55518.38
619.11	55514.29
619.31	55930.03
619.50	55532.72
619.70	55327.92
619.90	55647.41
620.09	55592.11
620.29	55674.03
620.48	55604.40
620.68	56224.93
620.88	55469.23
621.07	55776.43
621.27	55860.40
621.46	55829.68
621.66	55778.48
621.86	55764.14
622.05	55465.14
622.25	55794.86
622.44	55841.96
622.64	55377.08
622.84	56286.37
623.03	56272.04
623.23	56360.10
623.42	55993.51
623.62	55952.55
623.82	56487.07
624.01	55862.44
624.21	56186.02
624.40	55993.51
624.60	56071.34
624.80	55653.55
624.99	56155.30
625.19	55540.91
625.38	56245.41
625.58	56257.70
625.77	56067.24
625.97	56085.67
626.17	56079.53
626.36	56200.36
626.56	56261.80
626.75	56020.14
626.95	56532.13
627.14	56112.30
627.34	56775.84
627.54	56276.13
627.73	56403.11
627.93	56022.19
628.12	56274.09
628.32	56505.51
628.51	56163.50
628.71	56767.65
628.90	56548.51
629.10	56157.35
629.30	56575.14
629.49	56630.43
629.69	56280.23
629.88	57021.59
630.08	56632.48
630.27	56835.23
630.47	56607.90
630.66	55862.44
630.86	56693.92
631.05	56525.99
631.25	57050.27
631.44	57117.85
631.64	57009.31
631.84	57345.17
632.03	57025.69
632.23	56792.22
632.42	57269.40
632.62	57185.43
632.81	56749.21
633.01	56644.77
633.20	56755.36
633.40	56956.06
633.59	56982.68
633.79	56808.61
633.98	57150.62
634.18	57140.38
634.37	57230.49
634.57	57384.08
634.76	57750.67
634.96	57017.50
635.15	57306.26
635.35	57064.60
635.54	57078.94
635.74	57046.17
635.93	56859.80
636.13	57218.20
636.32	57617.55
636.52	57298.07
636.71	57177.24
636.91	57156.76
637.10	57158.81
637.30	57232.53
637.49	57390.23
637.69	57173.14
637.88	57537.68
638.08	57193.62
638.27	57799.82
638.46	57226.39
638.66	57187.48
638.85	57498.77
639.05	57607.31
639.24	57506.96
639.44	57156.76
639.63	57482.39
639.83	57830.54
640.02	57439.38
640.22	57441.43
640.41	57611.41
640.61	57416.85
640.80	57549.97
640.99	57162.90
641.19	58096.78
641.38	57400.47
641.58	57218.20
641.77	57345.17
641.97	57351.32
642.16	57646.22
642.36	57922.70
642.55	58242.18
642.74	57244.82
642.94	58289.29
643.13	57384.08
643.33	58193.03
643.52	58082.44
643.72	57965.71
643.91	57793.68
644.10	57865.36
644.30	58686.59
644.49	57998.48
644.69	58301.57
644.88	57861.26
645.08	57558.16
645.27	58107.02
645.46	57848.97
645.66	58021.00
645.85	57986.19
646.05	58440.84
646.24	58158.22
646.43	58373.25
646.63	58084.49
646.82	58016.91
647.02	58025.10
647.21	58154.12
647.40	58109.07
647.60	58383.49
647.79	58610.82
647.99	58090.63
648.18	58221.70
648.37	58811.52
648.57	58301.57
648.76	58082.44
648.96	57875.60
649.15	58154.12
649.34	58475.65
649.54	58532.99
649.73	58217.61
649.92	58291.33
650.12	58363.01
650.31	58248.33
650.51	58541.19
650.70	58393.73
650.89	58211.46
651.09	59110.52
651.28	58512.52
651.47	58553.47
651.67	59024.51
651.86	58762.37
652.06	57963.66
652.25	58467.46
652.44	58229.90
652.64	58029.19
652.83	58580.10
653.02	58324.10
653.22	58293.38
653.41	57728.14
653.60	58565.76
653.80	58596.48
653.99	58670.21
654.18	57914.51
654.38	58096.78
654.57	58475.65
654.76	58207.37
654.96	58262.66
655.15	58121.35
655.34	57912.46
655.54	57998.48
655.73	58326.15
655.92	58250.38
656.12	58338.44
656.31	58135.69
656.50	58393.73
656.70	58209.42
656.89	58072.20
657.08	58449.03
657.28	58455.17
657.47	58639.49
657.66	58494.08
657.86	58195.08
658.05	58461.32
658.24	58571.91
658.43	58135.69
658.63	58369.16
658.82	58410.12
659.01	58561.67
659.21	58555.52
659.40	58197.13
659.59	58176.65
659.79	58330.25
659.98	58184.84
660.17	58473.60
660.36	58627.20
660.56	58688.64
660.75	58723.46
660.94	58086.54
661.14	58471.56
661.33	58188.94
661.52	57824.40
661.71	58434.69
661.91	58121.35
662.10	58039.43
662.29	58346.63
662.49	58088.59
662.68	58520.71
662.87	58299.53
663.06	57916.56
663.26	58078.35
663.45	58113.16
663.64	57855.12
663.83	58348.68
664.03	58637.44
664.22	58264.71
664.41	58236.04
664.60	58160.26
664.80	57930.89
664.99	57824.40
665.18	58250.38
665.37	57889.93
665.57	58135.69
665.76	57443.48
665.95	58074.25
666.14	57787.53
666.34	57730.19
666.53	57513.11
666.72	57298.07
666.91	57670.80
667.11	57744.53
667.30	57640.08
667.49	57695.38
667.68	57599.12
667.87	57578.64
668.07	58014.86
668.26	57703.57
668.45	57670.80
668.64	57648.27
668.84	58139.78
669.03	57898.12
669.22	57662.61
669.41	57635.98
669.60	57779.34
669.80	57238.68
669.99	57908.36
670.18	57717.90
670.37	57762.96
670.57	58066.06
670.76	57396.37
670.95	57836.69
671.14	57728.14
671.33	57719.95
671.53	57656.46
671.72	57240.73
671.91	57633.94
672.10	57408.66
672.29	57406.61
672.48	57113.75
672.68	57617.55
672.87	57263.25
673.06	57111.70
673.25	57087.13
673.44	57246.87
673.64	56824.99
673.83	57132.18
674.02	56710.30
674.21	56642.72
674.40	57250.97
674.59	56831.13
674.79	56687.78
674.98	56562.85
675.17	56911.00
675.36	56601.76
675.55	56730.78
675.74	56620.19
675.94	56235.17
676.13	56833.18
676.32	57074.84
676.51	57259.16
676.70	56874.14
676.89	56745.12
677.08	56992.92
677.28	56587.42
677.47	56849.56
677.66	56865.95
677.85	56859.80
678.04	56652.96
678.23	56607.90
678.42	57169.05
678.62	56810.65
678.81	57054.36
679.00	56304.80
679.19	56911.00
679.38	56435.87
679.57	56128.68
679.76	56513.70
679.96	56605.86
680.15	56329.38
680.34	56194.21
680.53	56695.97
680.72	56571.04
680.91	56722.59
681.10	55979.18
681.29	56339.62
681.48	56110.25
681.68	55919.79
681.87	56364.20
682.06	56050.86
682.25	55407.79
682.44	55833.77
682.63	56097.96
682.82	55749.81
683.01	55796.91
683.20	55626.93
683.39	56190.12
683.59	55334.07
683.78	55329.97
683.97	55422.13
684.16	55608.50
684.35	55633.07
684.54	55870.64
684.73	55553.20
684.92	55305.40
685.11	55456.95
685.30	55264.44
685.49	55473.33
685.69	55598.26
685.88	55235.77
686.07	55086.26
686.26	55213.24
686.45	55428.27
686.64	55305.40
686.83	55311.54
687.02	55366.84
687.21	55293.11
687.40	55282.87
687.59	55250.10
687.78	55262.39
687.97	55598.26
688.16	55372.98
688.35	54856.89
688.54	55209.14
688.74	54992.06
688.93	55069.88
689.12	55041.21
689.31	54877.37
689.50	55057.59
689.69	54662.33
689.88	54529.22
690.07	54820.03
690.26	54875.32
690.45	55086.26
690.64	54809.79
690.83	54531.26
691.02	54475.97
691.21	54592.70
691.40	54084.81
691.59	54492.35
691.78	54570.18
691.97	54793.40
692.16	54584.51
692.35	54361.28
692.54	54955.19
692.73	54111.43
692.92	54926.52
693.11	54389.95
693.30	54353.09
693.49	54328.52
693.68	54185.16
693.87	54191.30
694.06	54418.63
694.25	54392.00
694.44	54158.53
694.63	54308.04
694.82	54342.85
695.01	54197.44
695.20	53861.58
695.39	53707.98
695.58	53583.05
695.77	53386.45
695.96	53740.75
696.15	54121.67
696.34	54011.08
696.53	53978.31
696.72	54260.93
696.91	53804.24
697.10	53978.31
697.29	53494.99
697.48	54183.11
697.67	53732.56
697.86	53576.91
698.05	53605.58
698.24	53900.49
698.43	53482.70
698.62	53664.97
698.81	53089.49
699.00	54000.84
699.19	53484.75
699.38	53433.55
699.57	52909.27
699.76	53753.04
699.95	53181.65
700.14	53130.45
700.32	53378.26
700.51	53052.63
700.70	52985.05
700.89	53118.17
701.08	53411.02
701.27	53351.63
701.46	53271.76
701.65	52772.06
701.84	53054.68
702.03	53355.73
702.22	52929.75
702.41	53064.92
702.60	53212.37
702.79	53200.08
702.98	52544.73
703.17	52942.04
703.35	52542.69
703.54	52825.31
703.73	53181.65
703.92	53140.69
704.11	52899.03
704.30	52518.11
704.49	52497.63
704.68	52995.29
704.87	52743.39
705.06	52716.76
705.25	52575.45
705.43	52739.29
705.62	52819.16
705.81	52688.09
706.00	52557.02
706.19	52532.45
706.38	52153.57
706.57	52061.41
706.76	52380.90
706.95	52772.06
707.14	52083.94
707.32	52073.70
707.51	51913.96
707.70	52182.24
707.89	52526.30
708.08	51997.93
708.27	52223.20
708.46	52333.79
708.65	52149.48
708.84	52681.95
709.02	52045.03
709.21	52190.44
709.40	52327.65
709.59	52057.32
709.78	51614.96
709.97	52008.17
710.16	51891.43
710.34	51991.78
710.53	51875.05
710.72	51819.75
710.91	51918.06
711.10	52102.37
711.29	52083.94
711.48	51799.27
711.66	51873.00
711.85	51666.16
712.04	51967.21
712.23	51977.45
712.42	51610.86
712.61	51619.05
712.80	51989.73
712.98	51277.04
713.17	51401.97
713.36	51639.53
713.55	51379.44
713.74	51725.55
713.93	51459.31
714.11	51387.63
714.30	51053.81
714.49	51535.09
714.68	51516.65
714.87	51614.96
715.06	52055.27
715.24	51309.81
715.43	51410.16
715.62	51098.87
715.81	50988.28
716.00	51191.03
716.18	51041.53
716.37	51111.16
716.56	51158.26
716.75	51115.25
716.94	50920.70
717.12	51090.68
717.31	51291.38
717.50	50949.37
717.69	50699.51
717.88	50904.31
718.06	50889.98
718.25	51160.31
718.44	50984.18
718.63	50857.21
718.82	50238.72
719.00	50801.91
719.19	50414.85
719.38	50674.94
719.57	50371.84
719.76	50259.20
719.94	50216.19
720.13	50375.94
720.32	50504.96
720.51	50566.40
720.69	50154.75
720.88	50314.50
721.07	50128.13
721.26	49992.97
721.44	49890.57
721.63	49886.47
721.82	49444.11
722.01	49628.43
722.20	49956.10
722.38	49863.94
722.57	49224.98
722.76	49724.68
722.95	49755.40
723.13	49640.71
723.32	49734.92
723.51	49757.45
723.70	48899.35
723.88	49517.84
724.07	49196.31
724.26	49564.94
724.44	48678.17
724.63	49370.38
724.82	49444.11
725.01	49100.05
725.19	49329.42
725.38	49239.31
725.57	48946.45
725.76	49429.77
725.94	49153.30
726.13	49093.91
726.32	49272.08
726.51	48991.51
726.69	49585.42
726.88	49151.25
727.07	49198.35
727.25	49059.09
727.44	49046.80
727.63	49048.85
727.82	48729.37
728.00	49016.08
728.19	49091.86
728.38	49366.29
728.56	48952.60
728.75	48979.22
728.94	48858.39
729.12	49468.69
729.31	49575.18
729.50	49050.90
729.69	49257.74
729.87	49177.87
730.06	48686.36
730.25	49468.69
730.43	49384.72
730.62	48977.17
730.81	49429.77
730.99	49263.89
731.18	48669.98
731.37	49306.90
731.55	49292.56
731.74	49681.67
731.93	49059.09
732.11	49270.03
732.30	49440.01
732.49	48395.55
732.67	48831.77
732.86	48815.38
733.05	49065.24
733.23	49155.35
733.42	49128.72
733.61	49157.39
733.79	49190.16
733.98	48960.79
734.17	48731.42
734.35	49173.78
734.54	49319.18
734.73	49327.38
734.91	49370.38
735.10	48823.58
735.29	49583.37
735.47	48749.85
735.66	48782.62
735.84	48774.42
736.03	48768.28
736.22	49118.48
736.40	48807.19
736.59	48936.21
736.78	48799.00
736.96	49104.15
737.15	49284.37
737.33	48745.75
737.52	48674.07
737.71	48665.88
737.89	49014.04
738.08	48182.56
738.27	48715.03
738.45	48710.94
738.64	48706.84
738.82	48661.79
739.01	48635.16
739.20	48610.59
739.38	48635.16
739.57	48747.80
739.75	48426.27
739.94	48725.27
740.13	49009.94
740.31	48358.69
740.50	48801.05
740.68	48860.44
740.87	48958.74
741.06	48657.69
741.24	48534.81
741.43	48452.89
741.61	49050.90
741.80	48213.28
741.99	48778.52
742.17	48549.15
742.36	48303.39
742.54	48366.88
742.73	48241.95
742.91	48235.81
743.10	48125.22
743.29	48573.72
743.47	48684.31
743.66	48700.70
743.84	48241.95
744.03	48282.91
744.21	48356.64
744.40	48319.77
744.59	48223.52
744.77	48074.02
744.96	48375.07
745.14	48272.67
745.33	48108.83
745.51	48268.58
745.70	48366.88
745.88	48020.77
746.07	48133.41
746.26	47830.31
746.44	47832.36
746.63	47797.54
746.81	48272.67
747.00	47709.48
747.18	48325.92
747.37	47834.41
747.55	47787.30
747.74	47717.67
747.92	47725.86
748.11	47709.48
748.29	47988.00
748.48	48098.59
748.66	47551.79
748.85	47752.49
749.03	47686.95
749.22	47815.97
749.41	47334.70
749.59	47768.87
749.78	47101.23
749.96	47199.54
750.15	47428.91
750.33	47430.96
750.52	46943.54
750.70	47240.50
750.89	46830.90
751.07	47054.13
751.26	47039.79
751.44	47471.92
751.63	47289.65
751.81	47172.91
752.00	46986.55
752.18	46980.40
752.37	47140.14
752.55	47101.23
752.74	46904.63
752.92	46927.16
753.10	46900.53
753.29	46873.91
753.47	46691.64
753.66	46439.74
753.84	46667.06
754.03	46738.74
754.21	46531.90
754.40	46415.16
754.58	46908.72
754.77	46490.94
754.95	46824.76
755.14	46728.50
755.32	46550.33
755.51	46314.81
755.69	46433.60
755.88	46417.21
756.06	46404.92
756.24	46337.34
756.43	45966.66
756.61	46746.93
756.80	46476.60
756.98	45548.87
757.17	46363.96
757.35	46241.09
757.54	46497.08
757.72	46302.53
757.90	45667.66
758.09	46103.87
758.27	46075.20
758.46	45907.27
758.64	46220.61
758.83	46183.74
759.01	45698.37
759.19	45878.60
759.38	46085.44
759.56	46132.54
759.75	46247.23
759.93	45868.36
760.12	45745.48
760.30	45968.71
760.48	45745.48
760.67	45479.24
760.85	45303.12
761.04	45909.32
761.22	45339.98
761.40	45684.04
761.59	45688.13
761.77	45598.02
761.96	45157.71
762.14	45303.12
762.32	44934.48
762.51	45104.46
762.69	45245.77
762.88	45155.66
763.06	45337.93
763.24	45372.75
763.43	45391.18
763.61	45221.20
763.80	45331.79
763.98	44948.82
764.16	44608.86
764.35	44701.01
764.53	44524.89
764.72	45043.02
764.90	44731.73
765.08	44774.74
765.27	44830.04
765.45	44635.48
765.63	44008.80
765.82	44875.09
766.00	44346.72
766.18	44389.72
766.37	45190.48
766.55	44594.52
766.74	44318.04
766.92	44528.98
767.10	44399.96
767.29	44090.72
767.47	43820.39
767.65	44166.49
767.84	43761.00
768.02	44057.95
768.20	43787.62
768.39	43906.40
768.57	43988.32
768.75	44103.01
768.94	44103.01
769.12	43699.56
769.30	43832.68
769.49	43664.74
769.67	43552.10
769.85	42937.71
770.04	43756.90
770.22	43214.19
770.40	43382.12
770.59	43515.24
770.77	43373.93
770.95	43212.14
771.14	42984.82
771.32	42714.48
771.50	42927.47
771.69	43062.64
771.87	43091.31
772.05	42712.44
772.24	42513.78
772.42	42788.21
772.60	42448.25
772.78	42884.47
772.97	42270.08
773.15	42575.22
773.33	42769.78
773.52	42333.56
773.70	42431.86
773.88	42827.12
774.07	42517.88
774.25	42829.17
774.43	42153.34
774.61	42704.24
774.80	42505.59
774.98	42544.50
775.16	42636.66
775.34	42784.12
775.53	42440.06
775.71	43179.37
775.89	42677.62
776.08	42347.90
776.26	42540.41
776.44	43150.70
776.62	42739.06
776.81	42190.20
776.99	42597.75
777.17	42610.04
777.35	42612.09
777.54	43036.02
777.72	42718.58
777.90	42747.25
778.08	42800.50
778.27	42825.07
778.45	43099.50
778.63	43111.79
778.81	42872.18
779.00	43588.97
779.18	43062.64
779.36	42997.10
779.54	42839.41
779.73	42655.09
779.91	42853.75
780.09	43343.21
780.27	43064.69
780.46	43079.02
780.64	42995.06
780.82	42769.78
781.00	43070.83
781.19	43326.83
781.37	43177.33
781.55	43124.08
781.73	43543.91
781.91	43025.78
782.10	42966.38
782.28	43355.50
782.46	43287.92
782.64	43474.28
782.82	43183.47
783.01	43570.54
783.19	43486.57
783.37	43500.90
783.55	42960.24
783.74	43613.54
783.92	43128.17
784.10	43466.09
784.28	43238.76
784.46	43181.42
784.64	42974.58
784.83	43414.89
785.01	43613.54
785.19	43453.80
785.37	43521.38
785.55	43527.53
785.74	42917.23
785.92	43316.59
786.10	43206.00
786.28	43029.87
786.46	42749.30
786.64	42870.13
786.83	42786.16
787.01	43040.11
787.19	42980.72
787.37	42988.91
787.55	43023.73
787.74	42540.41
787.92	43031.92
788.10	42501.50
788.28	42151.29
788.46	42866.03
788.64	42452.34
788.82	42925.42
789.01	42388.86
789.19	42796.40
789.37	42120.57
789.55	42358.14
789.73	41964.93
789.91	41960.83
790.09	42036.61
790.28	41643.40
790.46	41704.84
790.64	42384.76
790.82	41680.26
791.00	41796.99
791.18	42048.89
791.36	41352.58
791.55	41688.45
791.73	41643.40
791.91	41061.77
792.09	41194.89
792.27	41383.30
792.45	41260.43
792.63	40828.30
792.81	40639.89
793.00	40732.05
793.18	40560.02
793.36	40394.14
793.54	40435.10
793.72	40187.29
793.90	40363.42
794.08	40287.64
794.26	40324.50
794.44	40129.95
794.62	39966.11
794.81	39906.72
794.99	39955.87
795.17	39982.49
795.35	39923.10
795.53	39832.99
795.71	39847.33
795.89	39427.49
796.07	39249.32
796.25	39470.50
796.43	39073.20
796.61	38970.80
796.80	38798.77
796.98	38962.61
797.16	38391.22
797.34	38448.57
797.52	38565.30
797.70	38743.47
797.88	38786.48
798.06	38264.25
798.24	38215.10
798.42	38045.12
798.60	38196.67
798.78	38292.92
798.96	38112.70
799.14	37729.73
799.32	37967.29
799.51	37213.64
799.69	37756.35
799.87	37680.58
800.05	37520.84
800.23	37397.96
800.41	37279.18
800.59	37504.45
800.77	37135.82
800.95	37037.51
801.13	36898.25
801.31	36441.56
801.49	36996.56
801.67	36609.49
801.85	36603.35
802.03	36505.04
802.21	36156.89
802.39	36595.15
802.57	35974.62
802.75	36253.14
802.93	36300.25
803.11	35974.62
803.29	35898.84
803.47	35456.48
803.65	35896.80
803.83	35651.04
804.01	35374.56
804.19	35335.65
804.37	35116.52
804.55	35370.47
804.73	35542.50
804.91	35249.64
805.09	35141.10
805.27	35010.03
805.45	35214.82
805.63	35091.94
805.81	35171.82
805.99	35034.60
806.17	34928.11
806.35	34893.29
806.53	34104.82
806.71	34625.01
806.89	34227.70
807.07	34117.11
807.25	34414.07
807.43	34141.69
807.61	34305.52
807.79	33983.99
807.97	33832.44
808.15	33981.95
808.33	33539.58
808.51	33392.13
808.69	33684.99
808.87	33486.34
809.05	33621.50
809.23	33744.38
809.41	32882.19
809.59	33170.95
809.77	33433.09
809.95	32974.34
810.13	33197.57
810.31	32800.27
810.49	32749.07
810.67	32697.87
810.84	32699.92
811.02	32611.85
811.20	32734.73
811.38	32495.12
811.56	32312.85
811.74	32482.83
811.92	32157.21
812.10	32095.77
812.28	32284.18
812.46	32130.58
812.64	32220.69
812.82	31561.25
813.00	32091.67
813.18	32306.71
813.36	31874.59
813.53	31694.36
813.71	31702.56
813.89	31847.96
814.07	31776.28
814.25	31831.58
814.43	31462.94
814.61	31274.53
814.79	31213.09
814.97	31122.98
815.15	31284.77
815.33	30557.74
815.50	31028.77
815.68	31141.41
815.86	31045.16
816.04	30899.75
816.22	30776.87
816.40	30744.11
816.58	30367.28
816.76	30467.63
816.94	30471.73
817.11	30643.76
817.29	30662.19
817.47	30199.35
817.65	30250.55
817.83	30029.37
818.01	30303.79
818.19	30076.47
818.37	30520.88
818.54	29945.40
818.72	29765.18
818.90	29894.20
819.08	30070.33
819.26	30107.19
819.44	29500.99
819.62	29797.95
819.80	29978.17
819.97	29472.32
820.15	29740.60
820.33	29478.46
820.51	29445.69
820.69	29150.79
820.87	29675.07
821.05	29615.68
821.22	29132.36
821.40	29236.80
821.58	28827.21
821.76	29064.77
821.94	29232.71
822.12	29132.36
822.29	28980.81
822.47	29015.62
822.65	29240.90
822.83	29095.49
823.01	28751.43
823.19	28884.55
823.36	28649.03
823.54	28470.86
823.72	28460.62
823.90	28180.05
824.08	28585.55
824.25	28546.64
824.43	28350.03
824.61	28116.56
824.79	28384.85
824.97	28356.18
825.15	28550.73
825.32	28190.29
825.50	28298.83
825.68	27926.10
825.86	28554.83
826.04	28141.14
826.21	28182.10
826.39	28114.52
826.57	28008.02
826.75	27678.30
826.93	27702.87
827.10	27528.80
827.28	27563.61
827.46	27948.63
827.64	27670.11
827.81	27180.64
827.99	27338.33
828.17	27586.14
828.35	27387.49
828.53	26961.51
828.70	27340.38
828.88	27211.36
829.06	27305.57
829.24	27426.40
829.41	27008.61
829.59	27227.74
829.77	26957.41
829.95	26992.23
830.12	26865.25
830.30	26908.26
830.48	27033.19
830.66	26879.59
830.84	26947.17
831.01	26920.55
831.19	26943.08
831.37	26832.49
831.55	26424.94
831.72	26494.57
831.90	26732.14
832.08	26588.78
832.25	26402.41
832.43	26498.67
832.61	26082.93
832.79	26150.51
832.96	26363.50
833.14	26453.61
833.32	26400.37
833.50	26170.99
833.67	26283.63
833.85	26003.06
834.03	25831.03
834.20	26437.23
834.38	25849.46
834.56	26082.93
834.74	26115.70
834.91	25937.52
835.09	26056.31
835.27	25572.99
835.44	25822.84
835.62	25523.83
835.80	25497.21
835.98	25945.72
836.15	25435.77
836.33	25372.28
836.51	25771.64
836.68	25626.23
836.86	25591.42
837.04	25575.03
837.21	25751.16
837.39	25837.17
837.57	25716.34
837.75	25271.93
837.92	25095.81
838.10	25081.47
838.28	24852.10
838.45	25347.71
838.63	24946.31
838.81	25104.00
838.98	24948.36
839.16	24577.67
839.34	24878.72
839.51	24919.68
839.69	24706.70
839.87	24655.50
840.04	24782.47
840.22	24680.07
840.40	24850.05
840.57	24592.01
840.75	24555.15
840.93	24266.38
841.10	24567.43
841.28	24663.69
841.46	24536.71
841.63	24684.17
841.81	24565.39
841.98	24524.43
842.16	24723.08
842.34	24374.92
842.51	24194.70
842.69	24639.11
842.87	24350.35
843.04	24256.14
843.22	24086.16
843.40	24401.55
843.57	23928.47
843.75	24178.32
843.92	24252.05
844.10	23987.86
844.28	24338.06
844.45	23762.58
844.63	24141.46
844.81	23903.89
844.98	23887.51
845.16	23957.14
845.33	23862.93
845.51	23752.34
845.69	23803.54
845.86	23901.84
846.04	23561.88
846.21	23772.82
846.39	23817.88
846.57	23649.94
846.74	23850.64
846.92	23547.54
847.09	23443.10
847.27	23183.01
847.45	23441.05
847.62	23447.19
847.80	23441.05
847.97	23320.22
848.15	23490.20
848.32	23277.21
848.50	22967.97
848.68	23240.35
848.85	23109.28
849.03	22935.20
849.20	23406.23
849.38	22970.02
849.56	22898.34
849.73	22781.60
849.91	22972.07
850.08	23158.43
850.26	23006.88
850.43	22941.35
850.61	22728.36
850.78	22705.83
850.96	22759.08
851.14	22519.46
851.31	22802.08
851.49	22574.76
851.66	22976.16
851.84	22701.73
852.01	22593.19
852.19	22599.34
852.36	22580.90
852.54	22515.37
852.71	22509.22
852.89	22458.03
853.07	22625.96
853.24	22533.80
853.42	22560.42
853.59	22355.63
853.77	22574.76
853.94	22597.29
854.12	22372.01
854.29	22419.11
854.47	22363.82
854.64	22208.17
854.82	22376.11
854.99	22318.76
855.17	22337.20
855.34	22185.65
855.52	22302.38
855.69	22202.03
855.87	22288.04
856.04	21733.04
856.22	22064.82
856.39	21622.45
856.57	21872.31
856.74	21896.88
856.92	21974.70
857.09	21511.86
857.27	21878.45
857.44	22093.49
857.62	21827.25
857.79	21634.74
857.97	21798.58
858.14	21681.85
858.32	21655.22
858.49	21653.17
858.67	21458.62
858.84	21616.31
859.02	21522.10
859.19	21579.45
859.37	21317.31
859.54	21444.28
859.72	21509.82
859.89	21450.42
860.06	21223.10
860.24	21065.41
860.41	21638.84
860.59	21124.80
860.76	21247.68
860.94	21040.83
861.11	21368.51
861.29	21094.08
861.46	21118.65
861.64	20881.09
861.81	20817.60
861.98	21069.50
862.16	20752.07
862.33	20842.18
862.51	20768.45
862.68	21046.97
862.86	20698.82
863.03	20930.24
863.21	20934.34
863.38	20711.11
863.55	20715.20
863.73	20981.44
863.90	20825.79
864.08	20604.61
864.25	20784.83
864.43	20571.85
864.60	20559.56
864.77	20700.87
864.95	20485.83
865.12	20291.27
865.30	20436.68
865.47	20643.52
865.64	20207.31
865.82	20369.10
865.99	20547.27
866.17	20274.89
866.34	20397.77
866.51	20248.27
866.69	20326.09
866.86	20285.13
867.04	20213.45
867.21	20262.60
867.38	20059.85
867.56	20145.87
867.73	19982.03
867.91	19912.40
868.08	20053.71
868.25	20080.33
868.43	19617.49
868.60	20053.71
868.78	19883.73
868.95	19982.03
869.12	19830.48
869.30	19838.67
869.47	19816.15
869.64	19676.88
869.82	19615.44
869.99	19711.70
870.16	19701.46
870.34	19637.97
870.51	19697.36
870.69	19459.80
870.86	19353.30
871.03	19543.77
871.21	19259.10
871.38	19662.55
871.55	19175.13
871.73	19293.91
871.90	19177.18
872.07	19310.30
872.25	19197.66
872.42	19177.18
872.59	19191.52
872.77	19111.64
872.94	18968.29
873.11	18876.13
873.29	18792.16
873.46	19039.97
873.63	19310.30
873.81	19031.77
873.98	18970.33
874.15	18763.49
874.33	18685.67
874.50	18525.93
874.67	18777.83
874.85	18669.28
875.02	18665.19
875.19	18714.34
875.37	18620.13
875.54	18517.73
875.71	18417.38
875.88	18288.36
876.06	18421.48
876.23	18532.07
876.40	18384.62
876.58	18222.83
876.75	18263.79
876.92	18267.88
877.10	18228.97
877.27	18329.32
877.44	18173.67
877.61	18130.67
877.79	18038.51
877.96	18112.24
878.13	18149.10
878.31	17835.76
878.48	17639.15
878.65	17782.51
878.82	17600.24
879.00	17864.43
879.17	17743.60
879.34	17882.86
879.51	17862.38
879.69	17653.49
879.86	17557.24
880.03	17735.41
880.21	17424.12
880.38	17633.01
880.55	17774.32
880.72	17614.58
880.90	17440.50
881.07	17483.51
881.24	17561.33
881.41	17557.24
881.59	17280.76
881.76	17256.18
881.93	17329.91
882.10	17022.72
882.28	17278.71
882.45	17495.80
882.62	17106.68
882.79	17530.61
882.96	17063.68
883.14	17510.13
883.31	17256.18
883.48	17143.55
883.65	17118.97
883.83	17022.72
884.00	17067.77
884.17	16873.21
884.34	17231.61
884.51	16799.49
884.69	17045.24
884.86	17145.59
885.03	16852.73
885.20	16664.32
885.38	17010.43
885.55	17131.26
885.72	17075.96
885.89	16760.58
886.06	16877.31
886.24	16846.59
886.41	16680.71
886.58	16899.84
886.75	16963.33
886.92	16572.16
887.10	16719.62
887.27	16516.87
887.44	16781.06
887.61	16670.47
887.78	16783.10
887.95	16666.37
888.13	16432.90
888.30	16543.49
888.47	16445.19
888.64	16482.05
888.81	16600.83
888.99	16619.27
889.16	16414.47
889.33	16338.69
889.50	16107.27
889.67	16541.44
889.84	16242.44
890.01	16463.62
890.19	16328.45
890.36	16197.38
890.53	16183.05
890.70	16172.81
890.87	16156.43
891.04	16111.37
891.22	16060.17
891.39	16004.88
891.56	15824.65
891.73	16033.55
891.90	15828.75
892.07	15783.70
892.24	15961.87
892.42	15859.47
892.59	15728.40
892.76	15912.72
892.93	15925.00
893.10	15826.70
893.27	15648.53
893.44	15742.74
893.61	15640.34
893.79	15974.16
893.96	15838.99
894.13	15644.43
894.30	15843.09
894.47	15869.71
894.64	15814.41
894.81	15642.39
894.98	15730.45
895.15	15941.39
895.33	15912.72
895.50	15560.47
895.67	15773.46
895.84	15707.92
896.01	15638.29
896.18	15591.19
896.35	15902.48
896.52	15576.85
896.69	15714.06
896.86	15585.04
897.04	15804.17
897.21	15572.75
897.38	15634.19
897.55	15632.15
897.72	15845.13
897.89	15709.97
898.06	15615.76
898.23	15800.08
898.40	15666.96
898.57	15767.31
898.74	15566.61
898.91	15421.20
899.08	15402.77
899.26	15650.58
899.43	15646.48
899.60	15351.57
899.77	15632.15
899.94	15494.93
900.11	15558.42
900.28	15560.47
900.45	15341.33
900.62	15550.23
900.79	15683.34
900.96	15437.59
901.13	15650.58
901.30	15492.88
901.47	15408.92
901.64	15601.43
901.81	15421.20
901.98	15314.71
902.15	15542.03
902.32	15400.72
902.49	15560.47
902.66	15351.57
902.83	15511.32
903.01	15417.11
903.18	15763.22
903.35	15486.74
903.52	15529.75
903.69	15640.34
903.86	15681.30
904.03	15585.04
904.20	15611.67
904.37	15666.96
904.54	15478.55
904.71	15632.15
904.88	15451.92
905.05	15327.00
905.22	15415.06
905.39	15449.88
905.56	15453.97
905.73	15460.12
905.90	15683.34
906.07	15408.92
906.24	15666.96
906.41	15386.39
906.58	15750.93
906.75	15599.38
906.92	15394.58
907.09	15365.91
907.26	15617.81
907.43	15302.42
907.60	15464.21
907.77	15449.88
907.93	15453.97
908.10	15298.33
908.27	15605.52
908.44	15316.76
908.61	15423.25
908.78	15419.16
908.95	15490.84
909.12	15496.98
909.29	15351.57
909.46	15265.56
909.63	15400.72
909.80	15574.80
909.97	15218.46
910.14	15425.30
910.31	15372.05
910.48	15333.14
910.65	15351.57
910.82	15410.96
910.99	15140.63
911.16	15222.55
911.33	15232.79
911.50	15329.05
911.66	15105.82
911.83	15462.16
912.00	15134.49
912.17	14999.32
912.34	15228.70
912.51	15134.49
912.68	15114.01
912.85	14874.40
913.02	15154.97
913.19	14829.34
913.36	14987.04
913.53	14919.45
913.70	15036.19
913.86	15001.37
914.03	14935.84
914.20	14786.33
914.37	15060.76
914.54	14866.21
914.71	14737.18
914.88	14589.73
915.05	14638.88
915.22	14745.38
915.39	15077.15
915.55	14888.73
915.72	14747.42
915.89	14563.11
916.06	14421.80
916.23	14495.52
916.40	14448.42
916.57	14393.12
916.74	14329.64
916.91	14421.80
917.07	14214.95
917.24	14155.56
917.41	14247.72
917.58	14380.84
917.75	14276.39
917.92	14210.86
918.09	13950.76
918.26	14221.10
918.42	14069.55
918.59	13920.04
918.76	14032.68
918.93	13782.83
919.10	13813.55
919.27	13874.99
919.44	13870.89
919.60	13879.08
919.77	13639.47
919.94	13561.65
920.11	13721.39
920.28	13678.38
920.45	13561.65
920.61	13508.40
920.78	13502.26
920.95	13377.33
921.12	13475.63
921.29	13412.15
921.46	13389.62
921.62	13178.68
921.79	13395.76
921.96	13131.58
922.13	13170.49
922.30	12902.20
922.47	13135.67
922.63	13066.04
922.80	13068.09
922.97	12826.43
923.14	12783.42
923.31	12779.32
923.47	12904.25
923.64	12848.96
923.81	12635.97
923.98	12709.69
924.15	12666.69
924.32	12750.65
924.48	12599.10
924.65	12447.55
924.82	12296.00
924.99	12531.52
925.15	12113.74
925.32	12418.88
925.49	12310.34
925.66	12285.76
925.83	12250.95
925.99	12140.36
926.16	12226.37
926.33	11990.86
926.50	11992.90
926.67	11945.80
926.83	11974.47
927.00	11822.92
927.17	11921.23
927.34	11525.97
927.50	11763.53
927.67	11679.57
927.84	11677.52
928.01	11546.45
928.17	11435.86
928.34	11581.26
928.51	11480.91
928.68	11374.42
928.84	11390.80
929.01	11138.90
929.18	11145.05
929.35	11165.53
929.51	11106.13
929.68	11087.70
929.85	11048.79
930.02	10970.97
930.18	10858.33
930.35	11087.70
930.52	10778.46
930.69	10774.36
930.85	10923.87
931.02	10698.59
931.19	10725.21
931.36	10747.74
931.52	10645.34
931.69	10512.22
931.86	10561.37
932.02	10481.50
932.19	10297.19
932.36	10178.40
932.53	10491.74
932.69	10319.71
932.86	10387.30
933.03	10274.66
933.19	10067.81
933.36	10239.84
933.53	10184.55
933.70	9977.70
933.86	9869.16
934.03	9895.78
934.20	9820.01
934.36	9885.55
934.53	9666.41
934.70	9559.92
934.86	9734.00
935.03	9248.63
935.20	9248.63
935.36	9430.90
935.53	9222.00
935.70	9232.24
935.86	9111.41
936.03	9062.26
936.20	9002.87
936.36	8849.27
936.53	9019.25
936.70	8966.01
936.86	8892.28
937.03	8675.20
937.20	8564.61
937.36	8552.32
937.53	8458.11
937.70	8208.26
937.86	8230.79
938.03	8150.92
938.20	8324.99
938.36	7864.20
938.53	7956.36
938.70	7909.26
938.86	7745.42
939.03	7626.64
939.20	7647.12
939.36	7520.14
939.53	7608.20
939.70	7702.41
939.86	7249.81
940.03	7219.09
940.19	7028.63
940.36	7104.40
940.53	7141.27
940.69	6862.74
940.86	7049.11
941.03	6653.85
941.19	6688.67
941.36	6586.27
941.52	6657.95
941.69	6432.67
941.86	6510.49
942.02	6455.20
942.19	6317.98
942.35	6387.61
942.52	6197.15
942.69	6264.74
942.85	6166.43
943.02	6066.08
943.18	6094.76
943.35	5996.45
943.52	5996.45
943.68	5818.28
943.85	5988.26
944.01	5857.19
944.18	5777.32
944.35	5734.31
944.51	5705.64
944.68	5660.59
944.84	5785.51
945.01	5799.85
945.17	5713.83
945.34	5762.98
945.51	5812.14
945.67	5615.53
945.84	5707.69
946.00	5597.10
946.17	5373.87
946.33	5513.13
946.50	5722.02
946.67	5664.68
946.83	5416.88
947.00	5646.25
947.16	5425.07
947.33	5433.26
947.49	5447.60
947.66	5482.41
947.82	5621.67
947.99	5554.09
948.16	5330.86
948.32	5498.80
948.49	5568.43
948.65	5439.40
948.82	5377.97
948.98	5515.18
949.15	5377.97
949.31	5517.23
949.48	5619.63
949.64	5554.09
949.81	5447.60
949.97	5453.74
950.14	5572.52
950.30	5486.51
950.47	5468.08
950.63	5627.82
950.80	5392.30
950.96	5347.25
951.13	5588.91
951.30	5543.85
951.46	5472.17
951.63	5496.75
951.79	5568.43
951.96	5599.15
952.12	5425.07
952.29	5617.58
952.45	5474.22
952.62	5519.28
952.78	5631.91
952.94	5656.49
953.11	5695.40
953.27	5500.84
953.44	5740.46
953.60	5599.15
953.77	5642.15
953.93	5527.47
954.10	5488.56
954.26	5517.23
954.43	5662.63
954.59	5648.30
954.76	5638.06
954.92	5662.63
955.09	5664.68
955.25	5560.24
955.42	5595.05
955.58	5724.07
955.75	5672.87
955.91	5654.44
956.07	5656.49
956.24	5724.07
956.40	5662.63
956.57	5736.36
956.73	5703.59
956.90	5619.63
957.06	5447.60
957.23	5580.71
957.39	5769.13
957.56	5740.46
957.72	5674.92
957.88	5418.93
958.05	5732.26
958.21	5726.12
958.38	5670.83
958.54	5607.34
958.71	5791.66
958.87	5588.91
959.03	5623.72
959.20	5644.20
959.36	5633.96
959.53	5601.19
959.69	5570.48
959.85	5633.96
960.02	5603.24
960.18	5648.30
960.35	5711.78
960.51	5810.09
960.68	5574.57
960.84	5590.95
961.00	5742.50
961.17	5679.02
961.33	5730.22
961.50	5480.36
961.66	5676.97
961.82	5599.15
961.99	5664.68
962.15	5558.19
962.31	5586.86
962.48	5603.24
962.64	5738.41
962.81	5525.42
962.97	5699.50
963.13	5588.91
963.30	5607.34
963.46	5666.73
963.62	5334.96
963.79	5502.89
963.95	5562.28
964.12	5552.04
964.28	5654.44
964.44	5377.97
964.61	5517.23
964.77	5597.10
964.93	5697.45
965.10	5429.17
965.26	5480.36
965.42	5513.13
965.59	5521.32
965.75	5437.36
965.92	5724.07
966.08	5705.64
966.24	5562.28
966.41	5461.93
966.57	5392.30
966.73	5435.31
966.90	5615.53
967.06	5509.04
967.22	5384.11
967.39	5361.58
967.55	5410.73
967.71	5429.17
967.88	5500.84
968.04	5382.06
968.20	5441.45
968.37	5345.20
968.53	5384.11
968.69	5414.83
968.85	5328.81
969.02	5355.44
969.18	5392.30
969.34	5429.17
969.51	5337.01
969.67	5267.38
969.83	5205.94
970.00	5386.16
970.16	5263.28
970.32	5257.14
970.48	5398.45
970.65	5253.04
970.81	5285.81
970.97	5201.84
971.14	5124.02
971.30	5228.46
971.46	5124.02
971.63	5087.15
971.79	5167.03
971.95	4982.71
972.11	5005.24
972.28	5105.59
972.44	5271.47
972.60	5035.96
972.76	5070.77
972.93	4976.56
973.09	5156.79
973.25	4982.71
973.42	5046.20
973.58	5099.44
973.74	5038.00
973.90	5101.49
974.07	4872.12
974.23	5056.43
974.39	4984.76
974.55	4913.08
974.72	5017.52
974.88	4841.40
975.04	4992.95
975.20	4790.20
975.37	5005.24
975.53	4937.65
975.69	5038.00
975.85	4927.41
976.01	4988.85
976.18	4908.98
976.34	4808.63
976.50	4937.65
976.66	4847.54
976.83	4884.41
976.99	4708.28
977.15	4796.34
977.31	4798.39
977.47	4843.45
977.64	4814.77
977.80	4646.84
977.96	4640.70
978.12	4650.94
978.29	4767.67
978.45	4648.89
978.61	4722.62
978.77	4743.10
978.93	4650.94
979.10	4560.83
979.26	4548.54
979.42	4628.41
979.58	4575.16
979.74	4661.18
979.91	4620.22
980.07	4466.62
980.23	4503.48
980.39	4622.27
980.55	4548.54
980.71	4538.30
980.88	4444.09
981.04	4390.84
981.20	4540.35
981.36	4566.97
981.52	4644.79
981.68	4458.43
981.85	4532.15
982.01	4528.06
982.17	4368.32
982.33	4593.59
982.49	4575.16
982.65	4440.00
982.82	4374.46
982.98	4517.82
983.14	4257.73
983.30	4411.32
983.46	4487.10
983.62	4317.12
983.79	4390.84
983.95	4267.97
984.11	4181.95
984.27	4265.92
984.43	4378.56
984.59	4296.64
984.75	4304.83
984.91	4323.26
985.08	4401.08
985.24	4323.26
985.40	4147.14
985.56	4310.97
985.72	4351.93
985.88	4333.50
986.04	4114.37
986.20	4163.52
986.37	4097.99
986.53	4114.37
986.69	4044.74
986.85	4122.56
987.01	4186.05
987.17	4167.62
987.33	3991.49
987.49	4071.36
987.65	4140.99
987.82	4046.79
987.98	4075.46
988.14	4020.16
988.30	4014.02
988.46	3899.33
988.62	4050.88
988.78	3960.77
988.94	3981.25
989.10	3964.87
989.26	3815.37
989.42	3934.15
989.59	3903.43
989.75	3960.77
989.91	3960.77
990.07	3844.04
990.23	3973.06
990.39	3852.23
990.55	3946.44
990.71	3835.85
990.87	3893.19
991.03	3846.09
991.19	3803.08
991.35	3725.26
991.51	3790.79
991.67	3909.57
991.83	3807.17
992.00	3846.09
992.16	3923.91
992.32	3907.52
992.48	3837.89
992.64	3653.58
992.80	3766.21
992.96	3739.59
993.12	3780.55
993.28	3780.55
993.44	3665.86
993.60	3723.21
993.76	3753.93
993.92	3725.26
994.08	3821.51
994.24	3721.16
994.40	3692.49
994.56	3719.11
994.72	3588.04
994.88	3590.09
995.04	3631.05
995.20	3579.85
995.36	3549.13
995.52	3590.09
995.68	3610.57
995.84	3459.02
996.00	3702.73
996.16	3522.51
996.32	3641.29
996.48	3514.31
996.64	3647.43
996.80	3487.69
996.96	3524.55
997.12	3534.79
997.28	3358.67
997.44	3520.46
997.60	3428.30
997.76	3497.93
997.92	3508.17
998.08	3332.05
998.24	3461.07
998.40	3358.67
998.56	3448.78
998.72	3309.52
998.88	3411.92
999.04	3506.12
999.20	3467.21
999.36	3301.33
999.52	3426.25
999.68	3430.35
999.84	3381.20
1000.00	3352.52
1000.16	3440.59
1000.32	3274.70
1000.48	3411.92
1000.64	3243.98
1000.80	3149.78
1000.95	3297.23
1001.11	3338.19
1001.27	3178.45
1001.43	3336.14
1001.59	3266.51
1001.75	3164.11
1001.91	3284.94
1002.07	3200.98
1002.23	3182.54
1002.39	3307.47
1002.55	3196.88
1002.71	3231.69
1002.87	3205.07
1003.03	3076.05
1003.19	3061.71
1003.34	3133.39
1003.50	3076.05
1003.66	3170.26
1003.82	3186.64
1003.98	3086.29
1004.14	3129.30
1004.30	3084.24
1004.46	3076.05
1004.62	3008.47
1004.78	3053.52
1004.94	3078.10
1005.09	3131.34
1005.25	3037.14
1005.41	2990.03
1005.57	2938.84
1005.73	3092.43
1005.89	3010.51
1006.05	3094.48
1006.21	2940.88
1006.37	3016.66
1006.52	3016.66
1006.68	2975.70
1006.84	2942.93
1007.00	2877.40
1007.16	3055.57
1007.32	2871.25
1007.48	2836.44
1007.64	2895.83
1007.79	2897.88
1007.95	2904.02
1008.11	3018.71
1008.27	2901.97
1008.43	2926.55
1008.59	2998.23
1008.75	2971.60
1008.91	2818.00
1009.06	2836.44
1009.22	2918.36
1009.38	2963.41
1009.54	2934.74
1009.70	2836.44
1009.86	2772.95
1010.01	2936.79
1010.17	2820.05
1010.33	2805.72
1010.49	2838.48
1010.65	2830.29
1010.81	2701.27
1010.96	2783.19
1011.12	2852.82
1011.28	2666.46
1011.44	2717.65
1011.60	2701.27
1011.76	2828.24
1011.91	2809.81
1012.07	2576.34
1012.23	2613.21
1012.39	2711.51
1012.55	2715.61
1012.71	2709.46
1012.86	2637.78
1013.02	2629.59
1013.18	2666.46
1013.34	2686.94
1013.50	2723.80
1013.65	2639.83
1013.81	2584.54
1013.97	2576.34
1014.13	2656.22
1014.29	2676.70
1014.44	2734.04
1014.60	2574.30
1014.76	2584.54
1014.92	2525.15
1015.07	2572.25
1015.23	2607.06
1015.39	2488.28
1015.55	2602.97
1015.71	2625.50
1015.86	2582.49
1016.02	2498.52
1016.18	2461.66
1016.34	2543.58
1016.49	2457.56
1016.65	2643.93
1016.81	2473.95
1016.97	2510.81
1017.12	2598.87
1017.28	2406.36
1017.44	2471.90
1017.60	2439.13
1017.75	2500.57
1017.91	2428.89
1018.07	2469.85
1018.23	2572.25
1018.38	2420.70
1018.54	2482.14
1018.70	2447.32
1018.86	2426.84
1019.01	2375.64
1019.17	2437.08
1019.33	2519.00
1019.49	2412.51
1019.64	2463.71
1019.80	2383.84
1019.96	2492.38
1020.12	2441.18
1020.27	2332.64
1020.43	2371.55
1020.59	2430.94
1020.74	2463.71
1020.90	2449.37
1021.06	2273.25
1021.22	2361.31
1021.37	2435.03
1021.53	2254.81
1021.69	2367.45
1021.84	2297.82
1022.00	2369.50
1022.16	2377.69
1022.31	2271.20
1022.47	2310.11
1022.63	2451.42
1022.79	2265.05
1022.94	2301.92
1023.10	2383.84
1023.26	2351.07
1023.41	2285.53
1023.57	2314.20
1023.73	2369.50
1023.88	2297.82
1024.04	2250.72
1024.20	2144.22
1024.35	2275.29
1024.51	2301.92
1024.67	2226.14
1024.82	2369.50
1024.98	2220.00
1025.14	2168.80
1025.29	2252.77
1025.45	2332.64
1025.61	2213.85
1025.76	2183.13
1025.92	2181.09
1026.08	2281.44
1026.23	2250.72
1026.39	2263.01
1026.55	2176.99
1026.70	2166.75
1026.86	2166.75
1027.02	2279.39
1027.17	2170.85
1027.33	2189.28
1027.48	2113.50
1027.64	2170.85
1027.80	2029.54
1027.95	2193.37
1028.11	2078.69
1028.27	2131.94
1028.42	2131.94
1028.58	2174.94
1028.73	2097.12
1028.89	2052.06
1029.05	2152.42
1029.20	2176.99
>>>>>End Processed Spectral Data<<<<<
