SpectraSuite Data File
++++++++++++++++++++++++++++++++++++
Date: Fri Jun 02 14:57:19 CEST 2017
User: INFO_000
Dark Spectrum Present: No
Reference Spectrum Present: No
Number of Sampled Component Spectra: 1
Spectrometers: USB4H00879
Integration Time (usec): 80000 (USB4H00879)
Spectra Averaged: 1 (USB4H00879)
Boxcar Smoothing: 0 (USB4H00879)
Correct for Electrical Dark: No (USB4H00879)
Strobe/Lamp Enabled: No (USB4H00879)
Correct for Detector Non-linearity: No (USB4H00879)
Correct for Stray Light: No (USB4H00879)
Number of Pixels in Processed Spectrum: 3648
>>>>>Begin Processed Spectral Data<<<<<
345.13	1243.12
345.34	1243.12
345.56	1243.12
345.78	1239.02
345.99	1304.56
346.21	1667.05
346.42	1691.62
346.64	1607.66
346.86	1812.45
347.07	1687.53
347.29	1728.49
347.50	1624.04
347.72	1642.47
347.94	1744.87
348.15	1564.65
348.37	1632.23
348.59	1601.51
348.80	1699.81
349.02	1767.40
349.23	1898.47
349.45	1828.84
349.67	1900.52
349.88	1791.97
350.10	1986.53
350.31	1961.95
350.53	1816.55
350.75	1959.91
350.96	1742.82
351.18	1888.23
351.39	1925.09
351.61	1787.88
351.82	1925.09
352.04	1900.52
352.26	1904.61
352.47	1890.28
352.69	1984.48
352.90	1738.73
353.12	1863.65
353.34	1832.93
353.55	1994.72
353.77	1914.85
353.98	1894.37
354.20	1816.55
354.41	1902.56
354.63	1941.47
354.85	1986.53
355.06	1957.86
355.28	1738.73
355.49	1904.61
355.71	1929.19
355.92	1845.22
356.14	1947.62
356.35	1785.83
356.57	1847.27
356.79	1912.80
357.00	1869.80
357.22	2031.58
357.43	1920.99
357.65	1964.00
357.86	1853.41
358.08	1867.75
358.29	1894.37
358.51	1982.43
358.72	1994.72
358.94	1998.82
359.16	1976.29
359.37	2025.44
359.59	1957.86
359.80	1964.00
360.02	1964.00
360.23	1984.48
360.45	1980.39
360.66	1880.04
360.88	1955.81
361.09	1964.00
361.31	1892.32
361.52	1990.63
361.74	2062.30
361.95	2025.44
362.17	1910.75
362.38	2035.68
362.60	1953.76
362.81	1910.75
363.03	1918.95
363.24	1925.09
363.46	2154.46
363.67	2050.02
363.89	1939.43
364.10	1937.38
364.32	1978.34
364.53	2039.78
364.75	1982.43
364.96	1994.72
365.18	1941.47
365.39	2031.58
365.61	1957.86
365.82	2105.31
366.04	2041.82
366.25	1964.00
366.47	1978.34
366.68	2009.06
366.90	1978.34
367.11	2035.68
367.33	2109.41
367.54	2119.65
367.76	2007.01
367.97	2062.30
368.19	2105.31
368.40	2054.11
368.62	1994.72
368.83	1982.43
369.05	2027.49
369.26	1980.39
369.48	1935.33
369.69	2076.64
369.91	2060.26
370.12	1949.67
370.33	2154.46
370.55	1984.48
370.76	2060.26
370.98	2097.12
371.19	2088.93
371.41	2101.22
371.62	2058.21
371.84	2050.02
372.05	2148.32
372.27	2090.98
372.48	2043.87
372.69	2136.03
372.91	2170.85
373.12	2138.08
373.34	2191.33
373.55	2174.94
373.77	2099.17
373.98	2076.64
374.20	2174.94
374.41	2244.57
374.62	2080.74
374.84	2136.03
375.05	2207.71
375.27	2164.70
375.48	2203.61
375.70	2123.74
375.91	2207.71
376.12	2271.20
376.34	2199.52
376.55	2246.62
376.77	2148.32
376.98	2056.16
377.19	2158.56
377.41	2099.17
377.62	2158.56
377.84	2244.57
378.05	2355.16
378.27	2168.80
378.48	2303.96
378.69	2308.06
378.91	2203.61
379.12	2213.85
379.34	2191.33
379.55	2285.53
379.76	2230.24
379.98	2236.38
380.19	2269.15
380.41	2271.20
380.62	2279.39
380.83	2269.15
381.05	2250.72
381.26	2377.69
381.47	2336.73
381.69	2252.77
381.90	2394.08
382.12	2320.35
382.33	2242.53
382.54	2349.02
382.76	2295.77
382.97	2375.64
383.19	2240.48
383.40	2408.41
383.61	2394.08
383.83	2234.33
384.04	2328.54
384.25	2398.17
384.47	2361.31
384.68	2367.45
384.89	2332.64
385.11	2359.26
385.32	2398.17
385.54	2375.64
385.75	2275.29
385.96	2414.56
386.18	2416.60
386.39	2455.51
386.60	2394.08
386.82	2396.12
387.03	2412.51
387.24	2490.33
387.46	2504.67
387.67	2449.37
387.88	2541.53
388.10	2471.90
388.31	2537.43
388.52	2596.82
388.74	2461.66
388.95	2508.76
389.16	2568.15
389.38	2570.20
389.59	2562.01
389.80	2748.37
390.02	2486.23
390.23	2695.13
390.44	2457.56
390.66	2547.67
390.87	2568.15
391.08	2641.88
391.30	2580.44
391.51	2609.11
391.72	2664.41
391.94	2633.69
392.15	2703.32
392.36	2670.55
392.58	2523.10
392.79	2633.69
393.00	2721.75
393.22	2801.62
393.43	2691.03
393.64	2789.33
393.85	2772.95
394.07	2688.98
394.28	2822.10
394.49	2799.57
394.71	2770.90
394.92	2813.91
395.13	2740.18
395.35	2820.05
395.56	2891.73
395.77	2777.05
395.98	2768.85
396.20	2877.40
396.41	2760.66
396.62	2908.12
396.84	2775.00
397.05	2830.29
397.26	2852.82
397.47	2854.87
397.69	2789.33
397.90	3037.14
398.11	2899.92
398.32	2879.44
398.54	2924.50
398.75	3010.51
398.96	2985.94
399.18	3049.43
399.39	2963.41
399.60	3041.23
399.81	2901.97
400.03	3000.27
400.24	3237.84
400.45	2897.88
400.66	3096.53
400.88	3037.14
401.09	3133.39
401.30	2977.75
401.51	3164.11
401.73	3131.34
401.94	3178.45
402.15	2901.97
402.36	3145.68
402.58	3196.88
402.79	3196.88
403.00	3157.97
403.21	3235.79
403.43	3174.35
403.64	3420.11
403.85	3035.09
404.06	3190.74
404.27	3106.77
404.49	3239.89
404.70	3182.54
404.91	3334.09
405.12	3280.85
405.34	3239.89
405.55	3444.68
405.76	3211.22
405.97	3219.41
406.19	3311.57
406.40	3289.04
406.61	3295.18
406.82	3418.06
407.03	3362.76
407.25	3313.61
407.46	3399.63
407.67	3411.92
407.88	3426.25
408.09	3391.44
408.31	3305.42
408.52	3411.92
408.73	3424.20
408.94	3319.76
409.15	3375.05
409.37	3559.37
409.58	3540.94
409.79	3454.92
410.00	3682.25
410.21	3436.49
410.43	3395.53
410.64	3416.01
410.85	3590.09
411.06	3516.36
411.27	3522.51
411.48	3643.34
411.70	3553.23
411.91	3514.31
412.12	3508.17
412.33	3547.08
412.54	3598.28
412.76	3694.54
412.97	3495.88
413.18	3520.46
413.39	3565.51
413.60	3727.30
413.81	3659.72
414.03	3624.90
414.24	3561.42
414.45	3801.03
414.66	3590.09
414.87	3676.10
415.08	3647.43
415.30	3743.69
415.51	3770.31
415.72	3655.62
415.93	3758.02
416.14	3760.07
416.35	3821.51
416.56	3735.50
416.78	3723.21
416.99	3893.19
417.20	3846.09
417.41	3792.84
417.62	3971.01
417.83	3917.76
418.04	3942.34
418.26	3954.63
418.47	3901.38
418.68	3885.00
418.89	3977.16
419.10	4069.31
419.31	3950.53
419.52	4026.31
419.73	4042.69
419.95	4136.90
420.16	3960.77
420.37	4007.87
420.58	3987.40
420.79	4087.75
421.00	4081.60
421.21	4181.95
421.42	4079.55
421.63	4175.81
421.85	4192.19
422.06	4300.73
422.27	4202.43
422.48	4222.91
422.69	4257.73
422.90	4100.03
423.11	4239.30
423.32	4259.78
423.53	4333.50
423.75	4366.27
423.96	4419.52
424.17	4411.32
424.38	4433.85
424.59	4431.80
424.80	4620.22
425.01	4521.92
425.22	4353.98
425.43	4466.62
425.64	4642.75
425.85	4534.20
426.06	4515.77
426.28	4577.21
426.49	4466.62
426.70	4372.41
426.91	4640.70
427.12	4691.90
427.33	4628.41
427.54	4554.68
427.75	4609.98
427.96	4798.39
428.17	4732.86
428.38	4882.36
428.59	4947.89
428.80	4835.25
429.01	4839.35
429.23	4825.01
429.44	5046.20
429.65	5021.62
429.86	4900.79
430.07	4749.24
430.28	4882.36
430.49	4978.61
430.70	5081.01
430.91	5107.63
431.12	4855.73
431.33	5197.74
431.54	5072.82
431.75	5158.83
431.96	5097.39
432.17	5083.06
432.38	5203.89
432.59	5281.71
432.80	5220.27
433.01	5265.33
433.22	5226.42
433.43	5171.12
433.64	5128.11
433.85	5330.86
434.06	5355.44
434.27	5326.77
434.49	5304.24
434.70	5361.58
434.91	5484.46
435.12	5486.51
435.33	5400.49
435.54	5447.60
435.75	5398.45
435.96	5306.29
436.17	5455.79
436.38	5705.64
436.59	5521.32
436.80	5476.27
437.01	5687.21
437.22	5683.11
437.43	5717.93
437.64	5681.07
437.85	5767.08
438.06	5818.28
438.27	5535.66
438.48	5724.07
438.69	5914.53
438.90	5652.39
439.11	5769.13
439.32	5883.81
439.53	5822.38
439.74	5851.05
439.95	5896.10
440.16	5883.81
440.37	6037.41
440.57	5644.20
440.78	5980.07
440.99	6008.74
441.20	5935.01
441.41	5816.23
441.62	5738.41
441.83	6025.12
442.04	6129.57
442.25	6053.80
442.46	6170.53
442.67	6252.45
442.88	6496.16
443.09	6127.52
443.30	6064.04
443.51	6137.76
443.72	6309.79
443.93	6064.04
444.14	6522.78
444.35	6135.71
444.56	6315.94
444.77	6418.33
444.98	6238.11
445.19	6422.43
445.40	6360.99
445.61	6387.61
445.81	6463.39
446.02	6561.69
446.23	6426.53
446.44	6449.05
446.65	6582.17
446.86	6471.58
447.07	6592.41
447.28	6676.38
447.49	6627.23
447.70	6700.95
447.91	6514.59
448.12	6754.20
448.33	6805.40
448.54	6664.09
448.74	6557.60
448.95	6815.64
449.16	6717.34
449.37	7135.12
449.58	6774.68
449.79	6793.11
450.00	6590.36
450.21	6893.46
450.42	7020.44
450.63	7055.25
450.84	6989.72
451.05	6985.62
451.25	6905.75
451.46	6987.67
451.67	7182.23
451.88	7139.22
452.09	7098.26
452.30	7229.33
452.51	7094.16
452.72	7407.50
452.93	7417.74
453.13	7198.61
453.34	7190.42
453.55	7344.02
453.76	7208.85
453.97	7528.33
454.18	7307.15
454.39	7499.66
454.60	7505.81
454.81	7497.61
455.01	7698.31
455.22	7305.10
455.43	7634.83
455.64	7856.01
455.85	7784.33
456.06	8011.65
456.27	7767.95
456.48	7718.79
456.68	7792.52
456.89	7962.50
457.10	7806.86
457.31	8048.52
457.52	7866.25
457.73	7978.89
457.94	8101.76
458.14	7874.44
458.35	8243.07
458.56	8152.96
458.77	8126.34
458.98	8277.89
459.19	8265.60
459.39	8439.68
459.60	8458.11
459.81	8320.90
460.02	8599.42
460.23	8449.92
460.44	8677.24
460.65	8429.44
460.85	8638.33
461.06	8869.75
461.27	8529.79
461.48	9019.25
461.69	9027.45
461.89	8474.49
462.10	8843.13
462.31	8580.99
462.52	8771.45
462.73	8879.99
462.94	9138.04
463.14	9033.59
463.35	8882.04
463.56	9379.70
463.77	9461.62
463.98	9179.00
464.18	9250.67
464.39	9267.06
464.60	9553.77
464.81	9512.81
465.02	9502.58
465.23	9840.49
465.43	9582.45
465.64	9850.73
465.85	9674.60
466.06	9719.66
466.27	10063.72
466.47	9914.22
466.68	9789.29
466.89	10073.96
467.10	10008.42
467.30	9961.32
467.51	10125.16
467.72	10364.77
467.93	10051.43
468.14	10329.95
468.34	10295.14
468.55	10399.59
468.76	10512.22
468.97	10260.32
469.17	10590.05
469.38	10510.18
469.59	10821.47
469.80	10573.66
470.01	10727.26
470.21	10872.67
470.42	10893.15
470.63	11249.49
470.84	10973.02
471.04	11288.40
471.25	11206.48
471.46	11323.22
471.67	11349.84
471.87	11398.99
472.08	11550.54
472.29	11702.09
472.50	11380.56
472.70	11552.59
472.91	11671.37
473.12	11917.13
473.33	11812.68
473.53	12232.52
473.74	11900.75
473.95	12201.80
474.16	12048.20
474.36	12422.98
474.57	12595.01
474.78	12609.34
474.99	12386.12
475.19	12408.64
475.40	12695.36
475.61	12728.13
475.81	12838.72
476.02	13215.54
476.23	12803.90
476.44	13053.75
476.64	13276.98
476.85	13604.66
477.06	13426.48
477.27	13877.04
477.47	13612.85
477.68	13643.57
477.89	13606.70
478.09	13696.82
478.30	13971.24
478.51	14026.54
478.71	14182.18
478.92	14333.73
479.13	13999.91
479.34	14352.16
479.54	14544.67
479.75	14356.26
479.96	14688.03
480.16	14614.30
480.37	14649.12
480.58	14868.25
480.78	15091.48
480.99	15054.62
481.20	15114.01
481.41	15378.20
481.61	15191.83
481.82	15247.13
482.03	15486.74
482.23	15404.82
482.44	15925.00
482.65	15904.53
482.85	16054.03
483.06	15773.46
483.27	15896.33
483.47	16191.24
483.68	16271.11
483.89	16256.78
484.09	16244.49
484.30	16461.57
484.51	16723.71
484.71	16764.67
484.92	16570.12
485.13	16637.70
485.33	16951.04
485.54	16637.70
485.75	17217.27
485.95	17211.13
486.16	17231.61
486.37	17553.14
486.57	17270.52
486.78	17207.03
486.98	17825.52
487.19	17645.30
487.40	18175.72
487.60	17637.11
487.81	18149.10
488.02	17848.05
488.22	17807.09
488.43	18003.69
488.64	18206.44
488.84	18407.14
489.05	18730.72
489.25	18548.45
489.46	18886.37
489.67	18573.03
489.87	19074.78
490.08	18966.24
490.29	18906.85
490.49	19574.49
490.70	19312.35
490.90	19472.09
491.11	19332.82
491.32	19343.06
491.52	19511.00
491.73	19797.71
491.94	19748.56
492.14	19715.80
492.35	20170.44
492.55	20066.00
492.76	20205.26
492.97	20408.01
493.17	20180.68
493.38	20334.28
493.58	20555.46
493.79	20637.38
494.00	20590.28
494.20	20850.37
494.41	20885.19
494.61	21061.31
494.82	21067.45
495.02	20926.14
495.23	20960.96
495.44	21419.71
495.64	21540.54
495.85	21384.89
496.05	21556.92
496.26	21405.37
496.47	21493.43
496.67	21569.21
496.88	21907.12
497.08	21948.08
497.29	22230.70
497.49	22296.24
497.70	22070.96
497.91	22435.50
498.11	22367.91
498.32	22587.05
498.52	22331.05
498.73	22877.86
498.93	22617.77
499.14	22761.12
499.34	22656.68
499.55	22980.26
499.76	22884.00
499.96	23105.18
500.17	22970.02
500.37	23309.98
500.58	23342.75
500.78	23088.80
500.99	23422.62
501.19	23588.50
501.40	23543.45
501.60	23649.94
501.81	23764.63
502.02	23733.91
502.22	23604.89
502.43	23832.21
502.63	24026.77
502.84	24104.59
503.04	23977.62
503.25	23830.16
503.45	24436.36
503.66	24489.61
503.86	24262.29
504.07	24706.70
504.27	24188.56
504.48	24559.24
504.68	24612.49
504.89	24888.96
505.09	24929.92
505.30	24850.05
505.50	25196.16
505.71	24913.54
505.91	25249.41
506.12	25386.62
506.32	25163.39
506.53	25050.75
506.73	25540.22
506.94	25589.37
507.14	25091.71
507.35	25343.61
507.55	25538.17
507.76	25919.09
507.96	25806.45
508.17	25636.47
508.37	25499.26
508.58	25826.93
508.78	25949.81
508.99	25900.66
509.19	26117.75
509.40	26039.92
509.60	26199.66
509.81	26293.87
510.01	26037.87
510.22	26533.48
510.42	26429.04
510.63	26398.32
510.83	26678.89
511.04	26504.81
511.24	26875.49
511.44	26705.51
511.65	26650.22
511.85	26670.70
512.06	26799.72
512.26	26879.59
512.47	27086.43
512.67	27160.16
512.88	26863.21
513.08	26844.77
513.29	27092.58
513.49	27119.20
513.69	27598.43
513.90	26986.08
514.10	27268.70
514.31	27436.64
514.51	27545.18
514.72	27356.77
514.92	27483.74
515.13	27725.40
515.33	27639.39
515.53	27625.05
515.74	28046.93
515.94	27803.22
516.15	27700.83
516.35	27811.42
516.56	27983.44
516.76	27954.77
516.96	28036.69
517.17	28163.67
517.37	28155.47
517.58	28372.56
517.78	28487.25
517.99	28231.25
518.19	28427.85
518.39	28665.42
518.60	28477.01
518.80	28589.64
519.01	28673.61
519.21	28663.37
519.41	28667.47
519.62	28505.68
519.82	28640.84
520.03	29175.36
520.23	28819.02
520.43	29296.19
520.64	29394.50
520.84	29320.77
521.05	29251.14
521.25	29541.95
521.45	29855.29
521.66	29832.76
521.86	29873.72
522.07	29787.71
522.27	29638.20
522.47	29771.32
522.68	30094.90
522.88	30019.13
523.08	30205.49
523.29	29826.62
523.49	29877.82
523.70	30365.23
523.90	30400.05
524.10	30334.51
524.31	30676.52
524.51	30682.67
524.71	30912.04
524.92	30785.07
525.12	31065.64
525.33	30924.33
525.53	31159.84
525.73	31211.04
525.94	31290.91
526.14	31196.71
526.34	31407.65
526.55	31276.58
526.75	31370.79
526.95	31577.63
527.16	31559.20
527.36	31579.68
527.56	32013.85
527.77	32325.14
527.97	31905.31
528.17	31890.97
528.38	32454.16
528.58	32222.74
528.78	32232.98
528.99	32101.91
529.19	32599.57
529.39	32042.52
529.60	32757.26
529.80	32249.36
530.00	32595.47
530.21	33252.87
530.41	33312.26
530.61	32917.00
530.82	33076.74
531.02	33013.26
531.22	33027.59
531.43	33527.30
531.63	33613.31
531.83	33680.89
532.04	34129.40
532.24	33504.77
532.44	34174.45
532.64	34035.19
532.85	34260.47
533.05	33951.23
533.25	34254.33
533.46	33943.03
533.66	34420.21
533.86	34170.36
534.07	34745.84
534.27	34403.83
534.47	34872.81
534.67	34891.24
534.88	34827.76
535.08	34881.00
535.28	34909.68
535.49	35122.66
535.69	35407.33
535.89	35331.56
536.09	35239.40
536.30	35462.63
536.50	35694.05
536.70	36136.41
536.91	35624.42
537.11	35718.62
537.31	35966.43
537.51	35739.10
537.72	36283.86
537.92	36269.53
538.12	36277.72
538.32	36261.33
538.53	36576.72
538.73	36365.78
538.93	36292.05
539.13	36423.12
539.34	36636.11
539.54	36144.60
539.74	36908.49
539.94	36709.84
540.15	37002.70
540.35	37334.47
540.55	36980.17
540.75	36791.76
540.96	37395.91
541.16	37199.30
541.36	37264.84
541.56	37985.72
541.77	37543.36
541.97	37975.48
542.17	37819.84
542.37	37559.75
542.58	37629.38
542.78	37948.86
542.98	37842.37
543.18	38012.35
543.38	38297.02
543.59	38469.04
543.79	38540.72
543.99	38456.76
544.19	38460.85
544.40	38243.77
544.60	38692.27
544.80	38460.85
545.00	38370.74
545.20	38612.40
545.41	38593.97
545.61	38487.48
545.81	38886.83
546.01	39298.47
546.21	39083.44
546.42	38487.48
546.62	39409.06
546.82	38886.83
547.02	38946.22
547.22	39138.73
547.43	39605.67
547.63	38833.58
547.83	39220.65
548.03	39259.56
548.23	39404.97
548.44	39794.08
548.64	40023.45
548.84	39822.75
549.04	39548.32
549.24	39933.34
549.45	40222.11
549.65	40132.00
549.85	39990.69
550.05	40285.59
550.25	40201.63
550.45	40390.04
550.66	40279.45
550.86	40269.21
551.06	40703.38
551.26	40713.62
551.46	40447.38
551.66	40895.89
551.87	40572.31
552.07	40486.29
552.27	40480.15
552.47	40635.80
552.67	40338.84
552.87	40910.22
553.07	40750.48
553.28	40961.42
553.48	41074.06
553.68	40969.61
553.88	41588.10
554.08	41076.11
554.28	41180.56
554.48	40916.37
554.69	41231.75
554.89	40992.14
555.09	41538.95
555.29	41098.64
555.49	41225.61
555.69	41465.22
555.89	41526.66
556.10	41541.00
556.30	41276.81
556.50	41813.38
556.70	41360.78
556.90	41649.54
557.10	41627.01
557.30	41354.63
557.50	41942.40
557.70	41969.02
557.91	41932.16
558.11	41690.50
558.31	42114.43
558.51	41930.11
558.71	42143.10
558.91	42231.16
559.11	41764.23
559.31	42200.44
559.51	42069.37
559.72	42134.91
559.92	42483.06
560.12	42220.92
560.32	42827.12
560.52	42323.32
560.72	42200.44
560.92	42759.54
561.12	42655.09
561.32	42755.44
561.52	42362.23
561.72	43283.82
561.93	42489.21
562.13	42366.33
562.33	42687.86
562.53	43054.45
562.73	42743.16
562.93	42712.44
563.13	42855.79
563.33	42526.07
563.53	43146.61
563.73	42544.50
563.93	42497.40
564.13	43429.23
564.33	42847.60
564.53	42767.73
564.74	43314.54
564.94	42952.05
565.14	43451.75
565.34	43038.06
565.54	43398.51
565.74	43076.97
565.94	43437.42
566.14	43103.60
566.34	43328.87
566.54	43691.37
566.74	43390.31
566.94	43963.75
567.14	43892.07
567.34	43769.19
567.54	43732.32
567.74	44023.14
567.94	43427.18
568.14	43988.32
568.34	43963.75
568.54	43703.65
568.74	43668.84
568.94	43756.90
569.14	44119.39
569.34	43779.43
569.54	44082.53
569.75	44060.00
569.95	43926.88
570.15	44584.28
570.35	44234.08
570.55	44176.73
570.75	44420.44
570.95	44055.90
571.15	44735.83
571.35	44559.70
571.55	44262.75
571.75	44533.08
571.95	44320.09
572.15	44447.07
572.35	44815.70
572.55	44434.78
572.75	44371.29
572.95	44723.54
573.15	45016.40
573.35	44664.15
573.55	44766.55
573.75	44907.86
573.95	45047.12
574.15	44895.57
574.35	45198.67
574.55	45014.35
574.75	44954.96
574.95	44973.39
575.15	44991.83
575.34	45317.45
575.54	45552.97
575.74	45600.07
575.94	45794.63
576.14	45331.79
576.34	45555.02
576.54	45528.39
576.74	46056.77
576.94	45557.06
577.14	45888.84
577.34	46181.70
577.54	45651.27
577.74	45794.63
577.94	46050.63
578.14	46406.97
578.34	46187.84
578.54	45784.39
578.74	45913.41
578.94	46026.05
579.14	46146.88
579.34	45976.90
579.54	46587.19
579.74	46628.15
579.94	46449.98
580.13	46523.71
580.33	46761.27
580.53	46681.40
580.73	46957.88
580.93	47080.75
581.13	46740.79
581.33	47136.05
581.53	47295.79
581.73	46890.29
581.93	47426.86
582.13	47125.81
582.33	47269.17
582.53	47303.98
582.73	47785.25
582.92	47484.20
583.12	47539.50
583.32	47600.94
583.52	47279.41
583.72	47672.62
583.92	47740.20
584.12	47506.73
584.32	48125.22
584.52	47645.99
584.72	47492.40
584.92	47738.15
585.11	48200.99
585.31	47756.58
585.51	48211.23
585.71	47947.04
585.91	48362.78
586.11	47979.81
586.31	48235.81
586.51	48170.27
586.71	48846.10
586.91	48624.92
587.10	48497.95
587.30	48848.15
587.50	48702.74
587.70	48659.74
587.90	48438.56
588.10	48657.69
588.30	48774.42
588.50	48495.90
588.69	48717.08
588.89	48856.34
589.09	48854.29
589.29	48776.47
589.49	49390.86
589.69	49059.09
589.89	49470.73
590.08	49171.73
590.28	49380.62
590.48	49296.66
590.68	49235.22
590.88	49284.37
591.08	49648.91
591.28	49120.53
591.47	49878.28
591.67	49480.97
591.87	49630.47
592.07	49724.68
592.27	49763.59
592.47	49456.40
592.67	49706.25
592.86	49624.33
593.06	49970.44
593.26	49825.03
593.46	49966.34
593.66	49878.28
593.86	49986.82
594.05	50291.97
594.25	50222.34
594.45	49995.01
594.65	49603.85
594.85	49544.46
595.05	50652.41
595.24	50578.68
595.44	50330.88
595.64	50709.75
595.84	50117.89
596.04	50502.91
596.23	50752.76
596.43	50715.90
596.63	50820.34
596.83	50412.80
597.03	51053.81
597.22	51356.91
597.42	50797.82
597.62	51352.82
597.82	51676.40
598.02	51090.68
598.21	51539.18
598.41	51131.64
598.61	51467.50
598.81	51352.82
599.01	51879.14
599.20	51483.89
599.40	50746.62
599.60	51479.79
599.80	51463.41
600.00	51643.63
600.19	51619.05
600.39	51614.96
600.59	51829.99
600.79	51725.55
600.98	51354.86
601.18	52286.69
601.38	52210.92
601.58	52034.79
601.78	51864.81
601.97	51649.77
602.17	52292.83
602.37	52493.54
602.57	52581.60
602.76	52704.48
602.96	52190.44
603.16	52659.42
603.36	52632.80
603.55	52929.75
603.75	52702.43
603.95	52874.46
604.15	52890.84
604.34	52837.59
604.54	52964.57
604.74	52507.87
604.94	53042.39
605.13	52978.90
605.33	53177.56
605.53	53146.84
605.73	53427.41
605.92	53146.84
606.12	53421.26
606.32	53169.36
606.52	53728.46
606.71	53402.83
606.91	53691.60
607.11	53132.50
607.30	53927.11
607.50	53664.97
607.70	53664.97
607.90	53621.97
608.09	53556.43
608.29	53376.21
608.49	53763.28
608.68	53527.76
608.88	53972.17
609.08	53728.46
609.28	54164.68
609.47	53566.67
609.67	54564.03
609.87	53834.95
610.06	54346.95
610.26	54033.61
610.46	54154.44
610.66	54154.44
610.85	54013.13
611.05	54203.59
611.25	54727.87
611.44	53923.02
611.64	54377.67
611.84	53929.16
612.03	53984.46
612.23	54318.28
612.43	54412.48
612.62	54273.22
612.82	54406.34
613.02	54598.85
613.21	54289.60
613.41	54404.29
613.61	54543.55
613.80	54615.23
614.00	54863.03
614.20	54564.03
614.39	54355.14
614.59	54699.20
614.79	54420.67
614.98	54539.46
615.18	54811.84
615.38	54920.38
615.57	54428.87
615.77	54949.05
615.97	54729.92
616.16	54572.22
616.36	54455.49
616.56	54596.80
616.75	54604.99
616.95	54355.14
617.15	54471.87
617.34	54701.25
617.54	54396.10
617.74	55211.19
617.93	54754.49
618.13	54578.37
618.32	54979.77
618.52	54256.84
618.72	54836.41
618.91	54660.29
619.11	54932.67
619.31	54838.46
619.50	54656.19
619.70	54797.50
619.90	54699.20
620.09	54541.50
620.29	54998.20
620.48	54637.76
620.68	55006.39
620.88	54281.41
621.07	54947.00
621.27	54791.36
621.46	54676.67
621.66	54467.78
621.86	54486.21
622.05	54572.22
622.25	55198.90
622.44	54543.55
622.64	54777.02
622.84	54742.20
623.03	54490.30
623.23	54834.36
623.42	54990.01
623.62	55008.44
623.82	54957.24
624.01	54992.06
624.21	54985.91
624.40	54686.91
624.60	54781.12
624.80	54359.23
624.99	54236.36
625.19	54488.26
625.38	54660.29
625.58	55180.47
625.77	54637.76
625.97	54850.75
626.17	54699.20
626.36	54549.70
626.56	54664.38
626.75	54453.44
626.95	54977.72
627.14	54885.56
627.34	54918.33
627.54	54695.10
627.73	54695.10
627.93	54187.21
628.12	54287.56
628.32	54826.17
628.51	54375.62
628.71	55194.81
628.90	54566.08
629.10	54568.13
629.30	54529.22
629.49	54613.18
629.69	54383.81
629.88	54469.82
630.08	54613.18
630.27	54971.58
630.47	55272.63
630.66	55360.69
630.86	54930.62
631.05	54334.66
631.25	55119.03
631.44	54815.93
631.64	54944.95
631.84	54396.10
632.03	55104.70
632.23	54944.95
632.42	55133.37
632.62	54879.42
632.81	54498.50
633.01	55004.34
633.20	55188.66
633.40	55092.41
633.59	55006.39
633.79	54785.21
633.98	54774.97
634.18	54580.42
634.37	54895.80
634.57	54955.19
634.76	54885.56
634.96	54828.22
635.15	55268.53
635.35	54744.25
635.54	54928.57
635.74	54979.77
635.93	54795.45
636.13	55186.61
636.32	55125.17
636.52	54629.57
636.71	55157.94
636.91	54990.01
637.10	55020.73
637.30	54650.05
637.49	54996.15
637.69	55215.29
637.88	55338.16
638.08	55039.16
638.27	55276.72
638.46	54813.88
638.66	55096.50
638.85	55407.79
639.05	55608.50
639.24	55123.13
639.44	54609.09
639.63	54992.06
639.83	54727.87
640.02	55477.43
640.22	55010.49
640.41	55180.47
640.61	54797.50
640.80	55428.27
640.99	55399.60
641.19	55702.70
641.38	55280.82
641.58	55047.35
641.77	55268.53
641.97	54871.23
642.16	55413.94
642.36	55698.61
642.55	55927.98
642.74	54949.05
642.94	55762.09
643.13	55557.30
643.33	55776.43
643.52	55483.57
643.72	55956.65
643.91	55188.66
644.10	55372.98
644.30	55839.92
644.49	55553.20
644.69	56057.00
644.88	55159.99
645.08	55024.82
645.27	55364.79
645.46	55413.94
645.66	55698.61
645.85	55303.35
646.05	55653.55
646.24	55633.07
646.43	56095.91
646.63	56075.43
646.82	55891.12
647.02	55700.65
647.21	55669.93
647.40	55565.49
647.60	55874.73
647.79	55891.12
647.99	55981.23
648.18	55680.17
648.37	56061.10
648.57	56040.62
648.76	55833.77
648.96	55745.71
649.15	56063.14
649.34	56278.18
649.54	56104.10
649.73	55661.74
649.92	56112.30
650.12	55948.46
650.31	56247.46
650.51	56423.59
650.70	56175.78
650.89	55655.60
651.09	56376.48
651.28	56276.13
651.47	56050.86
651.67	56374.44
651.86	56188.07
652.06	55446.71
652.25	55807.15
652.44	55989.42
652.64	55981.23
652.83	55864.49
653.02	56208.55
653.22	55803.05
653.41	55790.76
653.60	55923.88
653.80	55936.17
653.99	56136.87
654.18	56091.82
654.38	55964.84
654.57	55772.33
654.76	55874.73
654.96	56016.04
655.15	55719.09
655.34	56284.33
655.54	56249.51
655.73	56202.41
655.92	56542.37
656.12	56013.99
656.31	56020.14
656.50	56478.88
656.70	56071.34
656.89	56169.64
657.08	56505.51
657.28	56177.83
657.47	56356.00
657.66	56558.75
657.86	55801.00
658.05	56562.85
658.24	56345.76
658.43	55739.57
658.63	56372.39
658.82	56347.81
659.01	56927.39
659.21	56724.64
659.40	56515.75
659.59	55727.28
659.79	56542.37
659.98	56497.31
660.17	56491.17
660.36	56474.79
660.56	56198.31
660.75	56704.16
660.94	56034.47
661.14	56456.35
661.33	56329.38
661.52	55616.69
661.71	56882.33
661.91	56292.52
662.10	56339.62
662.29	56552.61
662.49	56378.53
662.68	56798.37
662.87	56239.27
663.06	56439.97
663.26	56218.79
663.45	56702.11
663.64	56239.27
663.83	57074.84
664.03	56460.45
664.22	56290.47
664.41	56554.66
664.60	56247.46
664.80	56462.50
664.99	56028.33
665.18	56435.87
665.37	56792.22
665.57	56540.32
665.76	56155.30
665.95	56323.24
666.14	56032.42
666.34	56226.98
666.53	56382.63
666.72	56394.92
666.91	56188.07
667.11	56562.85
667.30	56124.58
667.49	56513.70
667.68	56222.89
667.87	55850.16
668.07	56562.85
668.26	56595.62
668.45	56474.79
668.64	56093.86
668.84	57046.17
669.03	56849.56
669.22	56251.56
669.41	56458.40
669.60	56202.41
669.80	56521.89
669.99	56226.98
670.18	56278.18
670.37	56476.83
670.57	56769.69
670.76	56159.40
670.95	56493.22
671.14	56702.11
671.33	56083.62
671.53	56360.10
671.72	56954.01
671.91	56405.16
672.10	56009.90
672.29	56173.73
672.48	56046.76
672.68	56298.66
672.87	55981.23
673.06	55860.40
673.25	56112.30
673.44	55762.09
673.64	56151.21
673.83	56097.96
674.02	55811.24
674.21	55891.12
674.40	56259.75
674.59	55579.82
674.79	55991.47
674.98	56136.87
675.17	55938.22
675.36	55987.37
675.55	56128.68
675.74	55805.10
675.94	55841.96
676.13	56288.42
676.32	56362.15
676.51	56159.40
676.70	55944.36
676.89	55815.34
677.08	56059.05
677.28	55596.21
677.47	55944.36
677.66	56083.62
677.85	55827.63
678.04	56405.16
678.23	56454.31
678.42	56298.66
678.62	55954.60
678.81	56296.61
679.00	55784.62
679.19	56353.96
679.38	56001.71
679.57	56169.64
679.76	55612.59
679.96	55952.55
680.15	56116.39
680.34	55671.98
680.53	55491.76
680.72	56087.72
680.91	56057.00
681.10	55780.52
681.29	56052.90
681.48	55528.62
681.68	55467.19
681.87	55755.95
682.06	55618.74
682.25	55755.95
682.44	55768.24
682.63	55989.42
682.82	55295.16
683.01	55489.71
683.20	55080.12
683.39	55227.57
683.59	55186.61
683.78	55196.85
683.97	55258.29
684.16	55461.04
684.35	55231.67
684.54	55461.04
684.73	55100.60
684.92	55157.94
685.11	55508.14
685.30	55137.46
685.49	55573.68
685.69	55116.98
685.88	55198.90
686.07	55059.64
686.26	55348.40
686.45	55696.56
686.64	55180.47
686.83	55039.16
687.02	54977.72
687.21	55334.07
687.40	55258.29
687.59	55073.98
687.78	55026.87
687.97	55067.83
688.16	55127.22
688.35	54875.32
688.54	54762.68
688.74	55116.98
688.93	55071.93
689.12	54734.01
689.31	54600.89
689.50	54875.32
689.69	54445.25
689.88	54768.83
690.07	54955.19
690.26	55266.48
690.45	55141.56
690.64	54662.33
690.83	54617.28
691.02	54299.84
691.21	54920.38
691.40	54555.84
691.59	54787.26
691.78	54258.88
691.97	55239.86
692.16	54506.69
692.35	54559.94
692.54	54889.66
692.73	54217.92
692.92	54207.68
693.11	54201.54
693.30	54484.16
693.49	54088.90
693.68	54615.23
693.87	54310.08
694.06	54027.46
694.25	54453.44
694.44	54400.19
694.63	54095.05
694.82	53894.35
695.01	54023.37
695.20	53875.91
695.39	54424.77
695.58	54156.49
695.77	53513.42
695.96	53744.84
696.15	53902.54
696.34	53918.92
696.53	53865.67
696.72	54164.68
696.91	53753.04
697.10	53898.44
697.29	53966.02
697.48	53988.55
697.67	53812.43
697.86	53818.57
698.05	53750.99
698.24	54088.90
698.43	53331.15
698.62	53630.16
698.81	53515.47
699.00	53853.39
699.19	53488.85
699.38	53744.84
699.57	53443.79
699.76	53849.29
699.95	53499.09
700.14	53650.64
700.32	53378.26
700.51	53738.70
700.70	53511.38
700.89	53597.39
701.08	53531.86
701.27	53220.56
701.46	53974.22
701.65	52546.78
701.84	53421.26
702.03	53331.15
702.22	52747.48
702.41	53423.31
702.60	53302.48
702.79	52815.07
702.98	53071.06
703.17	53212.37
703.35	52954.33
703.54	52591.84
703.73	53218.52
703.92	53023.96
704.11	52806.87
704.30	52528.35
704.49	52974.81
704.68	53064.92
704.87	53048.53
705.06	52858.07
705.25	52868.31
705.43	52628.70
705.62	53300.43
705.81	52602.08
706.00	52653.28
706.19	52661.47
706.38	52698.33
706.57	52264.16
706.76	52382.94
706.95	52475.10
707.14	52376.80
707.32	52573.41
707.51	52049.13
707.70	52204.77
707.89	51938.54
708.08	52137.19
708.27	52124.90
708.46	52585.69
708.65	51989.73
708.84	51899.62
709.02	52049.13
709.21	52032.74
709.40	52260.07
709.59	51868.90
709.78	51410.16
709.97	52200.68
710.16	52020.45
710.34	52145.38
710.53	51920.10
710.72	51717.35
710.91	51838.18
711.10	51729.64
711.29	51860.71
711.48	51983.59
711.66	51672.30
711.85	51866.86
712.04	51703.02
712.23	51965.16
712.42	51381.49
712.61	51881.19
712.80	51602.67
712.98	51623.15
713.17	51320.05
713.36	51508.46
713.55	51557.61
713.74	51780.84
713.93	51526.89
714.11	51344.62
714.30	51324.14
714.49	50926.84
714.68	51375.34
714.87	51260.66
715.06	51453.17
715.24	51299.57
715.43	51422.45
715.62	50773.24
715.81	51064.05
716.00	51096.82
716.18	51158.26
716.37	50492.67
716.56	50984.18
716.75	51508.46
716.94	50963.70
717.12	50515.20
717.31	51385.58
717.50	50760.95
717.69	50789.62
717.88	50218.24
718.06	50818.30
718.25	50982.13
718.44	50218.24
718.63	50703.61
718.82	50248.96
719.00	50453.76
719.19	50668.79
719.38	49986.82
719.57	50015.49
719.76	50443.52
719.94	49988.87
720.13	49982.73
720.32	50021.64
720.51	49714.44
720.69	49902.85
720.88	49947.91
721.07	49986.82
721.26	49327.38
721.44	49534.22
721.63	49259.79
721.82	49452.30
722.01	49181.97
722.20	49626.38
722.38	49210.64
722.57	49257.74
722.76	49483.02
722.95	49423.63
723.13	48780.57
723.32	49018.13
723.51	48835.86
723.70	48796.95
723.88	48665.88
724.07	48948.50
724.26	48954.64
724.44	48747.80
724.63	48538.91
724.82	48665.88
725.01	48862.49
725.19	48813.34
725.38	48760.09
725.57	48043.30
725.76	48760.09
725.94	48420.13
726.13	48547.10
726.32	48549.15
726.51	48698.65
726.69	48813.34
726.88	48452.89
727.07	48876.82
727.25	48317.73
727.44	48485.66
727.63	48293.15
727.82	48121.12
728.00	48543.00
728.19	48180.51
728.38	48291.10
728.56	47564.07
728.75	48373.02
728.94	48147.75
729.12	48420.13
729.31	48579.87
729.50	48131.36
729.69	48405.79
729.87	48540.96
730.06	47899.94
730.25	48252.19
730.43	48817.43
730.62	48264.48
730.81	48555.29
730.99	48117.03
731.18	47949.09
731.37	48135.46
731.55	48577.82
731.74	48282.91
731.93	47785.25
732.11	48379.17
732.30	48297.25
732.49	48340.25
732.67	48166.18
732.86	47529.26
733.05	48319.77
733.23	47840.55
733.42	48162.08
733.61	48194.85
733.79	47768.87
733.98	48307.49
734.17	48006.44
734.35	48223.52
734.54	48031.01
734.73	48227.62
734.91	48229.66
735.10	47912.23
735.29	48399.65
735.47	47871.27
735.66	48035.11
735.84	47981.86
736.03	47336.75
736.22	48276.77
736.40	47912.23
736.59	48016.68
736.78	47592.75
736.96	47598.89
737.15	47410.48
737.33	47453.48
737.52	47488.30
737.71	47539.50
737.89	47351.09
738.08	47531.31
738.27	47476.01
738.45	47619.37
738.64	47779.11
738.82	47668.52
739.01	47541.55
739.20	47437.10
739.38	47488.30
739.57	48004.39
739.75	47467.82
739.94	47246.64
740.13	47502.64
740.31	47527.21
740.50	47439.15
740.68	47045.94
740.87	47263.02
741.06	47529.26
741.24	47521.07
741.43	46970.16
741.61	47312.17
741.80	47029.55
741.99	46986.55
742.17	46751.03
742.36	46892.34
742.54	46732.60
742.73	46906.68
742.91	47023.41
743.10	46953.78
743.29	47144.24
743.47	47293.74
743.66	46603.58
743.84	46964.02
744.03	47289.65
744.21	46849.33
744.40	47201.58
744.59	46658.87
744.77	46028.10
744.96	46652.73
745.14	46929.20
745.33	46566.71
745.51	46572.86
745.70	47031.60
745.88	46673.21
746.07	46626.10
746.26	46675.26
746.44	46105.92
746.63	46609.72
746.81	46445.88
747.00	46087.49
747.18	46581.05
747.37	46726.46
747.55	46435.64
747.74	46460.22
747.92	46118.21
748.11	46112.06
748.29	46646.58
748.48	45839.68
748.66	46101.82
748.85	46007.62
749.03	45808.96
749.22	46171.46
749.41	46284.09
749.59	46222.65
749.78	46013.76
749.96	45538.63
750.15	45956.42
750.33	46386.49
750.52	45983.04
750.70	45878.60
750.89	45937.99
751.07	45446.47
751.26	45595.98
751.44	45266.25
751.63	45591.88
751.81	45266.25
752.00	45491.53
752.18	45290.83
752.37	45536.59
752.55	44991.83
752.74	45258.06
752.92	45155.66
753.10	45213.01
753.29	45534.54
753.47	45290.83
753.66	44768.60
753.84	45368.65
754.03	44836.18
754.21	44840.28
754.40	45090.13
754.58	45180.24
754.77	45159.76
754.95	44803.41
755.14	44926.29
755.32	44619.10
755.51	44637.53
755.69	45065.55
755.88	44651.86
756.06	44836.18
756.24	44545.37
756.43	44977.49
756.61	44678.49
756.80	44307.80
756.98	44451.16
757.17	44596.57
757.35	44375.39
757.54	44559.70
757.72	44463.45
757.90	44303.71
758.09	44676.44
758.27	44840.28
758.46	43701.61
758.64	44316.00
758.83	44295.52
759.01	44463.45
759.19	43912.55
759.38	43959.65
759.56	44744.02
759.75	43916.64
759.93	44074.34
760.12	44053.86
760.30	44037.47
760.48	43840.87
760.67	43652.45
760.85	44160.35
761.04	44119.39
761.22	44268.89
761.40	43478.38
761.59	43806.05
761.77	43597.16
761.96	43838.82
762.14	43607.40
762.32	43785.57
762.51	43736.42
762.69	43300.20
762.88	43195.76
763.06	43568.49
763.24	43396.46
763.43	43502.95
763.61	43066.73
763.80	42962.29
763.98	42894.71
764.16	43244.91
764.35	42892.66
764.53	42595.70
764.72	42833.27
764.90	42950.00
765.08	42816.88
765.27	43138.41
765.45	42628.47
765.63	42534.26
765.82	43304.30
766.00	42567.03
766.18	42722.68
766.37	42870.13
766.55	42472.82
766.74	42659.19
766.92	42646.90
767.10	42769.78
767.29	42517.88
767.47	42120.57
767.65	42642.81
767.84	41944.45
768.02	42567.03
768.20	42302.84
768.39	42505.59
768.57	42306.94
768.75	42519.93
768.94	42194.30
769.12	42112.38
769.30	41950.59
769.49	41915.78
769.67	41942.40
769.85	41643.40
770.04	41682.31
770.22	41209.23
770.40	40967.57
770.59	41530.76
770.77	42071.42
770.95	41497.99
771.14	41522.57
771.32	41309.58
771.50	41352.58
771.69	41149.84
771.87	41577.86
772.05	41541.00
772.24	40965.52
772.42	40949.14
772.60	41182.60
772.78	40711.57
772.97	40785.30
773.15	41039.25
773.33	40856.98
773.52	41022.86
773.70	40627.60
773.88	41235.85
774.07	40854.93
774.25	40936.85
774.43	41420.17
774.61	41203.08
774.80	41153.93
774.98	41162.12
775.16	41125.26
775.34	41110.92
775.53	41149.84
775.71	41553.29
775.89	41205.13
776.08	41182.60
776.26	40758.67
776.44	41334.15
776.62	41241.99
776.81	41244.04
776.99	41459.08
777.17	41403.78
777.35	40973.71
777.54	41252.23
777.72	40822.16
777.90	41393.54
778.08	41563.53
778.27	41037.20
778.45	41317.77
778.63	41723.27
778.81	41389.45
779.00	42083.71
779.18	41229.71
779.36	41774.47
779.54	41317.77
779.73	41588.10
779.91	41977.22
780.09	41629.06
780.27	41995.65
780.46	41639.30
780.64	42038.65
780.82	41661.83
781.00	41895.30
781.19	41940.35
781.37	42403.19
781.55	41743.75
781.73	41932.16
781.91	41848.19
782.10	41870.72
782.28	42044.80
782.46	41993.60
782.64	42091.90
782.82	41735.56
783.01	41794.95
783.19	42026.37
783.37	42171.77
783.55	41989.50
783.74	42575.22
783.92	41856.39
784.10	42317.18
784.28	42315.13
784.46	42057.09
784.64	41854.34
784.83	41993.60
785.01	42157.44
785.19	42065.28
785.37	42347.90
785.55	41688.45
785.74	42149.24
785.92	41561.48
786.10	41901.44
786.28	42141.05
786.46	41952.64
786.64	41432.46
786.83	42061.18
787.01	42067.33
787.19	41950.59
787.37	41940.35
787.55	41590.15
787.74	41164.17
787.92	41475.46
788.10	41520.52
788.28	41268.62
788.46	41502.09
788.64	40850.83
788.82	41674.12
789.01	41217.42
789.19	41330.06
789.37	41104.78
789.55	40981.90
789.73	40990.09
789.91	40719.76
790.09	40678.80
790.28	40607.12
790.46	40340.89
790.64	41194.89
790.82	40517.01
791.00	40707.47
791.18	40752.53
791.36	40474.01
791.55	40340.89
791.73	40469.91
791.91	40068.51
792.09	40510.87
792.27	39970.21
792.45	40029.60
792.63	40258.97
792.81	40039.84
793.00	39736.74
793.18	39876.00
793.36	39486.89
793.54	39824.80
793.72	39290.28
793.90	39503.27
794.08	39148.97
794.26	38983.09
794.44	39148.97
794.62	39245.23
794.81	39161.26
794.99	39286.18
795.17	38974.89
795.35	38536.63
795.53	39116.20
795.71	38751.66
795.89	38647.22
796.07	38735.28
796.25	38573.49
796.43	38778.29
796.61	38129.08
796.80	38221.24
796.98	38084.03
797.16	37858.75
797.34	38034.88
797.52	37899.71
797.70	37926.33
797.88	38002.11
798.06	37748.16
798.24	37649.86
798.42	37561.79
798.60	37656.00
798.78	37103.05
798.96	37567.94
799.14	37023.18
799.32	37162.44
799.51	37057.99
799.69	37311.94
799.87	36830.67
800.05	36918.73
800.23	37000.65
800.41	36832.72
800.59	36638.16
800.77	36675.02
800.95	36240.86
801.13	36007.39
801.31	36025.82
801.49	36513.23
801.67	36101.59
801.85	36333.01
802.03	36070.87
802.21	35515.87
802.39	35479.01
802.57	35653.09
802.75	35548.64
802.93	35816.93
803.11	35505.63
803.29	35403.24
803.47	35030.51
803.65	35411.43
803.83	35284.45
804.01	35427.81
804.19	35110.38
804.37	34719.21
804.55	34997.74
804.73	34907.63
804.91	34754.03
805.09	35018.22
805.27	35040.75
805.45	34661.87
805.63	34938.35
805.81	34502.13
805.99	34444.79
806.17	34543.09
806.35	34340.34
806.53	33986.04
806.71	34446.83
806.89	34409.97
807.07	33844.73
807.25	34280.95
807.43	33834.49
807.61	34043.38
807.79	33842.68
807.97	33465.86
808.15	33549.82
808.33	33412.61
808.51	33680.89
808.69	33431.04
808.87	33134.09
809.05	32953.87
809.23	32820.75
809.41	32714.25
809.59	32937.48
809.77	33089.03
809.95	32646.67
810.13	32779.79
810.31	32603.66
810.49	32759.31
810.67	32734.73
810.84	32675.34
811.02	32798.22
811.20	32204.31
811.38	32622.09
811.56	32065.05
811.74	32366.10
811.92	32093.72
812.10	32069.14
812.28	32491.02
812.46	31962.65
812.64	32056.85
812.82	32073.24
813.00	31800.86
813.18	32118.29
813.36	31827.48
813.53	31802.91
813.71	31600.16
813.89	31651.36
814.07	31510.05
814.25	31600.16
814.43	31372.83
814.61	30942.76
814.79	31290.91
814.97	31467.04
815.15	31299.11
815.33	31229.48
815.50	30576.17
815.68	30608.94
815.86	31030.82
816.04	31051.30
816.22	30981.67
816.40	30520.88
816.58	30821.93
816.76	30613.04
816.94	30273.07
817.11	30764.59
817.29	30570.03
817.47	30584.37
817.65	30162.48
817.83	30238.26
818.01	29949.50
818.19	29947.45
818.37	30348.85
818.54	29953.59
818.72	29840.95
818.90	30144.05
819.08	29886.01
819.26	29789.75
819.44	29908.54
819.62	29873.72
819.80	29808.19
819.97	29806.14
820.15	29914.68
820.33	29640.25
820.51	30049.85
820.69	29460.03
820.87	29738.55
821.05	29828.66
821.22	29406.78
821.40	29449.79
821.58	28993.09
821.76	29220.42
821.94	29111.88
822.12	29578.81
822.29	29296.19
822.47	28943.94
822.65	29142.60
822.83	28902.98
823.01	29056.58
823.19	28911.17
823.36	28884.55
823.54	28812.87
823.72	28733.00
823.90	28778.06
824.08	28610.12
824.25	28788.30
824.43	28862.02
824.61	28513.87
824.79	28698.19
824.97	28493.39
825.15	28489.29
825.32	28212.82
825.50	28247.63
825.68	28065.36
825.86	28423.76
826.04	28096.08
826.21	27995.73
826.39	28171.86
826.57	28051.03
826.75	27862.61
826.93	27932.25
827.10	28057.17
827.28	28079.70
827.46	28210.77
827.64	27733.59
827.81	27930.20
827.99	27967.06
828.17	27747.93
828.35	27653.72
828.53	27616.86
828.70	27412.06
828.88	27606.62
829.06	27330.14
829.24	27657.82
829.41	27162.21
829.59	27616.86
829.77	27237.98
829.95	27309.66
830.12	27014.76
830.30	26977.89
830.48	27274.85
830.66	27303.52
830.84	27324.00
831.01	27080.29
831.19	27104.87
831.37	26914.41
831.55	26771.05
831.72	26816.10
831.90	27014.76
832.08	26981.99
832.25	26834.53
832.43	27029.09
832.61	26717.80
832.79	26377.84
832.96	26531.44
833.14	26693.22
833.32	26570.35
833.50	26830.44
833.67	26379.89
833.85	26725.99
834.03	26146.42
834.20	26226.29
834.38	26347.12
834.56	26396.27
834.74	26035.83
834.91	26484.33
835.09	26377.84
835.27	26062.45
835.44	25962.10
835.62	25722.49
835.80	25941.62
835.98	26087.03
836.15	25929.33
836.33	25855.61
836.51	26039.92
836.68	25857.65
836.86	25724.54
837.04	25597.56
837.21	25773.69
837.39	25869.94
837.57	25642.62
837.75	25861.75
837.92	25353.85
838.10	25362.04
838.28	25456.25
838.45	25427.58
838.63	25302.65
838.81	25136.77
838.98	25149.06
839.16	25222.78
839.34	25157.25
839.51	25142.91
839.69	24903.30
839.87	25114.24
840.04	24915.59
840.22	25290.37
840.40	24983.17
840.57	24807.05
840.75	25077.38
840.93	24794.76
841.10	25005.70
841.28	25132.67
841.46	24938.12
841.63	24862.34
841.81	24882.82
841.98	24991.36
842.16	24782.47
842.34	24766.09
842.51	24721.03
842.69	24735.37
842.87	24559.24
843.04	24702.60
843.22	24311.44
843.40	24409.74
843.57	24389.26
843.75	24327.82
843.92	24761.99
844.10	24632.97
844.28	24575.62
844.45	24305.29
844.63	24653.45
844.81	24194.70
844.98	24379.02
845.16	24141.46
845.33	24514.19
845.51	24147.60
845.69	23942.80
845.86	24116.88
846.04	24047.25
846.21	23830.16
846.39	23940.75
846.57	23785.11
846.74	24020.63
846.92	23813.78
847.09	23930.51
847.27	23568.02
847.45	23668.37
847.62	23549.59
847.80	23635.61
847.97	23799.44
848.15	23563.93
848.32	23791.25
848.50	23488.15
848.68	23678.61
848.85	23795.35
849.03	23486.11
849.20	23748.25
849.38	23559.83
849.56	23404.19
849.73	23367.32
849.91	23484.06
850.08	23393.95
850.26	23293.60
850.43	23307.93
850.61	23178.91
850.78	22970.02
850.96	23174.81
851.14	22937.25
851.31	23393.95
851.49	22904.48
851.66	23019.17
851.84	23025.31
852.01	23195.29
852.19	23002.78
852.36	22947.49
852.54	22886.05
852.71	22791.84
852.89	22875.81
853.07	22965.92
853.24	22894.24
853.42	22619.81
853.59	22640.29
853.77	22806.18
853.94	22845.09
854.12	22623.91
854.29	22404.78
854.47	22511.27
854.64	22451.88
854.82	22308.52
854.99	22445.74
855.17	22527.66
855.34	22298.28
855.52	22363.82
855.69	22437.55
855.87	22286.00
856.04	22116.01
856.22	22382.25
856.39	22234.80
856.57	22101.68
856.74	22304.43
856.92	22228.65
857.09	21909.17
857.27	21853.87
857.44	22408.87
857.62	22185.65
857.79	21806.77
857.97	21864.11
858.14	21950.13
858.32	21579.45
858.49	21827.25
858.67	21765.81
858.84	21554.87
859.02	21769.91
859.19	21759.67
859.37	21585.59
859.54	21565.11
859.72	21702.32
859.89	21708.47
860.06	21872.31
860.24	21638.84
860.41	21679.80
860.59	21397.18
860.76	21612.21
860.94	21198.52
861.11	21135.04
861.29	21167.80
861.46	21268.16
861.64	20911.81
861.81	21010.11
861.98	21173.95
862.16	21126.85
862.33	20825.79
862.51	20920.00
862.68	21161.66
862.86	21192.38
863.03	21057.21
863.21	20940.48
863.38	21143.23
863.55	20899.52
863.73	20893.38
863.90	21061.31
864.08	20977.34
864.25	20944.58
864.43	20666.05
864.60	20786.88
864.77	20555.46
864.95	20528.84
865.12	20442.82
865.30	20643.52
865.47	20666.05
865.64	20641.48
865.82	20696.77
865.99	20621.00
866.17	20498.12
866.34	20625.09
866.51	20180.68
866.69	20532.93
866.86	20383.43
867.04	20352.71
867.21	20197.07
867.38	20156.11
867.56	20088.53
867.73	20129.48
867.91	19930.83
868.08	20061.90
868.25	20090.57
868.43	19955.41
868.60	19830.48
868.78	19680.98
868.95	20121.29
869.12	20139.72
869.30	19855.06
869.47	19859.15
869.64	19893.97
869.82	19654.36
869.99	19584.73
870.16	19597.01
870.34	19447.51
870.51	19685.08
870.69	19447.51
870.86	19762.90
871.03	19580.63
871.21	19648.21
871.38	19609.30
871.55	19623.64
871.73	19238.62
871.90	19412.70
872.07	19203.80
872.25	19158.75
872.42	18937.57
872.59	19203.80
872.77	19377.88
872.94	19261.15
873.11	18978.53
873.29	19062.49
873.46	19189.47
873.63	18917.09
873.81	18960.09
873.98	18904.80
874.15	18786.02
874.33	18847.46
874.50	18685.67
874.67	18751.20
874.85	18843.36
875.02	18597.60
875.19	18515.69
875.37	18183.91
875.54	18380.52
875.71	18544.36
875.88	18558.69
876.06	18228.97
876.23	18364.14
876.40	18396.90
876.58	18323.18
876.75	18040.56
876.92	18198.25
877.10	18120.43
877.27	18050.80
877.44	18114.28
877.61	17876.72
877.79	18050.80
877.96	18077.42
878.13	17895.15
878.31	18091.76
878.48	17661.68
878.65	17659.63
878.82	17778.42
879.00	17723.12
879.17	17585.91
879.34	17676.02
879.51	17639.15
879.69	17381.11
879.86	17385.21
880.03	17551.09
880.21	17520.37
880.38	17479.41
880.55	17469.17
880.72	17512.18
880.90	17452.79
881.07	17473.27
881.24	17209.08
881.41	17567.48
881.59	17460.98
881.76	17307.38
881.93	17184.51
882.10	17104.64
882.28	16975.61
882.45	17198.84
882.62	17041.15
882.79	17182.46
882.96	16797.44
883.14	16965.37
883.31	17112.83
883.48	16903.93
883.65	17176.31
883.83	17121.02
884.00	17057.53
884.17	17047.29
884.34	16961.28
884.51	16895.74
884.69	16819.97
884.86	16934.65
885.03	17032.96
885.20	16641.79
885.38	16811.78
885.55	16695.04
885.72	16805.63
885.89	16537.35
886.06	16633.60
886.24	16688.90
886.41	16502.53
886.58	16592.64
886.75	16707.33
886.92	16389.89
887.10	16604.93
887.27	16518.92
887.44	16359.17
887.61	16686.85
887.78	16606.98
887.95	16502.53
888.13	16389.89
888.30	16373.51
888.47	16209.67
888.64	16361.22
888.81	16170.76
888.99	16271.11
889.16	16131.85
889.33	16072.46
889.50	16148.23
889.67	16054.03
889.84	16101.13
890.01	16146.19
890.19	15882.00
890.36	16197.38
890.53	15720.21
890.70	15980.30
890.87	15877.90
891.04	15900.43
891.22	15863.57
891.39	15793.94
891.56	15671.06
891.73	15795.98
891.90	15828.75
892.07	15578.90
892.24	15697.68
892.42	15445.78
892.59	15728.40
892.76	15406.87
892.93	15810.32
893.10	15519.51
893.27	15691.54
893.44	15372.05
893.61	15617.81
893.79	15542.03
893.96	15327.00
894.13	15570.71
894.30	15546.13
894.47	15603.47
894.64	15408.92
894.81	15548.18
894.98	15513.36
895.15	15222.55
895.33	15382.29
895.50	15370.01
895.67	15580.95
895.84	15466.26
896.01	15191.83
896.18	15345.43
896.35	15615.76
896.52	15398.68
896.69	15255.32
896.86	15247.13
897.04	15306.52
897.21	15496.98
897.38	15189.78
897.55	15150.87
897.72	15376.15
897.89	15224.60
898.06	14917.40
898.23	15322.90
898.40	14845.73
898.57	15425.30
898.74	15195.93
898.91	15238.94
899.08	15286.04
899.26	15165.21
899.43	15421.20
899.60	15290.13
899.77	15273.75
899.94	15374.10
900.11	14901.02
900.28	15118.11
900.45	15124.25
900.62	15114.01
900.79	15290.13
900.96	15589.14
901.13	15089.43
901.30	15077.15
901.47	14978.84
901.64	15208.22
901.81	15236.89
901.98	15247.13
902.15	15386.39
902.32	14868.25
902.49	15114.01
902.66	14980.89
902.83	15183.64
903.01	15255.32
903.18	15462.16
903.35	15032.09
903.52	15027.99
903.69	15351.57
903.86	15042.33
904.03	15116.06
904.20	14999.32
904.37	15327.00
904.54	14946.08
904.71	15140.63
904.88	15275.80
905.05	15001.37
905.22	15085.34
905.39	15032.09
905.56	14993.18
905.73	14939.93
905.90	15187.74
906.07	15079.19
906.24	15255.32
906.41	15095.58
906.58	15144.73
906.75	15007.52
906.92	14698.27
907.09	14917.40
907.26	14968.60
907.43	14530.34
907.60	14989.08
907.77	15197.98
907.93	15073.05
908.10	15003.42
908.27	14982.94
908.44	15073.05
908.61	14798.62
908.78	14784.29
908.95	14901.02
909.12	14950.17
909.29	14827.29
909.46	14800.67
909.63	14933.79
909.80	14964.51
909.97	14880.54
910.14	14661.41
910.31	14655.26
910.48	14737.18
910.65	14692.13
910.82	14573.35
910.99	14722.85
911.16	14731.04
911.33	14753.57
911.50	14427.94
911.66	14677.79
911.83	14477.09
912.00	14673.70
912.17	14481.19
912.34	14507.81
912.51	14569.25
912.68	14401.32
912.85	14827.29
913.02	14354.21
913.19	14513.95
913.36	14483.24
913.53	14321.45
913.70	14167.85
913.86	14536.48
914.03	14509.86
914.20	14278.44
914.37	14264.10
914.54	14290.73
914.71	14503.71
914.88	14184.23
915.05	14350.12
915.22	14171.94
915.39	13883.18
915.55	14137.13
915.72	13864.75
915.89	13758.25
916.06	14030.63
916.23	13666.10
916.40	13762.35
916.57	13725.49
916.74	13807.41
916.91	13748.01
917.07	13582.13
917.24	13772.59
917.41	13457.20
917.58	13633.33
917.75	13635.38
917.92	13610.80
918.09	13596.46
918.26	13469.49
918.42	13541.17
918.59	13535.03
918.76	13156.15
918.93	13244.21
919.10	13225.78
919.27	13313.84
919.44	13408.05
919.60	13406.00
919.77	12975.93
919.94	13270.84
920.11	13086.52
920.28	13029.18
920.45	13123.38
920.61	12949.31
920.78	13031.23
920.95	13000.51
921.12	12896.06
921.29	12848.96
921.46	12834.62
921.62	12588.86
921.79	12728.13
921.96	12693.31
922.13	12748.61
922.30	12388.16
922.47	12691.26
922.63	12453.70
922.80	12529.47
922.97	12402.50
923.14	12234.57
923.31	12334.92
923.47	12140.36
923.64	12214.09
923.81	12201.80
923.98	12298.05
924.15	12083.02
924.32	12244.81
924.48	11945.80
924.65	12068.68
924.82	11894.60
924.99	11812.68
925.15	11888.46
925.32	11898.70
925.49	11683.66
925.66	11669.33
925.83	11513.68
925.99	11669.33
926.16	11695.95
926.33	11745.10
926.50	11317.08
926.67	11622.22
926.83	11304.79
927.00	11327.32
927.17	11241.30
927.34	11292.50
927.50	11099.99
927.67	11568.98
927.84	11321.17
928.01	10917.72
928.17	11040.60
928.34	10925.91
928.51	11104.09
928.68	10977.11
928.84	10753.88
929.01	10755.93
929.18	10772.32
929.35	10657.63
929.51	10743.64
929.68	10544.99
929.85	10680.16
930.02	10444.64
930.18	10506.08
930.35	10463.07
930.52	10379.11
930.69	10477.41
930.85	10297.19
931.02	10069.86
931.19	10192.74
931.36	10258.28
931.52	10211.17
931.69	10219.36
931.86	10153.83
932.02	9987.94
932.19	9844.59
932.36	9938.79
932.53	9817.96
932.69	9860.97
932.86	9985.90
933.03	9678.70
933.19	9697.13
933.36	9719.66
933.53	9621.36
933.70	9529.20
933.86	9658.22
934.03	9373.55
934.20	9457.52
934.36	9394.03
934.53	9084.79
934.70	8951.67
934.86	9117.56
935.03	8966.01
935.20	8974.20
935.36	8933.24
935.53	8910.71
935.70	8832.89
935.86	8892.28
936.03	8851.32
936.20	8544.13
936.36	8476.54
936.53	8320.90
936.70	8511.36
936.86	8304.51
937.03	8400.77
937.20	8058.76
937.36	8251.27
937.53	7985.03
937.70	7950.21
937.86	7810.95
938.03	7864.20
938.20	7950.21
938.36	7702.41
938.53	7657.36
938.70	7659.40
938.86	7550.86
939.03	7298.96
939.20	7298.96
939.36	7118.74
939.53	7075.73
939.70	7368.59
939.86	6862.74
940.03	6803.35
940.19	6637.47
940.36	6838.17
940.53	6743.96
940.69	6655.90
940.86	6580.12
941.03	6406.05
941.19	6309.79
941.36	6397.85
941.52	6254.50
941.69	6293.41
941.86	6262.69
942.02	6072.23
942.19	5965.73
942.35	6107.04
942.52	6143.91
942.69	5973.92
942.85	5980.07
943.02	5939.11
943.18	5801.90
943.35	5857.19
943.52	5818.28
943.68	5797.80
943.85	5734.31
944.01	5570.48
944.18	5420.97
944.35	5586.86
944.51	5550.00
944.68	5560.24
944.84	5519.28
945.01	5377.97
945.17	5517.23
945.34	5504.94
945.51	5570.48
945.67	5468.08
945.84	5306.29
946.00	5310.38
946.17	5373.87
946.33	5236.66
946.50	5509.04
946.67	5386.16
946.83	5310.38
947.00	5427.12
947.16	5195.70
947.33	5345.20
947.49	5257.14
947.66	5222.32
947.82	5423.02
947.99	5287.86
948.16	5328.81
948.32	5263.28
948.49	5310.38
948.65	5259.18
948.82	5193.65
948.98	5220.27
949.15	5124.02
949.31	5263.28
949.48	5365.68
949.64	5203.89
949.81	5357.49
949.97	5300.14
950.14	5255.09
950.30	5214.13
950.47	5257.14
950.63	5324.72
950.80	5271.47
950.96	5058.48
951.13	5318.57
951.30	5267.38
951.46	5316.53
951.63	5451.69
951.79	5326.77
951.96	5353.39
952.12	5375.92
952.29	5351.34
952.45	5439.40
952.62	5228.46
952.78	5496.75
952.94	5277.62
953.11	5386.16
953.27	5427.12
953.44	5492.65
953.60	5431.21
953.77	5390.25
953.93	5396.40
954.10	5291.95
954.26	5511.08
954.43	5277.62
954.59	5353.39
954.76	5453.74
954.92	5412.78
955.09	5382.06
955.25	5377.97
955.42	5468.08
955.58	5543.85
955.75	5482.41
955.91	5425.07
956.07	5443.50
956.24	5463.98
956.40	5545.90
956.57	5461.93
956.73	5377.97
956.90	5443.50
957.06	5437.36
957.23	5441.45
957.39	5322.67
957.56	5470.12
957.72	5337.01
957.88	5357.49
958.05	5633.96
958.21	5496.75
958.38	5545.90
958.54	5445.55
958.71	5615.53
958.87	5423.02
959.03	5449.64
959.20	5523.37
959.36	5439.40
959.53	5476.27
959.69	5371.82
959.85	5388.21
960.02	5337.01
960.18	5212.08
960.35	5328.81
960.51	5633.96
960.68	5326.77
960.84	5429.17
961.00	5275.57
961.17	5486.51
961.33	5558.19
961.50	5396.40
961.66	5457.84
961.82	5318.57
961.99	5490.60
962.15	5425.07
962.31	5457.84
962.48	5382.06
962.64	5500.84
962.81	5310.38
962.97	5369.77
963.13	5371.82
963.30	5513.13
963.46	5318.57
963.62	5337.01
963.79	5353.39
963.95	5279.66
964.12	5408.69
964.28	5377.97
964.44	5388.21
964.61	5357.49
964.77	5402.54
964.93	5521.32
965.10	5361.58
965.26	5210.03
965.42	5197.74
965.59	5195.70
965.75	5261.23
965.92	5365.68
966.08	5289.90
966.24	5361.58
966.41	5197.74
966.57	5279.66
966.73	5230.51
966.90	5275.57
967.06	5232.56
967.22	5279.66
967.39	5234.61
967.55	5177.26
967.71	5285.81
967.88	5201.84
968.04	5228.46
968.20	5033.91
968.37	4999.09
968.53	5078.96
968.69	5181.36
968.85	5267.38
969.02	5203.89
969.18	5281.71
969.34	5201.84
969.51	5107.63
969.67	5207.98
969.83	5001.14
970.00	5294.00
970.16	5103.54
970.32	5076.91
970.48	5267.38
970.65	5124.02
970.81	5083.06
970.97	5083.06
971.14	5105.59
971.30	5124.02
971.46	5044.15
971.63	4892.60
971.79	5271.47
971.95	5031.86
972.11	4835.25
972.28	4900.79
972.44	4980.66
972.60	4900.79
972.76	5040.05
972.93	4894.65
973.09	4980.66
973.25	4898.74
973.42	4859.83
973.58	4966.32
973.74	4919.22
973.90	5017.52
974.07	4863.93
974.23	4894.65
974.39	4925.36
974.55	4911.03
974.72	4779.96
974.88	4825.01
975.04	4794.29
975.20	4720.57
975.37	4773.82
975.53	4804.53
975.69	4851.64
975.85	4759.48
976.01	4761.53
976.18	4724.66
976.34	4753.34
976.50	4630.46
976.66	4814.77
976.83	4681.66
976.99	4624.31
977.15	4693.94
977.31	4560.83
977.47	4882.36
977.64	4612.03
977.80	4644.79
977.96	4751.29
978.12	4644.79
978.29	4571.07
978.45	4569.02
978.61	4542.39
978.77	4689.85
978.93	4419.52
979.10	4564.92
979.26	4433.85
979.42	4599.74
979.58	4480.96
979.74	4411.32
979.91	4571.07
980.07	4349.89
980.23	4448.19
980.39	4417.47
980.55	4452.28
980.71	4501.44
980.88	4452.28
981.04	4368.32
981.20	4497.34
981.36	4485.05
981.52	4462.52
981.68	4317.12
981.85	4464.57
982.01	4392.89
982.17	4380.61
982.33	4378.56
982.49	4388.80
982.65	4274.11
982.82	4415.42
982.98	4261.82
983.14	4194.24
983.30	4370.37
983.46	4339.65
983.62	4323.26
983.79	4282.30
983.95	4278.21
984.11	4212.67
984.27	4198.34
984.43	4194.24
984.59	4366.27
984.75	4190.14
984.91	4149.18
985.08	4339.65
985.24	4169.66
985.40	4032.45
985.56	4227.01
985.72	4128.70
985.88	4218.82
986.04	4022.21
986.20	4097.99
986.37	4095.94
986.53	3968.96
986.69	3956.68
986.85	4132.80
987.01	4022.21
987.17	4022.21
987.33	3968.96
987.49	4063.17
987.65	4118.47
987.82	4007.87
987.98	4048.83
988.14	3923.91
988.30	3968.96
988.46	3903.43
988.62	3983.30
988.78	3921.86
988.94	3975.11
989.10	3782.60
989.26	3846.09
989.42	3833.80
989.59	3803.08
989.75	3743.69
989.91	3839.94
990.07	3663.82
990.23	3731.40
990.39	3721.16
990.55	3889.09
990.71	3786.69
990.87	3780.55
991.03	3887.04
991.19	3686.34
991.35	3676.10
991.51	3917.76
991.67	3841.99
991.83	3774.41
992.00	3692.49
992.16	3753.93
992.32	3790.79
992.48	3772.36
992.64	3624.90
992.80	3690.44
992.96	3745.73
993.12	3708.87
993.28	3747.78
993.44	3633.10
993.60	3772.36
993.76	3555.27
993.92	3672.01
994.08	3612.62
994.24	3733.45
994.40	3663.82
994.56	3622.86
994.72	3567.56
994.88	3565.51
995.04	3696.58
995.20	3598.28
995.36	3590.09
995.52	3585.99
995.68	3592.14
995.84	3534.79
996.00	3663.82
996.16	3549.13
996.32	3448.78
996.48	3461.07
996.64	3565.51
996.80	3477.45
996.96	3422.16
997.12	3434.44
997.28	3381.20
997.44	3315.66
997.60	3379.15
997.76	3407.82
997.92	3454.92
998.08	3401.68
998.24	3385.29
998.40	3362.76
998.56	3387.34
998.72	3352.52
998.88	3334.09
999.04	3393.48
999.20	3471.31
999.36	3289.04
999.52	3379.15
999.68	3235.79
999.84	3332.05
1000.00	3317.71
1000.16	3243.98
1000.32	3319.76
1000.48	3342.28
1000.64	3135.44
1000.80	3157.97
1000.95	3102.67
1001.11	3276.75
1001.27	3137.49
1001.43	3203.02
1001.59	3137.49
1001.75	3186.64
1001.91	3127.25
1002.07	3082.19
1002.23	3117.01
1002.39	3157.97
1002.55	3256.27
1002.71	3147.73
1002.87	3170.26
1003.03	3008.47
1003.19	3090.38
1003.34	3131.34
1003.50	3043.28
1003.66	3162.06
1003.82	3207.12
1003.98	3035.09
1004.14	3059.67
1004.30	3024.85
1004.46	3043.28
1004.62	2992.08
1004.78	3006.42
1004.94	3043.28
1005.09	3041.23
1005.25	2985.94
1005.41	2920.40
1005.57	2992.08
1005.73	3016.66
1005.89	3014.61
1006.05	2992.08
1006.21	3043.28
1006.37	2904.02
1006.52	2922.45
1006.68	2910.16
1006.84	2967.51
1007.00	2977.75
1007.16	3004.37
1007.32	2959.31
1007.48	2885.59
1007.64	2953.17
1007.79	2924.50
1007.95	2848.72
1008.11	2942.93
1008.27	2904.02
1008.43	2822.10
1008.59	2799.57
1008.75	2881.49
1008.91	2863.06
1009.06	2887.64
1009.22	2822.10
1009.38	2834.39
1009.54	2871.25
1009.70	2758.61
1009.86	2783.19
1010.01	2850.77
1010.17	2793.43
1010.33	2871.25
1010.49	2760.66
1010.65	2799.57
1010.81	2658.26
1010.96	2734.04
1011.12	2779.09
1011.28	2664.41
1011.44	2797.53
1011.60	2754.52
1011.76	2781.14
1011.91	2822.10
1012.07	2619.35
1012.23	2641.88
1012.39	2607.06
1012.55	2731.99
1012.71	2656.22
1012.86	2639.83
1013.02	2643.93
1013.18	2645.98
1013.34	2596.82
1013.50	2723.80
1013.65	2617.30
1013.81	2639.83
1013.97	2514.91
1014.13	2629.59
1014.29	2602.97
1014.44	2723.80
1014.60	2562.01
1014.76	2605.02
1014.92	2586.58
1015.07	2615.26
1015.23	2648.02
1015.39	2572.25
1015.55	2553.82
1015.71	2598.87
1015.86	2473.95
1016.02	2480.09
1016.18	2457.56
1016.34	2607.06
1016.49	2519.00
1016.65	2631.64
1016.81	2588.63
1016.97	2568.15
1017.12	2471.90
1017.28	2387.93
1017.44	2387.93
1017.60	2439.13
1017.75	2545.63
1017.91	2449.37
1018.07	2508.76
1018.23	2584.54
1018.38	2387.93
1018.54	2467.80
1018.70	2469.85
1018.86	2449.37
1019.01	2371.55
1019.17	2459.61
1019.33	2486.23
1019.49	2408.41
1019.64	2381.79
1019.80	2344.92
1019.96	2394.08
1020.12	2379.74
1020.27	2336.73
1020.43	2406.36
1020.59	2430.94
1020.74	2379.74
1020.90	2445.27
1021.06	2363.36
1021.22	2297.82
1021.37	2353.12
1021.53	2314.20
1021.69	2428.89
1021.84	2326.49
1022.00	2334.68
1022.16	2301.92
1022.31	2355.16
1022.47	2392.03
1022.63	2420.70
1022.79	2256.86
1022.94	2267.10
1023.10	2459.61
1023.26	2297.82
1023.41	2252.77
1023.57	2238.43
1023.73	2279.39
1023.88	2281.44
1024.04	2234.33
1024.20	2244.57
1024.35	2328.54
1024.51	2326.49
1024.67	2260.96
1024.82	2355.16
1024.98	2113.50
1025.14	2220.00
1025.29	2179.04
1025.45	2279.39
1025.61	2166.75
1025.76	2244.57
1025.92	2164.70
1026.08	2283.49
1026.23	2207.71
1026.39	2297.82
1026.55	2295.77
1026.70	2158.56
1026.86	2174.94
1027.02	2240.48
1027.17	2236.38
1027.33	2234.33
1027.48	2160.61
1027.64	2183.13
1027.80	2133.98
1027.95	2224.09
1028.11	2031.58
1028.27	2213.85
1028.42	2101.22
1028.58	2088.93
1028.73	2058.21
1028.89	2060.26
1029.05	2228.19
1029.20	2170.85
>>>>>End Processed Spectral Data<<<<<
