SpectraSuite Data File
++++++++++++++++++++++++++++++++++++
Date: Fri Jun 02 14:57:22 CEST 2017
User: INFO_000
Dark Spectrum Present: No
Reference Spectrum Present: No
Number of Sampled Component Spectra: 1
Spectrometers: USB4H00879
Integration Time (usec): 80000 (USB4H00879)
Spectra Averaged: 1 (USB4H00879)
Boxcar Smoothing: 0 (USB4H00879)
Correct for Electrical Dark: No (USB4H00879)
Strobe/Lamp Enabled: No (USB4H00879)
Correct for Detector Non-linearity: No (USB4H00879)
Correct for Stray Light: No (USB4H00879)
Number of Pixels in Processed Spectrum: 3648
>>>>>Begin Processed Spectral Data<<<<<
345.13	1320.94
345.34	1320.94
345.56	1320.94
345.78	1228.78
345.99	1202.16
346.21	1765.35
346.42	1693.67
346.64	1638.38
346.86	1796.07
347.07	1636.33
347.29	1697.77
347.50	1591.27
347.72	1617.90
347.94	1796.07
348.15	1595.37
348.37	1656.81
348.59	1708.01
348.80	1615.85
349.02	1791.97
349.23	1908.71
349.45	1890.28
349.67	1853.41
349.88	1769.44
350.10	1972.19
350.31	1892.32
350.53	1808.36
350.75	1994.72
350.96	1724.39
351.18	1918.95
351.39	1918.95
351.61	1818.60
351.82	1843.17
352.04	1845.22
352.26	1812.45
352.47	1920.99
352.69	1902.56
352.90	1822.69
353.12	1814.50
353.34	1877.99
353.55	1957.86
353.77	1925.09
353.98	1877.99
354.20	1898.47
354.41	1945.57
354.63	2015.20
354.85	2033.63
355.06	1912.80
355.28	1757.16
355.49	1920.99
355.71	1890.28
355.92	1832.93
356.14	1957.86
356.35	1867.75
356.57	1853.41
356.79	1918.95
357.00	1914.85
357.22	1959.91
357.43	1824.74
357.65	1959.91
357.86	1871.84
358.08	1920.99
358.29	1929.19
358.51	2033.63
358.72	2000.87
358.94	1961.95
359.16	1914.85
359.37	1947.62
359.59	1961.95
359.80	2009.06
360.02	1920.99
360.23	1964.00
360.45	2004.96
360.66	1906.66
360.88	1943.52
361.09	1941.47
361.31	1959.91
361.52	1937.38
361.74	2058.21
361.95	2103.26
362.17	1966.05
362.38	2179.04
362.60	1990.63
362.81	1996.77
363.03	2002.91
363.24	1961.95
363.46	2035.68
363.67	2031.58
363.89	2066.40
364.10	2017.25
364.32	1998.82
364.53	2052.06
364.75	1984.48
364.96	2056.16
365.18	1945.57
365.39	2072.54
365.61	1984.48
365.82	2107.36
366.04	1992.67
366.25	1974.24
366.47	2052.06
366.68	2045.92
366.90	2004.96
367.11	2080.74
367.33	2060.26
367.54	2072.54
367.76	2000.87
367.97	2123.74
368.19	1982.43
368.40	2060.26
368.62	1955.81
368.83	2015.20
369.05	2127.84
369.26	1900.52
369.48	2007.01
369.69	2035.68
369.91	2170.85
370.12	1992.67
370.33	2095.07
370.55	1992.67
370.76	2033.63
370.98	2109.41
371.19	2050.02
371.41	2062.30
371.62	2066.40
371.84	2047.97
372.05	2164.70
372.27	1996.77
372.48	1992.67
372.69	2062.30
372.91	2121.70
373.12	2133.98
373.34	2109.41
373.55	2099.17
373.77	2207.71
373.98	2095.07
374.20	2211.81
374.41	2199.52
374.62	2156.51
374.84	2168.80
375.05	2236.38
375.27	2199.52
375.48	2117.60
375.70	2174.94
375.91	2244.57
376.12	2220.00
376.34	2213.85
376.55	2289.63
376.77	2191.33
376.98	2129.89
377.19	2144.22
377.41	2166.75
377.62	2164.70
377.84	2166.75
378.05	2316.25
378.27	2187.23
378.48	2232.29
378.69	2334.68
378.91	2232.29
379.12	2222.05
379.34	2244.57
379.55	2283.49
379.76	2271.20
379.98	2113.50
380.19	2273.25
380.41	2242.53
380.62	2328.54
380.83	2279.39
381.05	2260.96
381.26	2400.22
381.47	2260.96
381.69	2226.14
381.90	2439.13
382.12	2338.78
382.33	2332.64
382.54	2281.44
382.76	2312.16
382.97	2334.68
383.19	2254.81
383.40	2402.27
383.61	2342.88
383.83	2191.33
384.04	2332.64
384.25	2346.97
384.47	2336.73
384.68	2373.60
384.89	2238.43
385.11	2297.82
385.32	2234.33
385.54	2349.02
385.75	2326.49
385.96	2410.46
386.18	2469.85
386.39	2428.89
386.60	2387.93
386.82	2420.70
387.03	2400.22
387.24	2471.90
387.46	2441.18
387.67	2432.99
387.88	2494.43
388.10	2383.84
388.31	2469.85
388.52	2553.82
388.74	2516.95
388.95	2482.14
389.16	2451.42
389.38	2420.70
389.59	2557.91
389.80	2553.82
390.02	2557.91
390.23	2654.17
390.44	2512.86
390.66	2580.44
390.87	2529.24
391.08	2633.69
391.30	2688.98
391.51	2562.01
391.72	2611.16
391.94	2697.17
392.15	2564.06
392.36	2629.59
392.58	2629.59
392.79	2600.92
393.00	2693.08
393.22	2705.37
393.43	2777.05
393.64	2861.01
393.85	2729.94
394.07	2598.87
394.28	2715.61
394.49	2758.61
394.71	2719.70
394.92	2875.35
395.13	2629.59
395.35	2770.90
395.56	2742.23
395.77	2766.81
395.98	2805.72
396.20	2799.57
396.41	2840.53
396.62	2854.87
396.84	2830.29
397.05	2912.21
397.26	2895.83
397.47	2987.99
397.69	2858.96
397.90	3024.85
398.11	2920.40
398.32	2918.36
398.54	2967.51
398.75	2805.72
398.96	2955.22
399.18	3051.47
399.39	2871.25
399.60	3000.27
399.81	2969.55
400.03	2973.65
400.24	3207.12
400.45	3004.37
400.66	3049.43
400.88	2987.99
401.09	3143.63
401.30	3088.34
401.51	3174.35
401.73	3182.54
401.94	3071.95
402.15	3237.84
402.36	3207.12
402.58	3063.76
402.79	3160.02
403.00	3137.49
403.21	3235.79
403.43	3231.69
403.64	3416.01
403.85	3110.86
404.06	3254.22
404.27	3080.14
404.49	3196.88
404.70	3149.78
404.91	3233.74
405.12	3243.98
405.34	3194.83
405.55	3467.21
405.76	3241.93
405.97	3301.33
406.19	3434.44
406.40	3239.89
406.61	3420.11
406.82	3282.89
407.03	3354.57
407.25	3301.33
407.46	3434.44
407.67	3489.74
407.88	3434.44
408.09	3327.95
408.31	3483.59
408.52	3448.78
408.73	3334.09
408.94	3467.21
409.15	3434.44
409.37	3528.65
409.58	3463.12
409.79	3530.70
410.00	3639.24
410.21	3420.11
410.43	3571.66
410.64	3512.27
410.85	3526.60
411.06	3475.40
411.27	3567.56
411.48	3692.49
411.70	3594.19
411.91	3735.50
412.12	3747.78
412.33	3506.12
412.54	3563.47
412.76	3741.64
412.97	3778.50
413.18	3534.79
413.39	3805.13
413.60	3694.54
413.81	3598.28
414.03	3702.73
414.24	3657.67
414.45	3870.66
414.66	3674.06
414.87	3717.06
415.08	3835.85
415.30	3755.97
415.51	3835.85
415.72	3721.16
415.93	3694.54
416.14	3735.50
416.35	3858.37
416.56	3899.33
416.78	3809.22
416.99	3913.67
417.20	3844.04
417.41	3973.06
417.62	4030.40
417.83	3975.11
418.04	3885.00
418.26	4009.92
418.47	3909.57
418.68	4014.02
418.89	4007.87
419.10	4022.21
419.31	3899.33
419.52	4169.66
419.73	3981.25
419.95	4143.04
420.16	3913.67
420.37	4057.03
420.58	4028.35
420.79	3964.87
421.00	4065.22
421.21	4151.23
421.42	4071.36
421.63	4102.08
421.85	4124.61
422.06	4192.19
422.27	4155.33
422.48	4216.77
422.69	4175.81
422.90	4184.00
423.11	4280.25
423.32	4310.97
423.53	4296.64
423.75	4265.92
423.96	4384.70
424.17	4497.34
424.38	4548.54
424.59	4310.97
424.80	4499.39
425.01	4462.52
425.22	4378.56
425.43	4390.84
425.64	4724.66
425.85	4648.89
426.06	4480.96
426.28	4523.96
426.49	4446.14
426.70	4521.92
426.91	4546.49
427.12	4624.31
427.33	4681.66
427.54	4591.55
427.75	4724.66
427.96	4810.68
428.17	4599.74
428.38	4827.06
428.59	4788.15
428.80	4749.24
429.01	4851.64
429.23	4777.91
429.44	4886.45
429.65	4906.93
429.86	4992.95
430.07	4810.68
430.28	4798.39
430.49	4997.04
430.70	5193.65
430.91	4968.37
431.12	4939.70
431.33	5035.96
431.54	5003.19
431.75	5017.52
431.96	5097.39
432.17	5023.67
432.38	4974.52
432.59	5423.02
432.80	5173.17
433.01	5205.94
433.22	5302.19
433.43	5300.14
433.64	5220.27
433.85	5173.17
434.06	5382.06
434.27	5228.46
434.49	5306.29
434.70	5496.75
434.91	5494.70
435.12	5500.84
435.33	5375.92
435.54	5265.33
435.75	5212.08
435.96	5318.57
436.17	5369.77
436.38	5617.58
436.59	5660.59
436.80	5500.84
437.01	5562.28
437.22	5701.54
437.43	5662.63
437.64	5474.22
437.85	5642.15
438.06	5550.00
438.27	5728.17
438.48	5603.24
438.69	5621.67
438.90	5683.11
439.11	5564.33
439.32	5859.24
439.53	5693.35
439.74	5875.62
439.95	5920.68
440.16	5773.22
440.37	5730.22
440.57	5803.94
440.78	5883.81
440.99	5791.66
441.20	5943.21
441.41	5771.18
441.62	5992.36
441.83	5853.09
442.04	6043.56
442.25	5947.30
442.46	6051.75
442.67	6119.33
442.88	6451.10
443.09	5803.94
443.30	6006.69
443.51	6205.35
443.72	6389.66
443.93	6113.19
444.14	6324.13
444.35	6227.87
444.56	6125.47
444.77	6154.15
444.98	6266.78
445.19	6344.61
445.40	6424.48
445.61	6223.78
445.81	6555.55
446.02	6496.16
446.23	6277.02
446.44	6332.32
446.65	6383.52
446.86	6549.40
447.07	6463.39
447.28	6776.73
447.49	6588.32
447.70	6424.48
447.91	6537.12
448.12	6729.63
448.33	6926.23
448.54	6799.26
448.74	6627.23
448.95	6596.51
449.16	6696.86
449.37	6975.38
449.58	6694.81
449.79	6885.27
450.00	6764.44
450.21	6893.46
450.42	7055.25
450.63	6922.13
450.84	6875.03
451.05	6920.09
451.25	6909.85
451.46	6952.85
451.67	7141.27
451.88	7264.15
452.09	7249.81
452.30	7139.22
452.51	7294.86
452.72	7323.54
452.93	7534.48
453.13	7034.77
453.34	7278.48
453.55	7307.15
453.76	7225.23
453.97	7704.46
454.18	7421.84
454.39	7524.24
454.60	7407.50
454.81	7577.48
455.01	7749.51
455.22	7417.74
455.43	7788.43
455.64	7919.50
455.85	7761.80
456.06	8052.61
456.27	7745.42
456.48	7790.47
456.68	7872.39
456.89	7925.64
457.10	7978.89
457.31	7874.44
457.52	8019.85
457.73	8073.09
457.94	8232.83
458.14	8079.24
458.35	8482.69
458.56	8316.80
458.77	8138.63
458.98	8439.68
459.19	8261.51
459.39	8529.79
459.60	8464.25
459.81	8331.14
460.02	8695.68
460.23	8488.83
460.44	9029.49
460.65	8767.35
460.85	8802.17
461.06	8720.25
461.27	8488.83
461.48	8982.39
461.69	9092.98
461.89	8685.44
462.10	8873.85
462.31	8988.53
462.52	8890.23
462.73	9052.02
462.94	9197.43
463.14	9004.92
463.35	9285.49
463.56	9654.12
463.77	9543.53
463.98	9238.39
464.18	9367.41
464.39	9564.01
464.60	9889.64
464.81	9473.90
465.02	9527.15
465.23	9926.50
465.43	9631.60
465.64	9785.19
465.85	9885.55
466.06	9715.56
466.27	10278.76
466.47	10026.86
466.68	10010.47
466.89	10049.38
467.10	10233.70
467.30	10047.33
467.51	10350.43
467.72	10557.28
467.93	10028.90
468.14	10528.61
468.34	10741.60
468.55	10620.77
468.76	10772.32
468.97	10415.97
469.17	11005.78
469.38	10878.81
469.59	11091.80
469.80	10837.85
470.01	10991.45
470.21	10909.53
470.42	11282.26
470.63	11335.51
470.84	11200.34
471.04	11378.51
471.25	11497.30
471.46	11405.14
471.67	11624.27
471.87	11370.32
472.08	11628.37
472.29	11845.45
472.50	11540.30
472.70	11620.17
472.91	11974.47
473.12	12097.35
473.33	12021.58
473.53	12347.20
473.74	12119.88
473.95	12336.96
474.16	12535.62
474.36	12287.81
474.57	12734.27
474.78	12642.11
474.99	12588.86
475.19	12597.06
475.40	12822.33
475.61	12891.96
475.81	13043.51
476.02	13299.51
476.23	13307.70
476.44	13143.86
476.64	13479.73
476.85	13604.66
477.06	13524.79
477.27	13745.97
477.47	13823.79
477.68	13915.95
477.89	13813.55
478.09	13870.89
478.30	14081.83
478.51	14126.89
478.71	14233.38
478.92	14114.60
479.13	14380.84
479.34	14444.32
479.54	14651.17
479.75	14778.14
479.96	14733.09
480.16	14905.12
480.37	14806.81
480.58	14960.41
480.78	15277.85
480.99	15238.94
481.20	15257.37
481.41	15388.44
481.61	15449.88
481.82	15626.00
482.03	15640.34
482.23	15470.36
482.44	15640.34
482.65	15912.72
482.85	15816.46
483.06	15845.13
483.27	16146.19
483.47	16070.41
483.68	16430.85
483.89	16318.22
484.09	16418.57
484.30	16559.88
484.51	16750.34
484.71	16824.06
484.92	16617.22
485.13	16803.58
485.33	16881.41
485.54	16930.56
485.75	17282.81
485.95	17141.50
486.16	17309.43
486.37	17534.71
486.57	17245.94
486.78	17483.51
486.98	17538.80
487.19	17909.49
487.40	17710.83
487.60	17725.17
487.81	18128.62
488.02	17647.35
488.22	18052.84
488.43	18130.67
488.64	18206.44
488.84	18470.63
489.05	18505.45
489.25	18482.92
489.46	18515.69
489.67	18581.22
489.87	18833.12
490.08	18857.70
490.29	18869.98
490.49	19209.95
490.70	19318.49
490.90	19273.43
491.11	19199.71
491.32	19441.37
491.52	19222.23
491.73	19476.18
491.94	19572.44
492.14	19435.22
492.35	19654.36
492.55	19820.24
492.76	19947.22
492.97	20018.89
493.17	20018.89
493.38	20360.91
493.58	20360.91
493.79	20287.18
494.00	20594.37
494.20	20412.10
494.41	20887.23
494.61	20680.39
494.82	20881.09
495.02	20651.72
495.23	20786.88
495.44	21075.65
495.64	21212.86
495.85	21143.23
496.05	21266.11
496.26	21321.40
496.47	21524.15
496.67	21356.22
496.88	21470.90
497.08	21653.17
497.29	22007.47
497.49	21595.83
497.70	21841.59
497.91	22021.81
498.11	22095.53
498.32	22204.08
498.52	22208.17
498.73	22394.54
498.93	22425.26
499.14	22077.10
499.34	22527.66
499.55	22349.48
499.76	22439.59
499.96	22552.23
500.17	22544.04
500.37	22804.13
500.58	22675.11
500.78	22832.80
500.99	22757.03
501.19	23359.13
501.40	23060.13
501.60	22927.01
501.81	23238.30
502.02	23230.11
502.22	22988.45
502.43	23412.38
502.63	23584.41
502.84	23541.40
503.04	23754.39
503.25	23756.44
503.45	23656.09
503.66	23733.91
503.86	23932.56
504.07	24432.27
504.27	23926.42
504.48	24170.13
504.68	24088.21
504.89	24434.32
505.09	24403.60
505.30	24467.08
505.50	24487.56
505.71	24723.08
505.91	24704.65
506.12	24512.14
506.32	24573.58
506.53	24596.10
506.73	24718.98
506.94	24733.32
507.14	24917.64
507.35	25013.89
507.55	25075.33
507.76	25034.37
507.96	25007.75
508.17	25142.91
508.37	25345.66
508.58	25489.02
508.78	25558.65
508.99	25826.93
509.19	25970.29
509.40	25558.65
509.60	25501.31
509.81	25683.58
510.01	26199.66
510.22	25790.07
510.42	25699.96
510.63	26201.71
510.83	26146.42
511.04	26041.97
511.24	26056.31
511.44	26056.31
511.65	26244.72
511.85	26523.24
512.06	26502.76
512.26	26418.80
512.47	26601.07
512.67	26482.28
512.88	26881.64
513.08	26201.71
513.29	26748.52
513.49	26992.23
513.69	26785.38
513.90	27135.59
514.10	27031.14
514.31	27111.01
514.51	27199.07
514.72	27086.43
514.92	27166.31
515.13	27455.07
515.33	27158.11
515.53	27319.90
515.74	27547.23
515.94	27995.73
516.15	27647.58
516.35	27614.81
516.56	27952.73
516.76	27778.65
516.96	27825.75
517.17	27721.30
517.37	27901.53
517.58	28091.99
517.78	28100.18
517.99	28374.61
518.19	28380.75
518.39	28421.71
518.60	28794.44
518.80	28622.41
519.01	28794.44
519.21	28563.02
519.41	29050.44
519.62	28661.32
519.82	28896.84
520.03	29072.96
520.23	28806.73
520.43	28862.02
520.64	29296.19
520.84	29478.46
521.05	29025.86
521.25	29560.38
521.45	29623.87
521.66	29607.48
521.86	29617.72
522.07	29697.59
522.27	29503.04
522.47	29845.05
522.68	30008.89
522.88	30117.43
523.08	30414.38
523.29	30477.87
523.49	30791.21
523.70	30387.76
523.90	30510.64
524.10	30291.51
524.31	30901.80
524.51	30508.59
524.71	31063.59
524.92	30983.72
525.12	30981.67
525.33	30912.04
525.53	30998.06
525.73	31542.81
525.94	31415.84
526.14	31151.65
526.34	31471.14
526.55	31401.50
526.75	31489.57
526.95	31974.94
527.16	31495.71
527.36	31551.01
527.56	32292.37
527.77	32620.05
527.97	32419.35
528.17	32433.68
528.38	32624.14
528.58	32235.03
528.78	32534.03
528.99	32765.45
529.19	32722.44
529.39	32261.65
529.60	32886.28
529.80	32878.09
530.00	32857.61
530.21	33209.86
530.41	33588.74
530.61	33568.26
530.82	33689.09
531.02	33261.06
531.22	33609.22
531.43	33949.18
531.63	34024.95
531.83	34260.47
532.04	34237.94
532.24	33953.27
532.44	34393.59
532.64	34729.45
532.85	34125.30
533.05	34678.25
533.25	34412.02
533.46	34719.21
533.66	35018.22
533.86	35126.76
534.07	35270.12
534.27	35122.66
534.47	35450.34
534.67	35446.24
534.88	35034.60
535.08	35577.31
535.28	35491.30
535.49	35345.89
535.69	36150.74
535.89	35794.40
536.09	35749.34
536.30	36419.03
536.50	36156.89
536.70	36619.73
536.91	36320.73
537.11	36167.13
537.31	36775.37
537.51	36722.13
537.72	36992.46
537.92	37150.15
538.12	37440.96
538.32	37002.70
538.53	37125.58
538.73	36756.94
538.93	37219.78
539.13	37406.15
539.34	37144.01
539.54	37187.02
539.74	37584.32
539.94	37834.17
540.15	37475.78
540.35	37860.80
540.55	37582.27
540.75	37907.90
540.96	38151.61
541.16	37901.76
541.36	38180.28
541.56	38720.95
541.77	38323.64
541.97	38194.62
542.17	38512.05
542.37	38612.40
542.58	38809.01
542.78	38632.88
542.98	38831.54
543.18	38841.78
543.38	39267.75
543.59	39300.52
543.79	38917.55
543.99	39275.94
544.19	39323.05
544.40	38913.45
544.60	39495.08
544.80	39337.38
545.00	39706.02
545.20	39622.05
545.41	39337.38
545.61	39613.86
545.81	39906.72
546.01	39998.88
546.21	39761.31
546.42	39738.79
546.62	39810.46
546.82	39890.34
547.02	40144.28
547.22	39802.27
547.43	40029.60
547.63	40344.98
547.83	40283.55
548.03	40050.08
548.23	40215.96
548.44	40275.35
548.64	40385.94
548.84	40416.66
549.04	40717.71
549.24	40492.44
549.45	40832.40
549.65	40596.88
549.85	40502.68
550.05	41063.82
550.25	40875.41
550.45	41125.26
550.66	41371.02
550.86	40707.47
551.06	41151.88
551.26	41043.34
551.46	41127.31
551.66	41440.65
551.87	41387.40
552.07	41176.46
552.27	41483.66
552.47	41436.55
552.67	41375.11
552.87	41491.85
553.07	41405.83
553.28	41643.40
553.48	41790.85
553.68	41477.51
553.88	41872.77
554.08	41823.62
554.28	41796.99
554.48	41758.08
554.69	41940.35
554.89	41866.63
555.09	41821.57
555.29	41866.63
555.49	42491.26
555.69	41874.82
555.89	42096.00
556.10	42231.16
556.30	41856.39
556.50	42126.72
556.70	42124.67
556.90	42007.94
557.10	42204.54
557.30	42114.43
557.50	42562.93
557.70	42311.03
557.91	42552.69
558.11	42444.15
558.31	42851.70
558.51	42034.56
558.71	42489.21
558.91	42780.02
559.11	42265.98
559.31	42538.36
559.51	42198.40
559.72	42706.29
559.92	42605.94
560.12	42405.24
560.32	42829.17
560.52	42560.89
560.72	42892.66
560.92	42904.95
561.12	43105.65
561.32	42853.75
561.52	42767.73
561.72	43091.31
561.93	42610.04
562.13	42990.96
562.33	42653.05
562.53	43335.02
562.73	42542.45
562.93	42607.99
563.13	42810.74
563.33	42820.98
563.53	43375.98
563.73	42859.89
563.93	42880.37
564.13	43588.97
564.33	43119.98
564.53	42950.00
564.74	43558.25
564.94	43603.30
565.14	43701.61
565.34	43287.92
565.54	43445.61
565.74	43279.72
565.94	43572.58
566.14	43273.58
566.34	43627.88
566.54	43507.05
566.74	43455.85
566.94	43689.32
567.14	44088.67
567.34	43488.62
567.54	43935.07
567.74	43808.10
567.94	43629.93
568.14	43738.47
568.34	44076.38
568.54	43328.87
568.74	43916.64
568.94	44070.24
569.14	44285.28
569.34	44215.65
569.54	44072.29
569.75	43824.48
569.95	44111.20
570.15	44373.34
570.35	44135.77
570.55	44152.16
570.75	44168.54
570.95	43949.41
571.15	44287.32
571.35	44455.26
571.55	44442.97
571.75	44154.21
571.95	44733.78
572.15	44160.35
572.35	44531.03
572.55	44438.87
572.75	44526.94
572.95	44320.09
573.15	44211.55
573.35	44229.98
573.55	44610.90
573.75	44326.24
573.95	44901.71
574.15	44692.82
574.35	44721.49
574.55	44535.13
574.75	44668.25
574.95	44957.01
575.15	44631.38
575.34	45112.66
575.54	45122.90
575.74	45315.40
575.94	45487.43
576.14	44905.81
576.34	45253.97
576.54	45073.74
576.74	45471.05
576.94	45348.17
577.14	45237.58
577.34	45450.57
577.54	45186.38
577.74	45823.30
577.94	45307.21
578.14	45604.17
578.34	45647.18
578.54	45362.51
578.74	45735.24
578.94	45702.47
579.14	45677.90
579.34	45675.85
579.54	45841.73
579.74	46167.36
579.94	45905.22
580.13	46224.70
580.33	46058.82
580.53	46253.37
580.73	46175.55
580.93	46218.56
581.13	46110.02
581.33	46490.94
581.53	46828.85
581.73	46732.60
581.93	46210.37
582.13	46650.68
582.33	46816.57
582.53	46224.70
582.73	46724.41
582.92	46411.07
583.12	46918.96
583.32	46445.88
583.52	46540.09
583.72	46945.59
583.92	46718.26
584.12	46751.03
584.32	47052.08
584.52	46703.93
584.72	47291.69
584.92	47070.51
585.11	47797.54
585.31	47439.15
585.51	47043.89
585.71	47349.04
585.91	47709.48
586.11	47256.88
586.31	47193.39
586.51	47129.90
586.71	47582.51
586.91	48067.87
587.10	47338.80
587.30	47650.09
587.50	47875.37
587.70	48063.78
587.90	47764.78
588.10	47971.62
588.30	47834.41
588.50	47506.73
588.69	48090.40
588.89	47895.85
589.09	48456.99
589.29	48160.03
589.49	48616.73
589.69	48157.99
589.89	48364.83
590.08	48340.25
590.28	48231.71
590.48	48143.65
590.68	48444.70
590.88	48764.18
591.08	48295.20
591.28	48463.13
591.47	48680.22
591.67	48897.30
591.87	48725.27
592.07	48731.42
592.27	48569.63
592.47	48968.98
592.67	48995.60
592.86	48772.38
593.06	49114.39
593.26	49036.56
593.46	49265.94
593.66	48846.10
593.86	49132.82
594.05	49083.67
594.25	49521.93
594.45	49186.07
594.65	48987.41
594.85	48860.44
595.05	49284.37
595.24	49384.72
595.44	49329.42
595.64	49796.36
595.84	49415.44
596.04	49814.79
596.23	49857.80
596.43	50042.12
596.63	49794.31
596.83	50015.49
597.03	50230.53
597.22	50515.20
597.42	50148.61
597.62	50388.22
597.82	50302.21
598.02	50062.60
598.21	50697.47
598.41	50009.35
598.61	50291.97
598.81	50593.02
599.01	50545.92
599.20	50525.44
599.40	50273.54
599.60	50789.62
599.80	50605.31
600.00	50906.36
600.19	51145.97
600.39	50650.36
600.59	51082.48
600.79	51156.21
600.98	50693.37
601.18	51279.09
601.38	51135.73
601.58	51307.76
601.78	51553.52
601.97	51582.19
602.17	51676.40
602.37	51299.57
602.57	51571.95
602.76	51936.49
602.96	51080.44
603.16	51909.86
603.36	51602.67
603.55	52696.28
603.75	51664.11
603.95	52260.07
604.15	51852.52
604.34	52139.24
604.54	52088.04
604.74	52188.39
604.94	52311.27
605.13	52464.86
605.33	52294.88
605.53	52053.22
605.73	52569.31
605.92	52540.64
606.12	52735.20
606.32	52376.80
606.52	52303.07
606.71	53120.21
606.91	52843.74
607.11	52751.58
607.30	52929.75
607.50	52911.32
607.70	53157.08
607.90	53167.32
608.09	53058.77
608.29	53675.21
608.49	53173.46
608.68	53525.71
608.88	53591.25
609.08	53120.21
609.28	53689.55
609.47	53351.63
609.67	54047.94
609.87	53306.58
610.06	53910.73
610.26	53898.44
610.46	54070.47
610.66	53456.08
610.85	54107.33
611.05	53912.78
611.25	53814.47
611.44	53861.58
611.64	54064.33
611.84	53968.07
612.03	53791.95
612.23	54168.77
612.43	54285.51
612.62	53697.74
612.82	54197.44
613.02	53884.11
613.21	54432.96
613.41	53763.28
613.61	54023.37
613.80	53648.59
614.00	54426.82
614.20	54408.39
614.39	54385.86
614.59	54375.62
614.79	54398.15
614.98	54592.70
615.18	54727.87
615.38	54240.45
615.57	54154.44
615.77	54670.53
615.97	54637.76
616.16	54103.24
616.36	54559.94
616.56	54670.53
616.75	54990.01
616.95	54400.19
617.15	54672.57
617.34	54633.66
617.54	54678.72
617.74	54787.26
617.93	54484.16
618.13	54535.36
618.32	55002.30
618.52	54418.63
618.72	54648.00
618.91	54787.26
619.11	54156.49
619.31	54691.01
619.50	54459.58
619.70	54516.93
619.90	54875.32
620.09	54578.37
620.29	54965.43
620.48	54559.94
620.68	54930.62
620.88	54752.44
621.07	54770.88
621.27	54672.57
621.46	54473.92
621.66	54824.12
621.86	54824.12
622.05	54502.59
622.25	54912.19
622.44	54979.77
622.64	54584.51
622.84	55227.57
623.03	55030.97
623.23	54531.26
623.42	54674.62
623.62	54981.82
623.82	54990.01
624.01	54842.56
624.21	54965.43
624.40	54838.46
624.60	55293.11
624.80	54834.36
624.99	54955.19
625.19	54918.33
625.38	55248.05
625.58	54613.18
625.77	54965.43
625.97	55309.49
626.17	54953.15
626.36	55102.65
626.56	54957.24
626.75	54684.86
626.95	55221.43
627.14	54996.15
627.34	55444.66
627.54	54785.21
627.73	55112.89
627.93	55016.63
628.12	54557.89
628.32	55239.86
628.51	54940.86
628.71	55209.14
628.90	55219.38
629.10	55411.89
629.30	55012.54
629.49	55194.81
629.69	55485.62
629.88	55080.12
630.08	55626.93
630.27	55397.55
630.47	55100.60
630.66	55121.08
630.86	55760.05
631.05	55088.31
631.25	55796.91
631.44	55424.18
631.64	55090.36
631.84	55446.71
632.03	55813.29
632.23	55424.18
632.42	55964.84
632.62	55452.85
632.81	55059.64
633.01	55469.23
633.20	55538.86
633.40	55647.41
633.59	55821.48
633.79	55188.66
633.98	55579.82
634.18	55747.76
634.37	55653.55
634.57	55358.64
634.76	55710.89
634.96	55700.65
635.15	55704.75
635.35	55387.31
635.54	55737.52
635.74	55440.56
635.93	55440.56
636.13	56032.42
636.32	55862.44
636.52	55616.69
636.71	55522.48
636.91	55729.33
637.10	55911.59
637.30	55721.13
637.49	55858.35
637.69	55727.28
637.88	56145.06
638.08	55714.99
638.27	56100.01
638.46	55704.75
638.66	55837.87
638.85	55891.12
639.05	56057.00
639.24	55758.00
639.44	56001.71
639.63	56425.64
639.83	56325.28
640.02	56501.41
640.22	56128.68
640.41	56327.33
640.61	55661.74
640.80	56089.77
640.99	56444.07
641.19	56583.33
641.38	56415.40
641.58	56231.08
641.77	56284.33
641.97	56165.54
642.16	55901.36
642.36	56378.53
642.55	57013.40
642.74	56079.53
642.94	56601.76
643.13	56157.35
643.33	56941.72
643.52	56720.54
643.72	56773.79
643.91	56468.64
644.10	56194.21
644.30	56769.69
644.49	55829.68
644.69	56759.45
644.88	56810.65
645.08	56378.53
645.27	56237.22
645.46	56151.21
645.66	56812.70
645.85	56511.65
646.05	56949.92
646.24	56648.86
646.43	56603.81
646.63	56755.36
646.82	57459.86
647.02	56669.34
647.21	56644.77
647.40	56542.37
647.60	56833.18
647.79	57173.14
647.99	56763.55
648.18	56636.58
648.37	57339.03
648.57	57357.46
648.76	56794.27
648.96	56601.76
649.15	57379.99
649.34	57128.09
649.54	56806.56
649.73	56587.42
649.92	56876.19
650.12	57713.81
650.31	57269.40
650.51	57115.80
650.70	57181.34
650.89	56652.96
651.09	57545.87
651.28	57095.32
651.47	57455.76
651.67	57234.58
651.86	57592.98
652.06	56773.79
652.25	57562.26
652.44	57461.91
652.64	56915.10
652.83	56966.30
653.02	56859.80
653.22	57177.24
653.41	57214.10
653.60	57181.34
653.80	57416.85
653.99	57730.19
654.18	56960.15
654.38	57234.58
654.57	57062.55
654.76	57195.67
654.96	57279.64
655.15	56949.92
655.34	56874.14
655.54	56808.61
655.73	57537.68
655.92	57691.28
656.12	57504.91
656.31	57341.08
656.50	57345.17
656.70	57146.52
656.89	56908.96
657.08	56822.94
657.28	57357.46
657.47	56982.68
657.66	57492.63
657.86	57312.41
658.05	57339.03
658.24	57515.15
658.43	56831.13
658.63	57506.96
658.82	57226.39
659.01	57812.11
659.21	57431.19
659.40	57816.21
659.59	57015.45
659.79	57210.01
659.98	57674.90
660.17	57222.29
660.36	57142.42
660.56	57193.62
660.75	57197.72
660.94	57111.70
661.14	57300.12
661.33	57398.42
661.52	57142.42
661.71	57875.60
661.91	57113.75
662.10	57046.17
662.29	58096.78
662.49	57066.65
662.68	57144.47
662.87	57332.89
663.06	57652.37
663.26	57121.94
663.45	57994.38
663.64	56941.72
663.83	57846.93
664.03	57619.60
664.22	57154.71
664.41	57425.04
664.60	56988.83
664.80	57080.98
664.99	56900.76
665.18	57367.70
665.37	57461.91
665.57	57506.96
665.76	57119.90
665.95	57449.62
666.14	57062.55
666.34	57406.61
666.53	57152.66
666.72	57308.31
666.91	57179.29
667.11	57167.00
667.30	57087.13
667.49	56939.68
667.68	56906.91
667.87	57009.31
668.07	57341.08
668.26	57521.30
668.45	57025.69
668.64	56741.02
668.84	57298.07
669.03	56941.72
669.22	57310.36
669.41	57590.93
669.60	57046.17
669.80	56777.89
669.99	57386.13
670.18	56937.63
670.37	57173.14
670.57	57257.11
670.76	56683.68
670.95	57369.75
671.14	56972.44
671.33	56466.59
671.53	57074.84
671.72	57103.51
671.91	56612.00
672.10	56700.06
672.29	56906.91
672.48	56317.09
672.68	57070.75
672.87	57228.44
673.06	56421.54
673.25	56546.47
673.44	56548.51
673.64	56702.11
673.83	56464.55
674.02	56589.47
674.21	56280.23
674.40	56837.28
674.59	56464.55
674.79	56839.32
674.98	56216.74
675.17	56491.17
675.36	56585.38
675.55	56997.02
675.74	56159.40
675.94	56292.52
676.13	56448.16
676.32	56425.64
676.51	56784.03
676.70	56405.16
676.89	56628.38
677.08	56964.25
677.28	56265.89
677.47	56792.22
677.66	56538.27
677.85	56167.59
678.04	56476.83
678.23	57093.27
678.42	56421.54
678.62	55760.05
678.81	56628.38
679.00	56308.90
679.19	56427.68
679.38	56712.35
679.57	56550.56
679.76	56087.72
679.96	56220.84
680.15	56200.36
680.34	55948.46
680.53	56259.75
680.72	56392.87
680.91	56399.01
681.10	55823.53
681.29	56022.19
681.48	55837.87
681.68	56087.72
681.87	56304.80
682.06	55792.81
682.25	55391.41
682.44	55813.29
682.63	55784.62
682.82	55858.35
683.01	56104.10
683.20	55293.11
683.39	55669.93
683.59	55184.57
683.78	55260.34
683.97	55876.78
684.16	55508.14
684.35	55440.56
684.54	55538.86
684.73	55401.65
684.92	55401.65
685.11	55448.75
685.30	55227.57
685.49	55805.10
685.69	55243.96
685.88	55573.68
686.07	55192.76
686.26	55076.02
686.45	55133.37
686.64	55280.82
686.83	55456.95
687.02	54971.58
687.21	55274.68
687.40	54903.99
687.59	55170.23
687.78	55190.71
687.97	55465.14
688.16	55018.68
688.35	55258.29
688.54	55006.39
688.74	55112.89
688.93	54820.03
689.12	54949.05
689.31	54580.42
689.50	54572.22
689.69	54539.46
689.88	54346.95
690.07	54736.06
690.26	54766.78
690.45	54727.87
690.64	54412.48
690.83	54666.43
691.02	54451.39
691.21	54527.17
691.40	54166.73
691.59	54678.72
691.78	54574.27
691.97	54625.47
692.16	54625.47
692.35	54901.95
692.54	54045.90
692.73	54809.79
692.92	54066.38
693.11	54357.19
693.30	53728.46
693.49	54258.88
693.68	54125.77
693.87	54187.21
694.06	53882.06
694.25	53873.87
694.44	54179.01
694.63	53916.87
694.82	53904.59
695.01	53695.69
695.20	53818.57
695.39	53847.24
695.58	53703.88
695.77	53372.11
695.96	53462.22
696.15	53898.44
696.34	53355.73
696.53	53458.13
696.72	53775.56
696.91	53511.38
697.10	53544.14
697.29	53339.35
697.48	53720.27
697.67	53380.31
697.86	53210.32
698.05	53296.34
698.24	53798.09
698.43	53071.06
698.62	53529.81
698.81	53308.63
699.00	53507.28
699.19	52810.97
699.38	53474.51
699.57	53073.11
699.76	53474.51
699.95	53165.27
700.14	52835.55
700.32	52796.63
700.51	52866.27
700.70	52952.28
700.89	53003.48
701.08	53204.18
701.27	52878.55
701.46	53236.95
701.65	52524.25
701.84	52661.47
702.03	52663.52
702.22	52454.62
702.41	52544.73
702.60	52466.91
702.79	52626.65
702.98	52610.27
703.17	52827.35
703.35	52446.43
703.54	52245.73
703.73	52503.77
703.92	52475.10
704.11	52495.58
704.30	52620.51
704.49	52450.53
704.68	52180.20
704.87	52139.24
705.06	52065.51
705.25	52155.62
705.43	52401.38
705.62	52266.21
705.81	52092.13
706.00	52350.18
706.19	52124.90
706.38	52077.80
706.57	51653.87
706.76	51967.21
706.95	52042.98
707.14	51719.40
707.32	51459.31
707.51	51404.02
707.70	51422.45
707.89	51377.39
708.08	51217.65
708.27	51688.68
708.46	52020.45
708.65	51225.84
708.84	51746.03
709.02	51641.58
709.21	51361.01
709.40	51870.95
709.59	51504.37
709.78	50959.61
709.97	51909.86
710.16	51627.24
710.34	51096.82
710.53	51453.17
710.72	51148.02
710.91	51389.68
711.10	51492.08
711.29	51201.27
711.48	51303.67
711.66	51031.29
711.85	50699.51
712.04	50844.92
712.23	51043.57
712.42	51021.05
712.61	50767.10
712.80	50793.72
712.98	50926.84
713.17	50722.04
713.36	50584.83
713.55	50476.29
713.74	50978.04
713.93	50840.82
714.11	50799.86
714.30	50472.19
714.49	50314.50
714.68	50240.77
714.87	50578.68
715.06	50642.17
715.24	50472.19
715.43	50330.88
715.62	50339.07
715.81	50406.65
716.00	50746.62
716.18	50353.41
716.37	49874.18
716.56	49831.18
716.75	50273.54
716.94	50156.80
717.12	49890.57
717.31	50519.29
717.50	50388.22
717.69	49949.96
717.88	50156.80
718.06	49833.22
718.25	49904.90
718.44	49710.35
718.63	49839.37
718.82	49575.18
719.00	49190.16
719.19	49493.26
719.38	49644.81
719.57	49089.81
719.76	49001.75
719.94	49550.60
720.13	49255.70
720.32	49427.73
720.51	48995.60
720.69	49061.14
720.88	48616.73
721.07	49032.47
721.26	49040.66
721.44	48856.34
721.63	48489.76
721.82	48608.54
722.01	48842.01
722.20	48950.55
722.38	48620.83
722.57	48338.21
722.76	48633.11
722.95	48495.90
723.13	48012.58
723.32	48379.17
723.51	48444.70
723.70	48098.59
723.88	48168.22
724.07	48190.75
724.26	48448.80
724.44	47330.61
724.63	48387.36
724.82	48067.87
725.01	48031.01
725.19	47570.22
725.38	48096.55
725.57	47871.27
725.76	48182.56
725.94	47996.20
726.13	47658.28
726.32	47559.98
726.51	47545.64
726.69	48135.46
726.88	47863.08
727.07	47928.61
727.25	47721.77
727.44	47764.78
727.63	47437.10
727.82	47584.55
728.00	47473.96
728.19	47271.21
728.38	47990.05
728.56	47007.03
728.75	47359.28
728.94	47461.68
729.12	47504.68
729.31	47320.37
729.50	47422.76
729.69	47629.61
729.87	47580.46
730.06	47334.70
730.25	47609.13
730.43	48010.53
730.62	47521.07
730.81	47154.48
730.99	47629.61
731.18	47170.86
731.37	47699.24
731.55	47691.05
731.74	47340.85
731.93	47689.00
732.11	47492.40
732.30	47373.61
732.49	47244.59
732.67	47400.24
732.86	47381.80
733.05	47492.40
733.23	47105.33
733.42	47568.17
733.61	47443.24
733.79	47727.91
733.98	47533.35
734.17	47340.85
734.35	47283.50
734.54	47344.94
734.73	47402.28
734.91	47183.15
735.10	47088.95
735.29	47125.81
735.47	47381.80
735.66	47166.77
735.84	47316.27
736.03	47037.75
736.22	47242.54
736.40	46990.64
736.59	47447.34
736.78	47404.33
736.96	47203.63
737.15	46972.21
737.33	46595.38
737.52	46964.02
737.71	47023.41
737.89	46781.75
738.08	46906.68
738.27	46427.45
738.45	47736.10
738.64	47306.03
738.82	46873.91
739.01	47174.96
739.20	46509.37
739.38	46753.08
739.57	46687.54
739.75	46699.83
739.94	46400.83
740.13	46619.96
740.31	46978.36
740.50	46562.62
740.68	47101.23
740.87	46662.97
741.06	47052.08
741.24	46503.23
741.43	46650.68
741.61	46720.31
741.80	46445.88
741.99	46488.89
742.17	46509.37
742.36	46435.64
742.54	46437.69
742.73	46642.49
742.91	46486.84
743.10	46296.38
743.29	46716.22
743.47	47050.03
743.66	46232.89
743.84	46269.76
744.03	46343.48
744.21	46060.87
744.40	46316.86
744.59	46081.34
744.77	45681.99
744.96	46120.26
745.14	46273.85
745.33	46075.20
745.51	45964.61
745.70	46089.54
745.88	46155.07
746.07	46116.16
746.26	45964.61
746.44	45864.26
746.63	46073.15
746.81	46060.87
747.00	45573.45
747.18	45901.12
747.37	45626.70
747.55	45557.06
747.74	45843.78
747.92	45462.86
748.11	45475.15
748.29	46144.83
748.48	45669.70
748.66	45391.18
748.85	45864.26
749.03	45716.81
749.22	45739.33
749.41	45378.89
749.59	45659.46
749.78	45968.71
749.96	45180.24
750.15	45532.49
750.33	45716.81
750.52	45585.74
750.70	45530.44
750.89	45462.86
751.07	45188.43
751.26	45503.82
751.44	45278.54
751.63	45227.34
751.81	45006.16
752.00	44881.24
752.18	44916.05
752.37	45014.35
752.55	44897.62
752.74	44959.06
752.92	44971.35
753.10	45004.11
753.29	45153.62
753.47	45135.18
753.66	44957.01
753.84	44803.41
754.03	45008.21
754.21	44590.42
754.40	45213.01
754.58	45143.38
754.77	44852.56
754.95	44500.31
755.14	44397.91
755.32	44653.91
755.51	44471.64
755.69	44287.32
755.88	44195.17
756.06	44399.96
756.24	44475.74
756.43	44395.87
756.61	44332.38
756.80	44705.11
756.98	43763.04
757.17	44561.75
757.35	44221.79
757.54	44316.00
757.72	44655.96
757.90	43611.49
758.09	44232.03
758.27	44635.48
758.46	43971.94
758.64	44152.16
758.83	44514.65
759.01	44166.49
759.19	44270.94
759.38	43939.17
759.56	44340.57
759.75	44461.40
759.93	44105.06
760.12	43906.40
760.30	43732.32
760.48	43758.95
760.67	43662.69
760.85	44064.10
761.04	43685.22
761.22	44066.14
761.40	43689.32
761.59	43599.21
761.77	43228.52
761.96	43629.93
762.14	43572.58
762.32	43052.40
762.51	43447.66
762.69	43300.20
762.88	43441.51
763.06	43373.93
763.24	43601.25
763.43	43482.47
763.61	43255.15
763.80	43097.45
763.98	43066.73
764.16	43269.48
764.35	42915.19
764.53	42501.50
764.72	42861.94
764.90	42958.19
765.08	42767.73
765.27	43261.29
765.45	42820.98
765.63	42431.86
765.82	43076.97
766.00	42755.44
766.18	42585.46
766.37	43289.96
766.55	42894.71
766.74	42841.46
766.92	42745.20
767.10	42632.57
767.29	42413.43
767.47	42257.79
767.65	42415.48
767.84	41985.41
768.02	42644.85
768.20	42046.85
768.39	42673.52
768.57	42298.75
768.75	42648.95
768.94	41969.02
769.12	42466.68
769.30	41930.11
769.49	42528.12
769.67	41829.76
769.85	42153.34
770.04	42136.96
770.22	41561.48
770.40	41665.92
770.59	41667.97
770.77	41991.55
770.95	41932.16
771.14	42014.08
771.32	41444.74
771.50	40998.29
771.69	41401.74
771.87	41620.87
772.05	41452.94
772.24	41344.39
772.42	40916.37
772.60	41467.27
772.78	40914.32
772.97	40908.18
773.15	41166.22
773.33	40942.99
773.52	41325.96
773.70	41477.51
773.88	41387.40
774.07	41309.58
774.25	41262.47
774.43	41708.93
774.61	41686.40
774.80	41401.74
774.98	41182.60
775.16	41168.27
775.34	41409.93
775.53	41442.70
775.71	41297.29
775.89	41401.74
776.08	41131.40
776.26	41506.18
776.44	41856.39
776.62	41194.89
776.81	41338.25
776.99	41622.92
777.17	41696.64
777.35	41518.47
777.54	41633.16
777.72	41430.41
777.90	41827.71
778.08	42159.48
778.27	41850.24
778.45	41987.46
778.63	42087.81
778.81	41536.90
779.00	42210.68
779.18	41557.38
779.36	41956.74
779.54	42098.05
779.73	41846.15
779.91	42081.66
780.09	42052.99
780.27	42354.04
780.46	42034.56
780.64	42395.00
780.82	42349.95
781.00	42167.68
781.19	42499.45
781.37	42184.06
781.55	42517.88
781.73	42820.98
781.91	42161.53
782.10	42255.74
782.28	42368.38
782.46	42315.13
782.64	42315.13
782.82	42171.77
783.01	42399.10
783.19	42423.67
783.37	42589.56
783.55	42192.25
783.74	42595.70
783.92	42030.46
784.10	42882.42
784.28	42489.21
784.46	42229.12
784.64	42247.55
784.83	42450.30
785.01	42474.87
785.19	42509.69
785.37	42806.64
785.55	42788.21
785.74	42358.14
785.92	42052.99
786.10	42276.22
786.28	42276.22
786.46	42300.79
786.64	42118.53
786.83	42571.13
787.01	42362.23
787.19	41962.88
787.37	42448.25
787.55	42321.27
787.74	42329.47
787.92	41952.64
788.10	41375.11
788.28	41657.73
788.46	42081.66
788.64	41340.30
788.82	42216.83
789.01	41186.70
789.19	41788.80
789.37	41866.63
789.55	41760.13
789.73	41256.33
789.91	41604.49
790.09	41506.18
790.28	41143.69
790.46	40869.26
790.64	41536.90
790.82	41506.18
791.00	40672.66
791.18	40828.30
791.36	41041.29
791.55	41149.84
791.73	40940.94
791.91	40662.42
792.09	40631.70
792.27	40818.07
792.45	40500.63
792.63	40639.89
792.81	40611.22
793.00	40443.29
793.18	40238.49
793.36	40322.46
793.54	39859.62
793.72	39763.36
793.90	40023.45
794.08	39808.42
794.26	40244.63
794.44	39722.40
794.62	39531.94
794.81	39957.92
794.99	39861.66
795.17	39364.01
795.35	39538.08
795.53	39740.83
795.71	39787.94
795.89	39081.39
796.07	38722.99
796.25	38794.67
796.43	39130.54
796.61	38489.52
796.80	38413.75
796.98	38352.31
797.16	38241.72
797.34	38622.64
797.52	38446.52
797.70	38915.50
797.88	38456.76
798.06	38458.81
798.24	38366.65
798.42	38180.28
798.60	38153.66
798.78	37991.87
798.96	38235.58
799.14	37901.76
799.32	37893.57
799.51	37651.91
799.69	37699.01
799.87	37539.27
800.05	37238.22
800.23	37283.27
800.41	37359.05
800.59	37553.60
800.77	37242.31
800.95	37051.85
801.13	37242.31
801.31	36187.61
801.49	37006.80
801.67	36478.42
801.85	36582.87
802.03	36234.71
802.21	36404.69
802.39	36072.92
802.57	36304.34
802.75	36074.97
802.93	36490.71
803.11	35999.19
803.29	35929.56
803.47	35648.99
803.65	35917.28
803.83	35771.87
804.01	35749.34
804.19	35642.85
804.37	35493.35
804.55	35368.42
804.73	35509.73
804.91	35386.85
805.09	35114.47
805.27	35048.94
805.45	35124.71
805.63	35188.20
805.81	34958.83
805.99	35257.83
806.17	35386.85
806.35	35106.28
806.53	35040.75
806.71	34584.05
806.89	34506.23
807.07	34514.42
807.25	34475.51
807.43	34182.65
807.61	34596.34
807.79	34452.98
807.97	33947.13
808.15	34412.02
808.33	34201.08
808.51	33996.28
808.69	34057.72
808.87	33936.89
809.05	33791.48
809.23	33527.30
809.41	33484.29
809.59	33496.58
809.77	33785.34
809.95	33277.44
810.13	33287.68
810.31	33515.01
810.49	33299.97
810.67	33314.31
810.84	33320.45
811.02	33474.05
811.20	33093.13
811.38	33209.86
811.56	32636.43
811.74	32738.83
811.92	32880.14
812.10	32681.49
812.28	32824.84
812.46	32800.27
812.64	32486.93
812.82	32214.55
813.00	32486.93
813.18	32386.58
813.36	32081.43
813.53	32134.68
813.71	32226.84
813.89	32239.12
814.07	32103.96
814.25	31913.50
814.43	31608.35
814.61	31598.11
814.79	31768.09
814.97	31870.49
815.15	31596.06
815.33	31546.91
815.50	31546.91
815.68	31520.29
815.86	31569.44
816.04	31084.07
816.22	31344.16
816.40	31331.87
816.58	30856.75
816.76	31276.58
816.94	31028.77
817.11	31145.51
817.29	31022.63
817.47	30633.52
817.65	30803.50
817.83	30922.28
818.01	30467.63
818.19	30758.44
818.37	30656.04
818.54	30361.14
818.72	30594.61
818.90	30307.89
819.08	30455.34
819.26	30266.93
819.44	30248.50
819.62	30207.54
819.80	30232.11
819.97	30099.00
820.15	29904.44
820.33	29933.11
820.51	30367.28
820.69	29636.16
820.87	29896.25
821.05	30045.75
821.22	29982.26
821.40	29523.52
821.58	29593.15
821.76	29787.71
821.94	29892.15
822.12	29818.42
822.29	29814.33
822.47	29175.36
822.65	29996.60
822.83	29949.50
823.01	29822.52
823.19	29492.80
823.36	28853.83
823.54	29070.92
823.72	29111.88
823.90	29064.77
824.08	28999.24
824.25	29191.75
824.43	28956.23
824.61	28829.26
824.79	28788.30
824.97	28620.36
825.15	29003.33
825.32	29113.92
825.50	28614.22
825.68	28581.45
825.86	28646.99
826.04	28827.21
826.21	28307.02
826.39	28522.06
826.57	28427.85
826.75	28026.45
826.93	28159.57
827.10	28384.85
827.28	28114.52
827.46	28337.74
827.64	28214.87
827.81	28024.40
827.99	28098.13
828.17	28005.97
828.35	27903.57
828.53	28073.56
828.70	27889.24
828.88	28020.31
829.06	27846.23
829.24	28122.71
829.41	27899.48
829.59	27749.98
829.77	27842.14
829.95	27782.74
830.12	27600.47
830.30	27629.15
830.48	27573.85
830.66	27641.43
830.84	27573.85
831.01	27205.22
831.19	27534.94
831.37	27373.15
831.55	27172.45
831.72	27432.54
831.90	26936.93
832.08	27391.58
832.25	27192.93
832.43	26996.32
832.61	26893.93
832.79	26799.72
832.96	27106.91
833.14	27199.07
833.32	27119.20
833.50	27313.76
833.67	26941.03
833.85	26867.30
834.03	26795.62
834.20	26711.66
834.38	26830.44
834.56	26740.33
834.74	26730.09
834.91	26521.20
835.09	26463.85
835.27	26488.43
835.44	26216.05
835.62	26168.94
835.80	26220.14
835.98	26379.89
836.15	26369.65
836.33	26275.44
836.51	26445.42
836.68	25947.76
836.86	26044.02
837.04	25871.99
837.21	26246.77
837.39	26048.11
837.57	26035.83
837.75	26216.05
837.92	25435.77
838.10	25609.85
838.28	25478.78
838.45	25853.56
838.63	25298.56
838.81	25730.68
838.98	25581.18
839.16	25323.13
839.34	25552.51
839.51	25644.66
839.69	25290.37
839.87	25323.13
840.04	25357.95
840.22	25370.24
840.40	25394.81
840.57	25099.90
840.75	24991.36
840.93	25171.58
841.10	25089.67
841.28	25558.65
841.46	25140.86
841.63	25120.38
841.81	25097.86
841.98	24962.69
842.16	25122.43
842.34	25187.97
842.51	24639.11
842.69	25294.46
842.87	24919.68
843.04	25134.72
843.22	24551.05
843.40	24770.18
843.57	24635.02
843.75	24682.12
843.92	24639.11
844.10	24751.75
844.28	24639.11
844.45	24848.00
844.63	24405.64
844.81	24155.79
844.98	24825.48
845.16	24600.20
845.33	24675.98
845.51	24471.18
845.69	24479.37
845.86	24260.24
846.04	24206.99
846.21	24057.49
846.39	24266.38
846.57	24004.24
846.74	23969.43
846.92	24202.89
847.09	24143.50
847.27	23887.51
847.45	23836.31
847.62	23914.13
847.80	24082.06
847.97	24059.54
848.15	24016.53
848.32	23844.50
848.50	23844.50
848.68	23676.57
848.85	23686.81
849.03	23357.08
849.20	23975.57
849.38	23713.43
849.56	23436.95
849.73	23635.61
849.91	23426.71
850.08	23748.25
850.26	23320.22
850.43	23295.64
850.61	23549.59
850.78	23076.51
850.96	22978.21
851.14	23295.64
851.31	23084.70
851.49	23021.22
851.66	23103.14
851.84	23019.17
852.01	23025.31
852.19	23111.33
852.36	23086.75
852.54	23125.66
852.71	22896.29
852.89	23084.70
853.07	23058.08
853.24	23103.14
853.42	22685.35
853.59	22652.58
853.77	23002.78
853.94	22699.69
854.12	23035.55
854.29	22959.78
854.47	22693.54
854.64	22847.14
854.82	22603.43
854.99	22562.47
855.17	22484.65
855.34	22738.60
855.52	22519.46
855.69	22662.82
855.87	22310.57
856.04	22619.81
856.22	22466.22
856.39	22167.21
856.57	22251.18
856.74	22038.19
856.92	21968.56
857.09	22118.06
857.27	22042.29
857.44	22443.69
857.62	22324.91
857.79	22251.18
857.97	22103.73
858.14	21952.18
858.32	21952.18
858.49	21978.80
858.67	21962.42
858.84	21710.52
859.02	22030.00
859.19	21687.99
859.37	21577.40
859.54	21698.23
859.72	21833.39
859.89	21726.90
860.06	22064.82
860.24	21651.13
860.41	21731.00
860.59	21587.64
860.76	21597.88
860.94	21329.59
861.11	21438.14
861.29	21425.85
861.46	21266.11
861.64	21374.65
861.81	21006.02
861.98	21302.97
862.16	21192.38
862.33	21243.58
862.51	20899.52
862.68	21337.79
862.86	20991.68
863.03	21087.93
863.21	21130.94
863.38	21006.02
863.55	20891.33
863.73	21110.46
863.90	21032.64
864.08	20850.37
864.25	20817.60
864.43	20807.36
864.60	20862.66
864.77	20858.56
864.95	20700.87
865.12	20373.19
865.30	20621.00
865.47	20491.98
865.64	20510.41
865.82	20891.33
865.99	20827.84
866.17	20561.61
866.34	20614.85
866.51	20453.06
866.69	20512.46
866.86	20551.37
867.04	20362.95
867.21	20502.22
867.38	20031.18
867.56	20170.44
867.73	20158.16
867.91	20033.23
868.08	20235.98
868.25	19979.98
868.43	20006.61
868.60	20035.28
868.78	19832.53
868.95	20164.30
869.12	20027.09
869.30	19914.45
869.47	20063.95
869.64	19943.12
869.82	19846.87
869.99	19437.27
870.16	19924.69
870.34	19693.27
870.51	19551.96
870.69	19148.51
870.86	19830.48
871.03	19449.56
871.21	19631.83
871.38	19588.82
871.55	19222.23
871.73	19484.37
871.90	19279.58
872.07	19408.60
872.25	19025.63
872.42	19302.11
872.59	19355.35
872.77	19252.95
872.94	19146.46
873.11	18976.48
873.29	19001.05
873.46	18886.37
873.63	18917.09
873.81	18976.48
873.98	18902.75
874.15	18657.00
874.33	18609.89
874.50	18693.86
874.67	18724.58
874.85	18681.57
875.02	18613.99
875.19	18450.15
875.37	18609.89
875.54	18317.03
875.71	18519.78
875.88	18618.08
876.06	18048.75
876.23	18155.24
876.40	18224.87
876.58	18200.30
876.75	18278.12
876.92	18276.07
877.10	18294.50
877.27	18073.32
877.44	18134.76
877.61	17938.16
877.79	17889.01
877.96	18048.75
878.13	17989.36
878.31	17829.62
878.48	17768.18
878.65	17592.05
878.82	17583.86
879.00	17735.41
879.17	17508.08
879.34	17590.00
879.51	17661.68
879.69	17477.37
879.86	17524.47
880.03	17346.30
880.21	17510.13
880.38	17571.57
880.55	17651.44
880.72	17233.66
880.90	17497.84
881.07	17381.11
881.24	17272.57
881.41	17403.64
881.59	17157.88
881.76	17137.40
881.93	17135.35
882.10	16789.25
882.28	17104.64
882.45	17176.31
882.62	17114.87
882.79	17147.64
882.96	16723.71
883.14	16967.42
883.31	17137.40
883.48	16811.78
883.65	16879.36
883.83	17225.47
884.00	16953.09
884.17	16967.42
884.34	16783.10
884.51	16682.75
884.69	16838.40
884.86	16725.76
885.03	16680.71
885.20	16721.66
885.38	16926.46
885.55	16707.33
885.72	16746.24
885.89	16631.55
886.06	16383.75
886.24	16285.45
886.41	16439.05
886.58	16385.80
886.75	16627.46
886.92	16367.37
887.10	16553.73
887.27	16377.61
887.44	16475.91
887.61	16613.12
887.78	16633.60
887.95	16549.64
888.13	16463.62
888.30	16285.45
888.47	16424.71
888.64	16193.29
888.81	16146.19
888.99	16201.48
889.16	15935.24
889.33	16068.36
889.50	16119.56
889.67	15718.16
889.84	16097.03
890.01	15820.56
890.19	16125.71
890.36	15972.11
890.53	15765.26
890.70	15705.87
890.87	15873.81
891.04	15669.01
891.22	15646.48
891.39	15695.63
891.56	15705.87
891.73	15609.62
891.90	15468.31
892.07	15597.33
892.24	15671.06
892.42	15427.35
892.59	15492.88
892.76	15308.57
892.93	15128.35
893.10	15251.22
893.27	15439.64
893.44	15376.15
893.61	15206.17
893.79	15341.33
893.96	15546.13
894.13	15423.25
894.30	15390.49
894.47	15200.02
894.64	15224.60
894.81	15183.64
894.98	15322.90
895.15	15376.15
895.33	15126.30
895.50	15308.57
895.67	15509.27
895.84	15103.77
896.01	15062.81
896.18	15050.52
896.35	15185.69
896.52	15234.84
896.69	15013.66
896.86	15040.28
897.04	15240.98
897.21	15111.96
897.38	14958.36
897.55	15441.68
897.72	15232.79
897.89	15183.64
898.06	15157.02
898.23	15109.91
898.40	15234.84
898.57	15027.99
898.74	15138.58
898.91	15214.36
899.08	15068.95
899.26	15183.64
899.43	15306.52
899.60	15161.11
899.77	15081.24
899.94	15044.38
900.11	15019.80
900.28	15314.71
900.45	14890.78
900.62	14929.69
900.79	15128.35
900.96	15081.24
901.13	14851.87
901.30	14876.44
901.47	14675.74
901.64	15081.24
901.81	14964.51
901.98	15005.47
902.15	15292.18
902.32	14946.08
902.49	14866.21
902.66	14948.12
902.83	14946.08
903.01	14880.54
903.18	15087.39
903.35	14860.06
903.52	15048.47
903.69	15202.07
903.86	15134.49
904.03	15044.38
904.20	15066.91
904.37	15001.37
904.54	14974.75
904.71	14815.01
904.88	14962.46
905.05	14931.74
905.22	15089.43
905.39	15054.62
905.56	14767.90
905.73	14767.90
905.90	15025.95
906.07	14923.55
906.24	14724.90
906.41	14755.61
906.58	14853.92
906.75	14739.23
906.92	14659.36
907.09	14681.89
907.26	15085.34
907.43	14888.73
907.60	14831.39
907.77	15007.52
907.93	14894.88
908.10	14876.44
908.27	15195.93
908.44	14847.77
908.61	14573.35
908.78	14737.18
908.95	14733.09
909.12	14655.26
909.29	14694.18
909.46	14823.20
909.63	14733.09
909.80	14737.18
909.97	14724.90
910.14	14636.83
910.31	14554.91
910.48	14751.52
910.65	14665.50
910.82	14493.47
910.99	14548.77
911.16	14683.94
911.33	14458.66
911.50	14450.47
911.66	14319.40
911.83	14622.50
912.00	14446.37
912.17	14538.53
912.34	14456.61
912.51	14446.37
912.68	14276.39
912.85	14397.22
913.02	14341.93
913.19	14139.18
913.36	14352.16
913.53	14268.20
913.70	14268.20
913.86	14233.38
914.03	14309.16
914.20	14188.33
914.37	14214.95
914.54	14192.42
914.71	14038.83
914.88	14069.55
915.05	13911.85
915.22	14094.12
915.39	14006.06
915.55	13995.82
915.72	13866.80
915.89	13772.59
916.06	13696.82
916.23	13842.22
916.40	13571.89
916.57	13623.09
916.74	13709.10
916.91	13610.80
917.07	13221.69
917.24	13539.12
917.41	13655.86
917.58	13498.16
917.75	13440.82
917.92	13326.13
918.09	13555.51
918.26	13397.81
918.42	13297.46
918.59	13383.48
918.76	13131.58
918.93	13107.00
919.10	13199.16
919.27	12955.45
919.44	13313.84
919.60	13545.27
919.77	13135.67
919.94	12969.79
920.11	13195.06
920.28	12998.46
920.45	12914.49
920.61	12730.17
920.78	12818.24
920.95	12818.24
921.12	12648.26
921.29	12646.21
921.46	12638.02
921.62	12468.03
921.79	12609.34
921.96	12582.72
922.13	12519.23
922.30	12662.59
922.47	12316.48
922.63	12361.54
922.80	12595.01
922.97	12109.64
923.14	12050.25
923.31	12332.87
923.47	12027.72
923.64	12304.20
923.81	11888.46
923.98	11960.14
924.15	11814.73
924.32	12111.69
924.48	12054.34
924.65	12058.44
924.82	11749.20
924.99	11607.89
925.15	11622.22
925.32	11665.23
925.49	11661.13
925.66	11517.78
925.83	11616.08
925.99	11519.82
926.16	11435.86
926.33	11650.89
926.50	11317.08
926.67	11235.16
926.83	11237.20
927.00	11378.51
927.17	11194.20
927.34	11153.24
927.50	10985.30
927.67	11224.92
927.84	11018.07
928.01	11110.23
928.17	10921.82
928.34	10819.42
928.51	10790.75
928.68	10952.54
928.84	10686.30
929.01	10608.48
929.18	10573.66
929.35	10796.89
929.51	10614.62
929.68	10569.57
929.85	10436.45
930.02	10393.44
930.18	10346.34
930.35	10391.39
930.52	10254.18
930.69	10303.33
930.85	10428.26
931.02	10235.75
931.19	10168.16
931.36	10026.86
931.52	9889.64
931.69	10092.39
931.86	9830.25
932.02	9858.92
932.19	9873.26
932.36	9873.26
932.53	9865.07
932.69	9809.77
932.86	9748.33
933.03	9803.63
933.19	9490.29
933.36	9496.43
933.53	9686.89
933.70	9498.48
933.86	9478.00
934.03	9486.19
934.20	9314.16
934.36	9363.31
934.53	8976.25
934.70	9140.08
934.86	8945.53
935.03	9049.97
935.20	8986.49
935.36	8925.05
935.53	8771.45
935.70	8667.00
935.86	8957.82
936.03	8603.52
936.20	8400.77
936.36	8503.17
936.53	8454.02
936.70	8200.07
936.86	8322.94
937.03	8390.53
937.20	8224.64
937.36	8042.37
937.53	7894.92
937.70	7878.54
937.86	7651.21
938.03	7868.30
938.20	7688.07
938.36	7577.48
938.53	7686.03
938.70	7423.89
938.86	7468.94
939.03	7239.57
939.20	7108.50
939.36	7028.63
939.53	7061.40
939.70	7014.29
939.86	6942.61
940.03	6758.30
940.19	6715.29
940.36	6549.40
940.53	6743.96
940.69	6637.47
940.86	6539.16
941.03	6629.27
941.19	6221.73
941.36	6250.40
941.52	6223.78
941.69	6260.64
941.86	6119.33
942.02	6043.56
942.19	6057.89
942.35	6047.65
942.52	5875.62
942.69	5984.16
942.85	5812.14
943.02	5777.32
943.18	5808.04
943.35	5795.75
943.52	5734.31
943.68	5674.92
943.85	5599.15
944.01	5533.61
944.18	5640.11
944.35	5650.35
944.51	5441.45
944.68	5367.73
944.84	5330.86
945.01	5314.48
945.17	5443.50
945.34	5441.45
945.51	5517.23
945.67	5289.90
945.84	5296.05
946.00	5183.41
946.17	5392.30
946.33	5193.65
946.50	5412.78
946.67	5392.30
946.83	5261.23
947.00	5250.99
947.16	5322.67
947.33	5283.76
947.49	5226.42
947.66	5244.85
947.82	5255.09
947.99	5312.43
948.16	5228.46
948.32	5179.31
948.49	5353.39
948.65	5228.46
948.82	5248.94
948.98	5230.51
949.15	5167.03
949.31	5275.57
949.48	5234.61
949.64	5162.93
949.81	5175.22
949.97	5136.31
950.14	5269.42
950.30	5064.63
950.47	5386.16
950.63	5253.04
950.80	5308.34
950.96	5187.50
951.13	5253.04
951.30	5306.29
951.46	5279.66
951.63	5443.50
951.79	5236.66
951.96	5500.84
952.12	5304.24
952.29	5418.93
952.45	5312.43
952.62	5128.11
952.78	5390.25
952.94	5283.76
953.11	5236.66
953.27	5265.33
953.44	5533.61
953.60	5431.21
953.77	5447.60
953.93	5480.36
954.10	5431.21
954.26	5322.67
954.43	5373.87
954.59	5511.08
954.76	5509.04
954.92	5461.93
955.09	5324.72
955.25	5345.20
955.42	5437.36
955.58	5533.61
955.75	5455.79
955.91	5431.21
956.07	5375.92
956.24	5463.98
956.40	5474.22
956.57	5525.42
956.73	5255.09
956.90	5332.91
957.06	5420.97
957.23	5353.39
957.39	5117.87
957.56	5398.45
957.72	5275.57
957.88	5326.77
958.05	5447.60
958.21	5523.37
958.38	5435.31
958.54	5410.73
958.71	5535.66
958.87	5343.15
959.03	5365.68
959.20	5468.08
959.36	5509.04
959.53	5406.64
959.69	5382.06
959.85	5431.21
960.02	5220.27
960.18	5361.58
960.35	5427.12
960.51	5494.70
960.68	5289.90
960.84	5416.88
961.00	5439.40
961.17	5414.83
961.33	5509.04
961.50	5463.98
961.66	5457.84
961.82	5365.68
961.99	5435.31
962.15	5498.80
962.31	5394.35
962.48	5271.47
962.64	5429.17
962.81	5341.10
962.97	5337.01
963.13	5291.95
963.30	5359.53
963.46	5261.23
963.62	5308.34
963.79	5394.35
963.95	5388.21
964.12	5330.86
964.28	5392.30
964.44	5308.34
964.61	5267.38
964.77	5345.20
964.93	5318.57
965.10	5224.37
965.26	5300.14
965.42	5171.12
965.59	5162.93
965.75	5255.09
965.92	5339.05
966.08	5427.12
966.24	5181.36
966.41	5154.74
966.57	5437.36
966.73	5318.57
966.90	5400.49
967.06	5228.46
967.22	5091.25
967.39	5164.98
967.55	5115.83
967.71	5187.50
967.88	5201.84
968.04	5046.20
968.20	5126.07
968.37	5044.15
968.53	5072.82
968.69	5212.08
968.85	5105.59
969.02	5218.22
969.18	5183.41
969.34	5136.31
969.51	5081.01
969.67	5115.83
969.83	5126.07
970.00	5124.02
970.16	5109.68
970.32	5210.03
970.48	5130.16
970.65	5068.72
970.81	4949.94
970.97	4966.32
971.14	4992.95
971.30	5052.34
971.46	4931.51
971.63	5042.10
971.79	5162.93
971.95	4988.85
972.11	4988.85
972.28	4874.17
972.44	4990.90
972.60	4841.40
972.76	5126.07
972.93	4964.28
973.09	5070.77
973.25	4906.93
973.42	4825.01
973.58	4884.41
973.74	4949.94
973.90	4997.04
974.07	4980.66
974.23	4849.59
974.39	4878.26
974.55	4818.87
974.72	4657.08
974.88	4751.29
975.04	4947.89
975.20	4732.86
975.37	4847.54
975.53	4673.46
975.69	4745.14
975.85	4659.13
976.01	4847.54
976.18	4743.10
976.34	4706.23
976.50	4601.79
976.66	4759.48
976.83	4704.18
976.99	4632.51
977.15	4687.80
977.31	4528.06
977.47	4902.84
977.64	4679.61
977.80	4601.79
977.96	4751.29
978.12	4650.94
978.29	4700.09
978.45	4497.34
978.61	4497.34
978.77	4554.68
978.93	4569.02
979.10	4566.97
979.26	4446.14
979.42	4599.74
979.58	4505.53
979.74	4464.57
979.91	4493.24
980.07	4474.81
980.23	4503.48
980.39	4499.39
980.55	4497.34
980.71	4409.28
980.88	4399.04
981.04	4403.13
981.20	4413.37
981.36	4378.56
981.52	4374.46
981.68	4274.11
981.85	4292.54
982.01	4366.27
982.17	4321.21
982.33	4286.40
982.49	4331.45
982.65	4386.75
982.82	4124.61
982.98	4235.20
983.14	4339.65
983.30	4325.31
983.46	4149.18
983.62	4216.77
983.79	4358.08
983.95	4292.54
984.11	4112.32
984.27	4140.99
984.43	4179.90
984.59	4304.83
984.75	4181.95
984.91	4239.30
985.08	4169.66
985.24	4202.43
985.40	4024.26
985.56	4177.86
985.72	4165.57
985.88	4161.47
986.04	4040.64
986.20	4052.93
986.37	4140.99
986.53	4091.84
986.69	4069.31
986.85	4005.83
987.01	4091.84
987.17	4110.27
987.33	3991.49
987.49	3962.82
987.65	4003.78
987.82	3983.30
987.98	3889.09
988.14	4040.64
988.30	3999.68
988.46	3985.35
988.62	3923.91
988.78	4046.79
988.94	3844.04
989.10	3872.71
989.26	3735.50
989.42	3878.85
989.59	3745.73
989.75	3770.31
989.91	3841.99
990.07	3684.30
990.23	3792.84
990.39	3872.71
990.55	3782.60
990.71	3835.85
990.87	3770.31
991.03	3796.93
991.19	3682.25
991.35	3794.89
991.51	3807.17
991.67	3882.95
991.83	3684.30
992.00	3817.41
992.16	3669.96
992.32	3864.52
992.48	3794.89
992.64	3690.44
992.80	3784.65
992.96	3725.26
993.12	3715.02
993.28	3647.43
993.44	3737.54
993.60	3665.86
993.76	3635.14
993.92	3645.38
994.08	3715.02
994.24	3602.38
994.40	3622.86
994.56	3731.40
994.72	3618.76
994.88	3542.99
995.04	3661.77
995.20	3387.34
995.36	3393.48
995.52	3553.23
995.68	3508.17
995.84	3528.65
996.00	3637.19
996.16	3497.93
996.32	3418.06
996.48	3506.12
996.64	3553.23
996.80	3483.59
996.96	3526.60
997.12	3444.68
997.28	3352.52
997.44	3370.96
997.60	3381.20
997.76	3385.29
997.92	3379.15
998.08	3407.82
998.24	3332.05
998.40	3368.91
998.56	3467.21
998.72	3342.28
998.88	3409.87
999.04	3338.19
999.20	3354.57
999.36	3330.00
999.52	3393.48
999.68	3401.68
999.84	3436.49
1000.00	3385.29
1000.16	3407.82
1000.32	3266.51
1000.48	3315.66
1000.64	3186.64
1000.80	3123.15
1000.95	3145.68
1001.11	3323.85
1001.27	3235.79
1001.43	3233.74
1001.59	3178.45
1001.75	3114.96
1001.91	3225.55
1002.07	3205.07
1002.23	3194.83
1002.39	3114.96
1002.55	3260.37
1002.71	3174.35
1002.87	3133.39
1003.03	3137.49
1003.19	3153.87
1003.34	3198.93
1003.50	3186.64
1003.66	3125.20
1003.82	3162.06
1003.98	3174.35
1004.14	3067.86
1004.30	3096.53
1004.46	3020.75
1004.62	3049.43
1004.78	3018.71
1004.94	3051.47
1005.09	3067.86
1005.25	3049.43
1005.41	2938.84
1005.57	2842.58
1005.73	2959.31
1005.89	2977.75
1006.05	3041.23
1006.21	3041.23
1006.37	2916.31
1006.52	2922.45
1006.68	2863.06
1006.84	2981.84
1007.00	2881.49
1007.16	3106.77
1007.32	2858.96
1007.48	2861.01
1007.64	2912.21
1007.79	2850.77
1007.95	2852.82
1008.11	2961.36
1008.27	2858.96
1008.43	2983.89
1008.59	2826.20
1008.75	2848.72
1008.91	2897.88
1009.06	2836.44
1009.22	2854.87
1009.38	2850.77
1009.54	2777.05
1009.70	2820.05
1009.86	2840.53
1010.01	2775.00
1010.17	2752.47
1010.33	2852.82
1010.49	2836.44
1010.65	2889.68
1010.81	2701.27
1010.96	2815.96
1011.12	2725.85
1011.28	2668.50
1011.44	2777.05
1011.60	2709.46
1011.76	2725.85
1011.91	2809.81
1012.07	2658.26
1012.23	2623.45
1012.39	2635.74
1012.55	2777.05
1012.71	2674.65
1012.86	2654.17
1013.02	2715.61
1013.18	2703.32
1013.34	2645.98
1013.50	2729.94
1013.65	2643.93
1013.81	2551.77
1013.97	2598.87
1014.13	2695.13
1014.29	2617.30
1014.44	2650.07
1014.60	2568.15
1014.76	2615.26
1014.92	2645.98
1015.07	2629.59
1015.23	2613.21
1015.39	2596.82
1015.55	2580.44
1015.71	2541.53
1015.86	2613.21
1016.02	2506.71
1016.18	2514.91
1016.34	2498.52
1016.49	2535.39
1016.65	2615.26
1016.81	2547.67
1016.97	2555.86
1017.12	2512.86
1017.28	2455.51
1017.44	2346.97
1017.60	2537.43
1017.75	2488.28
1017.91	2488.28
1018.07	2453.47
1018.23	2543.58
1018.38	2465.75
1018.54	2527.19
1018.70	2416.60
1018.86	2465.75
1019.01	2404.32
1019.17	2416.60
1019.33	2510.81
1019.49	2367.45
1019.64	2416.60
1019.80	2404.32
1019.96	2420.70
1020.12	2435.03
1020.27	2355.16
1020.43	2357.21
1020.59	2389.98
1020.74	2412.51
1020.90	2400.22
1021.06	2357.21
1021.22	2416.60
1021.37	2387.93
1021.53	2283.49
1021.69	2445.27
1021.84	2273.25
1022.00	2273.25
1022.16	2277.34
1022.31	2414.56
1022.47	2435.03
1022.63	2420.70
1022.79	2289.63
1022.94	2291.68
1023.10	2512.86
1023.26	2281.44
1023.41	2285.53
1023.57	2279.39
1023.73	2349.02
1023.88	2256.86
1024.04	2265.05
1024.20	2269.15
1024.35	2338.78
1024.51	2324.44
1024.67	2226.14
1024.82	2312.16
1024.98	2189.28
1025.14	2277.34
1025.29	2164.70
1025.45	2220.00
1025.61	2162.66
1025.76	2240.48
1025.92	2232.29
1026.08	2310.11
1026.23	2217.95
1026.39	2306.01
1026.55	2209.76
1026.70	2265.05
1026.86	2244.57
1027.02	2254.81
1027.17	2248.67
1027.33	2156.51
1027.48	2181.09
1027.64	2105.31
1027.80	2203.61
1027.95	2189.28
1028.11	2076.64
1028.27	2207.71
1028.42	2179.04
1028.58	2174.94
1028.73	2078.69
1028.89	2107.36
1029.05	2209.76
1029.20	2125.79
>>>>>End Processed Spectral Data<<<<<
