SpectraSuite Data File
++++++++++++++++++++++++++++++++++++
Date: Fri Jun 02 14:57:19 CEST 2017
User: INFO_000
Dark Spectrum Present: No
Reference Spectrum Present: No
Number of Sampled Component Spectra: 1
Spectrometers: USB4H00879
Integration Time (usec): 80000 (USB4H00879)
Spectra Averaged: 1 (USB4H00879)
Boxcar Smoothing: 0 (USB4H00879)
Correct for Electrical Dark: No (USB4H00879)
Strobe/Lamp Enabled: No (USB4H00879)
Correct for Detector Non-linearity: No (USB4H00879)
Correct for Stray Light: No (USB4H00879)
Number of Pixels in Processed Spectrum: 3648
>>>>>Begin Processed Spectral Data<<<<<
345.13	1214.45
345.34	1214.45
345.56	1214.45
345.78	1341.42
345.99	1202.16
346.21	1650.66
346.42	1691.62
346.64	1597.42
346.86	1761.25
347.07	1624.04
347.29	1718.25
347.50	1640.42
347.72	1708.01
347.94	1759.21
348.15	1570.79
348.37	1665.00
348.59	1691.62
348.80	1634.28
349.02	1843.17
349.23	1892.32
349.45	1832.93
349.67	1912.80
349.88	1720.29
350.10	2011.11
350.31	1855.46
350.53	1812.45
350.75	1959.91
350.96	1806.31
351.18	1871.84
351.39	1796.07
351.61	1777.64
351.82	1839.08
352.04	1894.37
352.26	1816.55
352.47	1894.37
352.69	1912.80
352.90	1726.44
353.12	1849.32
353.34	1873.89
353.55	1968.10
353.77	1867.75
353.98	1851.36
354.20	1871.84
354.41	1888.23
354.63	1923.04
354.85	2068.45
355.06	1941.47
355.28	1830.88
355.49	1859.56
355.71	1927.14
355.92	1902.56
356.14	1927.14
356.35	1830.88
356.57	1888.23
356.79	1910.75
357.00	1867.75
357.22	1976.29
357.43	1855.46
357.65	1966.05
357.86	1933.28
358.08	1908.71
358.29	1916.90
358.51	1916.90
358.72	1988.58
358.94	1904.61
359.16	1966.05
359.37	1902.56
359.59	1884.13
359.80	1990.63
360.02	1970.15
360.23	1976.29
360.45	1978.34
360.66	1978.34
360.88	1880.04
361.09	1945.57
361.31	2023.39
361.52	1892.32
361.74	2033.63
361.95	2084.83
362.17	1957.86
362.38	2107.36
362.60	1957.86
362.81	1884.13
363.03	1912.80
363.24	1978.34
363.46	2068.45
363.67	2039.78
363.89	2009.06
364.10	2011.11
364.32	1949.67
364.53	2050.02
364.75	1890.28
364.96	1996.77
365.18	1998.82
365.39	2015.20
365.61	2050.02
365.82	2107.36
366.04	2066.40
366.25	2000.87
366.47	1927.14
366.68	1996.77
366.90	1978.34
367.11	2103.26
367.33	2084.83
367.54	2017.25
367.76	1964.00
367.97	2088.93
368.19	2037.73
368.40	2111.46
368.62	1947.62
368.83	2097.12
369.05	2115.55
369.26	1980.39
369.48	2011.11
369.69	2002.91
369.91	2068.45
370.12	1996.77
370.33	2123.74
370.55	2066.40
370.76	2025.44
370.98	2064.35
371.19	2045.92
371.41	1992.67
371.62	2078.69
371.84	2025.44
372.05	2248.67
372.27	2113.50
372.48	2088.93
372.69	2035.68
372.91	2146.27
373.12	2101.22
373.34	2115.55
373.55	2109.41
373.77	2121.70
373.98	2099.17
374.20	2154.46
374.41	2306.01
374.62	2140.13
374.84	2127.84
375.05	2150.37
375.27	2215.90
375.48	2160.61
375.70	2179.04
375.91	2187.23
376.12	2312.16
376.34	2164.70
376.55	2205.66
376.77	2238.43
376.98	2166.75
377.19	2222.05
377.41	2154.46
377.62	2197.47
377.84	2265.05
378.05	2363.36
378.27	2121.70
378.48	2277.34
378.69	2295.77
378.91	2299.87
379.12	2197.47
379.34	2271.20
379.55	2316.25
379.76	2230.24
379.98	2240.48
380.19	2279.39
380.41	2365.40
380.62	2291.68
380.83	2275.29
381.05	2191.33
381.26	2400.22
381.47	2195.42
381.69	2271.20
381.90	2418.65
382.12	2295.77
382.33	2254.81
382.54	2306.01
382.76	2402.27
382.97	2299.87
383.19	2297.82
383.40	2420.70
383.61	2314.20
383.83	2238.43
384.04	2363.36
384.25	2385.88
384.47	2383.84
384.68	2365.40
384.89	2375.64
385.11	2379.74
385.32	2408.41
385.54	2351.07
385.75	2330.59
385.96	2412.51
386.18	2385.88
386.39	2342.88
386.60	2344.92
386.82	2396.12
387.03	2414.56
387.24	2473.95
387.46	2490.33
387.67	2500.57
387.88	2598.87
388.10	2396.12
388.31	2539.48
388.52	2514.91
388.74	2508.76
388.95	2574.30
389.16	2502.62
389.38	2576.34
389.59	2449.37
389.80	2590.68
390.02	2549.72
390.23	2551.77
390.44	2451.42
390.66	2648.02
390.87	2570.20
391.08	2629.59
391.30	2822.10
391.51	2688.98
391.72	2715.61
391.94	2650.07
392.15	2605.02
392.36	2551.77
392.58	2643.93
392.79	2695.13
393.00	2777.05
393.22	2633.69
393.43	2748.37
393.64	2762.71
393.85	2899.92
394.07	2648.02
394.28	2717.65
394.49	2719.70
394.71	2793.43
394.92	2791.38
395.13	2570.20
395.35	2697.17
395.56	2791.38
395.77	2828.24
395.98	2815.96
396.20	2852.82
396.41	2844.63
396.62	2938.84
396.84	2846.68
397.05	2818.00
397.26	2830.29
397.47	2953.17
397.69	2789.33
397.90	3039.19
398.11	2906.07
398.32	2822.10
398.54	2854.87
398.75	2951.12
398.96	2967.51
399.18	2992.08
399.39	3018.71
399.60	3026.90
399.81	2953.17
400.03	2938.84
400.24	3303.37
400.45	3026.90
400.66	3098.58
400.88	2951.12
401.09	3139.54
401.30	3059.67
401.51	3131.34
401.73	3170.26
401.94	3104.72
402.15	3055.57
402.36	3184.59
402.58	3198.93
402.79	3190.74
403.00	3049.43
403.21	3248.08
403.43	3264.46
403.64	3289.04
403.85	3215.31
404.06	3309.52
404.27	3082.19
404.49	3192.78
404.70	3268.56
404.91	3188.69
405.12	3149.78
405.34	3262.41
405.55	3397.58
405.76	3149.78
405.97	3272.65
406.19	3459.02
406.40	3330.00
406.61	3305.42
406.82	3379.15
407.03	3284.94
407.25	3317.71
407.46	3364.81
407.67	3411.92
407.88	3432.40
408.09	3334.09
408.31	3336.14
408.52	3442.64
408.73	3456.97
408.94	3434.44
409.15	3305.42
409.37	3626.95
409.58	3542.99
409.79	3553.23
410.00	3583.95
410.21	3428.30
410.43	3395.53
410.64	3405.77
410.85	3583.95
411.06	3639.24
411.27	3524.55
411.48	3520.46
411.70	3563.47
411.91	3600.33
412.12	3598.28
412.33	3575.75
412.54	3565.51
412.76	3690.44
412.97	3626.95
413.18	3608.52
413.39	3708.87
413.60	3678.15
413.81	3751.88
414.03	3645.38
414.24	3694.54
414.45	3745.73
414.66	3524.55
414.87	3755.97
415.08	3682.25
415.30	3776.45
415.51	3821.51
415.72	3819.46
415.93	3717.06
416.14	3882.95
416.35	3760.07
416.56	3841.99
416.78	3878.85
416.99	3885.00
417.20	3821.51
417.41	3852.23
417.62	3907.52
417.83	3993.54
418.04	3907.52
418.26	3940.29
418.47	3907.52
418.68	3948.48
418.89	4067.27
419.10	4120.51
419.31	4022.21
419.52	4038.59
419.73	3960.77
419.95	4163.52
420.16	3798.98
420.37	3948.48
420.58	4089.79
420.79	3893.19
421.00	4100.03
421.21	4186.05
421.42	4057.03
421.63	4102.08
421.85	4136.90
422.06	4061.12
422.27	4132.80
422.48	4014.02
422.69	4251.58
422.90	4317.12
423.11	4263.87
423.32	4179.90
423.53	4304.83
423.75	4313.02
423.96	4560.83
424.17	4392.89
424.38	4460.48
424.59	4442.04
424.80	4626.36
425.01	4313.02
425.22	4345.79
425.43	4519.87
425.64	4607.93
425.85	4759.48
426.06	4634.55
426.28	4577.21
426.49	4394.94
426.70	4575.16
426.91	4554.68
427.12	4526.01
427.33	4601.79
427.54	4554.68
427.75	4726.71
427.96	4962.23
428.17	4655.03
428.38	4882.36
428.59	4812.73
428.80	4687.80
429.01	4882.36
429.23	4767.67
429.44	5021.62
429.65	4845.49
429.86	4898.74
430.07	4771.77
430.28	4945.84
430.49	4884.41
430.70	4960.18
430.91	4990.90
431.12	4933.56
431.33	5103.54
431.54	5132.21
431.75	5031.86
431.96	5076.91
432.17	5107.63
432.38	5085.11
432.59	5371.82
432.80	5201.84
433.01	5183.41
433.22	5271.47
433.43	5380.01
433.64	5386.16
433.85	5179.31
434.06	5291.95
434.27	5271.47
434.49	5363.63
434.70	5545.90
434.91	5492.65
435.12	5617.58
435.33	5486.51
435.54	5408.69
435.75	5273.52
435.96	5529.52
436.17	5363.63
436.38	5349.29
436.59	5717.93
436.80	5423.02
437.01	5832.62
437.22	5623.72
437.43	5650.35
437.64	5472.17
437.85	5719.98
438.06	5654.44
438.27	5445.55
438.48	5758.89
438.69	5830.57
438.90	5679.02
439.11	5734.31
439.32	5922.73
439.53	5853.09
439.74	5853.09
439.95	5840.81
440.16	5842.85
440.37	5918.63
440.57	5767.08
440.78	5986.21
440.99	5885.86
441.20	6025.12
441.41	5898.15
441.62	6023.08
441.83	5892.01
442.04	6174.63
442.25	6041.51
442.46	6033.32
442.67	6117.28
442.88	6520.73
443.09	5990.31
443.30	6018.98
443.51	6074.28
443.72	6324.13
443.93	6025.12
444.14	6336.42
444.35	6236.06
444.56	6338.46
444.77	6168.48
444.98	6227.87
445.19	6352.80
445.40	6348.70
445.61	6410.14
445.81	6412.19
446.02	6373.28
446.23	6487.96
446.44	6240.16
446.65	6500.25
446.86	6524.83
447.07	6672.28
447.28	6668.19
447.49	6690.71
447.70	6555.55
447.91	6760.34
448.12	6598.56
448.33	6696.86
448.54	6770.58
448.74	6496.16
448.95	6711.19
449.16	6649.75
449.37	6946.71
449.58	6862.74
449.79	6924.18
450.00	6743.96
450.21	7002.01
450.42	7016.34
450.63	6973.33
450.84	6889.37
451.05	7020.44
451.25	6872.98
451.46	6979.48
451.67	7042.96
451.88	7239.57
452.09	7163.79
452.30	7085.97
452.51	7217.04
452.72	7337.87
452.93	7444.37
453.13	7114.64
453.34	7088.02
453.55	7278.48
453.76	7307.15
453.97	7778.19
454.18	7444.37
454.39	7522.19
454.60	7376.78
454.81	7358.35
455.01	7698.31
455.22	7235.47
455.43	7624.59
455.64	7876.49
455.85	7792.52
456.06	7985.03
456.27	7860.10
456.48	7755.66
456.68	7880.58
456.89	7788.43
457.10	8021.89
457.31	7956.36
457.52	7638.92
457.73	8114.05
457.94	8122.24
458.14	8001.41
458.35	8273.79
458.56	8120.20
458.77	7999.37
458.98	8361.86
459.19	8206.21
459.39	8370.05
459.60	8521.60
459.81	8345.47
460.02	8451.97
460.23	8511.36
460.44	8550.27
460.65	8710.01
460.85	8654.72
461.06	8734.59
461.27	8511.36
461.48	8894.33
461.69	8955.77
461.89	8644.48
462.10	8931.19
462.31	8888.18
462.52	8863.61
462.73	8703.87
462.94	8982.39
463.14	9168.76
463.35	9117.56
463.56	9510.77
463.77	9478.00
463.98	9224.05
464.18	9244.53
464.39	9394.03
464.60	9695.08
464.81	9672.56
465.02	9496.43
465.23	9891.69
465.43	9510.77
465.64	9918.31
465.85	9856.87
466.06	9699.18
466.27	10016.62
466.47	9910.12
466.68	10006.38
466.89	9971.56
467.10	10325.86
467.30	9979.75
467.51	10039.14
467.72	10501.98
467.93	10211.17
468.14	10475.36
468.34	10561.37
468.55	10575.71
468.76	10649.44
468.97	10327.91
469.17	10643.29
469.38	10641.25
469.59	10860.38
469.80	10569.57
470.01	10958.68
470.21	10856.28
470.42	11116.37
470.63	11149.14
470.84	11069.27
471.04	11370.32
471.25	11413.33
471.46	11405.14
471.67	11384.66
471.87	11339.60
472.08	11464.53
472.29	11714.38
472.50	11558.74
472.70	11626.32
472.91	11749.20
473.12	11962.19
473.33	11767.63
473.53	12326.72
473.74	11786.06
473.95	12162.89
474.16	12212.04
474.36	12422.98
474.57	12545.86
474.78	12443.46
474.99	12619.58
475.19	12322.63
475.40	12742.46
475.61	12885.82
475.81	13066.04
476.02	13037.37
476.23	13020.99
476.44	13082.42
476.64	13287.22
476.85	13518.64
477.06	13465.39
477.27	13584.18
477.47	13758.25
477.68	13733.68
477.89	13881.13
478.09	13874.99
478.30	13954.86
478.51	13958.96
478.71	14110.50
478.92	14303.01
479.13	14593.83
479.34	14493.47
479.54	14599.97
479.75	14475.04
479.96	14434.08
480.16	14624.54
480.37	14743.33
480.58	15017.75
480.78	15003.42
480.99	15142.68
481.20	15267.61
481.41	15296.28
481.61	15259.42
481.82	15636.24
482.03	15777.55
482.23	15775.50
482.44	15681.30
482.65	16058.12
482.85	15968.01
483.06	15978.25
483.27	16199.43
483.47	16375.56
483.68	16320.26
483.89	16365.32
484.09	16455.43
484.30	16660.23
484.51	16729.86
484.71	16578.31
484.92	16776.96
485.13	16846.59
485.33	17182.46
485.54	16854.78
485.75	17356.54
485.95	17374.97
486.16	17344.25
486.37	17555.19
486.57	17565.43
486.78	17581.81
486.98	17551.09
487.19	17864.43
487.40	18128.62
487.60	18040.56
487.81	18265.83
488.02	18073.32
488.22	17987.31
488.43	18290.41
488.64	18515.69
488.84	18544.36
489.05	18616.04
489.25	18704.10
489.46	18933.47
489.67	18613.99
489.87	19076.83
490.08	18990.81
490.29	19017.44
490.49	19369.69
490.70	19418.84
490.90	19580.63
491.11	19336.92
491.32	19646.16
491.52	19472.09
491.73	19564.25
491.94	19752.66
492.14	19912.40
492.35	20055.76
492.55	19947.22
492.76	20219.60
492.97	20305.61
493.17	20231.88
493.38	20494.02
493.58	20735.68
493.79	20362.95
494.00	20664.00
494.20	20768.45
494.41	20997.82
494.61	20842.18
494.82	20909.76
495.02	21128.89
495.23	21286.59
495.44	21376.70
495.64	21571.25
495.85	21456.57
496.05	21538.49
496.26	21345.98
496.47	21907.12
496.67	21681.85
496.88	21866.16
497.08	21765.81
497.29	22027.95
497.49	21956.27
497.70	22023.86
497.91	22228.65
498.11	22228.65
498.32	22439.59
498.52	22505.13
498.73	22689.45
498.93	22795.94
499.14	22812.32
499.34	22748.84
499.55	22714.02
499.76	22955.68
499.96	23303.84
500.17	22970.02
500.37	23121.57
500.58	23127.71
500.78	22927.01
500.99	23447.19
501.19	23633.56
501.40	23289.50
501.60	23348.89
501.81	23529.11
502.02	23688.85
502.22	23672.47
502.43	23778.97
502.63	23850.64
502.84	23873.17
503.04	23719.57
503.25	23965.33
503.45	24032.91
503.66	24321.68
503.86	24387.21
504.07	24579.72
504.27	24133.26
504.48	24592.01
504.68	24563.34
504.89	24653.45
505.09	25097.86
505.30	24895.11
505.50	24884.87
505.71	24784.52
505.91	25124.48
506.12	24893.06
506.32	25101.95
506.53	25247.36
506.73	25001.60
506.94	25388.67
507.14	25095.81
507.35	25173.63
507.55	25308.80
507.76	25540.22
507.96	25501.31
508.17	25241.21
508.37	25554.55
508.58	25482.88
508.78	25708.15
508.99	26173.04
509.19	26060.40
509.40	26076.79
509.60	25708.15
509.81	25933.43
510.01	26111.60
510.22	26228.34
510.42	26082.93
510.63	26105.46
510.83	26455.66
511.04	26238.58
511.24	26625.64
511.44	26558.06
511.65	26363.50
511.85	26414.70
512.06	26402.41
512.26	26906.21
512.47	26728.04
512.67	26807.91
512.88	26752.62
513.08	26404.46
513.29	26855.01
513.49	26910.31
513.69	26656.36
513.90	27203.17
514.10	26814.05
514.31	27338.33
514.51	27151.97
514.72	27539.04
514.92	27270.75
515.13	27426.40
515.33	27209.31
515.53	27565.66
515.74	27264.61
515.94	27590.24
516.15	27616.86
516.35	27528.80
516.56	27840.09
516.76	27881.05
516.96	27690.59
517.17	28317.26
517.37	28180.05
517.58	28272.21
517.78	28188.24
517.99	28108.37
518.19	28470.86
518.39	28388.94
518.60	28640.84
518.80	28319.31
519.01	28573.26
519.21	28855.88
519.41	28816.97
519.62	28493.39
519.82	28755.53
520.03	28669.51
520.23	28550.73
520.43	28542.54
520.64	29081.16
520.84	29130.31
521.05	29183.55
521.25	29244.99
521.45	29548.09
521.66	29834.81
521.86	29314.62
522.07	29726.27
522.27	29558.33
522.47	29799.99
522.68	30170.68
522.88	29732.41
523.08	30264.88
523.29	29869.62
523.49	30428.72
523.70	29992.50
523.90	30400.05
524.10	30262.83
524.31	30148.15
524.51	30068.28
524.71	30522.93
524.92	30367.28
525.12	30948.90
525.33	30670.38
525.53	30932.52
525.73	30912.04
525.94	31190.56
526.14	31219.24
526.34	31172.13
526.55	31252.00
526.75	31526.43
526.95	31319.59
527.16	31319.59
527.36	31559.20
527.56	31469.09
527.77	32003.61
527.97	31888.92
528.17	32015.90
528.38	32091.67
528.58	31995.42
528.78	32249.36
528.99	31946.26
529.19	32855.56
529.39	32206.36
529.60	32626.19
529.80	32417.30
530.00	32517.65
530.21	32773.64
530.41	32904.71
530.61	32790.03
530.82	32976.39
531.02	33226.24
531.22	33140.23
531.43	32949.77
531.63	33418.75
531.83	33449.47
532.04	33793.53
532.24	33654.27
532.44	33971.71
532.64	33875.45
532.85	34092.54
533.05	34186.74
533.25	34080.25
533.46	33961.47
533.66	34582.00
533.86	34147.83
534.07	34506.23
534.27	34711.02
534.47	34528.75
534.67	35010.03
534.88	35069.42
535.08	34747.89
535.28	35044.84
535.49	35440.10
535.69	35544.55
535.89	35857.88
536.09	35526.11
536.30	35802.59
536.50	35673.57
536.70	36091.35
536.91	35837.41
537.11	35988.95
537.31	35976.67
537.51	35814.88
537.72	36011.48
537.92	36482.52
538.12	36537.81
538.32	36404.69
538.53	36746.70
538.73	36238.81
538.93	36425.17
539.13	36853.20
539.34	36398.55
539.54	36767.18
539.74	36879.82
539.94	36773.33
540.15	37254.60
540.35	37219.78
540.55	37258.70
540.75	37529.03
540.96	37273.03
541.16	37479.88
541.36	37361.09
541.56	37406.15
541.77	37979.58
541.97	37469.64
542.17	37709.25
542.37	37930.43
542.58	38036.92
542.78	37934.53
542.98	38174.14
543.18	38096.31
543.38	38440.37
543.59	38704.56
543.79	38036.92
543.99	38450.61
544.19	38712.75
544.40	38829.49
544.60	39005.61
544.80	38499.76
545.00	39003.56
545.20	39007.66
545.41	39065.00
545.61	39157.16
545.81	39349.67
546.01	39284.14
546.21	39284.14
546.42	39026.09
546.62	39703.97
546.82	39634.34
547.02	39120.30
547.22	39337.38
547.43	39179.69
547.63	39513.51
547.83	39601.57
548.03	39460.26
548.23	39507.37
548.44	39646.63
548.64	40031.65
548.84	40074.65
549.04	39832.99
549.24	40508.82
549.45	40482.20
549.65	39681.44
549.85	40050.08
550.05	40574.36
550.25	40099.23
550.45	41008.53
550.66	40359.32
550.86	40562.07
551.06	40719.76
551.26	40402.33
551.46	40531.35
551.66	40646.04
551.87	40484.25
552.07	40793.49
552.27	40646.04
552.47	41108.88
552.67	41104.78
552.87	41162.12
553.07	41393.54
553.28	41280.91
553.48	41672.07
553.68	41069.97
553.88	41463.18
554.08	41225.61
554.28	41278.86
554.48	41225.61
554.69	41614.72
554.89	41469.32
555.09	41362.82
555.29	41323.91
555.49	41893.25
555.69	41579.91
555.89	41444.74
556.10	42325.37
556.30	41708.93
556.50	41823.62
556.70	41651.59
556.90	42179.96
557.10	42098.05
557.30	41368.97
557.50	42022.27
557.70	42300.79
557.91	42395.00
558.11	42048.89
558.31	42216.83
558.51	41940.35
558.71	41940.35
558.91	42321.27
559.11	42186.11
559.31	42325.37
559.51	42448.25
559.72	42143.10
559.92	42472.82
560.12	42030.46
560.32	42370.43
560.52	42368.38
560.72	42632.57
560.92	42505.59
561.12	42503.54
561.32	43294.06
561.52	42642.81
561.72	43044.21
561.93	42997.10
562.13	42626.42
562.33	42808.69
562.53	43285.87
562.73	42421.62
562.93	42861.94
563.13	43328.87
563.33	43177.33
563.53	43357.55
563.73	42485.11
563.93	43013.49
564.13	43212.14
564.33	43492.71
564.53	43265.39
564.74	43648.36
564.94	43298.16
565.14	43369.83
565.34	43521.38
565.54	43457.90
565.74	43951.46
565.94	44248.41
566.14	43851.11
566.34	43273.58
566.54	43461.99
566.74	43414.89
566.94	43965.79
567.14	44096.86
567.34	43707.75
567.54	44608.86
567.74	43697.51
567.94	43709.80
568.14	44004.70
568.34	44324.19
568.54	44174.69
568.74	44350.81
568.94	44182.88
569.14	44543.32
569.34	44389.72
569.54	44309.85
569.75	43978.08
569.95	44451.16
570.15	44414.30
570.35	44686.68
570.55	44060.00
570.75	44432.73
570.95	44617.05
571.15	44737.88
571.35	44680.53
571.55	45126.99
571.75	45081.94
571.95	44588.38
572.15	44768.60
572.35	45112.66
572.55	45026.64
572.75	45194.57
572.95	44889.43
573.15	44987.73
573.35	44893.52
573.55	44975.44
573.75	45157.71
573.95	45018.45
574.15	45196.62
574.35	45155.66
574.55	45438.28
574.75	45438.28
574.95	45407.56
575.15	45151.57
575.34	45423.95
575.54	45606.22
575.74	45784.39
575.94	45505.87
576.14	45501.77
576.34	45722.95
576.54	46298.43
576.74	46140.74
576.94	45497.67
577.14	46290.24
577.34	46312.77
577.54	46163.26
577.74	45802.82
577.94	45931.84
578.14	46361.92
578.34	46312.77
578.54	45864.26
578.74	46101.82
578.94	46163.26
579.14	46400.83
579.34	46574.91
579.54	46413.12
579.74	46873.91
579.94	46581.05
580.13	46617.91
580.33	46228.80
580.53	46683.45
580.73	46533.95
580.93	46636.34
581.13	46628.15
581.33	46959.92
581.53	47074.61
581.73	46767.41
581.93	47293.74
582.13	46755.13
582.33	47326.51
582.53	47236.40
582.73	47400.24
582.92	47199.54
583.12	47441.20
583.32	47322.41
583.52	47435.05
583.72	47748.39
583.92	47326.51
584.12	47715.62
584.32	47764.78
584.52	47940.90
584.72	47643.94
584.92	47713.58
585.11	48090.40
585.31	48211.23
585.51	48313.63
585.71	48295.20
585.91	48031.01
586.11	48071.97
586.31	48114.98
586.51	48395.55
586.71	48303.39
586.91	48620.83
587.10	48575.77
587.30	48663.83
587.50	48672.03
587.70	48641.31
587.90	49003.80
588.10	48442.65
588.30	48401.69
588.50	48827.67
588.69	48839.96
588.89	48860.44
589.09	48913.69
589.29	49061.14
589.49	49009.94
589.69	48903.45
589.89	49186.07
590.08	49001.75
590.28	49036.56
590.48	49278.22
590.68	48862.49
590.88	49411.34
591.08	49372.43
591.28	49009.94
591.47	49622.28
591.67	49751.30
591.87	49894.66
592.07	49788.17
592.27	49308.94
592.47	49290.51
592.67	49714.44
592.86	49530.12
593.06	49800.46
593.26	50234.63
593.46	49943.81
593.66	49966.34
593.86	49937.67
594.05	49485.07
594.25	50351.36
594.45	49902.85
594.65	49822.98
594.85	49544.46
595.05	50296.06
595.24	50814.20
595.44	49841.42
595.64	50420.99
595.84	50425.09
596.04	50629.88
596.23	50380.03
596.43	50550.01
596.63	50124.04
596.83	50703.61
597.03	50828.54
597.22	51047.67
597.42	50570.49
597.62	50994.42
597.82	51522.80
598.02	50779.39
598.21	51139.83
598.41	50818.30
598.61	51195.12
598.81	51094.77
599.01	51459.31
599.20	51238.13
599.40	51012.85
599.60	51492.08
599.80	51207.41
600.00	51193.07
600.19	51580.14
600.39	51258.61
600.59	51598.57
600.79	51631.34
600.98	51549.42
601.18	51950.82
601.38	52137.19
601.58	52065.51
601.78	52245.73
601.97	51920.10
602.17	52026.60
602.37	52384.99
602.57	51999.97
602.76	52196.58
602.96	51692.78
603.16	52272.35
603.36	52286.69
603.55	52499.68
603.75	52411.62
603.95	53204.18
604.15	52655.32
604.34	52384.99
604.54	52843.74
604.74	52860.12
604.94	52802.78
605.13	52919.51
605.33	52983.00
605.53	52364.51
605.73	53390.55
605.92	52874.46
606.12	53200.08
606.32	52946.14
606.52	52915.42
606.71	53353.68
606.91	53630.16
607.11	52935.90
607.30	53286.10
607.50	53433.55
607.70	53304.53
607.90	53271.76
608.09	53204.18
608.29	53585.10
608.49	53656.78
608.68	53564.62
608.88	53499.09
609.08	53890.25
609.28	54088.90
609.47	53726.41
609.67	54103.24
609.87	53904.59
610.06	53972.17
610.26	53916.87
610.46	53880.01
610.66	53859.53
610.85	53843.15
611.05	53744.84
611.25	54088.90
611.44	53216.47
611.64	54320.32
611.84	54230.21
612.03	53804.24
612.23	54236.36
612.43	54207.68
612.62	54252.74
612.82	54273.22
613.02	54373.57
613.21	53933.26
613.41	53794.00
613.61	54623.42
613.80	54099.14
614.00	54525.12
614.20	54422.72
614.39	54236.36
614.59	54305.99
614.79	54256.84
614.98	54299.84
615.18	54604.99
615.38	54469.82
615.57	54117.57
615.77	54566.08
615.97	54480.06
616.16	54154.44
616.36	54389.95
616.56	54512.83
616.75	54787.26
616.95	54093.00
617.15	54232.26
617.34	54445.25
617.54	54518.98
617.74	54271.17
617.93	54553.79
618.13	54078.66
618.32	54615.23
618.52	54293.70
618.72	54435.01
618.91	54600.89
619.11	54236.36
619.31	54557.89
619.50	54371.52
619.70	54064.33
619.90	54351.04
620.09	54539.46
620.29	54887.61
620.48	54373.57
620.68	55086.26
620.88	54246.60
621.07	54238.40
621.27	54711.49
621.46	54285.51
621.66	54719.68
621.86	54549.70
622.05	54314.18
622.25	55030.97
622.44	54621.37
622.64	54226.12
622.84	54850.75
623.03	54269.12
623.23	54432.96
623.42	54179.01
623.62	54543.55
623.82	54840.51
624.01	54609.09
624.21	54725.82
624.40	54510.78
624.60	54469.82
624.80	54275.27
624.99	54396.10
625.19	54379.71
625.38	54383.81
625.58	54817.98
625.77	54828.22
625.97	54699.20
626.17	54764.73
626.36	54625.47
626.56	54504.64
626.75	54140.10
626.95	55018.68
627.14	54326.47
627.34	54549.70
627.54	54383.81
627.73	54635.71
627.93	54416.58
628.12	53943.50
628.32	54539.46
628.51	54514.88
628.71	54469.82
628.90	54672.57
629.10	54357.19
629.30	54322.37
629.49	54828.22
629.69	54496.45
629.88	54607.04
630.08	54772.92
630.27	54736.06
630.47	54574.27
630.66	54938.81
630.86	54983.86
631.05	54244.55
631.25	54746.30
631.44	55047.35
631.64	54760.64
631.84	54678.72
632.03	55463.09
632.23	54727.87
632.42	54844.60
632.62	54828.22
632.81	54940.86
633.01	54834.36
633.20	54883.51
633.40	54707.39
633.59	54959.29
633.79	54627.52
633.98	54723.77
634.18	55110.84
634.37	54912.19
634.57	54940.86
634.76	55645.36
634.96	55106.74
635.15	55237.81
635.35	54697.15
635.54	54793.40
635.74	54813.88
635.93	54662.33
636.13	54828.22
636.32	54987.96
636.52	55004.34
636.71	55004.34
636.91	54996.15
637.10	55325.88
637.30	55030.97
637.49	55035.06
637.69	55129.27
637.88	55231.67
638.08	54836.41
638.27	55411.89
638.46	55456.95
638.66	55065.78
638.85	54656.19
639.05	55129.27
639.24	55620.78
639.44	55082.17
639.63	55063.74
639.83	55356.60
640.02	55297.20
640.22	55264.44
640.41	55295.16
640.61	55059.64
640.80	55250.10
640.99	54809.79
641.19	55792.81
641.38	55026.87
641.58	55760.05
641.77	55282.87
641.97	55401.65
642.16	55694.51
642.36	55084.22
642.55	55825.58
642.74	55432.37
642.94	55950.51
643.13	55360.69
643.33	55991.47
643.52	55323.83
643.72	55588.02
643.91	55514.29
644.10	55493.81
644.30	55833.77
644.49	55506.10
644.69	55393.46
644.88	55792.81
645.08	55825.58
645.27	55305.40
645.46	55579.82
645.66	55880.88
645.85	55508.14
646.05	55854.25
646.24	55882.92
646.43	55764.14
646.63	55958.70
646.82	56173.73
647.02	55794.86
647.21	56116.39
647.40	55829.68
647.60	56294.56
647.79	56059.05
647.99	55778.48
648.18	55407.79
648.37	56274.09
648.57	55956.65
648.76	56274.09
648.96	55661.74
649.15	56655.01
649.34	56339.62
649.54	56259.75
649.73	55854.25
649.92	56011.95
650.12	56204.45
650.31	56278.18
650.51	56505.51
650.70	56521.89
650.89	56140.97
651.09	56425.64
651.28	56487.07
651.47	56341.67
651.67	56431.78
651.86	56818.84
652.06	55489.71
652.25	56226.98
652.44	56253.61
652.64	55934.12
652.83	55909.55
653.02	56063.14
653.22	56472.74
653.41	56202.41
653.60	56229.03
653.80	56382.63
653.99	56607.90
654.18	55948.46
654.38	56507.55
654.57	56501.41
654.76	56407.20
654.96	55927.98
655.15	56108.20
655.34	56220.84
655.54	56222.89
655.73	56368.29
655.92	56313.00
656.12	56327.33
656.31	56300.71
656.50	56677.54
656.70	56493.22
656.89	56329.38
657.08	56556.70
657.28	56376.48
657.47	56415.40
657.66	56632.48
657.86	56726.69
658.05	56628.38
658.24	56583.33
658.43	56505.51
658.63	56999.07
658.82	56237.22
659.01	56880.28
659.21	57339.03
659.40	56675.49
659.59	56116.39
659.79	56964.25
659.98	56399.01
660.17	56562.85
660.36	56550.56
660.56	56356.00
660.75	56695.97
660.94	56622.24
661.14	56433.83
661.33	56313.00
661.52	56605.86
661.71	56872.09
661.91	56644.77
662.10	56734.88
662.29	56919.20
662.49	56868.00
662.68	56982.68
662.87	56915.10
663.06	56972.44
663.26	56659.10
663.45	57160.86
663.64	56640.67
663.83	56874.14
664.03	56890.52
664.22	56794.27
664.41	56622.24
664.60	56308.90
664.80	56489.12
664.99	56865.95
665.18	56683.68
665.37	56665.25
665.57	56648.86
665.76	56589.47
665.95	56726.69
666.14	56599.71
666.34	56315.04
666.53	56446.11
666.72	56409.25
666.91	56245.41
667.11	56499.36
667.30	56319.14
667.49	56519.84
667.68	56374.44
667.87	56396.96
668.07	56495.27
668.26	56911.00
668.45	56540.32
668.64	55889.07
668.84	57201.82
669.03	57334.93
669.22	56548.51
669.41	56923.29
669.60	56935.58
669.80	56691.87
669.99	56698.01
670.18	56741.02
670.37	57046.17
670.57	56738.97
670.76	56597.66
670.95	56607.90
671.14	56652.96
671.33	56507.55
671.53	57013.40
671.72	56960.15
671.91	56489.12
672.10	56650.91
672.29	56763.55
672.48	56634.53
672.68	56599.71
672.87	56149.16
673.06	56247.46
673.25	56157.35
673.44	56292.52
673.64	56171.69
673.83	56763.55
674.02	56360.10
674.21	56245.41
674.40	56663.20
674.59	56280.23
674.79	56018.09
674.98	56202.41
675.17	56462.50
675.36	56214.69
675.55	56728.73
675.74	55891.12
675.94	56149.16
676.13	56523.94
676.32	56765.60
676.51	56718.49
676.70	55979.18
676.89	56317.09
677.08	56380.58
677.28	56009.90
677.47	56575.14
677.66	56020.14
677.85	55893.16
678.04	56822.94
678.23	56423.59
678.42	56450.21
678.62	56325.28
678.81	56433.83
679.00	56202.41
679.19	56767.65
679.38	56114.34
679.57	56626.34
679.76	56243.37
679.96	56429.73
680.15	56296.61
680.34	56007.85
680.53	55612.59
680.72	55991.47
680.91	56425.64
681.10	55680.17
681.29	56157.35
681.48	55983.27
681.68	55700.65
681.87	55649.45
682.06	55977.13
682.25	55569.58
682.44	55813.29
682.63	56218.79
682.82	55958.70
683.01	55948.46
683.20	55516.34
683.39	55712.94
683.59	55645.36
683.78	55469.23
683.97	55469.23
684.16	55696.56
684.35	55276.72
684.54	55502.00
684.73	55829.68
684.92	55694.51
685.11	55430.32
685.30	55317.68
685.49	55766.19
685.69	55428.27
685.88	55307.44
686.07	55231.67
686.26	54975.67
686.45	55622.83
686.64	55395.51
686.83	55190.71
687.02	55096.50
687.21	55727.28
687.40	55033.02
687.59	55203.00
687.78	55448.75
687.97	55370.93
688.16	55157.94
688.35	55135.41
688.54	55153.85
688.74	55377.08
688.93	54842.56
689.12	54873.27
689.31	54809.79
689.50	54848.70
689.69	54992.06
689.88	54398.15
690.07	55231.67
690.26	55489.71
690.45	55342.26
690.64	54416.58
690.83	55295.16
691.02	54805.69
691.21	54664.38
691.40	55102.65
691.59	54953.15
691.78	54695.10
691.97	55055.54
692.16	54658.24
692.35	54992.06
692.54	55162.04
692.73	54742.20
692.92	54697.15
693.11	54549.70
693.30	54670.53
693.49	54785.21
693.68	54420.67
693.87	54834.36
694.06	54344.90
694.25	54285.51
694.44	54027.46
694.63	54469.82
694.82	54586.56
695.01	54166.73
695.20	53714.12
695.39	54273.22
695.58	54213.83
695.77	53794.00
695.96	54273.22
696.15	54269.12
696.34	54482.11
696.53	54246.60
696.72	54215.88
696.91	53730.51
697.10	54082.76
697.29	53728.46
697.48	54301.89
697.67	54187.21
697.86	53613.77
698.05	54154.44
698.24	53691.60
698.43	53591.25
698.62	53404.88
698.81	53155.03
699.00	53738.70
699.19	52804.83
699.38	53904.59
699.57	53478.61
699.76	54162.63
699.95	53757.13
700.14	53654.73
700.32	53451.98
700.51	53429.46
700.70	53671.12
700.89	53427.41
701.08	53458.13
701.27	53511.38
701.46	53976.26
701.65	52733.15
701.84	53411.02
702.03	53130.45
702.22	53148.88
702.41	53437.65
702.60	53146.84
702.79	53257.43
702.98	52770.01
703.17	53144.79
703.35	52985.05
703.54	53232.85
703.73	53189.84
703.92	52741.34
704.11	52720.86
704.30	52819.16
704.49	52671.71
704.68	52632.80
704.87	53083.35
705.06	52419.81
705.25	52268.26
705.43	52716.76
705.62	52565.21
705.81	52913.37
706.00	52495.58
706.19	52135.14
706.38	52671.71
706.57	52622.56
706.76	52425.95
706.95	52733.15
707.14	52585.69
707.32	52157.67
707.51	52352.23
707.70	52225.25
707.89	52253.92
708.08	52151.52
708.27	52296.93
708.46	52440.29
708.65	52024.55
708.84	52360.42
709.02	52178.15
709.21	51909.86
709.40	52278.50
709.59	52169.96
709.78	51571.95
709.97	51975.40
710.16	52237.54
710.34	52206.82
710.53	52356.32
710.72	51866.86
710.91	51885.29
711.10	52178.15
711.29	51911.91
711.48	51614.96
711.66	51942.63
711.85	51459.31
712.04	51582.19
712.23	52047.08
712.42	51346.67
712.61	51866.86
712.80	51479.79
712.98	51975.40
713.17	51420.40
713.36	51588.33
713.55	51404.02
713.74	51346.67
713.93	51471.60
714.11	51219.70
714.30	51270.90
714.49	51117.30
714.68	51264.75
714.87	51309.81
715.06	51639.53
715.24	50754.81
715.43	51049.72
715.62	50748.67
715.81	51266.80
716.00	51266.80
716.18	50742.52
716.37	50468.09
716.56	50781.43
716.75	50887.93
716.94	50740.47
717.12	50760.95
717.31	51059.96
717.50	51049.72
717.69	50484.48
717.88	50582.78
718.06	50703.61
718.25	50869.50
718.44	50148.61
718.63	50162.95
718.82	50089.22
719.00	50199.81
719.19	50251.01
719.38	50343.17
719.57	49921.29
719.76	49687.82
719.94	49833.22
720.13	50181.38
720.32	50128.13
720.51	50189.57
720.69	49435.92
720.88	49736.97
721.07	49851.66
721.26	49354.00
721.44	49493.26
721.63	49153.30
721.82	49317.14
722.01	49181.97
722.20	49620.23
722.38	49499.40
722.57	48723.22
722.76	49147.15
722.95	48907.54
723.13	48807.19
723.32	49112.34
723.51	48792.86
723.70	48948.50
723.88	49093.91
724.07	48596.25
724.26	48805.14
724.44	48102.69
724.63	48719.13
724.82	48651.55
725.01	48510.24
725.19	48854.29
725.38	48694.55
725.57	48301.34
725.76	48702.74
725.94	48456.99
726.13	48332.06
726.32	48448.80
726.51	47949.09
726.69	48383.26
726.88	48454.94
727.07	48583.96
727.25	48342.30
727.44	48317.73
727.63	48313.63
727.82	48309.53
728.00	47869.22
728.19	48293.15
728.38	48729.37
728.56	47476.01
728.75	48278.82
728.94	48006.44
729.12	48104.74
729.31	48190.75
729.50	48399.65
729.69	47973.67
729.87	48080.16
730.06	48028.96
730.25	47893.80
730.43	48321.82
730.62	47791.40
730.81	48315.68
730.99	48217.38
731.18	47922.47
731.37	48192.80
731.55	48248.10
731.74	48540.96
731.93	48307.49
732.11	47701.29
732.30	48127.27
732.49	47686.95
732.67	48149.79
732.86	47918.37
733.05	47965.48
733.23	47838.50
733.42	47973.67
733.61	47926.56
733.79	48047.39
733.98	47996.20
734.17	47887.65
734.35	47615.27
734.54	48045.35
734.73	48127.27
734.91	47668.52
735.10	47398.19
735.29	47699.24
735.47	47502.64
735.66	47813.93
735.84	47465.77
736.03	47084.85
736.22	48000.29
736.40	47770.92
736.59	47908.13
736.78	47215.92
736.96	47848.74
737.15	47961.38
737.33	47543.59
737.52	47236.40
737.71	47469.87
737.89	47263.02
738.08	47242.54
738.27	46986.55
738.45	47924.52
738.64	47316.27
738.82	47353.13
739.01	47330.61
739.20	47113.52
739.38	47279.41
739.57	47662.38
739.75	47007.03
739.94	47066.42
740.13	46976.31
740.31	46761.27
740.50	47414.57
740.68	47328.56
740.87	47289.65
741.06	47076.66
741.24	47215.92
741.43	46865.72
741.61	47121.71
741.80	46765.37
741.99	46650.68
742.17	46994.74
742.36	47007.03
742.54	46775.61
742.73	46900.53
742.91	46976.31
743.10	46748.98
743.29	46994.74
743.47	46798.13
743.66	46603.58
743.84	46748.98
744.03	46570.81
744.21	46480.70
744.40	46906.68
744.59	46482.75
744.77	46449.98
744.96	46517.56
745.14	46433.60
745.33	46429.50
745.51	46026.05
745.70	47004.98
745.88	46398.78
746.07	46429.50
746.26	46275.90
746.44	46411.07
746.63	46036.29
746.81	46204.22
747.00	45917.51
747.18	46429.50
747.37	45884.74
747.55	45907.27
747.74	46445.88
747.92	46007.62
748.11	46212.41
748.29	46118.21
748.48	45784.39
748.66	45878.60
748.85	45876.55
749.03	46177.60
749.22	45798.73
749.41	45716.81
749.59	45692.23
749.78	45614.41
749.96	45620.55
750.15	45413.71
750.33	45665.61
750.52	45651.27
750.70	45534.54
750.89	45557.06
751.07	45253.97
751.26	45323.60
751.44	44887.38
751.63	45653.32
751.81	44805.46
752.00	45151.57
752.18	45565.26
752.37	45628.74
752.55	44758.36
752.74	45190.48
752.92	45141.33
753.10	44981.59
753.29	44866.90
753.47	45047.12
753.66	44563.80
753.84	44924.24
754.03	44989.78
754.21	44971.35
754.40	44977.49
754.58	45122.90
754.77	44789.08
754.95	44545.37
755.14	44418.39
755.32	44840.28
755.51	44289.37
755.69	44680.53
755.88	44784.98
756.06	44488.03
756.24	44283.23
756.43	44637.53
756.61	44764.50
756.80	44238.17
756.98	44150.11
757.17	44610.90
757.35	44383.58
757.54	44211.55
757.72	44498.26
757.90	44137.82
758.09	43996.51
758.27	44381.53
758.46	44035.42
758.64	44334.43
758.83	44135.77
759.01	44041.57
759.19	44215.65
759.38	43986.27
759.56	44258.65
759.75	44035.42
759.93	43910.50
760.12	43806.05
760.30	44086.62
760.48	43648.36
760.67	43455.85
760.85	43683.17
761.04	43636.07
761.22	43640.17
761.40	43636.07
761.59	43644.26
761.77	43681.13
761.96	43359.59
762.14	43492.71
762.32	43189.61
762.51	43283.82
762.69	43375.98
762.88	43177.33
763.06	43332.97
763.24	43040.11
763.43	43167.09
763.61	42610.04
763.80	43275.63
763.98	43251.05
764.16	43713.89
764.35	43160.94
764.53	42691.96
764.72	42868.08
764.90	42882.42
765.08	42845.55
765.27	42935.66
765.45	42575.22
765.63	42091.90
765.82	43130.22
766.00	42431.86
766.18	42493.30
766.37	42984.82
766.55	42872.18
766.74	42759.54
766.92	42368.38
767.10	42370.43
767.29	42304.89
767.47	41899.39
767.65	42483.06
767.84	42044.80
768.02	42354.04
768.20	41768.32
768.39	42036.61
768.57	41981.31
768.75	42155.39
768.94	42055.04
769.12	42341.75
769.30	41782.66
769.49	41899.39
769.67	41743.75
769.85	41833.86
770.04	41696.64
770.22	41840.00
770.40	41303.43
770.59	41637.25
770.77	41817.47
770.95	41561.48
771.14	41303.43
771.32	41350.54
771.50	41420.17
771.69	41424.26
771.87	41438.60
772.05	41313.67
772.24	40818.07
772.42	41278.86
772.60	41043.34
772.78	41045.39
772.97	40899.98
773.15	41074.06
773.33	40654.23
773.52	40826.26
773.70	40871.31
773.88	41194.89
774.07	40637.84
774.25	40875.41
774.43	40994.19
774.61	40967.57
774.80	41000.33
774.98	41104.78
775.16	41078.16
775.34	40902.03
775.53	40863.12
775.71	41328.01
775.89	41319.82
776.08	41082.25
776.26	41319.82
776.44	41053.58
776.62	40674.71
776.81	40756.63
776.99	41117.07
777.17	40846.74
777.35	41029.01
777.54	41176.46
777.72	40998.29
777.90	41194.89
778.08	41381.26
778.27	41332.11
778.45	41459.08
778.63	41440.65
778.81	40953.23
779.00	41784.71
779.18	41368.97
779.36	41719.17
779.54	41325.96
779.73	41147.79
779.91	41710.98
780.09	41663.88
780.27	41592.20
780.46	41571.72
780.64	42153.34
780.82	41815.43
781.00	41596.29
781.19	41815.43
781.37	41887.10
781.55	42046.85
781.73	41827.71
781.91	41827.71
782.10	42083.71
782.28	41942.40
782.46	41674.12
782.64	41784.71
782.82	41719.17
783.01	42126.72
783.19	42063.23
783.37	42034.56
783.55	41694.60
783.74	42073.47
783.92	41686.40
784.10	42335.61
784.28	41784.71
784.46	41725.32
784.64	41727.36
784.83	42100.09
785.01	42104.19
785.19	42222.97
785.37	42413.43
785.55	42093.95
785.74	41891.20
785.92	41330.06
786.10	41786.75
786.28	41762.18
786.46	41661.83
786.64	41543.05
786.83	41801.09
787.01	41729.41
787.19	41731.46
787.37	42073.47
787.55	41520.52
787.74	41502.09
787.92	41667.97
788.10	40973.71
788.28	40869.26
788.46	41524.61
788.64	41067.92
788.82	41395.59
789.01	41266.57
789.19	41076.11
789.37	41178.51
789.55	40994.19
789.73	40961.42
789.91	40787.35
790.09	40963.47
790.28	40787.35
790.46	40840.59
790.64	40906.13
790.82	40734.10
791.00	40650.13
791.18	40420.76
791.36	40467.86
791.55	40633.75
791.73	39894.43
791.91	40140.19
792.09	40443.29
792.27	40002.97
792.45	40129.95
792.63	40205.72
792.81	39617.96
793.00	39804.32
793.18	39775.65
793.36	39751.07
793.54	39652.77
793.72	39245.23
793.90	39503.27
794.08	39308.71
794.26	39288.23
794.44	39249.32
794.62	39108.01
794.81	39245.23
794.99	39220.65
795.17	38802.86
795.35	38968.75
795.53	39034.28
795.71	38747.57
795.89	38823.34
796.07	38739.38
796.25	38301.11
796.43	38454.71
796.61	37981.63
796.80	37965.24
796.98	38282.68
797.16	37897.66
797.34	37967.29
797.52	37881.28
797.70	38354.36
797.88	38038.97
798.06	37823.93
798.24	37486.02
798.42	37123.53
798.60	37451.20
798.78	37086.67
798.96	37615.04
799.14	36976.08
799.32	37346.76
799.51	37111.24
799.69	37184.97
799.87	36904.40
800.05	36765.14
800.23	36935.12
800.41	36523.47
800.59	36777.42
800.77	36847.05
800.95	36349.40
801.13	36513.23
801.31	36060.63
801.49	36416.98
801.67	36101.59
801.85	36382.16
802.03	35810.78
802.21	35411.43
802.39	35507.68
802.57	35896.80
802.75	35663.33
802.93	35491.30
803.11	35411.43
803.29	35462.63
803.47	35241.45
803.65	35403.24
803.83	35526.11
804.01	35292.65
804.19	34881.00
804.37	35001.83
804.55	35079.66
804.73	34881.00
804.91	35118.57
805.09	34991.59
805.27	34672.11
805.45	34838.00
805.63	34745.84
805.81	34627.06
805.99	34692.59
806.17	34747.89
806.35	34754.03
806.53	34387.44
806.71	34551.28
806.89	34330.10
807.07	34422.26
807.25	34063.86
807.43	33910.27
807.61	34184.69
807.79	33650.17
807.97	33633.79
808.15	33543.68
808.33	33181.19
808.51	33543.68
808.69	33725.95
808.87	33453.57
809.05	33388.03
809.23	33179.14
809.41	32968.20
809.59	32765.45
809.77	33127.94
809.95	32652.81
810.13	33144.33
810.31	32826.89
810.49	32863.75
810.67	32902.67
810.84	32957.96
811.02	32751.12
811.20	32288.28
811.38	32521.74
811.56	32044.57
811.74	32593.42
811.92	32124.44
812.10	32488.98
812.28	32749.07
812.46	32257.56
812.64	32345.62
812.82	32169.49
813.00	31942.17
813.18	32069.14
813.36	31528.48
813.53	31591.97
813.71	31661.60
813.89	31677.98
814.07	31798.81
814.25	31829.53
814.43	31538.72
814.61	31462.94
814.79	31387.17
814.97	31249.96
815.15	31223.33
815.33	30811.69
815.50	30891.56
815.68	31174.18
815.86	31165.99
816.04	31104.55
816.22	30746.15
816.40	30981.67
816.58	30553.65
816.76	30594.61
816.94	30881.32
817.11	30623.28
817.29	30352.94
817.47	30535.21
817.65	30254.64
817.83	30160.44
818.01	30283.31
818.19	30369.33
818.37	30328.37
818.54	29867.58
818.72	29947.45
818.90	30191.16
819.08	29967.93
819.26	30139.96
819.44	29898.30
819.62	29795.90
819.80	29853.24
819.97	29773.37
820.15	29728.31
820.33	29863.48
820.51	29859.38
820.69	29445.69
820.87	29797.95
821.05	29746.75
821.22	29763.13
821.40	29533.76
821.58	29005.38
821.76	29318.72
821.94	29312.58
822.12	28923.46
822.29	29249.09
822.47	29019.72
822.65	29408.83
822.83	29621.82
823.01	29269.57
823.19	29474.37
823.36	29093.44
823.54	28829.26
823.72	28706.38
823.90	28694.09
824.08	28382.80
824.25	28984.90
824.43	28499.53
824.61	28071.51
824.79	28431.95
824.97	27965.01
825.15	28235.35
825.32	28462.67
825.50	28497.49
825.68	28282.45
825.86	28216.91
826.04	28180.05
826.21	28059.22
826.39	28288.59
826.57	28102.23
826.75	28104.28
826.93	27709.02
827.10	28055.12
827.28	28149.33
827.46	27895.38
827.64	28171.86
827.81	27864.66
827.99	27876.95
828.17	27780.70
828.35	27416.16
828.53	27717.21
828.70	27377.25
828.88	27651.67
829.06	27696.73
829.24	27397.73
829.41	27364.96
829.59	27881.05
829.77	27473.50
829.95	27162.21
830.12	27031.14
830.30	27201.12
830.48	27219.55
830.66	27403.87
830.84	27422.30
831.01	27209.31
831.19	27106.91
831.37	27057.76
831.55	27147.87
831.72	27356.77
831.90	26822.25
832.08	27086.43
832.25	26775.14
832.43	26703.46
832.61	26705.51
832.79	26795.62
832.96	26828.39
833.14	26820.20
833.32	27031.14
833.50	26545.77
833.67	26754.66
833.85	26910.31
834.03	26236.53
834.20	26728.04
834.38	26381.93
834.56	26426.99
834.74	26310.25
834.91	26195.57
835.09	26433.13
835.27	25972.34
835.44	26486.38
835.62	26160.75
835.80	26138.23
835.98	26322.54
836.15	26287.73
836.33	25890.42
836.51	26025.59
836.68	25704.06
836.86	25728.63
837.04	25962.10
837.21	25958.00
837.39	25845.37
837.57	25736.82
837.75	25970.29
837.92	25491.07
838.10	25732.73
838.28	25261.69
838.45	25761.40
838.63	25456.25
838.81	25628.28
838.98	25296.51
839.16	25265.79
839.34	25437.82
839.51	25374.33
839.69	25257.60
839.87	25329.28
840.04	25087.62
840.22	25273.98
840.40	25206.40
840.57	25196.16
840.75	25198.21
840.93	24774.28
841.10	25163.39
841.28	25345.66
841.46	25126.53
841.63	25120.38
841.81	24829.57
841.98	24968.84
842.16	24622.73
842.34	24749.70
842.51	24714.89
842.69	24704.65
842.87	24880.77
843.04	24643.21
843.22	24624.78
843.40	24788.61
843.57	24829.57
843.75	24600.20
843.92	24891.01
844.10	24426.12
844.28	24598.15
844.45	24639.11
844.63	24503.95
844.81	24385.16
844.98	24532.62
845.16	24485.51
845.33	24336.01
845.51	24409.74
845.69	24186.51
845.86	24225.42
846.04	23981.71
846.21	24243.85
846.39	24084.11
846.57	24342.16
846.74	24432.27
846.92	24075.92
847.09	23979.67
847.27	23742.10
847.45	23989.91
847.62	23699.09
847.80	24198.80
847.97	24104.59
848.15	23803.54
848.32	23735.96
848.50	23746.20
848.68	23754.39
848.85	23744.15
849.03	23334.56
849.20	23783.06
849.38	23506.59
849.56	23430.81
849.73	23269.02
849.91	23549.59
850.08	23500.44
850.26	23469.72
850.43	23703.19
850.61	23318.17
850.78	23174.81
850.96	23248.54
851.14	22933.15
851.31	23135.90
851.49	22849.19
851.66	23228.06
851.84	22924.96
852.01	23119.52
852.19	22941.35
852.36	22830.76
852.54	22832.80
852.71	22978.21
852.89	22771.36
853.07	22877.86
853.24	22777.51
853.42	22927.01
853.59	22892.19
853.77	22597.29
853.94	22920.87
854.12	22961.83
854.29	22552.23
854.47	22716.07
854.64	22433.45
854.82	22558.38
854.99	22490.79
855.17	22513.32
855.34	22146.73
855.52	22324.91
855.69	22564.52
855.87	22302.38
856.04	22073.01
856.22	22488.74
856.39	22222.51
856.57	22292.14
856.74	22062.77
856.92	22175.41
857.09	22124.21
857.27	22073.01
857.44	22230.70
857.62	22103.73
857.79	22085.30
857.97	22607.53
858.14	22124.21
858.32	21892.79
858.49	22005.42
858.67	22136.49
858.84	22081.20
859.02	21923.51
859.19	21864.11
859.37	21423.80
859.54	21647.03
859.72	21917.36
859.89	21751.48
860.06	21864.11
860.24	21479.10
860.41	21919.41
860.59	21483.19
860.76	21638.84
860.94	21401.27
861.11	21577.40
861.29	21518.01
861.46	21229.24
861.64	21376.70
861.81	21270.20
861.98	21237.44
862.16	20876.99
862.33	20983.49
862.51	20887.23
862.68	21092.03
862.86	20887.23
863.03	21317.31
863.21	21124.80
863.38	21200.57
863.55	20883.14
863.73	21186.24
863.90	20960.96
864.08	20883.14
864.25	20899.52
864.43	20881.09
864.60	20700.87
864.77	20575.94
864.95	20600.52
865.12	20555.46
865.30	20725.44
865.47	20723.40
865.64	20405.96
865.82	20534.98
865.99	20778.69
866.17	20623.05
866.34	20653.76
866.51	20426.44
866.69	20569.80
866.86	20584.13
867.04	20424.39
867.21	20487.88
867.38	20248.27
867.56	20215.50
867.73	19930.83
867.91	20121.29
868.08	20020.94
868.25	20039.37
868.43	20043.47
868.60	20025.04
868.78	19979.98
868.95	20188.88
869.12	19551.96
869.30	19934.93
869.47	20057.81
869.64	19695.32
869.82	19820.24
869.99	19582.68
870.16	19787.47
870.34	19635.92
870.51	19875.54
870.69	19345.11
870.86	19730.13
871.03	19562.20
871.21	19189.47
871.38	19658.45
871.55	19242.71
871.73	19461.85
871.90	19504.85
872.07	19109.60
872.25	19117.79
872.42	19181.28
872.59	19312.35
872.77	19054.30
872.94	19334.87
873.11	19158.75
873.29	18996.96
873.46	19152.60
873.63	19082.97
873.81	18921.18
873.98	18945.76
874.15	18908.90
874.33	18589.41
874.50	18597.60
874.67	18558.69
874.85	18904.80
875.02	18753.25
875.19	18521.83
875.37	18188.01
875.54	18425.57
875.71	18685.67
875.88	18519.78
876.06	18392.81
876.23	18444.01
876.40	18106.09
876.58	18704.10
876.75	18138.86
876.92	18173.67
877.10	18407.14
877.27	18259.69
877.44	17942.25
877.61	18108.14
877.79	17942.25
877.96	18093.80
878.13	18065.13
878.31	17878.77
878.48	17995.50
878.65	17977.07
878.82	17712.88
879.00	17757.94
879.17	17776.37
879.34	17610.48
879.51	17686.26
879.69	17315.58
879.86	17245.94
880.03	17653.49
880.21	17370.87
880.38	17739.51
880.55	17735.41
880.72	17567.48
880.90	17460.98
881.07	17528.56
881.24	17307.38
881.41	17379.06
881.59	17336.06
881.76	17456.89
881.93	17211.13
882.10	17024.76
882.28	17127.16
882.45	17270.52
882.62	17266.42
882.79	17200.89
882.96	16994.04
883.14	16905.98
883.31	17061.63
883.48	16840.45
883.65	16752.38
883.83	17112.83
884.00	16795.39
884.17	16742.14
884.34	16979.71
884.51	16883.45
884.69	17051.39
884.86	16729.86
885.03	16807.68
885.20	16686.85
885.38	16690.95
885.55	16637.70
885.72	16424.71
885.89	16719.62
886.06	16670.47
886.24	16500.48
886.41	16363.27
886.58	16645.89
886.75	16537.35
886.92	16551.68
887.10	16754.43
887.27	16449.28
887.44	16631.55
887.61	16703.23
887.78	16662.27
887.95	16592.64
888.13	16447.24
888.30	16385.80
888.47	16363.27
888.64	16277.26
888.81	16228.10
888.99	16273.16
889.16	16166.67
889.33	15933.20
889.50	16105.23
889.67	16109.32
889.84	15857.42
890.01	16068.36
890.19	16189.19
890.36	15873.81
890.53	16205.58
890.70	15916.81
890.87	15845.13
891.04	15777.55
891.22	15744.78
891.39	15791.89
891.56	15752.98
891.73	15791.89
891.90	15802.13
892.07	15542.03
892.24	15640.34
892.42	15595.28
892.59	15671.06
892.76	15544.08
892.93	15548.18
893.10	15560.47
893.27	15511.32
893.44	15322.90
893.61	15505.17
893.79	15466.26
893.96	15451.92
894.13	15597.33
894.30	15574.80
894.47	15423.25
894.64	15372.05
894.81	15404.82
894.98	15421.20
895.15	15367.96
895.33	15410.96
895.50	15482.64
895.67	15542.03
895.84	15271.70
896.01	15359.77
896.18	15091.48
896.35	15347.48
896.52	15306.52
896.69	15484.69
896.86	15492.88
897.04	15394.58
897.21	15138.58
897.38	15247.13
897.55	15005.47
897.72	15095.58
897.89	15150.87
898.06	15214.36
898.23	15253.27
898.40	15157.02
898.57	15337.24
898.74	15292.18
898.91	15273.75
899.08	15079.19
899.26	15157.02
899.43	15392.53
899.60	15097.63
899.77	15302.42
899.94	15257.37
900.11	15183.64
900.28	15109.91
900.45	14995.23
900.62	15269.66
900.79	15132.44
900.96	15261.46
901.13	15097.63
901.30	14911.26
901.47	14872.35
901.64	15163.16
901.81	15181.59
901.98	15058.71
902.15	15339.29
902.32	14995.23
902.49	15130.39
902.66	15230.74
902.83	15091.48
903.01	15034.14
903.18	15308.57
903.35	14972.70
903.52	14921.50
903.69	14950.17
903.86	15124.25
904.03	15300.37
904.20	15208.22
904.37	15197.98
904.54	15177.50
904.71	15238.94
904.88	15157.02
905.05	14982.94
905.22	15136.54
905.39	15081.24
905.56	14923.55
905.73	14984.99
905.90	15234.84
906.07	15013.66
906.24	14962.46
906.41	14937.88
906.58	15189.78
906.75	14810.91
906.92	14847.77
907.09	14858.01
907.26	14757.66
907.43	14745.38
907.60	15066.91
907.77	15066.91
907.93	14960.41
908.10	14829.34
908.27	15175.45
908.44	14929.69
908.61	15017.75
908.78	14907.16
908.95	14903.07
909.12	14950.17
909.29	14806.81
909.46	14696.22
909.63	14921.50
909.80	14776.09
909.97	14798.62
910.14	14923.55
910.31	14925.60
910.48	14780.19
910.65	14806.81
910.82	14618.40
910.99	14708.51
911.16	14722.85
911.33	14479.14
911.50	14880.54
911.66	14325.54
911.83	14716.70
912.00	14741.28
912.17	14487.33
912.34	14581.54
912.51	14520.10
912.68	14411.56
912.85	14679.84
913.02	14421.80
913.19	14417.70
913.36	14397.22
913.53	14329.64
913.70	14262.05
913.86	14659.36
914.03	14200.62
914.20	14266.15
914.37	14429.99
914.54	14130.98
914.71	14223.14
914.88	14090.02
915.05	13924.14
915.22	14139.18
915.39	14122.79
915.55	14153.51
915.72	13971.24
915.89	13938.48
916.06	13954.86
916.23	13682.48
916.40	13842.22
916.57	13842.22
916.74	13721.39
916.91	13795.12
917.07	13842.22
917.24	13563.70
917.41	13594.42
917.58	13717.29
917.75	13494.07
917.92	13477.68
918.09	13616.94
918.26	13481.78
918.42	13598.51
918.59	13455.15
918.76	13215.54
918.93	13274.93
919.10	13436.72
919.27	13225.78
919.44	13457.20
919.60	13399.86
919.77	13358.90
919.94	13258.55
920.11	13295.41
920.28	12947.26
920.45	12902.20
920.61	13029.18
920.78	12855.10
920.95	12767.04
921.12	12885.82
921.29	12853.05
921.46	12803.90
921.62	12410.69
921.79	12963.64
921.96	12613.44
922.13	12726.08
922.30	12562.24
922.47	12437.31
922.63	12603.20
922.80	12324.68
922.97	12345.16
923.14	12171.08
923.31	12351.30
923.47	12224.33
923.64	12433.22
923.81	12183.37
923.98	12207.94
924.15	11927.37
924.32	11994.95
924.48	12150.60
924.65	12183.37
924.82	12173.13
924.99	11931.47
925.15	11839.31
925.32	11927.37
925.49	11558.74
925.66	11593.55
925.83	11863.88
925.99	11433.81
926.16	11505.49
926.33	11607.89
926.50	11188.05
926.67	11597.65
926.83	11272.02
927.00	11349.84
927.17	11335.51
927.34	11257.68
927.50	11337.56
927.67	11534.16
927.84	11413.33
928.01	11032.41
928.17	10907.48
928.34	11175.77
928.51	10907.48
928.68	10841.95
928.84	10796.89
929.01	10651.49
929.18	10665.82
929.35	10606.43
929.51	10708.83
929.68	10569.57
929.85	10499.94
930.02	10512.22
930.18	10309.47
930.35	10411.87
930.52	10530.66
930.69	10446.69
930.85	10397.54
931.02	10145.64
931.19	10233.70
931.36	10209.12
931.52	10293.09
931.69	10227.56
931.86	10090.34
932.02	9934.70
932.19	10071.91
932.36	9908.07
932.53	10078.05
932.69	9877.35
932.86	9879.40
933.03	10004.33
933.19	9566.06
933.36	9647.98
933.53	9727.85
933.70	9676.65
933.86	9422.70
934.03	9527.15
934.20	9377.65
934.36	9445.23
934.53	9088.89
934.70	9244.53
934.86	9262.96
935.03	9133.94
935.20	9047.93
935.36	9033.59
935.53	8658.81
935.70	9117.56
935.86	8937.34
936.03	8710.01
936.20	8691.58
936.36	8595.32
936.53	8480.64
936.70	8460.16
936.86	8441.73
937.03	8230.79
937.20	8075.14
937.36	8413.06
937.53	7948.17
937.70	7753.61
937.86	7899.02
938.03	7878.54
938.20	7856.01
938.36	7649.16
938.53	7683.98
938.70	7368.59
938.86	7485.33
939.03	7184.27
939.20	7135.12
939.36	7335.82
939.53	7096.21
939.70	7221.14
939.86	6922.13
940.03	6727.58
940.19	6823.83
940.36	6627.23
940.53	6684.57
940.69	6604.70
940.86	6578.08
941.03	6500.25
941.19	6258.59
941.36	6487.96
941.52	6348.70
941.69	6180.77
941.86	6229.92
942.02	6072.23
942.19	6086.56
942.35	6139.81
942.52	5918.63
942.69	5863.33
942.85	5894.05
943.02	5705.64
943.18	5820.33
943.35	5771.18
943.52	5752.74
943.68	5703.59
943.85	5584.81
944.01	5631.91
944.18	5572.52
944.35	5750.70
944.51	5490.60
944.68	5324.72
944.84	5418.93
945.01	5435.31
945.17	5482.41
945.34	5468.08
945.51	5533.61
945.67	5353.39
945.84	5445.55
946.00	5287.86
946.17	5246.90
946.33	5398.45
946.50	5271.47
946.67	5275.57
946.83	5257.14
947.00	5361.58
947.16	5169.07
947.33	5296.05
947.49	5273.52
947.66	5232.56
947.82	5253.04
947.99	5224.37
948.16	5308.34
948.32	5167.03
948.49	5253.04
948.65	5314.48
948.82	5281.71
948.98	5330.86
949.15	5146.55
949.31	5257.14
949.48	5210.03
949.64	5253.04
949.81	5283.76
949.97	5246.90
950.14	5181.36
950.30	5267.38
950.47	5322.67
950.63	5320.62
950.80	5320.62
950.96	5291.95
951.13	5222.32
951.30	5193.65
951.46	5410.73
951.63	5298.10
951.79	5427.12
951.96	5283.76
952.12	5312.43
952.29	5302.19
952.45	5296.05
952.62	5384.11
952.78	5496.75
952.94	5259.18
953.11	5468.08
953.27	5162.93
953.44	5580.71
953.60	5337.01
953.77	5463.98
953.93	5337.01
954.10	5365.68
954.26	5316.53
954.43	5320.62
954.59	5586.86
954.76	5582.76
954.92	5466.03
955.09	5492.65
955.25	5341.10
955.42	5433.26
955.58	5586.86
955.75	5386.16
955.91	5404.59
956.07	5427.12
956.24	5490.60
956.40	5488.56
956.57	5580.71
956.73	5509.04
956.90	5525.42
957.06	5255.09
957.23	5326.77
957.39	5461.93
957.56	5443.50
957.72	5382.06
957.88	5291.95
958.05	5435.31
958.21	5459.88
958.38	5416.88
958.54	5586.86
958.71	5566.38
958.87	5418.93
959.03	5316.53
959.20	5480.36
959.36	5294.00
959.53	5408.69
959.69	5349.29
959.85	5605.29
960.02	5365.68
960.18	5380.01
960.35	5330.86
960.51	5427.12
960.68	5433.26
960.84	5382.06
961.00	5443.50
961.17	5386.16
961.33	5353.39
961.50	5341.10
961.66	5443.50
961.82	5451.69
961.99	5451.69
962.15	5296.05
962.31	5363.63
962.48	5404.59
962.64	5535.66
962.81	5302.19
962.97	5291.95
963.13	5480.36
963.30	5326.77
963.46	5201.84
963.62	5322.67
963.79	5463.98
963.95	5203.89
964.12	5371.82
964.28	5382.06
964.44	5304.24
964.61	5300.14
964.77	5326.77
964.93	5416.88
965.10	5343.15
965.26	5218.22
965.42	5199.79
965.59	5216.18
965.75	5156.79
965.92	5236.66
966.08	5250.99
966.24	5316.53
966.41	5259.18
966.57	5337.01
966.73	5175.22
966.90	5320.62
967.06	5351.34
967.22	5132.21
967.39	5197.74
967.55	5314.48
967.71	5064.63
967.88	5267.38
968.04	5265.33
968.20	5105.59
968.37	5083.06
968.53	5216.18
968.69	5234.61
968.85	5328.81
969.02	5179.31
969.18	5244.85
969.34	5097.39
969.51	5107.63
969.67	5250.99
969.83	4929.46
970.00	5205.94
970.16	5115.83
970.32	5025.72
970.48	5095.35
970.65	5064.63
970.81	5025.72
970.97	5054.39
971.14	4827.06
971.30	5146.55
971.46	4999.09
971.63	4978.61
971.79	4980.66
971.95	4960.18
972.11	5027.76
972.28	4972.47
972.44	5003.19
972.60	5050.29
972.76	4829.11
972.93	4964.28
973.09	5072.82
973.25	4884.41
973.42	4933.56
973.58	4908.98
973.74	4911.03
973.90	4923.32
974.07	4779.96
974.23	4931.51
974.39	4872.12
974.55	4882.36
974.72	4827.06
974.88	4673.46
975.04	4786.10
975.20	4812.73
975.37	4831.16
975.53	4728.76
975.69	4730.81
975.85	4771.77
976.01	4669.37
976.18	4687.80
976.34	4890.55
976.50	4806.58
976.66	4843.45
976.83	4716.47
976.99	4730.81
977.15	4618.17
977.31	4542.39
977.47	4673.46
977.64	4741.05
977.80	4575.16
977.96	4720.57
978.12	4663.22
978.29	4659.13
978.45	4675.51
978.61	4585.40
978.77	4636.60
978.93	4526.01
979.10	4595.64
979.26	4435.90
979.42	4560.83
979.58	4329.41
979.74	4429.76
979.91	4495.29
980.07	4446.14
980.23	4433.85
980.39	4497.34
980.55	4558.78
980.71	4511.68
980.88	4349.89
981.04	4411.32
981.20	4280.25
981.36	4509.63
981.52	4351.93
981.68	4409.28
981.85	4366.27
982.01	4464.57
982.17	4425.66
982.33	4261.82
982.49	4444.09
982.65	4257.73
982.82	4245.44
982.98	4276.16
983.14	4276.16
983.30	4376.51
983.46	4208.58
983.62	4128.70
983.79	4210.62
983.95	4177.86
984.11	4028.35
984.27	4218.82
984.43	4372.41
984.59	4255.68
984.75	4227.01
984.91	4042.69
985.08	4192.19
985.24	4126.66
985.40	4200.38
985.56	3971.01
985.72	4128.70
985.88	4048.83
986.04	4081.60
986.20	4153.28
986.37	3997.64
986.53	3973.06
986.69	4143.04
986.85	3973.06
987.01	3930.05
987.17	4057.03
987.33	3958.72
987.49	4067.27
987.65	4026.31
987.82	3999.68
987.98	3844.04
988.14	4011.97
988.30	3932.10
988.46	3846.09
988.62	3913.67
988.78	3878.85
988.94	3930.05
989.10	3903.43
989.26	3798.98
989.42	3772.36
989.59	3823.56
989.75	3973.06
989.91	3934.15
990.07	3764.17
990.23	3815.37
990.39	3698.63
990.55	3778.50
990.71	3733.45
990.87	3786.69
991.03	3856.33
991.19	3645.38
991.35	3741.64
991.51	3698.63
991.67	3712.97
991.83	3848.13
992.00	3741.64
992.16	3821.51
992.32	3710.92
992.48	3809.22
992.64	3678.15
992.80	3737.54
992.96	3616.71
993.12	3741.64
993.28	3702.73
993.44	3682.25
993.60	3715.02
993.76	3678.15
993.92	3542.99
994.08	3573.71
994.24	3549.13
994.40	3575.75
994.56	3661.77
994.72	3499.98
994.88	3585.99
995.04	3561.42
995.20	3495.88
995.36	3532.75
995.52	3618.76
995.68	3528.65
995.84	3481.55
996.00	3637.19
996.16	3413.96
996.32	3485.64
996.48	3330.00
996.64	3428.30
996.80	3375.05
996.96	3499.98
997.12	3524.55
997.28	3387.34
997.44	3352.52
997.60	3373.00
997.76	3387.34
997.92	3485.64
998.08	3338.19
998.24	3293.13
998.40	3405.77
998.56	3362.76
998.72	3370.96
998.88	3289.04
999.04	3233.74
999.20	3223.50
999.36	3235.79
999.52	3323.85
999.68	3286.99
999.84	3362.76
1000.00	3301.33
1000.16	3309.52
1000.32	3276.75
1000.48	3377.10
1000.64	3264.46
1000.80	3243.98
1000.95	3178.45
1001.11	3276.75
1001.27	3092.43
1001.43	3166.16
1001.59	3180.50
1001.75	3172.30
1001.91	3057.62
1002.07	3237.84
1002.23	3121.10
1002.39	3147.73
1002.55	3231.69
1002.71	3045.33
1002.87	3076.05
1003.03	3039.19
1003.19	3071.95
1003.34	3157.97
1003.50	3063.76
1003.66	3239.89
1003.82	3026.90
1003.98	3008.47
1004.14	3207.12
1004.30	3127.25
1004.46	2975.70
1004.62	2944.98
1004.78	3026.90
1004.94	2955.22
1005.09	3162.06
1005.25	3108.82
1005.41	3067.86
1005.57	3076.05
1005.73	2932.69
1005.89	2918.36
1006.05	3108.82
1006.21	2987.99
1006.37	2932.69
1006.52	2936.79
1006.68	2904.02
1006.84	3133.39
1007.00	2867.16
1007.16	2901.97
1007.32	2885.59
1007.48	2928.60
1007.64	2867.16
1007.79	2977.75
1007.95	2811.86
1008.11	2799.57
1008.27	2856.92
1008.43	2852.82
1008.59	2838.48
1008.75	2906.07
1008.91	2861.01
1009.06	2783.19
1009.22	2781.14
1009.38	2736.09
1009.54	2797.53
1009.70	2738.13
1009.86	2717.65
1010.01	2797.53
1010.17	2772.95
1010.33	2858.96
1010.49	2766.81
1010.65	2785.24
1010.81	2688.98
1010.96	2713.56
1011.12	2664.41
1011.28	2695.13
1011.44	2756.57
1011.60	2672.60
1011.76	2766.81
1011.91	2777.05
1012.07	2600.92
1012.23	2627.54
1012.39	2617.30
1012.55	2760.66
1012.71	2746.33
1012.86	2660.31
1013.02	2645.98
1013.18	2488.28
1013.34	2629.59
1013.50	2635.74
1013.65	2625.50
1013.81	2621.40
1013.97	2652.12
1014.13	2559.96
1014.29	2551.77
1014.44	2566.10
1014.60	2676.70
1014.76	2609.11
1014.92	2611.16
1015.07	2617.30
1015.23	2607.06
1015.39	2539.48
1015.55	2576.34
1015.71	2527.19
1015.86	2506.71
1016.02	2516.95
1016.18	2404.32
1016.34	2529.24
1016.49	2609.11
1016.65	2564.06
1016.81	2475.99
1016.97	2435.03
1017.12	2529.24
1017.28	2435.03
1017.44	2328.54
1017.60	2457.56
1017.75	2525.15
1017.91	2377.69
1018.07	2519.00
1018.23	2420.70
1018.38	2375.64
1018.54	2430.94
1018.70	2357.21
1018.86	2467.80
1019.01	2334.68
1019.17	2402.27
1019.33	2508.76
1019.49	2410.46
1019.64	2545.63
1019.80	2500.57
1019.96	2400.22
1020.12	2455.51
1020.27	2383.84
1020.43	2385.88
1020.59	2414.56
1020.74	2385.88
1020.90	2402.27
1021.06	2322.40
1021.22	2359.26
1021.37	2314.20
1021.53	2244.57
1021.69	2387.93
1021.84	2381.79
1022.00	2265.05
1022.16	2310.11
1022.31	2338.78
1022.47	2365.40
1022.63	2306.01
1022.79	2326.49
1022.94	2310.11
1023.10	2430.94
1023.26	2299.87
1023.41	2289.63
1023.57	2228.19
1023.73	2258.91
1023.88	2224.09
1024.04	2248.67
1024.20	2273.25
1024.35	2318.30
1024.51	2242.53
1024.67	2275.29
1024.82	2289.63
1024.98	2160.61
1025.14	2213.85
1025.29	2185.18
1025.45	2297.82
1025.61	2164.70
1025.76	2207.71
1025.92	2260.96
1026.08	2109.41
1026.23	2246.62
1026.39	2373.60
1026.55	2189.28
1026.70	2148.32
1026.86	2097.12
1027.02	2205.66
1027.17	2197.47
1027.33	2265.05
1027.48	2142.18
1027.64	2172.89
1027.80	2136.03
1027.95	2232.29
1028.11	2093.02
1028.27	2197.47
1028.42	2195.42
1028.58	2133.98
1028.73	2115.55
1028.89	2121.70
1029.05	2256.86
1029.20	2123.74
>>>>>End Processed Spectral Data<<<<<
