SpectraSuite Data File
++++++++++++++++++++++++++++++++++++
Date: Fri Jun 02 14:57:18 CEST 2017
User: INFO_000
Dark Spectrum Present: No
Reference Spectrum Present: No
Number of Sampled Component Spectra: 1
Spectrometers: USB4H00879
Integration Time (usec): 80000 (USB4H00879)
Spectra Averaged: 1 (USB4H00879)
Boxcar Smoothing: 0 (USB4H00879)
Correct for Electrical Dark: No (USB4H00879)
Strobe/Lamp Enabled: No (USB4H00879)
Correct for Detector Non-linearity: No (USB4H00879)
Correct for Stray Light: No (USB4H00879)
Number of Pixels in Processed Spectrum: 3648
>>>>>Begin Processed Spectral Data<<<<<
345.13	1232.88
345.34	1232.88
345.56	1232.88
345.78	1275.88
345.99	1259.50
346.21	1728.49
346.42	1701.86
346.64	1654.76
346.86	1724.39
347.07	1673.19
347.29	1679.33
347.50	1640.42
347.72	1609.70
347.94	1716.20
348.15	1517.54
348.37	1613.80
348.59	1689.57
348.80	1626.09
349.02	1847.27
349.23	1869.80
349.45	1785.83
349.67	1867.75
349.88	1798.12
350.10	1923.04
350.31	1767.40
350.53	1830.88
350.75	1984.48
350.96	1812.45
351.18	1857.51
351.39	1888.23
351.61	1804.26
351.82	1826.79
352.04	1912.80
352.26	1822.69
352.47	1888.23
352.69	1953.76
352.90	1824.74
353.12	1826.79
353.34	1839.08
353.55	1904.61
353.77	1916.90
353.98	1937.38
354.20	1791.97
354.41	1888.23
354.63	1929.19
354.85	2031.58
355.06	1916.90
355.28	1814.50
355.49	1955.81
355.71	1902.56
355.92	1904.61
356.14	1988.58
356.35	1943.52
356.57	1853.41
356.79	1957.86
357.00	1871.84
357.22	1947.62
357.43	1877.99
357.65	2019.30
357.86	1884.13
358.08	1929.19
358.29	1929.19
358.51	1912.80
358.72	1951.71
358.94	1894.37
359.16	1847.27
359.37	1955.81
359.59	1927.14
359.80	1941.47
360.02	1974.24
360.23	1935.33
360.45	2011.11
360.66	1920.99
360.88	1847.27
361.09	1970.15
361.31	1994.72
361.52	1929.19
361.74	2097.12
361.95	2115.55
362.17	2017.25
362.38	2193.37
362.60	2056.16
362.81	2050.02
363.03	1920.99
363.24	2041.82
363.46	2066.40
363.67	2090.98
363.89	2037.73
364.10	1986.53
364.32	1894.37
364.53	2035.68
364.75	1877.99
364.96	1982.43
365.18	2060.26
365.39	1939.43
365.61	2029.54
365.82	2127.84
366.04	2105.31
366.25	1990.63
366.47	2023.39
366.68	2084.83
366.90	1994.72
367.11	2111.46
367.33	2105.31
367.54	2095.07
367.76	2033.63
367.97	2070.50
368.19	1964.00
368.40	2129.89
368.62	1992.67
368.83	1937.38
369.05	2158.56
369.26	1964.00
369.48	1955.81
369.69	1949.67
369.91	2119.65
370.12	2039.78
370.33	2060.26
370.55	1959.91
370.76	2017.25
370.98	2123.74
371.19	1994.72
371.41	2023.39
371.62	2084.83
371.84	1964.00
372.05	2181.09
372.27	2007.01
372.48	2127.84
372.69	2150.37
372.91	2105.31
373.12	2201.57
373.34	2121.70
373.55	2203.61
373.77	2136.03
373.98	2080.74
374.20	2115.55
374.41	2314.20
374.62	2113.50
374.84	2181.09
375.05	2172.89
375.27	2162.66
375.48	2123.74
375.70	2125.79
375.91	2197.47
376.12	2371.55
376.34	2142.18
376.55	2248.67
376.77	2222.05
376.98	2131.94
377.19	2148.32
377.41	2088.93
377.62	2217.95
377.84	2217.95
378.05	2344.92
378.27	2217.95
378.48	2363.36
378.69	2277.34
378.91	2269.15
379.12	2287.58
379.34	2256.86
379.55	2334.68
379.76	2297.82
379.98	2179.04
380.19	2228.19
380.41	2324.44
380.62	2420.70
380.83	2236.38
381.05	2258.91
381.26	2455.51
381.47	2183.13
381.69	2172.89
381.90	2346.97
382.12	2373.60
382.33	2269.15
382.54	2258.91
382.76	2273.25
382.97	2369.50
383.19	2252.77
383.40	2383.84
383.61	2324.44
383.83	2351.07
384.04	2318.30
384.25	2312.16
384.47	2392.03
384.68	2404.32
384.89	2297.82
385.11	2252.77
385.32	2367.45
385.54	2334.68
385.75	2342.88
385.96	2424.80
386.18	2353.12
386.39	2367.45
386.60	2392.03
386.82	2441.18
387.03	2402.27
387.24	2496.47
387.46	2600.92
387.67	2406.36
387.88	2551.77
388.10	2455.51
388.31	2488.28
388.52	2523.10
388.74	2547.67
388.95	2529.24
389.16	2529.24
389.38	2533.34
389.59	2549.72
389.80	2695.13
390.02	2566.10
390.23	2633.69
390.44	2533.34
390.66	2492.38
390.87	2500.57
391.08	2609.11
391.30	2713.56
391.51	2621.40
391.72	2633.69
391.94	2672.60
392.15	2531.29
392.36	2727.89
392.58	2553.82
392.79	2578.39
393.00	2633.69
393.22	2713.56
393.43	2707.41
393.64	2664.41
393.85	2795.48
394.07	2623.45
394.28	2760.66
394.49	2748.37
394.71	2707.41
394.92	2883.54
395.13	2674.65
395.35	2676.70
395.56	2760.66
395.77	2793.43
395.98	2752.47
396.20	2856.92
396.41	2875.35
396.62	2846.68
396.84	2852.82
397.05	2830.29
397.26	2938.84
397.47	2869.20
397.69	2887.64
397.90	3002.32
398.11	2867.16
398.32	2858.96
398.54	2885.59
398.75	2879.44
398.96	2904.02
399.18	3090.38
399.39	2885.59
399.60	2924.50
399.81	2928.60
400.03	2947.03
400.24	3301.33
400.45	2979.79
400.66	3098.58
400.88	2975.70
401.09	3121.10
401.30	2965.46
401.51	3174.35
401.73	3174.35
401.94	3084.24
402.15	3129.30
402.36	3106.77
402.58	3170.26
402.79	3137.49
403.00	3147.73
403.21	3178.45
403.43	3272.65
403.64	3291.09
403.85	3129.30
404.06	3229.65
404.27	3164.11
404.49	3225.55
404.70	3119.06
404.91	3262.41
405.12	3170.26
405.34	3243.98
405.55	3323.85
405.76	3229.65
405.97	3221.45
406.19	3358.67
406.40	3166.16
406.61	3354.57
406.82	3399.63
407.03	3346.38
407.25	3325.90
407.46	3442.64
407.67	3481.55
407.88	3385.29
408.09	3491.79
408.31	3354.57
408.52	3385.29
408.73	3360.72
408.94	3309.52
409.15	3493.83
409.37	3485.64
409.58	3581.90
409.79	3389.39
410.00	3524.55
410.21	3530.70
410.43	3473.36
410.64	3387.34
410.85	3579.85
411.06	3563.47
411.27	3563.47
411.48	3608.52
411.70	3655.62
411.91	3608.52
412.12	3608.52
412.33	3665.86
412.54	3651.53
412.76	3751.88
412.97	3819.46
413.18	3524.55
413.39	3690.44
413.60	3676.10
413.81	3649.48
414.03	3745.73
414.24	3723.21
414.45	3760.07
414.66	3723.21
414.87	3704.78
415.08	3684.30
415.30	3856.33
415.51	3868.61
415.72	3719.11
415.93	3778.50
416.14	3782.60
416.35	3956.68
416.56	3827.65
416.78	3854.28
416.99	3944.39
417.20	3835.85
417.41	3907.52
417.62	3999.68
417.83	3928.00
418.04	3944.39
418.26	3952.58
418.47	3841.99
418.68	3983.30
418.89	3973.06
419.10	4147.14
419.31	3901.38
419.52	4112.32
419.73	4032.45
419.95	4245.44
420.16	4032.45
420.37	4124.61
420.58	4224.96
420.79	3944.39
421.00	4229.06
421.21	4200.38
421.42	4200.38
421.63	4218.82
421.85	4124.61
422.06	4186.05
422.27	4300.73
422.48	4272.06
422.69	4224.96
422.90	4304.83
423.11	4288.45
423.32	4235.20
423.53	4448.19
423.75	4435.90
423.96	4474.81
424.17	4517.82
424.38	4542.39
424.59	4470.72
424.80	4595.64
425.01	4425.66
425.22	4540.35
425.43	4444.09
425.64	4644.79
425.85	4730.81
426.06	4698.04
426.28	4548.54
426.49	4476.86
426.70	4761.53
426.91	4599.74
427.12	4665.27
427.33	4712.38
427.54	4739.00
427.75	4726.71
427.96	4931.51
428.17	4870.07
428.38	4716.47
428.59	5050.29
428.80	4929.46
429.01	5017.52
429.23	4853.69
429.44	5130.16
429.65	5046.20
429.86	4925.36
430.07	4888.50
430.28	4863.93
430.49	5003.19
430.70	5085.11
430.91	5199.79
431.12	5035.96
431.33	5162.93
431.54	5175.22
431.75	5138.35
431.96	5285.81
432.17	5072.82
432.38	5099.44
432.59	5312.43
432.80	5308.34
433.01	5418.93
433.22	5357.49
433.43	5375.92
433.64	5318.57
433.85	5220.27
434.06	5398.45
434.27	5214.13
434.49	5463.98
434.70	5400.49
434.91	5474.22
435.12	5423.02
435.33	5580.71
435.54	5545.90
435.75	5414.83
435.96	5433.26
436.17	5273.52
436.38	5597.10
436.59	5754.79
436.80	5586.86
437.01	5744.55
437.22	5846.95
437.43	5699.50
437.64	5431.21
437.85	5885.86
438.06	5722.02
438.27	5572.52
438.48	5547.95
438.69	5664.68
438.90	5801.90
439.11	5717.93
439.32	5830.57
439.53	5781.42
439.74	5822.38
439.95	5777.32
440.16	5871.53
440.37	5932.97
440.57	5748.65
440.78	5980.07
440.99	6014.88
441.20	5881.77
441.41	5828.52
441.62	5967.78
441.83	5832.62
442.04	5961.64
442.25	6059.94
442.46	6041.51
442.67	6031.27
442.88	6363.04
443.09	6162.34
443.30	6045.60
443.51	6100.90
443.72	6391.71
443.93	6156.19
444.14	6250.40
444.35	6115.23
444.56	6156.19
444.77	6148.00
444.98	6186.91
445.19	6414.24
445.40	6213.54
445.61	6229.92
445.81	6506.40
446.02	6397.85
446.23	6330.27
446.44	6221.73
446.65	6387.61
446.86	6453.15
447.07	6545.31
447.28	6524.83
447.49	6721.43
447.70	6526.88
447.91	6483.87
448.12	6588.32
448.33	6690.71
448.54	6692.76
448.74	6541.21
448.95	6676.38
449.16	6670.23
449.37	7049.11
449.58	6619.04
449.79	6915.99
450.00	6713.24
450.21	6809.50
450.42	6842.26
450.63	6862.74
450.84	6827.93
451.05	7020.44
451.25	6805.40
451.46	6829.98
451.67	6965.14
451.88	7274.38
452.09	7045.01
452.30	7110.55
452.51	7083.92
452.72	7210.90
452.93	7407.50
453.13	7022.48
453.34	7057.30
453.55	7524.24
453.76	7196.56
453.97	7550.86
454.18	7395.22
454.39	7335.82
454.60	7374.74
454.81	7268.24
455.01	7655.31
455.22	7225.23
455.43	7534.48
455.64	7739.27
455.85	7772.04
456.06	7915.40
456.27	7679.88
456.48	7530.38
456.68	7638.92
456.89	7763.85
457.10	7899.02
457.31	7872.39
457.52	7905.16
457.73	7962.50
457.94	8150.92
458.14	7925.64
458.35	8257.41
458.56	8173.44
458.77	8048.52
458.98	8441.73
459.19	8419.20
459.39	8171.40
459.60	8474.49
459.81	8363.90
460.02	8523.65
460.23	8374.14
460.44	8796.03
460.65	8701.82
460.85	8707.96
461.06	8771.45
461.27	8480.64
461.48	8951.67
461.69	9064.31
461.89	8591.23
462.10	9097.08
462.31	8777.59
462.52	8707.96
462.73	8920.95
462.94	9187.19
463.14	9140.08
463.35	9135.99
463.56	9494.38
463.77	9330.55
463.98	9314.16
464.18	9355.12
464.39	9541.49
464.60	9586.54
464.81	9588.59
465.02	9559.92
465.23	9871.21
465.43	9752.43
465.64	9901.93
465.85	10051.43
466.06	9834.35
466.27	10182.50
466.47	9924.46
466.68	10137.45
466.89	9867.11
467.10	10149.73
467.30	10002.28
467.51	10309.47
467.72	10588.00
467.93	10151.78
468.14	10604.38
468.34	10579.81
468.55	10633.05
468.76	10735.45
468.97	10624.86
469.17	10843.99
469.38	11011.93
469.59	11069.27
469.80	10997.59
470.01	10915.67
470.21	11040.60
470.42	11388.75
470.63	11382.61
470.84	11304.79
471.04	11542.35
471.25	11669.33
471.46	11622.22
471.67	11829.07
471.87	11704.14
472.08	11644.75
472.29	11951.95
472.50	11568.98
472.70	11953.99
472.91	12037.96
473.12	12320.58
473.33	12347.20
473.53	12250.95
473.74	12175.17
473.95	12468.03
474.16	12625.73
474.36	12519.23
474.57	12621.63
474.78	12969.79
474.99	12922.68
475.19	12969.79
475.40	13133.62
475.61	13170.49
475.81	13256.50
476.02	13442.87
476.23	13209.40
476.44	13627.18
476.64	13842.22
476.85	14012.20
477.06	13633.33
477.27	14112.55
477.47	14313.25
477.68	14171.94
477.89	14337.83
478.09	14274.34
478.30	14260.01
478.51	14483.24
478.71	14849.82
478.92	14599.97
479.13	14808.86
479.34	14851.87
479.54	14984.99
479.75	14905.12
479.96	14954.27
480.16	15116.06
480.37	15240.98
480.58	15296.28
480.78	15658.77
480.99	15503.12
481.20	15931.15
481.41	15736.59
481.61	16021.26
481.82	15865.61
482.03	15949.58
482.23	16111.37
482.44	16244.49
482.65	16221.96
482.85	16260.87
483.06	16396.04
483.27	16510.72
483.47	16705.28
483.68	16738.05
483.89	16733.95
484.09	16756.48
484.30	16924.41
484.51	17293.05
484.71	17235.70
484.92	17008.38
485.13	17587.96
485.33	17284.86
485.54	17096.44
485.75	17723.12
485.95	17913.58
486.16	17854.19
486.37	17889.01
486.57	17792.75
486.78	18075.37
486.98	18003.69
487.19	18204.39
487.40	18355.94
487.60	18265.83
487.81	18587.36
488.02	18613.99
488.22	18366.18
488.43	18800.35
488.64	18702.05
488.84	18835.17
489.05	19091.16
489.25	18831.07
489.46	19158.75
489.67	19171.04
489.87	19138.27
490.08	19334.87
490.29	19275.48
490.49	19769.04
490.70	19791.57
490.90	19853.01
491.11	19637.97
491.32	19947.22
491.52	19846.87
491.73	20123.34
491.94	20045.52
492.14	20174.54
492.35	20510.41
492.55	20338.38
492.76	20569.80
492.97	20641.48
493.17	20604.61
493.38	20692.68
493.58	20823.75
493.79	20858.56
494.00	20829.89
494.20	21153.47
494.41	20948.67
494.61	21401.27
494.82	21223.10
495.02	21393.08
495.23	21171.90
495.44	21348.03
495.64	21458.62
495.85	21370.55
496.05	21735.09
496.26	21825.20
496.47	21876.40
496.67	21788.34
496.88	22046.38
497.08	21700.28
497.29	22095.53
497.49	21921.46
497.70	22392.49
497.91	22304.43
498.11	22421.16
498.32	22415.02
498.52	22402.73
498.73	23021.22
498.93	22697.64
499.14	22677.16
499.34	22937.25
499.55	22763.17
499.76	22601.38
499.96	23056.03
500.17	23228.06
500.37	22953.63
500.58	22978.21
500.78	23275.16
500.99	23127.71
501.19	23451.29
501.40	23340.70
501.60	23230.11
501.81	23537.30
502.02	23551.64
502.22	23357.08
502.43	23510.68
502.63	23826.07
502.84	23889.56
503.04	23848.60
503.25	23701.14
503.45	24075.92
503.66	24010.39
503.86	23881.36
504.07	24364.68
504.27	24043.15
504.48	24385.16
504.68	24405.64
504.89	24747.65
505.09	24505.99
505.30	24319.63
505.50	24692.36
505.71	24700.55
505.91	24542.86
506.12	24897.16
506.32	24700.55
506.53	24700.55
506.73	24708.74
506.94	24843.91
507.14	24772.23
507.35	25269.89
507.55	24940.16
507.76	24905.35
507.96	25144.96
508.17	25267.84
508.37	24835.72
508.58	25480.83
508.78	25050.75
508.99	25409.15
509.19	25656.95
509.40	25507.45
509.60	25560.70
509.81	25810.55
510.01	25710.20
510.22	25869.94
510.42	25798.26
510.63	25886.32
510.83	25505.40
511.04	25667.19
511.24	25921.14
511.44	25970.29
511.65	26365.55
511.85	26222.19
512.06	26320.49
512.26	26326.64
512.47	26508.91
512.67	26248.82
512.88	26478.19
513.08	26291.82
513.29	26560.11
513.49	26521.20
513.69	26527.34
513.90	26650.22
514.10	26531.44
514.31	26400.37
514.51	26873.45
514.72	26787.43
514.92	26832.49
515.13	26859.11
515.33	27055.72
515.53	26867.30
515.74	27006.56
515.94	27082.34
516.15	27303.52
516.35	26891.88
516.56	27215.46
516.76	27215.46
516.96	27207.26
517.17	27338.33
517.37	27510.36
517.58	27637.34
517.78	27788.89
517.99	27813.46
518.19	27719.26
518.39	27813.46
518.60	27911.77
518.80	28122.71
519.01	28169.81
519.21	28085.84
519.41	28497.49
519.62	28077.65
519.82	28421.71
520.03	28479.05
520.23	28464.72
520.43	28515.92
520.64	28876.36
520.84	28935.75
521.05	28765.77
521.25	28694.09
521.45	29134.40
521.66	29187.65
521.86	28978.76
522.07	28982.85
522.27	29044.29
522.47	29392.45
522.68	29662.78
522.88	29675.07
523.08	29687.36
523.29	29732.41
523.49	29965.88
523.70	29931.06
523.90	29976.12
524.10	29957.69
524.31	30182.96
524.51	30082.61
524.71	30365.23
524.92	30244.40
525.12	30637.61
525.33	30481.97
525.53	30613.04
525.73	30852.65
525.94	30959.14
526.14	30785.07
526.34	30674.48
526.55	31049.25
526.75	30674.48
526.95	31338.02
527.16	31137.32
527.36	31415.84
527.56	31823.39
527.77	31870.49
527.97	31505.95
528.17	31653.40
528.38	32032.28
528.58	31864.35
528.78	31936.02
528.99	31993.37
529.19	32529.94
529.39	31852.06
529.60	32341.52
529.80	32333.33
530.00	32263.70
530.21	32701.96
530.41	32847.37
530.61	32812.56
530.82	32830.99
531.02	32704.01
531.22	33039.88
531.43	33066.50
531.63	33582.59
531.83	33705.47
532.04	34047.48
532.24	33828.35
532.44	34113.02
532.64	34096.63
532.85	34366.96
533.05	34184.69
533.25	34104.82
533.46	34250.23
533.66	34567.66
533.86	34584.05
534.07	34682.35
534.27	34840.04
534.47	35325.41
534.67	35280.36
534.88	35069.42
535.08	34946.54
535.28	35454.44
535.49	35657.18
535.69	35800.54
535.89	35763.68
536.09	35603.94
536.30	35855.84
536.50	35921.37
536.70	35837.41
536.91	36062.68
537.11	36373.97
537.31	36613.59
537.51	36595.15
537.72	36865.49
537.92	36748.75
538.12	37057.99
538.32	36578.77
538.53	36974.03
538.73	36935.12
538.93	37178.82
539.13	37443.01
539.34	36953.55
539.54	37105.10
539.74	37801.41
539.94	37469.64
540.15	37610.95
540.35	37850.56
540.55	37967.29
540.75	37754.30
540.96	38053.31
541.16	38153.66
541.36	37967.29
541.56	38378.93
541.77	38714.80
541.97	38526.39
542.17	38778.29
542.37	38565.30
542.58	38712.75
542.78	38493.62
542.98	38600.12
543.18	38942.13
543.38	39554.47
543.59	39478.69
543.79	38911.41
543.99	39011.76
544.19	39693.73
544.40	39390.63
544.60	39804.32
544.80	39722.40
545.00	39677.35
545.20	39628.20
545.41	40410.52
545.61	39994.78
545.81	40154.52
546.01	40064.41
546.21	40140.19
546.42	40099.23
546.62	40517.01
546.82	40224.15
547.02	40162.72
547.22	40496.53
547.43	40416.66
547.63	40588.69
547.83	40539.54
548.03	40682.90
548.23	40912.27
548.44	40488.34
548.64	40924.56
548.84	41037.20
549.04	41104.78
549.24	41237.90
549.45	41463.18
549.65	41145.74
549.85	41252.23
550.05	41753.99
550.25	40899.98
550.45	42126.72
550.66	41555.33
550.86	41700.74
551.06	42022.27
551.26	42016.13
551.46	41985.41
551.66	41940.35
551.87	41831.81
552.07	41919.87
552.27	41995.65
552.47	41928.06
552.67	42335.61
552.87	41799.04
553.07	42220.92
553.28	42128.77
553.48	42761.59
553.68	42575.22
553.88	42841.46
554.08	42329.47
554.28	42526.07
554.48	42589.56
554.69	42710.39
554.89	42683.76
555.09	42927.47
555.29	42771.83
555.49	43048.30
555.69	42681.72
555.89	42483.06
556.10	43111.79
556.30	42691.96
556.50	43230.57
556.70	43169.13
556.90	43414.89
557.10	43341.16
557.30	43183.47
557.50	43316.59
557.70	43394.41
557.91	43849.06
558.11	43232.62
558.31	43574.63
558.51	43232.62
558.71	43910.50
558.91	43472.23
559.11	43152.75
559.31	43677.03
559.51	43627.88
559.72	43734.37
559.92	44090.72
560.12	43902.31
560.32	43865.44
560.52	43857.25
560.72	44365.15
560.92	44240.22
561.12	44154.21
561.32	44524.89
561.52	44031.33
561.72	44229.98
561.93	43947.36
562.13	43828.58
562.33	44041.57
562.53	44623.19
562.73	44078.43
562.93	44127.58
563.13	44391.77
563.33	44041.57
563.53	44250.46
563.73	44254.56
563.93	44389.72
564.13	44561.75
564.33	44135.77
564.53	44447.07
564.74	44643.67
564.94	44920.15
565.14	44537.18
565.34	44350.81
565.54	44981.59
565.74	44438.87
565.94	44879.19
566.14	44750.17
566.34	44705.11
566.54	45053.26
566.74	44612.95
566.94	44821.84
567.14	45092.18
567.34	45112.66
567.54	45430.09
567.74	44682.58
567.94	44805.46
568.14	45432.14
568.34	45102.42
568.54	44973.39
568.74	45309.26
568.94	44954.96
569.14	45053.26
569.34	45143.38
569.54	45376.84
569.75	45243.73
569.95	45274.45
570.15	45532.49
570.35	45126.99
570.55	45317.45
570.75	45260.11
570.95	45442.38
571.15	45606.22
571.35	45327.69
571.55	45417.80
571.75	45817.16
571.95	45436.23
572.15	45294.92
572.35	45454.67
572.55	45661.51
572.75	45489.48
572.95	45663.56
573.15	45344.08
573.35	45307.21
573.55	45462.86
573.75	45512.01
573.95	46200.13
574.15	45520.20
574.35	45479.24
574.55	46009.67
574.75	45733.19
574.95	45593.93
575.15	45823.30
575.34	46069.06
575.54	46118.21
575.74	45925.70
575.94	45872.45
576.14	46075.20
576.34	46347.58
576.54	46597.43
576.74	46458.17
576.94	46318.91
577.14	46716.22
577.34	46603.58
577.54	46445.88
577.74	46603.58
577.94	46009.67
578.14	46374.20
578.34	47084.85
578.54	46122.30
578.74	46413.12
578.94	46519.61
579.14	45999.43
579.34	46515.51
579.54	46564.67
579.74	46931.25
579.94	47009.07
580.13	46716.22
580.33	47205.68
580.53	46880.05
580.73	46925.11
580.93	47076.66
581.13	46679.35
581.33	47144.24
581.53	46757.17
581.73	47099.19
581.93	47387.95
582.13	47109.43
582.33	47187.25
582.53	47258.93
582.73	47357.23
582.92	47324.46
583.12	47115.57
583.32	47334.70
583.52	47256.88
583.72	47303.98
583.92	47498.54
584.12	47834.41
584.32	47990.05
584.52	47658.28
584.72	47707.43
584.92	47924.52
585.11	48166.18
585.31	47633.71
585.51	47953.19
585.71	47588.65
585.91	47895.85
586.11	47797.54
586.31	47746.34
586.51	47654.18
586.71	47936.80
586.91	48033.06
587.10	48194.85
587.30	48221.47
587.50	48057.63
587.70	48215.33
587.90	48514.33
588.10	48235.81
588.30	48231.71
588.50	48532.76
588.69	47961.38
588.89	48166.18
589.09	48196.90
589.29	48117.03
589.49	48586.01
589.69	47961.38
589.89	48717.08
590.08	49151.25
590.28	48246.05
590.48	48641.31
590.68	48575.77
590.88	48643.35
591.08	48448.80
591.28	48360.73
591.47	48737.56
591.67	48776.47
591.87	49132.82
592.07	48803.10
592.27	49030.42
592.47	48788.76
592.67	49118.48
592.86	48854.29
593.06	49368.33
593.26	48911.64
593.46	48985.36
593.66	49362.19
593.86	48960.79
594.05	48946.45
594.25	49239.31
594.45	49120.53
594.65	49304.85
594.85	48874.77
595.05	49196.31
595.24	49743.11
595.44	49405.20
595.64	49743.11
595.84	49521.93
596.04	49247.50
596.23	49513.74
596.43	49784.07
596.63	49720.59
596.83	49677.58
597.03	50279.68
597.22	49667.34
597.42	49661.19
597.62	50353.41
597.82	49880.33
598.02	50011.40
598.21	50083.08
598.41	50070.79
598.61	49976.58
598.81	50050.31
599.01	50253.06
599.20	50328.83
599.40	50242.82
599.60	50033.92
599.80	50046.21
600.00	50271.49
600.19	50423.04
600.39	50320.64
600.59	50683.13
600.79	50560.25
600.98	50439.42
601.18	50992.37
601.38	50818.30
601.58	50744.57
601.78	50654.46
601.97	50785.53
602.17	51408.11
602.37	51076.34
602.57	51119.35
602.76	51188.98
602.96	51023.09
603.16	51602.67
603.36	51279.09
603.55	51453.17
603.75	50998.52
603.95	51240.18
604.15	51522.80
604.34	51408.11
604.54	51475.69
604.74	51537.13
604.94	51709.16
605.13	51438.83
605.33	51393.78
605.53	51610.86
605.73	52149.48
605.92	51920.10
606.12	51969.26
606.32	51979.49
606.52	51961.06
606.71	51909.86
606.91	51942.63
607.11	52055.27
607.30	51868.90
607.50	51795.18
607.70	52255.97
607.90	52147.43
608.09	52321.51
608.29	52253.92
608.49	52544.73
608.68	52344.03
608.88	52581.60
609.08	52620.51
609.28	52884.70
609.47	52026.60
609.67	53157.08
609.87	52749.53
610.06	52944.09
610.26	52851.93
610.46	52862.17
610.66	52675.80
610.85	53132.50
611.05	52681.95
611.25	53152.98
611.44	53028.05
611.64	53486.80
611.84	52778.20
612.03	53232.85
612.23	53138.65
612.43	52729.05
612.62	53089.49
612.82	53290.19
613.02	53161.17
613.21	53071.06
613.41	52745.44
613.61	53681.36
613.80	52886.74
614.00	53230.80
614.20	53441.74
614.39	53034.20
614.59	53425.36
614.79	53384.40
614.98	53175.51
615.18	53048.53
615.38	53339.35
615.57	53296.34
615.77	53353.68
615.97	53736.65
616.16	52933.85
616.36	53664.97
616.56	53441.74
616.75	53664.97
616.95	53095.64
617.15	53593.29
617.34	53687.50
617.54	53611.73
617.74	54211.78
617.93	54346.95
618.13	53478.61
618.32	53927.11
618.52	53589.20
618.72	53499.09
618.91	53785.80
619.11	53617.87
619.31	53763.28
619.50	53462.22
619.70	53548.24
619.90	53896.39
620.09	53462.22
620.29	54365.38
620.48	53791.95
620.68	54129.86
620.88	53431.50
621.07	53920.97
621.27	53701.84
621.46	53634.25
621.66	53884.11
621.86	53791.95
622.05	53710.03
622.25	54363.33
622.44	53855.43
622.64	53798.09
622.84	53695.69
623.03	53826.76
623.23	53957.83
623.42	54109.38
623.62	54039.75
623.82	54162.63
624.01	54084.81
624.21	54234.31
624.40	53945.54
624.60	53974.22
624.80	54183.11
624.99	54418.63
625.19	53605.58
625.38	54367.43
625.58	54201.54
625.77	54076.61
625.97	54101.19
626.17	54244.55
626.36	53908.68
626.56	54267.08
626.75	53587.15
626.95	54326.47
627.14	54361.28
627.34	54518.98
627.54	54111.43
627.73	54586.56
627.93	54465.73
628.12	53927.11
628.32	54688.96
628.51	54832.32
628.71	54467.78
628.90	54461.63
629.10	54181.06
629.30	54400.19
629.49	54514.88
629.69	54414.53
629.88	54449.35
630.08	54762.68
630.27	55065.78
630.47	54658.24
630.66	54576.32
630.86	54858.94
631.05	54478.02
631.25	54844.60
631.44	54742.20
631.64	54949.05
631.84	54822.08
632.03	55397.55
632.23	54760.64
632.42	55592.11
632.62	54324.42
632.81	54516.93
633.01	55030.97
633.20	55415.99
633.40	54629.57
633.59	55354.55
633.79	54867.13
633.98	55033.02
634.18	55608.50
634.37	55170.23
634.57	55407.79
634.76	55141.56
634.96	55264.44
635.15	55538.86
635.35	55094.46
635.54	55024.82
635.74	55332.02
635.93	55274.68
636.13	55813.29
636.32	54985.91
636.52	55399.60
636.71	55807.15
636.91	55921.83
637.10	55588.02
637.30	55624.88
637.49	56005.80
637.69	55532.72
637.88	55559.34
638.08	55096.50
638.27	55719.09
638.46	55592.11
638.66	55317.68
638.85	55866.54
639.05	55415.99
639.24	55600.30
639.44	55696.56
639.63	55903.40
639.83	56104.10
640.02	56126.63
640.22	56183.97
640.41	56024.23
640.61	55635.12
640.80	56128.68
640.99	56093.86
641.19	56456.35
641.38	56435.87
641.58	56087.72
641.77	56226.98
641.97	55768.24
642.16	55917.74
642.36	56360.10
642.55	56450.21
642.74	56040.62
642.94	56763.55
643.13	56345.76
643.33	56609.95
643.52	56794.27
643.72	56497.31
643.91	56513.70
644.10	56829.08
644.30	56423.59
644.49	56286.37
644.69	56341.67
644.88	56956.06
645.08	56151.21
645.27	56204.45
645.46	56472.74
645.66	56855.71
645.85	56941.72
646.05	57009.31
646.24	56708.25
646.43	56620.19
646.63	56865.95
646.82	57588.88
647.02	56947.87
647.21	56947.87
647.40	56925.34
647.60	57308.31
647.79	57621.65
647.99	57115.80
648.18	56831.13
648.37	57726.10
648.57	57611.41
648.76	57369.75
648.96	56939.68
649.15	57601.17
649.34	57578.64
649.54	57324.69
649.73	57470.10
649.92	57332.89
650.12	57349.27
650.31	57828.49
650.51	57814.16
650.70	57791.63
650.89	57537.68
651.09	57881.74
651.28	57971.85
651.47	58061.96
651.67	57660.56
651.86	58260.62
652.06	57404.56
652.25	57373.84
652.44	57783.44
652.64	57359.51
652.83	57513.11
653.02	57881.74
653.22	57537.68
653.41	57816.21
653.60	57361.56
653.80	57463.96
653.99	58031.24
654.18	57439.38
654.38	58147.98
654.57	57693.33
654.76	57992.33
654.96	57586.83
655.15	57785.49
655.34	57750.67
655.54	57683.09
655.73	58021.00
655.92	58219.66
656.12	58162.31
656.31	57885.84
656.50	58018.95
656.70	57828.49
656.89	57765.01
657.08	58037.39
657.28	58031.24
657.47	57834.64
657.66	58088.59
657.86	58092.68
658.05	57832.59
658.24	57863.31
658.43	58274.95
658.63	58305.67
658.82	58330.25
659.01	58494.08
659.21	58467.46
659.40	58166.41
659.59	57928.84
659.79	58479.75
659.98	58686.59
660.17	58479.75
660.36	58127.50
660.56	58430.60
660.75	58258.57
660.94	58008.71
661.14	58412.16
661.33	58037.39
661.52	57873.55
661.71	58528.90
661.91	57980.04
662.10	58240.14
662.29	58905.73
662.49	58340.49
662.68	58326.15
662.87	58512.52
663.06	58422.40
663.26	58360.97
663.45	58610.82
663.64	58248.33
663.83	58809.47
664.03	58410.12
664.22	58774.66
664.41	58299.53
664.60	58021.00
664.80	58176.65
664.99	58266.76
665.18	58285.19
665.37	58270.85
665.57	58455.17
665.76	58129.54
665.95	58002.57
666.14	58229.90
666.34	58377.35
666.53	58039.43
666.72	58037.39
666.91	58094.73
667.11	57818.25
667.30	58397.83
667.49	58356.87
667.68	58033.29
667.87	58164.36
668.07	58422.40
668.26	58053.77
668.45	57889.93
668.64	58043.53
668.84	58815.61
669.03	58545.28
669.22	58205.32
669.41	58537.09
669.60	58225.80
669.80	58203.27
669.99	58586.24
670.18	58305.67
670.37	58442.88
670.57	58754.18
670.76	57693.33
670.95	58188.94
671.14	58299.53
671.33	58422.40
671.53	58821.76
671.72	58795.13
671.91	58754.18
672.10	58240.14
672.29	58082.44
672.48	58203.27
672.68	58520.71
672.87	57967.76
673.06	58010.76
673.25	57638.03
673.44	57853.07
673.64	58004.62
673.83	58297.48
674.02	57973.90
674.21	57578.64
674.40	58072.20
674.59	57859.21
674.79	57513.11
674.98	57715.86
675.17	58238.09
675.36	57799.82
675.55	57752.72
675.74	57709.71
675.94	57994.38
676.13	57867.40
676.32	57820.30
676.51	57621.65
676.70	57867.40
676.89	57603.22
677.08	57822.35
677.28	57646.22
677.47	57896.08
677.66	58012.81
677.85	57578.64
678.04	57963.66
678.23	57967.76
678.42	57420.95
678.62	57500.82
678.81	57787.53
679.00	57386.13
679.19	58090.63
679.38	57642.13
679.57	57846.93
679.76	57119.90
679.96	57650.32
680.15	57607.31
680.34	57447.57
680.53	57560.21
680.72	57156.76
680.91	57246.87
681.10	57476.24
681.29	57699.47
681.48	57418.90
681.68	57308.31
681.87	57130.14
682.06	57302.17
682.25	57093.27
682.44	57037.98
682.63	57324.69
682.82	56509.60
683.01	57197.72
683.20	56546.47
683.39	56956.06
683.59	56857.76
683.78	56407.20
683.97	56630.43
684.16	56833.18
684.35	56698.01
684.54	56857.76
684.73	56863.90
684.92	56763.55
685.11	56325.28
685.30	56370.34
685.49	57005.21
685.69	56708.25
685.88	56806.56
686.07	56399.01
686.26	56652.96
686.45	56499.36
686.64	56566.94
686.83	56280.23
687.02	55927.98
687.21	56480.93
687.40	56358.05
687.59	56556.70
687.78	56315.04
687.97	56523.94
688.16	56300.71
688.35	56308.90
688.54	56304.80
688.74	56245.41
688.93	55884.97
689.12	56202.41
689.31	55805.10
689.50	55872.68
689.69	55751.85
689.88	55536.82
690.07	55895.21
690.26	55649.45
690.45	55651.50
690.64	55493.81
690.83	55667.89
691.02	55461.04
691.21	56071.34
691.40	55440.56
691.59	55479.47
691.78	55684.27
691.97	55327.92
692.16	55037.11
692.35	55692.46
692.54	55426.23
692.73	55528.62
692.92	55497.91
693.11	55153.85
693.30	54842.56
693.49	54772.92
693.68	55162.04
693.87	54959.29
694.06	54856.89
694.25	55504.05
694.44	54965.43
694.63	54957.24
694.82	55239.86
695.01	54850.75
695.20	54777.02
695.39	54668.48
695.58	54764.73
695.77	54518.98
695.96	54402.24
696.15	55035.06
696.34	54490.30
696.53	54557.89
696.72	54781.12
696.91	54523.07
697.10	54752.44
697.29	54777.02
697.48	54332.61
697.67	54041.80
697.86	54693.05
698.05	53888.20
698.24	54762.68
698.43	53755.08
698.62	54410.43
698.81	53789.90
699.00	54365.38
699.19	53617.87
699.38	54248.64
699.57	54058.18
699.76	54428.87
699.95	53757.13
700.14	53570.77
700.32	53757.13
700.51	53613.77
700.70	53621.97
700.89	53718.22
701.08	53898.44
701.27	53789.90
701.46	54449.35
701.65	53048.53
701.84	53830.86
702.03	53204.18
702.22	53189.84
702.41	53636.30
702.60	53175.51
702.79	53277.91
702.98	52974.81
703.17	52950.23
703.35	53060.82
703.54	52976.86
703.73	53093.59
703.92	53001.43
704.11	53183.70
704.30	52477.15
704.49	52874.46
704.68	52378.85
704.87	52714.72
705.06	52528.35
705.25	52409.57
705.43	52831.45
705.62	52559.07
705.81	52526.30
706.00	52667.61
706.19	52155.62
706.38	52208.87
706.57	52292.83
706.76	52315.36
706.95	52348.13
707.14	52307.17
707.32	52040.93
707.51	51981.54
707.70	52114.66
707.89	52131.04
708.08	52384.99
708.27	51817.71
708.46	52741.34
708.65	51934.44
708.84	52139.24
709.02	52024.55
709.21	52172.00
709.40	51688.68
709.59	52006.12
709.78	51193.07
709.97	52051.17
710.16	51664.11
710.34	51590.38
710.53	51651.82
710.72	51123.44
710.91	51365.10
711.10	51727.59
711.29	51475.69
711.48	51881.19
711.66	51598.57
711.85	51295.47
712.04	51225.84
712.23	51066.10
712.42	50803.96
712.61	51231.99
712.80	51299.57
712.98	51115.25
713.17	50771.19
713.36	50992.37
713.55	51320.05
713.74	51293.43
713.93	51092.72
714.11	50849.02
714.30	50713.85
714.49	50918.65
714.68	50783.48
714.87	50627.84
715.06	50816.25
715.24	50775.29
715.43	50410.75
715.62	50402.56
715.81	50392.32
716.00	50316.54
716.18	50214.15
716.37	50308.35
716.56	49833.22
716.75	50418.94
716.94	50375.94
717.12	49894.66
717.31	50160.90
717.50	50552.06
717.69	49892.61
717.88	49812.74
718.06	49978.63
718.25	50625.79
718.44	49843.46
718.63	49915.14
718.82	49433.87
719.00	49585.42
719.19	49620.23
719.38	49765.64
719.57	49081.62
719.76	49329.42
719.94	48989.46
720.13	48950.55
720.32	49454.35
720.51	48919.83
720.69	48796.95
720.88	49071.38
721.07	48887.06
721.26	48762.14
721.44	48954.64
721.63	48665.88
721.82	48543.00
722.01	48536.86
722.20	48665.88
722.38	48188.70
722.57	48334.11
722.76	48190.75
722.95	48244.00
723.13	48274.72
723.32	48235.81
723.51	48067.87
723.70	47873.32
723.88	48428.32
724.07	47496.49
724.26	48092.45
724.44	47615.27
724.63	47858.98
724.82	48221.47
725.01	47820.07
725.19	47668.52
725.38	47887.65
725.57	47752.49
725.76	47527.21
725.94	47328.56
726.13	47383.85
726.32	47607.08
726.51	47303.98
726.69	47713.58
726.88	47502.64
727.07	47781.16
727.25	47203.63
727.44	47480.11
727.63	47185.20
727.82	47426.86
728.00	47471.92
728.19	46970.16
728.38	47310.13
728.56	46789.94
728.75	47609.13
728.94	47009.07
729.12	47496.49
729.31	47291.69
729.50	46751.03
729.69	47285.55
729.87	47166.77
730.06	47457.58
730.25	47279.41
730.43	47568.17
730.62	46794.04
730.81	47445.29
730.99	47252.78
731.18	47138.10
731.37	47263.02
731.55	47539.50
731.74	47453.48
731.93	47267.12
732.11	47068.47
732.30	46824.76
732.49	47045.94
732.67	47166.77
732.86	47068.47
733.05	46921.01
733.23	46646.58
733.42	46847.29
733.61	46216.51
733.79	46468.41
733.98	47275.31
734.17	46810.42
734.35	47045.94
734.54	46675.26
734.73	47240.50
734.91	47271.21
735.10	46495.03
735.29	47158.58
735.47	46771.51
735.66	46929.20
735.84	46511.42
736.03	46624.06
736.22	46619.96
736.40	46503.23
736.59	46886.20
736.78	46140.74
736.96	46222.65
737.15	46193.98
737.33	46331.20
737.52	46241.09
737.71	46134.59
737.89	46370.11
738.08	45987.14
738.27	46019.91
738.45	46945.59
738.64	46323.01
738.82	46040.39
739.01	46083.39
739.20	46339.39
739.38	46376.25
739.57	46660.92
739.75	46241.09
739.94	45798.73
740.13	46185.79
740.31	46396.73
740.50	46533.95
740.68	46011.71
740.87	46257.47
741.06	46435.64
741.24	45890.88
741.43	45604.17
741.61	45999.43
741.80	45763.91
741.99	46093.63
742.17	46216.51
742.36	45512.01
742.54	45632.84
742.73	45894.98
742.91	46323.01
743.10	45794.63
743.29	45716.81
743.47	45651.27
743.66	45282.64
743.84	45645.13
744.03	45258.06
744.21	45903.17
744.40	45954.37
744.59	45339.98
744.77	45362.51
744.96	45749.57
745.14	45389.13
745.33	45727.05
745.51	45364.56
745.70	45618.50
745.88	45231.44
746.07	45681.99
746.26	45233.49
746.44	45116.75
746.63	45053.26
746.81	45229.39
747.00	44922.19
747.18	45047.12
747.37	44877.14
747.55	45311.31
747.74	45225.29
747.92	44881.24
748.11	45004.11
748.29	44963.15
748.48	45006.16
748.66	45004.11
748.85	45045.07
749.03	44625.24
749.22	45026.64
749.41	44608.86
749.59	45043.02
749.78	44971.35
749.96	44619.10
750.15	44832.08
750.33	44690.77
750.52	44766.55
750.70	44957.01
750.89	44318.04
751.07	44713.30
751.26	44799.32
751.44	44447.07
751.63	44158.30
751.81	44893.52
752.00	44348.76
752.18	44701.01
752.37	44205.41
752.55	44420.44
752.74	44172.64
752.92	44295.52
753.10	44223.84
753.29	44467.55
753.47	44528.98
753.66	43994.46
753.84	44512.60
754.03	44004.70
754.21	43879.78
754.40	44272.99
754.58	44301.66
754.77	43994.46
754.95	43662.69
755.14	43865.44
755.32	43787.62
755.51	43631.97
755.69	43541.86
755.88	43552.10
756.06	43877.73
756.24	43883.87
756.43	43668.84
756.61	43726.18
756.80	43781.48
756.98	43085.17
757.17	43728.23
757.35	43939.17
757.54	43332.97
757.72	43478.38
757.90	43361.64
758.09	43482.47
758.27	43668.84
758.46	43263.34
758.64	43449.70
758.83	43554.15
759.01	43492.71
759.19	43183.47
759.38	43416.94
759.56	43953.51
759.75	43306.35
759.93	43328.87
760.12	42931.57
760.30	43249.00
760.48	43296.11
760.67	43181.42
760.85	43142.51
761.04	43418.99
761.22	43210.09
761.40	42808.69
761.59	43167.09
761.77	42638.71
761.96	42917.23
762.14	42972.53
762.32	42464.63
762.51	42679.67
762.69	42884.47
762.88	42863.99
763.06	42614.13
763.24	42794.36
763.43	42485.11
763.61	42562.93
763.80	42280.31
763.98	42429.82
764.16	42642.81
764.35	42370.43
764.53	41895.30
764.72	42366.33
764.90	42589.56
765.08	42296.70
765.27	42382.71
765.45	41915.78
765.63	41862.53
765.82	42599.80
766.00	42022.27
766.18	41870.72
766.37	42483.06
766.55	42038.65
766.74	42247.55
766.92	41944.45
767.10	42233.21
767.29	41956.74
767.47	41541.00
767.65	42489.21
767.84	41670.02
768.02	41825.67
768.20	41655.68
768.39	41776.51
768.57	41784.71
768.75	41690.50
768.94	41852.29
769.12	41850.24
769.30	41563.53
769.49	41622.92
769.67	41317.77
769.85	40924.56
770.04	41952.64
770.22	41321.87
770.40	40957.33
770.59	41289.10
770.77	41577.86
770.95	41231.75
771.14	41151.88
771.32	40742.29
771.50	40666.52
771.69	41092.49
771.87	41104.78
772.05	40912.27
772.24	40709.52
772.42	40961.42
772.60	41000.33
772.78	40510.87
772.97	40719.76
773.15	41057.68
773.33	40979.85
773.52	40451.48
773.70	40719.76
773.88	40750.48
774.07	40836.50
774.25	40934.80
774.43	40678.80
774.61	40953.23
774.80	41080.21
774.98	40474.01
775.16	40983.95
775.34	40990.09
775.53	40535.45
775.71	40910.22
775.89	40914.32
776.08	40664.47
776.26	40916.37
776.44	41201.04
776.62	41217.42
776.81	41164.17
776.99	41037.20
777.17	40738.19
777.35	40697.24
777.54	41074.06
777.72	40555.93
777.90	41205.13
778.08	41137.55
778.27	41592.20
778.45	41102.73
778.63	41618.82
778.81	41549.19
779.00	41733.51
779.18	41774.47
779.36	41500.04
779.54	41659.78
779.73	41418.12
779.91	41475.46
780.09	41424.26
780.27	41541.00
780.46	41864.58
780.64	42165.63
780.82	41715.08
781.00	41577.86
781.19	42067.33
781.37	41880.96
781.55	41837.95
781.73	42243.45
781.91	41852.29
782.10	41682.31
782.28	41950.59
782.46	42188.16
782.64	41854.34
782.82	41897.34
783.01	42280.31
783.19	42243.45
783.37	42360.19
783.55	42120.57
783.74	42243.45
783.92	41983.36
784.10	42493.30
784.28	42202.49
784.46	41964.93
784.64	41971.07
784.83	42429.82
785.01	42560.89
785.19	42153.34
785.37	42657.14
785.55	42014.08
785.74	41801.09
785.92	41807.23
786.10	41946.50
786.28	42167.68
786.46	42169.72
786.64	41573.77
786.83	42380.67
787.01	42296.70
787.19	42186.11
787.37	41973.12
787.55	41807.23
787.74	41364.87
787.92	41541.00
788.10	41794.95
788.28	41594.25
788.46	41477.51
788.64	41491.85
788.82	41794.95
789.01	41674.12
789.19	41784.71
789.37	41493.89
789.55	41332.11
789.73	41293.19
789.91	41127.31
790.09	40938.90
790.28	41078.16
790.46	40818.07
790.64	41241.99
790.82	41291.15
791.00	41084.30
791.18	41049.49
791.36	40633.75
791.55	40836.50
791.73	40654.23
791.91	40347.03
792.09	40967.57
792.27	40482.20
792.45	40600.98
792.63	40512.92
792.81	40281.50
793.00	40437.14
793.18	40629.65
793.36	40175.00
793.54	39816.61
793.72	39884.19
793.90	39730.59
794.08	39755.17
794.26	39853.47
794.44	39679.39
794.62	39890.34
794.81	39794.08
794.99	39640.48
795.17	39499.17
795.35	39333.29
795.53	39456.17
795.71	39413.16
795.89	39189.93
796.07	39112.11
796.25	38966.70
796.43	38870.45
796.61	38753.71
796.80	38127.03
796.98	38544.82
797.16	38747.57
797.34	38698.42
797.52	38518.20
797.70	38602.16
797.88	38442.42
798.06	38190.52
798.24	37950.91
798.42	38233.53
798.60	38002.11
798.78	38000.06
798.96	37688.77
799.14	37834.17
799.32	37707.20
799.51	37393.86
799.69	37897.66
799.87	37553.60
800.05	37033.42
800.23	37449.16
800.41	37436.87
800.59	37533.12
800.77	37025.23
800.95	36853.20
801.13	37133.77
801.31	37017.04
801.49	36771.28
801.67	36873.68
801.85	36945.36
802.03	36523.47
802.21	36558.29
802.39	36445.65
802.57	36216.28
802.75	36058.59
802.93	36443.60
803.11	36058.59
803.29	35880.41
803.47	36171.22
803.65	36279.77
803.83	36287.96
804.01	35941.85
804.19	35681.76
804.37	35364.32
804.55	35835.36
804.73	35716.58
804.91	35149.29
805.09	35493.35
805.27	35593.70
805.45	35347.94
805.63	35151.34
805.81	35309.03
805.99	35427.81
806.17	35096.04
806.35	35251.69
806.53	34924.01
806.71	35003.88
806.89	35032.55
807.07	34936.30
807.25	34528.75
807.43	34594.29
807.61	34641.39
807.79	34477.55
807.97	34274.80
808.15	34369.01
808.33	33918.46
808.51	34174.45
808.69	34027.00
808.87	33840.64
809.05	33740.29
809.23	33756.67
809.41	33945.08
809.59	33916.41
809.77	33996.28
809.95	33900.03
810.13	33998.33
810.31	33732.09
810.49	33576.45
810.67	33453.57
810.84	33424.90
811.02	33641.98
811.20	32878.09
811.38	33721.85
811.56	33195.53
811.74	33068.55
811.92	33242.63
812.10	32986.63
812.28	33211.91
812.46	33005.06
812.64	33099.27
812.82	32886.28
813.00	32536.08
813.18	32706.06
813.36	32699.92
813.53	32611.85
813.71	32628.24
813.89	32253.46
814.07	32591.37
814.25	32458.26
814.43	32146.97
814.61	32048.66
814.79	32130.58
814.97	31819.29
815.15	32112.15
815.33	31917.59
815.50	31837.72
815.68	31628.83
815.86	31823.39
816.04	31419.94
816.22	31512.10
816.40	31770.14
816.58	31772.19
816.76	31239.72
816.94	31233.57
817.11	31436.32
817.29	31348.26
817.47	31176.23
817.65	31256.10
817.83	31022.63
818.01	30879.27
818.19	31118.89
818.37	30909.99
818.54	30907.94
818.72	30610.99
818.90	31034.92
819.08	30438.96
819.26	30838.31
819.44	30654.00
819.62	30715.44
819.80	30619.18
819.97	30830.12
820.15	30549.55
820.33	30178.87
820.51	30563.89
820.69	30015.03
820.87	30309.94
821.05	30033.46
821.22	30451.25
821.40	30733.87
821.58	30199.35
821.76	30037.56
821.94	30000.69
822.12	29922.87
822.29	30150.20
822.47	29828.66
822.65	30180.92
822.83	29996.60
823.01	30105.14
823.19	29648.44
823.36	29886.01
823.54	29632.06
823.72	29468.22
823.90	29414.98
824.08	29531.71
824.25	29398.59
824.43	29380.16
824.61	29388.35
824.79	29513.28
824.97	29220.42
825.15	29240.90
825.32	29062.72
825.50	28980.81
825.68	29128.26
825.86	29398.59
826.04	29118.02
826.21	29052.48
826.39	28853.83
826.57	28978.76
826.75	28628.56
826.93	28739.15
827.10	28724.81
827.28	28847.69
827.46	28997.19
827.64	28780.10
827.81	28517.96
827.99	28864.07
828.17	28378.70
828.35	28259.92
828.53	28714.57
828.70	28575.31
828.88	28194.39
829.06	28317.26
829.24	28442.19
829.41	28040.79
829.59	28264.02
829.77	27979.35
829.95	28120.66
830.12	27969.11
830.30	28020.31
830.48	28096.08
830.66	28046.93
830.84	27924.05
831.01	27924.05
831.19	27844.18
831.37	27631.19
831.55	27481.69
831.72	27827.80
831.90	27614.81
832.08	27780.70
832.25	27375.20
832.43	27399.77
832.61	27405.92
832.79	27334.24
832.96	27221.60
833.14	27416.16
833.32	27792.98
833.50	27684.44
833.67	27289.18
833.85	27590.24
834.03	27061.86
834.20	27450.97
834.38	27520.60
834.56	27410.01
834.74	26932.84
834.91	27291.23
835.09	27121.25
835.27	26631.79
835.44	26525.29
835.62	26367.60
835.80	26693.22
835.98	26752.62
836.15	26918.50
836.33	26844.77
836.51	26973.80
836.68	26689.13
836.86	26510.96
837.04	26685.03
837.21	26846.82
837.39	26740.33
837.57	27025.00
837.75	26529.39
837.92	26340.97
838.10	26474.09
838.28	26076.79
838.45	26052.21
838.63	26277.49
838.81	26050.16
838.98	26060.40
839.16	26001.01
839.34	26080.88
839.51	26007.16
839.69	25597.56
839.87	25839.22
840.04	25800.31
840.22	25843.32
840.40	25783.93
840.57	25427.58
840.75	25820.79
840.93	25126.53
841.10	25822.84
841.28	26066.55
841.46	25812.60
841.63	25745.02
841.81	25661.05
841.98	25675.38
842.16	25425.53
842.34	25691.77
842.51	25316.99
842.69	25376.38
842.87	25290.37
843.04	25507.45
843.22	25089.67
843.40	25190.02
843.57	25218.69
843.75	25306.75
843.92	25257.60
844.10	25360.00
844.28	25112.19
844.45	25556.60
844.63	25220.74
844.81	25175.68
844.98	25337.47
845.16	24940.16
845.33	25075.33
845.51	25083.52
845.69	24483.47
845.86	24673.93
846.04	24608.39
846.21	24641.16
846.39	24772.23
846.57	24286.86
846.74	24712.84
846.92	24583.82
847.09	24938.12
847.27	24362.64
847.45	24702.60
847.62	24618.63
847.80	24417.93
847.97	24370.83
848.15	24573.58
848.32	24489.61
848.50	24161.94
848.68	24014.48
848.85	24186.51
849.03	23764.63
849.20	24391.31
849.38	23867.03
849.56	24100.50
849.73	24350.35
849.91	24080.02
850.08	24086.16
850.26	23834.26
850.43	24071.82
850.61	23907.99
850.78	23846.55
850.96	23971.47
851.14	23133.86
851.31	23877.27
851.49	23377.56
851.66	23371.42
851.84	23574.17
852.01	23637.66
852.19	23688.85
852.36	23672.47
852.54	23643.80
852.71	23244.45
852.89	23709.33
853.07	23314.08
853.24	23402.14
853.42	23262.88
853.59	23115.42
853.77	23494.30
853.94	23252.64
854.12	23375.52
854.29	23174.81
854.47	23191.20
854.64	23025.31
854.82	22927.01
854.99	23264.92
855.17	23021.22
855.34	23017.12
855.52	23119.52
855.69	23160.48
855.87	22791.84
856.04	22568.62
856.22	22703.78
856.39	22898.34
856.57	22808.23
856.74	22654.63
856.92	22675.11
857.09	22507.18
857.27	22480.55
857.44	22580.90
857.62	22568.62
857.79	22419.11
857.97	22300.33
858.14	22402.73
858.32	22519.46
858.49	22372.01
858.67	22503.08
858.84	22275.76
859.02	22398.63
859.19	22193.84
859.37	22204.08
859.54	22095.53
859.72	22107.82
859.89	22242.99
860.06	22449.83
860.24	21903.03
860.41	22161.07
860.59	21925.55
860.76	22167.21
860.94	21913.27
861.11	22015.66
861.29	21722.80
861.46	21505.72
861.64	21460.66
861.81	21644.98
861.98	21669.56
862.16	21421.75
862.33	21204.67
862.51	21599.93
862.68	21534.39
862.86	21427.90
863.03	21362.36
863.21	21442.23
863.38	21319.35
863.55	21558.97
863.73	21499.58
863.90	21413.56
864.08	21540.54
864.25	21302.97
864.43	21356.22
864.60	21083.84
864.77	20983.49
864.95	21034.69
865.12	21077.69
865.30	21184.19
865.47	20905.66
865.64	20856.51
865.82	21167.80
865.99	20997.82
866.17	20811.46
866.34	20948.67
866.51	20797.12
866.69	20799.17
866.86	20868.80
867.04	20913.86
867.21	20786.88
867.38	20543.17
867.56	20704.96
867.73	20549.32
867.91	20412.10
868.08	19975.89
868.25	20455.11
868.43	20334.28
868.60	20270.79
868.78	20430.54
868.95	20354.76
869.12	20385.48
869.30	20125.39
869.47	20424.39
869.64	20170.44
869.82	20223.69
869.99	19994.32
870.16	19979.98
870.34	20020.94
870.51	20274.89
870.69	19656.40
870.86	20162.25
871.03	19873.49
871.21	19832.53
871.38	19922.64
871.55	19908.30
871.73	19701.46
871.90	19599.06
872.07	19513.05
872.25	19343.06
872.42	19508.95
872.59	19740.37
872.77	19676.88
872.94	19449.56
873.11	19455.70
873.29	19293.91
873.46	19291.87
873.63	19205.85
873.81	19164.89
873.98	19164.89
874.15	19177.18
874.33	18800.35
874.50	19187.42
874.67	18876.13
874.85	18708.19
875.02	18865.89
875.19	18564.84
875.37	18650.85
875.54	18591.46
875.71	18730.72
875.88	18501.35
876.06	18941.66
876.23	18468.58
876.40	18527.97
876.58	18372.33
876.75	18394.86
876.92	18239.21
877.10	18638.56
877.27	18376.42
877.44	18228.97
877.61	18210.54
877.79	18112.24
877.96	18274.03
878.13	18333.42
878.31	17960.69
878.48	17784.56
878.65	17964.78
878.82	18218.73
879.00	17979.12
879.17	17964.78
879.34	17972.97
879.51	17678.07
879.69	17757.94
879.86	17688.31
880.03	17782.51
880.21	17723.12
880.38	17686.26
880.55	17608.44
880.72	17549.04
880.90	17639.15
881.07	17596.15
881.24	17465.08
881.41	18001.65
881.59	17329.91
881.76	17325.82
881.93	17737.46
882.10	17157.88
882.28	17317.62
882.45	17454.84
882.62	17041.15
882.79	17317.62
882.96	17182.46
883.14	17342.20
883.31	17288.95
883.48	17311.48
883.65	17313.53
883.83	17096.44
884.00	17139.45
884.17	17055.48
884.34	17129.21
884.51	16893.69
884.69	16942.85
884.86	16955.13
885.03	16895.74
885.20	16891.65
885.38	16916.22
885.55	16748.29
885.72	17049.34
885.89	16629.51
886.06	16799.49
886.24	16774.91
886.41	16619.27
886.58	16805.63
886.75	16830.21
886.92	16578.31
887.10	16912.13
887.27	16697.09
887.44	16578.31
887.61	16611.07
887.78	16809.73
887.95	16905.98
888.13	16625.41
888.30	16449.28
888.47	16439.05
888.64	16219.91
888.81	16572.16
888.99	16217.86
889.16	16166.67
889.33	16316.17
889.50	16113.42
889.67	16199.43
889.84	16074.51
890.01	16242.44
890.19	15947.53
890.36	16019.21
890.53	16187.14
890.70	15879.95
890.87	15898.38
891.04	15742.74
891.22	15836.94
891.39	15828.75
891.56	15857.42
891.73	15597.33
891.90	15714.06
892.07	15875.85
892.24	15779.60
892.42	15644.43
892.59	15738.64
892.76	15757.07
892.93	15468.31
893.10	15720.21
893.27	15472.40
893.44	15318.81
893.61	15544.08
893.79	15648.53
893.96	15324.95
894.13	15775.50
894.30	15400.72
894.47	15429.40
894.64	15601.43
894.81	15451.92
894.98	15585.04
895.15	15470.36
895.33	15329.05
895.50	15251.22
895.67	15494.93
895.84	15470.36
896.01	15240.98
896.18	14933.79
896.35	15611.67
896.52	15349.53
896.69	15175.45
896.86	15464.21
897.04	15456.02
897.21	15521.56
897.38	14966.56
897.55	15445.78
897.72	15359.77
897.89	15101.72
898.06	15312.66
898.23	15296.28
898.40	15175.45
898.57	15191.83
898.74	15294.23
898.91	15114.01
899.08	15062.81
899.26	15281.94
899.43	15314.71
899.60	15107.87
899.77	15200.02
899.94	14964.51
900.11	15277.85
900.28	15296.28
900.45	15099.67
900.62	15163.16
900.79	15410.96
900.96	15048.47
901.13	15142.68
901.30	15165.21
901.47	15105.82
901.64	15163.16
901.81	15341.33
901.98	14989.08
902.15	15116.06
902.32	14874.40
902.49	15075.10
902.66	15193.88
902.83	14913.31
903.01	15134.49
903.18	15148.82
903.35	15208.22
903.52	14878.49
903.69	15212.31
903.86	14997.28
904.03	15101.72
904.20	14964.51
904.37	14796.57
904.54	15066.91
904.71	15120.15
904.88	14901.02
905.05	15066.91
905.22	15124.25
905.39	14694.18
905.56	14927.64
905.73	14970.65
905.90	15157.02
906.07	15058.71
906.24	14974.75
906.41	14954.27
906.58	14923.55
906.75	14913.31
906.92	14794.53
907.09	14784.29
907.26	14858.01
907.43	14665.50
907.60	14833.44
907.77	15048.47
907.93	14956.32
908.10	14976.80
908.27	15159.06
908.44	14685.98
908.61	14790.43
908.78	14999.32
908.95	14892.83
909.12	14780.19
909.29	14679.84
909.46	14565.15
909.63	14796.57
909.80	14690.08
909.97	14901.02
910.14	14536.48
910.31	14733.09
910.48	14765.85
910.65	14841.63
910.82	14575.39
910.99	14690.08
911.16	14665.50
911.33	14688.03
911.50	14542.63
911.66	14391.08
911.83	14921.50
912.00	14446.37
912.17	14235.43
912.34	14329.64
912.51	14448.42
912.68	14438.18
912.85	14448.42
913.02	14384.93
913.19	14208.81
913.36	14468.90
913.53	14634.78
913.70	14303.01
913.86	14391.08
914.03	14151.46
914.20	14210.86
914.37	14094.12
914.54	13971.24
914.71	14055.21
914.88	13940.52
915.05	13905.71
915.22	14165.80
915.39	13975.34
915.55	13973.29
915.72	13995.82
915.89	13924.14
916.06	13782.83
916.23	13680.43
916.40	13692.72
916.57	13514.55
916.74	13553.46
916.91	13387.57
917.07	13360.95
917.24	13479.73
917.41	13532.98
917.58	13322.04
917.75	13520.69
917.92	13399.86
918.09	13557.55
918.26	13444.91
918.42	13440.82
918.59	13457.20
918.76	13166.39
918.93	13084.47
919.10	13219.64
919.27	13119.29
919.44	13268.79
919.60	12959.55
919.77	13113.14
919.94	13016.89
920.11	12965.69
920.28	13033.27
920.45	13045.56
920.61	12855.10
920.78	12592.96
920.95	12930.87
921.12	12689.21
921.29	12478.27
921.46	12535.62
921.62	12382.02
921.79	12742.46
921.96	12562.24
922.13	12513.09
922.30	12488.51
922.47	12271.43
922.63	12226.37
922.80	12162.89
922.97	11956.04
923.14	11972.43
923.31	12212.04
923.47	12003.14
923.64	12386.12
923.81	11994.95
923.98	11827.02
924.15	11935.56
924.32	11851.60
924.48	11796.30
924.65	11958.09
924.82	11718.48
924.99	11575.12
925.15	11630.41
925.32	11913.03
925.49	11587.41
925.66	11460.43
925.83	11296.60
925.99	11478.86
926.16	11435.86
926.33	11446.10
926.50	11194.20
926.67	11364.18
926.83	11239.25
927.00	11212.63
927.17	11052.89
927.34	11392.85
927.50	11179.86
927.67	11099.99
927.84	10897.24
928.01	11044.70
928.17	10868.57
928.34	11081.56
928.51	10743.64
928.68	10696.54
928.84	10856.28
929.01	10561.37
929.18	10381.15
929.35	10475.36
929.51	10409.83
929.68	10415.97
929.85	10430.30
930.02	10536.80
930.18	10446.69
930.35	10256.23
930.52	10313.57
930.69	10411.87
930.85	10346.34
931.02	9963.37
931.19	10276.71
931.36	10002.28
931.52	9985.90
931.69	9963.37
931.86	9856.87
932.02	9809.77
932.19	9779.05
932.36	9848.68
932.53	9635.69
932.69	9660.27
932.86	9717.61
933.03	9734.00
933.19	9457.52
933.36	9568.11
933.53	9455.47
933.70	9467.76
933.86	9467.76
934.03	9219.96
934.20	9250.67
934.36	9310.07
934.53	9121.65
934.70	8941.43
934.86	8996.73
935.03	9181.04
935.20	8732.54
935.36	8834.94
935.53	8695.68
935.70	8841.08
935.86	8808.31
936.03	8359.81
936.20	8531.84
936.36	8429.44
936.53	8421.25
936.70	8437.63
936.86	8320.90
937.03	8236.93
937.20	7993.22
937.36	8249.22
937.53	7845.77
937.70	7712.65
937.86	7808.90
938.03	7716.75
938.20	7772.04
938.36	7561.10
938.53	7511.95
938.70	7397.26
938.86	7327.63
939.03	7339.92
939.20	7258.00
939.36	7045.01
939.53	7079.83
939.70	7131.03
939.86	6844.31
940.03	6840.22
940.19	6580.12
940.36	6721.43
940.53	6637.47
940.69	6590.36
940.86	6475.68
941.03	6393.76
941.19	6252.45
941.36	6301.60
941.52	6229.92
941.69	6180.77
941.86	6135.71
942.02	6066.08
942.19	6066.08
942.35	5969.83
942.52	5949.35
942.69	6021.03
942.85	5814.18
943.02	5808.04
943.18	5803.94
943.35	5818.28
943.52	5633.96
943.68	5488.56
943.85	5586.86
944.01	5447.60
944.18	5287.86
944.35	5574.57
944.51	5431.21
944.68	5343.15
944.84	5345.20
945.01	5277.62
945.17	5380.01
945.34	5513.13
945.51	5248.94
945.67	5363.63
945.84	5492.65
946.00	5291.95
946.17	5228.46
946.33	5210.03
946.50	5283.76
946.67	5238.70
946.83	5320.62
947.00	5289.90
947.16	5283.76
947.33	5091.25
947.49	5212.08
947.66	5124.02
947.82	5314.48
947.99	5070.77
948.16	5279.66
948.32	5097.39
948.49	5246.90
948.65	5328.81
948.82	5154.74
948.98	5167.03
949.15	5029.81
949.31	5156.79
949.48	5148.59
949.64	5289.90
949.81	5207.98
949.97	5265.33
950.14	5228.46
950.30	5087.15
950.47	5226.42
950.63	5199.79
950.80	5300.14
950.96	5238.70
951.13	5232.56
951.30	5226.42
951.46	5269.42
951.63	5275.57
951.79	5296.05
951.96	5377.97
952.12	5300.14
952.29	5306.29
952.45	5115.83
952.62	5263.28
952.78	5269.42
952.94	5308.34
953.11	5420.97
953.27	5169.07
953.44	5392.30
953.60	5326.77
953.77	5435.31
953.93	5435.31
954.10	5169.07
954.26	5461.93
954.43	5152.69
954.59	5466.03
954.76	5533.61
954.92	5330.86
955.09	5316.53
955.25	5455.79
955.42	5367.73
955.58	5484.46
955.75	5457.84
955.91	5476.27
956.07	5351.34
956.24	5371.82
956.40	5431.21
956.57	5406.64
956.73	5330.86
956.90	5455.79
957.06	5439.40
957.23	5320.62
957.39	5263.28
957.56	5355.44
957.72	5279.66
957.88	5205.94
958.05	5447.60
958.21	5439.40
958.38	5404.59
958.54	5386.16
958.71	5373.87
958.87	5529.52
959.03	5373.87
959.20	5420.97
959.36	5279.66
959.53	5324.72
959.69	5449.64
959.85	5375.92
960.02	5300.14
960.18	5382.06
960.35	5277.62
960.51	5312.43
960.68	5394.35
960.84	5248.94
961.00	5394.35
961.17	5416.88
961.33	5234.61
961.50	5312.43
961.66	5287.86
961.82	5259.18
961.99	5267.38
962.15	5281.71
962.31	5330.86
962.48	5287.86
962.64	5173.17
962.81	5195.70
962.97	5273.52
963.13	5474.22
963.30	5367.73
963.46	5259.18
963.62	5234.61
963.79	5230.51
963.95	5312.43
964.12	5314.48
964.28	5136.31
964.44	5384.11
964.61	5259.18
964.77	5267.38
964.93	5291.95
965.10	5265.33
965.26	5330.86
965.42	5154.74
965.59	5283.76
965.75	5177.26
965.92	5250.99
966.08	5171.12
966.24	5173.17
966.41	5230.51
966.57	5263.28
966.73	5240.75
966.90	5242.80
967.06	4990.90
967.22	5150.64
967.39	5074.87
967.55	5066.67
967.71	5261.23
967.88	5214.13
968.04	5171.12
968.20	5058.48
968.37	4999.09
968.53	4896.69
968.69	5167.03
968.85	5046.20
969.02	5062.58
969.18	4982.71
969.34	5121.97
969.51	5142.45
969.67	5173.17
969.83	4939.70
970.00	5320.62
970.16	5058.48
970.32	5038.00
970.48	5144.50
970.65	4923.32
970.81	5003.19
970.97	5038.00
971.14	4874.17
971.30	5019.57
971.46	4847.54
971.63	4902.84
971.79	5062.58
971.95	4863.93
972.11	4874.17
972.28	4853.69
972.44	4929.46
972.60	4812.73
972.76	4947.89
972.93	4911.03
973.09	4892.60
973.25	4800.44
973.42	4878.26
973.58	4919.22
973.74	4841.40
973.90	4761.53
974.07	4851.64
974.23	4714.42
974.39	4804.53
974.55	4599.74
974.72	4827.06
974.88	4685.75
975.04	4693.94
975.20	4642.75
975.37	4702.14
975.53	4732.86
975.69	4775.86
975.85	4732.86
976.01	4669.37
976.18	4661.18
976.34	4673.46
976.50	4747.19
976.66	4839.35
976.83	4593.59
976.99	4626.36
977.15	4585.40
977.31	4454.33
977.47	4788.15
977.64	4466.62
977.80	4493.24
977.96	4605.88
978.12	4505.53
978.29	4612.03
978.45	4532.15
978.61	4507.58
978.77	4632.51
978.93	4575.16
979.10	4497.34
979.26	4501.44
979.42	4485.05
979.58	4401.08
979.74	4435.90
979.91	4497.34
980.07	4390.84
980.23	4347.84
980.39	4394.94
980.55	4491.20
980.71	4356.03
980.88	4491.20
981.04	4376.51
981.20	4290.49
981.36	4523.96
981.52	4341.69
981.68	4214.72
981.85	4347.84
982.01	4251.58
982.17	4360.13
982.33	4315.07
982.49	4335.55
982.65	4306.88
982.82	4310.97
982.98	4280.25
983.14	4206.53
983.30	4229.06
983.46	4253.63
983.62	4227.01
983.79	4181.95
983.95	4165.57
984.11	4171.71
984.27	4208.58
984.43	4110.27
984.59	4265.92
984.75	4335.55
984.91	4136.90
985.08	4140.99
985.24	4071.36
985.40	4016.07
985.56	4093.89
985.72	4140.99
985.88	4075.46
986.04	4108.23
986.20	3936.20
986.37	4138.94
986.53	3954.63
986.69	3973.06
986.85	3891.14
987.01	4007.87
987.17	3997.64
987.33	4036.55
987.49	4046.79
987.65	3979.20
987.82	3909.57
987.98	3860.42
988.14	4024.26
988.30	3803.08
988.46	3897.28
988.62	3966.92
988.78	3887.04
988.94	3891.14
989.10	3790.79
989.26	3895.24
989.42	3930.05
989.59	3772.36
989.75	3868.61
989.91	3811.27
990.07	3715.02
990.23	3764.17
990.39	3850.18
990.55	3848.13
990.71	3692.49
990.87	3762.12
991.03	3782.60
991.19	3760.07
991.35	3659.72
991.51	3727.30
991.67	3792.84
991.83	3790.79
992.00	3696.58
992.16	3725.26
992.32	3592.14
992.48	3850.18
992.64	3583.95
992.80	3631.05
992.96	3651.53
993.12	3618.76
993.28	3667.91
993.44	3682.25
993.60	3526.60
993.76	3680.20
993.92	3712.97
994.08	3672.01
994.24	3616.71
994.40	3545.03
994.56	3645.38
994.72	3590.09
994.88	3534.79
995.04	3624.90
995.20	3538.89
995.36	3471.31
995.52	3512.27
995.68	3510.22
995.84	3479.50
996.00	3606.47
996.16	3534.79
996.32	3360.72
996.48	3424.20
996.64	3565.51
996.80	3416.01
996.96	3450.83
997.12	3493.83
997.28	3317.71
997.44	3272.65
997.60	3370.96
997.76	3311.57
997.92	3432.40
998.08	3442.64
998.24	3223.50
998.40	3362.76
998.56	3231.69
998.72	3336.14
998.88	3446.73
999.04	3330.00
999.20	3354.57
999.36	3219.41
999.52	3393.48
999.68	3330.00
999.84	3313.61
1000.00	3340.24
1000.16	3286.99
1000.32	3194.83
1000.48	3350.48
1000.64	3153.87
1000.80	3129.30
1000.95	3074.00
1001.11	3352.52
1001.27	3110.86
1001.43	3252.17
1001.59	3108.82
1001.75	3229.65
1001.91	3203.02
1002.07	3098.58
1002.23	3176.40
1002.39	3135.44
1002.55	3289.04
1002.71	3067.86
1002.87	3143.63
1003.03	3037.14
1003.19	3112.91
1003.34	3176.40
1003.50	3137.49
1003.66	3182.54
1003.82	3166.16
1003.98	3057.62
1004.14	3098.58
1004.30	3080.14
1004.46	2949.08
1004.62	3028.95
1004.78	3010.51
1004.94	3092.43
1005.09	3121.10
1005.25	3074.00
1005.41	3049.43
1005.57	2940.88
1005.73	2949.08
1005.89	2930.64
1006.05	2947.03
1006.21	2918.36
1006.37	2815.96
1006.52	2799.57
1006.68	2799.57
1006.84	3049.43
1007.00	2889.68
1007.16	2924.50
1007.32	2863.06
1007.48	2901.97
1007.64	2897.88
1007.79	2822.10
1007.95	2811.86
1008.11	2953.17
1008.27	2901.97
1008.43	2942.93
1008.59	2879.44
1008.75	2910.16
1008.91	2883.54
1009.06	2824.15
1009.22	2805.72
1009.38	2815.96
1009.54	2701.27
1009.70	2768.85
1009.86	2863.06
1010.01	2799.57
1010.17	2688.98
1010.33	2799.57
1010.49	2852.82
1010.65	2967.51
1010.81	2727.89
1010.96	2740.18
1011.12	2703.32
1011.28	2752.47
1011.44	2736.09
1011.60	2639.83
1011.76	2760.66
1011.91	2754.52
1012.07	2668.50
1012.23	2709.46
1012.39	2629.59
1012.55	2766.81
1012.71	2619.35
1012.86	2594.78
1013.02	2650.07
1013.18	2590.68
1013.34	2590.68
1013.50	2621.40
1013.65	2705.37
1013.81	2535.39
1013.97	2555.86
1014.13	2656.22
1014.29	2594.78
1014.44	2680.79
1014.60	2658.26
1014.76	2576.34
1014.92	2652.12
1015.07	2582.49
1015.23	2488.28
1015.39	2543.58
1015.55	2502.62
1015.71	2539.48
1015.86	2521.05
1016.02	2502.62
1016.18	2492.38
1016.34	2533.34
1016.49	2490.33
1016.65	2592.73
1016.81	2531.29
1016.97	2449.37
1017.12	2564.06
1017.28	2385.88
1017.44	2437.08
1017.60	2381.79
1017.75	2426.84
1017.91	2432.99
1018.07	2463.71
1018.23	2527.19
1018.38	2557.91
1018.54	2414.56
1018.70	2453.47
1018.86	2439.13
1019.01	2379.74
1019.17	2394.08
1019.33	2510.81
1019.49	2435.03
1019.64	2443.23
1019.80	2396.12
1019.96	2410.46
1020.12	2408.41
1020.27	2295.77
1020.43	2383.84
1020.59	2383.84
1020.74	2396.12
1020.90	2363.36
1021.06	2426.84
1021.22	2385.88
1021.37	2289.63
1021.53	2215.90
1021.69	2406.36
1021.84	2226.14
1022.00	2263.01
1022.16	2295.77
1022.31	2301.92
1022.47	2377.69
1022.63	2443.23
1022.79	2183.13
1022.94	2256.86
1023.10	2346.97
1023.26	2269.15
1023.41	2240.48
1023.57	2287.58
1023.73	2338.78
1023.88	2328.54
1024.04	2263.01
1024.20	2258.91
1024.35	2306.01
1024.51	2293.72
1024.67	2244.57
1024.82	2320.35
1024.98	2156.51
1025.14	2301.92
1025.29	2174.94
1025.45	2213.85
1025.61	2086.88
1025.76	2224.09
1025.92	2170.85
1026.08	2232.29
1026.23	2181.09
1026.39	2246.62
1026.55	2140.13
1026.70	2144.22
1026.86	2166.75
1027.02	2166.75
1027.17	2136.03
1027.33	2136.03
1027.48	2019.30
1027.64	2203.61
1027.80	2138.08
1027.95	2113.50
1028.11	2109.41
1028.27	2199.52
1028.42	2224.09
1028.58	2090.98
1028.73	2176.99
1028.89	2035.68
1029.05	2121.70
1029.20	2105.31
>>>>>End Processed Spectral Data<<<<<
