SpectraSuite Data File
++++++++++++++++++++++++++++++++++++
Date: Fri Jun 02 14:57:17 CEST 2017
User: INFO_000
Dark Spectrum Present: No
Reference Spectrum Present: No
Number of Sampled Component Spectra: 1
Spectrometers: USB4H00879
Integration Time (usec): 80000 (USB4H00879)
Spectra Averaged: 1 (USB4H00879)
Boxcar Smoothing: 0 (USB4H00879)
Correct for Electrical Dark: No (USB4H00879)
Strobe/Lamp Enabled: No (USB4H00879)
Correct for Detector Non-linearity: No (USB4H00879)
Correct for Stray Light: No (USB4H00879)
Number of Pixels in Processed Spectrum: 3648
>>>>>Begin Processed Spectral Data<<<<<
345.13	1267.69
345.34	1267.69
345.56	1267.69
345.78	1294.32
345.99	1257.45
346.21	1681.38
346.42	1701.86
346.64	1691.62
346.86	1822.69
347.07	1634.28
347.29	1765.35
347.50	1597.42
347.72	1638.38
347.94	1761.25
348.15	1556.46
348.37	1601.51
348.59	1636.33
348.80	1720.29
349.02	1742.82
349.23	1855.46
349.45	1847.27
349.67	1865.70
349.88	1796.07
350.10	1986.53
350.31	1892.32
350.53	1869.80
350.75	1990.63
350.96	1794.02
351.18	1853.41
351.39	1818.60
351.61	1830.88
351.82	1855.46
352.04	1914.85
352.26	1912.80
352.47	1837.03
352.69	1896.42
352.90	1703.91
353.12	1851.36
353.34	1804.26
353.55	1953.76
353.77	1902.56
353.98	1851.36
354.20	1871.84
354.41	1912.80
354.63	1898.47
354.85	2039.78
355.06	1873.89
355.28	1804.26
355.49	1976.29
355.71	1865.70
355.92	1908.71
356.14	1937.38
356.35	1880.04
356.57	1804.26
356.79	1875.94
357.00	1896.42
357.22	1953.76
357.43	1865.70
357.65	1959.91
357.86	1886.18
358.08	1953.76
358.29	1908.71
358.51	1996.77
358.72	2019.30
358.94	1904.61
359.16	1941.47
359.37	2004.96
359.59	1976.29
359.80	2043.87
360.02	1968.10
360.23	1951.71
360.45	2027.49
360.66	2027.49
360.88	1908.71
361.09	1859.56
361.31	1918.95
361.52	1978.34
361.74	2041.82
361.95	2054.11
362.17	1953.76
362.38	2043.87
362.60	2037.73
362.81	1990.63
363.03	1832.93
363.24	2017.25
363.46	2031.58
363.67	2074.59
363.89	2021.35
364.10	1986.53
364.32	1933.28
364.53	2072.54
364.75	1953.76
364.96	2015.20
365.18	2029.54
365.39	2035.68
365.61	1980.39
365.82	2144.22
366.04	1990.63
366.25	1929.19
366.47	1996.77
366.68	2074.59
366.90	1937.38
367.11	2052.06
367.33	2060.26
367.54	2093.02
367.76	1933.28
367.97	2107.36
368.19	2035.68
368.40	2029.54
368.62	1904.61
368.83	2099.17
369.05	2015.20
369.26	2060.26
369.48	1998.82
369.69	2084.83
369.91	2062.30
370.12	2090.98
370.33	2097.12
370.55	1951.71
370.76	2033.63
370.98	2082.78
371.19	2097.12
371.41	1970.15
371.62	2054.11
371.84	1961.95
372.05	2152.42
372.27	2045.92
372.48	2090.98
372.69	2080.74
372.91	2117.60
373.12	2154.46
373.34	2041.82
373.55	2160.61
373.77	2207.71
373.98	2117.60
374.20	2183.13
374.41	2156.51
374.62	2142.18
374.84	2183.13
375.05	2222.05
375.27	2136.03
375.48	2154.46
375.70	2203.61
375.91	2265.05
376.12	2260.96
376.34	2185.18
376.55	2220.00
376.77	2209.76
376.98	2068.45
377.19	2119.65
377.41	2148.32
377.62	2121.70
377.84	2301.92
378.05	2355.16
378.27	2152.42
378.48	2342.88
378.69	2412.51
378.91	2312.16
379.12	2318.30
379.34	2209.76
379.55	2232.29
379.76	2269.15
379.98	2293.72
380.19	2299.87
380.41	2283.49
380.62	2295.77
380.83	2273.25
381.05	2230.24
381.26	2408.41
381.47	2238.43
381.69	2240.48
381.90	2498.52
382.12	2220.00
382.33	2314.20
382.54	2363.36
382.76	2334.68
382.97	2361.31
383.19	2322.40
383.40	2332.64
383.61	2330.59
383.83	2349.02
384.04	2367.45
384.25	2410.46
384.47	2371.55
384.68	2428.89
384.89	2336.73
385.11	2414.56
385.32	2328.54
385.54	2369.50
385.75	2332.64
385.96	2418.65
386.18	2473.95
386.39	2428.89
386.60	2361.31
386.82	2398.17
387.03	2396.12
387.24	2453.47
387.46	2557.91
387.67	2475.99
387.88	2498.52
388.10	2459.61
388.31	2447.32
388.52	2643.93
388.74	2475.99
388.95	2557.91
389.16	2580.44
389.38	2502.62
389.59	2633.69
389.80	2564.06
390.02	2557.91
390.23	2619.35
390.44	2549.72
390.66	2531.29
390.87	2531.29
391.08	2627.54
391.30	2664.41
391.51	2547.67
391.72	2641.88
391.94	2635.74
392.15	2510.81
392.36	2658.26
392.58	2615.26
392.79	2639.83
393.00	2768.85
393.22	2695.13
393.43	2666.46
393.64	2801.62
393.85	2727.89
394.07	2627.54
394.28	2738.13
394.49	2754.52
394.71	2772.95
394.92	2830.29
395.13	2744.28
395.35	2674.65
395.56	2705.37
395.77	2781.14
395.98	2887.64
396.20	2869.20
396.41	2791.38
396.62	2875.35
396.84	2897.88
397.05	2834.39
397.26	2873.30
397.47	2944.98
397.69	2912.21
397.90	2955.22
398.11	2861.01
398.32	2815.96
398.54	2875.35
398.75	2887.64
398.96	2891.73
399.18	3141.58
399.39	2959.31
399.60	2877.40
399.81	2987.99
400.03	2936.79
400.24	3213.26
400.45	2967.51
400.66	3063.76
400.88	2996.18
401.09	3190.74
401.30	3164.11
401.51	3174.35
401.73	3164.11
401.94	3108.82
402.15	3024.85
402.36	3100.62
402.58	3176.40
402.79	3164.11
403.00	3108.82
403.21	3301.33
403.43	3246.03
403.64	3239.89
403.85	3051.47
404.06	3297.23
404.27	3205.07
404.49	3235.79
404.70	3086.29
404.91	3313.61
405.12	3286.99
405.34	3190.74
405.55	3514.31
405.76	3192.78
405.97	3182.54
406.19	3385.29
406.40	3233.74
406.61	3411.92
406.82	3352.52
407.03	3330.00
407.25	3342.28
407.46	3510.22
407.67	3385.29
407.88	3506.12
408.09	3411.92
408.31	3325.90
408.52	3440.59
408.73	3370.96
408.94	3317.71
409.15	3411.92
409.37	3575.75
409.58	3459.02
409.79	3495.88
410.00	3567.56
410.21	3471.31
410.43	3489.74
410.64	3413.96
410.85	3555.27
411.06	3438.54
411.27	3676.10
411.48	3788.74
411.70	3583.95
411.91	3608.52
412.12	3706.82
412.33	3661.77
412.54	3672.01
412.76	3811.27
412.97	3737.54
413.18	3645.38
413.39	3680.20
413.60	3698.63
413.81	3645.38
414.03	3624.90
414.24	3745.73
414.45	3862.47
414.66	3608.52
414.87	3768.26
415.08	3700.68
415.30	3788.74
415.51	3721.16
415.72	3686.34
415.93	3866.56
416.14	3846.09
416.35	3907.52
416.56	3907.52
416.78	3874.76
416.99	3874.76
417.20	3858.37
417.41	3981.25
417.62	3991.49
417.83	4001.73
418.04	3993.54
418.26	3934.15
418.47	3942.34
418.68	4173.76
418.89	4014.02
419.10	4231.10
419.31	3954.63
419.52	4120.51
419.73	4079.55
419.95	4227.01
420.16	3936.20
420.37	3977.16
420.58	4122.56
420.79	3794.89
421.00	4091.84
421.21	4245.44
421.42	4061.12
421.63	3999.68
421.85	4087.75
422.06	4302.78
422.27	4259.78
422.48	4222.91
422.69	4329.41
422.90	4198.34
423.11	4376.51
423.32	4257.73
423.53	4394.94
423.75	4302.78
423.96	4476.86
424.17	4403.13
424.38	4460.48
424.59	4493.24
424.80	4472.76
425.01	4530.11
425.22	4401.08
425.43	4356.03
425.64	4620.22
425.85	4579.26
426.06	4501.44
426.28	4534.20
426.49	4556.73
426.70	4440.00
426.91	4532.15
427.12	4724.66
427.33	4695.99
427.54	4636.60
427.75	4638.65
427.96	4818.87
428.17	4714.42
428.38	4822.97
428.59	4796.34
428.80	4605.88
429.01	4812.73
429.23	4884.41
429.44	4980.66
429.65	4974.52
429.86	4966.32
430.07	4829.11
430.28	4786.10
430.49	4935.60
430.70	5062.58
430.91	5074.87
431.12	4888.50
431.33	5068.72
431.54	5140.40
431.75	4986.80
431.96	5046.20
432.17	4919.22
432.38	5038.00
432.59	5205.94
432.80	5154.74
433.01	5314.48
433.22	5398.45
433.43	5265.33
433.64	5232.56
433.85	5105.59
434.06	5205.94
434.27	5253.04
434.49	5392.30
434.70	5398.45
434.91	5400.49
435.12	5525.42
435.33	5459.88
435.54	5400.49
435.75	5369.77
435.96	5504.94
436.17	5404.59
436.38	5478.32
436.59	5554.09
436.80	5423.02
437.01	5670.83
437.22	5697.45
437.43	5730.22
437.64	5511.08
437.85	5662.63
438.06	5767.08
438.27	5785.51
438.48	5646.25
438.69	5775.27
438.90	5713.83
439.11	5867.43
439.32	5699.50
439.53	5754.79
439.74	5914.53
439.95	5877.67
440.16	5900.20
440.37	5795.75
440.57	5762.98
440.78	5924.77
440.99	5842.85
441.20	5918.63
441.41	5873.57
441.62	5939.11
441.83	5812.14
442.04	5963.68
442.25	5978.02
442.46	5951.40
442.67	6023.08
442.88	6422.43
443.09	6051.75
443.30	6102.95
443.51	6287.26
443.72	6492.06
443.93	6152.10
444.14	6393.76
444.35	6229.92
444.56	6156.19
444.77	6365.09
444.98	6205.35
445.19	6391.71
445.40	6313.89
445.61	6217.63
445.81	6453.15
446.02	6592.41
446.23	6461.34
446.44	6291.36
446.65	6524.83
446.86	6578.08
447.07	6623.13
447.28	6690.71
447.49	6721.43
447.70	6473.63
447.91	6639.51
448.12	6668.19
448.33	6770.58
448.54	6746.01
448.74	6625.18
448.95	6930.33
449.16	6772.63
449.37	7014.29
449.58	6735.77
449.79	7149.46
450.00	6737.82
450.21	7004.05
450.42	7065.49
450.63	7202.71
450.84	7040.92
451.05	7200.66
451.25	6924.18
451.46	7106.45
451.67	7251.86
451.88	7278.48
452.09	7133.08
452.30	7272.34
452.51	7137.17
452.72	7358.35
452.93	7649.16
453.13	7305.10
453.34	7321.49
453.55	7511.95
453.76	7440.27
453.97	7686.03
454.18	7579.53
454.39	7694.22
454.60	7602.06
454.81	7591.82
455.01	7929.74
455.22	7507.85
455.43	7667.60
455.64	7925.64
455.85	8015.75
456.06	8157.06
456.27	8015.75
456.48	7843.72
456.68	8058.76
456.89	7866.25
457.10	8155.01
457.31	8114.05
457.52	8023.94
457.73	8269.70
457.94	8400.77
458.14	8007.56
458.35	8513.41
458.56	8327.04
458.77	8257.41
458.98	8642.43
459.19	8443.78
459.39	8628.09
459.60	8777.59
459.81	8406.91
460.02	8658.81
460.23	8402.82
460.44	8875.90
460.65	8765.31
460.85	8632.19
461.06	8955.77
461.27	8621.95
461.48	9086.84
461.69	9242.48
461.89	8683.39
462.10	9144.18
462.31	8990.58
462.52	8943.48
462.73	9111.41
462.94	9318.26
463.14	9248.63
463.35	9242.48
463.56	9459.57
463.77	9490.29
463.98	9283.44
464.18	9271.15
464.39	9631.60
464.60	9688.94
464.81	9734.00
465.02	9668.46
465.23	9916.26
465.43	9766.76
465.64	9969.51
465.85	9750.38
466.06	9625.45
466.27	9961.32
466.47	9975.66
466.68	10088.29
466.89	9875.31
467.10	10274.66
467.30	10030.95
467.51	10256.23
467.72	10577.76
467.93	10301.28
468.14	10428.26
468.34	10626.91
468.55	10600.29
468.76	10534.75
468.97	10671.97
469.17	10735.45
469.38	10717.02
469.59	10970.97
469.80	10659.68
470.01	10827.61
470.21	10987.35
470.42	10964.82
470.63	11087.70
470.84	11134.81
471.04	11206.48
471.25	11255.64
471.46	11292.50
471.67	11568.98
471.87	11319.12
472.08	11485.01
472.29	11716.43
472.50	11386.71
472.70	11556.69
472.91	11611.98
473.12	11786.06
473.33	11730.76
473.53	12117.83
473.74	11966.28
473.95	12312.39
474.16	12361.54
474.36	12263.24
474.57	12386.12
474.78	12414.79
474.99	12388.16
475.19	12304.20
475.40	12717.89
475.61	12635.97
475.81	12877.63
476.02	13147.96
476.23	12668.73
476.44	12941.11
476.64	13389.62
476.85	12941.11
477.06	13311.80
477.27	13516.59
477.47	13473.59
477.68	13410.10
477.89	13827.88
478.09	13715.25
478.30	13768.49
478.51	13858.60
478.71	14063.40
478.92	13983.53
479.13	14165.80
479.34	13981.48
479.54	14245.67
479.75	14296.87
479.96	14438.18
480.16	14313.25
480.37	14630.69
480.58	14671.65
480.78	14921.50
480.99	14958.36
481.20	14993.18
481.41	15181.59
481.61	15374.10
481.82	15048.47
482.03	15281.94
482.23	15140.63
482.44	15894.29
482.65	15697.68
482.85	15877.90
483.06	15871.76
483.27	15888.14
483.47	15875.85
483.68	16189.19
483.89	16365.32
484.09	16039.69
484.30	16289.54
484.51	16568.07
484.71	16692.99
484.92	16414.47
485.13	16490.24
485.33	16801.54
485.54	16795.39
485.75	17239.80
485.95	17004.28
486.16	17200.89
486.37	17161.98
486.57	17170.17
486.78	17331.96
486.98	17422.07
487.19	17616.63
487.40	17727.22
487.60	17848.05
487.81	17903.34
488.02	18089.71
488.22	17753.84
488.43	18145.00
488.64	18296.55
488.84	18431.72
489.05	18482.92
489.25	18441.96
489.46	18808.54
489.67	18700.00
489.87	18814.69
490.08	18855.65
490.29	19107.55
490.49	19470.04
490.70	19105.50
490.90	19502.81
491.11	19390.17
491.32	19306.20
491.52	19586.77
491.73	19570.39
491.94	19859.15
492.14	19787.47
492.35	19906.26
492.55	20324.04
492.76	20100.81
492.97	20446.92
493.17	20266.70
493.38	20530.89
493.58	20876.99
493.79	20692.68
494.00	20590.28
494.20	20876.99
494.41	21161.66
494.61	21059.26
494.82	21268.16
495.02	21159.61
495.23	21184.19
495.44	21210.81
495.64	21579.45
495.85	21647.03
496.05	21968.56
496.26	21841.59
496.47	22167.21
496.67	21931.70
496.88	22245.04
497.08	21823.16
497.29	22341.29
497.49	22335.15
497.70	22498.98
497.91	22449.83
498.11	22711.97
498.32	22853.28
498.52	22623.91
498.73	22900.39
498.93	22888.10
499.14	23066.27
499.34	23174.81
499.55	23539.35
499.76	23160.48
499.96	23439.00
500.17	23078.56
500.37	23496.35
500.58	23506.59
500.78	23598.74
500.99	23836.31
501.19	23948.95
501.40	23889.56
501.60	23746.20
501.81	24182.42
502.02	24071.82
502.22	23955.09
502.43	24336.01
502.63	24444.56
502.84	24481.42
503.04	24563.34
503.25	24495.75
503.45	24637.06
503.66	24749.70
503.86	24661.64
504.07	24882.82
504.27	24721.03
504.48	25169.54
504.68	24974.98
504.89	25355.90
505.09	25165.44
505.30	25343.61
505.50	25398.91
505.71	25374.33
505.91	25695.86
506.12	25482.88
506.32	25847.41
506.53	25587.32
506.73	25982.58
506.94	26066.55
507.14	25448.06
507.35	25912.95
507.55	25929.33
507.76	26318.45
507.96	26138.23
508.17	26345.07
508.37	26328.69
508.58	26052.21
508.78	26730.09
508.99	26564.20
509.19	26588.78
509.40	26762.86
509.60	26738.28
509.81	26893.93
510.01	26930.79
510.22	26736.23
510.42	26826.34
510.63	27328.10
510.83	26914.41
511.04	26984.04
511.24	27129.44
511.44	26979.94
511.65	27111.01
511.85	27031.14
512.06	27094.63
512.26	27348.57
512.47	27524.70
512.67	27653.72
512.88	27668.06
513.08	27698.78
513.29	27844.18
513.49	27493.98
513.69	27766.36
513.90	27637.34
514.10	27967.06
514.31	28069.46
514.51	27944.53
514.72	27844.18
514.92	27987.54
515.13	28010.07
515.33	28134.99
515.53	27987.54
515.74	28251.73
515.94	28388.94
516.15	28399.18
516.35	28077.65
516.56	28456.53
516.76	28431.95
516.96	28425.81
517.17	28819.02
517.37	28673.61
517.58	28603.98
517.78	28866.12
517.99	28935.75
518.19	28857.93
518.39	29126.21
518.60	29087.30
518.80	28999.24
519.01	29077.06
519.21	29234.75
519.41	29249.09
519.62	28761.67
519.82	29216.32
520.03	29208.13
520.23	29369.92
520.43	29523.52
520.64	29548.09
520.84	29687.36
521.05	30092.85
521.25	29898.30
521.45	29945.40
521.66	29888.06
521.86	30068.28
522.07	30094.90
522.27	29990.45
522.47	29916.73
522.68	30645.80
522.88	30240.31
523.08	30295.60
523.29	30301.75
523.49	29847.10
523.70	30412.34
523.90	30477.87
524.10	30545.45
524.31	30606.89
524.51	30287.41
524.71	31249.96
524.92	30467.63
525.12	31077.93
525.33	31012.39
525.53	31147.56
525.73	31342.11
525.94	31219.24
526.14	31387.17
526.34	31309.35
526.55	31508.00
526.75	31491.62
526.95	31727.13
527.16	31356.45
527.36	31467.04
527.56	31964.70
527.77	31798.81
527.97	32181.78
528.17	31972.89
528.38	32345.62
528.58	32167.45
528.78	32103.96
528.99	31970.84
529.19	32349.71
529.39	32534.03
529.60	32409.11
529.80	32579.09
530.00	32134.68
530.21	32708.11
530.41	32853.51
530.61	32572.94
530.82	32863.75
531.02	32886.28
531.22	33003.02
531.43	33000.97
531.63	33320.45
531.83	33365.51
532.04	33619.46
532.24	33252.87
532.44	33738.24
532.64	33799.68
532.85	33586.69
533.05	33558.02
533.25	33766.91
533.46	33787.39
533.66	34395.64
533.86	34110.97
534.07	34424.31
534.27	34323.96
534.47	34577.90
534.67	34643.44
534.88	34108.92
535.08	34573.81
535.28	34639.34
535.49	34995.69
535.69	34919.92
535.89	35014.12
536.09	34887.15
536.30	35116.52
536.50	35210.73
536.70	34854.38
536.91	35050.99
537.11	35368.42
537.31	35302.89
537.51	35507.68
537.72	36068.83
537.92	35728.86
538.12	36177.37
538.32	35419.62
538.53	35714.53
538.73	35618.27
538.93	35470.82
539.13	35882.46
539.34	35890.65
539.54	35948.00
539.74	36419.03
539.94	36314.58
540.15	36503.00
540.35	36500.95
540.55	36611.54
540.75	36883.92
540.96	36732.37
541.16	37006.80
541.36	36986.32
541.56	37150.15
541.77	37223.88
541.97	37139.91
542.17	37414.34
542.37	37426.63
542.58	37057.99
542.78	37262.79
542.98	37557.70
543.18	37338.57
543.38	37991.87
543.59	37500.36
543.79	37346.76
543.99	37559.75
544.19	37862.85
544.40	37635.52
544.60	38196.67
544.80	37821.89
545.00	37957.05
545.20	38165.95
545.41	38368.69
545.61	37967.29
545.81	38573.49
546.01	38499.76
546.21	38567.35
546.42	38374.84
546.62	38456.76
546.82	38403.51
547.02	38671.79
547.22	38622.64
547.43	38622.64
547.63	38651.31
547.83	38813.10
548.03	38682.03
548.23	39495.08
548.44	39237.03
548.64	39386.54
548.84	39198.12
549.04	39400.87
549.24	39331.24
549.45	39896.48
549.65	39646.63
549.85	39153.07
550.05	39937.44
550.25	39685.54
550.45	40478.10
550.66	40066.46
550.86	39751.07
551.06	39884.19
551.26	40082.84
551.46	40557.97
551.66	40385.94
551.87	40138.14
552.07	40656.28
552.27	40482.20
552.47	40277.40
552.67	40230.30
552.87	40672.66
553.07	40879.50
553.28	40670.61
553.48	40693.14
553.68	40785.30
553.88	40891.79
554.08	40813.97
554.28	40940.94
554.48	41039.25
554.69	41149.84
554.89	41321.87
555.09	41600.39
555.29	40994.19
555.49	41790.85
555.69	41487.75
555.89	41362.82
556.10	41817.47
556.30	41354.63
556.50	41674.12
556.70	41532.81
556.90	41518.47
557.10	41631.11
557.30	41848.19
557.50	41858.43
557.70	42171.77
557.91	42276.22
558.11	41901.44
558.31	42362.23
558.51	41876.86
558.71	42335.61
558.91	42292.60
559.11	42564.98
559.31	42057.09
559.51	42413.43
559.72	42558.84
559.92	42710.39
560.12	42607.99
560.32	42710.39
560.52	42378.62
560.72	43314.54
560.92	43183.47
561.12	43279.72
561.32	43396.46
561.52	43160.94
561.72	43269.48
561.93	43128.17
562.13	43275.63
562.33	42976.62
562.53	43365.74
562.73	43056.50
562.93	43228.52
563.13	43550.06
563.33	43505.00
563.53	43820.39
563.73	43203.95
563.93	43337.07
564.13	44258.65
564.33	43738.47
564.53	43728.23
564.74	43994.46
564.94	43959.65
565.14	44350.81
565.34	44006.75
565.54	44469.59
565.74	44111.20
565.94	44631.38
566.14	44178.78
566.34	44608.86
566.54	44944.72
566.74	43965.79
566.94	44451.16
567.14	44905.81
567.34	44143.97
567.54	45237.58
567.74	44643.67
567.94	44774.74
568.14	44637.53
568.34	44846.42
568.54	44735.83
568.74	44885.33
568.94	44789.08
569.14	45182.29
569.34	44946.77
569.54	45276.49
569.75	44746.07
569.95	45047.12
570.15	45782.34
570.35	45231.44
570.55	45335.88
570.75	45851.97
570.95	45575.50
571.15	45604.17
571.35	45487.43
571.55	45815.11
571.75	45612.36
571.95	46056.77
572.15	45907.27
572.35	46083.39
572.55	46243.13
572.75	46370.11
572.95	45860.16
573.15	46077.25
573.35	46132.54
573.55	46433.60
573.75	46312.77
573.95	46443.84
574.15	46048.58
574.35	46163.26
574.55	46486.84
574.75	46153.02
574.95	46824.76
575.15	46331.20
575.34	46396.73
575.54	46767.41
575.74	46808.37
575.94	46902.58
576.14	46675.26
576.34	47121.71
576.54	47064.37
576.74	47289.65
576.94	47088.95
577.14	47232.30
577.34	47449.39
577.54	47289.65
577.74	47498.54
577.94	47551.79
578.14	47330.61
578.34	47564.07
578.54	46558.52
578.74	47846.69
578.94	47822.12
579.14	47336.75
579.34	47613.23
579.54	47740.20
579.74	48506.14
579.94	47797.54
580.13	48260.38
580.33	48162.08
580.53	48094.50
580.73	48393.50
580.93	48436.51
581.13	48432.41
581.33	48682.27
581.53	48291.10
581.73	48297.25
581.93	48641.31
582.13	48237.86
582.33	48999.70
582.53	48608.54
582.73	48735.51
582.92	48715.03
583.12	48921.88
583.32	48710.94
583.52	48891.16
583.72	49173.78
583.92	48944.41
584.12	49061.14
584.32	49229.07
584.52	49153.30
584.72	49208.59
584.92	49198.35
585.11	49966.34
585.31	49521.93
585.51	49222.93
585.71	49341.71
585.91	49435.92
586.11	49569.04
586.31	49345.81
586.51	49333.52
586.71	49560.84
586.91	49972.49
587.10	49698.06
587.30	49872.14
587.50	49935.62
587.70	49804.55
587.90	50248.96
588.10	50093.32
588.30	49849.61
588.50	50599.16
588.69	50083.08
588.89	49753.35
589.09	50396.42
589.29	50119.94
589.49	49970.44
589.69	49863.94
589.89	50760.95
590.08	50007.30
590.28	50394.37
590.48	50312.45
590.68	50048.26
590.88	50283.78
591.08	50314.50
591.28	50398.46
591.47	50758.91
591.67	50681.08
591.87	50326.78
592.07	50599.16
592.27	50736.38
592.47	50865.40
592.67	50255.11
592.86	50281.73
593.06	50752.76
593.26	50810.10
593.46	50773.24
593.66	50564.35
593.86	51221.75
594.05	50738.43
594.25	51401.97
594.45	50595.07
594.65	51139.83
594.85	50814.20
595.05	51528.94
595.24	51090.68
595.44	50937.08
595.64	50873.59
595.84	51074.29
596.04	51514.61
596.23	51178.74
596.43	51508.46
596.63	51184.88
596.83	51551.47
597.03	51690.73
597.22	51621.10
597.42	51318.00
597.62	51653.87
597.82	51221.75
598.02	51498.22
598.21	51453.17
598.41	51361.01
598.61	51827.95
598.81	51539.18
599.01	51725.55
599.20	51567.85
599.40	51535.09
599.60	52034.79
599.80	52110.56
600.00	51817.71
600.19	51803.37
600.39	51838.18
600.59	51633.39
600.79	51961.06
600.98	51623.15
601.18	52917.46
601.38	52360.42
601.58	52085.99
601.78	52229.35
601.97	52174.05
602.17	52421.86
602.37	52425.95
602.57	52055.27
602.76	52477.15
602.96	52325.60
603.16	52563.17
603.36	52428.00
603.55	52587.74
603.75	52315.36
603.95	52526.30
604.15	52274.40
604.34	52172.00
604.54	52548.83
604.74	52589.79
604.94	52821.21
605.13	52686.04
605.33	52573.41
605.53	52671.71
605.73	53073.11
605.92	52675.80
606.12	52966.62
606.32	53265.62
606.52	53028.05
606.71	52903.13
606.91	53048.53
607.11	52939.99
607.30	52978.90
607.50	52935.90
607.70	52890.84
607.90	53023.96
608.09	53384.40
608.29	52761.82
608.49	53101.78
608.68	53077.21
608.88	53331.15
609.08	53275.86
609.28	53212.37
609.47	52966.62
609.67	54101.19
609.87	53322.96
610.06	53394.64
610.26	53419.22
610.46	53494.99
610.66	53134.55
610.85	53431.50
611.05	53247.19
611.25	53724.36
611.44	53302.48
611.64	52843.74
611.84	53427.41
612.03	53898.44
612.23	53744.84
612.43	53603.53
612.62	53486.80
612.82	53282.00
613.02	53454.03
613.21	53593.29
613.41	52991.19
613.61	53517.52
613.80	53198.04
614.00	53750.99
614.20	53535.95
614.39	53282.00
614.59	53357.78
614.79	53585.10
614.98	53406.93
615.18	53275.86
615.38	53617.87
615.57	53181.65
615.77	53339.35
615.97	53617.87
616.16	53599.44
616.36	53345.49
616.56	53671.12
616.75	53466.32
616.95	53576.91
617.15	53261.52
617.34	53482.70
617.54	53671.12
617.74	53976.26
617.93	53806.28
618.13	53028.05
618.32	53542.10
618.52	53363.92
618.72	53286.10
618.91	53656.78
619.11	53335.25
619.31	53279.96
619.50	53269.72
619.70	53322.96
619.90	53208.28
620.09	53554.38
620.29	53310.67
620.48	53327.06
620.68	53658.83
620.88	53077.21
621.07	52888.79
621.27	53632.21
621.46	52915.42
621.66	53128.41
621.86	53265.62
622.05	53769.42
622.25	53847.24
622.44	53056.73
622.64	53267.67
622.84	53296.34
623.03	53304.53
623.23	53028.05
623.42	53388.50
623.62	53138.65
623.82	53443.79
624.01	53494.99
624.21	53415.12
624.40	52864.22
624.60	53236.95
624.80	52909.27
624.99	53112.02
625.19	52866.27
625.38	53535.95
625.58	53167.32
625.77	53195.99
625.97	53454.03
626.17	53413.07
626.36	53423.31
626.56	53720.27
626.75	53519.57
626.95	53650.64
627.14	53232.85
627.34	53896.39
627.54	53071.06
627.73	53570.77
627.93	53572.81
628.12	53210.32
628.32	53419.22
628.51	53464.27
628.71	53286.10
628.90	53568.72
629.10	53644.49
629.30	53736.65
629.49	53650.64
629.69	53312.72
629.88	53656.78
630.08	53437.65
630.27	53990.60
630.47	53531.86
630.66	52927.70
630.86	54060.23
631.05	53163.22
631.25	53509.33
631.44	53617.87
631.64	53546.19
631.84	53867.72
632.03	53720.27
632.23	53585.10
632.42	53920.97
632.62	53634.25
632.81	53249.24
633.01	53880.01
633.20	54254.79
633.40	54035.66
633.59	54041.80
633.79	53400.79
633.98	53923.02
634.18	54146.25
634.37	53761.23
634.57	53705.93
634.76	54152.39
634.96	53884.11
635.15	54123.72
635.35	53875.91
635.54	53781.71
635.74	54441.15
635.93	54142.15
636.13	54394.05
636.32	54189.25
636.52	53963.98
636.71	53906.63
636.91	54179.01
637.10	54129.86
637.30	54248.64
637.49	54232.26
637.69	54506.69
637.88	54713.53
638.08	54023.37
638.27	54508.74
638.46	54291.65
638.66	54066.38
638.85	54084.81
639.05	54402.24
639.24	54729.92
639.44	54498.50
639.63	54568.13
639.83	54660.29
640.02	54588.61
640.22	54604.99
640.41	54731.96
640.61	54662.33
640.80	54463.68
640.99	54670.53
641.19	55004.34
641.38	54940.86
641.58	55000.25
641.77	54809.79
641.97	54860.99
642.16	54514.88
642.36	55618.74
642.55	55280.82
642.74	54527.17
642.94	55743.66
643.13	55002.30
643.33	55360.69
643.52	55207.09
643.72	55088.31
643.91	55301.30
644.10	55041.21
644.30	55405.75
644.49	55108.79
644.69	55403.70
644.88	55145.65
645.08	55037.11
645.27	55411.89
645.46	55518.38
645.66	55520.43
645.85	55424.18
646.05	55678.13
646.24	55719.09
646.43	55858.35
646.63	55923.88
646.82	55731.37
647.02	55747.76
647.21	55612.59
647.40	56030.38
647.60	55997.61
647.79	56202.41
647.99	55973.03
648.18	55841.96
648.37	56202.41
648.57	56315.04
648.76	55938.22
648.96	56077.48
649.15	56122.54
649.34	56429.73
649.54	56077.48
649.73	56030.38
649.92	56769.69
650.12	56609.95
650.31	56415.40
650.51	56677.54
650.70	56528.03
650.89	56536.23
651.09	56880.28
651.28	56360.10
651.47	56603.81
651.67	56485.03
651.86	57005.21
652.06	56132.78
652.25	56865.95
652.44	56427.68
652.64	56663.20
652.83	56704.16
653.02	56620.19
653.22	57201.82
653.41	56442.02
653.60	55948.46
653.80	56546.47
653.99	57257.11
654.18	56904.86
654.38	56786.08
654.57	57128.09
654.76	56865.95
654.96	56646.82
655.15	56855.71
655.34	56900.76
655.54	56835.23
655.73	57011.35
655.92	57097.37
656.12	57357.46
656.31	57095.32
656.50	57351.32
656.70	56947.87
656.89	56943.77
657.08	57472.15
657.28	57336.98
657.47	57308.31
657.66	57453.72
657.86	57005.21
658.05	57302.17
658.24	57332.89
658.43	57588.88
658.63	57791.63
658.82	57443.48
659.01	58012.81
659.21	57980.04
659.40	57898.12
659.59	57007.26
659.79	57822.35
659.98	57726.10
660.17	58217.61
660.36	57695.38
660.56	57693.33
660.75	58172.55
660.94	57463.96
661.14	57828.49
661.33	57728.14
661.52	57746.57
661.71	58406.02
661.91	57398.42
662.10	57666.70
662.29	58107.02
662.49	58037.39
662.68	58270.85
662.87	57947.28
663.06	57994.38
663.26	57701.52
663.45	58199.18
663.64	57701.52
663.83	58367.11
664.03	57865.36
664.22	57767.05
664.41	57955.47
664.60	57619.60
664.80	58014.86
664.99	58117.26
665.18	58096.78
665.37	58295.43
665.57	58406.02
665.76	58201.22
665.95	58043.53
666.14	57998.48
666.34	57836.69
666.53	57945.23
666.72	57863.31
666.91	58055.82
667.11	58150.02
667.30	58021.00
667.49	57980.04
667.68	58057.87
667.87	57746.57
668.07	57967.76
668.26	58223.75
668.45	58039.43
668.64	58299.53
668.84	58496.13
669.03	58023.05
669.22	58248.33
669.41	57924.75
669.60	58535.04
669.80	57896.08
669.99	58277.00
670.18	58053.77
670.37	58225.80
670.57	58651.78
670.76	58274.95
670.95	58389.64
671.14	58254.47
671.33	58039.43
671.53	58635.39
671.72	58604.67
671.91	58360.97
672.10	57746.57
672.29	58176.65
672.48	58344.58
672.68	58537.09
672.87	58045.58
673.06	58143.88
673.25	58238.09
673.44	57834.64
673.64	57894.03
673.83	58078.35
674.02	58006.67
674.21	57394.32
674.40	58285.19
674.59	58446.98
674.79	58090.63
674.98	58168.46
675.17	58057.87
675.36	57787.53
675.55	58004.62
675.74	58156.17
675.94	58209.42
676.13	57812.11
676.32	58078.35
676.51	58512.52
676.70	57785.49
676.89	58152.07
677.08	57978.00
677.28	57603.22
677.47	58387.59
677.66	58078.35
677.85	57910.41
678.04	57787.53
678.23	58295.43
678.42	58209.42
678.62	57808.01
678.81	58283.14
679.00	57717.90
679.19	58315.91
679.38	57742.48
679.57	57791.63
679.76	57998.48
679.96	58252.42
680.15	57795.73
680.34	58145.93
680.53	57781.39
680.72	57496.72
680.91	58029.19
681.10	58109.07
681.29	57423.00
681.48	57934.99
681.68	57349.27
681.87	57515.15
682.06	57603.22
682.25	57357.46
682.44	57564.31
682.63	57660.56
682.82	57246.87
683.01	57250.97
683.20	57091.22
683.39	57097.37
683.59	56999.07
683.78	57095.32
683.97	56915.10
684.16	57326.74
684.35	56988.83
684.54	57029.79
684.73	56679.58
684.92	57201.82
685.11	56652.96
685.30	56906.91
685.49	57425.04
685.69	57179.29
685.88	57099.42
686.07	56456.35
686.26	56331.43
686.45	57027.74
686.64	57177.24
686.83	56845.47
687.02	56986.78
687.21	56485.03
687.40	56820.89
687.59	56781.98
687.78	56876.19
687.97	56970.39
688.16	56788.13
688.35	56579.23
688.54	56186.02
688.74	56542.37
688.93	56167.59
689.12	56140.97
689.31	56628.38
689.50	56431.78
689.69	56026.28
689.88	55913.64
690.07	56679.58
690.26	56220.84
690.45	56390.82
690.64	56382.63
690.83	56097.96
691.02	56286.37
691.21	55844.01
691.40	56007.85
691.59	56173.73
691.78	55581.87
691.97	56040.62
692.16	55907.50
692.35	56042.66
692.54	56009.90
692.73	56046.76
692.92	55952.55
693.11	55966.89
693.30	55694.51
693.49	55547.06
693.68	55583.92
693.87	55747.76
694.06	55491.76
694.25	55569.58
694.44	55409.84
694.63	55506.10
694.82	55755.95
695.01	55397.55
695.20	55016.63
695.39	55358.64
695.58	55219.38
695.77	55033.02
695.96	54918.33
696.15	55041.21
696.34	54881.47
696.53	54944.95
696.72	55329.97
696.91	54957.24
697.10	54826.17
697.29	54842.56
697.48	55538.86
697.67	54846.65
697.86	54271.17
698.05	55108.79
698.24	55172.28
698.43	54043.85
698.62	54158.53
698.81	54164.68
699.00	54592.70
699.19	54148.29
699.38	54670.53
699.57	54584.51
699.76	55102.65
699.95	54160.58
700.14	53857.48
700.32	54662.33
700.51	53994.70
700.70	54404.29
700.89	54019.27
701.08	53900.49
701.27	53773.52
701.46	54461.63
701.65	53603.53
701.84	53826.76
702.03	53955.78
702.22	53703.88
702.41	53990.60
702.60	53875.91
702.79	53595.34
702.98	53243.09
703.17	53466.32
703.35	53613.77
703.54	53748.94
703.73	53908.68
703.92	53413.07
704.11	53466.32
704.30	53214.42
704.49	53243.09
704.68	52749.53
704.87	53486.80
705.06	52810.97
705.25	52901.08
705.43	52970.71
705.62	52913.37
705.81	53163.22
706.00	53013.72
706.19	52223.20
706.38	52917.46
706.57	52866.27
706.76	52384.99
706.95	52929.75
707.14	52561.12
707.32	52507.87
707.51	52282.59
707.70	52706.52
707.89	52806.87
708.08	52450.53
708.27	52296.93
708.46	52626.65
708.65	52362.46
708.84	52516.06
709.02	52530.40
709.21	52229.35
709.40	52321.51
709.59	52266.21
709.78	51952.87
709.97	52370.66
710.16	51864.81
710.34	51903.72
710.53	51926.25
710.72	51393.78
710.91	51866.86
711.10	51895.53
711.29	52253.92
711.48	51721.45
711.66	51952.87
711.85	51555.57
712.04	51602.67
712.23	51860.71
712.42	51297.52
712.61	51193.07
712.80	51143.92
712.98	51000.57
713.17	51090.68
713.36	51248.37
713.55	51453.17
713.74	51174.64
713.93	51410.16
714.11	51145.97
714.30	50836.73
714.49	50719.99
714.68	50904.31
714.87	50849.02
715.06	51057.91
715.24	50513.15
715.43	51039.48
715.62	50734.33
715.81	50644.22
716.00	50601.21
716.18	50595.07
716.37	50410.75
716.56	49997.06
716.75	51158.26
716.94	50537.72
717.12	50029.83
717.31	50828.54
717.50	50304.26
717.69	50144.51
717.88	50029.83
718.06	50148.61
718.25	50242.82
718.44	49929.48
718.63	49952.01
718.82	49620.23
719.00	49986.82
719.19	49851.66
719.38	49859.85
719.57	49128.72
719.76	49374.48
719.94	49734.92
720.13	49075.48
720.32	49167.63
720.51	49310.99
720.69	49571.08
720.88	49153.30
721.07	49220.88
721.26	48473.37
721.44	49124.63
721.63	48631.07
721.82	48682.27
722.01	48588.06
722.20	48823.58
722.38	48686.36
722.57	48315.68
722.76	48651.55
722.95	48213.28
723.13	48061.73
723.32	48327.97
723.51	48067.87
723.70	47750.44
723.88	48459.04
724.07	48100.64
724.26	48205.09
724.44	47486.25
724.63	48200.99
724.82	48031.01
725.01	47818.02
725.19	47871.27
725.38	47805.73
725.57	47529.26
725.76	48086.31
725.94	47609.13
726.13	47385.90
726.32	47242.54
726.51	47058.23
726.69	47883.56
726.88	47684.90
727.07	47521.07
727.25	47217.97
727.44	47580.46
727.63	47533.35
727.82	47363.37
728.00	47013.17
728.19	47379.76
728.38	47672.62
728.56	46888.24
728.75	47549.74
728.94	46947.64
729.12	47275.31
729.31	47224.11
729.50	47430.96
729.69	47437.10
729.87	47062.32
730.06	47201.58
730.25	47168.82
730.43	47553.83
730.62	47111.47
730.81	47404.33
730.99	47398.19
731.18	47004.98
731.37	47412.52
731.55	47584.55
731.74	47154.48
731.93	47232.30
732.11	47545.64
732.30	47260.97
732.49	47029.55
732.67	47047.99
732.86	46763.32
733.05	46855.48
733.23	46882.10
733.42	47041.84
733.61	46908.72
733.79	46959.92
733.98	47201.58
734.17	47166.77
734.35	47009.07
734.54	46941.49
734.73	46968.12
734.91	47007.03
735.10	46587.19
735.29	47318.32
735.47	46832.95
735.66	46542.14
735.84	46558.52
736.03	46734.65
736.22	46945.59
736.40	46535.99
736.59	46515.51
736.78	46474.55
736.96	46781.75
737.15	46466.36
737.33	46535.99
737.52	46452.03
737.71	46335.29
737.89	46482.75
738.08	46116.16
738.27	46159.17
738.45	46640.44
738.64	46183.74
738.82	46314.81
739.01	46513.47
739.20	46384.44
739.38	46349.63
739.57	46452.03
739.75	46445.88
739.94	46179.65
740.13	46261.57
740.31	45933.89
740.50	46093.63
740.68	46597.43
740.87	46640.44
741.06	46310.72
741.24	45972.80
741.43	46005.57
741.61	46284.09
741.80	46136.64
741.99	46064.96
742.17	45917.51
742.36	46028.10
742.54	45856.07
742.73	46204.22
742.91	46138.69
743.10	45786.44
743.29	46208.32
743.47	46105.92
743.66	45573.45
743.84	45710.66
744.03	45710.66
744.21	45643.08
744.40	46064.96
744.59	45532.49
744.77	45534.54
744.96	45569.35
745.14	45733.19
745.33	45626.70
745.51	45487.43
745.70	45516.11
745.88	45579.59
746.07	45544.78
746.26	45407.56
746.44	45438.28
746.63	45747.53
746.81	45839.68
747.00	45276.49
747.18	45538.63
747.37	45284.68
747.55	45172.05
747.74	45618.50
747.92	44893.52
748.11	45170.00
748.29	45077.84
748.48	44756.31
748.66	44866.90
748.85	45264.21
749.03	45286.73
749.22	44838.23
749.41	45053.26
749.59	44641.62
749.78	44854.61
749.96	44619.10
750.15	44858.71
750.33	45022.54
750.52	45184.33
750.70	45049.17
750.89	44635.48
751.07	44729.69
751.26	44688.73
751.44	44299.61
751.63	44801.36
751.81	44629.34
752.00	44588.38
752.18	44840.28
752.37	44680.53
752.55	44070.24
752.74	44445.02
752.92	44584.28
753.10	44094.82
753.29	44668.25
753.47	44352.86
753.66	44180.83
753.84	44533.08
754.03	44459.35
754.21	43984.22
754.40	44754.26
754.58	44467.55
754.77	44504.41
754.95	44393.82
755.14	44148.06
755.32	44266.84
755.51	43992.42
755.69	44338.52
755.88	43861.35
756.06	44096.86
756.24	43775.33
756.43	43621.73
756.61	43828.58
756.80	43818.34
756.98	43472.23
757.17	43883.87
757.35	43902.31
757.54	44014.94
757.72	43910.50
757.90	43662.69
758.09	43824.48
758.27	43859.30
758.46	43521.38
758.64	43795.81
758.83	43840.87
759.01	43746.66
759.19	43468.14
759.38	43404.65
759.56	43851.11
759.75	43582.82
759.93	43265.39
760.12	43398.51
760.30	43400.55
760.48	43525.48
760.67	43320.68
760.85	43218.28
761.04	43652.45
761.22	43177.33
761.40	43521.38
761.59	43584.87
761.77	43421.03
761.96	43275.63
762.14	43103.60
762.32	42962.29
762.51	43115.89
762.69	43056.50
762.88	43050.35
763.06	42886.51
763.24	43261.29
763.43	43148.65
763.61	42980.72
763.80	42843.51
763.98	42835.31
764.16	42687.86
764.35	42816.88
764.53	42507.64
764.72	42767.73
764.90	42734.96
765.08	42642.81
765.27	42714.48
765.45	42194.30
765.63	42243.45
765.82	42499.45
766.00	42438.01
766.18	42646.90
766.37	42521.98
766.55	42388.86
766.74	42675.57
766.92	42483.06
767.10	42253.69
767.29	42075.52
767.47	42308.99
767.65	42423.67
767.84	42096.00
768.02	42304.89
768.20	41500.04
768.39	41825.67
768.57	41680.26
768.75	42069.37
768.94	42163.58
769.12	42304.89
769.30	42073.47
769.49	41817.47
769.67	41715.08
769.85	41600.39
770.04	41966.98
770.22	41473.42
770.40	41170.32
770.59	41182.60
770.77	41491.85
770.95	41538.95
771.14	41522.57
771.32	41235.85
771.50	41035.15
771.69	41246.09
771.87	41618.82
772.05	41051.53
772.24	40846.74
772.42	41459.08
772.60	41112.97
772.78	41010.57
772.97	41358.73
773.15	41055.63
773.33	40979.85
773.52	41416.07
773.70	41076.11
773.88	41305.48
774.07	41178.51
774.25	40822.16
774.43	41518.47
774.61	41334.15
774.80	41344.39
774.98	41459.08
775.16	41051.53
775.34	41133.45
775.53	41080.21
775.71	41268.62
775.89	41213.32
776.08	41377.16
776.26	41541.00
776.44	41203.08
776.62	41260.43
776.81	41248.14
776.99	41463.18
777.17	41387.40
777.35	41518.47
777.54	41805.19
777.72	40983.95
777.90	41448.84
778.08	41833.86
778.27	41547.14
778.45	41473.42
778.63	42075.52
778.81	41624.96
779.00	42237.31
779.18	41790.85
779.36	41825.67
779.54	41672.07
779.73	42151.29
779.91	42220.92
780.09	42165.63
780.27	41862.53
780.46	41883.01
780.64	42122.62
780.82	42114.43
781.00	42435.96
781.19	42296.70
781.37	42468.73
781.55	42218.88
781.73	42745.20
781.91	42474.87
782.10	42378.62
782.28	42458.49
782.46	42272.12
782.64	42507.64
782.82	42509.69
783.01	42571.13
783.19	42483.06
783.37	42489.21
783.55	42595.70
783.74	42753.40
783.92	42442.10
784.10	43173.23
784.28	42755.44
784.46	42636.66
784.64	42446.20
784.83	42012.03
785.01	42577.27
785.19	42689.91
785.37	42806.64
785.55	42694.00
785.74	42689.91
785.92	42489.21
786.10	42839.41
786.28	42505.59
786.46	41966.98
786.64	42155.39
786.83	42255.74
787.01	42509.69
787.19	42399.10
787.37	42788.21
787.55	42286.46
787.74	42026.37
787.92	42014.08
788.10	42075.52
788.28	41866.63
788.46	41940.35
788.64	41489.80
788.82	42225.02
789.01	42048.89
789.19	42304.89
789.37	41774.47
789.55	41831.81
789.73	41588.10
789.91	41909.63
790.09	41246.09
790.28	41852.29
790.46	41098.64
790.64	41485.70
790.82	41248.14
791.00	41301.39
791.18	41053.58
791.36	40834.45
791.55	41586.05
791.73	40809.87
791.91	40963.47
792.09	41096.59
792.27	40899.98
792.45	40592.79
792.63	40625.56
792.81	40531.35
793.00	40920.46
793.18	40519.06
793.36	40533.40
793.54	40676.76
793.72	40316.31
793.90	40250.78
794.08	39857.57
794.26	40215.96
794.44	39796.13
794.62	39976.35
794.81	40000.93
794.99	39921.05
795.17	39546.28
795.35	39525.80
795.53	39835.04
795.71	39871.90
795.89	39663.01
796.07	38690.23
796.25	39138.73
796.43	39030.19
796.61	39308.71
796.80	38968.75
796.98	38966.70
797.16	39105.96
797.34	38976.94
797.52	38487.48
797.70	39040.43
797.88	38643.12
798.06	38479.28
798.24	38940.08
798.42	38321.59
798.60	38333.88
798.78	38114.75
798.96	38530.48
799.14	37914.05
799.32	38278.58
799.51	38073.79
799.69	38038.97
799.87	37848.51
800.05	37658.05
800.23	37647.81
800.41	37361.09
800.59	37447.11
800.77	37584.32
800.95	37098.95
801.13	37174.73
801.31	37021.13
801.49	37217.74
801.67	36845.01
801.85	36943.31
802.03	36589.01
802.21	36582.87
802.39	36451.80
802.57	36546.00
802.75	36197.85
802.93	36617.68
803.11	36373.97
803.29	36210.14
803.47	35935.71
803.65	36128.22
803.83	36218.33
804.01	36130.26
804.19	35761.63
804.37	35735.01
804.55	35440.10
804.73	35618.27
804.91	35393.00
805.09	35847.64
805.27	35360.23
805.45	35642.85
805.63	35599.84
805.81	35167.72
805.99	35556.83
806.17	35403.24
806.35	35124.71
806.53	35114.47
806.71	35126.76
806.89	35159.53
807.07	35032.55
807.25	34934.25
807.43	34524.66
807.61	34854.38
807.79	34635.25
807.97	34582.00
808.15	34027.00
808.33	34321.91
808.51	34260.47
808.69	34469.36
808.87	33953.27
809.05	34053.62
809.23	33654.27
809.41	33869.31
809.59	34024.95
809.77	33887.74
809.95	33633.79
810.13	33748.48
810.31	33693.18
810.49	33848.83
810.67	33738.24
810.84	33732.09
811.02	33162.76
811.20	33195.53
811.38	33383.94
811.56	33046.02
811.74	33005.06
811.92	33043.98
812.10	33138.18
812.28	33095.18
812.46	32884.23
812.64	32835.08
812.82	32646.67
813.00	32527.89
813.18	32650.77
813.36	32503.31
813.53	32157.21
813.71	32194.07
813.89	32368.15
814.07	32216.60
814.25	32339.47
814.43	31790.62
814.61	31745.56
814.79	32153.11
814.97	32146.97
815.15	32079.38
815.33	31413.79
815.50	31553.05
815.68	31641.12
815.86	31829.53
816.04	31505.95
816.22	31430.18
816.40	31641.12
816.58	31235.62
816.76	31346.21
816.94	31442.46
817.11	31252.00
817.29	31540.77
817.47	31335.97
817.65	31137.32
817.83	31192.61
818.01	30864.94
818.19	30946.86
818.37	30772.78
818.54	31030.82
818.72	30666.28
818.90	30803.50
819.08	30504.49
819.26	30858.79
819.44	30686.76
819.62	30209.59
819.80	30762.54
819.97	30371.38
820.15	30185.01
820.33	29922.87
820.51	30479.92
820.69	29840.95
820.87	30017.08
821.05	30420.53
821.22	30250.55
821.40	30070.33
821.58	29783.61
821.76	29918.78
821.94	30119.48
822.12	29888.06
822.29	29931.06
822.47	29791.80
822.65	29771.32
822.83	29865.53
823.01	29603.39
823.19	29799.99
823.36	29394.50
823.54	29517.37
823.72	29412.93
823.90	29136.45
824.08	29333.06
824.25	29240.90
824.43	29222.47
824.61	29185.60
824.79	28935.75
824.97	29021.77
825.15	28896.84
825.32	29079.11
825.50	29132.36
825.68	28642.89
825.86	28919.37
826.04	28880.46
826.21	28575.31
826.39	28694.09
826.57	28280.40
826.75	28636.75
826.93	28096.08
827.10	28530.25
827.28	28552.78
827.46	28757.58
827.64	28366.42
827.81	28118.61
827.99	28272.21
828.17	28139.09
828.35	28223.06
828.53	27633.24
828.70	28157.52
828.88	27985.49
829.06	27825.75
829.24	28210.77
829.41	27766.36
829.59	27911.77
829.77	27831.90
829.95	27729.50
830.12	27825.75
830.30	27571.80
830.48	27952.73
830.66	27825.75
830.84	27469.40
831.01	27401.82
831.19	27635.29
831.37	27596.38
831.55	27553.37
831.72	27326.05
831.90	27207.26
832.08	27346.53
832.25	27082.34
832.43	27072.10
832.61	26984.04
832.79	26967.65
832.96	27123.30
833.14	27111.01
833.32	27176.55
833.50	27070.05
833.67	26996.32
833.85	26928.74
834.03	26691.18
834.20	26719.85
834.38	26906.21
834.56	26895.97
834.74	26519.15
834.91	26615.40
835.09	26609.26
835.27	26324.59
835.44	26293.87
835.62	26099.31
835.80	26185.33
835.98	26273.39
836.15	26402.41
836.33	26072.69
836.51	26476.14
836.68	26111.60
836.86	26123.89
837.04	25949.81
837.21	26099.31
837.39	26216.05
837.57	26150.51
837.75	25796.21
837.92	26031.73
838.10	25998.96
838.28	25628.28
838.45	25921.14
838.63	25577.08
838.81	25730.68
838.98	25677.43
839.16	25370.24
839.34	25605.75
839.51	25505.40
839.69	25099.90
839.87	25413.24
840.04	25300.61
840.22	25405.05
840.40	25241.21
840.57	25114.24
840.75	25159.30
840.93	24729.22
841.10	25273.98
841.28	25560.70
841.46	25155.20
841.63	25163.39
841.81	25011.84
841.98	24901.25
842.16	24905.35
842.34	24848.00
842.51	24587.91
842.69	24931.97
842.87	24602.25
843.04	25132.67
843.22	24514.19
843.40	24503.95
843.57	24530.57
843.75	24751.75
843.92	24845.96
844.10	24772.23
844.28	24362.64
844.45	24819.33
844.63	24565.39
844.81	24452.75
844.98	24266.38
845.16	24426.12
845.33	24376.97
845.51	24231.57
845.69	24112.78
845.86	23883.41
846.04	24286.86
846.21	24200.85
846.39	24229.52
846.57	23852.69
846.74	24172.18
846.92	24225.42
847.09	23975.57
847.27	23987.86
847.45	23553.69
847.62	24141.46
847.80	23766.68
847.97	23828.12
848.15	23791.25
848.32	23369.37
848.50	23678.61
848.68	23490.20
848.85	23393.95
849.03	23168.67
849.20	23731.86
849.38	23500.44
849.56	23457.43
849.73	23207.58
849.91	23561.88
850.08	23422.62
850.26	23064.22
850.43	23111.33
850.61	23588.50
850.78	23109.28
850.96	23307.93
851.14	22875.81
851.31	23174.81
851.49	22830.76
851.66	23070.37
851.84	22857.38
852.01	23213.73
852.19	23150.24
852.36	22810.28
852.54	22783.65
852.71	22959.78
852.89	22894.24
853.07	22929.06
853.24	22587.05
853.42	22884.00
853.59	22980.26
853.77	22771.36
853.94	22726.31
854.12	23029.41
854.29	22455.98
854.47	22959.78
854.64	22675.11
854.82	22298.28
854.99	22212.27
855.17	22382.25
855.34	22335.15
855.52	22265.52
855.69	22597.29
855.87	22300.33
856.04	22204.08
856.22	22204.08
856.39	22242.99
856.57	22183.60
856.74	22077.10
856.92	21935.79
857.09	21843.63
857.27	21960.37
857.44	22179.50
857.62	22036.14
857.79	21792.44
857.97	22054.58
858.14	21890.74
858.32	21761.72
858.49	21776.05
858.67	21657.27
858.84	21759.67
859.02	21667.51
859.19	21597.88
859.37	21649.08
859.54	21626.55
859.72	21657.27
859.89	21294.78
860.06	21384.89
860.24	21231.29
860.41	21677.75
860.59	21018.30
860.76	21302.97
860.94	21405.37
861.11	21409.47
861.29	21106.37
861.46	21550.78
861.64	20952.77
861.81	21219.00
861.98	21040.83
862.16	20795.07
862.33	20958.91
862.51	20905.66
862.68	21231.29
862.86	20653.76
863.03	20973.25
863.21	20934.34
863.38	20854.47
863.55	20960.96
863.73	20858.56
863.90	20692.68
864.08	20780.74
864.25	20592.33
864.43	20551.37
864.60	20747.97
864.77	20289.23
864.95	20102.86
865.12	20227.79
865.30	20334.28
865.47	20141.77
865.64	20211.40
865.82	20278.99
865.99	20582.09
866.17	20231.88
866.34	20477.64
866.51	20002.51
866.69	20131.53
866.86	20072.14
867.04	20098.77
867.21	20152.01
867.38	19971.79
867.56	19836.63
867.73	19939.02
867.91	19924.69
868.08	20000.46
868.25	19810.00
868.43	19664.60
868.60	19838.67
868.78	19969.74
868.95	19732.18
869.12	19668.69
869.30	19594.96
869.47	20045.52
869.64	19404.50
869.82	19488.47
869.99	19498.71
870.16	19726.04
870.34	19568.34
870.51	19730.13
870.69	19326.68
870.86	19359.45
871.03	19549.91
871.21	19091.16
871.38	19406.55
871.55	19195.61
871.73	19128.03
871.90	19007.20
872.07	19222.23
872.25	18865.89
872.42	18941.66
872.59	19246.81
872.77	19023.58
872.94	18749.15
873.11	18956.00
873.29	18722.53
873.46	18802.40
873.63	18626.28
873.81	18835.17
873.98	18659.04
874.15	18556.64
874.33	18546.40
874.50	18384.62
874.67	18439.91
874.85	18525.93
875.02	18321.13
875.19	18355.94
875.37	18247.40
875.54	18116.33
875.71	18083.56
875.88	17944.30
876.06	18237.16
876.23	18108.14
876.40	18147.05
876.58	18161.39
876.75	18050.80
876.92	18022.12
877.10	18095.85
877.27	17862.38
877.44	17735.41
877.61	17893.10
877.79	17731.31
877.96	17647.35
878.13	17932.01
878.31	17598.20
878.48	17495.80
878.65	17549.04
878.82	17590.00
879.00	17610.48
879.17	17417.97
879.34	17585.91
879.51	17149.69
879.69	17405.69
879.86	17016.57
880.03	17340.15
880.21	17280.76
880.38	17280.76
880.55	17336.06
880.72	17313.53
880.90	17190.65
881.07	17129.21
881.24	17295.10
881.41	16969.47
881.59	17215.23
881.76	17065.72
881.93	16901.89
882.10	16881.41
882.28	16963.33
882.45	17006.33
882.62	16834.30
882.79	16862.97
882.96	16404.23
883.14	16842.50
883.31	16836.35
883.48	16594.69
883.65	16856.83
883.83	16856.83
884.00	16760.58
884.17	16658.18
884.34	16512.77
884.51	16660.23
884.69	16604.93
884.86	16553.73
885.03	16404.23
885.20	16606.98
885.38	16672.51
885.55	16496.39
885.72	16471.81
885.89	16385.80
886.06	16256.78
886.24	16473.86
886.41	16332.55
886.58	16467.72
886.75	16553.73
886.92	16305.93
887.10	16396.04
887.27	15970.06
887.44	16535.30
887.61	16553.73
887.78	16459.52
887.95	16391.94
888.13	16256.78
888.30	16047.88
888.47	15855.37
888.64	15959.82
888.81	16174.86
888.99	16025.36
889.16	15697.68
889.33	15683.34
889.50	15709.97
889.67	16088.84
889.84	15920.91
890.01	15718.16
890.19	15916.81
890.36	15677.20
890.53	15714.06
890.70	15705.87
890.87	15808.27
891.04	15464.21
891.22	15476.50
891.39	15494.93
891.56	15384.34
891.73	15750.93
891.90	15347.48
892.07	15413.01
892.24	15685.39
892.42	15382.29
892.59	15345.43
892.76	15333.14
892.93	15329.05
893.10	15425.30
893.27	15271.70
893.44	15257.37
893.61	15261.46
893.79	15458.07
893.96	15345.43
894.13	15169.30
894.30	15138.58
894.47	15077.15
894.64	15200.02
894.81	15036.19
894.98	15126.30
895.15	15107.87
895.33	15118.11
895.50	15232.79
895.67	15339.29
895.84	15089.43
896.01	15062.81
896.18	15259.42
896.35	15130.39
896.52	15099.67
896.69	14980.89
896.86	15146.78
897.04	14962.46
897.21	15154.97
897.38	15126.30
897.55	15034.14
897.72	14939.93
897.89	14950.17
898.06	15238.94
898.23	15152.92
898.40	15144.73
898.57	15128.35
898.74	14876.44
898.91	15046.43
899.08	15161.11
899.26	15120.15
899.43	15210.26
899.60	14974.75
899.77	14860.06
899.94	15222.55
900.11	14651.17
900.28	14796.57
900.45	14835.49
900.62	14683.94
900.79	15288.09
900.96	14804.77
901.13	14978.84
901.30	14782.24
901.47	14894.88
901.64	15089.43
901.81	15042.33
901.98	14839.58
902.15	14866.21
902.32	14624.54
902.49	14921.50
902.66	15005.47
902.83	14876.44
903.01	14958.36
903.18	14958.36
903.35	14855.97
903.52	14849.82
903.69	15220.50
903.86	14941.98
904.03	14890.78
904.20	14995.23
904.37	15058.71
904.54	14722.85
904.71	15054.62
904.88	14790.43
905.05	14728.99
905.22	14933.79
905.39	14880.54
905.56	14864.16
905.73	14829.34
905.90	14870.30
906.07	14772.00
906.24	14868.25
906.41	14683.94
906.58	14876.44
906.75	14823.20
906.92	14708.51
907.09	14683.94
907.26	14673.70
907.43	14612.26
907.60	14808.86
907.77	14737.18
907.93	14636.83
908.10	14825.25
908.27	14911.26
908.44	14763.81
908.61	14579.49
908.78	14886.68
908.95	14866.21
909.12	14671.65
909.29	14642.98
909.46	14718.75
909.63	14655.26
909.80	14794.53
909.97	14591.78
910.14	14806.81
910.31	14714.66
910.48	14454.56
910.65	14577.44
910.82	14599.97
910.99	14552.87
911.16	14454.56
911.33	14497.57
911.50	14569.25
911.66	14524.19
911.83	14792.48
912.00	14417.70
912.17	14495.52
912.34	14403.36
912.51	14565.15
912.68	14288.68
912.85	14368.55
913.02	14292.77
913.19	14372.64
913.36	14274.34
913.53	14427.94
913.70	14229.29
913.86	14298.92
914.03	14260.01
914.20	13983.53
914.37	14548.77
914.54	14126.89
914.71	14090.02
914.88	14098.22
915.05	14067.50
915.22	14077.74
915.39	14006.06
915.55	13821.74
915.72	13752.11
915.89	13809.45
916.06	13799.21
916.23	13786.93
916.40	13887.28
916.57	13537.07
916.74	13528.88
916.91	13360.95
917.07	13639.47
917.24	13446.96
917.41	13647.66
917.58	13389.62
917.75	13520.69
917.92	13307.70
918.09	13575.98
918.26	13438.77
918.42	13240.12
918.59	13426.48
918.76	13272.89
918.93	13143.86
919.10	13100.86
919.27	13225.78
919.44	13190.97
919.60	13178.68
919.77	12920.63
919.94	13035.32
920.11	12875.58
920.28	13084.47
920.45	12967.74
920.61	12990.27
920.78	12689.21
920.95	12808.00
921.12	12871.48
921.29	12627.78
921.46	12824.38
921.62	12529.47
921.79	12785.47
921.96	12570.43
922.13	12584.77
922.30	12480.32
922.47	12349.25
922.63	12201.80
922.80	12420.93
922.97	12234.57
923.14	12328.77
923.31	12216.13
923.47	12052.30
923.64	12398.40
923.81	12162.89
923.98	12087.11
924.15	12083.02
924.32	11958.09
924.48	12083.02
924.65	12044.10
924.82	11953.99
924.99	11990.86
925.15	11880.27
925.32	11734.86
925.49	11573.07
925.66	11677.52
925.83	11626.32
925.99	11587.41
926.16	11642.70
926.33	11474.77
926.50	11372.37
926.67	11695.95
926.83	11403.09
927.00	11353.94
927.17	11290.45
927.34	11239.25
927.50	11312.98
927.67	11460.43
927.84	11181.91
928.01	11081.56
928.17	11028.31
928.34	10821.47
928.51	10776.41
928.68	10837.85
928.84	10811.23
929.01	10737.50
929.18	10612.57
929.35	10757.98
929.51	10598.24
929.68	10440.54
929.85	10530.66
930.02	10401.63
930.18	10540.90
930.35	10577.76
930.52	10352.48
930.69	10567.52
930.85	10557.28
931.02	10135.40
931.19	10350.43
931.36	10307.43
931.52	10272.61
931.69	10235.75
931.86	10176.36
932.02	10047.33
932.19	10047.33
932.36	9891.69
932.53	9926.50
932.69	9989.99
932.86	9987.94
933.03	9869.16
933.19	9596.78
933.36	9508.72
933.53	9826.15
933.70	9617.26
933.86	9797.48
934.03	9334.64
934.20	9387.89
934.36	9506.67
934.53	9271.15
934.70	9133.94
934.86	9236.34
935.03	9068.41
935.20	8970.10
935.36	9160.56
935.53	8927.10
935.70	8906.62
935.86	8943.48
936.03	8935.29
936.20	8740.73
936.36	8609.66
936.53	8576.89
936.70	8423.30
936.86	8687.48
937.03	8456.06
937.20	8200.07
937.36	8361.86
937.53	8091.52
937.70	7972.74
937.86	7772.04
938.03	7835.53
938.20	7937.93
938.36	7612.30
938.53	7722.89
938.70	7432.08
938.86	7417.74
939.03	7323.54
939.20	7315.34
939.36	7303.06
939.53	7239.57
939.70	7374.74
939.86	6881.18
940.03	6887.32
940.19	6621.08
940.36	6840.22
940.53	6877.08
940.69	6705.05
940.86	6526.88
941.03	6606.75
941.19	6260.64
941.36	6367.13
941.52	6332.32
941.69	6371.23
941.86	6301.60
942.02	6248.35
942.19	6096.80
942.35	6049.70
942.52	6035.36
942.69	5908.39
942.85	5937.06
943.02	6002.60
943.18	5898.15
943.35	5846.95
943.52	5648.30
943.68	5740.46
943.85	5762.98
944.01	5672.87
944.18	5660.59
944.35	5685.16
944.51	5582.76
944.68	5369.77
944.84	5504.94
945.01	5537.71
945.17	5502.89
945.34	5560.24
945.51	5547.95
945.67	5474.22
945.84	5398.45
946.00	5375.92
946.17	5429.17
946.33	5404.59
946.50	5296.05
946.67	5404.59
946.83	5347.25
947.00	5404.59
947.16	5420.97
947.33	5324.72
947.49	5320.62
947.66	5236.66
947.82	5275.57
947.99	5287.86
948.16	5310.38
948.32	5339.05
948.49	5457.84
948.65	5382.06
948.82	5347.25
948.98	5400.49
949.15	5265.33
949.31	5463.98
949.48	5154.74
949.64	5337.01
949.81	5371.82
949.97	5273.52
950.14	5468.08
950.30	5259.18
950.47	5478.32
950.63	5392.30
950.80	5380.01
950.96	5271.47
951.13	5466.03
951.30	5267.38
951.46	5306.29
951.63	5392.30
951.79	5496.75
951.96	5418.93
952.12	5427.12
952.29	5504.94
952.45	5459.88
952.62	5365.68
952.78	5457.84
952.94	5420.97
953.11	5443.50
953.27	5398.45
953.44	5681.07
953.60	5482.41
953.77	5490.60
953.93	5377.97
954.10	5642.15
954.26	5408.69
954.43	5441.45
954.59	5552.04
954.76	5629.87
954.92	5521.32
955.09	5484.46
955.25	5517.23
955.42	5615.53
955.58	5709.74
955.75	5279.66
955.91	5377.97
956.07	5527.47
956.24	5496.75
956.40	5484.46
956.57	5586.86
956.73	5447.60
956.90	5545.90
957.06	5433.26
957.23	5595.05
957.39	5222.32
957.56	5560.24
957.72	5416.88
957.88	5492.65
958.05	5695.40
958.21	5562.28
958.38	5459.88
958.54	5476.27
958.71	5498.80
958.87	5451.69
959.03	5556.14
959.20	5533.61
959.36	5410.73
959.53	5480.36
959.69	5390.25
959.85	5625.77
960.02	5502.89
960.18	5435.31
960.35	5439.40
960.51	5613.48
960.68	5492.65
960.84	5461.93
961.00	5506.99
961.17	5420.97
961.33	5525.42
961.50	5461.93
961.66	5414.83
961.82	5550.00
961.99	5498.80
962.15	5466.03
962.31	5480.36
962.48	5474.22
962.64	5590.95
962.81	5443.50
962.97	5537.71
963.13	5396.40
963.30	5400.49
963.46	5332.91
963.62	5377.97
963.79	5607.34
963.95	5492.65
964.12	5425.07
964.28	5515.18
964.44	5359.53
964.61	5472.17
964.77	5468.08
964.93	5576.62
965.10	5380.01
965.26	5306.29
965.42	5355.44
965.59	5326.77
965.75	5388.21
965.92	5386.16
966.08	5425.07
966.24	5371.82
966.41	5394.35
966.57	5277.62
966.73	5334.96
966.90	5504.94
967.06	5363.63
967.22	5441.45
967.39	5224.37
967.55	5289.90
967.71	5361.58
967.88	5242.80
968.04	5267.38
968.20	5222.32
968.37	5281.71
968.53	5173.17
968.69	5224.37
968.85	5201.84
969.02	5345.20
969.18	5443.50
969.34	5359.53
969.51	5228.46
969.67	5267.38
969.83	5117.87
970.00	5224.37
970.16	5228.46
970.32	5130.16
970.48	5271.47
970.65	5212.08
970.81	5111.73
970.97	5257.14
971.14	5046.20
971.30	5312.43
971.46	5119.92
971.63	5074.87
971.79	5142.45
971.95	5164.98
972.11	5054.39
972.28	5070.77
972.44	5101.49
972.60	4992.95
972.76	5105.59
972.93	4995.00
973.09	5144.50
973.25	4943.80
973.42	5050.29
973.58	5193.65
973.74	4988.85
973.90	5035.96
974.07	5025.72
974.23	4921.27
974.39	4902.84
974.55	4980.66
974.72	4863.93
974.88	4747.19
975.04	4915.12
975.20	4960.18
975.37	5056.43
975.53	4808.63
975.69	4890.55
975.85	4714.42
976.01	4779.96
976.18	4827.06
976.34	4804.53
976.50	4927.41
976.66	4861.88
976.83	4761.53
976.99	4716.47
977.15	4769.72
977.31	4724.66
977.47	4792.25
977.64	4736.95
977.80	4775.86
977.96	4689.85
978.12	4798.39
978.29	4673.46
978.45	4636.60
978.61	4695.99
978.77	4790.20
978.93	4663.22
979.10	4597.69
979.26	4648.89
979.42	4577.21
979.58	4458.43
979.74	4573.11
979.91	4620.22
980.07	4595.64
980.23	4552.63
980.39	4476.86
980.55	4513.72
980.71	4509.63
980.88	4491.20
981.04	4454.33
981.20	4423.61
981.36	4562.87
981.52	4489.15
981.68	4493.24
981.85	4517.82
982.01	4503.48
982.17	4501.44
982.33	4456.38
982.49	4593.59
982.65	4458.43
982.82	4247.49
982.98	4378.56
983.14	4292.54
983.30	4526.01
983.46	4417.47
983.62	4415.42
983.79	4409.28
983.95	4198.34
984.11	4198.34
984.27	4349.89
984.43	4249.54
984.59	4315.07
984.75	4317.12
984.91	4237.25
985.08	4358.08
985.24	4220.86
985.40	4272.06
985.56	4220.86
985.72	4272.06
985.88	4343.74
986.04	4159.42
986.20	4083.65
986.37	4216.77
986.53	4165.57
986.69	4108.23
986.85	4151.23
987.01	4138.94
987.17	4136.90
987.33	4077.51
987.49	4032.45
987.65	4171.71
987.82	3954.63
987.98	3956.68
988.14	3944.39
988.30	4081.60
988.46	4014.02
988.62	4075.46
988.78	3940.29
988.94	3936.20
989.10	4020.16
989.26	3829.70
989.42	3911.62
989.59	3862.47
989.75	3956.68
989.91	4071.36
990.07	3815.37
990.23	3856.33
990.39	3870.66
990.55	3895.24
990.71	3864.52
990.87	3913.67
991.03	3915.72
991.19	3719.11
991.35	3817.41
991.51	3989.44
991.67	3938.24
991.83	3893.19
992.00	3841.99
992.16	3819.46
992.32	3850.18
992.48	3813.32
992.64	3796.93
992.80	3766.21
992.96	3747.78
993.12	3792.84
993.28	3905.48
993.44	3788.74
993.60	3725.26
993.76	3760.07
993.92	3801.03
994.08	3706.82
994.24	3745.73
994.40	3686.34
994.56	3803.08
994.72	3592.14
994.88	3583.95
995.04	3649.48
995.20	3612.62
995.36	3592.14
995.52	3649.48
995.68	3643.34
995.84	3481.55
996.00	3508.17
996.16	3567.56
996.32	3526.60
996.48	3553.23
996.64	3633.10
996.80	3475.40
996.96	3551.18
997.12	3489.74
997.28	3520.46
997.44	3469.26
997.60	3452.88
997.76	3514.31
997.92	3434.44
998.08	3485.64
998.24	3342.28
998.40	3428.30
998.56	3659.72
998.72	3430.35
998.88	3395.53
999.04	3395.53
999.20	3557.32
999.36	3373.00
999.52	3442.64
999.68	3432.40
999.84	3418.06
1000.00	3354.57
1000.16	3340.24
1000.32	3321.81
1000.48	3368.91
1000.64	3362.76
1000.80	3303.37
1000.95	3114.96
1001.11	3166.16
1001.27	3149.78
1001.43	3164.11
1001.59	3254.22
1001.75	3256.27
1001.91	3256.27
1002.07	3246.03
1002.23	3078.10
1002.39	3170.26
1002.55	3096.53
1002.71	3080.14
1002.87	3223.50
1003.03	3131.34
1003.19	3133.39
1003.34	3209.17
1003.50	3186.64
1003.66	3145.68
1003.82	3157.97
1003.98	3125.20
1004.14	3205.07
1004.30	3084.24
1004.46	3135.44
1004.62	3035.09
1004.78	3020.75
1004.94	3106.77
1005.09	3102.67
1005.25	3063.76
1005.41	2924.50
1005.57	2973.65
1005.73	2957.27
1005.89	3041.23
1006.05	3016.66
1006.21	3014.61
1006.37	2969.55
1006.52	2994.13
1006.68	2928.60
1006.84	3039.19
1007.00	2953.17
1007.16	3092.43
1007.32	2813.91
1007.48	2965.46
1007.64	3092.43
1007.79	2865.11
1007.95	2990.03
1008.11	2985.94
1008.27	2904.02
1008.43	2957.27
1008.59	2793.43
1008.75	2981.84
1008.91	2901.97
1009.06	2842.58
1009.22	2832.34
1009.38	2893.78
1009.54	2803.67
1009.70	2758.61
1009.86	2830.29
1010.01	2858.96
1010.17	2772.95
1010.33	2772.95
1010.49	2848.72
1010.65	2789.33
1010.81	2701.27
1010.96	2787.29
1011.12	2707.41
1011.28	2858.96
1011.44	2793.43
1011.60	2678.74
1011.76	2668.50
1011.91	2795.48
1012.07	2766.81
1012.23	2678.74
1012.39	2707.41
1012.55	2682.84
1012.71	2725.85
1012.86	2756.57
1013.02	2697.17
1013.18	2721.75
1013.34	2719.70
1013.50	2785.24
1013.65	2670.55
1013.81	2674.65
1013.97	2570.20
1014.13	2629.59
1014.29	2656.22
1014.44	2586.58
1014.60	2539.48
1014.76	2590.68
1014.92	2570.20
1015.07	2631.64
1015.23	2592.73
1015.39	2461.66
1015.55	2488.28
1015.71	2580.44
1015.86	2475.99
1016.02	2441.18
1016.18	2469.85
1016.34	2510.81
1016.49	2617.30
1016.65	2545.63
1016.81	2555.86
1016.97	2537.43
1017.12	2602.97
1017.28	2416.60
1017.44	2432.99
1017.60	2486.23
1017.75	2551.77
1017.91	2549.72
1018.07	2525.15
1018.23	2588.63
1018.38	2455.51
1018.54	2473.95
1018.70	2400.22
1018.86	2445.27
1019.01	2408.41
1019.17	2447.32
1019.33	2635.74
1019.49	2422.75
1019.64	2430.94
1019.80	2478.04
1019.96	2506.71
1020.12	2432.99
1020.27	2240.48
1020.43	2353.12
1020.59	2484.19
1020.74	2412.51
1020.90	2463.71
1021.06	2342.88
1021.22	2338.78
1021.37	2435.03
1021.53	2308.06
1021.69	2369.50
1021.84	2314.20
1022.00	2420.70
1022.16	2340.83
1022.31	2285.53
1022.47	2478.04
1022.63	2344.92
1022.79	2265.05
1022.94	2289.63
1023.10	2338.78
1023.26	2355.16
1023.41	2310.11
1023.57	2232.29
1023.73	2322.40
1023.88	2238.43
1024.04	2142.18
1024.20	2271.20
1024.35	2392.03
1024.51	2297.82
1024.67	2265.05
1024.82	2207.71
1024.98	2265.05
1025.14	2324.44
1025.29	2187.23
1025.45	2267.10
1025.61	2269.15
1025.76	2187.23
1025.92	2230.24
1026.08	2226.14
1026.23	2232.29
1026.39	2244.57
1026.55	2236.38
1026.70	2215.90
1026.86	2179.04
1027.02	2248.67
1027.17	2260.96
1027.33	2170.85
1027.48	2119.65
1027.64	2174.94
1027.80	2074.59
1027.95	2250.72
1028.11	2076.64
1028.27	2113.50
1028.42	2160.61
1028.58	2176.99
1028.73	2007.01
1028.89	2043.87
1029.05	2183.13
1029.20	2172.89
>>>>>End Processed Spectral Data<<<<<
