SpectraSuite Data File
++++++++++++++++++++++++++++++++++++
Date: Fri Jun 02 14:57:18 CEST 2017
User: INFO_000
Dark Spectrum Present: No
Reference Spectrum Present: No
Number of Sampled Component Spectra: 1
Spectrometers: USB4H00879
Integration Time (usec): 80000 (USB4H00879)
Spectra Averaged: 1 (USB4H00879)
Boxcar Smoothing: 0 (USB4H00879)
Correct for Electrical Dark: No (USB4H00879)
Strobe/Lamp Enabled: No (USB4H00879)
Correct for Detector Non-linearity: No (USB4H00879)
Correct for Stray Light: No (USB4H00879)
Number of Pixels in Processed Spectrum: 3648
>>>>>Begin Processed Spectral Data<<<<<
345.13	1296.36
345.34	1296.36
345.56	1296.36
345.78	1234.93
345.99	1290.22
346.21	1716.20
346.42	1683.43
346.64	1703.91
346.86	1789.92
347.07	1658.85
347.29	1628.14
347.50	1667.05
347.72	1640.42
347.94	1783.78
348.15	1544.17
348.37	1648.61
348.59	1738.73
348.80	1605.61
349.02	1916.90
349.23	1888.23
349.45	1812.45
349.67	1888.23
349.88	1824.74
350.10	1986.53
350.31	1865.70
350.53	1818.60
350.75	2011.11
350.96	1826.79
351.18	1873.89
351.39	1853.41
351.61	1828.84
351.82	1918.95
352.04	1910.75
352.26	1820.64
352.47	1964.00
352.69	1900.52
352.90	1716.20
353.12	1863.65
353.34	1851.36
353.55	1931.23
353.77	1875.94
353.98	1810.40
354.20	1855.46
354.41	1949.67
354.63	1986.53
354.85	1984.48
355.06	1925.09
355.28	1724.39
355.49	1830.88
355.71	1892.32
355.92	1902.56
356.14	1943.52
356.35	1812.45
356.57	1947.62
356.79	2052.06
357.00	1863.65
357.22	1947.62
357.43	1925.09
357.65	1931.23
357.86	1929.19
358.08	1880.04
358.29	1923.04
358.51	1980.39
358.72	1986.53
358.94	1906.66
359.16	2009.06
359.37	1990.63
359.59	1949.67
359.80	1974.24
360.02	2013.15
360.23	1974.24
360.45	2050.02
360.66	1888.23
360.88	1896.42
361.09	1939.43
361.31	1912.80
361.52	2025.44
361.74	2097.12
361.95	2066.40
362.17	1957.86
362.38	2080.74
362.60	2105.31
362.81	1994.72
363.03	1982.43
363.24	2004.96
363.46	2064.35
363.67	2039.78
363.89	1943.52
364.10	2084.83
364.32	1992.67
364.53	2039.78
364.75	2015.20
364.96	1996.77
365.18	2043.87
365.39	1984.48
365.61	2015.20
365.82	2158.56
366.04	2002.91
366.25	1992.67
366.47	2068.45
366.68	2031.58
366.90	2000.87
367.11	2060.26
367.33	2039.78
367.54	2144.22
367.76	1949.67
367.97	2152.42
368.19	2023.39
368.40	2072.54
368.62	1949.67
368.83	2017.25
369.05	2088.93
369.26	2021.35
369.48	1931.23
369.69	2017.25
369.91	1988.58
370.12	2047.97
370.33	2043.87
370.55	1968.10
370.76	2066.40
370.98	2103.26
371.19	2056.16
371.41	2062.30
371.62	2043.87
371.84	1998.82
372.05	2197.47
372.27	2011.11
372.48	2148.32
372.69	2154.46
372.91	2140.13
373.12	2199.52
373.34	2035.68
373.55	2148.32
373.77	2101.22
373.98	2095.07
374.20	2129.89
374.41	2240.48
374.62	2121.70
374.84	2152.42
375.05	2181.09
375.27	2140.13
375.48	2148.32
375.70	2142.18
375.91	2250.72
376.12	2258.91
376.34	2119.65
376.55	2199.52
376.77	2152.42
376.98	2131.94
377.19	2179.04
377.41	2138.08
377.62	2217.95
377.84	2256.86
378.05	2322.40
378.27	2250.72
378.48	2224.09
378.69	2445.27
378.91	2289.63
379.12	2293.72
379.34	2258.91
379.55	2326.49
379.76	2287.58
379.98	2189.28
380.19	2244.57
380.41	2271.20
380.62	2293.72
380.83	2265.05
381.05	2246.62
381.26	2437.08
381.47	2162.66
381.69	2320.35
381.90	2410.46
382.12	2289.63
382.33	2361.31
382.54	2353.12
382.76	2281.44
382.97	2342.88
383.19	2275.29
383.40	2463.71
383.61	2365.40
383.83	2359.26
384.04	2334.68
384.25	2361.31
384.47	2355.16
384.68	2334.68
384.89	2289.63
385.11	2281.44
385.32	2385.88
385.54	2344.92
385.75	2318.30
385.96	2453.47
386.18	2445.27
386.39	2394.08
386.60	2385.88
386.82	2459.61
387.03	2455.51
387.24	2424.80
387.46	2420.70
387.67	2484.19
387.88	2510.81
388.10	2400.22
388.31	2527.19
388.52	2547.67
388.74	2633.69
388.95	2525.15
389.16	2496.47
389.38	2510.81
389.59	2531.29
389.80	2652.12
390.02	2521.05
390.23	2629.59
390.44	2519.00
390.66	2645.98
390.87	2461.66
391.08	2598.87
391.30	2707.41
391.51	2701.27
391.72	2818.00
391.94	2680.79
392.15	2645.98
392.36	2598.87
392.58	2535.39
392.79	2691.03
393.00	2643.93
393.22	2701.27
393.43	2795.48
393.64	2766.81
393.85	2910.16
394.07	2703.32
394.28	2666.46
394.49	2727.89
394.71	2809.81
394.92	2852.82
395.13	2844.63
395.35	2777.05
395.56	2779.09
395.77	2863.06
395.98	2846.68
396.20	2850.77
396.41	2842.58
396.62	2938.84
396.84	2811.86
397.05	2852.82
397.26	2871.25
397.47	3016.66
397.69	2912.21
397.90	3063.76
398.11	3033.04
398.32	2877.40
398.54	2949.08
398.75	2846.68
398.96	2883.54
399.18	3119.06
399.39	2967.51
399.60	2922.45
399.81	2920.40
400.03	2998.23
400.24	3186.64
400.45	3071.95
400.66	3125.20
400.88	3006.42
401.09	3108.82
401.30	3176.40
401.51	3131.34
401.73	3131.34
401.94	3157.97
402.15	3258.32
402.36	3217.36
402.58	3086.29
402.79	3213.26
403.00	3108.82
403.21	3170.26
403.43	3227.60
403.64	3358.67
403.85	3243.98
404.06	3258.32
404.27	3145.68
404.49	3301.33
404.70	3170.26
404.91	3407.82
405.12	3262.41
405.34	3299.28
405.55	3340.24
405.76	3258.32
405.97	3311.57
406.19	3344.33
406.40	3262.41
406.61	3493.83
406.82	3278.80
407.03	3264.46
407.25	3215.31
407.46	3401.68
407.67	3389.39
407.88	3547.08
408.09	3327.95
408.31	3303.37
408.52	3487.69
408.73	3342.28
408.94	3366.86
409.15	3483.59
409.37	3530.70
409.58	3530.70
409.79	3436.49
410.00	3590.09
410.21	3368.91
410.43	3481.55
410.64	3405.77
410.85	3444.68
411.06	3532.75
411.27	3532.75
411.48	3612.62
411.70	3686.34
411.91	3563.47
412.12	3637.19
412.33	3557.32
412.54	3493.83
412.76	3653.58
412.97	3672.01
413.18	3467.21
413.39	3735.50
413.60	3684.30
413.81	3629.00
414.03	3682.25
414.24	3575.75
414.45	3823.56
414.66	3493.83
414.87	3692.49
415.08	3688.39
415.30	3684.30
415.51	3813.32
415.72	3710.92
415.93	3667.91
416.14	3678.15
416.35	3823.56
416.56	3712.97
416.78	3774.41
416.99	3719.11
417.20	3770.31
417.41	3819.46
417.62	3882.95
417.83	3862.47
418.04	3739.59
418.26	3944.39
418.47	3874.76
418.68	3964.87
418.89	3925.96
419.10	4020.16
419.31	3897.28
419.52	4048.83
419.73	4050.88
419.95	4054.98
420.16	3887.04
420.37	4011.97
420.58	4024.26
420.79	3885.00
421.00	4007.87
421.21	4087.75
421.42	4046.79
421.63	4130.75
421.85	4038.59
422.06	4122.56
422.27	4018.11
422.48	4014.02
422.69	4202.43
422.90	4229.06
423.11	4155.33
423.32	4292.54
423.53	4331.45
423.75	4194.24
423.96	4411.32
424.17	4302.78
424.38	4382.65
424.59	4347.84
424.80	4435.90
425.01	4300.73
425.22	4272.06
425.43	4503.48
425.64	4763.58
425.85	4622.27
426.06	4523.96
426.28	4501.44
426.49	4493.24
426.70	4530.11
426.91	4597.69
427.12	4429.76
427.33	4505.53
427.54	4472.76
427.75	4794.29
427.96	4685.75
428.17	4779.96
428.38	4782.01
428.59	4784.06
428.80	4677.56
429.01	4714.42
429.23	4779.96
429.44	4974.52
429.65	4960.18
429.86	4798.39
430.07	4841.40
430.28	4896.69
430.49	5105.59
430.70	5066.67
430.91	5083.06
431.12	4896.69
431.33	5085.11
431.54	5101.49
431.75	5038.00
431.96	4902.84
432.17	5193.65
432.38	5148.59
432.59	5257.14
432.80	5461.93
433.01	5347.25
433.22	5386.16
433.43	5205.94
433.64	5261.23
433.85	5128.11
434.06	5406.64
434.27	5156.79
434.49	5345.20
434.70	5468.08
434.91	5410.73
435.12	5613.48
435.33	5451.69
435.54	5367.73
435.75	5414.83
435.96	5382.06
436.17	5527.47
436.38	5697.45
436.59	5762.98
436.80	5633.96
437.01	5898.15
437.22	5846.95
437.43	5672.87
437.64	5455.79
437.85	5865.38
438.06	5740.46
438.27	5672.87
438.48	5691.31
438.69	5965.73
438.90	5773.22
439.11	5787.56
439.32	5945.25
439.53	5822.38
439.74	5836.71
439.95	6023.08
440.16	5857.19
440.37	6082.47
440.57	5875.62
440.78	5992.36
440.99	6016.93
441.20	5943.21
441.41	5935.01
441.62	6049.70
441.83	5951.40
442.04	6238.11
442.25	6080.42
442.46	6248.35
442.67	6340.51
442.88	6487.96
443.09	6045.60
443.30	6135.71
443.51	6299.55
443.72	6662.04
443.93	6352.80
444.14	6434.72
444.35	6246.30
444.56	6406.05
444.77	6381.47
444.98	6420.38
445.19	6420.38
445.40	6457.25
445.61	6516.64
445.81	6662.04
446.02	6625.18
446.23	6469.53
446.44	6451.10
446.65	6588.32
446.86	6625.18
447.07	6737.82
447.28	6868.89
447.49	6842.26
447.70	6713.24
447.91	6664.09
448.12	6825.88
448.33	6995.86
448.54	6971.29
448.74	6684.57
448.95	6823.83
449.16	6803.35
449.37	7192.47
449.58	6997.91
449.79	7227.28
450.00	6809.50
450.21	7079.83
450.42	7088.02
450.63	7133.08
450.84	7217.04
451.05	7280.53
451.25	7161.75
451.46	7169.94
451.67	7348.11
451.88	7419.79
452.09	7237.52
452.30	7065.49
452.51	7407.50
452.72	7397.26
452.93	7847.82
453.13	7258.00
453.34	7393.17
453.55	7335.82
453.76	7505.81
453.97	7958.41
454.18	7481.23
454.39	7767.95
454.60	7655.31
454.81	7593.87
455.01	7749.51
455.22	7370.64
455.43	7899.02
455.64	8202.11
455.85	7868.30
456.06	8132.48
456.27	7964.55
456.48	7796.62
456.68	8021.89
456.89	8021.89
457.10	8060.80
457.31	8099.72
457.52	8093.57
457.73	8163.20
457.94	8400.77
458.14	7966.60
458.35	8435.58
458.56	8501.12
458.77	8241.03
458.98	8365.95
459.19	8122.24
459.39	8413.06
459.60	8718.20
459.81	8456.06
460.02	8542.08
460.23	8537.98
460.44	8888.18
460.65	8777.59
460.85	8677.24
461.06	8869.75
461.27	8576.89
461.48	8957.82
461.69	9099.13
461.89	8675.20
462.10	9097.08
462.31	8722.30
462.52	8746.87
462.73	8986.49
462.94	9287.54
463.14	9138.04
463.35	8963.96
463.56	9592.69
463.77	9508.72
463.98	9379.70
464.18	9332.59
464.39	9609.07
464.60	9650.03
464.81	9750.38
465.02	9437.04
465.23	9906.02
465.43	9645.93
465.64	9801.58
465.85	9844.59
466.06	9750.38
466.27	10217.32
466.47	9967.46
466.68	9871.21
466.89	9897.83
467.10	10198.88
467.30	9906.02
467.51	10182.50
467.72	10471.26
467.93	10268.52
468.14	10280.80
468.34	10538.85
468.55	10315.62
468.76	10741.60
468.97	10342.24
469.17	10512.22
469.38	10821.47
469.59	10727.26
469.80	10725.21
470.01	10819.42
470.21	10932.06
470.42	11042.65
470.63	11018.07
470.84	11007.83
471.04	11163.48
471.25	11255.64
471.46	11247.44
471.67	11630.41
471.87	11341.65
472.08	11294.55
472.29	11501.39
472.50	11216.72
472.70	11452.24
472.91	11493.20
473.12	11800.40
473.33	11757.39
473.53	11986.76
473.74	11796.30
473.95	11982.67
474.16	12318.53
474.36	12361.54
474.57	12296.00
474.78	12439.36
474.99	12377.92
475.19	12224.33
475.40	12619.58
475.61	12750.65
475.81	12920.63
476.02	13014.84
476.23	12867.39
476.44	12975.93
476.64	13248.31
476.85	13494.07
477.06	13154.10
477.27	13414.20
477.47	13379.38
477.68	13473.59
477.89	13819.69
478.09	13805.36
478.30	13836.08
478.51	13575.98
478.71	13797.17
478.92	14130.98
479.13	14157.61
479.34	14235.43
479.54	14348.07
479.75	14329.64
479.96	14272.29
480.16	14315.30
480.37	14401.32
480.58	14669.60
480.78	14757.66
480.99	14638.88
481.20	14997.28
481.41	15071.00
481.61	15027.99
481.82	15394.58
482.03	15064.86
482.23	15273.75
482.44	15484.69
482.65	15660.82
482.85	15734.54
483.06	15507.22
483.27	15818.51
483.47	15961.87
483.68	15656.72
483.89	16103.18
484.09	15965.96
484.30	16181.00
484.51	16418.57
484.71	16525.06
484.92	16586.50
485.13	16647.94
485.33	16781.06
485.54	16625.41
485.75	17014.52
485.95	16922.37
486.16	17022.72
486.37	17145.59
486.57	17336.06
486.78	17262.33
486.98	17460.98
487.19	17540.85
487.40	17649.39
487.60	17653.49
487.81	17911.53
488.02	17647.35
488.22	17680.11
488.43	17886.96
488.64	18185.96
488.84	18237.16
489.05	18392.81
489.25	18261.74
489.46	18677.48
489.67	18534.12
489.87	18923.23
490.08	18781.92
490.29	18894.56
490.49	19171.04
490.70	19105.50
490.90	19269.34
491.11	19023.58
491.32	19392.22
491.52	19316.44
491.73	19431.13
491.94	19625.68
492.14	19666.64
492.35	19570.39
492.55	20225.74
492.76	20055.76
492.97	20166.35
493.17	20362.95
493.38	20123.34
493.58	20342.47
493.79	20238.03
494.00	20702.92
494.20	20356.81
494.41	20799.17
494.61	20836.03
494.82	20635.33
495.02	20836.03
495.23	21096.13
495.44	21399.23
495.64	21276.35
495.85	21501.62
496.05	21632.69
496.26	21360.31
496.47	21765.81
496.67	21624.50
496.88	22025.90
497.08	21282.49
497.29	21903.03
497.49	21980.85
497.70	21946.03
497.91	22087.34
498.11	22306.48
498.32	22703.78
498.52	22523.56
498.73	22546.09
498.93	22711.97
499.14	22402.73
499.34	22648.49
499.55	23158.43
499.76	23076.51
499.96	23154.33
500.17	23264.92
500.37	23445.15
500.58	23432.86
500.78	23588.50
500.99	23520.92
501.19	23670.42
501.40	23432.86
501.60	23385.76
501.81	23738.01
502.02	23760.53
502.22	23594.65
502.43	23967.38
502.63	24206.99
502.84	24399.50
503.04	24383.12
503.25	24411.79
503.45	24284.81
503.66	24129.17
503.86	24460.94
504.07	24657.54
504.27	24293.01
504.48	24788.61
504.68	24716.93
504.89	25058.95
505.09	24964.74
505.30	25210.50
505.50	24901.25
505.71	25245.31
505.91	25396.86
506.12	25099.90
506.32	25415.29
506.53	25273.98
506.73	25777.78
506.94	25681.53
507.14	25749.11
507.35	25884.28
507.55	25669.24
507.76	25974.39
507.96	25908.85
508.17	25882.23
508.37	25839.22
508.58	26158.70
508.78	26234.48
508.99	26488.43
509.19	26422.89
509.40	26181.23
509.60	26570.35
509.81	26443.37
510.01	26693.22
510.22	26482.28
510.42	26822.25
510.63	26582.63
510.83	26924.65
511.04	26986.08
511.24	27278.94
511.44	27219.55
511.65	27180.64
511.85	27207.26
512.06	27242.08
512.26	27432.54
512.47	27561.56
512.67	27289.18
512.88	27790.94
513.08	27596.38
513.29	27774.55
513.49	27676.25
513.69	27745.88
513.90	27651.67
514.10	27686.49
514.31	27915.86
514.51	27962.97
514.72	27911.77
514.92	28083.80
515.13	27940.44
515.33	28335.70
515.53	28608.08
515.74	28329.55
515.94	28282.45
516.15	28558.92
516.35	28157.52
516.56	28493.39
516.76	28880.46
516.96	28419.66
517.17	29105.73
517.37	28802.63
517.58	29034.05
517.78	29015.62
517.99	29083.20
518.19	29449.79
518.39	29206.08
518.60	29505.09
518.80	29244.99
519.01	29382.21
519.21	29359.68
519.41	29689.40
519.62	29496.89
519.82	30107.19
520.03	30002.74
520.23	29793.85
520.43	29746.75
520.64	30299.70
520.84	30465.58
521.05	30123.57
521.25	30139.96
521.45	30469.68
521.66	30518.83
521.86	30330.42
522.07	30379.57
522.27	30473.78
522.47	30473.78
522.68	30539.31
522.88	30846.51
523.08	30658.09
523.29	30670.38
523.49	30756.39
523.70	31258.15
523.90	31413.79
524.10	31266.34
524.31	31573.53
524.51	31335.97
524.71	31594.01
524.92	31405.60
525.12	31600.16
525.33	31553.05
525.53	31995.42
525.73	32138.77
525.94	31968.79
526.14	31872.54
526.34	32069.14
526.55	32196.12
526.75	32331.28
526.95	32521.74
527.16	32364.05
527.36	32362.00
527.56	32495.12
527.77	32992.78
527.97	32962.06
528.17	33052.17
528.38	33056.26
528.58	32890.38
528.78	32955.91
528.99	33132.04
529.19	33078.79
529.39	33035.78
529.60	33648.13
529.80	33525.25
530.00	33680.89
530.21	33658.37
530.41	33734.14
530.61	33828.35
530.82	33947.13
531.02	33799.68
531.22	33816.06
531.43	33857.02
531.63	34125.30
531.83	34246.13
532.04	34582.00
532.24	34305.52
532.44	34680.30
532.64	34743.79
532.85	34764.27
533.05	34616.82
533.25	34582.00
533.46	34702.83
533.66	35171.82
533.86	35196.39
534.07	35460.58
534.27	35169.77
534.47	35788.25
534.67	36015.58
534.88	35188.20
535.08	35263.97
535.28	36058.59
535.49	35823.07
535.69	36070.87
535.89	36126.17
536.09	36005.34
536.30	36281.81
536.50	36236.76
536.70	36171.22
536.91	36263.38
537.11	36457.94
537.31	36613.59
537.51	36453.84
537.72	36959.69
537.92	36947.40
538.12	37268.94
538.32	36871.63
538.53	37164.49
538.73	36867.53
538.93	36779.47
539.13	36992.46
539.34	36947.40
539.54	37051.85
539.74	37594.56
539.94	37604.80
540.15	37459.40
540.35	37584.32
540.55	37389.77
540.75	37305.80
540.96	37436.87
541.16	37739.97
541.36	37807.55
541.56	37828.03
541.77	38106.55
541.97	37987.77
542.17	38120.89
542.37	38180.28
542.58	38118.84
542.78	37969.34
542.98	38149.56
543.18	38356.41
543.38	38618.55
543.59	38550.96
543.79	38407.61
543.99	38593.97
544.19	38649.27
544.40	38438.33
544.60	38675.89
544.80	38530.48
545.00	38778.29
545.20	39007.66
545.41	39181.74
545.61	38696.37
545.81	39286.18
546.01	39269.80
546.21	38868.40
546.42	39374.25
546.62	39441.83
546.82	39142.83
547.02	39263.66
547.22	39359.91
547.43	39646.63
547.63	39306.66
547.83	39388.58
548.03	39202.22
548.23	39310.76
548.44	39536.04
548.64	39390.63
548.84	39959.97
549.04	39605.67
549.24	39921.05
549.45	40002.97
549.65	39849.38
549.85	39685.54
550.05	39945.63
550.25	39998.88
550.45	40500.63
550.66	39970.21
550.86	40023.45
551.06	40451.48
551.26	40486.29
551.46	40510.87
551.66	40070.56
551.87	40160.67
552.07	40529.30
552.27	40623.51
552.47	40250.78
552.67	40605.08
552.87	40336.79
553.07	40383.90
553.28	41078.16
553.48	40592.79
553.68	40703.38
553.88	40689.04
554.08	40680.85
554.28	41035.15
554.48	40457.62
554.69	41211.28
554.89	40797.59
555.09	41014.67
555.29	40777.11
555.49	41221.52
555.69	41104.78
555.89	41444.74
556.10	41207.18
556.30	40926.61
556.50	41108.88
556.70	40924.56
556.90	41309.58
557.10	41164.17
557.30	40703.38
557.50	41643.40
557.70	41231.75
557.91	41121.16
558.11	41516.42
558.31	41590.15
558.51	41260.43
558.71	41645.44
558.91	41735.56
559.11	41516.42
559.31	41471.37
559.51	41346.44
559.72	41596.29
559.92	41608.58
560.12	41383.30
560.32	41842.05
560.52	41518.47
560.72	41692.55
560.92	42032.51
561.12	41874.82
561.32	42222.97
561.52	41608.58
561.72	42607.99
561.93	41643.40
562.13	42024.32
562.33	42096.00
562.53	42728.82
562.73	41784.71
562.93	42106.24
563.13	42085.76
563.33	42145.15
563.53	42571.13
563.73	42028.41
563.93	42231.16
564.13	42515.83
564.33	42501.50
564.53	42405.24
564.74	42589.56
564.94	42448.25
565.14	42526.07
565.34	42759.54
565.54	42374.52
565.74	42665.33
565.94	42737.01
566.14	42827.12
566.34	42438.01
566.54	43054.45
566.74	42706.29
566.94	42710.39
567.14	43371.88
567.34	42837.36
567.54	43109.74
567.74	42732.92
567.94	42769.78
568.14	43023.73
568.34	43443.56
568.54	43251.05
568.74	43375.98
568.94	42931.57
569.14	43537.77
569.34	43451.75
569.54	43509.10
569.75	43132.27
569.95	43292.01
570.15	43369.83
570.35	43361.64
570.55	43431.27
570.75	43662.69
570.95	43529.58
571.15	43638.12
571.35	43664.74
571.55	44039.52
571.75	43998.56
571.95	43791.72
572.15	43855.20
572.35	43842.92
572.55	43998.56
572.75	44158.30
572.95	44082.53
573.15	43855.20
573.35	43847.01
573.55	43980.13
573.75	43961.70
573.95	44283.23
574.15	44299.61
574.35	44729.69
574.55	44225.89
574.75	44242.27
574.95	44381.53
575.15	44649.81
575.34	44780.88
575.54	44707.16
575.74	45073.74
575.94	45112.66
576.14	44578.14
576.34	44981.59
576.54	45231.44
576.74	44948.82
576.94	45180.24
577.14	45512.01
577.34	45532.49
577.54	45059.41
577.74	45266.25
577.94	45471.05
578.14	45276.49
578.34	45792.58
578.54	45378.89
578.74	45147.47
578.94	45704.52
579.14	45729.09
579.34	45641.03
579.54	45817.16
579.74	46003.52
579.94	46134.59
580.13	46359.87
580.33	46024.00
580.53	46185.79
580.73	46005.57
580.93	46273.85
581.13	45991.23
581.33	46288.19
581.53	46535.99
581.73	46431.55
581.93	46732.60
582.13	46855.48
582.33	46781.75
582.53	46896.44
582.73	47023.41
582.92	46751.03
583.12	47138.10
583.32	47203.63
583.52	46732.60
583.72	47084.85
583.92	47000.88
584.12	47220.02
584.32	47611.18
584.52	47699.24
584.72	47531.31
584.92	47719.72
585.11	47985.96
585.31	47613.23
585.51	48024.87
585.71	47863.08
585.91	48119.07
586.11	47942.95
586.31	48157.99
586.51	48071.97
586.71	48162.08
586.91	48039.20
587.10	48080.16
587.30	48522.52
587.50	48928.02
587.70	48768.28
587.90	48495.90
588.10	48401.69
588.30	48524.57
588.50	48768.28
588.69	48833.81
588.89	49237.26
589.09	48774.42
589.29	49157.39
589.49	49704.20
589.69	48696.60
589.89	49437.97
590.08	49059.09
590.28	48743.70
590.48	48987.41
590.68	49319.18
590.88	49313.04
591.08	49335.57
591.28	49055.00
591.47	49800.46
591.67	49648.91
591.87	49605.90
592.07	49265.94
592.27	49829.13
592.47	49831.18
592.67	49925.38
592.86	49689.87
593.06	50048.26
593.26	50242.82
593.46	50085.12
593.66	50013.44
593.86	50318.59
594.05	50394.37
594.25	50550.01
594.45	50146.56
594.65	50572.54
594.85	50115.84
595.05	50928.89
595.24	50836.73
595.44	50775.29
595.64	50881.78
595.84	51139.83
596.04	51369.20
596.23	51172.60
596.43	51672.30
596.63	51285.23
596.83	51051.76
597.03	51434.74
597.22	51617.00
597.42	51344.62
597.62	51563.76
597.82	51844.33
598.02	51535.09
598.21	51766.51
598.41	51361.01
598.61	51911.91
598.81	52018.41
599.01	52276.45
599.20	51993.83
599.40	51741.93
599.60	52065.51
599.80	52073.70
600.00	52114.66
600.19	52630.75
600.39	52583.65
600.59	52466.91
600.79	52378.85
600.98	52616.41
601.18	52557.02
601.38	52739.29
601.58	52712.67
601.78	53087.45
601.97	53019.86
602.17	52954.33
602.37	53329.11
602.57	53093.59
602.76	53607.63
602.96	52950.23
603.16	53458.13
603.36	53517.52
603.55	53828.81
603.75	53255.38
603.95	53847.24
604.15	53943.50
604.34	53232.85
604.54	53748.94
604.74	54133.96
604.94	54166.73
605.13	53794.00
605.33	53761.23
605.53	54295.75
605.73	54142.15
605.92	54236.36
606.12	54207.68
606.32	54678.72
606.52	54076.61
606.71	54324.42
606.91	54688.96
607.11	54488.26
607.30	54699.20
607.50	54179.01
607.70	55198.90
607.90	54564.03
608.09	54944.95
608.29	54860.99
608.49	55235.77
608.68	55043.26
608.88	54850.75
609.08	54979.77
609.28	55440.56
609.47	54916.28
609.67	55592.11
609.87	54588.61
610.06	55635.12
610.26	55356.60
610.46	55696.56
610.66	55518.38
610.85	55469.23
611.05	55385.27
611.25	55608.50
611.44	55321.78
611.64	55805.10
611.84	55317.68
612.03	55321.78
612.23	55502.00
612.43	55465.14
612.62	55651.50
612.82	55497.91
613.02	55581.87
613.21	55729.33
613.41	55948.46
613.61	55841.96
613.80	55522.48
614.00	55430.32
614.20	55684.27
614.39	55975.08
614.59	56087.72
614.79	55952.55
614.98	55551.15
615.18	55866.54
615.38	55901.36
615.57	55852.20
615.77	56431.78
615.97	56239.27
616.16	56095.91
616.36	56194.21
616.56	56427.68
616.75	55940.27
616.95	56065.19
617.15	56192.17
617.34	56284.33
617.54	56130.73
617.74	56466.59
617.93	56331.43
618.13	55893.16
618.32	55977.13
618.52	56093.86
618.72	56011.95
618.91	56616.10
619.11	56229.03
619.31	56468.64
619.50	56253.61
619.70	55573.68
619.90	56104.10
620.09	56409.25
620.29	55833.77
620.48	56472.74
620.68	56358.05
620.88	55643.31
621.07	56491.17
621.27	55837.87
621.46	55905.45
621.66	56003.75
621.86	55942.31
622.05	56038.57
622.25	55960.75
622.44	56292.52
622.64	55792.81
622.84	56339.62
623.03	56042.66
623.23	56114.34
623.42	56048.81
623.62	56235.17
623.82	56452.26
624.01	56317.09
624.21	56525.99
624.40	56204.45
624.60	56050.86
624.80	55993.51
624.99	56161.45
625.19	55839.92
625.38	55907.50
625.58	55862.44
625.77	56478.88
625.97	56470.69
626.17	56036.52
626.36	56067.24
626.56	56011.95
626.75	55764.14
626.95	56663.20
627.14	55862.44
627.34	56399.01
627.54	56040.62
627.73	56257.70
627.93	56173.73
628.12	55526.58
628.32	55700.65
628.51	56247.46
628.71	56257.70
628.90	56075.43
629.10	55753.90
629.30	55909.55
629.49	56196.26
629.69	56132.78
629.88	56329.38
630.08	56669.34
630.27	56460.45
630.47	56456.35
630.66	56188.07
630.86	56505.51
631.05	55741.61
631.25	56718.49
631.44	56343.72
631.64	56243.37
631.84	56693.92
632.03	56773.79
632.23	55958.70
632.42	56087.72
632.62	56411.30
632.81	55977.13
633.01	56302.76
633.20	56405.16
633.40	56382.63
633.59	56100.01
633.79	55653.55
633.98	55932.07
634.18	56327.33
634.37	56212.65
634.57	56212.65
634.76	56554.66
634.96	56214.69
635.15	55870.64
635.35	55913.64
635.54	56253.61
635.74	56210.60
635.93	55788.72
636.13	56376.48
636.32	56245.41
636.52	55469.23
636.71	56456.35
636.91	56382.63
637.10	56747.17
637.30	56265.89
637.49	56341.67
637.69	56157.35
637.88	56591.52
638.08	55612.59
638.27	56583.33
638.46	56329.38
638.66	55844.01
638.85	56255.65
639.05	55919.79
639.24	56427.68
639.44	56210.60
639.63	56482.98
639.83	56349.86
640.02	55979.18
640.22	56321.19
640.41	56743.07
640.61	56163.50
640.80	56118.44
640.99	56341.67
641.19	56724.64
641.38	56128.68
641.58	55852.20
641.77	56194.21
641.97	56163.50
642.16	56192.17
642.36	56759.45
642.55	56749.21
642.74	55919.79
642.94	56460.45
643.13	55758.00
643.33	56767.65
643.52	56491.17
643.72	56280.23
643.91	55997.61
644.10	56122.54
644.30	56599.71
644.49	56329.38
644.69	56384.68
644.88	56198.31
645.08	56013.99
645.27	56409.25
645.46	56048.81
645.66	56458.40
645.85	56046.76
646.05	56575.14
646.24	56583.33
646.43	56564.90
646.63	56562.85
646.82	56691.87
647.02	56450.21
647.21	56898.72
647.40	56450.21
647.60	56433.83
647.79	56788.13
647.99	55946.41
648.18	56495.27
648.37	56751.26
648.57	56525.99
648.76	56065.19
648.96	55440.56
649.15	56261.80
649.34	56300.71
649.54	56392.87
649.73	56388.77
649.92	56634.53
650.12	56122.54
650.31	56755.36
650.51	56691.87
650.70	56562.85
650.89	56706.21
651.09	57044.12
651.28	56392.87
651.47	56579.23
651.67	56669.34
651.86	56632.48
652.06	56083.62
652.25	56413.35
652.44	56071.34
652.64	56253.61
652.83	56198.31
653.02	56061.10
653.22	56562.85
653.41	56194.21
653.60	56378.53
653.80	56159.40
653.99	56865.95
654.18	56433.83
654.38	56079.53
654.57	56308.90
654.76	56310.95
654.96	56333.48
655.15	56106.15
655.34	56087.72
655.54	55936.17
655.73	56435.87
655.92	56528.03
656.12	56257.70
656.31	56261.80
656.50	56325.28
656.70	55985.32
656.89	56024.23
657.08	56028.33
657.28	56417.44
657.47	56061.10
657.66	56036.52
657.86	56392.87
658.05	56464.55
658.24	56448.16
658.43	56034.47
658.63	55997.61
658.82	56597.66
659.01	56710.30
659.21	56169.64
659.40	56224.93
659.59	56085.67
659.79	55940.27
659.98	56399.01
660.17	56194.21
660.36	56280.23
660.56	56366.24
660.75	56534.18
660.94	56048.81
661.14	55948.46
661.33	55882.92
661.52	55841.96
661.71	56597.66
661.91	56028.33
662.10	56202.41
662.29	56016.04
662.49	56134.82
662.68	56294.56
662.87	55946.41
663.06	56183.97
663.26	56196.26
663.45	56343.72
663.64	56153.26
663.83	56370.34
664.03	56243.37
664.22	56251.56
664.41	56409.25
664.60	55887.02
664.80	56261.80
664.99	56243.37
665.18	55725.23
665.37	55907.50
665.57	56288.42
665.76	55946.41
665.95	55776.43
666.14	55907.50
666.34	55932.07
666.53	55702.70
666.72	55735.47
666.91	56022.19
667.11	55311.54
667.30	55827.63
667.49	55616.69
667.68	55731.37
667.87	55319.73
668.07	56046.76
668.26	55682.22
668.45	55694.51
668.64	55547.06
668.84	56290.47
669.03	56190.12
669.22	55481.52
669.41	55899.31
669.60	55827.63
669.80	55762.09
669.99	55907.50
670.18	55821.48
670.37	55514.29
670.57	55749.81
670.76	55958.70
670.95	56042.66
671.14	55727.28
671.33	55434.42
671.53	55708.85
671.72	56032.42
671.91	55665.84
672.10	55338.16
672.29	55395.51
672.48	55209.14
672.68	55811.24
672.87	55575.73
673.06	55792.81
673.25	55418.03
673.44	55065.78
673.64	55262.39
673.83	54942.91
674.02	55159.99
674.21	54889.66
674.40	55809.20
674.59	55272.63
674.79	55194.81
674.98	55170.23
675.17	55645.36
675.36	54695.10
675.55	55540.91
675.74	55495.86
675.94	54795.45
676.13	55637.17
676.32	55153.85
676.51	55420.08
676.70	55352.50
676.89	55319.73
677.08	55352.50
677.28	55055.54
677.47	55170.23
677.66	55225.53
677.85	54985.91
678.04	54953.15
678.23	55307.44
678.42	55737.52
678.62	55055.54
678.81	55397.55
679.00	54883.51
679.19	55553.20
679.38	54852.80
679.57	54985.91
679.76	54906.04
679.96	55657.65
680.15	54863.03
680.34	54736.06
680.53	54580.42
680.72	55125.17
680.91	55442.61
681.10	54801.60
681.29	55207.09
681.48	54736.06
681.68	54566.08
681.87	54615.23
682.06	55018.68
682.25	54166.73
682.44	54320.32
682.63	54903.99
682.82	54183.11
683.01	54613.18
683.20	54488.26
683.39	54310.08
683.59	54152.39
683.78	54451.39
683.97	54172.87
684.16	54697.15
684.35	54197.44
684.54	54080.71
684.73	53988.55
684.92	54285.51
685.11	54209.73
685.30	54142.15
685.49	54791.36
685.69	54082.76
685.88	54156.49
686.07	53920.97
686.26	54166.73
686.45	54666.43
686.64	54146.25
686.83	54392.00
687.02	54193.35
687.21	54777.02
687.40	54224.07
687.59	54039.75
687.78	54009.03
687.97	54383.81
688.16	54334.66
688.35	54011.08
688.54	53884.11
688.74	54035.66
688.93	54209.73
689.12	53896.39
689.31	53505.23
689.50	53982.41
689.69	53474.51
689.88	53818.57
690.07	53734.60
690.26	53621.97
690.45	54236.36
690.64	53824.71
690.83	53750.99
691.02	53646.54
691.21	53322.96
691.40	53583.05
691.59	53701.84
691.78	53703.88
691.97	54273.22
692.16	53482.70
692.35	53834.95
692.54	53615.82
692.73	53566.67
692.92	53667.02
693.11	53632.21
693.30	53124.31
693.49	53761.23
693.68	53578.96
693.87	53693.64
694.06	53212.37
694.25	52679.90
694.44	53339.35
694.63	53152.98
694.82	53581.01
695.01	53212.37
695.20	53296.34
695.39	53058.77
695.58	53458.13
695.77	53353.68
695.96	53023.96
696.15	52966.62
696.34	53492.94
696.53	53136.60
696.72	53048.53
696.91	52999.38
697.10	53441.74
697.29	52950.23
697.48	53157.08
697.67	52935.90
697.86	52903.13
698.05	52903.13
698.24	52991.19
698.43	52720.86
698.62	53142.74
698.81	52602.08
699.00	53155.03
699.19	52692.19
699.38	52894.94
699.57	52530.40
699.76	53114.07
699.95	52741.34
700.14	52229.35
700.32	52839.64
700.51	52413.66
700.70	53177.56
700.89	53179.60
701.08	52610.27
701.27	52747.48
701.46	53187.80
701.65	52215.01
701.84	52354.27
702.03	52630.75
702.22	52532.45
702.41	52843.74
702.60	52409.57
702.79	52145.38
702.98	52503.77
703.17	52438.24
703.35	52129.00
703.54	52221.16
703.73	52225.25
703.92	52096.23
704.11	52022.50
704.30	51819.75
704.49	52172.00
704.68	52026.60
704.87	52163.81
705.06	51764.46
705.25	51893.48
705.43	52180.20
705.62	52182.24
705.81	52272.35
706.00	52423.90
706.19	51909.86
706.38	51688.68
706.57	52016.36
706.76	51483.89
706.95	51598.57
707.14	51541.23
707.32	52004.07
707.51	51508.46
707.70	51858.66
707.89	51655.92
708.08	52008.17
708.27	51979.49
708.46	52053.22
708.65	51770.60
708.84	51723.50
709.02	51721.45
709.21	51911.91
709.40	51733.74
709.59	51617.00
709.78	51119.35
709.97	51756.27
710.16	51356.91
710.34	51299.57
710.53	51336.43
710.72	51107.06
710.91	51459.31
711.10	51574.00
711.29	51649.77
711.48	51180.79
711.66	51725.55
711.85	51285.23
712.04	51123.44
712.23	51459.31
712.42	51789.03
712.61	51594.48
712.80	51174.64
712.98	51315.95
713.17	50808.06
713.36	51295.47
713.55	51188.98
713.74	50996.47
713.93	50939.13
714.11	51084.53
714.30	50959.61
714.49	51166.45
714.68	51090.68
714.87	51328.24
715.06	51201.27
715.24	50945.27
715.43	50623.74
715.62	50691.32
715.81	50349.31
716.00	51041.53
716.18	51025.14
716.37	50621.69
716.56	50408.70
716.75	51006.71
716.94	50660.60
717.12	50189.57
717.31	50767.10
717.50	50693.37
717.69	50048.26
717.88	50517.25
718.06	50619.64
718.25	50754.81
718.44	50230.53
718.63	50232.58
718.82	50015.49
719.00	50074.88
719.19	50339.07
719.38	50425.09
719.57	49870.09
719.76	49825.03
719.94	49673.48
720.13	49943.81
720.32	49800.46
720.51	50148.61
720.69	50007.30
720.88	49540.36
721.07	49702.15
721.26	49272.08
721.44	49460.49
721.63	49620.23
721.82	49261.84
722.01	49337.62
722.20	49814.79
722.38	49483.02
722.57	49206.55
722.76	49478.92
722.95	49601.80
723.13	49095.95
723.32	49079.57
723.51	48815.38
723.70	48698.65
723.88	49243.41
724.07	48645.40
724.26	49489.16
724.44	48708.89
724.63	48807.19
724.82	48813.34
725.01	48923.93
725.19	49071.38
725.38	48805.14
725.57	49255.70
725.76	49345.81
725.94	48893.21
726.13	48842.01
726.32	48821.53
726.51	48356.64
726.69	48702.74
726.88	49429.77
727.07	48885.01
727.25	48690.46
727.44	48620.83
727.63	48553.24
727.82	48485.66
728.00	48454.94
728.19	48661.79
728.38	48702.74
728.56	48444.70
728.75	48602.39
728.94	48641.31
729.12	48997.65
729.31	48831.77
729.50	48461.08
729.69	48725.27
729.87	48207.14
730.06	48395.55
730.25	48995.60
730.43	48993.56
730.62	48409.89
730.81	48755.99
730.99	48764.18
731.18	48583.96
731.37	48805.14
731.55	48979.22
731.74	48952.60
731.93	48405.79
732.11	48563.48
732.30	48399.65
732.49	48086.31
732.67	48706.84
732.86	48411.93
733.05	48495.90
733.23	48151.84
733.42	48616.73
733.61	48876.82
733.79	48645.40
733.98	48725.27
734.17	48610.59
734.35	48596.25
734.54	48321.82
734.73	48729.37
734.91	48602.39
735.10	48327.97
735.29	48837.91
735.47	48436.51
735.66	48553.24
735.84	48452.89
736.03	48016.68
736.22	48686.36
736.40	48305.44
736.59	48553.24
736.78	48117.03
736.96	48045.35
737.15	48289.06
737.33	48037.16
737.52	48211.23
737.71	48063.78
737.89	48086.31
738.08	48041.25
738.27	48284.96
738.45	48403.74
738.64	48248.10
738.82	48186.66
739.01	48434.46
739.20	48061.73
739.38	47979.81
739.57	48397.60
739.75	48248.10
739.94	48051.49
740.13	47525.16
740.31	47744.30
740.50	47936.80
740.68	48110.88
740.87	48301.34
741.06	48151.84
741.24	47869.22
741.43	47932.71
741.61	48121.12
741.80	47670.57
741.99	47895.85
742.17	48053.54
742.36	47914.28
742.54	47791.40
742.73	47930.66
742.91	48184.61
743.10	47904.04
743.29	47945.00
743.47	47877.41
743.66	47580.46
743.84	47781.16
744.03	47619.37
744.21	47770.92
744.40	47924.52
744.59	47715.62
744.77	47318.32
744.96	47363.37
745.14	47609.13
745.33	47711.53
745.51	47570.22
745.70	47719.72
745.88	47330.61
746.07	47813.93
746.26	47312.17
746.44	47158.58
746.63	47433.00
746.81	47473.96
747.00	47324.46
747.18	47488.30
747.37	47392.04
747.55	46769.46
747.74	47670.57
747.92	47211.82
748.11	47174.96
748.29	47125.81
748.48	46773.56
748.66	46636.34
748.85	47093.04
749.03	46953.78
749.22	47215.92
749.41	46701.88
749.59	47011.12
749.78	46851.38
749.96	46808.37
750.15	47142.19
750.33	47181.10
750.52	46904.63
750.70	46921.01
750.89	46511.42
751.07	46456.12
751.26	46411.07
751.44	46406.97
751.63	46728.50
751.81	46306.62
752.00	46247.23
752.18	46456.12
752.37	46482.75
752.55	46105.92
752.74	46439.74
752.92	46245.18
753.10	46599.48
753.29	46579.00
753.47	46464.32
753.66	45786.44
753.84	46732.60
754.03	46083.39
754.21	46044.48
754.40	46363.96
754.58	46214.46
754.77	46171.46
754.95	46101.82
755.14	46003.52
755.32	46003.52
755.51	45634.89
755.69	45839.68
755.88	45782.34
756.06	45628.74
756.24	45985.09
756.43	46062.91
756.61	45909.32
756.80	45978.95
756.98	45417.80
757.17	45526.35
757.35	45745.48
757.54	45665.61
757.72	45751.62
757.90	45647.18
758.09	45503.82
758.27	45567.30
758.46	45423.95
758.64	45432.14
758.83	45725.00
759.01	45483.34
759.19	45432.14
759.38	45387.08
759.56	45479.24
759.75	45065.55
759.93	45358.41
760.12	45200.72
760.30	45086.03
760.48	45034.83
760.67	45092.18
760.85	45022.54
761.04	45194.57
761.22	45094.22
761.40	44883.28
761.59	45090.13
761.77	44504.41
761.96	44827.99
762.14	44678.49
762.32	44522.84
762.51	44528.98
762.69	44473.69
762.88	44619.10
763.06	44817.75
763.24	45081.94
763.43	44359.00
763.61	44080.48
763.80	44293.47
763.98	44068.19
764.16	44418.39
764.35	44010.85
764.53	44166.49
764.72	44119.39
764.90	44348.76
765.08	44252.51
765.27	44168.54
765.45	43672.93
765.63	43560.30
765.82	44248.41
766.00	43541.86
766.18	44346.72
766.37	43918.69
766.55	43988.32
766.74	43664.74
766.92	44012.90
767.10	43539.82
767.29	43832.68
767.47	43015.54
767.65	44094.82
767.84	43138.41
768.02	43849.06
768.20	43525.48
768.39	43527.53
768.57	42993.01
768.75	43339.11
768.94	43541.86
769.12	43468.14
769.30	43304.30
769.49	43652.45
769.67	43011.44
769.85	43031.92
770.04	42995.06
770.22	42950.00
770.40	42751.35
770.59	42593.65
770.77	43064.69
770.95	42614.13
771.14	42657.14
771.32	42519.93
771.50	42524.02
771.69	42253.69
771.87	43013.49
772.05	42497.40
772.24	42124.67
772.42	42341.75
772.60	42388.86
772.78	42364.28
772.97	42210.68
773.15	42343.80
773.33	42286.46
773.52	41999.74
773.70	42014.08
773.88	42605.94
774.07	42229.12
774.25	41772.42
774.43	42333.56
774.61	42055.04
774.80	42177.92
774.98	42304.89
775.16	42392.95
775.34	42229.12
775.53	41723.27
775.71	42366.33
775.89	41923.97
776.08	42124.67
776.26	42497.40
776.44	42339.71
776.62	41870.72
776.81	42196.35
776.99	42370.43
777.17	42175.87
777.35	42276.22
777.54	42333.56
777.72	42247.55
777.90	42278.27
778.08	42487.16
778.27	42425.72
778.45	42794.36
778.63	42734.96
778.81	42276.22
779.00	42999.15
779.18	42161.53
779.36	42794.36
779.54	42470.78
779.73	42751.35
779.91	43025.78
780.09	42769.78
780.27	42997.10
780.46	42739.06
780.64	43054.45
780.82	42919.28
781.00	42741.11
781.19	42960.24
781.37	43040.11
781.55	42747.25
781.73	43251.05
781.91	42788.21
782.10	42861.94
782.28	43230.57
782.46	43066.73
782.64	43134.32
782.82	42698.10
783.01	43378.03
783.19	43296.11
783.37	42849.65
783.55	42859.89
783.74	43275.63
783.92	42851.70
784.10	43400.55
784.28	43228.52
784.46	43091.31
784.64	42726.77
784.83	43046.26
785.01	42939.76
785.19	43099.50
785.37	43349.35
785.55	42952.05
785.74	42501.50
785.92	43093.36
786.10	43042.16
786.28	43124.08
786.46	42620.28
786.64	42192.25
786.83	42833.27
787.01	42808.69
787.19	42507.64
787.37	42906.99
787.55	42618.23
787.74	42610.04
787.92	42448.25
788.10	42550.65
788.28	42419.58
788.46	42220.92
788.64	42087.81
788.82	42497.40
789.01	42564.98
789.19	42481.02
789.37	41989.50
789.55	42020.22
789.73	41758.08
789.91	41502.09
790.09	41571.72
790.28	41491.85
790.46	41311.63
790.64	41579.91
790.82	41495.94
791.00	41678.21
791.18	41336.20
791.36	41475.46
791.55	41614.72
791.73	41145.74
791.91	40940.94
792.09	41239.95
792.27	41072.01
792.45	40938.90
792.63	41037.20
792.81	40416.66
793.00	40822.16
793.18	40433.05
793.36	40574.36
793.54	40218.01
793.72	40510.87
793.90	40017.31
794.08	40164.76
794.26	39978.40
794.44	39810.46
794.62	39984.54
794.81	40170.91
794.99	39503.27
795.17	39187.88
795.35	39710.11
795.53	39714.21
795.71	39488.93
795.89	39189.93
796.07	38940.08
796.25	38686.13
796.43	39065.00
796.61	38739.38
796.80	38475.19
796.98	38843.82
797.16	38309.30
797.34	38888.88
797.52	38436.28
797.70	38618.55
797.88	38456.76
798.06	38380.98
798.24	38163.90
798.42	38276.54
798.60	37852.61
798.78	38028.73
798.96	37690.82
799.14	37658.05
799.32	37934.53
799.51	37387.72
799.69	37875.13
799.87	37604.80
800.05	37090.76
800.23	37238.22
800.41	36861.39
800.59	36808.14
800.77	36986.32
800.95	36703.70
801.13	36822.48
801.31	36703.70
801.49	36765.14
801.67	36394.45
801.85	36363.73
802.03	36615.63
802.21	36306.39
802.39	36271.57
802.57	36412.88
802.75	36287.96
802.93	36197.85
803.11	36179.42
803.29	35732.96
803.47	35825.12
803.65	35814.88
803.83	35861.98
804.01	35818.97
804.19	35567.07
804.37	35286.50
804.55	35083.75
804.73	34907.63
804.91	34862.57
805.09	35298.79
805.27	35005.93
805.45	35331.56
805.63	35364.32
805.81	34936.30
805.99	35026.41
806.17	34897.39
806.35	35005.93
806.53	34616.82
806.71	34715.12
806.89	34725.36
807.07	34663.92
807.25	34495.99
807.43	34498.03
807.61	34670.06
807.79	34043.38
807.97	33506.82
808.15	33969.66
808.33	33879.55
808.51	33627.65
808.69	33805.82
808.87	33617.41
809.05	33568.26
809.23	33097.22
809.41	33109.51
809.59	33099.27
809.77	33531.39
809.95	33129.99
810.13	33259.01
810.31	32951.82
810.49	32577.04
810.67	32878.09
810.84	32712.20
811.02	32826.89
811.20	32546.32
811.38	32792.08
811.56	32226.84
811.74	32355.86
811.92	32323.09
812.10	32689.68
812.28	32462.35
812.46	32370.19
812.64	32366.10
812.82	31929.88
813.00	32257.56
813.18	32009.75
813.36	31589.92
813.53	31841.82
813.71	31727.13
813.89	31692.32
814.07	31790.62
814.25	31749.66
814.43	31577.63
814.61	31514.14
814.79	31471.14
814.97	31387.17
815.15	31266.34
815.33	31155.75
815.50	30996.01
815.68	31256.10
815.86	31213.09
816.04	30674.48
816.22	31084.07
816.40	30807.59
816.58	30731.82
816.76	30285.36
816.94	31000.10
817.11	30852.65
817.29	30373.42
817.47	30363.18
817.65	30445.10
817.83	30555.69
818.01	30236.21
818.19	30062.13
818.37	30047.80
818.54	30277.17
818.72	30209.59
818.90	30152.24
819.08	29863.48
819.26	30307.89
819.44	30101.04
819.62	29627.96
819.80	30131.76
819.97	29648.44
820.15	29746.75
820.33	29857.34
820.51	29427.26
820.69	29525.57
820.87	29916.73
821.05	30043.70
821.22	29179.46
821.40	29226.56
821.58	29296.19
821.76	29261.38
821.94	29314.62
822.12	29326.91
822.29	29077.06
822.47	29171.27
822.65	29083.20
822.83	29300.29
823.01	28716.62
823.19	29171.27
823.36	28479.05
823.54	28434.00
823.72	28532.30
823.90	28368.46
824.08	28075.60
824.25	28634.70
824.43	28350.03
824.61	28442.19
824.79	28427.85
824.97	28264.02
825.15	28548.68
825.32	28253.78
825.50	28157.52
825.68	28173.91
825.86	28546.64
826.04	28182.10
826.21	28024.40
826.39	28210.77
826.57	28044.88
826.75	27993.68
826.93	27678.30
827.10	27958.87
827.28	27815.51
827.46	27684.44
827.64	27647.58
827.81	27274.85
827.99	28071.51
828.17	27317.86
828.35	27326.05
828.53	27328.10
828.70	27422.30
828.88	27528.80
829.06	27414.11
829.24	27512.41
829.41	27403.87
829.59	27436.64
829.77	27342.43
829.95	27364.96
830.12	27022.95
830.30	26812.01
830.48	27201.12
830.66	27131.49
830.84	26859.11
831.01	27002.47
831.19	26596.97
831.37	27063.91
831.55	26422.89
831.72	26670.70
831.90	26904.17
832.08	26494.57
832.25	26549.87
832.43	26463.85
832.61	26250.86
832.79	26484.33
832.96	26635.88
833.14	26566.25
833.32	26478.19
833.50	26170.99
833.67	26205.81
833.85	26566.25
834.03	25831.03
834.20	26134.13
834.38	26480.24
834.56	26322.54
834.74	26293.87
834.91	25990.77
835.09	25884.28
835.27	25544.31
835.44	25966.20
835.62	25568.89
835.80	25771.64
835.98	25888.37
836.15	25601.66
836.33	25415.29
836.51	25546.36
836.68	25310.85
836.86	25505.40
837.04	25638.52
837.21	25417.34
837.39	25525.88
837.57	25753.21
837.75	25726.58
837.92	25005.70
838.10	25370.24
838.28	25013.89
838.45	25177.73
838.63	24893.06
838.81	25179.78
838.98	25194.11
839.16	24768.13
839.34	24839.81
839.51	24751.75
839.69	24766.09
839.87	24604.30
840.04	24667.78
840.22	24784.52
840.40	24376.97
840.57	24553.10
840.75	24868.48
840.93	24381.07
841.10	25028.23
841.28	25075.33
841.46	24616.58
841.63	24632.97
841.81	24647.30
841.98	24696.46
842.16	24491.66
842.34	24403.60
842.51	24227.47
842.69	24737.41
842.87	24139.41
843.04	24467.08
843.22	24080.02
843.40	24340.11
843.57	24180.37
843.75	24534.67
843.92	24209.04
844.10	24098.45
844.28	24174.22
844.45	24487.56
844.63	23969.43
844.81	24213.13
844.98	24108.69
845.16	24131.22
845.33	24229.52
845.51	23985.81
845.69	23656.09
845.86	23746.20
846.04	23809.68
846.21	23451.29
846.39	23676.57
846.57	23590.55
846.74	23795.35
846.92	23608.98
847.09	23537.30
847.27	23406.23
847.45	23281.31
847.62	23369.37
847.80	23471.77
847.97	23318.17
848.15	23449.24
848.32	23223.97
848.50	23238.30
848.68	23158.43
848.85	23176.86
849.03	22992.55
849.20	23242.40
849.38	23076.51
849.56	22937.25
849.73	22961.83
849.91	23187.10
850.08	23223.97
850.26	22646.44
850.43	22795.94
850.61	22955.68
850.78	22349.48
850.96	22836.90
851.14	22644.39
851.31	22650.53
851.49	22707.88
851.66	22521.51
851.84	22541.99
852.01	22681.25
852.19	22537.90
852.36	22699.69
852.54	22552.23
852.71	22412.97
852.89	22347.44
853.07	22318.76
853.24	22460.07
853.42	22257.32
853.59	22478.50
853.77	22374.06
853.94	22363.82
854.12	22378.15
854.29	21937.84
854.47	22277.80
854.64	22208.17
854.82	22040.24
854.99	22159.02
855.17	21991.09
855.34	21823.16
855.52	22193.84
855.69	22296.24
855.87	21956.27
856.04	22214.32
856.22	21759.67
856.39	21718.71
856.57	21829.30
856.74	21651.13
856.92	21796.53
857.09	21464.76
857.27	21499.58
857.44	21657.27
857.62	21776.05
857.79	21593.78
857.97	21520.06
858.14	21415.61
858.32	21460.66
858.49	21493.43
858.67	21225.15
858.84	21219.00
859.02	21407.42
859.19	21350.07
859.37	21255.87
859.54	21030.59
859.72	21110.46
859.89	21415.61
860.06	21411.51
860.24	21200.57
860.41	21327.55
860.59	20930.24
860.76	21032.64
860.94	20803.27
861.11	21233.34
861.29	20770.50
861.46	20915.90
861.64	20522.69
861.81	20946.62
861.98	20866.75
862.16	20651.72
862.33	20676.29
862.51	20596.42
862.68	20702.92
862.86	20737.73
863.03	20551.37
863.21	20520.65
863.38	20485.83
863.55	20428.49
863.73	20694.72
863.90	20350.67
864.08	20334.28
864.25	20471.50
864.43	20520.65
864.60	20115.15
864.77	20289.23
864.95	20440.78
865.12	20283.08
865.30	20156.11
865.47	20090.57
865.64	20276.94
865.82	20227.79
865.99	20133.58
866.17	20348.62
866.34	20309.71
866.51	19939.02
866.69	20233.93
866.86	20137.68
867.04	20133.58
867.21	19984.08
867.38	19758.80
867.56	19930.83
867.73	19789.52
867.91	19744.47
868.08	19775.19
868.25	19660.50
868.43	19658.45
868.60	19541.72
868.78	19451.61
868.95	19775.19
869.12	19746.51
869.30	19517.14
869.47	19457.75
869.64	19398.36
869.82	19369.69
869.99	19328.73
870.16	19406.55
870.34	19232.47
870.51	19244.76
870.69	19179.23
870.86	19132.12
871.03	19042.01
871.21	19001.05
871.38	19185.37
871.55	19177.18
871.73	19152.60
871.90	18843.36
872.07	18798.31
872.25	18695.91
872.42	18671.33
872.59	18892.51
872.77	18763.49
872.94	18765.54
873.11	18487.01
873.29	18835.17
873.46	18579.17
873.63	18302.70
873.81	18591.46
873.98	18525.93
874.15	18607.84
874.33	18222.83
874.50	18349.80
874.67	18249.45
874.85	18337.51
875.02	18306.79
875.19	18173.67
875.37	18300.65
875.54	18038.51
875.71	18263.79
875.88	17802.99
876.06	18169.58
876.23	18085.61
876.40	17833.71
876.58	17843.95
876.75	17864.43
876.92	17716.98
877.10	18050.80
877.27	17886.96
877.44	17893.10
877.61	17671.92
877.79	17913.58
877.96	17532.66
878.13	17592.05
878.31	17434.36
878.48	17547.00
878.65	17555.19
878.82	17563.38
879.00	17528.56
879.17	17350.39
879.34	17454.84
879.51	17094.40
879.69	17118.97
879.86	17073.92
880.03	17035.00
880.21	17331.96
880.38	17247.99
880.55	17104.64
880.72	17088.25
880.90	17291.00
881.07	17055.48
881.24	16850.69
881.41	17143.55
881.59	17047.29
881.76	17010.43
881.93	16768.77
882.10	16625.41
882.28	16625.41
882.45	16781.06
882.62	16707.33
882.79	16953.09
882.96	16781.06
883.14	16711.42
883.31	16989.95
883.48	16590.59
883.65	16621.31
883.83	16983.80
884.00	16645.89
884.17	16682.75
884.34	16740.10
884.51	16609.03
884.69	16451.33
884.86	16551.68
885.03	16557.83
885.20	16244.49
885.38	16482.05
885.55	16383.75
885.72	16248.58
885.89	16385.80
886.06	16441.09
886.24	16187.14
886.41	16178.95
886.58	16434.95
886.75	16492.29
886.92	16326.41
887.10	16430.85
887.27	16305.93
887.44	16193.29
887.61	16232.20
887.78	16314.12
887.95	16252.68
888.13	16246.54
888.30	16236.30
888.47	15906.57
888.64	16174.86
888.81	15986.44
888.99	15951.63
889.16	15757.07
889.33	15900.43
889.50	15589.14
889.67	15820.56
889.84	15548.18
890.01	15787.79
890.19	15884.05
890.36	15714.06
890.53	15873.81
890.70	15503.12
890.87	15449.88
891.04	15603.47
891.22	15533.84
891.39	15619.86
891.56	15613.71
891.73	15542.03
891.90	15429.40
892.07	15398.68
892.24	15517.46
892.42	15140.63
892.59	15472.40
892.76	15314.71
892.93	15376.15
893.10	15370.01
893.27	15402.77
893.44	15177.50
893.61	15269.66
893.79	15310.61
893.96	15388.44
894.13	15320.85
894.30	15435.54
894.47	15093.53
894.64	15488.79
894.81	15290.13
894.98	15124.25
895.15	15142.68
895.33	14966.56
895.50	15189.78
895.67	15136.54
895.84	15140.63
896.01	15306.52
896.18	15068.95
896.35	15413.01
896.52	15120.15
896.69	14896.92
896.86	15021.85
897.04	15392.53
897.21	15185.69
897.38	15093.53
897.55	15083.29
897.72	15027.99
897.89	15021.85
898.06	14841.63
898.23	15111.96
898.40	15298.33
898.57	15181.59
898.74	15081.24
898.91	14962.46
899.08	15011.61
899.26	15005.47
899.43	15206.17
899.60	15042.33
899.77	15134.49
899.94	14903.07
900.11	14794.53
900.28	14966.56
900.45	14974.75
900.62	14761.76
900.79	15193.88
900.96	14989.08
901.13	14909.21
901.30	14921.50
901.47	14980.89
901.64	14905.12
901.81	15175.45
901.98	14772.00
902.15	15343.38
902.32	14913.31
902.49	14888.73
902.66	14989.08
902.83	15273.75
903.01	15058.71
903.18	14925.60
903.35	15038.23
903.52	14862.11
903.69	15187.74
903.86	15042.33
904.03	14706.46
904.20	14950.17
904.37	15120.15
904.54	14839.58
904.71	14944.03
904.88	15003.42
905.05	14837.53
905.22	15030.04
905.39	14812.96
905.56	14978.84
905.73	14780.19
905.90	15023.90
906.07	14903.07
906.24	15060.76
906.41	14939.93
906.58	15011.61
906.75	14878.49
906.92	14919.45
907.09	14765.85
907.26	14872.35
907.43	14737.18
907.60	14710.56
907.77	14989.08
907.93	14993.18
908.10	14923.55
908.27	14989.08
908.44	14800.67
908.61	14608.16
908.78	14954.27
908.95	14913.31
909.12	14823.20
909.29	14767.90
909.46	14698.27
909.63	14911.26
909.80	14724.90
909.97	14847.77
910.14	14948.12
910.31	14722.85
910.48	14815.01
910.65	14544.67
910.82	14696.22
910.99	14593.83
911.16	14587.68
911.33	14718.75
911.50	14608.16
911.66	14442.28
911.83	14483.24
912.00	14450.47
912.17	14350.12
912.34	14628.64
912.51	14468.90
912.68	14429.99
912.85	14339.88
913.02	14315.30
913.19	14331.69
913.36	14556.96
913.53	14364.45
913.70	14317.35
913.86	14364.45
914.03	14255.91
914.20	14278.44
914.37	14253.86
914.54	14384.93
914.71	14214.95
914.88	13995.82
915.05	14251.81
915.22	14053.16
915.39	14061.35
915.55	13995.82
915.72	13938.48
915.89	14124.84
916.06	13702.96
916.23	13684.53
916.40	13891.37
916.57	13614.90
916.74	13674.29
916.91	13707.05
917.07	13764.40
917.24	13520.69
917.41	13647.66
917.58	13616.94
917.75	13338.42
917.92	13422.39
918.09	13401.91
918.26	13606.70
918.42	13469.49
918.59	13322.04
918.76	13340.47
918.93	13231.93
919.10	13158.20
919.27	13184.82
919.44	13346.61
919.60	13229.88
919.77	13207.35
919.94	13193.01
920.11	13100.86
920.28	13313.84
920.45	12945.21
920.61	12826.43
920.78	12764.99
920.95	12635.97
921.12	13037.37
921.29	12738.37
921.46	12646.21
921.62	12701.50
921.79	12633.92
921.96	12492.61
922.13	12439.36
922.30	12519.23
922.47	12433.22
922.63	12504.90
922.80	12562.24
922.97	12255.04
923.14	12152.65
923.31	12396.35
923.47	11978.57
923.64	12629.82
923.81	12248.90
923.98	12345.16
924.15	12130.12
924.32	12031.82
924.48	12052.30
924.65	11927.37
924.82	11890.51
924.99	11865.93
925.15	11673.42
925.32	11876.17
925.49	11761.48
925.66	11577.17
925.83	11681.61
925.99	11689.81
926.16	11712.33
926.33	11601.74
926.50	11374.42
926.67	11444.05
926.83	11321.17
927.00	11425.62
927.17	11419.47
927.34	11151.19
927.50	11216.72
927.67	11480.91
927.84	11200.34
928.01	11110.23
928.17	11190.10
928.34	11005.78
928.51	10936.15
928.68	10970.97
928.84	11034.46
929.01	10743.64
929.18	10825.56
929.35	10755.93
929.51	10887.00
929.68	10579.81
929.85	10430.30
930.02	10426.21
930.18	10530.66
930.35	10524.51
930.52	10559.33
930.69	10227.56
930.85	10360.67
931.02	10411.87
931.19	10274.66
931.36	10116.97
931.52	10241.89
931.69	10250.08
931.86	10090.34
932.02	10000.23
932.19	9791.34
932.36	9965.42
932.53	9854.83
932.69	9887.59
932.86	9828.20
933.03	9920.36
933.19	9686.89
933.36	9627.50
933.53	9906.02
933.70	9533.29
933.86	9619.31
934.03	9623.41
934.20	9473.90
934.36	9539.44
934.53	9193.33
934.70	9197.43
934.86	9248.63
935.03	9097.08
935.20	8970.10
935.36	9017.21
935.53	8990.58
935.70	8865.66
935.86	8972.15
936.03	8662.91
936.20	8654.72
936.36	8556.41
936.53	8509.31
936.70	8480.64
936.86	8392.58
937.03	8290.18
937.20	8124.29
937.36	8372.10
937.53	8138.63
937.70	7911.30
937.86	7917.45
938.03	7817.10
938.20	7915.40
938.36	7739.27
938.53	7720.84
938.70	7679.88
938.86	7411.60
939.03	7454.61
939.20	7196.56
939.36	7270.29
939.53	7159.70
939.70	7245.71
939.86	6995.86
940.03	6889.37
940.19	6750.10
940.36	6719.39
940.53	6725.53
940.69	6596.51
940.86	6821.78
941.03	6584.22
941.19	6438.81
941.36	6371.23
941.52	6432.67
941.69	6295.46
941.86	6266.78
942.02	6098.85
942.19	6236.06
942.35	6148.00
942.52	6277.02
942.69	5830.57
942.85	5943.21
943.02	5826.47
943.18	5795.75
943.35	5883.81
943.52	5648.30
943.68	5722.02
943.85	5568.43
944.01	5648.30
944.18	5605.29
944.35	5638.06
944.51	5451.69
944.68	5523.37
944.84	5384.11
945.01	5480.36
945.17	5517.23
945.34	5554.09
945.51	5521.32
945.67	5351.34
945.84	5355.44
946.00	5308.34
946.17	5562.28
946.33	5261.23
946.50	5400.49
946.67	5322.67
946.83	5287.86
947.00	5371.82
947.16	5400.49
947.33	5375.92
947.49	5326.77
947.66	5263.28
947.82	5265.33
947.99	5222.32
948.16	5334.96
948.32	5418.93
948.49	5310.38
948.65	5361.58
948.82	5222.32
948.98	5265.33
949.15	5222.32
949.31	5261.23
949.48	5304.24
949.64	5195.70
949.81	5181.36
949.97	5201.84
950.14	5443.50
950.30	5283.76
950.47	5330.86
950.63	5347.25
950.80	5287.86
950.96	5341.10
951.13	5418.93
951.30	5388.21
951.46	5314.48
951.63	5545.90
951.79	5453.74
951.96	5652.39
952.12	5433.26
952.29	5310.38
952.45	5486.51
952.62	5314.48
952.78	5414.83
952.94	5312.43
953.11	5398.45
953.27	5439.40
953.44	5666.73
953.60	5484.46
953.77	5640.11
953.93	5367.73
954.10	5515.18
954.26	5433.26
954.43	5433.26
954.59	5529.52
954.76	5595.05
954.92	5494.70
955.09	5357.49
955.25	5476.27
955.42	5451.69
955.58	5679.02
955.75	5349.29
955.91	5484.46
956.07	5451.69
956.24	5574.57
956.40	5482.41
956.57	5550.00
956.73	5478.32
956.90	5588.91
957.06	5494.70
957.23	5570.48
957.39	5466.03
957.56	5515.18
957.72	5425.07
957.88	5509.04
958.05	5566.38
958.21	5498.80
958.38	5509.04
958.54	5545.90
958.71	5580.71
958.87	5461.93
959.03	5521.32
959.20	5533.61
959.36	5433.26
959.53	5480.36
959.69	5420.97
959.85	5492.65
960.02	5425.07
960.18	5545.90
960.35	5420.97
960.51	5611.43
960.68	5412.78
960.84	5513.13
961.00	5466.03
961.17	5322.67
961.33	5523.37
961.50	5443.50
961.66	5719.98
961.82	5402.54
961.99	5449.64
962.15	5494.70
962.31	5451.69
962.48	5482.41
962.64	5627.82
962.81	5441.45
962.97	5468.08
963.13	5408.69
963.30	5388.21
963.46	5423.02
963.62	5517.23
963.79	5382.06
963.95	5435.31
964.12	5427.12
964.28	5459.88
964.44	5320.62
964.61	5466.03
964.77	5443.50
964.93	5564.33
965.10	5476.27
965.26	5316.53
965.42	5402.54
965.59	5373.87
965.75	5228.46
965.92	5343.15
966.08	5320.62
966.24	5300.14
966.41	5253.04
966.57	5363.63
966.73	5337.01
966.90	5468.08
967.06	5349.29
967.22	5328.81
967.39	5275.57
967.55	5283.76
967.71	5257.14
967.88	5214.13
968.04	5302.19
968.20	5281.71
968.37	5097.39
968.53	5162.93
968.69	5033.91
968.85	5296.05
969.02	5246.90
969.18	5242.80
969.34	5189.55
969.51	5300.14
969.67	5238.70
969.83	5091.25
970.00	5113.78
970.16	5121.97
970.32	5253.04
970.48	5199.79
970.65	5246.90
970.81	5033.91
970.97	5021.62
971.14	5113.78
971.30	5220.27
971.46	4988.85
971.63	5105.59
971.79	5144.50
971.95	5193.65
972.11	4894.65
972.28	5042.10
972.44	5107.63
972.60	4790.20
972.76	4968.37
972.93	4951.99
973.09	4986.80
973.25	5054.39
973.42	4908.98
973.58	5042.10
973.74	5001.14
973.90	5013.43
974.07	4833.21
974.23	4937.65
974.39	4890.55
974.55	4786.10
974.72	4882.36
974.88	4681.66
975.04	4978.61
975.20	4835.25
975.37	4956.08
975.53	4820.92
975.69	4857.78
975.85	4837.30
976.01	4722.62
976.18	4765.62
976.34	4802.49
976.50	4904.89
976.66	4968.37
976.83	4855.73
976.99	4739.00
977.15	4741.05
977.31	4646.84
977.47	4730.81
977.64	4728.76
977.80	4736.95
977.96	4718.52
978.12	4779.96
978.29	4589.50
978.45	4712.38
978.61	4689.85
978.77	4681.66
978.93	4630.46
979.10	4650.94
979.26	4667.32
979.42	4587.45
979.58	4597.69
979.74	4456.38
979.91	4704.18
980.07	4458.43
980.23	4663.22
980.39	4493.24
980.55	4423.61
980.71	4468.67
980.88	4464.57
981.04	4442.04
981.20	4530.11
981.36	4536.25
981.52	4456.38
981.68	4478.91
981.85	4540.35
982.01	4519.87
982.17	4450.24
982.33	4392.89
982.49	4421.56
982.65	4323.26
982.82	4411.32
982.98	4358.08
983.14	4323.26
983.30	4476.86
983.46	4392.89
983.62	4491.20
983.79	4315.07
983.95	4270.01
984.11	4198.34
984.27	4280.25
984.43	4245.44
984.59	4169.66
984.75	4263.87
984.91	4200.38
985.08	4274.11
985.24	4140.99
985.40	4124.61
985.56	4280.25
985.72	4274.11
985.88	4194.24
986.04	4079.55
986.20	4044.74
986.37	4145.09
986.53	4050.88
986.69	4190.14
986.85	4016.07
987.01	4018.11
987.17	4136.90
987.33	4130.75
987.49	3954.63
987.65	4198.34
987.82	4067.27
987.98	3903.43
988.14	3997.64
988.30	4116.42
988.46	4011.97
988.62	4071.36
988.78	4018.11
988.94	4089.79
989.10	3876.80
989.26	3936.20
989.42	3946.44
989.59	3952.58
989.75	3835.85
989.91	3962.82
990.07	3864.52
990.23	3893.19
990.39	3811.27
990.55	3979.20
990.71	3827.65
990.87	3844.04
991.03	3782.60
991.19	3801.03
991.35	3831.75
991.51	3915.72
991.67	3950.53
991.83	3809.22
992.00	3727.30
992.16	3755.97
992.32	3715.02
992.48	3684.30
992.64	3715.02
992.80	3758.02
992.96	3764.17
993.12	3755.97
993.28	3760.07
993.44	3608.52
993.60	3751.88
993.76	3641.29
993.92	3747.78
994.08	3747.78
994.24	3686.34
994.40	3696.58
994.56	3719.11
994.72	3565.51
994.88	3549.13
995.04	3624.90
995.20	3600.33
995.36	3606.47
995.52	3639.24
995.68	3526.60
995.84	3512.27
996.00	3629.00
996.16	3469.26
996.32	3557.32
996.48	3483.59
996.64	3643.34
996.80	3440.59
996.96	3459.02
997.12	3534.79
997.28	3493.83
997.44	3495.88
997.60	3385.29
997.76	3485.64
997.92	3375.05
998.08	3485.64
998.24	3465.16
998.40	3391.44
998.56	3420.11
998.72	3497.93
998.88	3340.24
999.04	3366.86
999.20	3401.68
999.36	3377.10
999.52	3444.68
999.68	3280.85
999.84	3399.63
1000.00	3385.29
1000.16	3426.25
1000.32	3356.62
1000.48	3448.78
1000.64	3213.26
1000.80	3198.93
1000.95	3278.80
1001.11	3284.94
1001.27	3166.16
1001.43	3291.09
1001.59	3176.40
1001.75	3194.83
1001.91	3270.61
1002.07	3246.03
1002.23	3084.24
1002.39	3268.56
1002.55	3096.53
1002.71	3180.50
1002.87	3256.27
1003.03	3110.86
1003.19	3262.41
1003.34	3356.62
1003.50	3090.38
1003.66	3180.50
1003.82	3157.97
1003.98	3182.54
1004.14	3155.92
1004.30	3149.78
1004.46	2963.41
1004.62	3110.86
1004.78	3026.90
1004.94	3043.28
1005.09	3094.48
1005.25	3135.44
1005.41	3026.90
1005.57	2961.36
1005.73	2971.60
1005.89	2938.84
1006.05	3114.96
1006.21	3002.32
1006.37	2975.70
1006.52	2979.79
1006.68	2928.60
1006.84	3053.52
1007.00	2953.17
1007.16	3012.56
1007.32	2893.78
1007.48	2936.79
1007.64	2944.98
1007.79	3018.71
1007.95	3014.61
1008.11	2889.68
1008.27	2858.96
1008.43	2910.16
1008.59	2861.01
1008.75	2969.55
1008.91	2803.67
1009.06	2885.59
1009.22	2875.35
1009.38	2809.81
1009.54	2854.87
1009.70	2910.16
1009.86	2850.77
1010.01	2805.72
1010.17	2795.48
1010.33	2736.09
1010.49	2756.57
1010.65	2863.06
1010.81	2754.52
1010.96	2822.10
1011.12	2721.75
1011.28	2772.95
1011.44	2799.57
1011.60	2777.05
1011.76	2654.17
1011.91	2863.06
1012.07	2658.26
1012.23	2656.22
1012.39	2596.82
1012.55	2727.89
1012.71	2729.94
1012.86	2656.22
1013.02	2734.04
1013.18	2611.16
1013.34	2717.65
1013.50	2758.61
1013.65	2699.22
1013.81	2699.22
1013.97	2645.98
1014.13	2650.07
1014.29	2625.50
1014.44	2752.47
1014.60	2557.91
1014.76	2578.39
1014.92	2592.73
1015.07	2555.86
1015.23	2609.11
1015.39	2598.87
1015.55	2639.83
1015.71	2592.73
1015.86	2473.95
1016.02	2527.19
1016.18	2469.85
1016.34	2576.34
1016.49	2625.50
1016.65	2600.92
1016.81	2492.38
1016.97	2492.38
1017.12	2629.59
1017.28	2396.12
1017.44	2435.03
1017.60	2449.37
1017.75	2475.99
1017.91	2465.75
1018.07	2537.43
1018.23	2514.91
1018.38	2416.60
1018.54	2406.36
1018.70	2496.47
1018.86	2408.41
1019.01	2293.72
1019.17	2516.95
1019.33	2471.90
1019.49	2443.23
1019.64	2402.27
1019.80	2420.70
1019.96	2451.42
1020.12	2400.22
1020.27	2299.87
1020.43	2387.93
1020.59	2371.55
1020.74	2519.00
1020.90	2418.65
1021.06	2240.48
1021.22	2420.70
1021.37	2396.12
1021.53	2279.39
1021.69	2363.36
1021.84	2338.78
1022.00	2412.51
1022.16	2373.60
1022.31	2303.96
1022.47	2330.59
1022.63	2306.01
1022.79	2232.29
1022.94	2301.92
1023.10	2330.59
1023.26	2283.49
1023.41	2181.09
1023.57	2303.96
1023.73	2400.22
1023.88	2213.85
1024.04	2174.94
1024.20	2236.38
1024.35	2308.06
1024.51	2217.95
1024.67	2222.05
1024.82	2293.72
1024.98	2191.33
1025.14	2273.25
1025.29	2242.53
1025.45	2334.68
1025.61	2265.05
1025.76	2312.16
1025.92	2203.61
1026.08	2187.23
1026.23	2236.38
1026.39	2297.82
1026.55	2203.61
1026.70	2217.95
1026.86	2226.14
1027.02	2228.19
1027.17	2193.37
1027.33	2258.91
1027.48	2172.89
1027.64	2172.89
1027.80	2129.89
1027.95	2158.56
1028.11	2138.08
1028.27	2230.24
1028.42	2203.61
1028.58	2129.89
1028.73	2146.27
1028.89	2090.98
1029.05	2191.33
1029.20	2189.28
>>>>>End Processed Spectral Data<<<<<
