SpectraSuite Data File
++++++++++++++++++++++++++++++++++++
Date: Fri Jun 02 14:57:18 CEST 2017
User: INFO_000
Dark Spectrum Present: No
Reference Spectrum Present: No
Number of Sampled Component Spectra: 1
Spectrometers: USB4H00879
Integration Time (usec): 80000 (USB4H00879)
Spectra Averaged: 1 (USB4H00879)
Boxcar Smoothing: 0 (USB4H00879)
Correct for Electrical Dark: No (USB4H00879)
Strobe/Lamp Enabled: No (USB4H00879)
Correct for Detector Non-linearity: No (USB4H00879)
Correct for Stray Light: No (USB4H00879)
Number of Pixels in Processed Spectrum: 3648
>>>>>Begin Processed Spectral Data<<<<<
345.13	1300.46
345.34	1300.46
345.56	1300.46
345.78	1263.60
345.99	1271.79
346.21	1722.34
346.42	1691.62
346.64	1656.81
346.86	1808.36
347.07	1665.00
347.29	1728.49
347.50	1601.51
347.72	1679.33
347.94	1765.35
348.15	1619.94
348.37	1632.23
348.59	1671.14
348.80	1564.65
349.02	1685.48
349.23	1855.46
349.45	1828.84
349.67	1888.23
349.88	1869.80
350.10	1929.19
350.31	1863.65
350.53	1845.22
350.75	1929.19
350.96	1822.69
351.18	1820.64
351.39	1910.75
351.61	1816.55
351.82	1935.33
352.04	1892.32
352.26	1796.07
352.47	1945.57
352.69	1908.71
352.90	1796.07
353.12	1837.03
353.34	1873.89
353.55	1935.33
353.77	1843.17
353.98	1861.60
354.20	1839.08
354.41	1935.33
354.63	1929.19
354.85	2050.02
355.06	1953.76
355.28	1884.13
355.49	1935.33
355.71	1935.33
355.92	1900.52
356.14	1920.99
356.35	1830.88
356.57	1845.22
356.79	1912.80
357.00	1882.08
357.22	2011.11
357.43	1826.79
357.65	1984.48
357.86	1888.23
358.08	1896.42
358.29	1861.60
358.51	2043.87
358.72	2074.59
358.94	1978.34
359.16	1861.60
359.37	1925.09
359.59	1867.75
359.80	1982.43
360.02	1886.18
360.23	1982.43
360.45	1974.24
360.66	1959.91
360.88	1916.90
361.09	1908.71
361.31	1949.67
361.52	1900.52
361.74	2045.92
361.95	2011.11
362.17	1998.82
362.38	2123.74
362.60	2045.92
362.81	2031.58
363.03	1935.33
363.24	2027.49
363.46	1984.48
363.67	1972.19
363.89	2076.64
364.10	2031.58
364.32	2035.68
364.53	2062.30
364.75	1863.65
364.96	2007.01
365.18	2060.26
365.39	2004.96
365.61	1902.56
365.82	2121.70
366.04	2023.39
366.25	1929.19
366.47	2062.30
366.68	2000.87
366.90	1978.34
367.11	2095.07
367.33	2131.94
367.54	2117.60
367.76	1968.10
367.97	2156.51
368.19	2017.25
368.40	2068.45
368.62	2007.01
368.83	1904.61
369.05	2127.84
369.26	1929.19
369.48	2027.49
369.69	2060.26
369.91	2125.79
370.12	1998.82
370.33	2142.18
370.55	1888.23
370.76	2009.06
370.98	2084.83
371.19	1982.43
371.41	2037.73
371.62	2111.46
371.84	1992.67
372.05	2181.09
372.27	2027.49
372.48	2158.56
372.69	2050.02
372.91	2068.45
373.12	2140.13
373.34	2082.78
373.55	2179.04
373.77	2103.26
373.98	2119.65
374.20	2228.19
374.41	2277.34
374.62	2189.28
374.84	2140.13
375.05	2217.95
375.27	2154.46
375.48	2207.71
375.70	2033.63
375.91	2205.66
376.12	2361.31
376.34	2187.23
376.55	2131.94
376.77	2258.91
376.98	2121.70
377.19	2140.13
377.41	2088.93
377.62	2236.38
377.84	2279.39
378.05	2303.96
378.27	2185.18
378.48	2322.40
378.69	2432.99
378.91	2306.01
379.12	2303.96
379.34	2240.48
379.55	2379.74
379.76	2191.33
379.98	2172.89
380.19	2295.77
380.41	2232.29
380.62	2254.81
380.83	2252.77
381.05	2181.09
381.26	2365.40
381.47	2303.96
381.69	2275.29
381.90	2351.07
382.12	2369.50
382.33	2260.96
382.54	2357.21
382.76	2222.05
382.97	2265.05
383.19	2283.49
383.40	2445.27
383.61	2410.46
383.83	2363.36
384.04	2406.36
384.25	2310.11
384.47	2330.59
384.68	2422.75
384.89	2312.16
385.11	2287.58
385.32	2295.77
385.54	2340.83
385.75	2355.16
385.96	2439.13
386.18	2412.51
386.39	2408.41
386.60	2353.12
386.82	2394.08
387.03	2430.94
387.24	2449.37
387.46	2506.71
387.67	2416.60
387.88	2480.09
388.10	2471.90
388.31	2504.67
388.52	2568.15
388.74	2592.73
388.95	2658.26
389.16	2525.15
389.38	2488.28
389.59	2609.11
389.80	2596.82
390.02	2549.72
390.23	2678.74
390.44	2510.81
390.66	2564.06
390.87	2592.73
391.08	2713.56
391.30	2699.22
391.51	2707.41
391.72	2654.17
391.94	2680.79
392.15	2543.58
392.36	2551.77
392.58	2598.87
392.79	2656.22
393.00	2709.46
393.22	2818.00
393.43	2752.47
393.64	2879.44
393.85	2815.96
394.07	2772.95
394.28	2750.42
394.49	2803.67
394.71	2783.19
394.92	2858.96
395.13	2680.79
395.35	2770.90
395.56	2731.99
395.77	2842.58
395.98	2822.10
396.20	2809.81
396.41	2871.25
396.62	2977.75
396.84	2807.77
397.05	2856.92
397.26	2873.30
397.47	2977.75
397.69	2893.78
397.90	3098.58
398.11	2996.18
398.32	2887.64
398.54	2873.30
398.75	2967.51
398.96	2940.88
399.18	3035.09
399.39	2953.17
399.60	3098.58
399.81	2932.69
400.03	2852.82
400.24	3182.54
400.45	2940.88
400.66	3092.43
400.88	3065.81
401.09	3231.69
401.30	3051.47
401.51	3026.90
401.73	3127.25
401.94	3018.71
402.15	3141.58
402.36	3018.71
402.58	3166.16
402.79	3145.68
403.00	3104.72
403.21	3182.54
403.43	3174.35
403.64	3258.32
403.85	3055.57
404.06	3297.23
404.27	3145.68
404.49	3182.54
404.70	3188.69
404.91	3334.09
405.12	3241.93
405.34	3246.03
405.55	3407.82
405.76	3145.68
405.97	3155.92
406.19	3338.19
406.40	3178.45
406.61	3399.63
406.82	3215.31
407.03	3237.84
407.25	3235.79
407.46	3403.72
407.67	3387.34
407.88	3416.01
408.09	3280.85
408.31	3260.37
408.52	3354.57
408.73	3303.37
408.94	3291.09
409.15	3405.77
409.37	3456.97
409.58	3375.05
409.79	3385.29
410.00	3645.38
410.21	3471.31
410.43	3426.25
410.64	3497.93
410.85	3592.14
411.06	3422.16
411.27	3592.14
411.48	3643.34
411.70	3575.75
411.91	3620.81
412.12	3655.62
412.33	3495.88
412.54	3491.79
412.76	3608.52
412.97	3604.42
413.18	3608.52
413.39	3557.32
413.60	3542.99
413.81	3844.04
414.03	3567.56
414.24	3534.79
414.45	3774.41
414.66	3663.82
414.87	3712.97
415.08	3686.34
415.30	3665.86
415.51	3721.16
415.72	3788.74
415.93	3770.31
416.14	3874.76
416.35	3727.30
416.56	3784.65
416.78	3729.35
416.99	3825.61
417.20	3819.46
417.41	3870.66
417.62	4024.26
417.83	3960.77
418.04	3803.08
418.26	3928.00
418.47	4014.02
418.68	3893.19
418.89	3995.59
419.10	4196.29
419.31	4061.12
419.52	4057.03
419.73	3979.20
419.95	4157.38
420.16	3960.77
420.37	4075.46
420.58	4044.74
420.79	3901.38
421.00	4151.23
421.21	4159.42
421.42	4016.07
421.63	4202.43
421.85	4122.56
422.06	4399.04
422.27	4241.34
422.48	4231.10
422.69	4214.72
422.90	4224.96
423.11	4235.20
423.32	4360.13
423.53	4507.58
423.75	4396.99
423.96	4396.99
424.17	4364.22
424.38	4581.31
424.59	4394.94
424.80	4687.80
425.01	4433.85
425.22	4607.93
425.43	4452.28
425.64	4632.51
425.85	4704.18
426.06	4489.15
426.28	4577.21
426.49	4458.43
426.70	4710.33
426.91	4597.69
427.12	4683.70
427.33	4751.29
427.54	4679.61
427.75	4847.54
427.96	4943.80
428.17	4747.19
428.38	4900.79
428.59	4951.99
428.80	4833.21
429.01	4935.60
429.23	4915.12
429.44	5195.70
429.65	5083.06
429.86	5060.53
430.07	4810.68
430.28	5083.06
430.49	5099.44
430.70	5150.64
430.91	5121.97
431.12	5138.35
431.33	5220.27
431.54	5228.46
431.75	5230.51
431.96	5031.86
432.17	5171.12
432.38	5308.34
432.59	5539.76
432.80	5328.81
433.01	5345.20
433.22	5373.87
433.43	5429.17
433.64	5353.39
433.85	5298.10
434.06	5525.42
434.27	5418.93
434.49	5457.84
434.70	5676.97
434.91	5562.28
435.12	5599.15
435.33	5636.01
435.54	5597.10
435.75	5318.57
435.96	5463.98
436.17	5566.38
436.38	5769.13
436.59	5679.02
436.80	5640.11
437.01	5982.12
437.22	5812.14
437.43	5795.75
437.64	5631.91
437.85	5795.75
438.06	5767.08
438.27	5744.55
438.48	5855.14
438.69	5849.00
438.90	5736.36
439.11	5689.26
439.32	5992.36
439.53	5912.49
439.74	6029.22
439.95	5892.01
440.16	5799.85
440.37	5963.68
440.57	5869.48
440.78	6098.85
440.99	6184.87
441.20	5906.34
441.41	5877.67
441.62	6098.85
441.83	6053.80
442.04	6221.73
442.25	6123.43
442.46	6178.72
442.67	6279.07
442.88	6621.08
443.09	6143.91
443.30	6170.53
443.51	6170.53
443.72	6356.90
443.93	6182.82
444.14	6473.63
444.35	6168.48
444.56	6377.37
444.77	6373.28
444.98	6311.84
445.19	6404.00
445.40	6420.38
445.61	6297.50
445.81	6541.21
446.02	6406.05
446.23	6404.00
446.44	6342.56
446.65	6469.53
446.86	6479.77
447.07	6471.58
447.28	6793.11
447.49	6629.27
447.70	6518.68
447.91	6750.10
448.12	6616.99
448.33	6725.53
448.54	6709.15
448.74	6627.23
448.95	6653.85
449.16	6557.60
449.37	7018.39
449.58	6762.39
449.79	7057.30
450.00	6768.54
450.21	6854.55
450.42	7108.50
450.63	7079.83
450.84	6913.94
451.05	6891.41
451.25	6891.41
451.46	6858.65
451.67	7106.45
451.88	7096.21
452.09	6952.85
452.30	7045.01
452.51	7088.02
452.72	7098.26
452.93	7450.51
453.13	7128.98
453.34	7071.64
453.55	7298.96
453.76	7253.91
453.97	7393.17
454.18	7546.76
454.39	7497.61
454.60	7524.24
454.81	7548.81
455.01	7612.30
455.22	7311.25
455.43	7440.27
455.64	7657.36
455.85	7878.54
456.06	7849.86
456.27	7683.98
456.48	7661.45
456.68	7710.60
456.89	7724.94
457.10	7870.34
457.31	7905.16
457.52	7686.03
457.73	7917.45
457.94	8179.59
458.14	7782.28
458.35	8343.42
458.56	8109.96
458.77	7997.32
458.98	8046.47
459.19	8284.03
459.39	8138.63
459.60	8400.77
459.81	8177.54
460.02	8568.70
460.23	8343.42
460.44	8568.70
460.65	8494.97
460.85	8564.61
461.06	8628.09
461.27	8562.56
461.48	8728.44
461.69	8654.72
461.89	8535.93
462.10	8859.51
462.31	8648.57
462.52	8839.03
462.73	8845.18
462.94	9009.01
463.14	9080.69
463.35	9092.98
463.56	9293.68
463.77	9336.69
463.98	9097.08
464.18	9269.11
464.39	9213.81
464.60	9475.95
464.81	9473.90
465.02	9394.03
465.23	9627.50
465.43	9402.22
465.64	9568.11
465.85	9746.28
466.06	9443.18
466.27	9955.18
466.47	9961.32
466.68	9860.97
466.89	9820.01
467.10	10116.97
467.30	9869.16
467.51	10114.92
467.72	10375.01
467.93	10176.36
468.14	10205.03
468.34	10225.51
468.55	10272.61
468.76	10411.87
468.97	10258.28
469.17	10514.27
469.38	10594.14
469.59	10817.37
469.80	10694.49
470.01	10596.19
470.21	11091.80
470.42	11087.70
470.63	10989.40
470.84	11145.05
471.04	11216.72
471.25	11269.97
471.46	11265.88
471.67	11632.46
471.87	11304.79
472.08	11687.76
472.29	11863.88
472.50	11368.27
472.70	11923.27
472.91	11704.14
473.12	11759.44
473.33	12089.16
473.53	12197.70
473.74	12152.65
473.95	12394.31
474.16	12351.30
474.36	12326.72
474.57	12339.01
474.78	12756.80
474.99	12693.31
475.19	12519.23
475.40	12861.24
475.61	13076.28
475.81	13070.14
476.02	13340.47
476.23	13016.89
476.44	13543.22
476.64	13559.60
476.85	13653.81
477.06	13432.63
477.27	13836.08
477.47	13801.26
477.68	13745.97
477.89	14024.49
478.09	14124.84
478.30	13866.80
478.51	14223.14
478.71	14366.50
478.92	14597.92
479.13	14685.98
479.34	14681.89
479.54	14624.54
479.75	14933.79
479.96	14896.92
480.16	15109.91
480.37	15064.86
480.58	15245.08
480.78	15402.77
480.99	15501.08
481.20	15415.06
481.41	15804.17
481.61	15910.67
481.82	15851.28
482.03	15988.49
482.23	15968.01
482.44	16076.55
482.65	16213.77
482.85	16246.54
483.06	16297.74
483.27	16404.23
483.47	16539.40
483.68	16473.86
483.89	17211.13
484.09	16660.23
484.30	16901.89
484.51	17000.19
484.71	17362.68
484.92	16938.75
485.13	17258.23
485.33	17549.04
485.54	17557.24
485.75	17651.44
485.95	17561.33
486.16	17886.96
486.37	17762.03
486.57	17970.93
486.78	18009.84
486.98	18001.65
487.19	18302.70
487.40	18470.63
487.60	18679.52
487.81	18532.07
488.02	18552.55
488.22	18648.80
488.43	18859.74
488.64	18904.80
488.84	19054.30
489.05	19216.09
489.25	19062.49
489.46	19427.03
489.67	19392.22
489.87	19443.42
490.08	19570.39
490.29	19820.24
490.49	19963.60
490.70	19832.53
490.90	20031.18
491.11	19973.84
491.32	20311.75
491.52	20336.33
491.73	20293.32
491.94	20516.55
492.14	20500.17
492.35	20836.03
492.55	20977.34
492.76	20713.16
492.97	20811.46
493.17	20958.91
493.38	21292.73
493.58	21266.11
493.79	21327.55
494.00	21161.66
494.20	21169.85
494.41	21452.47
494.61	21507.77
494.82	21722.80
495.02	21561.02
495.23	21677.75
495.44	21978.80
495.64	22019.76
495.85	21892.79
496.05	22105.77
496.26	21923.51
496.47	22421.16
496.67	21884.59
496.88	22525.61
497.08	22429.35
497.29	22554.28
497.49	22464.17
497.70	22838.95
497.91	22652.58
498.11	22685.35
498.32	23076.51
498.52	22916.77
498.73	23211.68
498.93	23109.28
499.14	23031.46
499.34	23256.73
499.55	23529.11
499.76	23187.10
499.96	23576.22
500.17	23529.11
500.37	23633.56
500.58	23594.65
500.78	23875.22
500.99	24022.67
501.19	24049.30
501.40	23936.66
501.60	23766.68
501.81	24098.45
502.02	24139.41
502.22	23875.22
502.43	24159.89
502.63	24348.30
502.84	24536.71
503.04	24055.44
503.25	24585.86
503.45	24573.58
503.66	24647.30
503.86	24360.59
504.07	24786.57
504.27	24630.92
504.48	24993.41
504.68	24735.37
504.89	25112.19
505.09	25151.10
505.30	24893.06
505.50	25077.38
505.71	25060.99
505.91	25429.63
506.12	25417.34
506.32	25347.71
506.53	25202.30
506.73	25382.52
506.94	25685.62
507.14	25806.45
507.35	25550.46
507.55	25861.75
507.76	25439.87
507.96	25843.32
508.17	25624.18
508.37	25933.43
508.58	25742.97
508.78	25915.00
508.99	26078.83
509.19	26007.16
509.40	26314.35
509.60	26115.70
509.81	26134.13
510.01	26144.37
510.22	26197.62
510.42	26410.60
510.63	26203.76
510.83	26408.56
511.04	26345.07
511.24	26605.16
511.44	26291.82
511.65	26369.65
511.85	26551.91
512.06	26582.63
512.26	26515.05
512.47	26785.38
512.67	26764.90
512.88	26502.76
513.08	26584.68
513.29	26918.50
513.49	26648.17
513.69	26795.62
513.90	27031.14
514.10	27104.87
514.31	26883.69
514.51	27233.89
514.72	27096.67
514.92	27113.06
515.13	27342.43
515.33	27588.19
515.53	27391.58
515.74	27229.79
515.94	27690.59
516.15	27299.42
516.35	27350.62
516.56	27465.31
516.76	27367.01
516.96	27465.31
517.17	27764.31
517.37	27700.83
517.58	27645.53
517.78	27766.36
517.99	27545.18
518.19	28003.92
518.39	28266.06
518.60	28145.23
518.80	28005.97
519.01	28468.81
519.21	28022.36
519.41	28450.38
519.62	28026.45
519.82	28427.85
520.03	28614.22
520.23	28591.69
520.43	28231.25
520.64	28642.89
520.84	28931.65
521.05	28579.40
521.25	29230.66
521.45	29081.16
521.66	28972.61
521.86	29136.45
522.07	28923.46
522.27	28929.61
522.47	29154.88
522.68	29482.56
522.88	29025.86
523.08	29566.52
523.29	29345.34
523.49	29763.13
523.70	29310.53
523.90	29752.89
524.10	29507.13
524.31	30064.18
524.51	29953.59
524.71	30332.47
524.92	30101.04
525.12	30537.26
525.33	30398.00
525.53	30592.56
525.73	30729.77
525.94	30424.62
526.14	30264.88
526.34	30881.32
526.55	30608.94
526.75	30832.17
526.95	31120.93
527.16	30899.75
527.36	30645.80
527.56	31430.18
527.77	31557.15
527.97	31180.32
528.17	31528.48
528.38	31258.15
528.58	31669.79
528.78	31665.69
528.99	31342.11
529.19	32206.36
529.39	31213.09
529.60	31946.26
529.80	31940.12
530.00	31927.83
530.21	32298.52
530.41	32247.32
530.61	32345.62
530.82	32362.00
531.02	32210.45
531.22	32810.51
531.43	32536.08
531.63	32966.15
531.83	33136.13
532.04	33269.25
532.24	33003.02
532.44	33506.82
532.64	33447.43
532.85	33136.13
533.05	33580.54
533.25	33887.74
533.46	33506.82
533.66	33924.60
533.86	33668.61
534.07	34176.50
534.27	33601.02
534.47	34178.55
534.67	34637.30
534.88	34305.52
535.08	34461.17
535.28	34584.05
535.49	34596.34
535.69	34866.67
535.89	34946.54
536.09	35001.83
536.30	35059.18
536.50	34991.59
536.70	35298.79
536.91	35532.26
537.11	35249.64
537.31	35632.61
537.51	35732.96
537.72	35935.71
537.92	35870.17
538.12	36111.83
538.32	36034.01
538.53	36216.28
538.73	36077.02
538.93	36044.25
539.13	36398.55
539.34	36230.62
539.54	36378.07
539.74	36556.24
539.94	36746.70
540.15	36718.03
540.35	36894.16
540.55	36756.94
540.75	37033.42
540.96	37471.68
541.16	37057.99
541.36	37129.67
541.56	37262.79
541.77	37971.39
541.97	37565.89
542.17	37873.09
542.37	37615.04
542.58	38036.92
542.78	37914.05
542.98	37930.43
543.18	38081.98
543.38	38442.42
543.59	38368.69
543.79	38004.16
543.99	38577.59
544.19	38770.10
544.40	38391.22
544.60	38901.17
544.80	38675.89
545.00	39167.40
545.20	39081.39
545.41	39372.20
545.61	39126.44
545.81	39286.18
546.01	39153.07
546.21	39277.99
546.42	39112.11
546.62	39542.18
546.82	39441.83
547.02	39493.03
547.22	39421.35
547.43	39544.23
547.63	39923.10
547.83	39912.86
548.03	39691.68
548.23	40392.09
548.44	40097.18
548.64	40383.90
548.84	40064.41
549.04	40791.44
549.24	40646.04
549.45	40719.76
549.65	40222.11
549.85	40385.94
550.05	40945.04
550.25	40596.88
550.45	41106.83
550.66	41438.60
550.86	41108.88
551.06	41332.11
551.26	41045.39
551.46	41049.49
551.66	41407.88
551.87	40934.80
552.07	41747.84
552.27	41350.54
552.47	41430.41
552.67	41334.15
552.87	41295.24
553.07	41598.34
553.28	41883.01
553.48	42077.57
553.68	41655.68
553.88	41989.50
554.08	41915.78
554.28	41852.29
554.48	42212.73
554.69	41772.42
554.89	42263.93
555.09	42186.11
555.29	42182.01
555.49	42478.97
555.69	42597.75
555.89	42517.88
556.10	42909.04
556.30	42810.74
556.50	42958.19
556.70	42927.47
556.90	42900.85
557.10	43418.99
557.30	42777.97
557.50	43203.95
557.70	42644.85
557.91	43212.14
558.11	43052.40
558.31	43386.22
558.51	42751.35
558.71	43414.89
558.91	43535.72
559.11	43234.67
559.31	43433.32
559.51	43464.04
559.72	43564.39
559.92	43691.37
560.12	43339.11
560.32	43873.63
560.52	43570.54
560.72	43742.56
560.92	44135.77
561.12	43914.59
561.32	44264.80
561.52	43978.08
561.72	44297.56
561.93	43783.52
562.13	44060.00
562.33	43998.56
562.53	44359.00
562.73	44236.12
562.93	44025.18
563.13	44156.25
563.33	44711.25
563.53	44811.60
563.73	44416.35
563.93	44342.62
564.13	44782.93
564.33	44672.34
564.53	44311.90
564.74	44981.59
564.94	44410.20
565.14	45110.61
565.34	44455.26
565.54	44952.91
565.74	44832.08
565.94	44877.14
566.14	44801.36
566.34	45055.31
566.54	45495.63
566.74	44924.24
566.94	45534.54
567.14	45532.49
567.34	45210.96
567.54	45274.45
567.74	45139.28
567.94	44885.33
568.14	45225.29
568.34	45469.00
568.54	45509.96
568.74	45491.53
568.94	45407.56
569.14	45997.38
569.34	45716.81
569.54	45632.84
569.75	45770.05
569.95	45438.28
570.15	46021.95
570.35	45712.71
570.55	45710.66
570.75	46013.76
570.95	46263.61
571.15	46341.44
571.35	45860.16
571.55	46576.95
571.75	45643.08
571.95	46101.82
572.15	45989.19
572.35	46695.74
572.55	46316.86
572.75	46521.66
572.95	46253.37
573.15	46386.49
573.35	46458.17
573.55	46161.22
573.75	46601.53
573.95	46773.56
574.15	46486.84
574.35	46617.91
574.55	46462.27
574.75	46794.04
574.95	46837.05
575.15	46540.09
575.34	46736.69
575.54	46404.92
575.74	47072.56
575.94	46988.60
576.14	46972.21
576.34	47209.78
576.54	47443.24
576.74	47418.67
576.94	47021.36
577.14	47031.60
577.34	47476.01
577.54	47072.56
577.74	47459.63
577.94	47420.72
578.14	47297.84
578.34	47498.54
578.54	47125.81
578.74	47459.63
578.94	47967.52
579.14	47445.29
579.34	47211.82
579.54	47674.66
579.74	47822.12
579.94	47809.83
580.13	47480.11
580.33	48031.01
580.53	47875.37
580.73	48012.58
580.93	48004.39
581.13	48041.25
581.33	48514.33
581.53	48551.20
581.73	47824.17
581.93	48495.90
582.13	48444.70
582.33	48172.32
582.53	48334.11
582.73	48674.07
582.92	48635.16
583.12	48518.43
583.32	48543.00
583.52	48104.74
583.72	48893.21
583.92	48241.95
584.12	48362.78
584.32	48979.22
584.52	48743.70
584.72	48743.70
584.92	48971.03
585.11	49114.39
585.31	48923.93
585.51	48940.31
585.71	48719.13
585.91	49394.96
586.11	49026.32
586.31	48821.53
586.51	49173.78
586.71	48780.57
586.91	49165.59
587.10	49358.09
587.30	49116.43
587.50	49280.27
587.70	49841.42
587.90	49128.72
588.10	49523.98
588.30	49001.75
588.50	49491.21
588.69	49814.79
588.89	49134.87
589.09	49636.62
589.29	49333.52
589.49	49747.21
589.69	49046.80
589.89	49673.48
590.08	49736.97
590.28	49900.81
590.48	49669.39
590.68	49517.84
590.88	49550.60
591.08	49798.41
591.28	49218.83
591.47	50367.74
591.67	49769.74
591.87	50031.88
592.07	50554.11
592.27	49831.18
592.47	49648.91
592.67	49698.06
592.86	50212.10
593.06	50240.77
593.26	49648.91
593.46	49868.04
593.66	49982.73
593.86	50109.70
594.05	50091.27
594.25	50496.77
594.45	49947.91
594.65	50345.22
594.85	49943.81
595.05	50799.86
595.24	50488.57
595.44	50449.66
595.64	50185.47
595.84	50533.63
596.04	50492.67
596.23	50607.36
596.43	51039.48
596.63	50201.86
596.83	50603.26
597.03	50857.21
597.22	51066.10
597.42	50851.06
597.62	50871.54
597.82	50814.20
598.02	50752.76
598.21	51135.73
598.41	50607.36
598.61	50636.03
598.81	51082.48
599.01	51029.24
599.20	50986.23
599.40	50541.82
599.60	50980.09
599.80	51006.71
600.00	50955.51
600.19	51377.39
600.39	50982.13
600.59	51383.54
600.79	51610.86
600.98	51264.75
601.18	51483.89
601.38	51447.02
601.58	51721.45
601.78	51803.37
601.97	51475.69
602.17	52114.66
602.37	51422.45
602.57	52096.23
602.76	51963.11
602.96	51139.83
603.16	52106.47
603.36	51617.00
603.55	52288.74
603.75	51606.76
603.95	52329.70
604.15	52106.47
604.34	51760.36
604.54	51936.49
604.74	52040.93
604.94	52227.30
605.13	52161.76
605.33	52868.31
605.53	52065.51
605.73	52266.21
605.92	52010.21
606.12	52462.82
606.32	51885.29
606.52	52303.07
606.71	52292.83
606.91	52753.63
607.11	52548.83
607.30	52421.86
607.50	52516.06
607.70	52911.32
607.90	52317.41
608.09	52624.60
608.29	52835.55
608.49	52530.40
608.68	52589.79
608.88	52774.11
609.08	52888.79
609.28	53075.16
609.47	52518.11
609.67	53466.32
609.87	53195.99
610.06	52919.51
610.26	52675.80
610.46	53300.43
610.66	52870.36
610.85	52946.14
611.05	52704.48
611.25	52958.42
611.44	52604.13
611.64	52440.29
611.84	53175.51
612.03	53163.22
612.23	53191.89
612.43	52985.05
612.62	52780.25
612.82	52978.90
613.02	53069.01
613.21	53155.03
613.41	53099.73
613.61	53433.55
613.80	52669.66
614.00	53386.45
614.20	53112.02
614.39	53085.40
614.59	53757.13
614.79	53269.72
614.98	52862.17
615.18	53615.82
615.38	52929.75
615.57	52944.09
615.77	53155.03
615.97	53384.40
616.16	53155.03
616.36	53320.91
616.56	53701.84
616.75	53173.46
616.95	53060.82
617.15	53413.07
617.34	53347.54
617.54	53214.42
617.74	53871.82
617.93	53359.83
618.13	52927.70
618.32	53202.13
618.52	52950.23
618.72	53628.11
618.91	53511.38
619.11	53048.53
619.31	53247.19
619.50	53267.67
619.70	53066.97
619.90	53083.35
620.09	53224.66
620.29	53458.13
620.48	53449.94
620.68	53642.45
620.88	52995.29
621.07	53257.43
621.27	53425.36
621.46	52810.97
621.66	53136.60
621.86	52819.16
622.05	53306.58
622.25	53368.02
622.44	53318.87
622.64	52921.56
622.84	53376.21
623.03	53120.21
623.23	53648.59
623.42	53122.26
623.62	53695.69
623.82	54164.68
624.01	53492.94
624.21	53351.63
624.40	53462.22
624.60	53126.36
624.80	53083.35
624.99	53023.96
625.19	53011.67
625.38	53494.99
625.58	53490.90
625.77	53296.34
625.97	53568.72
626.17	52966.62
626.36	52944.09
626.56	53220.56
626.75	52583.65
626.95	53726.41
627.14	53263.57
627.34	53482.70
627.54	53318.87
627.73	53478.61
627.93	53638.35
628.12	53269.72
628.32	53449.94
628.51	53490.90
628.71	53425.36
628.90	53222.61
629.10	53581.01
629.30	53912.78
629.49	53525.71
629.69	53671.12
629.88	53419.22
630.08	53927.11
630.27	53617.87
630.47	53814.47
630.66	53314.77
630.86	53861.58
631.05	53798.09
631.25	54254.79
631.44	54170.82
631.64	53607.63
631.84	53963.98
632.03	53996.74
632.23	53914.83
632.42	54129.86
632.62	53697.74
632.81	53572.81
633.01	53834.95
633.20	54140.10
633.40	53761.23
633.59	53949.64
633.79	53591.25
633.98	53988.55
634.18	54111.43
634.37	54123.72
634.57	54185.16
634.76	54262.98
634.96	54498.50
635.15	54142.15
635.35	54047.94
635.54	53834.95
635.74	54539.46
635.93	53769.42
636.13	54256.84
636.32	54557.89
636.52	53980.36
636.71	54162.63
636.91	54267.08
637.10	54533.31
637.30	54170.82
637.49	54504.64
637.69	54234.31
637.88	54783.16
638.08	54142.15
638.27	54740.16
638.46	54424.77
638.66	54363.33
638.85	54303.94
639.05	54934.71
639.24	54697.15
639.44	54752.44
639.63	54803.64
639.83	54705.34
640.02	54803.64
640.22	54779.07
640.41	55190.71
640.61	54682.81
640.80	54949.05
640.99	54602.94
641.19	55465.14
641.38	55155.89
641.58	54865.08
641.77	55090.36
641.97	54865.08
642.16	55344.31
642.36	55096.50
642.55	55579.82
642.74	55162.04
642.94	55680.17
643.13	54867.13
643.33	55647.41
643.52	55549.10
643.72	55057.59
643.91	55061.69
644.10	55131.32
644.30	55639.22
644.49	55280.82
644.69	55534.77
644.88	55811.24
645.08	55342.26
645.27	55418.03
645.46	55504.05
645.66	55432.37
645.85	55669.93
646.05	55915.69
646.24	55772.33
646.43	55964.84
646.63	56124.58
646.82	55925.93
647.02	56224.93
647.21	55903.40
647.40	55960.75
647.60	56167.59
647.79	56345.76
647.99	55884.97
648.18	56036.52
648.37	56564.90
648.57	56255.65
648.76	56366.24
648.96	56013.99
649.15	56347.81
649.34	56775.84
649.54	56767.65
649.73	55901.36
649.92	56278.18
650.12	56300.71
650.31	56202.41
650.51	56210.60
650.70	56120.49
650.89	56274.09
651.09	57285.78
651.28	56337.57
651.47	56413.35
651.67	56609.95
651.86	57042.07
652.06	56048.81
652.25	56898.72
652.44	56745.12
652.64	56612.00
652.83	56620.19
653.02	56564.90
653.22	56718.49
653.41	57148.57
653.60	56896.67
653.80	57160.86
653.99	57083.03
654.18	57181.34
654.38	56947.87
654.57	57156.76
654.76	56667.30
654.96	56845.47
655.15	57121.94
655.34	57353.36
655.54	57054.36
655.73	56583.33
655.92	57115.80
656.12	57382.04
656.31	56986.78
656.50	56933.53
656.70	57410.71
656.89	57306.26
657.08	57328.79
657.28	56943.77
657.47	57447.57
657.66	57674.90
657.86	57279.64
658.05	57779.34
658.24	57441.43
658.43	56939.68
658.63	57791.63
658.82	57676.94
659.01	57789.58
659.21	57687.18
659.40	57449.62
659.59	57336.98
659.79	57603.22
659.98	57840.78
660.17	57701.52
660.36	57521.30
660.56	57658.51
660.75	57633.94
660.94	57767.05
661.14	57672.85
661.33	57638.03
661.52	57341.08
661.71	58137.74
661.91	57654.42
662.10	57719.95
662.29	58160.26
662.49	57758.86
662.68	57853.07
662.87	58260.62
663.06	58238.09
663.26	58014.86
663.45	58467.46
663.64	57670.80
663.83	58754.18
664.03	58246.28
664.22	57545.87
664.41	58037.39
664.60	58102.92
664.80	58182.79
664.99	57736.34
665.18	57875.60
665.37	58162.31
665.57	57926.80
665.76	57466.00
665.95	58059.91
666.14	58070.15
666.34	57955.47
666.53	58270.85
666.72	57881.74
666.91	58012.81
667.11	57816.21
667.30	58061.96
667.49	58166.41
667.68	57930.89
667.87	57881.74
668.07	57986.19
668.26	57803.92
668.45	57926.80
668.64	58045.58
668.84	58537.09
669.03	58338.44
669.22	58090.63
669.41	58277.00
669.60	58088.59
669.80	58012.81
669.99	58324.10
670.18	58193.03
670.37	58705.02
670.57	58668.16
670.76	58033.29
670.95	58485.89
671.14	58721.41
671.33	58008.71
671.53	58494.08
671.72	58203.27
671.91	58145.93
672.10	57971.85
672.29	58246.28
672.48	58027.15
672.68	58770.56
672.87	57916.56
673.06	58117.26
673.25	57685.14
673.44	57992.33
673.64	58107.02
673.83	57826.45
674.02	57930.89
674.21	57777.29
674.40	58356.87
674.59	58320.01
674.79	58094.73
674.98	58330.25
675.17	58408.07
675.36	57734.29
675.55	58219.66
675.74	58393.73
675.94	57584.79
676.13	57840.78
676.32	58369.16
676.51	58330.25
676.70	57957.52
676.89	58629.25
677.08	58451.08
677.28	58209.42
677.47	58377.35
677.66	58709.12
677.85	57836.69
678.04	58250.38
678.23	58356.87
678.42	57969.80
678.62	57818.25
678.81	58694.78
679.00	57889.93
679.19	58160.26
679.38	57990.28
679.57	58500.23
679.76	58023.05
679.96	58506.37
680.15	58262.66
680.34	57980.04
680.53	58080.39
680.72	58264.71
680.91	58057.87
681.10	57887.88
681.29	57928.84
681.48	57627.79
681.68	57851.02
681.87	58053.77
682.06	57717.90
682.25	57431.19
682.44	57246.87
682.63	57939.08
682.82	57590.93
683.01	57611.41
683.20	57283.73
683.39	57715.86
683.59	57199.77
683.78	57132.18
683.97	57529.49
684.16	57584.79
684.35	57480.34
684.54	57052.31
684.73	57926.80
684.92	57255.06
685.11	57742.48
685.30	57296.02
685.49	57666.70
685.69	57427.09
685.88	57435.28
686.07	57341.08
686.26	57320.60
686.45	57537.68
686.64	57158.81
686.83	57226.39
687.02	57296.02
687.21	57269.40
687.40	57433.24
687.59	57218.20
687.78	57537.68
687.97	57494.67
688.16	57191.58
688.35	56927.39
688.54	57242.77
688.74	56868.00
688.93	57154.71
689.12	57048.22
689.31	56892.57
689.50	56784.03
689.69	56800.41
689.88	56257.70
690.07	56906.91
690.26	56425.64
690.45	57224.34
690.64	56722.59
690.83	56550.56
691.02	56222.89
691.21	56833.18
691.40	56843.42
691.59	56945.82
691.78	56419.49
691.97	56503.46
692.16	56439.97
692.35	56327.33
692.54	56538.27
692.73	56235.17
692.92	56409.25
693.11	56130.73
693.30	56374.44
693.49	56317.09
693.68	56050.86
693.87	55973.03
694.06	55680.17
694.25	56386.72
694.44	56251.56
694.63	56126.63
694.82	56138.92
695.01	55954.60
695.20	55989.42
695.39	55882.92
695.58	55776.43
695.77	55465.14
695.96	55925.93
696.15	55858.35
696.34	55948.46
696.53	55532.72
696.72	55884.97
696.91	55825.58
697.10	55909.55
697.29	55360.69
697.48	55739.57
697.67	55565.49
697.86	55192.76
698.05	55489.71
698.24	55780.52
698.43	54625.47
698.62	55082.17
698.81	55018.68
699.00	55497.91
699.19	54580.42
699.38	55272.63
699.57	54983.86
699.76	55190.71
699.95	54697.15
700.14	54711.49
700.32	55360.69
700.51	54568.13
700.70	55053.50
700.89	55219.38
701.08	55037.11
701.27	54973.63
701.46	55073.98
701.65	54455.49
701.84	55004.34
702.03	54602.94
702.22	53963.98
702.41	54353.09
702.60	54631.61
702.79	54613.18
702.98	54213.83
703.17	54211.78
703.35	54785.21
703.54	54523.07
703.73	54248.64
703.92	53925.07
704.11	54658.24
704.30	54072.52
704.49	53990.60
704.68	53683.40
704.87	53884.11
705.06	53322.96
705.25	53755.08
705.43	53873.87
705.62	53877.96
705.81	53748.94
706.00	53507.28
706.19	53425.36
706.38	53478.61
706.57	53511.38
706.76	53820.62
706.95	53720.27
707.14	53435.60
707.32	53167.32
707.51	52976.86
707.70	53245.14
707.89	53304.53
708.08	53382.35
708.27	53181.65
708.46	53482.70
708.65	52872.41
708.84	53343.44
709.02	52761.82
709.21	52665.56
709.40	52970.71
709.59	53294.29
709.78	52825.31
709.97	52563.17
710.16	52794.59
710.34	52909.27
710.53	52690.14
710.72	52567.26
710.91	53140.69
711.10	52700.38
711.29	52776.15
711.48	52192.48
711.66	52446.43
711.85	52186.34
712.04	52362.46
712.23	52180.20
712.42	52085.99
712.61	52647.13
712.80	52501.73
712.98	52311.27
713.17	51533.04
713.36	52395.23
713.55	51934.44
713.74	52458.72
713.93	51963.11
714.11	51813.61
714.30	51643.63
714.49	51148.02
714.68	51909.86
714.87	51733.74
715.06	52106.47
715.24	51678.44
715.43	51533.04
715.62	51455.21
715.81	51299.57
716.00	51625.20
716.18	50883.83
716.37	51141.88
716.56	50830.58
716.75	51574.00
716.94	51199.22
717.12	50885.88
717.31	51680.49
717.50	51141.88
717.69	50820.34
717.88	50916.60
718.06	51123.44
718.25	50722.04
718.44	50545.92
718.63	50496.77
718.82	50611.45
719.00	50930.93
719.19	50453.76
719.38	50091.27
719.57	49935.62
719.76	49970.44
719.94	49906.95
720.13	49978.63
720.32	50007.30
720.51	50095.36
720.69	50267.39
720.88	49784.07
721.07	49507.60
721.26	49155.35
721.44	49351.95
721.63	49478.92
721.82	49321.23
722.01	49612.04
722.20	49384.72
722.38	49362.19
722.57	48835.86
722.76	49220.88
722.95	49466.64
723.13	48633.11
723.32	48821.53
723.51	48758.04
723.70	48600.35
723.88	48958.74
724.07	48530.72
724.26	48616.73
724.44	48389.41
724.63	48559.39
724.82	48590.11
725.01	48291.10
725.19	48702.74
725.38	48239.90
725.57	48618.78
725.76	48321.82
725.94	48258.34
726.13	48313.63
726.32	48135.46
726.51	47906.08
726.69	48426.27
726.88	48387.36
727.07	48143.65
727.25	47797.54
727.44	47668.52
727.63	47820.07
727.82	47873.32
728.00	47430.96
728.19	47658.28
728.38	48063.78
728.56	47586.60
728.75	48053.54
728.94	47815.97
729.12	47947.04
729.31	47834.41
729.50	47580.46
729.69	48059.68
729.87	47617.32
730.06	47625.51
730.25	47263.02
730.43	48035.11
730.62	47535.40
730.81	47732.01
730.99	48176.42
731.18	47406.38
731.37	47519.02
731.55	47617.32
731.74	48100.64
731.93	47940.90
732.11	47453.48
732.30	47635.75
732.49	47426.86
732.67	47244.59
732.86	47201.58
733.05	47275.31
733.23	47199.54
733.42	47240.50
733.61	47045.94
733.79	47007.03
733.98	47340.85
734.17	47195.44
734.35	47232.30
734.54	47447.34
734.73	47461.68
734.91	47234.35
735.10	47072.56
735.29	47168.82
735.47	46851.38
735.66	46982.45
735.84	47154.48
736.03	46955.83
736.22	47344.94
736.40	46830.90
736.59	46677.30
736.78	46601.53
736.96	46765.37
737.15	46630.20
737.33	46902.58
737.52	46673.21
737.71	46658.87
737.89	46464.32
738.08	46241.09
738.27	46282.05
738.45	46585.15
738.64	47052.08
738.82	46429.50
739.01	46859.57
739.20	46216.51
739.38	46103.87
739.57	46486.84
739.75	45993.28
739.94	45964.61
740.13	45944.13
740.31	45987.14
740.50	46310.72
740.68	46251.33
740.87	46437.69
741.06	46847.29
741.24	46038.34
741.43	45940.04
741.61	46562.62
741.80	46003.52
741.99	45985.09
742.17	45544.78
742.36	45700.42
742.54	45950.27
742.73	46110.02
742.91	45942.08
743.10	46034.24
743.29	46019.91
743.47	45843.78
743.66	45718.85
743.84	45671.75
744.03	45684.04
744.21	45307.21
744.40	45669.70
744.59	45589.83
744.77	45057.36
744.96	45438.28
745.14	45524.30
745.33	45634.89
745.51	45280.59
745.70	45448.52
745.88	45120.85
746.07	45475.15
746.26	44797.27
746.44	45145.42
746.63	45288.78
746.81	45348.17
747.00	44807.51
747.18	45391.18
747.37	45321.55
747.55	45403.47
747.74	45366.60
747.92	44807.51
748.11	45274.45
748.29	45264.21
748.48	44852.56
748.66	44586.33
748.85	44827.99
749.03	45075.79
749.22	44606.81
749.41	44537.18
749.59	45233.49
749.78	44729.69
749.96	44393.82
750.15	44686.68
750.33	44758.36
750.52	44539.22
750.70	44379.48
750.89	44451.16
751.07	44412.25
751.26	44639.57
751.44	44084.58
751.63	44332.38
751.81	43982.18
752.00	43830.63
752.18	44143.97
752.37	44203.36
752.55	43930.98
752.74	43652.45
752.92	43783.52
753.10	44109.15
753.29	44051.81
753.47	43758.95
753.66	44109.15
753.84	44492.12
754.03	43820.39
754.21	43431.27
754.40	43824.48
754.58	43791.72
754.77	43451.75
754.95	43320.68
755.14	43361.64
755.32	43625.83
755.51	43398.51
755.69	43001.20
755.88	43042.16
756.06	43332.97
756.24	43251.05
756.43	43363.69
756.61	43328.87
756.80	42978.67
756.98	43171.18
757.17	43355.50
757.35	43267.44
757.54	43064.69
757.72	43226.48
757.90	43007.34
758.09	42898.80
758.27	43103.60
758.46	43296.11
758.64	42950.00
758.83	43298.16
759.01	43234.67
759.19	42741.11
759.38	42444.15
759.56	43025.78
759.75	43007.34
759.93	42636.66
760.12	42667.38
760.30	43005.30
760.48	42653.05
760.67	42546.55
760.85	42456.44
761.04	42673.52
761.22	42839.41
761.40	42775.92
761.59	41973.12
761.77	42304.89
761.96	42509.69
762.14	42585.46
762.32	42059.13
762.51	42601.85
762.69	42145.15
762.88	42351.99
763.06	42141.05
763.24	42366.33
763.43	42020.22
763.61	42089.85
763.80	41629.06
763.98	41934.21
764.16	41774.47
764.35	41532.81
764.53	41381.26
764.72	41618.82
764.90	41772.42
765.08	41880.96
765.27	41829.76
765.45	41553.29
765.63	40973.71
765.82	41639.30
766.00	41143.69
766.18	41526.66
766.37	41717.12
766.55	41465.22
766.74	41309.58
766.92	41536.90
767.10	41149.84
767.29	41514.37
767.47	41076.11
767.65	41268.62
767.84	41016.72
768.02	41538.95
768.20	40836.50
768.39	41233.80
768.57	40859.02
768.75	41207.18
768.94	41256.33
769.12	40904.08
769.30	40990.09
769.49	40934.80
769.67	40695.19
769.85	40588.69
770.04	40891.79
770.22	40672.66
770.40	40265.11
770.59	40662.42
770.77	40613.27
770.95	40832.40
771.14	40793.49
771.32	40132.00
771.50	40109.47
771.69	40549.78
771.87	40551.83
772.05	40101.28
772.24	40095.13
772.42	40211.87
772.60	40289.69
772.78	39851.42
772.97	39806.37
773.15	40191.39
773.33	40013.21
773.52	39857.57
773.70	40048.03
773.88	40261.02
774.07	39851.42
774.25	39937.44
774.43	40287.64
774.61	40076.70
774.80	40279.45
774.98	40453.53
775.16	40355.22
775.34	40107.42
775.53	39493.03
775.71	40887.70
775.89	40068.51
776.08	40306.07
776.26	40199.58
776.44	40431.00
776.62	40281.50
776.81	39929.25
776.99	40396.18
777.17	40258.97
777.35	40156.57
777.54	40676.76
777.72	39955.87
777.90	40027.55
778.08	40478.10
778.27	40502.68
778.45	40902.03
778.63	40703.38
778.81	40283.55
779.00	40867.22
779.18	40727.95
779.36	40904.08
779.54	40441.24
779.73	40435.10
779.91	40863.12
780.09	40998.29
780.27	40795.54
780.46	41094.54
780.64	41080.21
780.82	40600.98
781.00	41145.74
781.19	41182.60
781.37	41076.11
781.55	41264.52
781.73	41442.70
781.91	40899.98
782.10	40940.94
782.28	41127.31
782.46	41045.39
782.64	41479.56
782.82	40773.01
783.01	41522.57
783.19	41358.73
783.37	41538.95
783.55	41182.60
783.74	41690.50
783.92	40869.26
784.10	41350.54
784.28	41395.59
784.46	41514.37
784.64	41012.62
784.83	41321.87
785.01	41567.62
785.19	41538.95
785.37	41526.66
785.55	41377.16
785.74	41252.23
785.92	41260.43
786.10	41418.12
786.28	41250.19
786.46	41194.89
786.64	41178.51
786.83	41078.16
787.01	41567.62
787.19	41250.19
787.37	41483.66
787.55	41158.03
787.74	40521.11
787.92	40926.61
788.10	40787.35
788.28	40742.29
788.46	40871.31
788.64	40521.11
788.82	41094.54
789.01	40887.70
789.19	40773.01
789.37	40457.62
789.55	40926.61
789.73	40316.31
789.91	40461.72
790.09	40543.64
790.28	40121.76
790.46	40431.00
790.64	40775.06
790.82	40486.29
791.00	40222.11
791.18	40220.06
791.36	39906.72
791.55	40121.76
791.73	39957.92
791.91	39294.38
792.09	39718.31
792.27	39865.76
792.45	39667.11
792.63	39454.12
792.81	39660.96
793.00	39267.75
793.18	39452.07
793.36	39294.38
793.54	38895.02
793.72	39372.20
793.90	39073.20
794.08	39110.06
794.26	39171.50
794.44	38991.28
794.62	38559.16
794.81	38878.64
794.99	38901.17
795.17	38895.02
795.35	38739.38
795.53	38829.49
795.71	39151.02
795.89	38528.44
796.07	38174.14
796.25	38229.43
796.43	38163.90
796.61	38118.84
796.80	37955.00
796.98	37860.80
797.16	37664.19
797.34	38002.11
797.52	38012.35
797.70	37952.96
797.88	37473.73
798.06	37404.10
798.24	37330.37
798.42	37365.19
798.60	37408.20
798.78	37201.35
798.96	37785.02
799.14	37125.58
799.32	36849.10
799.51	36664.78
799.69	37184.97
799.87	37234.12
800.05	36488.66
800.23	36597.20
800.41	36470.23
800.59	36750.80
800.77	36615.63
800.95	36255.19
801.13	36750.80
801.31	35878.36
801.49	36353.49
801.67	35839.45
801.85	36386.26
802.03	35583.46
802.21	35886.56
802.39	35706.34
802.57	35898.84
802.75	36034.01
802.93	35948.00
803.11	35390.95
803.29	35481.06
803.47	35255.78
803.65	35167.72
803.83	35304.93
804.01	35290.60
804.19	34846.19
804.37	35153.38
804.55	35020.27
804.73	34792.94
804.91	34954.73
805.09	34987.50
805.27	34876.91
805.45	35005.93
805.63	34887.15
805.81	34780.65
805.99	34754.03
806.17	34629.10
806.35	34784.75
806.53	34649.58
806.71	34344.44
806.89	34160.12
807.07	34328.05
807.25	34301.43
807.43	33830.40
807.61	34438.64
807.79	33758.72
807.97	34168.31
808.15	33828.35
808.33	33852.92
808.51	33740.29
808.69	33730.05
808.87	33222.15
809.05	33590.78
809.23	33218.05
809.41	32980.49
809.59	33248.77
809.77	33691.13
809.95	33170.95
810.13	33445.38
810.31	33332.74
810.49	33062.41
810.67	33136.13
810.84	33117.70
811.02	32949.77
811.20	32738.83
811.38	32953.87
811.56	32775.69
811.74	32792.08
811.92	32484.88
812.10	32775.69
812.28	32859.66
812.46	32622.09
812.64	32507.41
812.82	32540.18
813.00	32153.11
813.18	32333.33
813.36	32187.92
813.53	32003.61
813.71	31985.18
813.89	32318.99
814.07	31872.54
814.25	32060.95
814.43	31852.06
814.61	31837.72
814.79	32214.55
814.97	31434.27
815.15	31632.93
815.33	31252.00
815.50	31180.32
815.68	31428.13
815.86	31397.41
816.04	31430.18
816.22	31340.07
816.40	31313.44
816.58	31333.92
816.76	30914.09
816.94	31239.72
817.11	31206.95
817.29	31284.77
817.47	31045.16
817.65	30623.28
817.83	31155.75
818.01	30836.27
818.19	30721.58
818.37	30645.80
818.54	30834.22
818.72	30819.88
818.90	31174.18
819.08	30541.36
819.26	30291.51
819.44	30610.99
819.62	30410.29
819.80	30621.23
819.97	30527.02
820.15	30004.79
820.33	30295.60
820.51	30322.23
820.69	29787.71
820.87	30160.44
821.05	30285.36
821.22	30006.84
821.40	30049.85
821.58	29849.14
821.76	29834.81
821.94	29959.73
822.12	29718.07
822.29	30264.88
822.47	29812.28
822.65	30109.24
822.83	30162.48
823.01	29621.82
823.19	29505.09
823.36	29191.75
823.54	29449.79
823.72	29355.58
823.90	29185.60
824.08	29064.77
824.25	29296.19
824.43	29054.53
824.61	29158.98
824.79	29310.53
824.97	29163.08
825.15	29302.34
825.32	29255.23
825.50	29075.01
825.68	28802.63
825.86	29298.24
826.04	29005.38
826.21	28819.02
826.39	28638.80
826.57	28632.65
826.75	28651.08
826.93	28597.84
827.10	28646.99
827.28	28859.98
827.46	28859.98
827.64	28835.40
827.81	28341.84
827.99	28497.49
828.17	28481.10
828.35	28278.35
828.53	28114.52
828.70	28294.74
828.88	28206.67
829.06	28178.00
829.24	28468.81
829.41	27967.06
829.59	28089.94
829.77	28298.83
829.95	28243.54
830.12	27858.52
830.30	27852.38
830.48	28284.50
830.66	28163.67
830.84	27862.61
831.01	27534.94
831.19	27862.61
831.37	27551.32
831.55	27620.95
831.72	27909.72
831.90	27504.22
832.08	27702.87
832.25	27418.21
832.43	27467.36
832.61	27203.17
832.79	27254.37
832.96	27584.09
833.14	27510.36
833.32	27739.74
833.50	27647.58
833.67	27567.71
833.85	27049.57
834.03	27190.88
834.20	27199.07
834.38	27180.64
834.56	27481.69
834.74	27053.67
834.91	26953.32
835.09	27108.96
835.27	26779.24
835.44	26898.02
835.62	26496.62
835.80	26674.79
835.98	26879.59
836.15	27313.76
836.33	26850.92
836.51	26930.79
836.68	26613.35
836.86	26461.80
837.04	26981.99
837.21	26541.68
837.39	26711.66
837.57	26953.32
837.75	26445.42
837.92	26465.90
838.10	26685.03
838.28	26115.70
838.45	26308.21
838.63	26154.61
838.81	26136.18
838.98	25933.43
839.16	26064.50
839.34	25990.77
839.51	26347.12
839.69	25642.62
839.87	25888.37
840.04	25906.80
840.22	26461.80
840.40	25882.23
840.57	25384.57
840.75	26093.17
840.93	25544.31
841.10	25806.45
841.28	26039.92
841.46	25902.71
841.63	26009.20
841.81	25906.80
841.98	25693.82
842.16	25622.14
842.34	25656.95
842.51	25306.75
842.69	25738.87
842.87	25642.62
843.04	25673.34
843.22	25093.76
843.40	25284.22
843.57	25454.20
843.75	25505.40
843.92	25462.40
844.10	25529.98
844.28	25095.81
844.45	25417.34
844.63	25192.06
844.81	25177.73
844.98	25185.92
845.16	25253.50
845.33	25181.82
845.51	25294.46
845.69	25110.14
845.86	25267.84
846.04	25054.85
846.21	25069.19
846.39	24788.61
846.57	24909.44
846.74	24751.75
846.92	24583.82
847.09	24839.81
847.27	24485.51
847.45	24800.90
847.62	24868.48
847.80	24661.64
847.97	24729.22
848.15	24700.55
848.32	24581.77
848.50	24721.03
848.68	24516.23
848.85	24313.48
849.03	24075.92
849.20	24561.29
849.38	24135.31
849.56	24331.92
849.73	24084.11
849.91	24321.68
850.08	24579.72
850.26	23983.76
850.43	24108.69
850.61	23955.09
850.78	23619.22
850.96	24217.23
851.14	24014.48
851.31	23701.14
851.49	23588.50
851.66	23963.28
851.84	23731.86
852.01	23842.45
852.19	23809.68
852.36	23758.49
852.54	23797.40
852.71	23799.44
852.89	23803.54
853.07	23504.54
853.24	23627.42
853.42	23830.16
853.59	23484.06
853.77	23805.59
853.94	23396.00
854.12	23576.22
854.29	23379.61
854.47	23469.72
854.64	23156.38
854.82	23334.56
854.99	23318.17
855.17	23131.81
855.34	23221.92
855.52	23346.84
855.69	23342.75
855.87	23246.49
856.04	22929.06
856.22	23135.90
856.39	22699.69
856.57	23033.50
856.74	22851.24
856.92	22900.39
857.09	22896.29
857.27	22900.39
857.44	22898.34
857.62	22773.41
857.79	22902.43
857.97	22877.86
858.14	22804.13
858.32	22703.78
858.49	22642.34
858.67	22662.82
858.84	22406.83
859.02	22820.52
859.19	22634.15
859.37	22535.85
859.54	22257.32
859.72	22636.20
859.89	22333.10
860.06	22546.09
860.24	22189.74
860.41	22357.67
860.59	22261.42
860.76	22398.63
860.94	21888.69
861.11	21984.94
861.29	22079.15
861.46	21925.55
861.64	22036.14
861.81	21892.79
861.98	22097.58
862.16	21671.61
862.33	21565.11
862.51	21984.94
862.68	21810.87
862.86	21862.07
863.03	21989.04
863.21	21636.79
863.38	21618.36
863.55	21644.98
863.73	21491.38
863.90	21728.95
864.08	21696.18
864.25	21640.89
864.43	21163.71
864.60	21331.64
864.77	21483.19
864.95	21669.56
865.12	21348.03
865.30	21321.40
865.47	21243.58
865.64	21399.23
865.82	21210.81
865.99	21485.24
866.17	21407.42
866.34	21319.35
866.51	20809.41
866.69	21180.09
866.86	21143.23
867.04	21122.75
867.21	21036.74
867.38	20946.62
867.56	20829.89
867.73	20688.58
867.91	20598.47
868.08	20659.91
868.25	20661.96
868.43	20524.74
868.60	20551.37
868.78	20645.57
868.95	20680.39
869.12	20479.69
869.30	20350.67
869.47	20539.08
869.64	20369.10
869.82	20448.97
869.99	20428.49
870.16	20653.76
870.34	20270.79
870.51	20319.95
870.69	20256.46
870.86	20311.75
871.03	20219.60
871.21	19814.10
871.38	20463.30
871.55	20109.01
871.73	19984.08
871.90	19850.96
872.07	19717.84
872.25	19457.75
872.42	19568.34
872.59	19969.74
872.77	19625.68
872.94	19687.12
873.11	19711.70
873.29	19732.18
873.46	19437.27
873.63	19543.77
873.81	19750.61
873.98	19424.98
874.15	19338.97
874.33	19277.53
874.50	19396.31
874.67	19252.95
874.85	19435.22
875.02	18843.36
875.19	19119.84
875.37	18988.77
875.54	19085.02
875.71	18947.81
875.88	18970.33
876.06	19123.93
876.23	18886.37
876.40	19019.49
876.58	18671.33
876.75	18935.52
876.92	18685.67
877.10	18788.07
877.27	18532.07
877.44	18710.24
877.61	18681.57
877.79	18640.61
877.96	18552.55
878.13	18595.56
878.31	18384.62
878.48	18198.25
878.65	18487.01
878.82	18192.11
879.00	18335.46
879.17	18441.96
879.34	18052.84
879.51	18188.01
879.69	18093.80
879.86	17991.41
880.03	18134.76
880.21	18048.75
880.38	17977.07
880.55	18116.33
880.72	17792.75
880.90	17874.67
881.07	17821.42
881.24	17882.86
881.41	17899.25
881.59	17594.10
881.76	17725.17
881.93	17600.24
882.10	17583.86
882.28	17559.28
882.45	17581.81
882.62	17567.48
882.79	17628.92
882.96	17213.18
883.14	17581.81
883.31	17407.73
883.48	17540.85
883.65	17301.24
883.83	17678.07
884.00	17161.98
884.17	17319.67
884.34	17436.41
884.51	17467.13
884.69	17432.31
884.86	17161.98
885.03	17526.52
885.20	17264.38
885.38	17118.97
885.55	17258.23
885.72	17157.88
885.89	16942.85
886.06	16963.33
886.24	17340.15
886.41	16895.74
886.58	17168.12
886.75	16983.80
886.92	16787.20
887.10	17223.42
887.27	16826.11
887.44	16994.04
887.61	17106.68
887.78	16932.61
887.95	17032.96
888.13	16946.94
888.30	16645.89
888.47	16699.14
888.64	16649.99
888.81	16437.00
888.99	16500.48
889.16	16371.46
889.33	16357.13
889.50	16217.86
889.67	16473.86
889.84	16219.91
890.01	16189.19
890.19	16455.43
890.36	16402.18
890.53	16379.65
890.70	16086.79
890.87	16162.57
891.04	16291.59
891.22	16066.31
891.39	16037.64
891.56	16160.52
891.73	16195.34
891.90	15841.04
892.07	15968.01
892.24	15879.95
892.42	15722.26
892.59	16393.99
892.76	15912.72
892.93	15873.81
893.10	15742.74
893.27	16088.84
893.44	15982.35
893.61	15628.05
893.79	15927.05
893.96	15771.41
894.13	15965.96
894.30	15871.76
894.47	15560.47
894.64	16027.40
894.81	15746.83
894.98	15771.41
895.15	15558.42
895.33	15546.13
895.50	15402.77
895.67	15558.42
895.84	15660.82
896.01	15564.56
896.18	15527.70
896.35	15793.94
896.52	15933.20
896.69	15445.78
896.86	15703.82
897.04	15482.64
897.21	15599.38
897.38	15388.44
897.55	15374.10
897.72	15605.52
897.89	15617.81
898.06	15535.89
898.23	15249.18
898.40	15367.96
898.57	15746.83
898.74	15451.92
898.91	15396.63
899.08	15355.67
899.26	15296.28
899.43	15173.40
899.60	15177.50
899.77	15400.72
899.94	15394.58
900.11	15288.09
900.28	15255.32
900.45	15568.66
900.62	15195.93
900.79	15386.39
900.96	15345.43
901.13	15054.62
901.30	15101.72
901.47	15216.41
901.64	15419.16
901.81	15505.17
901.98	15195.93
902.15	15517.46
902.32	15333.14
902.49	15257.37
902.66	15181.59
902.83	15539.99
903.01	15253.27
903.18	15298.33
903.35	15478.55
903.52	15408.92
903.69	15310.61
903.86	15339.29
904.03	15240.98
904.20	15480.60
904.37	15398.68
904.54	15275.80
904.71	15214.36
904.88	15400.72
905.05	15140.63
905.22	15499.03
905.39	15218.46
905.56	15042.33
905.73	15048.47
905.90	15048.47
906.07	15093.53
906.24	15034.14
906.41	15154.97
906.58	14970.65
906.75	15187.74
906.92	14968.60
907.09	15271.70
907.26	15003.42
907.43	15066.91
907.60	15243.03
907.77	15261.46
907.93	15091.48
908.10	14780.19
908.27	15146.78
908.44	15101.72
908.61	14915.36
908.78	15122.20
908.95	15288.09
909.12	14870.30
909.29	14941.98
909.46	14841.63
909.63	15118.11
909.80	14972.70
909.97	15091.48
910.14	14999.32
910.31	14823.20
910.48	14790.43
910.65	14853.92
910.82	14794.53
910.99	14862.11
911.16	14907.16
911.33	14845.73
911.50	14903.07
911.66	14577.44
911.83	14489.38
912.00	14794.53
912.17	14503.71
912.34	14786.33
912.51	14579.49
912.68	14618.40
912.85	14278.44
913.02	14649.12
913.19	14292.77
913.36	14683.94
913.53	14434.08
913.70	14188.33
913.86	14432.04
914.03	14356.26
914.20	14262.05
914.37	14413.60
914.54	14257.96
914.71	14260.01
914.88	14317.35
915.05	14219.05
915.22	14065.45
915.39	14040.87
915.55	14196.52
915.72	14114.60
915.89	13903.66
916.06	14061.35
916.23	14022.44
916.40	13791.02
916.57	13850.41
916.74	13641.52
916.91	13901.61
917.07	13479.73
917.24	13555.51
917.41	13762.35
917.58	13805.36
917.75	13770.54
917.92	13451.06
918.09	13543.22
918.26	13600.56
918.42	13430.58
918.59	13399.86
918.76	13375.28
918.93	13342.52
919.10	13133.62
919.27	13195.06
919.44	13231.93
919.60	13332.28
919.77	13307.70
919.94	12930.87
920.11	13016.89
920.28	12939.07
920.45	13092.66
920.61	13006.65
920.78	12920.63
920.95	13115.19
921.12	12783.42
921.29	12826.43
921.46	12810.04
921.62	12662.59
921.79	12867.39
921.96	12588.86
922.13	12715.84
922.30	12570.43
922.47	12429.12
922.63	12367.68
922.80	12377.92
922.97	12521.28
923.14	12201.80
923.31	12539.71
923.47	12111.69
923.64	12275.52
923.81	12132.17
923.98	12166.98
924.15	12058.44
924.32	12097.35
924.48	12089.16
924.65	11824.97
924.82	11745.10
924.99	11997.00
925.15	11646.80
925.32	11890.51
925.49	11636.56
925.66	11716.43
925.83	11611.98
925.99	11544.40
926.16	11540.30
926.33	11558.74
926.50	11366.23
926.67	11312.98
926.83	11505.49
927.00	11239.25
927.17	11247.44
927.34	11108.18
927.50	11202.39
927.67	11136.85
927.84	11173.72
928.01	11126.61
928.17	10880.86
928.34	10915.67
928.51	10874.71
928.68	10876.76
928.84	10860.38
929.01	10661.73
929.18	10772.32
929.35	10588.00
929.51	10620.77
929.68	10563.42
929.85	10692.44
930.02	10319.71
930.18	10504.03
930.35	10399.59
930.52	10368.87
930.69	10366.82
930.85	10196.84
931.02	10170.21
931.19	9987.94
931.36	10143.59
931.52	10211.17
931.69	10207.08
931.86	9885.55
932.02	9973.61
932.19	9826.15
932.36	9871.21
932.53	9826.15
932.69	9690.99
932.86	9779.05
933.03	9725.80
933.19	9598.83
933.36	9719.66
933.53	9621.36
933.70	9518.96
933.86	9453.42
934.03	9318.26
934.20	9185.14
934.36	9297.78
934.53	9138.04
934.70	9002.87
934.86	9168.76
935.03	8888.18
935.20	8974.20
935.36	8918.90
935.53	8873.85
935.70	8583.04
935.86	8961.91
936.03	8544.13
936.20	8482.69
936.36	8482.69
936.53	8300.42
936.70	8296.32
936.86	8468.35
937.03	8353.66
937.20	8130.44
937.36	8118.15
937.53	7765.90
937.70	7849.86
937.86	7819.14
938.03	7972.74
938.20	7837.58
938.36	7483.28
938.53	7626.64
938.70	7438.22
938.86	7307.15
939.03	7344.02
939.20	7143.32
939.36	7229.33
939.53	7131.03
939.70	7090.07
939.86	6868.89
940.03	6715.29
940.19	6651.80
940.36	6756.25
940.53	6684.57
940.69	6549.40
940.86	6545.31
941.03	6494.11
941.19	6373.28
941.36	6342.56
941.52	6211.49
941.69	6274.98
941.86	6072.23
942.02	6207.39
942.19	5967.78
942.35	6111.14
942.52	6006.69
942.69	5902.25
942.85	5834.66
943.02	5769.13
943.18	5787.56
943.35	5816.23
943.52	5631.91
943.68	5631.91
943.85	5693.35
944.01	5504.94
944.18	5527.47
944.35	5560.24
944.51	5277.62
944.68	5488.56
944.84	5416.88
945.01	5500.84
945.17	5324.72
945.34	5300.14
945.51	5257.14
945.67	5351.34
945.84	5334.96
946.00	5095.35
946.17	5232.56
946.33	5242.80
946.50	5298.10
946.67	5306.29
946.83	5138.35
947.00	5287.86
947.16	5306.29
947.33	5216.18
947.49	5210.03
947.66	5078.96
947.82	5216.18
947.99	5365.68
948.16	5156.79
948.32	5214.13
948.49	5400.49
948.65	5265.33
948.82	5201.84
948.98	5240.75
949.15	5201.84
949.31	5205.94
949.48	5146.55
949.64	5101.49
949.81	5244.85
949.97	5261.23
950.14	5138.35
950.30	5066.67
950.47	5087.15
950.63	5111.73
950.80	5300.14
950.96	5226.42
951.13	5242.80
951.30	5183.41
951.46	5283.76
951.63	5310.38
951.79	5355.44
951.96	5324.72
952.12	5214.13
952.29	5351.34
952.45	5162.93
952.62	5328.81
952.78	5281.71
952.94	5400.49
953.11	5304.24
953.27	5115.83
953.44	5459.88
953.60	5332.91
953.77	5298.10
953.93	5382.06
954.10	5269.42
954.26	5420.97
954.43	5240.75
954.59	5371.82
954.76	5574.57
954.92	5255.09
955.09	5394.35
955.25	5279.66
955.42	5271.47
955.58	5552.04
955.75	5298.10
955.91	5289.90
956.07	5382.06
956.24	5347.25
956.40	5179.31
956.57	5402.54
956.73	5339.05
956.90	5255.09
957.06	5199.79
957.23	5287.86
957.39	5332.91
957.56	5367.73
957.72	5375.92
957.88	5234.61
958.05	5353.39
958.21	5603.24
958.38	5377.97
958.54	5337.01
958.71	5506.99
958.87	5285.81
959.03	5300.14
959.20	5365.68
959.36	5326.77
959.53	5377.97
959.69	5238.70
959.85	5369.77
960.02	5248.94
960.18	5455.79
960.35	5418.93
960.51	5484.46
960.68	5160.88
960.84	5375.92
961.00	5246.90
961.17	5197.74
961.33	5375.92
961.50	5347.25
961.66	5441.45
961.82	5304.24
961.99	5296.05
962.15	5257.14
962.31	5218.22
962.48	5234.61
962.64	5343.15
962.81	5130.16
962.97	5134.26
963.13	5353.39
963.30	5439.40
963.46	5277.62
963.62	5232.56
963.79	5334.96
963.95	5265.33
964.12	5316.53
964.28	5210.03
964.44	5078.96
964.61	5244.85
964.77	5269.42
964.93	5382.06
965.10	5171.12
965.26	5156.79
965.42	5169.07
965.59	5244.85
965.75	5140.40
965.92	5195.70
966.08	5175.22
966.24	5214.13
966.41	5359.53
966.57	5250.99
966.73	5294.00
966.90	5230.51
967.06	5212.08
967.22	5146.55
967.39	5300.14
967.55	5115.83
967.71	5015.48
967.88	4951.99
968.04	5175.22
968.20	5085.11
968.37	5013.43
968.53	5023.67
968.69	5015.48
968.85	5033.91
969.02	5117.87
969.18	5070.77
969.34	4890.55
969.51	5156.79
969.67	5242.80
969.83	5015.48
970.00	5089.20
970.16	4958.13
970.32	5025.72
970.48	5261.23
970.65	5003.19
970.81	5052.34
970.97	4874.17
971.14	4880.31
971.30	5074.87
971.46	4999.09
971.63	4997.04
971.79	4988.85
971.95	4904.89
972.11	4908.98
972.28	5017.52
972.44	4921.27
972.60	4816.82
972.76	4902.84
972.93	4724.66
973.09	4851.64
973.25	4868.02
973.42	4902.84
973.58	4802.49
973.74	4904.89
973.90	4851.64
974.07	4657.08
974.23	4849.59
974.39	4868.02
974.55	4841.40
974.72	4601.79
974.88	4505.53
975.04	4818.87
975.20	4640.70
975.37	4667.32
975.53	4726.71
975.69	4589.50
975.85	4591.55
976.01	4827.06
976.18	4577.21
976.34	4587.45
976.50	4771.77
976.66	4589.50
976.83	4530.11
976.99	4724.66
977.15	4552.63
977.31	4507.58
977.47	4636.60
977.64	4644.79
977.80	4593.59
977.96	4569.02
978.12	4511.68
978.29	4614.07
978.45	4483.00
978.61	4491.20
978.77	4499.39
978.93	4425.66
979.10	4437.95
979.26	4491.20
979.42	4454.33
979.58	4306.88
979.74	4306.88
979.91	4460.48
980.07	4368.32
980.23	4468.67
980.39	4364.22
980.55	4339.65
980.71	4380.61
980.88	4304.83
981.04	4392.89
981.20	4253.63
981.36	4378.56
981.52	4442.04
981.68	4249.54
981.85	4292.54
982.01	4157.38
982.17	4274.11
982.33	4286.40
982.49	4360.13
982.65	4143.04
982.82	4282.30
982.98	4220.86
983.14	4065.22
983.30	4243.39
983.46	4284.35
983.62	4218.82
983.79	4186.05
983.95	4143.04
984.11	4022.21
984.27	4163.52
984.43	4052.93
984.59	4122.56
984.75	4229.06
984.91	4198.34
985.08	4198.34
985.24	4106.18
985.40	4140.99
985.56	4001.73
985.72	4108.23
985.88	4102.08
986.04	3946.44
986.20	3921.86
986.37	3975.11
986.53	3936.20
986.69	4052.93
986.85	4038.59
987.01	3942.34
987.17	3968.96
987.33	3991.49
987.49	3813.32
987.65	4026.31
987.82	3901.38
987.98	3831.75
988.14	3846.09
988.30	4097.99
988.46	3821.51
988.62	3852.23
988.78	3885.00
988.94	3887.04
989.10	3823.56
989.26	3885.00
989.42	3723.21
989.59	3739.59
989.75	3690.44
989.91	3768.26
990.07	3739.59
990.23	3610.57
990.39	3762.12
990.55	3889.09
990.71	3600.33
990.87	3747.78
991.03	3739.59
991.19	3702.73
991.35	3737.54
991.51	3672.01
991.67	3751.88
991.83	3639.24
992.00	3758.02
992.16	3782.60
992.32	3741.64
992.48	3770.31
992.64	3602.38
992.80	3649.48
992.96	3749.83
993.12	3733.45
993.28	3657.67
993.44	3624.90
993.60	3571.66
993.76	3723.21
993.92	3624.90
994.08	3583.95
994.24	3473.36
994.40	3536.84
994.56	3622.86
994.72	3547.08
994.88	3518.41
995.04	3485.64
995.20	3471.31
995.36	3502.03
995.52	3545.03
995.68	3491.79
995.84	3377.10
996.00	3579.85
996.16	3364.81
996.32	3364.81
996.48	3424.20
996.64	3436.49
996.80	3319.76
996.96	3350.48
997.12	3459.02
997.28	3387.34
997.44	3366.86
997.60	3198.93
997.76	3442.64
997.92	3346.38
998.08	3336.14
998.24	3229.65
998.40	3309.52
998.56	3348.43
998.72	3258.32
998.88	3272.65
999.04	3334.09
999.20	3434.44
999.36	3143.63
999.52	3307.47
999.68	3377.10
999.84	3274.70
1000.00	3258.32
1000.16	3373.00
1000.32	3207.12
1000.48	3262.41
1000.64	3098.58
1000.80	3151.82
1000.95	3162.06
1001.11	3203.02
1001.27	3145.68
1001.43	3123.15
1001.59	3117.01
1001.75	3192.78
1001.91	3067.86
1002.07	3196.88
1002.23	3100.62
1002.39	3045.33
1002.55	3151.82
1002.71	3047.38
1002.87	3137.49
1003.03	3026.90
1003.19	3063.76
1003.34	3035.09
1003.50	3045.33
1003.66	3125.20
1003.82	2983.89
1003.98	3090.38
1004.14	3063.76
1004.30	2955.22
1004.46	2971.60
1004.62	2930.64
1004.78	2969.55
1004.94	2942.93
1005.09	3084.24
1005.25	3033.04
1005.41	2979.79
1005.57	2922.45
1005.73	2981.84
1005.89	2785.24
1006.05	2932.69
1006.21	2934.74
1006.37	2852.82
1006.52	2959.31
1006.68	2836.44
1006.84	2992.08
1007.00	2932.69
1007.16	2908.12
1007.32	2793.43
1007.48	2992.08
1007.64	2877.40
1007.79	2824.15
1007.95	2731.99
1008.11	2912.21
1008.27	2783.19
1008.43	2805.72
1008.59	2725.85
1008.75	2803.67
1008.91	2910.16
1009.06	2783.19
1009.22	2834.39
1009.38	2838.48
1009.54	2772.95
1009.70	2672.60
1009.86	2777.05
1010.01	2836.44
1010.17	2756.57
1010.33	2777.05
1010.49	2797.53
1010.65	2822.10
1010.81	2641.88
1010.96	2766.81
1011.12	2795.48
1011.28	2629.59
1011.44	2756.57
1011.60	2682.84
1011.76	2697.17
1011.91	2756.57
1012.07	2658.26
1012.23	2596.82
1012.39	2637.78
1012.55	2686.94
1012.71	2650.07
1012.86	2648.02
1013.02	2562.01
1013.18	2510.81
1013.34	2572.25
1013.50	2645.98
1013.65	2748.37
1013.81	2555.86
1013.97	2572.25
1014.13	2664.41
1014.29	2598.87
1014.44	2713.56
1014.60	2455.51
1014.76	2617.30
1014.92	2541.53
1015.07	2523.10
1015.23	2582.49
1015.39	2377.69
1015.55	2547.67
1015.71	2525.15
1015.86	2445.27
1016.02	2480.09
1016.18	2461.66
1016.34	2543.58
1016.49	2426.84
1016.65	2576.34
1016.81	2473.95
1016.97	2510.81
1017.12	2525.15
1017.28	2469.85
1017.44	2392.03
1017.60	2465.75
1017.75	2447.32
1017.91	2437.08
1018.07	2494.43
1018.23	2400.22
1018.38	2396.12
1018.54	2344.92
1018.70	2463.71
1018.86	2381.79
1019.01	2400.22
1019.17	2404.32
1019.33	2402.27
1019.49	2389.98
1019.64	2435.03
1019.80	2357.21
1019.96	2394.08
1020.12	2502.62
1020.27	2269.15
1020.43	2404.32
1020.59	2453.47
1020.74	2389.98
1020.90	2418.65
1021.06	2326.49
1021.22	2375.64
1021.37	2336.73
1021.53	2183.13
1021.69	2394.08
1021.84	2207.71
1022.00	2312.16
1022.16	2281.44
1022.31	2285.53
1022.47	2316.25
1022.63	2361.31
1022.79	2176.99
1022.94	2244.57
1023.10	2396.12
1023.26	2269.15
1023.41	2295.77
1023.57	2232.29
1023.73	2310.11
1023.88	2228.19
1024.04	2211.81
1024.20	2234.33
1024.35	2203.61
1024.51	2236.38
1024.67	2187.23
1024.82	2250.72
1024.98	2215.90
1025.14	2254.81
1025.29	2209.76
1025.45	2220.00
1025.61	2174.94
1025.76	2205.66
1025.92	2240.48
1026.08	2213.85
1026.23	2099.17
1026.39	2240.48
1026.55	2121.70
1026.70	2090.98
1026.86	2084.83
1027.02	2205.66
1027.17	2181.09
1027.33	2127.84
1027.48	2115.55
1027.64	2099.17
1027.80	2160.61
1027.95	2220.00
1028.11	2074.59
1028.27	2136.03
1028.42	2211.81
1028.58	2072.54
1028.73	2041.82
1028.89	2097.12
1029.05	2213.85
1029.20	2172.89
>>>>>End Processed Spectral Data<<<<<
