SpectraSuite Data File
++++++++++++++++++++++++++++++++++++
Date: Fri Jun 02 14:57:22 CEST 2017
User: INFO_000
Dark Spectrum Present: No
Reference Spectrum Present: No
Number of Sampled Component Spectra: 1
Spectrometers: USB4H00879
Integration Time (usec): 80000 (USB4H00879)
Spectra Averaged: 1 (USB4H00879)
Boxcar Smoothing: 0 (USB4H00879)
Correct for Electrical Dark: No (USB4H00879)
Strobe/Lamp Enabled: No (USB4H00879)
Correct for Detector Non-linearity: No (USB4H00879)
Correct for Stray Light: No (USB4H00879)
Number of Pixels in Processed Spectrum: 3648
>>>>>Begin Processed Spectral Data<<<<<
345.13	1286.12
345.34	1286.12
345.56	1286.12
345.78	1255.40
345.99	1304.56
346.21	1658.85
346.42	1712.10
346.64	1646.57
346.86	1773.54
347.07	1628.14
347.29	1775.59
347.50	1626.09
347.72	1572.84
347.94	1769.44
348.15	1605.61
348.37	1656.81
348.59	1773.54
348.80	1624.04
349.02	1757.16
349.23	1886.18
349.45	1847.27
349.67	1822.69
349.88	1810.40
350.10	1978.34
350.31	1847.27
350.53	1843.17
350.75	2007.01
350.96	1822.69
351.18	1859.56
351.39	1888.23
351.61	1871.84
351.82	1949.67
352.04	1871.84
352.26	1814.50
352.47	1894.37
352.69	1941.47
352.90	1800.16
353.12	1931.23
353.34	1953.76
353.55	1896.42
353.77	1841.12
353.98	1865.70
354.20	1794.02
354.41	1974.24
354.63	1877.99
354.85	2031.58
355.06	1900.52
355.28	1880.04
355.49	1855.46
355.71	1896.42
355.92	1849.32
356.14	1951.71
356.35	1904.61
356.57	1837.03
356.79	1875.94
357.00	1871.84
357.22	1953.76
357.43	1798.12
357.65	1966.05
357.86	1914.85
358.08	1925.09
358.29	1832.93
358.51	2000.87
358.72	1968.10
358.94	1920.99
359.16	1892.32
359.37	1869.80
359.59	1910.75
359.80	1992.67
360.02	1957.86
360.23	1982.43
360.45	1916.90
360.66	1920.99
360.88	1871.84
361.09	1904.61
361.31	2019.30
361.52	1998.82
361.74	2021.35
361.95	2076.64
362.17	2025.44
362.38	2058.21
362.60	2007.01
362.81	1896.42
363.03	1902.56
363.24	1994.72
363.46	2045.92
363.67	1929.19
363.89	1964.00
364.10	2029.54
364.32	2035.68
364.53	2093.02
364.75	1918.95
364.96	2007.01
365.18	1959.91
365.39	1998.82
365.61	2007.01
365.82	2101.22
366.04	1998.82
366.25	1920.99
366.47	2039.78
366.68	2037.73
366.90	1968.10
367.11	2060.26
367.33	2025.44
367.54	2146.27
367.76	2031.58
367.97	2164.70
368.19	2027.49
368.40	2121.70
368.62	1968.10
368.83	1947.62
369.05	2111.46
369.26	1896.42
369.48	2050.02
369.69	2007.01
369.91	2076.64
370.12	1939.43
370.33	2072.54
370.55	2027.49
370.76	2027.49
370.98	2174.94
371.19	2068.45
371.41	1953.76
371.62	2074.59
371.84	2000.87
372.05	2199.52
372.27	2029.54
372.48	2017.25
372.69	2082.78
372.91	2131.94
373.12	2164.70
373.34	2072.54
373.55	2084.83
373.77	2181.09
373.98	2050.02
374.20	2144.22
374.41	2258.91
374.62	2127.84
374.84	2150.37
375.05	2246.62
375.27	2158.56
375.48	2193.37
375.70	2166.75
375.91	2252.77
376.12	2303.96
376.34	2164.70
376.55	2211.81
376.77	2207.71
376.98	2119.65
377.19	2213.85
377.41	2140.13
377.62	2201.57
377.84	2271.20
378.05	2369.50
378.27	2260.96
378.48	2371.55
378.69	2371.55
378.91	2332.64
379.12	2275.29
379.34	2260.96
379.55	2306.01
379.76	2234.33
379.98	2140.13
380.19	2310.11
380.41	2185.18
380.62	2254.81
380.83	2252.77
381.05	2224.09
381.26	2418.65
381.47	2176.99
381.69	2303.96
381.90	2453.47
382.12	2314.20
382.33	2271.20
382.54	2322.40
382.76	2265.05
382.97	2293.72
383.19	2308.06
383.40	2396.12
383.61	2314.20
383.83	2293.72
384.04	2291.68
384.25	2369.50
384.47	2383.84
384.68	2351.07
384.89	2361.31
385.11	2332.64
385.32	2316.25
385.54	2349.02
385.75	2361.31
385.96	2426.84
386.18	2473.95
386.39	2523.10
386.60	2402.27
386.82	2467.80
387.03	2492.38
387.24	2414.56
387.46	2475.99
387.67	2537.43
387.88	2486.23
388.10	2475.99
388.31	2490.33
388.52	2570.20
388.74	2533.34
388.95	2500.57
389.16	2566.10
389.38	2480.09
389.59	2541.53
389.80	2619.35
390.02	2527.19
390.23	2658.26
390.44	2547.67
390.66	2598.87
390.87	2557.91
391.08	2590.68
391.30	2699.22
391.51	2650.07
391.72	2691.03
391.94	2652.12
392.15	2674.65
392.36	2619.35
392.58	2633.69
392.79	2699.22
393.00	2695.13
393.22	2840.53
393.43	2803.67
393.64	2797.53
393.85	2660.31
394.07	2639.83
394.28	2779.09
394.49	2758.61
394.71	2748.37
394.92	2873.30
395.13	2779.09
395.35	2750.42
395.56	2717.65
395.77	2768.85
395.98	2830.29
396.20	2832.34
396.41	2840.53
396.62	2797.53
396.84	2740.18
397.05	2807.77
397.26	2936.79
397.47	2936.79
397.69	2826.20
397.90	3082.19
398.11	2867.16
398.32	2893.78
398.54	2893.78
398.75	2994.13
398.96	2850.77
399.18	3035.09
399.39	2885.59
399.60	3166.16
399.81	2983.89
400.03	2916.31
400.24	3272.65
400.45	2861.01
400.66	3135.44
400.88	3012.56
401.09	3241.93
401.30	3037.14
401.51	3194.83
401.73	3131.34
401.94	3110.86
402.15	3112.91
402.36	3035.09
402.58	3209.17
402.79	3233.74
403.00	3168.21
403.21	3221.45
403.43	3209.17
403.64	3223.50
403.85	3141.58
404.06	3305.42
404.27	3172.30
404.49	3186.64
404.70	3078.10
404.91	3219.41
405.12	3217.36
405.34	3254.22
405.55	3356.62
405.76	3207.12
405.97	3160.02
406.19	3362.76
406.40	3217.36
406.61	3274.70
406.82	3413.96
407.03	3278.80
407.25	3190.74
407.46	3370.96
407.67	3340.24
407.88	3518.41
408.09	3325.90
408.31	3403.72
408.52	3420.11
408.73	3303.37
408.94	3377.10
409.15	3469.26
409.37	3442.64
409.58	3522.51
409.79	3452.88
410.00	3536.84
410.21	3469.26
410.43	3442.64
410.64	3258.32
410.85	3448.78
411.06	3547.08
411.27	3418.06
411.48	3639.24
411.70	3510.22
411.91	3469.26
412.12	3641.29
412.33	3606.47
412.54	3618.76
412.76	3672.01
412.97	3772.36
413.18	3499.98
413.39	3522.51
413.60	3688.39
413.81	3608.52
414.03	3639.24
414.24	3588.04
414.45	3749.83
414.66	3573.71
414.87	3721.16
415.08	3604.42
415.30	3702.73
415.51	3669.96
415.72	3788.74
415.93	3743.69
416.14	3729.35
416.35	3866.56
416.56	3913.67
416.78	3962.82
416.99	3854.28
417.20	3825.61
417.41	3903.43
417.62	3944.39
417.83	3985.35
418.04	3907.52
418.26	3934.15
418.47	3846.09
418.68	3897.28
418.89	3856.33
419.10	4118.47
419.31	3923.91
419.52	4046.79
419.73	4071.36
419.95	4032.45
420.16	3921.86
420.37	3997.64
420.58	4116.42
420.79	3968.96
421.00	4042.69
421.21	4179.90
421.42	3956.68
421.63	4227.01
421.85	4067.27
422.06	4227.01
422.27	4188.10
422.48	4165.57
422.69	4267.97
422.90	4177.86
423.11	4179.90
423.32	4284.35
423.53	4468.67
423.75	4274.11
423.96	4593.59
424.17	4333.50
424.38	4564.92
424.59	4491.20
424.80	4589.50
425.01	4433.85
425.22	4435.90
425.43	4452.28
425.64	4747.19
425.85	4622.27
426.06	4513.72
426.28	4583.35
426.49	4495.29
426.70	4503.48
426.91	4579.26
427.12	4724.66
427.33	4667.32
427.54	4571.07
427.75	4743.10
427.96	4939.70
428.17	4685.75
428.38	4739.00
428.59	4857.78
428.80	4827.06
429.01	4876.21
429.23	4825.01
429.44	5027.76
429.65	4935.60
429.86	4933.56
430.07	4863.93
430.28	4874.17
430.49	4933.56
430.70	5220.27
430.91	5042.10
431.12	5124.02
431.33	5128.11
431.54	5201.84
431.75	5029.81
431.96	5173.17
432.17	5226.42
432.38	5158.83
432.59	5287.86
432.80	5273.52
433.01	5369.77
433.22	5214.13
433.43	5294.00
433.64	5302.19
433.85	5265.33
434.06	5400.49
434.27	5201.84
434.49	5498.80
434.70	5480.36
434.91	5470.12
435.12	5498.80
435.33	5410.73
435.54	5537.71
435.75	5230.51
435.96	5461.93
436.17	5300.14
436.38	5646.25
436.59	5613.48
436.80	5486.51
437.01	5705.64
437.22	5597.10
437.43	5732.26
437.64	5431.21
437.85	5576.62
438.06	5746.60
438.27	5597.10
438.48	5668.78
438.69	5773.22
438.90	5664.68
439.11	5615.53
439.32	5836.71
439.53	5773.22
439.74	5732.26
439.95	5896.10
440.16	5955.49
440.37	5939.11
440.57	5945.25
440.78	5984.16
440.99	5947.30
441.20	5965.73
441.41	5758.89
441.62	5898.15
441.83	5846.95
442.04	6061.99
442.25	5928.87
442.46	6086.56
442.67	6150.05
442.88	6471.58
443.09	5978.02
443.30	6059.94
443.51	6197.15
443.72	6270.88
443.93	6111.14
444.14	6320.03
444.35	6037.41
444.56	6360.99
444.77	6154.15
444.98	6352.80
445.19	6352.80
445.40	6246.30
445.61	6494.11
445.81	6420.38
446.02	6438.81
446.23	6234.02
446.44	6164.39
446.65	6408.09
446.86	6547.36
447.07	6582.17
447.28	6805.40
447.49	6561.69
447.70	6559.64
447.91	6614.94
448.12	6561.69
448.33	6752.15
448.54	6813.59
448.74	6535.07
448.95	6717.34
449.16	6451.10
449.37	6952.85
449.58	6756.25
449.79	6860.70
450.00	6717.34
450.21	7034.77
450.42	6909.85
450.63	6870.94
450.84	6959.00
451.05	7004.05
451.25	6899.61
451.46	7057.30
451.67	7092.12
451.88	7092.12
452.09	7042.96
452.30	7073.68
452.51	6889.37
452.72	7276.43
452.93	7499.66
453.13	7053.20
453.34	6979.48
453.55	7323.54
453.76	7278.48
453.97	7507.85
454.18	7292.82
454.39	7507.85
454.60	7235.47
454.81	7477.13
455.01	7548.81
455.22	7301.01
455.43	7387.02
455.64	7597.96
455.85	7794.57
456.06	7729.03
456.27	7704.46
456.48	7643.02
456.68	7643.02
456.89	7892.87
457.10	7868.30
457.31	7804.81
457.52	7888.78
457.73	7962.50
457.94	8183.68
458.14	7866.25
458.35	8251.27
458.56	8069.00
458.77	7954.31
458.98	8191.88
459.19	8327.04
459.39	8353.66
459.60	8470.40
459.81	8247.17
460.02	8431.49
460.23	8380.29
460.44	8642.43
460.65	8544.13
460.85	8587.13
461.06	8642.43
461.27	8535.93
461.48	8970.10
461.69	8939.38
461.89	8531.84
462.10	8849.27
462.31	8621.95
462.52	8836.99
462.73	9004.92
462.94	9164.66
463.14	9023.35
463.35	9105.27
463.56	9469.81
463.77	9359.22
463.98	9092.98
464.18	9301.87
464.39	9473.90
464.60	9647.98
464.81	9512.81
465.02	9508.72
465.23	9760.62
465.43	9506.67
465.64	9865.07
465.85	9752.43
466.06	9686.89
466.27	9932.65
466.47	9938.79
466.68	10153.83
466.89	9899.88
467.10	10057.57
467.30	9893.74
467.51	10155.88
467.72	10450.78
467.93	10104.68
468.14	10198.88
468.34	10362.72
468.55	10360.67
468.76	10444.64
468.97	10327.91
469.17	10553.18
469.38	10757.98
469.59	11036.50
469.80	10737.50
470.01	10958.68
470.21	10909.53
470.42	10960.73
470.63	11143.00
470.84	11001.69
471.04	11323.22
471.25	11261.78
471.46	11376.47
471.67	11568.98
471.87	11497.30
472.08	11513.68
472.29	11820.88
472.50	11427.67
472.70	11519.82
472.91	11593.55
473.12	11798.35
473.33	11984.71
473.53	12154.69
473.74	12093.26
473.95	12332.87
474.16	12525.38
474.36	12302.15
474.57	12396.35
474.78	12654.40
474.99	12674.88
475.19	12631.87
475.40	12969.79
475.61	12900.16
475.81	13020.99
476.02	13393.72
476.23	12934.97
476.44	13188.92
476.64	13414.20
476.85	13627.18
477.06	13387.57
477.27	13864.75
477.47	13797.17
477.68	13713.20
477.89	13975.34
478.09	14042.92
478.30	13872.94
478.51	13934.38
478.71	14341.93
478.92	14204.71
479.13	14559.01
479.34	14761.76
479.54	14573.35
479.75	14554.91
479.96	14640.93
480.16	14933.79
480.37	14786.33
480.58	15116.06
480.78	15349.53
480.99	15365.91
481.20	15249.18
481.41	15269.66
481.61	15537.94
481.82	15693.58
482.03	15597.33
482.23	15599.38
482.44	16140.04
482.65	15935.24
482.85	16086.79
483.06	16011.02
483.27	16230.15
483.47	16211.72
483.68	16451.33
483.89	16344.84
484.09	16477.96
484.30	16502.53
484.51	16924.41
484.71	16979.71
484.92	16959.23
485.13	17233.66
485.33	16889.60
485.54	17080.06
485.75	17254.14
485.95	17327.86
486.16	17645.30
486.37	17284.86
486.57	17540.85
486.78	17628.92
486.98	17581.81
487.19	17999.60
487.40	17979.12
487.60	17837.81
487.81	18194.15
488.02	17987.31
488.22	18063.08
488.43	18550.50
488.64	18415.34
488.84	18501.35
489.05	18747.11
489.25	18548.45
489.46	19005.15
489.67	18826.98
489.87	19214.04
490.08	19087.07
490.29	19136.22
490.49	19379.93
490.70	19291.87
490.90	19377.88
491.11	19441.37
491.32	19388.12
491.52	19523.29
491.73	19543.77
491.94	19875.54
492.14	19668.69
492.35	20156.11
492.55	20031.18
492.76	19928.78
492.97	20059.85
493.17	20442.82
493.38	20133.58
493.58	20530.89
493.79	20811.46
494.00	20405.96
494.20	20762.31
494.41	20688.58
494.61	21194.43
494.82	20973.25
495.02	21178.04
495.23	21124.80
495.44	21196.48
495.64	21309.11
495.85	21362.36
496.05	21407.42
496.26	21350.07
496.47	21667.51
496.67	21616.31
496.88	21835.44
497.08	21434.04
497.29	21911.22
497.49	21827.25
497.70	22171.31
497.91	22032.05
498.11	22167.21
498.32	22277.80
498.52	22310.57
498.73	22429.35
498.93	22406.83
499.14	22681.25
499.34	22607.53
499.55	22693.54
499.76	22599.34
499.96	22759.08
500.17	22863.52
500.37	22965.92
500.58	22888.10
500.78	22959.78
500.99	22769.32
501.19	23201.44
501.40	23213.73
501.60	23322.27
501.81	23180.96
502.02	23336.60
502.22	22910.63
502.43	23295.64
502.63	23543.45
502.84	23651.99
503.04	23860.88
503.25	23756.44
503.45	23688.85
503.66	23830.16
503.86	23994.00
504.07	23713.43
504.27	23969.43
504.48	24256.14
504.68	24084.11
504.89	24495.75
505.09	24518.28
505.30	24561.29
505.50	24426.12
505.71	24678.02
505.91	24884.87
506.12	24467.08
506.32	24471.18
506.53	24592.01
506.73	25243.26
506.94	24831.62
507.14	24800.90
507.35	24888.96
507.55	25198.21
507.76	24921.73
507.96	25081.47
508.17	25398.91
508.37	25458.30
508.58	25200.26
508.78	25337.47
508.99	25644.66
509.19	25419.39
509.40	25615.99
509.60	25814.65
509.81	25859.70
510.01	25697.91
510.22	25646.71
510.42	25550.46
510.63	25835.13
510.83	25900.66
511.04	25935.48
511.24	26035.83
511.44	26291.82
511.65	26115.70
511.85	26166.90
512.06	26287.73
512.26	26484.33
512.47	26474.09
512.67	26312.30
512.88	26648.17
513.08	26246.77
513.29	26773.10
513.49	26668.65
513.69	26613.35
513.90	26838.63
514.10	26820.20
514.31	26891.88
514.51	26865.25
514.72	27223.65
514.92	26852.97
515.13	27012.71
515.33	27149.92
515.53	27287.14
515.74	27412.06
515.94	27477.60
516.15	27463.26
516.35	27244.13
516.56	27623.00
516.76	27598.43
516.96	27407.97
517.17	27973.21
517.37	27913.81
517.58	27985.49
517.78	27694.68
517.99	27815.51
518.19	28186.19
518.39	28247.63
518.60	28341.84
518.80	28298.83
519.01	28450.38
519.21	28337.74
519.41	28366.42
519.62	28552.78
519.82	28579.40
520.03	28696.14
520.23	28833.35
520.43	28487.25
520.64	29161.03
520.84	28866.12
521.05	29075.01
521.25	29107.78
521.45	29402.69
521.66	29124.16
521.86	29328.96
522.07	29089.35
522.27	29441.60
522.47	29486.65
522.68	29705.79
522.88	29799.99
523.08	29787.71
523.29	29988.41
523.49	29789.75
523.70	29996.60
523.90	30187.06
524.10	30250.55
524.31	30256.69
524.51	30172.72
524.71	30484.01
524.92	30516.78
525.12	30866.98
525.33	30907.94
525.53	30840.36
525.73	31047.21
525.94	30740.01
526.14	31157.80
526.34	30877.22
526.55	31307.30
526.75	31215.14
526.95	31303.20
527.16	31454.75
527.36	31503.90
527.56	31811.10
527.77	31811.10
527.97	32075.29
528.17	32128.53
528.38	32009.75
528.58	32112.15
528.78	32292.37
528.99	32181.78
529.19	32515.60
529.39	32390.67
529.60	32538.13
529.80	32706.06
530.00	32429.59
530.21	33338.88
530.41	33336.84
530.61	32697.87
530.82	33082.89
531.02	32839.18
531.22	33125.89
531.43	32845.32
531.63	33601.02
531.83	33619.46
532.04	33811.96
532.24	33783.29
532.44	33758.72
532.64	34096.63
532.85	34334.20
533.05	34362.87
533.25	34108.92
533.46	34063.86
533.66	34483.70
533.86	34854.38
534.07	35024.36
534.27	34799.08
534.47	34885.10
534.67	35300.84
534.88	34883.05
535.08	35145.19
535.28	35325.41
535.49	35450.34
535.69	35481.06
535.89	35735.01
536.09	35911.13
536.30	35655.14
536.50	35788.25
536.70	35958.24
536.91	36081.11
537.11	36300.25
537.31	36228.57
537.51	36617.68
537.72	36802.00
537.92	36879.82
538.12	36625.87
538.32	36791.76
538.53	36969.93
538.73	36709.84
538.93	37012.94
539.13	37242.31
539.34	36744.66
539.54	37070.28
539.74	37537.22
539.94	36896.20
540.15	37074.38
540.35	37629.38
540.55	37531.08
540.75	37443.01
540.96	37903.81
541.16	37531.08
541.36	37682.62
541.56	37647.81
541.77	38139.32
541.97	38352.31
542.17	38225.34
542.37	38225.34
542.58	38366.65
542.78	38174.14
542.98	38524.34
543.18	38385.08
543.38	38741.42
543.59	39196.07
543.79	38247.86
543.99	38694.32
544.19	39142.83
544.40	38868.40
544.60	39431.59
544.80	39271.85
545.00	39329.19
545.20	39392.68
545.41	39040.43
545.61	38972.85
545.81	39630.24
546.01	39538.08
546.21	39196.07
546.42	39484.84
546.62	39978.40
546.82	39720.35
547.02	39443.88
547.22	39919.01
547.43	39564.71
547.63	39732.64
547.83	40084.89
548.03	39660.96
548.23	40375.70
548.44	39871.90
548.64	40099.23
548.84	40048.03
549.04	40258.97
549.24	40650.13
549.45	41072.01
549.65	40267.16
549.85	40316.31
550.05	40603.03
550.25	40455.57
550.45	40992.14
550.66	40842.64
550.86	40471.96
551.06	41029.01
551.26	40834.45
551.46	40887.70
551.66	41387.40
551.87	41006.48
552.07	41100.68
552.27	40916.37
552.47	40994.19
552.67	41418.12
552.87	41172.36
553.07	41311.63
553.28	41487.75
553.48	41444.74
553.68	41756.03
553.88	41426.31
554.08	41614.72
554.28	41391.50
554.48	41465.22
554.69	41311.63
554.89	41565.57
555.09	41831.81
555.29	41753.99
555.49	41899.39
555.69	41850.24
555.89	41708.93
556.10	41895.30
556.30	41600.39
556.50	42151.29
556.70	41721.22
556.90	42368.38
557.10	42509.69
557.30	42055.04
557.50	42292.60
557.70	41997.70
557.91	42173.82
558.11	42026.37
558.31	42210.68
558.51	42370.43
558.71	42308.99
558.91	42321.27
559.11	42063.23
559.31	42382.71
559.51	42216.83
559.72	42702.20
559.92	42368.38
560.12	42485.11
560.32	42499.45
560.52	42603.89
560.72	42745.20
560.92	42880.37
561.12	42798.45
561.32	42976.62
561.52	42612.09
561.72	42806.64
561.93	42859.89
562.13	42931.57
562.33	42798.45
562.53	43156.85
562.73	42638.71
562.93	42966.38
563.13	43173.23
563.33	42499.45
563.53	43332.97
563.73	42743.16
563.93	43210.09
564.13	43433.32
564.33	42906.99
564.53	43181.42
564.74	43187.56
564.94	43036.02
565.14	43357.55
565.34	42694.00
565.54	43261.29
565.74	43758.95
565.94	43660.65
566.14	43281.77
566.34	43261.29
566.54	43636.07
566.74	43085.17
566.94	43568.49
567.14	43513.19
567.34	43212.14
567.54	43656.55
567.74	43570.54
567.94	43791.72
568.14	43734.37
568.34	43912.55
568.54	43613.54
568.74	43955.55
568.94	43779.43
569.14	43826.53
569.34	44092.77
569.54	43998.56
569.75	43847.01
569.95	43898.21
570.15	44098.91
570.35	44021.09
570.55	44006.75
570.75	44180.83
570.95	44350.81
571.15	44260.70
571.35	44272.99
571.55	44107.10
571.75	44176.73
571.95	44127.58
572.15	44281.18
572.35	44582.23
572.55	44242.27
572.75	44146.01
572.95	44442.97
573.15	44422.49
573.35	44830.04
573.55	44201.31
573.75	44473.69
573.95	44475.74
574.15	44635.48
574.35	45090.13
574.55	44578.14
574.75	44520.79
574.95	44823.89
575.15	44244.32
575.34	44762.45
575.54	45407.56
575.74	45122.90
575.94	45020.50
576.14	45155.66
576.34	45624.65
576.54	45331.79
576.74	45454.67
576.94	45116.75
577.14	45641.03
577.34	45872.45
577.54	45090.13
577.74	45405.52
577.94	45632.84
578.14	45542.73
578.34	46021.95
578.54	45450.57
578.74	45135.18
578.94	45458.76
579.14	45671.75
579.34	45641.03
579.54	45856.07
579.74	45940.04
579.94	46058.82
580.13	46130.50
580.33	46075.20
580.53	46050.63
580.73	46191.94
580.93	46050.63
581.13	46333.24
581.33	46275.90
581.53	46736.69
581.73	46427.45
581.93	46556.47
582.13	46652.73
582.33	46490.94
582.53	46296.38
582.73	46794.04
582.92	46595.38
583.12	46896.44
583.32	47322.41
583.52	46392.64
583.72	46900.53
583.92	46906.68
584.12	46959.92
584.32	47244.59
584.52	47138.10
584.72	47062.32
584.92	47279.41
585.11	47953.19
585.31	47172.91
585.51	47256.88
585.71	47594.79
585.91	47699.24
586.11	47273.26
586.31	47582.51
586.51	47519.02
586.71	47740.20
586.91	47934.76
587.10	47318.32
587.30	47756.58
587.50	47873.32
587.70	47830.31
587.90	48067.87
588.10	48114.98
588.30	47713.58
588.50	48330.01
588.69	47676.71
588.89	47965.48
589.09	48518.43
589.29	48231.71
589.49	48338.21
589.69	47869.22
589.89	48727.32
590.08	48522.52
590.28	48110.88
590.48	48362.78
590.68	48385.31
590.88	48338.21
591.08	48588.06
591.28	48342.30
591.47	49337.62
591.67	49032.47
591.87	48760.09
592.07	49011.99
592.27	49093.91
592.47	49030.42
592.67	48825.62
592.86	48809.24
593.06	49112.34
593.26	49390.86
593.46	49665.29
593.66	49067.28
593.86	49337.62
594.05	49270.03
594.25	49478.92
594.45	49319.18
594.65	49397.01
594.85	49313.04
595.05	49839.37
595.24	49956.10
595.44	49741.06
595.64	49513.74
595.84	49554.70
596.04	49806.60
596.23	50164.99
596.43	50189.57
596.63	49958.15
596.83	50097.41
597.03	50312.45
597.22	50550.01
597.42	50365.70
597.62	50449.66
597.82	50818.30
598.02	50496.77
598.21	50713.85
598.41	50550.01
598.61	50738.43
598.81	50679.03
599.01	50595.07
599.20	51057.91
599.40	51043.57
599.60	50828.54
599.80	51062.00
600.00	50806.01
600.19	51395.82
600.39	51109.11
600.59	51567.85
600.79	51510.51
600.98	51102.96
601.18	51258.61
601.38	51363.06
601.58	51887.34
601.78	51526.89
601.97	51473.65
602.17	51909.86
602.37	51551.47
602.57	51508.46
602.76	52008.17
602.96	51680.49
603.16	52450.53
603.36	52204.77
603.55	52172.00
603.75	52315.36
603.95	52372.70
604.15	52716.76
604.34	52479.20
604.54	52557.02
604.74	52458.72
604.94	52272.35
605.13	52380.90
605.33	52815.07
605.53	52391.14
605.73	53187.80
605.92	52516.06
606.12	52839.64
606.32	53013.72
606.52	53052.63
606.71	53566.67
606.91	53449.94
607.11	53460.18
607.30	53234.90
607.50	53116.12
607.70	52991.19
607.90	53396.69
608.09	53486.80
608.29	53834.95
608.49	53673.16
608.68	53365.97
608.88	53265.62
609.08	54029.51
609.28	53449.94
609.47	53503.18
609.67	54174.92
609.87	53494.99
610.06	54260.93
610.26	54086.85
610.46	54086.85
610.66	53869.77
610.85	54088.90
611.05	53447.89
611.25	54183.11
611.44	53841.10
611.64	54566.08
611.84	54148.29
612.03	54469.82
612.23	54262.98
612.43	54654.14
612.62	54285.51
612.82	54250.69
613.02	54377.67
613.21	54293.70
613.41	54336.71
613.61	53869.77
613.80	54170.82
614.00	54168.77
614.20	54359.23
614.39	54475.97
614.59	54961.34
614.79	54551.74
614.98	54420.67
615.18	54777.02
615.38	54957.24
615.57	54363.33
615.77	54820.03
615.97	54435.01
616.16	54719.68
616.36	54602.94
616.56	54662.33
616.75	55024.82
616.95	54197.44
617.15	54637.76
617.34	54648.00
617.54	54527.17
617.74	55139.51
617.93	54852.80
618.13	54502.59
618.32	55018.68
618.52	54506.69
618.72	54813.88
618.91	54674.62
619.11	55104.70
619.31	54803.64
619.50	54826.17
619.70	54400.19
619.90	54682.81
620.09	54998.20
620.29	54813.88
620.48	55069.88
620.68	55260.34
620.88	54754.49
621.07	54461.63
621.27	54985.91
621.46	54697.15
621.66	54807.74
621.86	54899.90
622.05	54762.68
622.25	55170.23
622.44	54965.43
622.64	54820.03
622.84	54564.03
623.03	54848.70
623.23	55264.44
623.42	55002.30
623.62	55065.78
623.82	55272.63
624.01	55254.20
624.21	55221.43
624.40	54817.98
624.60	54840.51
624.80	54588.61
624.99	54379.71
625.19	54471.87
625.38	54949.05
625.58	54903.99
625.77	54990.01
625.97	54795.45
626.17	54451.39
626.36	55090.36
626.56	55422.13
626.75	54529.22
626.95	55467.19
627.14	54693.05
627.34	55026.87
627.54	54461.63
627.73	55014.58
627.93	55024.82
628.12	54705.34
628.32	54865.08
628.51	55516.34
628.71	54897.85
628.90	55151.80
629.10	55282.87
629.30	55149.75
629.49	55502.00
629.69	54701.25
629.88	55018.68
630.08	55360.69
630.27	55350.45
630.47	55555.25
630.66	55045.30
630.86	55284.92
631.05	54658.24
631.25	55573.68
631.44	55293.11
631.64	55180.47
631.84	55301.30
632.03	55616.69
632.23	55102.65
632.42	55176.37
632.62	55473.33
632.81	54672.57
633.01	55063.74
633.20	55510.19
633.40	55479.47
633.59	55407.79
633.79	55086.26
633.98	55358.64
634.18	55329.97
634.37	55231.67
634.57	55235.77
634.76	55350.45
634.96	55139.51
635.15	55485.62
635.35	55342.26
635.54	55385.27
635.74	55305.40
635.93	54930.62
636.13	55712.94
636.32	55893.16
636.52	55329.97
636.71	55358.64
636.91	55325.88
637.10	55747.76
637.30	55346.36
637.49	55256.24
637.69	55592.11
637.88	55604.40
638.08	55342.26
638.27	55669.93
638.46	55706.80
638.66	55338.16
638.85	55340.21
639.05	55516.34
639.24	55661.74
639.44	55186.61
639.63	55395.51
639.83	55547.06
640.02	55708.85
640.22	55219.38
640.41	55661.74
640.61	55415.99
640.80	55297.20
640.99	55440.56
641.19	56212.65
641.38	55784.62
641.58	55917.74
641.77	55846.06
641.97	55633.07
642.16	55891.12
642.36	55458.99
642.55	56112.30
642.74	55096.50
642.94	56132.78
643.13	55403.70
643.33	55731.37
643.52	55776.43
643.72	55909.55
643.91	55557.30
644.10	55770.28
644.30	56253.61
644.49	56136.87
644.69	55825.58
644.88	55987.37
645.08	55741.61
645.27	55794.86
645.46	55577.78
645.66	56009.90
645.85	55489.71
646.05	56104.10
646.24	55983.27
646.43	55958.70
646.63	56136.87
646.82	56274.09
647.02	56024.23
647.21	56194.21
647.40	56028.33
647.60	55956.65
647.79	56218.79
647.99	56200.36
648.18	55856.30
648.37	56456.35
648.57	55940.27
648.76	55991.47
648.96	55844.01
649.15	56284.33
649.34	56239.27
649.54	56177.83
649.73	55970.99
649.92	55973.03
650.12	56177.83
650.31	56710.30
650.51	56521.89
650.70	56401.06
650.89	56001.71
651.09	56607.90
651.28	56564.90
651.47	56247.46
651.67	56132.78
651.86	56605.86
652.06	55628.98
652.25	56448.16
652.44	56267.94
652.64	56052.90
652.83	56126.63
653.02	56112.30
653.22	56290.47
653.41	56390.82
653.60	55555.25
653.80	55950.51
653.99	56126.63
654.18	56380.58
654.38	56036.52
654.57	56235.17
654.76	56040.62
654.96	55846.06
655.15	56198.31
655.34	56138.92
655.54	55774.38
655.73	56229.03
655.92	56251.56
656.12	56161.45
656.31	56339.62
656.50	56143.02
656.70	56063.14
656.89	55907.50
657.08	56360.10
657.28	56132.78
657.47	56489.12
657.66	56155.30
657.86	55682.22
658.05	56288.42
658.24	56401.06
658.43	55870.64
658.63	56530.08
658.82	56161.45
659.01	56476.83
659.21	56331.43
659.40	56489.12
659.59	55966.89
659.79	56485.03
659.98	56087.72
660.17	56626.34
660.36	56274.09
660.56	56519.84
660.75	55737.52
660.94	56362.15
661.14	56079.53
661.33	56196.26
661.52	55858.35
661.71	56681.63
661.91	55878.83
662.10	56196.26
662.29	56448.16
662.49	56315.04
662.68	56370.34
662.87	56341.67
663.06	56358.05
663.26	56128.68
663.45	56630.43
663.64	56140.97
663.83	56706.21
664.03	56321.19
664.22	55964.84
664.41	56177.83
664.60	56179.88
664.80	56356.00
664.99	56177.83
665.18	56030.38
665.37	56104.10
665.57	56386.72
665.76	56102.06
665.95	56130.73
666.14	56046.76
666.34	55909.55
666.53	55915.69
666.72	55917.74
666.91	55547.06
667.11	56003.75
667.30	56468.64
667.49	56196.26
667.68	55764.14
667.87	56183.97
668.07	56007.85
668.26	55874.73
668.45	56095.91
668.64	55602.35
668.84	56460.45
669.03	55866.54
669.22	56161.45
669.41	55549.10
669.60	56044.71
669.80	55694.51
669.99	56132.78
670.18	55981.23
670.37	55956.65
670.57	56489.12
670.76	56001.71
670.95	55870.64
671.14	55788.72
671.33	55461.04
671.53	55977.13
671.72	56177.83
671.91	55915.69
672.10	55897.26
672.29	55897.26
672.48	55475.38
672.68	55704.75
672.87	55530.67
673.06	55432.37
673.25	55411.89
673.44	55356.60
673.64	55647.41
673.83	55565.49
674.02	55444.66
674.21	55502.00
674.40	55880.88
674.59	55669.93
674.79	55856.30
674.98	55336.12
675.17	55663.79
675.36	55415.99
675.55	55927.98
675.74	55233.72
675.94	55477.43
676.13	55534.77
676.32	55448.75
676.51	55725.23
676.70	55571.63
676.89	55542.96
677.08	55479.47
677.28	55153.85
677.47	56016.04
677.66	55821.48
677.85	55401.65
678.04	55825.58
678.23	55735.47
678.42	55637.17
678.62	55514.29
678.81	55438.51
679.00	55264.44
679.19	56038.57
679.38	55686.32
679.57	55329.97
679.76	55442.61
679.96	55841.96
680.15	55358.64
680.34	55598.26
680.53	55522.48
680.72	55481.52
680.91	55368.88
681.10	55182.52
681.29	55391.41
681.48	55401.65
681.68	55358.64
681.87	55612.59
682.06	55164.09
682.25	54901.95
682.44	55114.94
682.63	55100.60
682.82	54924.47
683.01	54949.05
683.20	54822.08
683.39	54936.76
683.59	54834.36
683.78	54555.84
683.97	54244.55
684.16	54844.60
684.35	54437.06
684.54	54828.22
684.73	54830.27
684.92	54785.21
685.11	54453.44
685.30	54596.80
685.49	54990.01
685.69	54869.18
685.88	54770.88
686.07	54799.55
686.26	54604.99
686.45	54916.28
686.64	54729.92
686.83	55000.25
687.02	54656.19
687.21	54504.64
687.40	54865.08
687.59	54645.95
687.78	54736.06
687.97	54727.87
688.16	54832.32
688.35	54699.20
688.54	54342.85
688.74	54598.85
688.93	54222.02
689.12	54191.30
689.31	54189.25
689.50	54488.26
689.69	54160.58
689.88	53847.24
690.07	54490.30
690.26	54377.67
690.45	54738.11
690.64	54348.99
690.83	54111.43
691.02	54006.98
691.21	54191.30
691.40	54117.57
691.59	54189.25
691.78	54385.86
691.97	54142.15
692.16	54185.16
692.35	54066.38
692.54	54369.47
692.73	54136.01
692.92	54238.40
693.11	54305.99
693.30	54166.73
693.49	53984.46
693.68	53685.45
693.87	54082.76
694.06	53851.34
694.25	53949.64
694.44	53910.73
694.63	53937.35
694.82	54068.42
695.01	53626.06
695.20	53771.47
695.39	53593.29
695.58	53581.01
695.77	53943.50
695.96	53624.01
696.15	53460.18
696.34	53626.06
696.53	53929.16
696.72	53542.10
696.91	53632.21
697.10	53572.81
697.29	53327.06
697.48	53327.06
697.67	53370.07
697.86	53179.60
698.05	53148.88
698.24	53765.32
698.43	53116.12
698.62	53505.23
698.81	53009.62
699.00	53394.64
699.19	53071.06
699.38	53255.38
699.57	52929.75
699.76	53662.93
699.95	53322.96
700.14	53081.30
700.32	53318.87
700.51	52843.74
700.70	53451.98
700.89	53578.96
701.08	53376.21
701.27	52638.94
701.46	53468.37
701.65	52636.89
701.84	52851.93
702.03	53085.40
702.22	52368.61
702.41	52894.94
702.60	52905.18
702.79	52868.31
702.98	52159.72
703.17	52870.36
703.35	52649.18
703.54	52866.27
703.73	53099.73
703.92	53302.48
704.11	52628.70
704.30	52313.31
704.49	52501.73
704.68	52462.82
704.87	52745.44
705.06	52698.33
705.25	52370.66
705.43	52237.54
705.62	52141.28
705.81	52421.86
706.00	52129.00
706.19	52319.46
706.38	52049.13
706.57	52212.96
706.76	52159.72
706.95	52266.21
707.14	52067.56
707.32	52473.06
707.51	52198.63
707.70	52071.65
707.89	52325.60
708.08	51973.35
708.27	52546.78
708.46	52380.90
708.65	52090.09
708.84	52032.74
709.02	51991.78
709.21	52249.83
709.40	51629.29
709.59	52008.17
709.78	51508.46
709.97	51602.67
710.16	51856.62
710.34	52020.45
710.53	51627.24
710.72	51680.49
710.91	51881.19
711.10	51791.08
711.29	51848.42
711.48	51551.47
711.66	51838.18
711.85	51563.76
712.04	51649.77
712.23	51641.58
712.42	51512.56
712.61	51334.38
712.80	51567.85
712.98	51959.02
713.17	51494.13
713.36	51707.12
713.55	51297.52
713.74	51258.61
713.93	51563.76
714.11	51379.44
714.30	51102.96
714.49	51057.91
714.68	51346.67
714.87	51287.28
715.06	51512.56
715.24	51082.48
715.43	51225.84
715.62	50928.89
715.81	51004.66
716.00	51299.57
716.18	50750.71
716.37	50902.26
716.56	50775.29
716.75	51533.04
716.94	51197.17
717.12	50545.92
717.31	51154.16
717.50	51070.20
717.69	50932.98
717.88	50580.73
718.06	50783.48
718.25	51139.83
718.44	50257.15
718.63	50173.19
718.82	50744.57
719.00	50275.58
719.19	50773.24
719.38	50670.84
719.57	50031.88
719.76	50287.87
719.94	49960.20
720.13	50339.07
720.32	50160.90
720.51	50238.72
720.69	50046.21
720.88	50324.74
721.07	49829.13
721.26	49378.57
721.44	50107.65
721.63	49378.57
721.82	49222.93
722.01	49474.83
722.20	49706.25
722.38	49556.75
722.57	48968.98
722.76	49708.30
722.95	49554.70
723.13	49206.55
723.32	49288.46
723.51	48889.11
723.70	48725.27
723.88	49265.94
724.07	49239.31
724.26	48966.93
724.44	49003.80
724.63	49034.52
724.82	49239.31
725.01	48882.97
725.19	49091.86
725.38	48960.79
725.57	48971.03
725.76	49122.58
725.94	48842.01
726.13	48942.36
726.32	48747.80
726.51	48053.54
726.69	48852.25
726.88	49173.78
727.07	48678.17
727.25	48428.32
727.44	48786.71
727.63	48946.45
727.82	48622.87
728.00	48481.56
728.19	48551.20
728.38	48522.52
728.56	47879.46
728.75	48586.01
728.94	48432.41
729.12	48459.04
729.31	48403.74
729.50	48420.13
729.69	49071.38
729.87	48868.63
730.06	48172.32
730.25	48774.42
730.43	48968.98
730.62	48712.98
730.81	48667.93
730.99	48825.62
731.18	48538.91
731.37	48272.67
731.55	48571.67
731.74	48743.70
731.93	48559.39
732.11	48547.10
732.30	48338.21
732.49	47953.19
732.67	48493.85
732.86	48334.11
733.05	48299.30
733.23	48200.99
733.42	48311.58
733.61	48555.29
733.79	48428.32
733.98	48755.99
734.17	48659.74
734.35	48430.36
734.54	48739.61
734.73	48975.12
734.91	48391.45
735.10	48301.34
735.29	48227.62
735.47	47846.69
735.66	48123.17
735.84	48055.59
736.03	48149.79
736.22	48487.71
736.40	48397.60
736.59	48067.87
736.78	47850.79
736.96	47766.82
737.15	47895.85
737.33	48028.96
737.52	47996.20
737.71	47523.11
737.89	47770.92
738.08	47539.50
738.27	47607.08
738.45	47797.54
738.64	48135.46
738.82	47850.79
739.01	47897.89
739.20	47736.10
739.38	47971.62
739.57	48192.80
739.75	47732.01
739.94	47725.86
740.13	47269.17
740.31	47283.50
740.50	47514.92
740.68	48004.39
740.87	47844.65
741.06	48196.90
741.24	47639.85
741.43	47428.91
741.61	47543.59
741.80	47496.49
741.99	47342.89
742.17	47361.33
742.36	47187.25
742.54	47252.78
742.73	47131.95
742.91	47807.78
743.10	47289.65
743.29	47748.39
743.47	47299.89
743.66	47412.52
743.84	47443.24
744.03	47203.63
744.21	47422.76
744.40	47322.41
744.59	46761.27
744.77	46529.85
744.96	46693.69
745.14	47115.57
745.33	47277.36
745.51	46998.83
745.70	47179.06
745.88	46972.21
746.07	47125.81
746.26	46693.69
746.44	46751.03
746.63	46374.20
746.81	46980.40
747.00	46622.01
747.18	46921.01
747.37	46789.94
747.55	46548.28
747.74	46943.54
747.92	46443.84
748.11	46347.58
748.29	46628.15
748.48	46751.03
748.66	46349.63
748.85	46409.02
749.03	46009.67
749.22	46245.18
749.41	46673.21
749.59	46871.86
749.78	45978.95
749.96	46183.74
750.15	46454.08
750.33	46429.50
750.52	46144.83
750.70	46204.22
750.89	45929.80
751.07	46177.60
751.26	46107.97
751.44	46267.71
751.63	46122.30
751.81	45708.61
752.00	45458.76
752.18	46132.54
752.37	45843.78
752.55	45788.49
752.74	45434.19
752.92	45264.21
753.10	44813.65
753.29	45802.82
753.47	45481.29
753.66	45583.69
753.84	45741.38
754.03	45679.94
754.21	45331.79
754.40	45540.68
754.58	45940.04
754.77	45595.98
754.95	45327.69
755.14	45389.13
755.32	45262.16
755.51	45143.38
755.69	44453.21
755.88	45006.16
756.06	45170.00
756.24	45153.62
756.43	44932.43
756.61	44946.77
756.80	44707.16
756.98	44791.12
757.17	44629.34
757.35	45034.83
757.54	44897.62
757.72	45022.54
757.90	44725.59
758.09	44610.90
758.27	44467.55
758.46	44494.17
758.64	44383.58
758.83	44561.75
759.01	44608.86
759.19	44047.71
759.38	44346.72
759.56	44750.17
759.75	44795.22
759.93	44303.71
760.12	43775.33
760.30	44463.45
760.48	44258.65
760.67	43992.42
760.85	43849.06
761.04	44643.67
761.22	44320.09
761.40	44027.23
761.59	43853.15
761.77	44008.80
761.96	43826.53
762.14	43695.46
762.32	44049.76
762.51	43302.25
762.69	43928.93
762.88	43593.06
763.06	43609.45
763.24	43873.63
763.43	43779.43
763.61	43369.83
763.80	43206.00
763.98	43398.51
764.16	42947.95
764.35	43292.01
764.53	42599.80
764.72	43246.96
764.90	43513.19
765.08	42906.99
765.27	43416.94
765.45	42939.76
765.63	42851.70
765.82	43146.61
766.00	43363.69
766.18	42792.31
766.37	43005.30
766.55	42687.86
766.74	42861.94
766.92	42917.23
767.10	42726.77
767.29	42587.51
767.47	42337.66
767.65	42786.16
767.84	42335.61
768.02	42755.44
768.20	42444.15
768.39	42571.13
768.57	42589.56
768.75	42644.85
768.94	42345.85
769.12	42605.94
769.30	42147.20
769.49	42087.81
769.67	42104.19
769.85	41907.58
770.04	41932.16
770.22	41721.22
770.40	41475.46
770.59	41700.74
770.77	41852.29
770.95	42096.00
771.14	41577.86
771.32	41385.35
771.50	41459.08
771.69	41368.97
771.87	41426.31
772.05	41506.18
772.24	40881.55
772.42	40785.30
772.60	41485.70
772.78	41207.18
772.97	40918.42
773.15	41221.52
773.33	41049.49
773.52	40783.25
773.70	40865.17
773.88	41215.37
774.07	40836.50
774.25	40926.61
774.43	41065.87
774.61	41221.52
774.80	41047.44
774.98	41194.89
775.16	41022.86
775.34	41510.28
775.53	40891.79
775.71	41303.43
775.89	41211.28
776.08	41059.73
776.26	41162.12
776.44	41186.70
776.62	41100.68
776.81	40959.38
776.99	41461.13
777.17	41039.25
777.35	40926.61
777.54	41125.26
777.72	40854.93
777.90	40928.66
778.08	41420.17
778.27	41373.06
778.45	41262.47
778.63	41330.06
778.81	41158.03
779.00	41614.72
779.18	41399.69
779.36	41778.56
779.54	41172.36
779.73	41573.77
779.91	41708.93
780.09	41622.92
780.27	41762.18
780.46	41432.46
780.64	41465.22
780.82	41639.30
781.00	41840.00
781.19	41805.19
781.37	41633.16
781.55	41624.96
781.73	41880.96
781.91	41323.91
782.10	41780.61
782.28	41807.23
782.46	41897.34
782.64	41958.78
782.82	41598.34
783.01	41612.68
783.19	41553.29
783.37	41837.95
783.55	41485.70
783.74	41946.50
783.92	41493.89
784.10	42061.18
784.28	41753.99
784.46	41588.10
784.64	41448.84
784.83	41966.98
785.01	41678.21
785.19	41719.17
785.37	41907.58
785.55	41584.01
785.74	41387.40
785.92	41356.68
786.10	41635.20
786.28	41725.32
786.46	41115.02
786.64	41278.86
786.83	41493.89
787.01	41375.11
787.19	41022.86
787.37	41631.11
787.55	41434.50
787.74	40940.94
787.92	41334.15
788.10	40807.83
788.28	40502.68
788.46	41063.82
788.64	40732.05
788.82	41285.00
789.01	40594.84
789.19	41110.92
789.37	40846.74
789.55	40650.13
789.73	40465.81
789.91	40576.40
790.09	40394.14
790.28	40531.35
790.46	40084.89
790.64	40424.86
790.82	40265.11
791.00	40693.14
791.18	39798.18
791.36	39849.38
791.55	40037.79
791.73	39888.29
791.91	39523.75
792.09	39830.94
792.27	39589.28
792.45	39681.44
792.63	39607.72
792.81	39175.59
793.00	39562.66
793.18	38907.31
793.36	39658.91
793.54	39359.91
793.72	38929.84
793.90	38852.02
794.08	38809.01
794.26	38944.17
794.44	38591.92
794.62	38546.87
794.81	38636.98
794.99	38481.33
795.17	38344.12
795.35	38376.89
795.53	38403.51
795.71	38630.83
795.89	37887.42
796.07	37801.41
796.25	37684.67
796.43	37936.57
796.61	37148.11
796.80	37647.81
796.98	37524.93
797.16	37420.48
797.34	37447.11
797.52	37377.48
797.70	37635.52
797.88	37342.66
798.06	37049.80
798.24	36939.21
798.42	37068.23
798.60	36976.08
798.78	36656.59
798.96	36810.19
799.14	36539.86
799.32	36754.90
799.51	36679.12
799.69	36668.88
799.87	36734.42
800.05	36068.83
800.23	36353.49
800.41	36042.20
800.59	36044.25
800.77	35880.41
800.95	35792.35
801.13	35945.95
801.31	35497.44
801.49	35567.07
801.67	35223.01
801.85	35483.11
802.03	35436.00
802.21	35202.53
802.39	34940.39
802.57	35206.63
802.75	34823.66
802.93	35223.01
803.11	34960.87
803.29	34946.54
803.47	34594.29
803.65	34715.12
803.83	34426.35
804.01	34991.59
804.19	34510.32
804.37	34084.34
804.55	34475.51
804.73	34061.82
804.91	34100.73
805.09	34493.94
805.27	34084.34
805.45	33975.80
805.63	33994.23
805.81	34123.26
805.99	33814.01
806.17	33885.69
806.35	33820.16
806.53	33551.87
806.71	33607.17
806.89	33637.89
807.07	33535.49
807.25	33426.95
807.43	32863.75
807.61	33672.70
807.79	32978.44
807.97	32818.70
808.15	32742.92
808.33	32853.51
808.51	32192.02
808.69	33019.40
808.87	32740.88
809.05	32253.46
809.23	32202.26
809.41	32413.20
809.59	32280.08
809.77	32460.30
809.95	32063.00
810.13	32658.96
810.31	32439.82
810.49	32345.62
810.67	31872.54
810.84	32198.16
811.02	32263.70
811.20	32126.49
811.38	32149.01
811.56	31704.60
811.74	31510.05
811.92	31516.19
812.10	31288.87
812.28	31768.09
812.46	31637.02
812.64	31598.11
812.82	31098.41
813.00	31237.67
813.18	31348.26
813.36	30727.72
813.53	30613.04
813.71	30901.80
813.89	30617.13
814.07	30621.23
814.25	30729.77
814.43	30492.21
814.61	30608.94
814.79	30785.07
814.97	30537.26
815.15	30789.16
815.33	30424.62
815.50	30047.80
815.68	30555.69
815.86	30553.65
816.04	30342.70
816.22	30465.58
816.40	29957.69
816.58	30299.70
816.76	29965.88
816.94	29941.30
817.11	29926.97
817.29	29810.23
817.47	29521.47
817.65	29861.43
817.83	29730.36
818.01	29439.55
818.19	29572.67
818.37	29718.07
818.54	29550.14
818.72	28917.32
818.90	29396.54
819.08	29247.04
819.26	29273.67
819.44	28993.09
819.62	29537.85
819.80	29455.93
819.97	28769.86
820.15	29068.87
820.33	28632.65
820.51	29208.13
820.69	29007.43
820.87	29132.36
821.05	29040.20
821.22	29064.77
821.40	28784.20
821.58	28624.46
821.76	28841.54
821.94	28532.30
822.12	28755.53
822.29	28862.02
822.47	28390.99
822.65	28466.77
822.83	28581.45
823.01	28585.55
823.19	28339.79
823.36	28352.08
823.54	28165.71
823.72	27942.49
823.90	28055.12
824.08	27965.01
824.25	27811.42
824.43	27649.63
824.61	27700.83
824.79	28313.17
824.97	27760.22
825.15	27971.16
825.32	27825.75
825.50	27567.71
825.68	27623.00
825.86	27741.78
826.04	27844.18
826.21	27332.19
826.39	27362.91
826.57	27350.62
826.75	27377.25
826.93	27629.15
827.10	27436.64
827.28	27407.97
827.46	27596.38
827.64	27287.14
827.81	27115.11
827.99	27319.90
828.17	27287.14
828.35	27209.31
828.53	26848.87
828.70	26922.60
828.88	26812.01
829.06	26981.99
829.24	27156.07
829.41	26785.38
829.59	26941.03
829.77	26349.17
829.95	26844.77
830.12	26785.38
830.30	26617.45
830.48	26719.85
830.66	26500.72
830.84	26388.08
831.01	26549.87
831.19	26525.29
831.37	26304.11
831.55	26373.74
831.72	26199.66
831.90	26510.96
832.08	26371.69
832.25	26152.56
832.43	26373.74
832.61	25935.48
832.79	25923.19
832.96	25863.80
833.14	26089.07
833.32	26265.20
833.50	26001.01
833.67	26070.64
833.85	26017.40
834.03	25577.08
834.20	25665.14
834.38	26099.31
834.56	26041.97
834.74	25732.73
834.91	25900.66
835.09	25714.30
835.27	25241.21
835.44	25620.09
835.62	25169.54
835.80	25446.01
835.98	25669.24
836.15	25624.18
836.33	25403.00
836.51	25642.62
836.68	25368.19
836.86	25288.32
837.04	25300.61
837.21	25224.83
837.39	25417.34
837.57	25300.61
837.75	25452.16
837.92	24956.55
838.10	25132.67
838.28	24579.72
838.45	25237.12
838.63	24772.23
838.81	25130.62
838.98	24637.06
839.16	24614.54
839.34	24764.04
839.51	24690.31
839.69	24389.26
839.87	24573.58
840.04	24688.26
840.22	24549.00
840.40	24852.10
840.57	24571.53
840.75	24802.95
840.93	24266.38
841.10	24698.50
841.28	25030.27
841.46	24514.19
841.63	24604.30
841.81	24682.12
841.98	24381.07
842.16	24462.99
842.34	24440.46
842.51	24151.70
842.69	24256.14
842.87	24293.01
843.04	24309.39
843.22	24018.58
843.40	24020.63
843.57	24125.07
843.75	24280.72
843.92	24211.09
844.10	24061.58
844.28	24213.13
844.45	23924.37
844.63	24028.82
844.81	23711.38
844.98	24145.55
845.16	23578.26
845.33	23963.28
845.51	23692.95
845.69	23948.95
845.86	23811.73
846.04	23815.83
846.21	23377.56
846.39	23678.61
846.57	23588.50
846.74	23371.42
846.92	23377.56
847.09	23477.91
847.27	23183.01
847.45	23881.36
847.62	23660.18
847.80	23529.11
847.97	23529.11
848.15	23391.90
848.32	23176.86
848.50	23176.86
848.68	23096.99
848.85	23467.67
849.03	22986.40
849.20	23066.27
849.38	23113.38
849.56	23307.93
849.73	23004.83
849.91	23119.52
850.08	23285.40
850.26	22777.51
850.43	22849.19
850.61	23135.90
850.78	22396.59
850.96	22918.82
851.14	22634.15
851.31	22916.77
851.49	22955.68
851.66	22767.27
851.84	22754.98
852.01	22845.09
852.19	22830.76
852.36	22578.86
852.54	22529.70
852.71	22333.10
852.89	22607.53
853.07	22451.88
853.24	22611.62
853.42	22671.01
853.59	22404.78
853.77	22681.25
853.94	22689.45
854.12	22865.57
854.29	22384.30
854.47	22455.98
854.64	22324.91
854.82	22363.82
854.99	22343.34
855.17	22251.18
855.34	21956.27
855.52	22404.78
855.69	22251.18
855.87	22103.73
856.04	22177.45
856.22	22269.61
856.39	21925.55
856.57	22113.97
856.74	21808.82
856.92	21817.01
857.09	21759.67
857.27	22003.38
857.44	21911.22
857.62	21778.10
857.79	21954.22
857.97	22056.62
858.14	21880.50
858.32	21552.82
858.49	21802.68
858.67	21743.28
858.84	21722.80
859.02	21587.64
859.19	21573.30
859.37	21491.38
859.54	21601.97
859.72	21282.49
859.89	21278.40
860.06	21696.18
860.24	21532.34
860.41	21747.38
860.59	21323.45
860.76	21456.57
860.94	21237.44
861.11	21491.38
861.29	21085.89
861.46	20995.78
861.64	20989.63
861.81	21155.52
861.98	20950.72
862.16	20885.19
862.33	21147.33
862.51	21036.74
862.68	21024.45
862.86	20981.44
863.03	20956.86
863.21	20836.03
863.38	20758.21
863.55	20332.23
863.73	20696.77
863.90	20864.71
864.08	20494.02
864.25	20543.17
864.43	20739.78
864.60	20471.50
864.77	20555.46
864.95	20637.38
865.12	20354.76
865.30	20641.48
865.47	20555.46
865.64	20430.54
865.82	20475.59
865.99	20651.72
866.17	20547.27
866.34	20381.38
866.51	20195.02
866.69	20739.78
866.86	20479.69
867.04	20197.07
867.21	19990.22
867.38	20074.19
867.56	20066.00
867.73	20190.92
867.91	20203.21
868.08	20176.59
868.25	20033.23
868.43	20016.85
868.60	19824.34
868.78	19642.07
868.95	20266.70
869.12	20160.20
869.30	19932.88
869.47	19834.58
869.64	19740.37
869.82	19853.01
869.99	19857.10
870.16	19734.23
870.34	19795.67
870.51	19963.60
870.69	19830.48
870.86	19482.33
871.03	19723.99
871.21	19631.83
871.38	19566.29
871.55	19746.51
871.73	19355.35
871.90	19588.82
872.07	19443.42
872.25	19232.47
872.42	19093.21
872.59	19255.00
872.77	19316.44
872.94	19220.19
873.11	19087.07
873.29	19295.96
873.46	18986.72
873.63	18820.83
873.81	18968.29
873.98	19099.36
874.15	18820.83
874.33	18638.56
874.50	18898.66
874.67	18765.54
874.85	18847.46
875.02	18763.49
875.19	18800.35
875.37	18441.96
875.54	18628.32
875.71	18654.95
875.88	18327.27
876.06	18538.21
876.23	18542.31
876.40	18153.20
876.58	18288.36
876.75	18304.74
876.92	18317.03
877.10	18251.50
877.27	18267.88
877.44	17944.30
877.61	18136.81
877.79	18214.63
877.96	17989.36
878.13	18106.09
878.31	18179.82
878.48	17802.99
878.65	17944.30
878.82	17784.56
879.00	17925.87
879.17	17958.64
879.34	17784.56
879.51	17522.42
879.69	17469.17
879.86	17542.90
880.03	17776.37
880.21	17606.39
880.38	17618.68
880.55	17465.08
880.72	17485.56
880.90	17526.52
881.07	17321.72
881.24	17481.46
881.41	17307.38
881.59	17352.44
881.76	17352.44
881.93	17438.45
882.10	17239.80
882.28	17215.23
882.45	17440.50
882.62	17475.32
882.79	17293.05
882.96	17035.00
883.14	17348.34
883.31	17069.82
883.48	17121.02
883.65	17116.92
883.83	17172.22
884.00	17272.57
884.17	17180.41
884.34	17139.45
884.51	16828.16
884.69	16903.93
884.86	17032.96
885.03	17256.18
885.20	16862.97
885.38	16875.26
885.55	16838.40
885.72	16830.21
885.89	16817.92
886.06	16908.03
886.24	16703.23
886.41	16819.97
886.58	17043.20
886.75	16889.60
886.92	16473.86
887.10	16979.71
887.27	16830.21
887.44	16664.32
887.61	16768.77
887.78	16703.23
887.95	16971.52
888.13	16748.29
888.30	16516.87
888.47	16613.12
888.64	16371.46
888.81	16455.43
888.99	16256.78
889.16	16234.25
889.33	16307.98
889.50	16199.43
889.67	16471.81
889.84	16217.86
890.01	16326.41
890.19	16379.65
890.36	15935.24
890.53	16201.48
890.70	16074.51
890.87	16019.21
891.04	16234.25
891.22	15984.40
891.39	15957.77
891.56	15902.48
891.73	15910.67
891.90	16029.45
892.07	15755.02
892.24	15978.25
892.42	15898.38
892.59	16013.07
892.76	15857.42
892.93	15984.40
893.10	15654.67
893.27	15847.18
893.44	15777.55
893.61	15681.30
893.79	15773.46
893.96	15806.22
894.13	15724.30
894.30	15755.02
894.47	15726.35
894.64	15789.84
894.81	15798.03
894.98	15896.33
895.15	15615.76
895.33	15738.64
895.50	15750.93
895.67	15818.51
895.84	15595.28
896.01	15613.71
896.18	15470.36
896.35	15623.95
896.52	15503.12
896.69	15427.35
896.86	15572.75
897.04	15552.27
897.21	15484.69
897.38	15519.51
897.55	15380.25
897.72	15515.41
897.89	15468.31
898.06	15640.34
898.23	15550.23
898.40	15451.92
898.57	15585.04
898.74	15408.92
898.91	15513.36
899.08	15494.93
899.26	15660.82
899.43	15642.39
899.60	15415.06
899.77	15507.22
899.94	15523.60
900.11	15351.57
900.28	15312.66
900.45	15341.33
900.62	15218.46
900.79	15343.38
900.96	15460.12
901.13	15638.29
901.30	15351.57
901.47	15238.94
901.64	15638.29
901.81	15298.33
901.98	15415.06
902.15	15515.41
902.32	15318.81
902.49	15650.58
902.66	15552.27
902.83	15482.64
903.01	15433.49
903.18	15386.39
903.35	15331.09
903.52	15267.61
903.69	15464.21
903.86	15634.19
904.03	15556.37
904.20	15331.09
904.37	15597.33
904.54	15240.98
904.71	15222.55
904.88	15386.39
905.05	15232.79
905.22	15402.77
905.39	15300.37
905.56	15503.12
905.73	15343.38
905.90	15441.68
906.07	15302.42
906.24	15128.35
906.41	15367.96
906.58	15392.53
906.75	15320.85
906.92	15210.26
907.09	15378.20
907.26	15189.78
907.43	15331.09
907.60	15419.16
907.77	15546.13
907.93	15453.97
908.10	15382.29
908.27	15542.03
908.44	15046.43
908.61	15071.00
908.78	15288.09
908.95	15331.09
909.12	15283.99
909.29	15027.99
909.46	15322.90
909.63	15277.85
909.80	15066.91
909.97	15331.09
910.14	15038.23
910.31	15062.81
910.48	14995.23
910.65	15111.96
910.82	14911.26
910.99	15249.18
911.16	14948.12
911.33	15023.90
911.50	15036.19
911.66	14964.51
911.83	15097.63
912.00	14894.88
912.17	14794.53
912.34	14946.08
912.51	14997.28
912.68	14878.49
912.85	14749.47
913.02	14880.54
913.19	14794.53
913.36	14608.16
913.53	14636.83
913.70	14372.64
913.86	14849.82
914.03	14864.16
914.20	14634.78
914.37	14624.54
914.54	14464.80
914.71	14520.10
914.88	14724.90
915.05	14395.17
915.22	14274.34
915.39	14440.23
915.55	14468.90
915.72	14368.55
915.89	14444.32
916.06	14032.68
916.23	14155.56
916.40	14231.33
916.57	14260.01
916.74	14079.79
916.91	14204.71
917.07	14036.78
917.24	14204.71
917.41	14227.24
917.58	13944.62
917.75	13963.05
917.92	13719.34
918.09	13961.00
918.26	13915.95
918.42	14051.11
918.59	13741.87
918.76	13653.81
918.93	13688.62
919.10	13485.87
919.27	13563.70
919.44	13438.77
919.60	13455.15
919.77	13600.56
919.94	13279.03
920.11	13395.76
920.28	13492.02
920.45	13262.65
920.61	13440.82
920.78	13250.36
920.95	13043.51
921.12	13240.12
921.29	13012.79
921.46	12984.12
921.62	12949.31
921.79	13004.60
921.96	12885.82
922.13	12918.59
922.30	12916.54
922.47	12650.30
922.63	12728.13
922.80	12773.18
922.97	12697.41
923.14	12496.71
923.31	12789.56
923.47	12523.33
923.64	12595.01
923.81	12212.04
923.98	12508.99
924.15	12392.26
924.32	12445.51
924.48	12590.91
924.65	12345.16
924.82	12273.48
924.99	12228.42
925.15	12103.50
925.32	11997.00
925.49	12044.10
925.66	11943.75
925.83	11880.27
925.99	11988.81
926.16	11951.95
926.33	11917.13
926.50	11685.71
926.67	11929.42
926.83	11767.63
927.00	11812.68
927.17	11548.50
927.34	11382.61
927.50	11364.18
927.67	11644.75
927.84	11472.72
928.01	11218.77
928.17	11386.71
928.34	11405.14
928.51	11353.94
928.68	11052.89
928.84	11046.74
929.01	11073.37
929.18	10901.34
929.35	10981.21
929.51	10938.20
929.68	10964.82
929.85	10899.29
930.02	10745.69
930.18	10743.64
930.35	10723.16
930.52	10637.15
930.69	10766.17
930.85	10729.31
931.02	10557.28
931.19	10549.09
931.36	10377.06
931.52	10364.77
931.69	10379.11
931.86	10229.60
932.02	10194.79
932.19	10547.04
932.36	10084.20
932.53	10315.62
932.69	9883.50
932.86	10260.32
933.03	9928.55
933.19	9838.44
933.36	9967.46
933.53	9848.68
933.70	9891.69
933.86	9793.39
934.03	9707.37
934.20	9475.95
934.36	9684.84
934.53	9422.70
934.70	9412.46
934.86	9391.98
935.03	9299.83
935.20	9398.13
935.36	9228.15
935.53	9111.41
935.70	9119.60
935.86	9142.13
936.03	8900.47
936.20	8519.55
936.36	8818.55
936.53	8789.88
936.70	8646.52
936.86	8808.31
937.03	8486.78
937.20	8298.37
937.36	8400.77
937.53	8249.22
937.70	8105.86
937.86	7868.30
938.03	8056.71
938.20	7972.74
938.36	7751.56
938.53	7827.34
938.70	7640.97
938.86	7544.72
939.03	7573.39
939.20	7249.81
939.36	7458.70
939.53	7425.93
939.70	7403.41
939.86	7071.64
940.03	6832.02
940.19	6903.70
940.36	6680.47
940.53	6819.74
940.69	6862.74
940.86	6733.72
941.03	6526.88
941.19	6565.79
941.36	6305.70
941.52	6490.01
941.69	6408.09
941.86	6344.61
942.02	6354.85
942.19	6184.87
942.35	6152.10
942.52	6049.70
942.69	6098.85
942.85	5906.34
943.02	5975.97
943.18	6072.23
943.35	5861.29
943.52	5822.38
943.68	5816.23
943.85	5771.18
944.01	5607.34
944.18	5623.72
944.35	5748.65
944.51	5631.91
944.68	5597.10
944.84	5541.80
945.01	5498.80
945.17	5466.03
945.34	5590.95
945.51	5689.26
945.67	5550.00
945.84	5572.52
946.00	5416.88
946.17	5482.41
946.33	5326.77
946.50	5402.54
946.67	5547.95
946.83	5484.46
947.00	5492.65
947.16	5339.05
947.33	5388.21
947.49	5400.49
947.66	5234.61
947.82	5435.31
947.99	5162.93
948.16	5308.34
948.32	5306.29
948.49	5361.58
948.65	5365.68
948.82	5234.61
948.98	5291.95
949.15	5351.34
949.31	5242.80
949.48	5253.04
949.64	5316.53
949.81	5386.16
949.97	5392.30
950.14	5298.10
950.30	5355.44
950.47	5396.40
950.63	5351.34
950.80	5265.33
950.96	5392.30
951.13	5179.31
951.30	5375.92
951.46	5418.93
951.63	5412.78
951.79	5369.77
951.96	5504.94
952.12	5443.50
952.29	5439.40
952.45	5347.25
952.62	5597.10
952.78	5468.08
952.94	5457.84
953.11	5468.08
953.27	5410.73
953.44	5459.88
953.60	5488.56
953.77	5445.55
953.93	5566.38
954.10	5633.96
954.26	5455.79
954.43	5396.40
954.59	5566.38
954.76	5617.58
954.92	5539.76
955.09	5474.22
955.25	5484.46
955.42	5476.27
955.58	5638.06
955.75	5472.17
955.91	5642.15
956.07	5517.23
956.24	5605.29
956.40	5527.47
956.57	5597.10
956.73	5394.35
956.90	5461.93
957.06	5410.73
957.23	5390.25
957.39	5361.58
957.56	5517.23
957.72	5443.50
957.88	5449.64
958.05	5486.51
958.21	5586.86
958.38	5472.17
958.54	5599.15
958.71	5558.19
958.87	5486.51
959.03	5386.16
959.20	5496.75
959.36	5435.31
959.53	5492.65
959.69	5476.27
959.85	5564.33
960.02	5441.45
960.18	5562.28
960.35	5431.21
960.51	5476.27
960.68	5429.17
960.84	5380.01
961.00	5552.04
961.17	5441.45
961.33	5547.95
961.50	5588.91
961.66	5504.94
961.82	5472.17
961.99	5461.93
962.15	5470.12
962.31	5525.42
962.48	5402.54
962.64	5502.89
962.81	5631.91
962.97	5480.36
963.13	5509.04
963.30	5324.72
963.46	5468.08
963.62	5406.64
963.79	5466.03
963.95	5457.84
964.12	5339.05
964.28	5533.61
964.44	5228.46
964.61	5470.12
964.77	5396.40
964.93	5400.49
965.10	5359.53
965.26	5255.09
965.42	5375.92
965.59	5232.56
965.75	5291.95
965.92	5361.58
966.08	5455.79
966.24	5242.80
966.41	5337.01
966.57	5463.98
966.73	5173.17
966.90	5556.14
967.06	5367.73
967.22	5201.84
967.39	5359.53
967.55	5250.99
967.71	5169.07
967.88	5164.98
968.04	5334.96
968.20	5111.73
968.37	5087.15
968.53	5337.01
968.69	5074.87
968.85	5269.42
969.02	5156.79
969.18	5310.38
969.34	5097.39
969.51	5156.79
969.67	5230.51
969.83	5103.54
970.00	5263.28
970.16	5062.58
970.32	5156.79
970.48	5124.02
970.65	5109.68
970.81	5017.52
970.97	5162.93
971.14	5035.96
971.30	5177.26
971.46	5132.21
971.63	5023.67
971.79	5099.44
971.95	5031.86
972.11	5072.82
972.28	5009.33
972.44	5081.01
972.60	4904.89
972.76	4992.95
972.93	4851.64
973.09	5050.29
973.25	5025.72
973.42	4949.94
973.58	4997.04
973.74	5040.05
973.90	4911.03
974.07	4857.78
974.23	4894.65
974.39	4894.65
974.55	4929.46
974.72	4890.55
974.88	4849.59
975.04	4810.68
975.20	4777.91
975.37	4835.25
975.53	4726.71
975.69	4861.88
975.85	4708.28
976.01	4734.90
976.18	4736.95
976.34	4769.72
976.50	4706.23
976.66	4810.68
976.83	4665.27
976.99	4657.08
977.15	4681.66
977.31	4513.72
977.47	4728.76
977.64	4681.66
977.80	4599.74
977.96	4712.38
978.12	4663.22
978.29	4714.42
978.45	4431.80
978.61	4595.64
978.77	4661.18
978.93	4526.01
979.10	4499.39
979.26	4595.64
979.42	4624.31
979.58	4325.31
979.74	4546.49
979.91	4495.29
980.07	4480.96
980.23	4431.80
980.39	4440.00
980.55	4515.77
980.71	4632.51
980.88	4394.94
981.04	4462.52
981.20	4427.71
981.36	4353.98
981.52	4458.43
981.68	4265.92
981.85	4433.85
982.01	4274.11
982.17	4257.73
982.33	4372.41
982.49	4325.31
982.65	4294.59
982.82	4341.69
982.98	4272.06
983.14	4243.39
983.30	4358.08
983.46	4208.58
983.62	4290.49
983.79	4235.20
983.95	4243.39
984.11	4151.23
984.27	4114.37
984.43	4147.14
984.59	4237.25
984.75	4227.01
984.91	4229.06
985.08	4198.34
985.24	4202.43
985.40	4032.45
985.56	4091.84
985.72	4243.39
985.88	4159.42
986.04	4134.85
986.20	4048.83
986.37	4120.51
986.53	4079.55
986.69	4059.07
986.85	4046.79
987.01	4034.50
987.17	4085.70
987.33	3962.82
987.49	4046.79
987.65	4026.31
987.82	3909.57
987.98	3962.82
988.14	3917.76
988.30	4034.50
988.46	3862.47
988.62	3862.47
988.78	3907.52
988.94	3887.04
989.10	3870.66
989.26	3817.41
989.42	3829.70
989.59	3755.97
989.75	3766.21
989.91	3821.51
990.07	3702.73
990.23	3872.71
990.39	3786.69
990.55	3854.28
990.71	3774.41
990.87	3821.51
991.03	3735.50
991.19	3755.97
991.35	3735.50
991.51	3764.17
991.67	3864.52
991.83	3696.58
992.00	3715.02
992.16	3936.20
992.32	3858.37
992.48	3786.69
992.64	3614.66
992.80	3866.56
992.96	3682.25
993.12	3680.20
993.28	3768.26
993.44	3649.48
993.60	3674.06
993.76	3661.77
993.92	3731.40
994.08	3669.96
994.24	3592.14
994.40	3579.85
994.56	3641.29
994.72	3526.60
994.88	3538.89
995.04	3616.71
995.20	3477.45
995.36	3565.51
995.52	3571.66
995.68	3508.17
995.84	3487.69
996.00	3629.00
996.16	3442.64
996.32	3330.00
996.48	3438.54
996.64	3590.09
996.80	3518.41
996.96	3557.32
997.12	3364.81
997.28	3385.29
997.44	3370.96
997.60	3422.16
997.76	3373.00
997.92	3438.54
998.08	3391.44
998.24	3260.37
998.40	3350.48
998.56	3399.63
998.72	3223.50
998.88	3274.70
999.04	3321.81
999.20	3416.01
999.36	3254.22
999.52	3403.72
999.68	3268.56
999.84	3286.99
1000.00	3366.86
1000.16	3377.10
1000.32	3223.50
1000.48	3256.27
1000.64	3100.62
1000.80	3153.87
1000.95	3092.43
1001.11	3239.89
1001.27	3119.06
1001.43	3379.15
1001.59	3145.68
1001.75	3155.92
1001.91	3196.88
1002.07	3166.16
1002.23	3057.62
1002.39	3157.97
1002.55	3137.49
1002.71	3112.91
1002.87	3078.10
1003.03	3157.97
1003.19	3090.38
1003.34	3100.62
1003.50	3162.06
1003.66	3147.73
1003.82	3129.30
1003.98	3067.86
1004.14	3117.01
1004.30	3061.71
1004.46	3014.61
1004.62	2998.23
1004.78	2949.08
1004.94	2981.84
1005.09	2957.27
1005.25	2949.08
1005.41	3065.81
1005.57	2879.44
1005.73	2863.06
1005.89	2975.70
1006.05	2846.68
1006.21	2934.74
1006.37	2901.97
1006.52	2938.84
1006.68	2928.60
1006.84	3043.28
1007.00	2930.64
1007.16	2994.13
1007.32	2916.31
1007.48	2904.02
1007.64	2940.88
1007.79	2877.40
1007.95	2822.10
1008.11	2961.36
1008.27	2924.50
1008.43	2934.74
1008.59	2801.62
1008.75	2787.29
1008.91	2854.87
1009.06	2811.86
1009.22	2801.62
1009.38	2793.43
1009.54	2770.90
1009.70	2750.42
1009.86	2801.62
1010.01	2844.63
1010.17	2772.95
1010.33	2740.18
1010.49	2779.09
1010.65	2797.53
1010.81	2723.80
1010.96	2734.04
1011.12	2750.42
1011.28	2699.22
1011.44	2736.09
1011.60	2723.80
1011.76	2672.60
1011.91	2756.57
1012.07	2662.36
1012.23	2533.34
1012.39	2586.58
1012.55	2660.31
1012.71	2480.09
1012.86	2600.92
1013.02	2574.30
1013.18	2578.39
1013.34	2607.06
1013.50	2650.07
1013.65	2650.07
1013.81	2484.19
1013.97	2594.78
1014.13	2588.63
1014.29	2631.64
1014.44	2637.78
1014.60	2609.11
1014.76	2502.62
1014.92	2541.53
1015.07	2498.52
1015.23	2600.92
1015.39	2541.53
1015.55	2498.52
1015.71	2521.05
1015.86	2449.37
1016.02	2502.62
1016.18	2449.37
1016.34	2537.43
1016.49	2465.75
1016.65	2658.26
1016.81	2525.15
1016.97	2574.30
1017.12	2519.00
1017.28	2512.86
1017.44	2375.64
1017.60	2410.46
1017.75	2418.65
1017.91	2467.80
1018.07	2484.19
1018.23	2394.08
1018.38	2471.90
1018.54	2457.56
1018.70	2412.51
1018.86	2396.12
1019.01	2389.98
1019.17	2428.89
1019.33	2529.24
1019.49	2449.37
1019.64	2418.65
1019.80	2420.70
1019.96	2392.03
1020.12	2369.50
1020.27	2355.16
1020.43	2383.84
1020.59	2369.50
1020.74	2385.88
1020.90	2322.40
1021.06	2310.11
1021.22	2344.92
1021.37	2314.20
1021.53	2314.20
1021.69	2353.12
1021.84	2224.09
1022.00	2277.34
1022.16	2240.48
1022.31	2287.58
1022.47	2326.49
1022.63	2365.40
1022.79	2176.99
1022.94	2258.91
1023.10	2371.55
1023.26	2340.83
1023.41	2220.00
1023.57	2295.77
1023.73	2379.74
1023.88	2234.33
1024.04	2187.23
1024.20	2176.99
1024.35	2277.34
1024.51	2336.73
1024.67	2138.08
1024.82	2310.11
1024.98	2146.27
1025.14	2252.77
1025.29	2140.13
1025.45	2238.43
1025.61	2232.29
1025.76	2109.41
1025.92	2213.85
1026.08	2203.61
1026.23	2281.44
1026.39	2213.85
1026.55	2121.70
1026.70	2222.05
1026.86	2148.32
1027.02	2320.35
1027.17	2238.43
1027.33	2263.01
1027.48	2066.40
1027.64	2164.70
1027.80	2129.89
1027.95	2176.99
1028.11	2088.93
1028.27	2181.09
1028.42	2121.70
1028.58	2109.41
1028.73	2105.31
1028.89	2095.07
1029.05	2189.28
1029.20	2125.79
>>>>>End Processed Spectral Data<<<<<
