SpectraSuite Data File
++++++++++++++++++++++++++++++++++++
Date: Fri Jun 02 14:57:19 CEST 2017
User: INFO_000
Dark Spectrum Present: No
Reference Spectrum Present: No
Number of Sampled Component Spectra: 1
Spectrometers: USB4H00879
Integration Time (usec): 80000 (USB4H00879)
Spectra Averaged: 1 (USB4H00879)
Boxcar Smoothing: 0 (USB4H00879)
Correct for Electrical Dark: No (USB4H00879)
Strobe/Lamp Enabled: No (USB4H00879)
Correct for Detector Non-linearity: No (USB4H00879)
Correct for Stray Light: No (USB4H00879)
Number of Pixels in Processed Spectrum: 3648
>>>>>Begin Processed Spectral Data<<<<<
345.13	1296.36
345.34	1296.36
345.56	1296.36
345.78	1296.36
345.99	1253.36
346.21	1699.81
346.42	1726.44
346.64	1671.14
346.86	1828.84
347.07	1642.47
347.29	1785.83
347.50	1607.66
347.72	1671.14
347.94	1642.47
348.15	1597.42
348.37	1621.99
348.59	1626.09
348.80	1658.85
349.02	1757.16
349.23	1849.32
349.45	1818.60
349.67	1892.32
349.88	1851.36
350.10	1939.43
350.31	1816.55
350.53	1845.22
350.75	1994.72
350.96	1730.53
351.18	1798.12
351.39	1863.65
351.61	1834.98
351.82	1875.94
352.04	1822.69
352.26	1812.45
352.47	1966.05
352.69	1929.19
352.90	1691.62
353.12	1888.23
353.34	1865.70
353.55	1912.80
353.77	1869.80
353.98	1875.94
354.20	1849.32
354.41	1867.75
354.63	1920.99
354.85	2099.17
355.06	1886.18
355.28	1767.40
355.49	1910.75
355.71	1875.94
355.92	1888.23
356.14	1984.48
356.35	1816.55
356.57	1748.97
356.79	1961.95
357.00	1873.89
357.22	1933.28
357.43	1902.56
357.65	1920.99
357.86	1765.35
358.08	1908.71
358.29	1986.53
358.51	2025.44
358.72	2009.06
358.94	1937.38
359.16	1959.91
359.37	1880.04
359.59	1957.86
359.80	2047.97
360.02	1970.15
360.23	2035.68
360.45	1931.23
360.66	1968.10
360.88	1886.18
361.09	1925.09
361.31	1978.34
361.52	1976.29
361.74	2064.35
361.95	2082.78
362.17	1861.60
362.38	2004.96
362.60	1994.72
362.81	2002.91
363.03	1914.85
363.24	1955.81
363.46	2107.36
363.67	1994.72
363.89	1996.77
364.10	1980.39
364.32	1912.80
364.53	2054.11
364.75	1886.18
364.96	1996.77
365.18	2052.06
365.39	1939.43
365.61	1980.39
365.82	2109.41
366.04	2009.06
366.25	1945.57
366.47	2000.87
366.68	2074.59
366.90	1974.24
367.11	2052.06
367.33	2037.73
367.54	2097.12
367.76	2041.82
367.97	2070.50
368.19	1988.58
368.40	2111.46
368.62	2050.02
368.83	1951.71
369.05	2103.26
369.26	1972.19
369.48	1988.58
369.69	1996.77
369.91	2101.22
370.12	1976.29
370.33	2150.37
370.55	1964.00
370.76	2088.93
370.98	2121.70
371.19	2066.40
371.41	2052.06
371.62	2074.59
371.84	2035.68
372.05	2183.13
372.27	2109.41
372.48	2127.84
372.69	2054.11
372.91	2166.75
373.12	2133.98
373.34	2174.94
373.55	2197.47
373.77	2217.95
373.98	2097.12
374.20	2199.52
374.41	2269.15
374.62	2136.03
374.84	2224.09
375.05	2154.46
375.27	2103.26
375.48	2209.76
375.70	2213.85
375.91	2148.32
376.12	2240.48
376.34	2103.26
376.55	2168.80
376.77	2263.01
376.98	2119.65
377.19	2176.99
377.41	2162.66
377.62	2199.52
377.84	2289.63
378.05	2428.89
378.27	2220.00
378.48	2326.49
378.69	2377.69
378.91	2330.59
379.12	2203.61
379.34	2234.33
379.55	2371.55
379.76	2213.85
379.98	2240.48
380.19	2269.15
380.41	2185.18
380.62	2279.39
380.83	2318.30
381.05	2213.85
381.26	2340.83
381.47	2207.71
381.69	2285.53
381.90	2432.99
382.12	2312.16
382.33	2336.73
382.54	2295.77
382.76	2379.74
382.97	2297.82
383.19	2281.44
383.40	2353.12
383.61	2269.15
383.83	2215.90
384.04	2334.68
384.25	2353.12
384.47	2414.56
384.68	2400.22
384.89	2301.92
385.11	2353.12
385.32	2340.83
385.54	2248.67
385.75	2324.44
385.96	2471.90
386.18	2484.19
386.39	2377.69
386.60	2285.53
386.82	2400.22
387.03	2437.08
387.24	2500.57
387.46	2490.33
387.67	2553.82
387.88	2525.15
388.10	2469.85
388.31	2443.23
388.52	2598.87
388.74	2465.75
388.95	2562.01
389.16	2533.34
389.38	2459.61
389.59	2588.63
389.80	2600.92
390.02	2500.57
390.23	2676.70
390.44	2566.10
390.66	2580.44
390.87	2574.30
391.08	2607.06
391.30	2727.89
391.51	2701.27
391.72	2613.21
391.94	2637.78
392.15	2639.83
392.36	2545.63
392.58	2615.26
392.79	2652.12
393.00	2734.04
393.22	2748.37
393.43	2682.84
393.64	2799.57
393.85	2781.14
394.07	2639.83
394.28	2805.72
394.49	2756.57
394.71	2756.57
394.92	2820.05
395.13	2705.37
395.35	2779.09
395.56	2787.29
395.77	2779.09
395.98	2867.16
396.20	2830.29
396.41	2793.43
396.62	2932.69
396.84	2895.83
397.05	2871.25
397.26	2912.21
397.47	3090.38
397.69	2838.48
397.90	3012.56
398.11	2959.31
398.32	2850.77
398.54	2928.60
398.75	2920.40
398.96	2893.78
399.18	3137.49
399.39	2973.65
399.60	2998.23
399.81	2895.83
400.03	2981.84
400.24	3254.22
400.45	3020.75
400.66	3041.23
400.88	2992.08
401.09	3205.07
401.30	3065.81
401.51	3235.79
401.73	3157.97
401.94	3190.74
402.15	3010.51
402.36	3035.09
402.58	3162.06
402.79	3190.74
403.00	3229.65
403.21	3098.58
403.43	3213.26
403.64	3221.45
403.85	3110.86
404.06	3323.85
404.27	3133.39
404.49	3137.49
404.70	3176.40
404.91	3315.66
405.12	3297.23
405.34	3278.80
405.55	3483.59
405.76	3184.59
405.97	3266.51
406.19	3454.92
406.40	3233.74
406.61	3266.51
406.82	3286.99
407.03	3325.90
407.25	3323.85
407.46	3454.92
407.67	3465.16
407.88	3483.59
408.09	3317.71
408.31	3413.96
408.52	3469.26
408.73	3364.81
408.94	3229.65
409.15	3422.16
409.37	3499.98
409.58	3561.42
409.79	3489.74
410.00	3549.13
410.21	3518.41
410.43	3442.64
410.64	3436.49
410.85	3479.50
411.06	3487.69
411.27	3594.19
411.48	3563.47
411.70	3551.18
411.91	3600.33
412.12	3698.63
412.33	3690.44
412.54	3618.76
412.76	3696.58
412.97	3551.18
413.18	3497.93
413.39	3567.56
413.60	3579.85
413.81	3702.73
414.03	3739.59
414.24	3594.19
414.45	3766.21
414.66	3463.12
414.87	3649.48
415.08	3721.16
415.30	3739.59
415.51	3790.79
415.72	3733.45
415.93	3596.23
416.14	3844.04
416.35	3641.29
416.56	3772.36
416.78	3727.30
416.99	3819.46
417.20	3870.66
417.41	3960.77
417.62	3917.76
417.83	3921.86
418.04	3878.85
418.26	3899.33
418.47	3786.69
418.68	3954.63
418.89	3942.34
419.10	4075.46
419.31	4016.07
419.52	3940.29
419.73	4034.50
419.95	4108.23
420.16	3977.16
420.37	4028.35
420.58	4038.59
420.79	3858.37
421.00	4118.47
421.21	4163.52
421.42	3977.16
421.63	3966.92
421.85	4097.99
422.06	4126.66
422.27	4091.84
422.48	4270.01
422.69	4208.58
422.90	4192.19
423.11	4233.15
423.32	4194.24
423.53	4304.83
423.75	4190.14
423.96	4427.71
424.17	4382.65
424.38	4548.54
424.59	4401.08
424.80	4591.55
425.01	4280.25
425.22	4507.58
425.43	4390.84
425.64	4640.70
425.85	4571.07
426.06	4648.89
426.28	4626.36
426.49	4433.85
426.70	4380.61
426.91	4528.06
427.12	4607.93
427.33	4591.55
427.54	4499.39
427.75	4601.79
427.96	4786.10
428.17	4677.56
428.38	4763.58
428.59	4884.41
428.80	4863.93
429.01	4659.13
429.23	4747.19
429.44	5031.86
429.65	4974.52
429.86	4954.04
430.07	4734.90
430.28	4810.68
430.49	4997.04
430.70	5064.63
430.91	5099.44
431.12	5025.72
431.33	5158.83
431.54	5160.88
431.75	5040.05
431.96	5056.43
432.17	5042.10
432.38	5003.19
432.59	5365.68
432.80	5269.42
433.01	5250.99
433.22	5253.04
433.43	5298.10
433.64	5185.46
433.85	5164.98
434.06	5369.77
434.27	5199.79
434.49	5197.74
434.70	5373.87
434.91	5398.45
435.12	5478.32
435.33	5470.12
435.54	5463.98
435.75	5394.35
435.96	5513.13
436.17	5324.72
436.38	5658.54
436.59	5644.20
436.80	5515.18
437.01	5709.74
437.22	5683.11
437.43	5601.19
437.64	5318.57
437.85	5752.74
438.06	5742.50
438.27	5627.82
438.48	5672.87
438.69	5816.23
438.90	5666.73
439.11	5740.46
439.32	5828.52
439.53	5701.54
439.74	5826.47
439.95	5875.62
440.16	5732.26
440.37	5941.16
440.57	5828.52
440.78	5945.25
440.99	6057.89
441.20	6043.56
441.41	5871.53
441.62	6166.43
441.83	5881.77
442.04	5812.14
442.25	6162.34
442.46	6004.64
442.67	6199.20
442.88	6438.81
443.09	6049.70
443.30	6051.75
443.51	6102.95
443.72	6434.72
443.93	6166.43
444.14	6324.13
444.35	6023.08
444.56	6266.78
444.77	6424.48
444.98	6367.13
445.19	6438.81
445.40	6365.09
445.61	6444.96
445.81	6551.45
446.02	6512.54
446.23	6528.92
446.44	6516.64
446.65	6590.36
446.86	6692.76
447.07	6487.96
447.28	6684.57
447.49	6623.13
447.70	6543.26
447.91	6561.69
448.12	6522.78
448.33	6723.48
448.54	6950.81
448.74	6696.86
448.95	6782.87
449.16	6733.72
449.37	7081.88
449.58	6829.98
449.79	7092.12
450.00	6770.58
450.21	6760.34
450.42	6959.00
450.63	7004.05
450.84	6932.37
451.05	7069.59
451.25	6920.09
451.46	6860.70
451.67	7169.94
451.88	7268.24
452.09	7184.27
452.30	7182.23
452.51	7198.61
452.72	7450.51
452.93	7563.15
453.13	7116.69
453.34	7221.14
453.55	7278.48
453.76	7327.63
453.97	7536.52
454.18	7438.22
454.39	7569.29
454.60	7432.08
454.81	7491.47
455.01	7731.08
455.22	7358.35
455.43	7655.31
455.64	7872.39
455.85	7987.08
456.06	7915.40
456.27	7847.82
456.48	7731.08
456.68	7800.71
456.89	7917.45
457.10	8097.67
457.31	8021.89
457.52	7911.30
457.73	8185.73
457.94	8277.89
458.14	7843.72
458.35	8370.05
458.56	8386.43
458.77	8161.16
458.98	8343.42
459.19	8318.85
459.39	8327.04
459.60	8619.90
459.81	8320.90
460.02	8501.12
460.23	8456.06
460.44	8798.07
460.65	8865.66
460.85	8755.07
461.06	8828.79
461.27	8523.65
461.48	8959.86
461.69	8916.86
461.89	8710.01
462.10	8968.06
462.31	8718.20
462.52	8916.86
462.73	8890.23
462.94	9258.87
463.14	9164.66
463.35	9090.93
463.56	9412.46
463.77	9578.35
463.98	9209.72
464.18	9330.55
464.39	9410.42
464.60	9645.93
464.81	9539.44
465.02	9539.44
465.23	9824.11
465.43	9797.48
465.64	9756.52
465.85	9875.31
466.06	9611.12
466.27	9979.75
466.47	9844.59
466.68	10065.77
466.89	9979.75
467.10	10151.78
467.30	9924.46
467.51	10317.67
467.72	10438.50
467.93	10176.36
468.14	10352.48
468.34	10704.73
468.55	10565.47
468.76	10663.77
468.97	10272.61
469.17	10569.57
469.38	10792.80
469.59	10784.60
469.80	10911.58
470.01	10782.56
470.21	10970.97
470.42	11200.34
470.63	11237.20
470.84	10960.73
471.04	11253.59
471.25	11218.77
471.46	11231.06
471.67	11525.97
471.87	11122.52
472.08	11509.58
472.29	11802.44
472.50	11337.56
472.70	11411.28
472.91	11884.36
473.12	12044.10
473.33	12037.96
473.53	12150.60
473.74	12074.82
473.95	12011.34
474.16	12447.55
474.36	12324.68
474.57	12361.54
474.78	12560.19
474.99	12611.39
475.19	12613.44
475.40	12812.09
475.61	12832.57
475.81	13043.51
476.02	13188.92
476.23	12961.59
476.44	13272.89
476.64	13338.42
476.85	13365.04
477.06	13549.36
477.27	13612.85
477.47	13887.28
477.68	13727.53
477.89	13897.52
478.09	13920.04
478.30	13989.67
478.51	13805.36
478.71	13952.81
478.92	14311.21
479.13	14597.92
479.34	14352.16
479.54	14499.62
479.75	14577.44
479.96	14552.87
480.16	14995.23
480.37	14569.25
480.58	14878.49
480.78	14987.04
480.99	15120.15
481.20	15312.66
481.41	15236.89
481.61	15515.41
481.82	15460.12
482.03	15589.14
482.23	15562.51
482.44	15714.06
482.65	15865.61
482.85	16248.58
483.06	15834.89
483.27	15980.30
483.47	15984.40
483.68	16197.38
483.89	16531.20
484.09	16326.41
484.30	16414.47
484.51	16551.68
484.71	16979.71
484.92	16770.82
485.13	17065.72
485.33	17061.63
485.54	16987.90
485.75	17391.35
485.95	17499.89
486.16	17348.34
486.37	17747.70
486.57	17483.51
486.78	17585.91
486.98	17473.27
487.19	17874.67
487.40	17901.29
487.60	17827.57
487.81	18124.52
488.02	17848.05
488.22	18075.37
488.43	18431.72
488.64	18239.21
488.84	18538.21
489.05	18892.51
489.25	18380.52
489.46	18939.62
489.67	18700.00
489.87	18964.19
490.08	19042.01
490.29	19072.73
490.49	19455.70
490.70	19449.56
490.90	19533.53
491.11	19279.58
491.32	19664.60
491.52	19564.25
491.73	19846.87
491.94	19715.80
492.14	19793.62
492.35	19963.60
492.55	20152.01
492.76	20164.30
492.97	20289.23
493.17	20457.16
493.38	20600.52
493.58	20606.66
493.79	20481.74
494.00	20408.01
494.20	20539.08
494.41	20917.95
494.61	20854.47
494.82	20768.45
495.02	21327.55
495.23	21270.20
495.44	21167.80
495.64	21376.70
495.85	21288.64
496.05	21444.28
496.26	21524.15
496.47	21692.08
496.67	21673.65
496.88	22265.52
497.08	21583.54
497.29	21954.22
497.49	21876.40
497.70	22173.36
497.91	22138.54
498.11	22204.08
498.32	22716.07
498.52	22333.10
498.73	22384.30
498.93	22335.15
499.14	22498.98
499.34	22746.79
499.55	23189.15
499.76	22525.61
499.96	22890.15
500.17	23062.18
500.37	22994.59
500.58	23058.08
500.78	23178.91
500.99	23451.29
501.19	23522.97
501.40	23457.43
501.60	23172.77
501.81	23588.50
502.02	23615.13
502.22	23459.48
502.43	23590.55
502.63	23907.99
502.84	23545.50
503.04	24002.19
503.25	23746.20
503.45	23889.56
503.66	24116.88
503.86	24061.58
504.07	24299.15
504.27	24215.18
504.48	24891.01
504.68	24479.37
504.89	24661.64
505.09	24426.12
505.30	25026.18
505.50	24766.09
505.71	25063.04
505.91	25099.90
506.12	25187.97
506.32	24802.95
506.53	24944.26
506.73	25017.99
506.94	25362.04
507.14	25290.37
507.35	25171.58
507.55	25316.99
507.76	25200.26
507.96	25411.20
508.17	25405.05
508.37	25798.26
508.58	25546.36
508.78	25642.62
508.99	26062.45
509.19	25826.93
509.40	25927.28
509.60	25802.36
509.81	25935.48
510.01	25906.80
510.22	25783.93
510.42	26013.30
510.63	26359.41
510.83	26375.79
511.04	26156.66
511.24	26379.89
511.44	26498.67
511.65	26306.16
511.85	26308.21
512.06	26510.96
512.26	26852.97
512.47	27088.48
512.67	26908.26
512.88	26910.31
513.08	26439.28
513.29	27221.60
513.49	26977.89
513.69	26834.53
513.90	27014.76
514.10	27336.29
514.31	27330.14
514.51	27274.85
514.72	27416.16
514.92	27055.72
515.13	27346.53
515.33	27485.79
515.53	27131.49
515.74	27420.25
515.94	27633.24
516.15	27792.98
516.35	27737.69
516.56	27706.97
516.76	27670.11
516.96	27594.33
517.17	27960.92
517.37	28046.93
517.58	28141.14
517.78	28251.73
517.99	28071.51
518.19	28618.32
518.39	28091.99
518.60	28481.10
518.80	28585.55
519.01	28438.09
519.21	28585.55
519.41	28464.72
519.62	28384.85
519.82	28692.04
520.03	28755.53
520.23	28784.20
520.43	28941.89
520.64	29261.38
520.84	29625.92
521.05	29167.17
521.25	29335.10
521.45	29455.93
521.66	29769.27
521.86	29486.65
522.07	29486.65
522.27	29427.26
522.47	29496.89
522.68	30084.66
522.88	29793.85
523.08	29980.21
523.29	30158.39
523.49	30074.42
523.70	30064.18
523.90	30320.18
524.10	30344.75
524.31	30453.30
524.51	29967.93
524.71	30613.04
524.92	30133.81
525.12	30703.15
525.33	30783.02
525.53	31106.60
525.73	31014.44
525.94	31063.59
526.14	30805.55
526.34	31002.15
526.55	31186.47
526.75	31110.69
526.95	32093.72
527.16	31555.10
527.36	31376.93
527.56	32050.71
527.77	31991.32
527.97	31774.24
528.17	31739.42
528.38	32388.63
528.58	32099.86
528.78	31813.15
528.99	32267.80
529.19	32540.18
529.39	32314.90
529.60	32882.19
529.80	32263.70
530.00	32581.13
530.21	33054.22
530.41	32841.23
530.61	32667.15
530.82	32992.78
531.02	33418.75
531.22	33109.51
531.43	33164.81
531.63	33621.50
531.83	33756.67
532.04	33977.85
532.24	33566.21
532.44	33867.26
532.64	33826.30
532.85	34067.96
533.05	34162.17
533.25	34383.35
533.46	33867.26
533.66	34393.59
533.86	34217.46
534.07	34739.69
534.27	34477.55
534.47	34899.44
534.67	34602.48
534.88	34860.52
535.08	34889.20
535.28	35274.21
535.49	35159.53
535.69	34958.83
535.89	34915.82
536.09	35343.84
536.30	35706.34
536.50	35462.63
536.70	35749.34
536.91	35780.06
537.11	35728.86
537.31	36324.82
537.51	35997.15
537.72	36285.91
537.92	36533.71
538.12	36496.85
538.32	36175.32
538.53	36564.43
538.73	36392.40
538.93	36642.26
539.13	36732.37
539.34	36650.45
539.54	36994.51
539.74	37189.06
539.94	37053.90
540.15	37232.07
540.35	37227.98
540.55	37664.19
540.75	37070.28
540.96	37420.48
541.16	37574.08
541.36	37811.65
541.56	37346.76
541.77	38200.76
541.97	37957.05
542.17	37866.94
542.37	37881.28
542.58	38077.88
542.78	37995.96
542.98	38022.59
543.18	38225.34
543.38	38581.68
543.59	38567.35
543.79	38337.98
543.99	38260.15
544.19	38903.21
544.40	38292.92
544.60	38694.32
544.80	38856.11
545.00	38847.92
545.20	38938.03
545.41	39015.85
545.61	39118.25
545.81	39216.55
546.01	39136.68
546.21	38909.36
546.42	39065.00
546.62	39558.56
546.82	39560.61
547.02	39738.79
547.22	39413.16
547.43	39288.23
547.63	39716.26
547.83	39929.25
548.03	39665.06
548.23	39884.19
548.44	39929.25
548.64	39951.77
548.84	39953.82
549.04	39896.48
549.24	40471.96
549.45	40666.52
549.65	39867.81
549.85	40111.52
550.05	40390.04
550.25	40033.69
550.45	40885.65
550.66	40539.54
550.86	40467.86
551.06	40924.56
551.26	40986.00
551.46	40848.78
551.66	40869.26
551.87	40758.67
552.07	40940.94
552.27	41137.55
552.47	40932.75
552.67	41313.67
552.87	41330.06
553.07	41391.50
553.28	41106.83
553.48	41592.20
553.68	41434.50
553.88	41596.29
554.08	41432.46
554.28	41842.05
554.48	41395.59
554.69	41620.87
554.89	41577.86
555.09	41692.55
555.29	41584.01
555.49	41946.50
555.69	41817.47
555.89	42196.35
556.10	41913.73
556.30	41985.41
556.50	41930.11
556.70	42247.55
556.90	42589.56
557.10	42440.06
557.30	42370.43
557.50	42425.72
557.70	42538.36
557.91	42632.57
558.11	42474.87
558.31	43013.49
558.51	42505.59
558.71	42636.66
558.91	42665.33
559.11	42399.10
559.31	42694.00
559.51	42499.45
559.72	42829.17
559.92	42671.48
560.12	42724.72
560.32	43414.89
560.52	42743.16
560.72	43105.65
560.92	42749.30
561.12	43298.16
561.32	43396.46
561.52	42861.94
561.72	43269.48
561.93	42913.14
562.13	43314.54
562.33	43308.40
562.53	43761.00
562.73	42810.74
562.93	43451.75
563.13	43695.46
563.33	43439.47
563.53	43812.20
563.73	43203.95
563.93	43316.59
564.13	43951.46
564.33	43361.64
564.53	43543.91
564.74	44193.12
564.94	43453.80
565.14	44004.70
565.34	43369.83
565.54	43877.73
565.74	43844.96
565.94	44387.67
566.14	43857.25
566.34	43609.45
566.54	44463.45
566.74	43529.58
566.94	44070.24
567.14	44563.80
567.34	44162.40
567.54	44107.10
567.74	44195.17
567.94	44127.58
568.14	44649.81
568.34	44586.33
568.54	44170.59
568.74	44311.90
568.94	44311.90
569.14	44696.92
569.34	45022.54
569.54	45020.50
569.75	44426.59
569.95	44739.93
570.15	45004.11
570.35	44995.92
570.55	44643.67
570.75	44719.45
570.95	44877.14
571.15	45247.82
571.35	44848.47
571.55	45292.88
571.75	44739.93
571.95	45120.85
572.15	45098.32
572.35	45423.95
572.55	45045.07
572.75	45167.95
572.95	45350.22
573.15	45479.24
573.35	45178.19
573.55	45096.27
573.75	45358.41
573.95	45788.49
574.15	45231.44
574.35	45835.59
574.55	45608.26
574.75	45331.79
574.95	45894.98
575.15	45661.51
575.34	45747.53
575.54	45786.44
575.74	45780.29
575.94	46185.79
576.14	45983.04
576.34	46296.38
576.54	46562.62
576.74	45919.56
576.94	46216.51
577.14	46132.54
577.34	46767.41
577.54	46316.86
577.74	46314.81
577.94	46124.35
578.14	46945.59
578.34	47027.51
578.54	46343.48
578.74	46445.88
578.94	47119.66
579.14	46808.37
579.34	46409.02
579.54	46492.99
579.74	46822.71
579.94	46933.30
580.13	47158.58
580.33	46875.96
580.53	47152.43
580.73	47154.48
580.93	47045.94
581.13	46794.04
581.33	47525.16
581.53	47486.25
581.73	47367.47
581.93	47619.37
582.13	47465.77
582.33	47572.27
582.53	47510.83
582.73	47594.79
582.92	47566.12
583.12	48078.11
583.32	47371.57
583.52	47609.13
583.72	48160.03
583.92	47678.76
584.12	47924.52
584.32	48063.78
584.52	47775.02
584.72	48309.53
584.92	48151.84
585.11	48891.16
585.31	48248.10
585.51	48608.54
585.71	48170.27
585.91	48755.99
586.11	48213.28
586.31	48252.19
586.51	48284.96
586.71	48649.50
586.91	48569.63
587.10	48704.79
587.30	48567.58
587.50	48792.86
587.70	48805.14
587.90	49198.35
588.10	49124.63
588.30	49151.25
588.50	49147.15
588.69	49024.28
588.89	48799.00
589.09	49294.61
589.29	49216.78
589.49	49409.29
589.69	48952.60
589.89	49532.17
590.08	49413.39
590.28	49284.37
590.48	49392.91
590.68	49331.47
590.88	49128.72
591.08	49423.63
591.28	49181.97
591.47	49800.46
591.67	49501.45
591.87	49493.26
592.07	49763.59
592.27	49952.01
592.47	49685.77
592.67	49915.14
592.86	49911.05
593.06	49890.57
593.26	50257.15
593.46	49964.29
593.66	49786.12
593.86	49931.53
594.05	50296.06
594.25	50351.36
594.45	50132.23
594.65	50238.72
594.85	50033.92
595.05	50664.70
595.24	50275.58
595.44	50220.29
595.64	50253.06
595.84	51019.00
596.04	50672.89
596.23	50279.68
596.43	50930.93
596.63	50765.05
596.83	50844.92
597.03	50296.06
597.22	51377.39
597.42	50699.51
597.62	50965.75
597.82	50875.64
598.02	50885.88
598.21	51584.24
598.41	50726.14
598.61	51174.64
598.81	51430.64
599.01	51461.36
599.20	50992.37
599.40	51434.74
599.60	51381.49
599.80	51391.73
600.00	51469.55
600.19	51743.98
600.39	51172.60
600.59	51549.42
600.79	51698.92
600.98	51311.86
601.18	52155.62
601.38	52020.45
601.58	51862.76
601.78	52147.43
601.97	52096.23
602.17	52471.01
602.37	52032.74
602.57	52186.34
602.76	52430.05
602.96	51805.42
603.16	52733.15
603.36	52434.14
603.55	52180.20
603.75	52442.34
603.95	52696.28
604.15	52706.52
604.34	52331.75
604.54	52618.46
604.74	52507.87
604.94	52149.48
605.13	52468.96
605.33	52583.65
605.53	52638.94
605.73	53071.06
605.92	52679.90
606.12	52808.92
606.32	52923.61
606.52	53179.60
606.71	52665.56
606.91	53118.17
607.11	53028.05
607.30	53437.65
607.50	53220.56
607.70	53275.86
607.90	53128.41
608.09	53073.11
608.29	53429.46
608.49	53671.12
608.68	53370.07
608.88	53855.43
609.08	53658.83
609.28	53523.66
609.47	53494.99
609.67	54437.06
609.87	53656.78
610.06	53619.92
610.26	53712.08
610.46	54023.37
610.66	53497.04
610.85	53951.69
611.05	53564.62
611.25	53624.01
611.44	53687.50
611.64	53626.06
611.84	53658.83
612.03	53646.54
612.23	53859.53
612.43	54289.60
612.62	53654.73
612.82	54117.57
613.02	53787.85
613.21	54152.39
613.41	53974.22
613.61	54105.29
613.80	53710.03
614.00	54027.46
614.20	53775.56
614.39	54138.05
614.59	54457.54
614.79	53791.95
614.98	53806.28
615.18	54121.67
615.38	54162.63
615.57	54009.03
615.77	53865.67
615.97	54387.91
616.16	53931.21
616.36	54228.16
616.56	54275.27
616.75	54039.75
616.95	54140.10
617.15	54414.53
617.34	54174.92
617.54	53679.31
617.74	54193.35
617.93	54267.08
618.13	53771.47
618.32	54166.73
618.52	54424.77
618.72	54025.42
618.91	54543.55
619.11	54084.81
619.31	54744.25
619.50	53695.69
619.70	54148.29
619.90	54017.22
620.09	54109.38
620.29	54271.17
620.48	54056.14
620.68	54502.59
620.88	53867.72
621.07	54105.29
621.27	54129.86
621.46	53548.24
621.66	53877.96
621.86	54328.52
622.05	54097.09
622.25	53978.31
622.44	54080.71
622.64	53722.32
622.84	54527.17
623.03	53746.89
623.23	54367.43
623.42	54035.66
623.62	54312.13
623.82	54379.71
624.01	54129.86
624.21	54361.28
624.40	53951.69
624.60	53804.24
624.80	53789.90
624.99	54228.16
625.19	53826.76
625.38	54179.01
625.58	54158.53
625.77	53929.16
625.97	53789.90
626.17	53929.16
626.36	54090.95
626.56	54129.86
626.75	53802.19
626.95	54310.08
627.14	53976.26
627.34	54443.20
627.54	53660.88
627.73	54183.11
627.93	54279.36
628.12	53935.30
628.32	54121.67
628.51	54287.56
628.71	54426.82
628.90	53912.78
629.10	54031.56
629.30	54023.37
629.49	53906.63
629.69	54170.82
629.88	54299.84
630.08	54310.08
630.27	53882.06
630.47	54172.87
630.66	54105.29
630.86	54367.43
631.05	53542.10
631.25	54414.53
631.44	54457.54
631.64	54334.66
631.84	53980.36
632.03	54381.76
632.23	54351.04
632.42	54332.61
632.62	54381.76
632.81	53968.07
633.01	54088.90
633.20	54211.78
633.40	53855.43
633.59	54465.73
633.79	54011.08
633.98	54463.68
634.18	54027.46
634.37	54572.22
634.57	54305.99
634.76	54588.61
634.96	54269.12
635.15	54748.35
635.35	54179.01
635.54	54035.66
635.74	54482.11
635.93	54297.80
636.13	54635.71
636.32	54627.52
636.52	54525.12
636.71	54408.39
636.91	54764.73
637.10	54932.67
637.30	54506.69
637.49	54500.54
637.69	54490.30
637.88	54709.44
638.08	54543.55
638.27	54762.68
638.46	54516.93
638.66	54330.56
638.85	54613.18
639.05	54922.43
639.24	54770.88
639.44	54400.19
639.63	54611.13
639.83	54760.64
640.02	54709.44
640.22	55080.12
640.41	55067.83
640.61	54404.29
640.80	54617.28
640.99	55069.88
641.19	55231.67
641.38	54895.80
641.58	54875.32
641.77	54883.51
641.97	54500.54
642.16	54672.57
642.36	55317.68
642.55	55209.14
642.74	54912.19
642.94	55758.00
643.13	54840.51
643.33	55170.23
643.52	55262.39
643.72	55237.81
643.91	54553.79
644.10	54981.82
644.30	55108.79
644.49	54949.05
644.69	55301.30
644.88	55239.86
645.08	54772.92
645.27	55203.00
645.46	55002.30
645.66	55157.94
645.85	55053.50
646.05	55502.00
646.24	55307.44
646.43	55352.50
646.63	55483.57
646.82	55569.58
647.02	55112.89
647.21	55409.84
647.40	55289.01
647.60	55932.07
647.79	55913.64
647.99	55942.31
648.18	55735.47
648.37	55866.54
648.57	55817.39
648.76	55895.21
648.96	55823.53
649.15	55696.56
649.34	55872.68
649.54	55682.22
649.73	55264.44
649.92	55981.23
650.12	55844.01
650.31	55858.35
650.51	56112.30
650.70	56100.01
650.89	56009.90
651.09	56308.90
651.28	55964.84
651.47	56159.40
651.67	55798.96
651.86	56351.91
652.06	55467.19
652.25	56007.85
652.44	55989.42
652.64	55973.03
652.83	55905.45
653.02	55919.79
653.22	56022.19
653.41	55958.70
653.60	55839.92
653.80	55960.75
653.99	56304.80
654.18	55889.07
654.38	55852.20
654.57	56108.20
654.76	56132.78
654.96	55956.65
655.15	56673.44
655.34	56044.71
655.54	55571.63
655.73	55911.59
655.92	55862.44
656.12	56472.74
656.31	56196.26
656.50	56442.02
656.70	56476.83
656.89	55743.66
657.08	56040.62
657.28	56378.53
657.47	56564.90
657.66	56212.65
657.86	55954.60
658.05	56597.66
658.24	56204.45
658.43	55760.05
658.63	57009.31
658.82	56222.89
659.01	56931.48
659.21	56663.20
659.40	56349.86
659.59	56444.07
659.79	56448.16
659.98	56382.63
660.17	56493.22
660.36	56304.80
660.56	56177.83
660.75	56478.88
660.94	56759.45
661.14	56452.26
661.33	56284.33
661.52	56153.26
661.71	56417.44
661.91	56110.25
662.10	56562.85
662.29	56321.19
662.49	56495.27
662.68	56622.24
662.87	56835.23
663.06	56718.49
663.26	56394.92
663.45	56886.43
663.64	56706.21
663.83	56933.53
664.03	56652.96
664.22	56468.64
664.41	56792.22
664.60	56399.01
664.80	56859.80
664.99	56601.76
665.18	56308.90
665.37	56341.67
665.57	56915.10
665.76	56730.78
665.95	56824.99
666.14	56855.71
666.34	56824.99
666.53	56724.64
666.72	56689.82
666.91	56532.13
667.11	56284.33
667.30	56802.46
667.49	56521.89
667.68	56861.85
667.87	56376.48
668.07	56931.48
668.26	56597.66
668.45	57013.40
668.64	56646.82
668.84	57005.21
669.03	56911.00
669.22	56872.09
669.41	56538.27
669.60	56700.06
669.80	56599.71
669.99	56913.05
670.18	56800.41
670.37	56716.45
670.57	56673.44
670.76	56755.36
670.95	57095.32
671.14	56845.47
671.33	56190.12
671.53	57056.41
671.72	57099.42
671.91	56329.38
672.10	56464.55
672.29	56986.78
672.48	56599.71
672.68	56767.65
672.87	56571.04
673.06	56499.36
673.25	56575.14
673.44	56911.00
673.64	56251.56
673.83	56485.03
674.02	56562.85
674.21	56796.32
674.40	57072.79
674.59	56333.48
674.79	56243.37
674.98	56169.64
675.17	56999.07
675.36	56517.79
675.55	56755.36
675.74	56640.67
675.94	56534.18
676.13	56630.43
676.32	57146.52
676.51	56597.66
676.70	56997.02
676.89	56399.01
677.08	56935.58
677.28	56386.72
677.47	56747.17
677.66	56601.76
677.85	56276.13
678.04	56939.68
678.23	57103.51
678.42	57040.03
678.62	56403.11
678.81	57025.69
679.00	56603.81
679.19	57064.60
679.38	56546.47
679.57	56718.49
679.76	56439.97
679.96	56671.39
680.15	56448.16
680.34	56370.34
680.53	56403.11
680.72	56874.14
680.91	56796.32
681.10	56216.74
681.29	56599.71
681.48	56057.00
681.68	56468.64
681.87	56325.28
682.06	56300.71
682.25	56077.48
682.44	56032.42
682.63	56396.96
682.82	56175.78
683.01	56065.19
683.20	55784.62
683.39	56317.09
683.59	55747.76
683.78	55897.26
683.97	55960.75
684.16	56419.49
684.35	56136.87
684.54	56024.23
684.73	56169.64
684.92	55858.35
685.11	55964.84
685.30	56097.96
685.49	56507.55
685.69	55792.81
685.88	56390.82
686.07	55786.67
686.26	55821.48
686.45	55737.52
686.64	56040.62
686.83	56210.60
687.02	56028.33
687.21	56112.30
687.40	55782.57
687.59	55891.12
687.78	55813.29
687.97	56267.94
688.16	55817.39
688.35	55747.76
688.54	55547.06
688.74	55923.88
688.93	55706.80
689.12	55604.40
689.31	55477.43
689.50	55940.27
689.69	55614.64
689.88	55098.55
690.07	56009.90
690.26	55563.44
690.45	55723.18
690.64	55821.48
690.83	55540.91
691.02	55243.96
691.21	55344.31
691.40	54969.53
691.59	55579.82
691.78	55499.95
691.97	55792.81
692.16	55385.27
692.35	55944.36
692.54	55878.83
692.73	55655.60
692.92	55727.28
693.11	55502.00
693.30	55342.26
693.49	55182.52
693.68	54994.10
693.87	55123.13
694.06	55116.98
694.25	54897.85
694.44	55442.61
694.63	55018.68
694.82	55203.00
695.01	55424.18
695.20	55049.40
695.39	55033.02
695.58	54734.01
695.77	54826.17
695.96	54680.77
696.15	54869.18
696.34	54746.30
696.53	54920.38
696.72	54820.03
696.91	54734.01
697.10	54959.29
697.29	54901.95
697.48	55121.08
697.67	55178.42
697.86	54813.88
698.05	54785.21
698.24	55129.27
698.43	54418.63
698.62	54740.16
698.81	53970.12
699.00	54760.64
699.19	54310.08
699.38	54578.37
699.57	54324.42
699.76	54707.39
699.95	54633.66
700.14	54265.03
700.32	54363.33
700.51	54242.50
700.70	54361.28
700.89	54375.62
701.08	54351.04
701.27	54359.23
701.46	54795.45
701.65	53703.88
701.84	54453.44
702.03	54373.57
702.22	53847.24
702.41	53806.28
702.60	54416.58
702.79	53728.46
702.98	53691.60
703.17	54131.91
703.35	53843.15
703.54	54068.42
703.73	54164.68
703.92	54101.19
704.11	53916.87
704.30	53777.61
704.49	53740.75
704.68	53515.47
704.87	53210.32
705.06	53408.98
705.25	53437.65
705.43	53574.86
705.62	53894.35
705.81	53791.95
706.00	53605.58
706.19	53589.20
706.38	53441.74
706.57	53408.98
706.76	53247.19
706.95	53251.28
707.14	53259.48
707.32	53005.53
707.51	53261.52
707.70	53284.05
707.89	53695.69
708.08	52806.87
708.27	53073.11
708.46	53228.76
708.65	52919.51
708.84	53247.19
709.02	53222.61
709.21	53126.36
709.40	53017.82
709.59	53054.68
709.78	52661.47
709.97	53157.08
710.16	52937.94
710.34	53050.58
710.53	52659.42
710.72	52731.10
710.91	52792.54
711.10	52653.28
711.29	52851.93
711.48	52606.17
711.66	52907.22
711.85	52567.26
712.04	53077.21
712.23	52344.03
712.42	52233.44
712.61	52092.13
712.80	52194.53
712.98	52561.12
713.17	51897.58
713.36	52507.87
713.55	52153.57
713.74	52042.98
713.93	52278.50
714.11	52092.13
714.30	51948.78
714.49	51971.30
714.68	51991.78
714.87	52108.52
715.06	52143.33
715.24	51985.64
715.43	52065.51
715.62	51922.15
715.81	51432.69
716.00	51545.33
716.18	51647.72
716.37	51399.92
716.56	51524.85
716.75	51815.66
716.94	51393.78
717.12	51367.15
717.31	51688.68
717.50	51598.57
717.69	51385.58
717.88	51350.77
718.06	51379.44
718.25	51608.81
718.44	51084.53
718.63	51281.14
718.82	50763.00
719.00	51668.20
719.19	50959.61
719.38	50906.36
719.57	50601.21
719.76	50076.93
719.94	50103.56
720.13	50816.25
720.32	50513.15
720.51	50828.54
720.69	50668.79
720.88	50455.81
721.07	50341.12
721.26	49894.66
721.44	49845.51
721.63	50187.52
721.82	49863.94
722.01	50162.95
722.20	50164.99
722.38	50195.71
722.57	49327.38
722.76	50038.02
722.95	50121.99
723.13	49673.48
723.32	49577.23
723.51	49341.71
723.70	49386.77
723.88	49820.94
724.07	49585.42
724.26	49562.89
724.44	49147.15
724.63	49775.88
724.82	49464.59
725.01	49044.76
725.19	49284.37
725.38	49394.96
725.57	49247.50
725.76	49151.25
725.94	48674.07
726.13	48950.55
726.32	48938.26
726.51	49003.80
726.69	49335.57
726.88	48903.45
727.07	49270.03
727.25	48778.52
727.44	48997.65
727.63	48737.56
727.82	48715.03
728.00	49315.09
728.19	48817.43
728.38	49083.67
728.56	48276.77
728.75	48874.77
728.94	48516.38
729.12	48823.58
729.31	48590.11
729.50	48448.80
729.69	49093.91
729.87	48739.61
730.06	48805.14
730.25	48577.82
730.43	49157.39
730.62	48639.26
730.81	48975.12
730.99	48624.92
731.18	48430.36
731.37	48817.43
731.55	49130.77
731.74	49067.28
731.93	48821.53
732.11	48356.64
732.30	48407.84
732.49	48186.66
732.67	48182.56
732.86	48510.24
733.05	48413.98
733.23	48194.85
733.42	48669.98
733.61	48559.39
733.79	48459.04
733.98	48899.35
734.17	48059.68
734.35	48760.09
734.54	48327.97
734.73	48755.99
734.91	48413.98
735.10	47994.15
735.29	48854.29
735.47	48211.23
735.66	48059.68
735.84	48422.17
736.03	48100.64
736.22	48301.34
736.40	48031.01
736.59	47891.75
736.78	48360.73
736.96	47783.21
737.15	47713.58
737.33	47748.39
737.52	47629.61
737.71	47961.38
737.89	47568.17
738.08	47375.66
738.27	47643.94
738.45	47914.28
738.64	47932.71
738.82	47979.81
739.01	47727.91
739.20	47789.35
739.38	47602.99
739.57	47482.16
739.75	47895.85
739.94	47301.93
740.13	47476.01
740.31	47166.77
740.50	47564.07
740.68	47510.83
740.87	47334.70
741.06	47332.65
741.24	47527.21
741.43	47433.00
741.61	47344.94
741.80	47222.06
741.99	47011.12
742.17	47031.60
742.36	47193.39
742.54	47277.36
742.73	46800.18
742.91	47220.02
743.10	46886.20
743.29	47306.03
743.47	47308.08
743.66	47154.48
743.84	47039.79
744.03	47273.26
744.21	47142.19
744.40	47244.59
744.59	46701.88
744.77	46595.38
744.96	46599.48
745.14	47187.25
745.33	46634.30
745.51	46474.55
745.70	47226.16
745.88	46751.03
746.07	46658.87
746.26	46114.11
746.44	46245.18
746.63	46587.19
746.81	46552.38
747.00	46392.64
747.18	46390.59
747.37	46259.52
747.55	46271.81
747.74	46589.24
747.92	45854.02
748.11	46236.99
748.29	46198.08
748.48	46134.59
748.66	46357.82
748.85	46099.78
749.03	46273.85
749.22	45960.51
749.41	45876.55
749.59	45976.90
749.78	46040.39
749.96	45720.90
750.15	45610.31
750.33	45860.16
750.52	45731.14
750.70	45722.95
750.89	45325.64
751.07	45821.25
751.26	45688.13
751.44	45454.67
751.63	45655.37
751.81	45262.16
752.00	44991.83
752.18	45636.94
752.37	45489.48
752.55	45258.06
752.74	45227.34
752.92	44985.68
753.10	45157.71
753.29	45290.83
753.47	44707.16
753.66	44703.06
753.84	44877.14
754.03	44938.58
754.21	44750.17
754.40	45151.57
754.58	44979.54
754.77	44715.35
754.95	44496.22
755.14	44840.28
755.32	44936.53
755.51	44637.53
755.69	44213.60
755.88	44744.02
756.06	44586.33
756.24	44258.65
756.43	43771.24
756.61	44348.76
756.80	44551.51
756.98	43951.46
757.17	44103.01
757.35	44111.20
757.54	44004.70
757.72	44430.68
757.90	44057.95
758.09	43890.02
758.27	44344.67
758.46	44260.70
758.64	44346.72
758.83	44248.41
759.01	44338.52
759.19	43824.48
759.38	43765.09
759.56	44207.45
759.75	44021.09
759.93	43695.46
760.12	43599.21
760.30	43689.32
760.48	43752.80
760.67	43490.66
760.85	43746.66
761.04	43836.77
761.22	43920.74
761.40	43595.11
761.59	43709.80
761.77	43232.62
761.96	43410.79
762.14	43322.73
762.32	43105.65
762.51	43210.09
762.69	43005.30
762.88	43220.33
763.06	43251.05
763.24	43029.87
763.43	43332.97
763.61	43056.50
763.80	43066.73
763.98	42564.98
764.16	42853.75
764.35	42562.93
764.53	42114.43
764.72	42659.19
764.90	42681.72
765.08	42636.66
765.27	42540.41
765.45	42466.68
765.63	42218.88
765.82	42464.63
766.00	42403.19
766.18	42243.45
766.37	42677.62
766.55	42098.05
766.74	42509.69
766.92	42374.52
767.10	42116.48
767.29	41889.15
767.47	41338.25
767.65	42274.17
767.84	41700.74
768.02	41936.26
768.20	41489.80
768.39	41846.15
768.57	41645.44
768.75	41842.05
768.94	41762.18
769.12	41526.66
769.30	41256.33
769.49	41424.26
769.67	41592.20
769.85	41121.16
770.04	41516.42
770.22	41444.74
770.40	41088.40
770.59	40971.66
770.77	41137.55
770.95	41368.97
771.14	41291.15
771.32	40822.16
771.50	40514.97
771.69	40928.66
771.87	40787.35
772.05	40891.79
772.24	40361.37
772.42	41100.68
772.60	40488.34
772.78	40828.30
772.97	40164.76
773.15	40807.83
773.33	40801.68
773.52	40062.36
773.70	40537.49
773.88	40744.34
774.07	40547.73
774.25	40451.48
774.43	40779.15
774.61	40381.85
774.80	40277.40
774.98	40375.70
775.16	40474.01
775.34	40598.93
775.53	40578.45
775.71	40514.97
775.89	40689.04
776.08	40435.10
776.26	40631.70
776.44	40637.84
776.62	40387.99
776.81	40340.89
776.99	40568.21
777.17	40492.44
777.35	40695.19
777.54	40764.82
777.72	40408.47
777.90	40359.32
778.08	40654.23
778.27	40752.53
778.45	40760.72
778.63	40879.50
778.81	40385.94
779.00	41014.67
779.18	40871.31
779.36	41358.73
779.54	40734.10
779.73	40930.70
779.91	41082.25
780.09	40969.61
780.27	41121.16
780.46	41170.32
780.64	40803.73
780.82	41272.71
781.00	41155.98
781.19	41084.30
781.37	41139.60
781.55	41520.52
781.73	41604.49
781.91	41594.25
782.10	41375.11
782.28	41500.04
782.46	41235.85
782.64	41389.45
782.82	41323.91
783.01	41176.46
783.19	41293.19
783.37	41389.45
783.55	41063.82
783.74	41477.51
783.92	40832.40
784.10	41606.53
784.28	41411.98
784.46	41442.70
784.64	41127.31
784.83	41174.41
785.01	41696.64
785.19	41252.23
785.37	41559.43
785.55	41069.97
785.74	40877.46
785.92	41029.01
786.10	41186.70
786.28	41379.21
786.46	41092.49
786.64	40945.04
786.83	40949.14
787.01	40965.52
787.19	41272.71
787.37	41176.46
787.55	41139.60
787.74	40711.57
787.92	40693.14
788.10	40555.93
788.28	40170.91
788.46	41016.72
788.64	39816.61
788.82	40547.73
789.01	40592.79
789.19	40775.06
789.37	40750.48
789.55	40854.93
789.73	40476.05
789.91	40295.83
790.09	40273.31
790.28	40146.33
790.46	40164.76
790.64	39988.64
790.82	39927.20
791.00	39370.15
791.18	39228.84
791.36	39697.83
791.55	39675.30
791.73	39765.41
791.91	39163.31
792.09	39474.60
792.27	39261.61
792.45	39617.96
792.63	39312.81
792.81	39595.43
793.00	38770.10
793.18	38956.46
793.36	38682.03
793.54	38868.40
793.72	38718.90
793.90	38372.79
794.08	38485.43
794.26	38763.95
794.44	38587.83
794.62	38282.68
794.81	38788.53
794.99	38434.23
795.17	38333.88
795.35	38524.34
795.53	38290.87
795.71	38344.12
795.89	38073.79
796.07	37752.26
796.25	37391.81
796.43	37649.86
796.61	37553.60
796.80	37307.85
796.98	37443.01
797.16	37250.50
797.34	37262.79
797.52	37053.90
797.70	37199.30
797.88	37066.19
798.06	37047.75
798.24	37103.05
798.42	36765.14
798.60	36636.11
798.78	36505.04
798.96	37123.53
799.14	36459.99
799.32	36756.94
799.51	36216.28
799.69	36341.21
799.87	36675.02
800.05	36451.80
800.23	36013.53
800.41	36042.20
800.59	35872.22
800.77	35706.34
800.95	35519.97
801.13	35904.99
801.31	35464.67
801.49	35665.38
801.67	35333.60
801.85	35552.74
802.03	35063.27
802.21	35259.88
802.39	35210.73
802.57	34825.71
802.75	35276.26
802.93	34827.76
803.11	34924.01
803.29	34760.17
803.47	34432.50
803.65	34862.57
803.83	34444.79
804.01	34506.23
804.19	34057.72
804.37	34239.99
804.55	34303.48
804.73	34043.38
804.91	33979.90
805.09	34280.95
805.27	33977.85
805.45	34129.40
805.63	34164.21
805.81	33949.18
805.99	34006.52
806.17	34242.04
806.35	33824.25
806.53	33351.17
806.71	33580.54
806.89	33510.91
807.07	33558.02
807.25	33603.07
807.43	33187.33
807.61	33414.66
807.79	33250.82
807.97	32726.54
808.15	33027.59
808.33	32929.29
808.51	32974.34
808.69	32464.40
808.87	32378.39
809.05	32527.89
809.23	32574.99
809.41	32388.63
809.59	32269.84
809.77	32618.00
809.95	32093.72
810.13	32728.59
810.31	32269.84
810.49	32368.15
810.67	31999.51
810.84	32079.38
811.02	31847.96
811.20	31702.56
811.38	32036.38
811.56	31815.19
811.74	31819.29
811.92	31858.20
812.10	31690.27
812.28	31792.67
812.46	31720.99
812.64	31395.36
812.82	31378.98
813.00	31227.43
813.18	31594.01
813.36	31106.60
813.53	31196.71
813.71	30996.01
813.89	30938.66
814.07	30936.62
814.25	31041.06
814.43	31043.11
814.61	30869.03
814.79	30909.99
814.97	30920.23
815.15	30873.13
815.33	30225.97
815.50	30426.67
815.68	30744.11
815.86	30836.27
816.04	30498.35
816.22	30012.98
816.40	30445.10
816.58	30152.24
816.76	30371.38
816.94	30299.70
817.11	30406.19
817.29	30357.04
817.47	29785.66
817.65	30113.33
817.83	30019.13
818.01	29496.89
818.19	29406.78
818.37	29916.73
818.54	29789.75
818.72	29355.58
818.90	29646.40
819.08	29298.24
819.26	29417.02
819.44	29662.78
819.62	29507.13
819.80	29208.13
819.97	29513.28
820.15	29152.84
820.33	29244.99
820.51	29326.91
820.69	29169.22
820.87	28980.81
821.05	29443.65
821.22	28816.97
821.40	29105.73
821.58	28948.04
821.76	29064.77
821.94	28618.32
822.12	28646.99
822.29	29032.00
822.47	28673.61
822.65	29122.12
822.83	28964.42
823.01	28972.61
823.19	28216.91
823.36	28235.35
823.54	28284.50
823.72	28313.17
823.90	28395.09
824.08	28120.66
824.25	28335.70
824.43	27850.33
824.61	28247.63
824.79	27989.59
824.97	27850.33
825.15	27905.62
825.32	27856.47
825.50	27768.41
825.68	27772.50
825.86	27833.94
826.04	28165.71
826.21	27967.06
826.39	27647.58
826.57	27709.02
826.75	27614.81
826.93	27387.49
827.10	27352.67
827.28	27606.62
827.46	27895.38
827.64	27528.80
827.81	27496.03
827.99	27512.41
828.17	27405.92
828.35	27237.98
828.53	27016.80
828.70	27039.33
828.88	27303.52
829.06	27151.97
829.24	27194.98
829.41	26906.21
829.59	26924.65
829.77	26893.93
829.95	27174.50
830.12	26916.45
830.30	26869.35
830.48	26832.49
830.66	27047.52
830.84	26877.54
831.01	26625.64
831.19	26695.27
831.37	26472.04
831.55	26621.55
831.72	26271.34
831.90	26388.08
832.08	26556.01
832.25	26426.99
832.43	26308.21
832.61	26658.41
832.79	26314.35
832.96	26429.04
833.14	26275.44
833.32	26418.80
833.50	26359.41
833.67	26027.63
833.85	26265.20
834.03	25863.80
834.20	26263.15
834.38	26158.70
834.56	26183.28
834.74	25747.06
834.91	26025.59
835.09	26029.68
835.27	25615.99
835.44	25955.96
835.62	25142.91
835.80	25740.92
835.98	25937.52
836.15	25808.50
836.33	25626.23
836.51	25921.14
836.68	25364.09
836.86	25708.15
837.04	25859.70
837.21	25536.12
837.39	25708.15
837.57	25634.42
837.75	25611.90
837.92	25581.18
838.10	25333.37
838.28	24821.38
838.45	25196.16
838.63	25316.99
838.81	25194.11
838.98	25099.90
839.16	24815.24
839.34	24942.21
839.51	24854.15
839.69	24788.61
839.87	24649.35
840.04	24770.18
840.22	25124.48
840.40	24841.86
840.57	24790.66
840.75	25097.86
840.93	24567.43
841.10	25042.56
841.28	24936.07
841.46	25077.38
841.63	24671.88
841.81	24645.26
841.98	24663.69
842.16	24632.97
842.34	24706.70
842.51	24403.60
842.69	24624.78
842.87	24632.97
843.04	24624.78
843.22	24235.66
843.40	24270.48
843.57	24196.75
843.75	24080.02
843.92	24655.50
844.10	24407.69
844.28	24419.98
844.45	24399.50
844.63	24262.29
844.81	24174.22
844.98	24041.11
845.16	24280.72
845.33	24137.36
845.51	24163.98
845.69	24057.49
845.86	23727.77
846.04	23600.79
846.21	23785.11
846.39	23901.84
846.57	23731.86
846.74	24024.72
846.92	23948.95
847.09	23783.06
847.27	23690.90
847.45	23746.20
847.62	23885.46
847.80	23701.14
847.97	23711.38
848.15	23838.36
848.32	23383.71
848.50	23563.93
848.68	23244.45
848.85	23588.50
849.03	23293.60
849.20	23369.37
849.38	23568.02
849.56	23334.56
849.73	23293.60
849.91	23410.33
850.08	23314.08
850.26	22771.36
850.43	23406.23
850.61	23033.50
850.78	22761.12
850.96	22986.40
851.14	23092.90
851.31	23445.15
851.49	22859.43
851.66	23002.78
851.84	22855.33
852.01	22863.52
852.19	22951.59
852.36	22935.20
852.54	22621.86
852.71	22910.63
852.89	22666.92
853.07	22916.77
853.24	23064.22
853.42	22916.77
853.59	22834.85
853.77	22498.98
853.94	22722.21
854.12	22929.06
854.29	22400.68
854.47	22525.61
854.64	22550.18
854.82	22597.29
854.99	22404.78
855.17	22257.32
855.34	22449.83
855.52	22738.60
855.69	22513.32
855.87	22355.63
856.04	22333.10
856.22	22247.08
856.39	22306.48
856.57	22218.41
856.74	22165.17
856.92	22406.83
857.09	21986.99
857.27	22038.19
857.44	22423.21
857.62	22060.72
857.79	22378.15
857.97	22185.65
858.14	22021.81
858.32	21968.56
858.49	21941.94
858.67	21661.37
858.84	21812.92
859.02	21950.13
859.19	21782.20
859.37	21694.13
859.54	21591.73
859.72	21894.83
859.89	21558.97
860.06	21876.40
860.24	21798.58
860.41	21862.07
860.59	21513.91
860.76	21677.75
860.94	21231.29
861.11	21374.65
861.29	21436.09
861.46	21475.00
861.64	21253.82
861.81	21216.96
861.98	21149.37
862.16	21151.42
862.33	21053.12
862.51	21225.15
862.68	21157.57
862.86	21049.02
863.03	21106.37
863.21	21219.00
863.38	21085.89
863.55	21032.64
863.73	21147.33
863.90	21122.75
864.08	21126.85
864.25	20762.31
864.43	21038.78
864.60	20989.63
864.77	20582.09
864.95	20575.94
865.12	20715.20
865.30	20731.59
865.47	20801.22
865.64	20690.63
865.82	20569.80
865.99	20864.71
866.17	20500.17
866.34	20852.42
866.51	20059.85
866.69	20790.98
866.86	20899.52
867.04	20350.67
867.21	20565.70
867.38	20285.13
867.56	20362.95
867.73	20178.64
867.91	20022.99
868.08	20217.55
868.25	20090.57
868.43	19932.88
868.60	20006.61
868.78	20209.36
868.95	20231.88
869.12	20035.28
869.30	20004.56
869.47	20008.65
869.64	19914.45
869.82	19885.78
869.99	19979.98
870.16	20113.10
870.34	20010.70
870.51	19906.26
870.69	19734.23
870.86	19904.21
871.03	19723.99
871.21	19627.73
871.38	19904.21
871.55	19627.73
871.73	19478.23
871.90	19369.69
872.07	19496.66
872.25	19302.11
872.42	19500.76
872.59	19467.99
872.77	19402.46
872.94	19226.33
873.11	19117.79
873.29	19345.11
873.46	19316.44
873.63	19076.83
873.81	18816.74
873.98	18958.05
874.15	18992.86
874.33	18900.70
874.50	18910.94
874.67	19113.69
874.85	18730.72
875.02	18593.51
875.19	18724.58
875.37	18491.11
875.54	18644.71
875.71	18525.93
875.88	18360.04
876.06	18427.62
876.23	18724.58
876.40	18271.98
876.58	18474.73
876.75	18566.88
876.92	18292.46
877.10	18560.74
877.27	18325.22
877.44	18231.02
877.61	18355.94
877.79	18534.12
877.96	18308.84
878.13	18142.96
878.31	18099.95
878.48	18056.94
878.65	18063.08
878.82	17889.01
879.00	18061.04
879.17	17870.58
879.34	17704.69
879.51	17669.87
879.69	17731.31
879.86	17981.17
880.03	17737.46
880.21	17792.75
880.38	18015.98
880.55	17532.66
880.72	17704.69
880.90	17893.10
881.07	17510.13
881.24	17802.99
881.41	17581.81
881.59	17747.70
881.76	17503.99
881.93	17547.00
882.10	17454.84
882.28	17446.65
882.45	17467.13
882.62	17415.93
882.79	17702.64
882.96	17014.52
883.14	17090.30
883.31	17180.41
883.48	17092.35
883.65	17336.06
883.83	17155.83
884.00	17080.06
884.17	16994.04
884.34	17168.12
884.51	17428.21
884.69	16885.50
884.86	17010.43
885.03	17174.27
885.20	16951.04
885.38	17329.91
885.55	16877.31
885.72	17061.63
885.89	16758.53
886.06	16840.45
886.24	16809.73
886.41	16674.56
886.58	16983.80
886.75	17028.86
886.92	16760.58
887.10	17110.78
887.27	16682.75
887.44	16635.65
887.61	16971.52
887.78	16809.73
887.95	16613.12
888.13	16836.35
888.30	16738.05
888.47	16492.29
888.64	16545.54
888.81	16373.51
888.99	16531.20
889.16	16434.95
889.33	16621.31
889.50	16408.33
889.67	16451.33
889.84	16408.33
890.01	16418.57
890.19	16232.20
890.36	16221.96
890.53	16060.17
890.70	16273.16
890.87	15927.05
891.04	16113.42
891.22	16275.21
891.39	15976.20
891.56	16011.02
891.73	16244.49
891.90	15994.64
892.07	15701.78
892.24	16097.03
892.42	15890.19
892.59	15998.73
892.76	15759.12
892.93	15867.66
893.10	15861.52
893.27	16031.50
893.44	15882.00
893.61	15744.78
893.79	15843.09
893.96	15750.93
894.13	15873.81
894.30	15650.58
894.47	15927.05
894.64	15783.70
894.81	15607.57
894.98	15775.50
895.15	15623.95
895.33	15568.66
895.50	15626.00
895.67	15660.82
895.84	15648.53
896.01	15720.21
896.18	15363.86
896.35	15654.67
896.52	15509.27
896.69	15658.77
896.86	15542.03
897.04	15376.15
897.21	15675.15
897.38	15437.59
897.55	15421.20
897.72	15599.38
897.89	15396.63
898.06	15470.36
898.23	15365.91
898.40	15310.61
898.57	15390.49
898.74	15507.22
898.91	15816.46
899.08	15556.37
899.26	15712.02
899.43	15691.54
899.60	15341.33
899.77	15449.88
899.94	15539.99
900.11	15427.35
900.28	15605.52
900.45	15308.57
900.62	15417.11
900.79	15568.66
900.96	15634.19
901.13	15632.15
901.30	15238.94
901.47	15243.03
901.64	15429.40
901.81	15550.23
901.98	15372.05
902.15	15482.64
902.32	15427.35
902.49	15570.71
902.66	15507.22
902.83	15394.58
903.01	15439.64
903.18	15591.19
903.35	15484.69
903.52	15267.61
903.69	15531.80
903.86	15466.26
904.03	15349.53
904.20	15415.06
904.37	15296.28
904.54	15273.75
904.71	15539.99
904.88	15441.68
905.05	15281.94
905.22	15406.87
905.39	15347.48
905.56	15505.17
905.73	15171.35
905.90	15617.81
906.07	15421.20
906.24	15146.78
906.41	15370.01
906.58	15327.00
906.75	15439.64
906.92	15277.85
907.09	15161.11
907.26	15296.28
907.43	15519.51
907.60	15234.84
907.77	15630.10
907.93	15462.16
908.10	15249.18
908.27	15363.86
908.44	15306.52
908.61	15154.97
908.78	15009.56
908.95	15408.92
909.12	15357.72
909.29	15273.75
909.46	15230.74
909.63	15259.42
909.80	15331.09
909.97	15263.51
910.14	14991.13
910.31	15177.50
910.48	15032.09
910.65	15017.75
910.82	15107.87
910.99	15154.97
911.16	15073.05
911.33	15099.67
911.50	14946.08
911.66	14880.54
911.83	14974.75
912.00	14798.62
912.17	14728.99
912.34	14894.88
912.51	14835.49
912.68	14833.44
912.85	14753.57
913.02	14812.96
913.19	14690.08
913.36	14786.33
913.53	14716.70
913.70	14804.77
913.86	14925.60
914.03	14618.40
914.20	14550.82
914.37	14677.79
914.54	14579.49
914.71	14739.23
914.88	14546.72
915.05	14591.78
915.22	14460.71
915.39	14477.09
915.55	14434.08
915.72	14421.80
915.89	14231.33
916.06	14077.74
916.23	14327.59
916.40	14173.99
916.57	14167.85
916.74	14434.08
916.91	13993.77
917.07	13969.19
917.24	13860.65
917.41	14204.71
917.58	13983.53
917.75	13975.34
917.92	13815.60
918.09	13879.08
918.26	13979.43
918.42	13823.79
918.59	13961.00
918.76	13606.70
918.93	13483.83
919.10	13541.17
919.27	13612.85
919.44	13750.06
919.60	13754.16
919.77	13371.19
919.94	13467.44
920.11	13301.56
920.28	13469.49
920.45	13373.24
920.61	13260.60
920.78	13180.73
920.95	13250.36
921.12	13231.93
921.29	12887.87
921.46	12932.92
921.62	13018.94
921.79	12953.40
921.96	12719.93
922.13	12789.56
922.30	12998.46
922.47	12595.01
922.63	12764.99
922.80	12783.42
922.97	12820.28
923.14	12562.24
923.31	12545.86
923.47	12468.03
923.64	12726.08
923.81	12324.68
923.98	12396.35
924.15	12433.22
924.32	12365.64
924.48	12205.89
924.65	12480.32
924.82	12175.17
924.99	12035.91
925.15	12054.34
925.32	12240.71
925.49	12013.38
925.66	11927.37
925.83	11872.07
925.99	12080.97
926.16	12044.10
926.33	11773.77
926.50	11632.46
926.67	11890.51
926.83	11626.32
927.00	11691.85
927.17	11573.07
927.34	11521.87
927.50	11485.01
927.67	11626.32
927.84	11370.32
928.01	11353.94
928.17	11429.71
928.34	11487.06
928.51	11161.43
928.68	11132.76
928.84	11009.88
929.01	10850.14
929.18	10901.34
929.35	10882.91
929.51	10946.39
929.68	10827.61
929.85	10874.71
930.02	10977.11
930.18	10784.60
930.35	10608.48
930.52	10633.05
930.69	10719.07
930.85	10653.53
931.02	10344.29
931.19	10311.52
931.36	10395.49
931.52	10403.68
931.69	10372.96
931.86	10395.49
932.02	9977.70
932.19	10307.43
932.36	10325.86
932.53	10090.34
932.69	9928.55
932.86	10004.33
933.03	9981.80
933.19	9703.28
933.36	10041.19
933.53	9936.74
933.70	9887.59
933.86	9760.62
934.03	9484.14
934.20	9568.11
934.36	9701.23
934.53	9426.80
934.70	9344.88
934.86	9416.56
935.03	9273.20
935.20	9226.10
935.36	9125.75
935.53	9160.56
935.70	8886.14
935.86	8947.58
936.03	8671.10
936.20	8697.72
936.36	8855.42
936.53	8669.05
936.70	8560.51
936.86	8761.21
937.03	8667.00
937.20	8134.53
937.36	8363.90
937.53	7972.74
937.70	8179.59
937.86	7915.40
938.03	8021.89
938.20	8046.47
938.36	7759.75
938.53	7780.23
938.70	7499.66
938.86	7616.40
939.03	7425.93
939.20	7524.24
939.36	7372.69
939.53	7202.71
939.70	7505.81
939.86	7157.65
940.03	6969.24
940.19	6875.03
940.36	7008.15
940.53	7032.72
940.69	6801.30
940.86	6836.12
941.03	6631.32
941.19	6363.04
941.36	6533.02
941.52	6596.51
941.69	6332.32
941.86	6283.17
942.02	6160.29
942.19	6231.97
942.35	6180.77
942.52	6254.50
942.69	6113.19
942.85	5961.64
943.02	6074.28
943.18	6090.66
943.35	5846.95
943.52	5920.68
943.68	5744.55
943.85	5787.56
944.01	5580.71
944.18	5394.35
944.35	5797.80
944.51	5468.08
944.68	5496.75
944.84	5570.48
945.01	5590.95
945.17	5504.94
945.34	5638.06
945.51	5535.66
945.67	5517.23
945.84	5603.24
946.00	5433.26
946.17	5339.05
946.33	5439.40
946.50	5351.34
946.67	5470.12
946.83	5228.46
947.00	5601.19
947.16	5408.69
947.33	5275.57
947.49	5343.15
947.66	5439.40
947.82	5427.12
947.99	5322.67
948.16	5502.89
948.32	5351.34
948.49	5402.54
948.65	5304.24
948.82	5365.68
948.98	5357.49
949.15	5289.90
949.31	5291.95
949.48	5308.34
949.64	5498.80
949.81	5306.29
949.97	5369.77
950.14	5377.97
950.30	5210.03
950.47	5574.57
950.63	5322.67
950.80	5380.01
950.96	5410.73
951.13	5320.62
951.30	5326.77
951.46	5312.43
951.63	5361.58
951.79	5439.40
951.96	5607.34
952.12	5480.36
952.29	5480.36
952.45	5244.85
952.62	5377.97
952.78	5373.87
952.94	5484.46
953.11	5367.73
953.27	5353.39
953.44	5504.94
953.60	5578.67
953.77	5560.24
953.93	5386.16
954.10	5513.13
954.26	5390.25
954.43	5580.71
954.59	5650.35
954.76	5531.56
954.92	5605.29
955.09	5502.89
955.25	5535.66
955.42	5394.35
955.58	5570.48
955.75	5541.80
955.91	5472.17
956.07	5433.26
956.24	5525.42
956.40	5552.04
956.57	5578.67
956.73	5375.92
956.90	5506.99
957.06	5492.65
957.23	5574.57
957.39	5463.98
957.56	5679.02
957.72	5502.89
957.88	5390.25
958.05	5556.14
958.21	5627.82
958.38	5547.95
958.54	5435.31
958.71	5590.95
958.87	5535.66
959.03	5402.54
959.20	5590.95
959.36	5498.80
959.53	5525.42
959.69	5525.42
959.85	5609.39
960.02	5418.93
960.18	5500.84
960.35	5408.69
960.51	5570.48
960.68	5488.56
960.84	5523.37
961.00	5613.48
961.17	5414.83
961.33	5468.08
961.50	5449.64
961.66	5537.71
961.82	5478.32
961.99	5603.24
962.15	5451.69
962.31	5590.95
962.48	5500.84
962.64	5539.76
962.81	5570.48
962.97	5363.63
963.13	5437.36
963.30	5408.69
963.46	5384.11
963.62	5453.74
963.79	5517.23
963.95	5367.73
964.12	5509.04
964.28	5425.07
964.44	5269.42
964.61	5367.73
964.77	5541.80
964.93	5410.73
965.10	5574.57
965.26	5320.62
965.42	5238.70
965.59	5334.96
965.75	5351.34
965.92	5466.03
966.08	5373.87
966.24	5361.58
966.41	5212.08
966.57	5388.21
966.73	5246.90
966.90	5382.06
967.06	5265.33
967.22	5267.38
967.39	5318.57
967.55	5285.81
967.71	5318.57
967.88	5220.27
968.04	5169.07
968.20	5312.43
968.37	5218.22
968.53	5207.98
968.69	5160.88
968.85	5214.13
969.02	5175.22
969.18	5300.14
969.34	5185.46
969.51	5271.47
969.67	5283.76
969.83	4966.32
970.00	5179.31
970.16	5173.17
970.32	5189.55
970.48	5302.19
970.65	5013.43
970.81	5066.67
970.97	5148.59
971.14	5027.76
971.30	5105.59
971.46	4997.04
971.63	5240.75
971.79	5091.25
971.95	5038.00
972.11	4919.22
972.28	5152.69
972.44	5111.73
972.60	4945.84
972.76	4972.47
972.93	4999.09
973.09	4851.64
973.25	4978.61
973.42	4829.11
973.58	4964.28
973.74	4884.41
973.90	4937.65
974.07	4827.06
974.23	4923.32
974.39	4954.04
974.55	4933.56
974.72	4911.03
974.88	4825.01
975.04	4861.88
975.20	4704.18
975.37	4908.98
975.53	4747.19
975.69	4837.30
975.85	4669.37
976.01	4804.53
976.18	4714.42
976.34	4726.71
976.50	4806.58
976.66	4847.54
976.83	4757.43
976.99	4659.13
977.15	4761.53
977.31	4534.20
977.47	4779.96
977.64	4632.51
977.80	4673.46
977.96	4665.27
978.12	4634.55
978.29	4724.66
978.45	4538.30
978.61	4612.03
978.77	4759.48
978.93	4468.67
979.10	4538.30
979.26	4593.59
979.42	4571.07
979.58	4507.58
979.74	4474.81
979.91	4489.15
980.07	4495.29
980.23	4507.58
980.39	4358.08
980.55	4442.04
980.71	4458.43
980.88	4472.76
981.04	4474.81
981.20	4454.33
981.36	4399.04
981.52	4456.38
981.68	4302.78
981.85	4425.66
982.01	4417.47
982.17	4306.88
982.33	4313.02
982.49	4509.63
982.65	4280.25
982.82	4405.18
982.98	4417.47
983.14	4325.31
983.30	4216.77
983.46	4360.13
983.62	4272.06
983.79	4272.06
983.95	4321.21
984.11	4280.25
984.27	4296.64
984.43	4300.73
984.59	4081.60
984.75	4208.58
984.91	4327.36
985.08	4278.21
985.24	4091.84
985.40	4016.07
985.56	4222.91
985.72	4188.10
985.88	4124.61
986.04	4077.51
986.20	4040.64
986.37	4091.84
986.53	4075.46
986.69	4097.99
986.85	4048.83
987.01	3952.58
987.17	4052.93
987.33	4081.60
987.49	3928.00
987.65	4005.83
987.82	3903.43
987.98	3999.68
988.14	4081.60
988.30	4032.45
988.46	3966.92
988.62	3944.39
988.78	3999.68
988.94	3895.24
989.10	3850.18
989.26	3903.43
989.42	3934.15
989.59	3821.51
989.75	3833.80
989.91	3928.00
990.07	3723.21
990.23	3825.61
990.39	3821.51
990.55	4018.11
990.71	3794.89
990.87	3860.42
991.03	3848.13
991.19	3768.26
991.35	3866.56
991.51	3706.82
991.67	3848.13
991.83	3653.58
992.00	3880.90
992.16	3817.41
992.32	3715.02
992.48	3794.89
992.64	3774.41
992.80	3706.82
992.96	3698.63
993.12	3721.16
993.28	3743.69
993.44	3635.14
993.60	3708.87
993.76	3534.79
993.92	3706.82
994.08	3712.97
994.24	3616.71
994.40	3502.03
994.56	3602.38
994.72	3499.98
994.88	3520.46
995.04	3508.17
995.20	3575.75
995.36	3557.32
995.52	3555.27
995.68	3583.95
995.84	3495.88
996.00	3602.38
996.16	3579.85
996.32	3481.55
996.48	3485.64
996.64	3573.71
996.80	3522.51
996.96	3510.22
997.12	3450.83
997.28	3526.60
997.44	3360.72
997.60	3387.34
997.76	3416.01
997.92	3413.96
998.08	3444.68
998.24	3418.06
998.40	3332.05
998.56	3477.45
998.72	3268.56
998.88	3258.32
999.04	3297.23
999.20	3377.10
999.36	3297.23
999.52	3350.48
999.68	3375.05
999.84	3313.61
1000.00	3436.49
1000.16	3383.24
1000.32	3243.98
1000.48	3373.00
1000.64	3157.97
1000.80	3248.08
1000.95	3157.97
1001.11	3284.94
1001.27	3123.15
1001.43	3338.19
1001.59	3176.40
1001.75	3139.54
1001.91	3209.17
1002.07	3141.58
1002.23	3176.40
1002.39	3137.49
1002.55	3176.40
1002.71	3041.23
1002.87	3041.23
1003.03	3131.34
1003.19	3151.82
1003.34	3237.84
1003.50	3198.93
1003.66	3192.78
1003.82	3043.28
1003.98	3024.85
1004.14	2981.84
1004.30	2998.23
1004.46	3082.19
1004.62	3074.00
1004.78	3117.01
1004.94	3092.43
1005.09	3008.47
1005.25	3004.37
1005.41	2947.03
1005.57	3084.24
1005.73	3018.71
1005.89	2926.55
1006.05	2992.08
1006.21	3049.43
1006.37	2969.55
1006.52	2908.12
1006.68	2934.74
1006.84	3053.52
1007.00	2826.20
1007.16	2924.50
1007.32	2820.05
1007.48	2981.84
1007.64	2928.60
1007.79	2901.97
1007.95	2858.96
1008.11	2975.70
1008.27	2869.20
1008.43	2920.40
1008.59	2914.26
1008.75	2912.21
1008.91	2920.40
1009.06	2811.86
1009.22	2936.79
1009.38	2801.62
1009.54	2807.77
1009.70	2795.48
1009.86	2770.90
1010.01	2850.77
1010.17	2797.53
1010.33	2813.91
1010.49	2822.10
1010.65	2822.10
1010.81	2740.18
1010.96	2744.28
1011.12	2721.75
1011.28	2654.17
1011.44	2686.94
1011.60	2736.09
1011.76	2664.41
1011.91	2813.91
1012.07	2666.46
1012.23	2609.11
1012.39	2654.17
1012.55	2740.18
1012.71	2625.50
1012.86	2703.32
1013.02	2580.44
1013.18	2617.30
1013.34	2553.82
1013.50	2666.46
1013.65	2609.11
1013.81	2650.07
1013.97	2559.96
1014.13	2693.08
1014.29	2582.49
1014.44	2666.46
1014.60	2641.88
1014.76	2637.78
1014.92	2574.30
1015.07	2609.11
1015.23	2600.92
1015.39	2555.86
1015.55	2590.68
1015.71	2514.91
1015.86	2529.24
1016.02	2600.92
1016.18	2435.03
1016.34	2459.61
1016.49	2471.90
1016.65	2625.50
1016.81	2406.36
1016.97	2566.10
1017.12	2576.34
1017.28	2428.89
1017.44	2490.33
1017.60	2490.33
1017.75	2465.75
1017.91	2494.43
1018.07	2500.57
1018.23	2443.23
1018.38	2371.55
1018.54	2453.47
1018.70	2449.37
1018.86	2445.27
1019.01	2301.92
1019.17	2426.84
1019.33	2514.91
1019.49	2480.09
1019.64	2465.75
1019.80	2371.55
1019.96	2535.39
1020.12	2471.90
1020.27	2465.75
1020.43	2457.56
1020.59	2410.46
1020.74	2377.69
1020.90	2469.85
1021.06	2277.34
1021.22	2422.75
1021.37	2263.01
1021.53	2306.01
1021.69	2279.39
1021.84	2303.96
1022.00	2437.08
1022.16	2297.82
1022.31	2363.36
1022.47	2361.31
1022.63	2328.54
1022.79	2260.96
1022.94	2293.72
1023.10	2326.49
1023.26	2273.25
1023.41	2209.76
1023.57	2271.20
1023.73	2334.68
1023.88	2250.72
1024.04	2263.01
1024.20	2170.85
1024.35	2289.63
1024.51	2246.62
1024.67	2252.77
1024.82	2258.91
1024.98	2232.29
1025.14	2256.86
1025.29	2205.66
1025.45	2183.13
1025.61	2158.56
1025.76	2127.84
1025.92	2236.38
1026.08	2222.05
1026.23	2287.58
1026.39	2281.44
1026.55	2265.05
1026.70	2230.24
1026.86	2199.52
1027.02	2252.77
1027.17	2283.49
1027.33	2168.80
1027.48	2160.61
1027.64	2185.18
1027.80	2162.66
1027.95	2160.61
1028.11	2066.40
1028.27	2242.53
1028.42	2183.13
1028.58	2131.94
1028.73	2103.26
1028.89	2025.44
1029.05	2183.13
1029.20	2240.48
>>>>>End Processed Spectral Data<<<<<
