SpectraSuite Data File
++++++++++++++++++++++++++++++++++++
Date: Fri Jun 02 14:57:17 CEST 2017
User: INFO_000
Dark Spectrum Present: No
Reference Spectrum Present: No
Number of Sampled Component Spectra: 1
Spectrometers: USB4H00879
Integration Time (usec): 80000 (USB4H00879)
Spectra Averaged: 1 (USB4H00879)
Boxcar Smoothing: 0 (USB4H00879)
Correct for Electrical Dark: No (USB4H00879)
Strobe/Lamp Enabled: No (USB4H00879)
Correct for Detector Non-linearity: No (USB4H00879)
Correct for Stray Light: No (USB4H00879)
Number of Pixels in Processed Spectrum: 3648
>>>>>Begin Processed Spectral Data<<<<<
345.13	1206.25
345.34	1206.25
345.56	1206.25
345.78	1327.08
345.99	1392.62
346.21	1669.09
346.42	1708.01
346.64	1654.76
346.86	1794.02
347.07	1671.14
347.29	1757.16
347.50	1560.55
347.72	1646.57
347.94	1757.16
348.15	1519.59
348.37	1697.77
348.59	1710.05
348.80	1634.28
349.02	1685.48
349.23	1814.50
349.45	1712.10
349.67	1800.16
349.88	1705.96
350.10	2019.30
350.31	1839.08
350.53	1779.68
350.75	1871.84
350.96	1710.05
351.18	1818.60
351.39	1751.01
351.61	1705.96
351.82	1806.31
352.04	1847.27
352.26	1787.88
352.47	1767.40
352.69	1834.98
352.90	1691.62
353.12	1652.71
353.34	1824.74
353.55	1857.51
353.77	1855.46
353.98	1798.12
354.20	1759.21
354.41	1789.92
354.63	1904.61
354.85	1998.82
355.06	1783.78
355.28	1720.29
355.49	1804.26
355.71	1796.07
355.92	1736.68
356.14	1830.88
356.35	1783.78
356.57	1769.44
356.79	1841.12
357.00	1732.58
357.22	1861.60
357.43	1787.88
357.65	1849.32
357.86	1746.92
358.08	1775.59
358.29	1822.69
358.51	1861.60
358.72	1904.61
358.94	1867.75
359.16	1814.50
359.37	1781.73
359.59	1791.97
359.80	1900.52
360.02	1826.79
360.23	1902.56
360.45	1908.71
360.66	1861.60
360.88	1785.83
361.09	1753.06
361.31	1812.45
361.52	1773.54
361.74	2054.11
361.95	1927.14
362.17	1875.94
362.38	1884.13
362.60	2080.74
362.81	1757.16
363.03	1818.60
363.24	1873.89
363.46	1984.48
363.67	1939.43
363.89	1853.41
364.10	1908.71
364.32	1828.84
364.53	1912.80
364.75	1798.12
364.96	1865.70
365.18	2011.11
365.39	1908.71
365.61	1869.80
365.82	2068.45
366.04	1943.52
366.25	1796.07
366.47	1943.52
366.68	1888.23
366.90	1880.04
367.11	1873.89
367.33	1964.00
367.54	1976.29
367.76	1880.04
367.97	2000.87
368.19	1877.99
368.40	1978.34
368.62	1855.46
368.83	1920.99
369.05	1875.94
369.26	1843.17
369.48	1816.55
369.69	1892.32
369.91	1935.33
370.12	1912.80
370.33	1900.52
370.55	1837.03
370.76	1849.32
370.98	2031.58
371.19	1925.09
371.41	1890.28
371.62	1877.99
371.84	1847.27
372.05	2025.44
372.27	1904.61
372.48	1943.52
372.69	2027.49
372.91	2164.70
373.12	2056.16
373.34	1888.23
373.55	1908.71
373.77	1998.82
373.98	1986.53
374.20	2082.78
374.41	2144.22
374.62	1996.77
374.84	2125.79
375.05	2050.02
375.27	1994.72
375.48	2009.06
375.70	2068.45
375.91	2076.64
376.12	2217.95
376.34	1959.91
376.55	2017.25
376.77	2150.37
376.98	2045.92
377.19	1976.29
377.41	1990.63
377.62	2154.46
377.84	2234.33
378.05	2176.99
378.27	2121.70
378.48	2166.75
378.69	2215.90
378.91	2267.10
379.12	2191.33
379.34	2107.36
379.55	2148.32
379.76	2222.05
379.98	2183.13
380.19	2197.47
380.41	2209.76
380.62	2220.00
380.83	2172.89
381.05	2072.54
381.26	2328.54
381.47	2107.36
381.69	2166.75
381.90	2256.86
382.12	2195.42
382.33	2168.80
382.54	2179.04
382.76	2275.29
382.97	2324.44
383.19	2080.74
383.40	2271.20
383.61	2252.77
383.83	2224.09
384.04	2281.44
384.25	2365.40
384.47	2273.25
384.68	2310.11
384.89	2176.99
385.11	2287.58
385.32	2252.77
385.54	2351.07
385.75	2289.63
385.96	2287.58
386.18	2248.67
386.39	2363.36
386.60	2369.50
386.82	2256.86
387.03	2396.12
387.24	2445.27
387.46	2453.47
387.67	2439.13
387.88	2469.85
388.10	2330.59
388.31	2369.50
388.52	2527.19
388.74	2508.76
388.95	2408.41
389.16	2412.51
389.38	2428.89
389.59	2551.77
389.80	2547.67
390.02	2525.15
390.23	2637.78
390.44	2531.29
390.66	2437.08
390.87	2426.84
391.08	2578.39
391.30	2682.84
391.51	2611.16
391.72	2584.54
391.94	2586.58
392.15	2613.21
392.36	2475.99
392.58	2588.63
392.79	2627.54
393.00	2738.13
393.22	2711.51
393.43	2858.96
393.64	2783.19
393.85	2709.46
394.07	2711.51
394.28	2645.98
394.49	2777.05
394.71	2717.65
394.92	2820.05
395.13	2711.51
395.35	2676.70
395.56	2680.79
395.77	2775.00
395.98	2723.80
396.20	2852.82
396.41	2912.21
396.62	2805.72
396.84	2768.85
397.05	2805.72
397.26	2922.45
397.47	3051.47
397.69	2877.40
397.90	3059.67
398.11	2846.68
398.32	2883.54
398.54	2803.67
398.75	3002.32
398.96	2918.36
399.18	2981.84
399.39	3059.67
399.60	3035.09
399.81	2852.82
400.03	2963.41
400.24	3192.78
400.45	2916.31
400.66	3074.00
400.88	3020.75
401.09	3213.26
401.30	2996.18
401.51	3035.09
401.73	3180.50
401.94	3143.63
402.15	3225.55
402.36	3086.29
402.58	3153.87
402.79	3266.51
403.00	3256.27
403.21	3180.50
403.43	3231.69
403.64	3252.17
403.85	3170.26
404.06	3246.03
404.27	3141.58
404.49	3284.94
404.70	3203.02
404.91	3346.38
405.12	3194.83
405.34	3317.71
405.55	3346.38
405.76	3209.17
405.97	3256.27
406.19	3354.57
406.40	3291.09
406.61	3403.72
406.82	3362.76
407.03	3268.56
407.25	3373.00
407.46	3362.76
407.67	3520.46
407.88	3569.61
408.09	3434.44
408.31	3330.00
408.52	3424.20
408.73	3373.00
408.94	3413.96
409.15	3483.59
409.37	3469.26
409.58	3499.98
409.79	3479.50
410.00	3581.90
410.21	3442.64
410.43	3473.36
410.64	3553.23
410.85	3540.94
411.06	3536.84
411.27	3592.14
411.48	3631.05
411.70	3497.93
411.91	3588.04
412.12	3641.29
412.33	3538.89
412.54	3649.48
412.76	3643.34
412.97	3710.92
413.18	3555.27
413.39	3712.97
413.60	3575.75
413.81	3653.58
414.03	3585.99
414.24	3696.58
414.45	3841.99
414.66	3637.19
414.87	3706.82
415.08	3731.40
415.30	3798.98
415.51	3727.30
415.72	3600.33
415.93	3825.61
416.14	3782.60
416.35	3866.56
416.56	3821.51
416.78	3825.61
416.99	3905.48
417.20	3893.19
417.41	3868.61
417.62	3854.28
417.83	3987.40
418.04	3956.68
418.26	3993.54
418.47	3936.20
418.68	4106.18
418.89	4042.69
419.10	4138.94
419.31	3921.86
419.52	4026.31
419.73	3999.68
419.95	4102.08
420.16	4014.02
420.37	3946.44
420.58	4048.83
420.79	3932.10
421.00	4155.33
421.21	4145.09
421.42	4091.84
421.63	4110.27
421.85	4089.79
422.06	4280.25
422.27	4145.09
422.48	4233.15
422.69	4204.48
422.90	4241.34
423.11	4194.24
423.32	4227.01
423.53	4403.13
423.75	4382.65
423.96	4489.15
424.17	4272.06
424.38	4437.95
424.59	4448.19
424.80	4573.11
425.01	4497.34
425.22	4321.21
425.43	4440.00
425.64	4652.98
425.85	4638.65
426.06	4665.27
426.28	4478.91
426.49	4599.74
426.70	4605.88
426.91	4644.79
427.12	4704.18
427.33	4581.31
427.54	4605.88
427.75	4704.18
427.96	4904.89
428.17	4677.56
428.38	4870.07
428.59	4876.21
428.80	4861.88
429.01	4816.82
429.23	4730.81
429.44	5009.33
429.65	4927.41
429.86	5095.35
430.07	4935.60
430.28	4870.07
430.49	4902.84
430.70	5021.62
430.91	5107.63
431.12	5085.11
431.33	5220.27
431.54	5103.54
431.75	5238.70
431.96	5058.48
432.17	5185.46
432.38	5277.62
432.59	5449.64
432.80	5279.66
433.01	5263.28
433.22	5267.38
433.43	5271.47
433.64	5277.62
433.85	5382.06
434.06	5263.28
434.27	5320.62
434.49	5332.91
434.70	5543.85
434.91	5332.91
435.12	5394.35
435.33	5435.31
435.54	5449.64
435.75	5320.62
435.96	5482.41
436.17	5345.20
436.38	5615.53
436.59	5584.81
436.80	5380.01
437.01	5904.29
437.22	5705.64
437.43	5740.46
437.64	5459.88
437.85	5685.16
438.06	5849.00
438.27	5638.06
438.48	5707.69
438.69	5795.75
438.90	5660.59
439.11	5762.98
439.32	5736.36
439.53	5867.43
439.74	5965.73
439.95	5810.09
440.16	5844.90
440.37	5988.26
440.57	5801.90
440.78	5930.92
440.99	5922.73
441.20	5928.87
441.41	5853.09
441.62	6119.33
441.83	5830.57
442.04	6244.26
442.25	6078.37
442.46	6164.39
442.67	6174.63
442.88	6504.35
443.09	6191.01
443.30	6072.23
443.51	6102.95
443.72	6258.59
443.93	6172.58
444.14	6465.44
444.35	6277.02
444.56	6317.98
444.77	6447.01
444.98	6170.53
445.19	6332.32
445.40	6297.50
445.61	6363.04
445.81	6528.92
446.02	6471.58
446.23	6451.10
446.44	6354.85
446.65	6447.01
446.86	6371.23
447.07	6709.15
447.28	6641.56
447.49	6672.28
447.70	6612.89
447.91	6578.08
448.12	6678.43
448.33	6746.01
448.54	6881.18
448.74	6616.99
448.95	6918.04
449.16	6659.99
449.37	7024.53
449.58	6918.04
449.79	6993.81
450.00	6881.18
450.21	6903.70
450.42	7157.65
450.63	7178.13
450.84	6885.27
451.05	7073.68
451.25	6909.85
451.46	6989.72
451.67	7217.04
451.88	7249.81
452.09	7186.32
452.30	7194.51
452.51	7124.88
452.72	7169.94
452.93	7436.17
453.13	7122.84
453.34	7196.56
453.55	7323.54
453.76	7380.88
453.97	7782.28
454.18	7573.39
454.39	7530.38
454.60	7532.43
454.81	7425.93
455.01	7653.26
455.22	7384.98
455.43	7749.51
455.64	7843.72
455.85	8097.67
456.06	7939.97
456.27	7753.61
456.48	7849.86
456.68	7882.63
456.89	7917.45
457.10	8069.00
457.31	8003.46
457.52	8005.51
457.73	8112.00
457.94	8324.99
458.14	8007.56
458.35	8404.86
458.56	8378.24
458.77	8120.20
458.98	8304.51
459.19	8324.99
459.39	8384.38
459.60	8277.89
459.81	8423.30
460.02	8556.41
460.23	8468.35
460.44	8761.21
460.65	8671.10
460.85	8820.60
461.06	8785.79
461.27	8544.13
461.48	8963.96
461.69	9062.26
461.89	8734.59
462.10	9031.54
462.31	8718.20
462.52	8767.35
462.73	8957.82
462.94	9031.54
463.14	9246.58
463.35	8886.14
463.56	9537.39
463.77	9346.93
463.98	9332.59
464.18	9385.84
464.39	9451.38
464.60	9676.65
464.81	9553.77
465.02	9467.76
465.23	9846.63
465.43	9824.11
465.64	9744.24
465.85	9906.02
466.06	9662.32
466.27	10219.36
466.47	9934.70
466.68	9942.89
466.89	9994.09
467.10	10202.98
467.30	9920.36
467.51	10317.67
467.72	10504.03
467.93	10026.86
468.14	10487.65
468.34	10585.95
468.55	10465.12
468.76	10637.15
468.97	10332.00
469.17	10829.66
469.38	10784.60
469.59	10981.21
469.80	10721.12
470.01	10899.29
470.21	10823.51
470.42	11265.88
470.63	11198.29
470.84	11206.48
471.04	11482.96
471.25	11167.57
471.46	11372.37
471.67	11714.38
471.87	11327.32
472.08	11759.44
472.29	11620.17
472.50	11272.02
472.70	11634.51
472.91	11929.42
473.12	11941.71
473.33	11814.73
473.53	12138.31
473.74	12011.34
473.95	12330.82
474.16	12353.35
474.36	12367.68
474.57	12431.17
474.78	12685.12
474.99	12588.86
475.19	12531.52
475.40	12818.24
475.61	13141.82
475.81	13129.53
476.02	13274.93
476.23	13160.25
476.44	13184.82
476.64	13633.33
476.85	13436.72
477.06	13508.40
477.27	13897.52
477.47	13694.77
477.68	13758.25
477.89	14077.74
478.09	13885.23
478.30	14130.98
478.51	13811.50
478.71	14061.35
478.92	14219.05
479.13	14032.68
479.34	14544.67
479.54	14616.35
479.75	14685.98
479.96	14735.14
480.16	15056.67
480.37	14864.16
480.58	15204.12
480.78	15277.85
480.99	15171.35
481.20	15335.19
481.41	15621.91
481.61	15574.80
481.82	15718.16
482.03	15681.30
482.23	15413.01
482.44	16004.88
482.65	16248.58
482.85	16004.88
483.06	16070.41
483.27	16156.43
483.47	16211.72
483.68	16326.41
483.89	16510.72
484.09	16660.23
484.30	16598.79
484.51	16828.16
484.71	16668.42
484.92	16832.26
485.13	17266.42
485.33	16887.55
485.54	16983.80
485.75	17250.04
485.95	17393.40
486.16	17469.17
486.37	17624.82
486.57	17567.48
486.78	17755.89
486.98	17626.87
487.19	17802.99
487.40	17907.44
487.60	17929.97
487.81	18079.47
488.02	18263.79
488.22	18067.18
488.43	18501.35
488.64	18403.05
488.84	18456.29
489.05	18661.09
489.25	18579.17
489.46	19091.16
489.67	18933.47
489.87	19267.29
490.08	19113.69
490.29	19121.88
490.49	19697.36
490.70	19478.23
490.90	19578.58
491.11	19420.89
491.32	19607.25
491.52	19494.61
491.73	19717.84
491.94	19988.18
492.14	19857.10
492.35	20225.74
492.55	20358.86
492.76	20264.65
492.97	20459.21
493.17	20426.44
493.38	20610.76
493.58	20743.88
493.79	20833.99
494.00	20727.49
494.20	21161.66
494.41	21169.85
494.61	21165.76
494.82	21200.57
495.02	21120.70
495.23	21262.01
495.44	21296.83
495.64	21687.99
495.85	21622.45
496.05	21675.70
496.26	21636.79
496.47	21597.88
496.67	21745.33
496.88	22048.43
497.08	21900.98
497.29	22179.50
497.49	22312.62
497.70	22486.70
497.91	22384.30
498.11	22595.24
498.32	22632.10
498.52	22650.53
498.73	22812.32
498.93	22894.24
499.14	22894.24
499.34	22949.54
499.55	23172.77
499.76	22922.91
499.96	23350.94
500.17	23178.91
500.37	23467.67
500.58	23651.99
500.78	23473.82
500.99	23670.42
501.19	23953.04
501.40	23600.79
501.60	23312.03
501.81	23809.68
502.02	23940.75
502.22	23596.70
502.43	24059.54
502.63	24092.30
502.84	24106.64
503.04	24229.52
503.25	24319.63
503.45	24354.44
503.66	24614.54
503.86	24258.19
504.07	24696.46
504.27	24477.32
504.48	25050.75
504.68	24442.51
504.89	24886.92
505.09	24917.64
505.30	24764.04
505.50	25106.05
505.71	24727.17
505.91	25269.89
506.12	25241.21
506.32	25462.40
506.53	25036.42
506.73	25419.39
506.94	25333.37
507.14	25652.86
507.35	25374.33
507.55	25532.03
507.76	25687.67
507.96	25587.32
508.17	25663.10
508.37	25644.66
508.58	25841.27
508.78	25722.49
508.99	26015.35
509.19	25990.77
509.40	26127.99
509.60	26377.84
509.81	26150.51
510.01	25984.63
510.22	26187.38
510.42	26242.67
510.63	26758.76
510.83	26283.63
511.04	26451.56
511.24	26785.38
511.44	26787.43
511.65	26682.98
511.85	26895.97
512.06	26685.03
512.26	26814.05
512.47	27090.53
512.67	26812.01
512.88	26994.28
513.08	26715.75
513.29	26963.56
513.49	27121.25
513.69	27076.19
513.90	27491.93
514.10	27430.49
514.31	27412.06
514.51	27481.69
514.72	27543.13
514.92	27436.64
515.13	27321.95
515.33	27768.41
515.53	27381.34
515.74	27684.44
515.94	27995.73
516.15	27981.40
516.35	27811.42
516.56	27940.44
516.76	27819.61
516.96	28186.19
517.17	28325.46
517.37	28165.71
517.58	28300.88
517.78	28550.73
517.99	28245.58
518.19	28591.69
518.39	28761.67
518.60	28870.22
518.80	29011.53
519.01	28714.57
519.21	28880.46
519.41	28714.57
519.62	28569.16
519.82	28917.32
520.03	29064.77
520.23	29083.20
520.43	28962.37
520.64	29306.43
520.84	29455.93
521.05	29179.46
521.25	29298.24
521.45	29550.14
521.66	29722.17
521.86	29683.26
522.07	29376.06
522.27	29713.98
522.47	29861.43
522.68	30199.35
522.88	29879.86
523.08	30144.05
523.29	29857.34
523.49	30189.11
523.70	30266.93
523.90	30584.37
524.10	30137.91
524.31	30316.08
524.51	29877.82
524.71	30842.41
524.92	30492.21
525.12	31165.99
525.33	31137.32
525.53	31141.41
525.73	31020.58
525.94	31102.50
526.14	31284.77
526.34	31565.34
526.55	31700.51
526.75	31419.94
526.95	31567.39
527.16	31694.36
527.36	31659.55
527.56	31907.35
527.77	31970.84
527.97	31764.00
528.17	32048.66
528.38	32202.26
528.58	32142.87
528.78	32226.84
528.99	32214.55
529.19	32454.16
529.39	32491.02
529.60	32630.29
529.80	32747.02
530.00	32716.30
530.21	32923.15
530.41	33129.99
530.61	32773.64
530.82	32857.61
531.02	32820.75
531.22	33109.51
531.43	33375.75
531.63	33635.84
531.83	33816.06
532.04	33877.50
532.24	33318.40
532.44	34016.76
532.64	33824.25
532.85	34528.75
533.05	34139.64
533.25	34176.50
533.46	34323.96
533.66	34465.27
533.86	34778.61
534.07	34813.42
534.27	34782.70
534.47	34967.02
534.67	34860.52
534.88	34770.41
535.08	34997.74
535.28	35249.64
535.49	35331.56
535.69	35524.07
535.89	35669.47
536.09	35552.74
536.30	35978.72
536.50	35438.05
536.70	35874.27
536.91	35646.94
537.11	36206.04
537.31	36259.29
537.51	36124.12
537.72	36546.00
537.92	36285.91
538.12	37012.94
538.32	36593.11
538.53	36699.60
538.73	36427.22
538.93	36646.35
539.13	37109.19
539.34	36867.53
539.54	36578.77
539.74	37301.70
539.94	37395.91
540.15	37131.72
540.35	37264.84
540.55	37342.66
540.75	37488.07
540.96	37189.06
541.16	37739.97
541.36	37631.43
541.56	38151.61
541.77	37909.95
541.97	38067.64
542.17	38176.19
542.37	37912.00
542.58	38206.90
542.78	38006.20
542.98	38098.36
543.18	38579.64
543.38	38583.73
543.59	38743.47
543.79	38544.82
543.99	38917.55
544.19	38663.60
544.40	38518.20
544.60	38909.36
544.80	38831.54
545.00	39032.24
545.20	39212.46
545.41	39321.00
545.61	38886.83
545.81	39378.34
546.01	39689.63
546.21	39110.06
546.42	39110.06
546.62	39693.73
546.82	39630.24
547.02	39818.66
547.22	39712.16
547.43	39585.19
547.63	40088.99
547.83	39871.90
548.03	39871.90
548.23	39953.82
548.44	40134.04
548.64	40164.76
548.84	40154.52
549.04	40142.24
549.24	40461.72
549.45	40615.32
549.65	40314.26
549.85	40422.81
550.05	40631.70
550.25	40633.75
550.45	40947.09
550.66	40928.66
550.86	40584.60
551.06	41158.03
551.26	40824.21
551.46	41072.01
551.66	41375.11
551.87	41106.83
552.07	41102.73
552.27	40596.88
552.47	41217.42
552.67	41069.97
552.87	40914.32
553.07	41088.40
553.28	41624.96
553.48	41231.75
553.68	41289.10
553.88	41829.76
554.08	41772.42
554.28	41538.95
554.48	41356.68
554.69	41870.72
554.89	41463.18
555.09	41729.41
555.29	41708.93
555.49	41581.96
555.69	41694.60
555.89	41936.26
556.10	42333.56
556.30	41936.26
556.50	42052.99
556.70	41555.33
556.90	42290.55
557.10	42313.08
557.30	42284.41
557.50	42411.38
557.70	42132.86
557.91	42345.85
558.11	42306.94
558.31	42712.44
558.51	42233.21
558.71	42677.62
558.91	42757.49
559.11	42464.63
559.31	42644.85
559.51	42321.27
559.72	42530.17
559.92	42730.87
560.12	42438.01
560.32	42675.57
560.52	42513.78
560.72	42704.24
560.92	42933.62
561.12	43031.92
561.32	43136.37
561.52	43079.02
561.72	43687.27
561.93	43586.92
562.13	43132.27
562.33	42743.16
562.53	43439.47
562.73	43048.30
562.93	43369.83
563.13	43480.42
563.33	43478.38
563.53	43578.73
563.73	43316.59
563.93	43001.20
564.13	43928.93
564.33	43410.79
564.53	43711.84
564.74	43730.28
564.94	43138.41
565.14	43380.07
565.34	43427.18
565.54	43580.78
565.74	44074.34
565.94	44080.48
566.14	43838.82
566.34	43238.76
566.54	44162.40
566.74	44082.53
566.94	43918.69
567.14	44105.06
567.34	44041.57
567.54	43877.73
567.74	43951.46
567.94	44260.70
568.14	44045.66
568.34	44485.98
568.54	44019.04
568.74	44389.72
568.94	44371.29
569.14	44299.61
569.34	44348.76
569.54	44713.30
569.75	44473.69
569.95	44574.04
570.15	44522.84
570.35	44461.40
570.55	44451.16
570.75	44590.42
570.95	44522.84
571.15	45018.45
571.35	44676.44
571.55	44731.73
571.75	44733.78
571.95	45147.47
572.15	44975.44
572.35	45303.12
572.55	44772.69
572.75	44832.08
572.95	44787.03
573.15	44750.17
573.35	45002.07
573.55	44805.46
573.75	45208.91
573.95	45217.10
574.15	45153.62
574.35	45823.30
574.55	45307.21
574.75	45104.46
574.95	45555.02
575.15	45145.42
575.34	45612.36
575.54	45876.55
575.74	45782.34
575.94	46040.39
576.14	45884.74
576.34	45935.94
576.54	45901.12
576.74	46091.58
576.94	45782.34
577.14	46148.93
577.34	46333.24
577.54	45458.76
577.74	46249.28
577.94	46148.93
578.14	46327.10
578.34	46372.16
578.54	46105.92
578.74	46230.85
578.94	46665.02
579.14	46404.92
579.34	46333.24
579.54	46366.01
579.74	46619.96
579.94	46591.29
580.13	46652.73
580.33	46832.95
580.53	47047.99
580.73	46773.56
580.93	47301.93
581.13	46611.77
581.33	47195.44
581.53	47287.60
581.73	47222.06
581.93	47611.18
582.13	47232.30
582.33	47631.66
582.53	47035.70
582.73	47955.24
582.92	47480.11
583.12	47740.20
583.32	47658.28
583.52	47576.36
583.72	47699.24
583.92	47732.01
584.12	47998.24
584.32	47781.16
584.52	48147.75
584.72	48063.78
584.92	48051.49
585.11	48547.10
585.31	47897.89
585.51	48354.59
585.71	48104.74
585.91	48592.15
586.11	48200.99
586.31	47887.65
586.51	48084.26
586.71	48198.94
586.91	48901.40
587.10	48911.64
587.30	48809.24
587.50	48919.83
587.70	48651.55
587.90	48741.66
588.10	49253.65
588.30	48936.21
588.50	48643.35
588.69	48932.12
588.89	48913.69
589.09	49319.18
589.29	49636.62
589.49	49401.10
589.69	48911.64
589.89	49233.17
590.08	49470.73
590.28	49257.74
590.48	49358.09
590.68	49493.26
590.88	49405.20
591.08	49896.71
591.28	49495.31
591.47	49855.75
591.67	49986.82
591.87	49726.73
592.07	49954.05
592.27	49833.22
592.47	49978.63
592.67	49816.84
592.86	49767.69
593.06	50189.57
593.26	50459.90
593.46	50572.54
593.66	50273.54
593.86	50265.34
594.05	50300.16
594.25	50627.84
594.45	50134.28
594.65	50605.31
594.85	50281.73
595.05	50562.30
595.24	50605.31
595.44	50531.58
595.64	50732.28
595.84	50652.41
596.04	50943.22
596.23	51008.76
596.43	51365.10
596.63	51080.44
596.83	50955.51
597.03	51297.52
597.22	51524.85
597.42	50904.31
597.62	51170.55
597.82	51344.62
598.02	51406.06
598.21	51420.40
598.41	51035.38
598.61	51752.17
598.81	51533.04
599.01	51141.88
599.20	51586.28
599.40	50873.59
599.60	51729.64
599.80	51819.75
600.00	51793.13
600.19	51995.88
600.39	52253.92
600.59	51979.49
600.79	52002.02
600.98	52266.21
601.18	52188.39
601.38	52292.83
601.58	52276.45
601.78	52612.32
601.97	52452.58
602.17	53118.17
602.37	52741.34
602.57	52690.14
602.76	52802.78
602.96	52258.02
603.16	52896.98
603.36	53359.83
603.55	53052.63
603.75	52669.66
603.95	53308.63
604.15	52819.16
604.34	53001.43
604.54	52880.60
604.74	52786.39
604.94	53185.75
605.13	53503.18
605.33	53105.88
605.53	53277.91
605.73	53710.03
605.92	53298.39
606.12	53875.91
606.32	53650.64
606.52	53441.74
606.71	53683.40
606.91	53945.54
607.11	53425.36
607.30	53834.95
607.50	54213.83
607.70	53927.11
607.90	54002.89
608.09	54113.48
608.29	53832.91
608.49	53834.95
608.68	54174.92
608.88	54287.56
609.08	54230.21
609.28	54326.47
609.47	53777.61
609.67	54740.16
609.87	54598.85
610.06	54254.79
610.26	54449.35
610.46	54326.47
610.66	54549.70
610.85	54662.33
611.05	54119.62
611.25	54219.97
611.44	54295.75
611.64	54529.22
611.84	54156.49
612.03	54258.88
612.23	54893.75
612.43	54854.84
612.62	54408.39
612.82	54287.56
613.02	54502.59
613.21	54531.26
613.41	54275.27
613.61	54564.03
613.80	54322.37
614.00	54891.71
614.20	54889.66
614.39	54768.83
614.59	54639.81
614.79	54752.44
614.98	54770.88
615.18	55159.99
615.38	54451.39
615.57	54867.13
615.77	55063.74
615.97	55020.73
616.16	55256.24
616.36	54836.41
616.56	54883.51
616.75	54736.06
616.95	54682.81
617.15	54820.03
617.34	55159.99
617.54	54979.77
617.74	55456.95
617.93	55067.83
618.13	54363.33
618.32	54936.76
618.52	54318.28
618.72	55100.60
618.91	55170.23
619.11	54688.96
619.31	54887.61
619.50	54783.16
619.70	54815.93
619.90	54469.82
620.09	54809.79
620.29	54918.33
620.48	54725.82
620.68	55516.34
620.88	54645.95
621.07	54428.87
621.27	55000.25
621.46	54498.50
621.66	54863.03
621.86	54428.87
622.05	54064.33
622.25	54850.75
622.44	54666.43
622.64	54572.22
622.84	54801.60
623.03	54015.18
623.23	54269.12
623.42	54576.32
623.62	54820.03
623.82	54996.15
624.01	54639.81
624.21	55063.74
624.40	54936.76
624.60	54521.02
624.80	54525.12
624.99	54942.91
625.19	54219.97
625.38	54772.92
625.58	54402.24
625.77	54908.09
625.97	54547.65
626.17	54398.15
626.36	54588.61
626.56	54424.77
626.75	54154.44
626.95	55137.46
627.14	54650.05
627.34	54881.47
627.54	54305.99
627.73	54613.18
627.93	54633.66
628.12	54222.02
628.32	54486.21
628.51	54627.52
628.71	54541.50
628.90	54428.87
629.10	54635.71
629.30	54553.79
629.49	54832.32
629.69	54834.36
629.88	54981.82
630.08	54697.15
630.27	54865.08
630.47	54752.44
630.66	54303.94
630.86	54924.47
631.05	54064.33
631.25	54744.25
631.44	54770.88
631.64	54424.77
631.84	54832.32
632.03	54871.23
632.23	54768.83
632.42	54842.56
632.62	54889.66
632.81	54330.56
633.01	54895.80
633.20	54963.39
633.40	55010.49
633.59	54443.20
633.79	54291.65
633.98	54701.25
634.18	54760.64
634.37	54695.10
634.57	55008.44
634.76	54842.56
634.96	55002.30
635.15	54910.14
635.35	54344.90
635.54	54750.40
635.74	54727.87
635.93	54607.04
636.13	54760.64
636.32	54795.45
636.52	54461.63
636.71	54686.91
636.91	54664.38
637.10	54963.39
637.30	54731.96
637.49	54838.46
637.69	54764.73
637.88	55385.27
638.08	54498.50
638.27	55344.31
638.46	54871.23
638.66	54707.39
638.85	54742.20
639.05	55055.54
639.24	54957.24
639.44	54959.29
639.63	54820.03
639.83	55319.73
640.02	54920.38
640.22	55321.78
640.41	55102.65
640.61	55010.49
640.80	54875.32
640.99	54895.80
641.19	55506.10
641.38	55379.12
641.58	55387.31
641.77	54869.18
641.97	55018.68
642.16	54768.83
642.36	55137.46
642.55	55112.89
642.74	54985.91
642.94	55780.52
643.13	54906.04
643.33	55620.78
643.52	55864.49
643.72	55020.73
643.91	54957.24
644.10	55426.23
644.30	55639.22
644.49	55469.23
644.69	55375.03
644.88	55325.88
645.08	54793.40
645.27	55123.13
645.46	54731.96
645.66	55418.03
645.85	55180.47
646.05	55356.60
646.24	55399.60
646.43	56036.52
646.63	55633.07
646.82	55891.12
647.02	55342.26
647.21	55561.39
647.40	55506.10
647.60	55823.53
647.79	55858.35
647.99	55375.03
648.18	55583.92
648.37	55719.09
648.57	55712.94
648.76	55870.64
648.96	55807.15
649.15	55833.77
649.34	55944.36
649.54	55827.63
649.73	55121.08
649.92	56081.58
650.12	55778.48
650.31	55846.06
650.51	55856.30
650.70	56120.49
650.89	55927.98
651.09	56530.08
651.28	55778.48
651.47	56046.76
651.67	56423.59
651.86	56380.58
652.06	55448.75
652.25	56212.65
652.44	56286.37
652.64	55313.59
652.83	55600.30
653.02	56108.20
653.22	56218.79
653.41	55942.31
653.60	56120.49
653.80	56089.77
653.99	56485.03
654.18	56067.24
654.38	56222.89
654.57	56456.35
654.76	55835.82
654.96	55780.52
655.15	56161.45
655.34	56214.69
655.54	55938.22
655.73	56358.05
655.92	56042.66
656.12	56136.87
656.31	56282.28
656.50	56548.51
656.70	56243.37
656.89	55714.99
657.08	56179.88
657.28	56100.01
657.47	56384.68
657.66	56308.90
657.86	56566.94
658.05	56382.63
658.24	56663.20
658.43	56589.47
658.63	56462.50
658.82	56304.80
659.01	56454.31
659.21	56296.61
659.40	56663.20
659.59	56370.34
659.79	56673.44
659.98	56861.85
660.17	56951.96
660.36	56411.30
660.56	56644.77
660.75	57130.14
660.94	56931.48
661.14	56331.43
661.33	56554.66
661.52	56423.59
661.71	56935.58
661.91	56663.20
662.10	56738.97
662.29	56956.06
662.49	56808.61
662.68	57070.75
662.87	56986.78
663.06	56974.49
663.26	56745.12
663.45	57111.70
663.64	56818.84
663.83	57396.37
664.03	57269.40
664.22	57072.79
664.41	57052.31
664.60	56181.93
664.80	56949.92
664.99	56243.37
665.18	56712.35
665.37	56908.96
665.57	57017.50
665.76	56288.42
665.95	57201.82
666.14	56706.21
666.34	57140.38
666.53	56683.68
666.72	56757.41
666.91	57050.27
667.11	56657.06
667.30	57111.70
667.49	56943.77
667.68	56665.25
667.87	56861.85
668.07	57054.36
668.26	56917.15
668.45	57001.11
668.64	56237.22
668.84	57214.10
669.03	56919.20
669.22	57212.06
669.41	57324.69
669.60	56870.04
669.80	56753.31
669.99	57257.11
670.18	56736.93
670.37	56835.23
670.57	57218.20
670.76	57040.03
670.95	57324.69
671.14	57031.83
671.33	57173.14
671.53	57687.18
671.72	57113.75
671.91	56767.65
672.10	56779.93
672.29	56937.63
672.48	56956.06
672.68	57179.29
672.87	56485.03
673.06	56712.35
673.25	56554.66
673.44	56814.75
673.64	56882.33
673.83	56835.23
674.02	56759.45
674.21	56906.91
674.40	57738.38
674.59	56671.39
674.79	56718.49
674.98	56683.68
675.17	56644.77
675.36	56431.78
675.55	56904.86
675.74	56667.30
675.94	56628.38
676.13	56767.65
676.32	57017.50
676.51	56657.06
676.70	57193.62
676.89	56671.39
677.08	56792.22
677.28	56603.81
677.47	57513.11
677.66	56939.68
677.85	56913.05
678.04	56820.89
678.23	57244.82
678.42	57005.21
678.62	56706.21
678.81	56585.38
679.00	56655.01
679.19	57308.31
679.38	56951.96
679.57	57013.40
679.76	56503.46
679.96	57054.36
680.15	56620.19
680.34	56853.66
680.53	56468.64
680.72	56792.22
680.91	57191.58
681.10	56865.95
681.29	56593.57
681.48	56546.47
681.68	56562.85
681.87	56157.35
682.06	56689.82
682.25	56487.07
682.44	56392.87
682.63	56790.17
682.82	55895.21
683.01	55852.20
683.20	56233.13
683.39	56407.20
683.59	56231.08
683.78	56106.15
683.97	56022.19
684.16	56480.93
684.35	56024.23
684.54	56423.59
684.73	56237.22
684.92	55833.77
685.11	56097.96
685.30	56255.65
685.49	56394.92
685.69	56038.57
685.88	56061.10
686.07	56007.85
686.26	56016.04
686.45	56138.92
686.64	56196.26
686.83	56353.96
687.02	56157.35
687.21	56095.91
687.40	55944.36
687.59	56050.86
687.78	55921.83
687.97	56167.59
688.16	56114.34
688.35	56081.58
688.54	56192.17
688.74	56274.09
688.93	55448.75
689.12	55651.50
689.31	55993.51
689.50	56132.78
689.69	55190.71
689.88	54994.10
690.07	55948.46
690.26	55755.95
690.45	56038.57
690.64	55399.60
690.83	55268.53
691.02	55112.89
691.21	55651.50
691.40	55463.09
691.59	55901.36
691.78	55581.87
691.97	55753.90
692.16	55145.65
692.35	55512.24
692.54	55567.54
692.73	55309.49
692.92	55237.81
693.11	55096.50
693.30	55192.76
693.49	55301.30
693.68	54863.03
693.87	54936.76
694.06	55088.31
694.25	55096.50
694.44	55342.26
694.63	55303.35
694.82	55448.75
695.01	55217.33
695.20	54645.95
695.39	54891.71
695.58	55272.63
695.77	54570.18
695.96	54625.47
696.15	54936.76
696.34	54699.20
696.53	54746.30
696.72	55530.67
696.91	54625.47
697.10	54914.23
697.29	54506.69
697.48	55094.46
697.67	54822.08
697.86	54725.82
698.05	54760.64
698.24	54854.84
698.43	53994.70
698.62	54699.20
698.81	54432.96
699.00	54721.72
699.19	54162.63
699.38	54129.86
699.57	54017.22
699.76	54854.84
699.95	54006.98
700.14	54027.46
700.32	54793.40
700.51	53642.45
700.70	54101.19
700.89	54699.20
701.08	53818.57
701.27	53857.48
701.46	54375.62
701.65	53417.17
701.84	54187.21
702.03	53675.21
702.22	53867.72
702.41	54066.38
702.60	53998.79
702.79	53644.49
702.98	53351.63
703.17	53927.11
703.35	53564.62
703.54	53636.30
703.73	53554.38
703.92	53892.30
704.11	53595.34
704.30	53060.82
704.49	53144.79
704.68	53474.51
704.87	53222.61
705.06	52815.07
705.25	53224.66
705.43	53400.79
705.62	53433.55
705.81	53497.04
706.00	53179.60
706.19	52962.52
706.38	52804.83
706.57	53087.45
706.76	52446.43
706.95	52720.86
707.14	52636.89
707.32	52970.71
707.51	52663.52
707.70	52839.64
707.89	52751.58
708.08	52739.29
708.27	52874.46
708.46	53214.42
708.65	52774.11
708.84	52778.20
709.02	52329.70
709.21	52712.67
709.40	52690.14
709.59	52706.52
709.78	52180.20
709.97	52407.52
710.16	52522.21
710.34	52235.49
710.53	52272.35
710.72	52561.12
710.91	52331.75
711.10	52346.08
711.29	52262.11
711.48	52198.63
711.66	51936.49
711.85	51811.56
712.04	51842.28
712.23	51700.97
712.42	51840.23
712.61	51748.07
712.80	51883.24
712.98	52112.61
713.17	51371.25
713.36	51934.44
713.55	51940.58
713.74	51684.59
713.93	51752.17
714.11	51580.14
714.30	51291.38
714.49	51530.99
714.68	51522.80
714.87	51903.72
715.06	51836.14
715.24	51430.64
715.43	51295.47
715.62	51600.62
715.81	51297.52
716.00	51653.87
716.18	51094.77
716.37	50492.67
716.56	51039.48
716.75	51553.52
716.94	50803.96
717.12	50953.46
717.31	51203.31
717.50	50935.03
717.69	50582.78
717.88	50752.76
718.06	50734.33
718.25	51109.11
718.44	50566.40
718.63	50435.33
718.82	50820.34
719.00	50869.50
719.19	50568.44
719.38	50881.78
719.57	50193.67
719.76	49816.84
719.94	49788.17
720.13	49935.62
720.32	50253.06
720.51	50236.67
720.69	50312.45
720.88	49990.92
721.07	49822.98
721.26	49517.84
721.44	49734.92
721.63	49542.41
721.82	49308.94
722.01	49401.10
722.20	49274.13
722.38	49116.43
722.57	49032.47
722.76	49411.34
722.95	49493.26
723.13	49167.63
723.32	49411.34
723.51	49036.56
723.70	48776.47
723.88	49075.48
724.07	48962.84
724.26	48858.39
724.44	48536.86
724.63	49095.95
724.82	48702.74
725.01	49093.91
725.19	48751.90
725.38	48581.91
725.57	48586.01
725.76	48549.15
725.94	48477.47
726.13	48244.00
726.32	48141.60
726.51	48377.12
726.69	48739.61
726.88	48755.99
727.07	48391.45
727.25	48317.73
727.44	48551.20
727.63	48420.13
727.82	48203.04
728.00	48002.34
728.19	47957.28
728.38	48442.65
728.56	47754.54
728.75	48807.19
728.94	47985.96
729.12	47961.38
729.31	48084.26
729.50	47973.67
729.69	48397.60
729.87	47727.91
730.06	48241.95
730.25	47883.56
730.43	48618.78
730.62	47936.80
730.81	48340.25
730.99	48411.93
731.18	48354.59
731.37	48057.63
731.55	48082.21
731.74	48401.69
731.93	48248.10
732.11	48006.44
732.30	47723.82
732.49	47988.00
732.67	47658.28
732.86	47977.76
733.05	47951.14
733.23	47785.25
733.42	47928.61
733.61	47809.83
733.79	47928.61
733.98	48540.96
734.17	48088.35
734.35	47539.50
734.54	47645.99
734.73	47985.96
734.91	47846.69
735.10	47568.17
735.29	47949.09
735.47	47772.97
735.66	47727.91
735.84	48035.11
736.03	47430.96
736.22	48074.02
736.40	47314.22
736.59	47670.57
736.78	47447.34
736.96	47387.95
737.15	47852.84
737.33	47672.62
737.52	47138.10
737.71	47109.43
737.89	47338.80
738.08	47105.33
738.27	47148.34
738.45	47686.95
738.64	47572.27
738.82	47410.48
739.01	46884.15
739.20	47404.33
739.38	47455.53
739.57	47592.75
739.75	47303.98
739.94	46900.53
740.13	46849.33
740.31	47449.39
740.50	47043.89
740.68	47435.05
740.87	47111.47
741.06	47260.97
741.24	47172.91
741.43	46933.30
741.61	47050.03
741.80	46617.91
741.99	46679.35
742.17	46800.18
742.36	47123.76
742.54	46783.80
742.73	46802.23
742.91	46986.55
743.10	46822.71
743.29	47103.28
743.47	46837.05
743.66	46914.87
743.84	46722.36
744.03	46576.95
744.21	46449.98
744.40	47070.51
744.59	46495.03
744.77	46603.58
744.96	46732.60
745.14	47019.31
745.33	46355.77
745.51	46505.27
745.70	46593.34
745.88	46433.60
746.07	46677.30
746.26	46323.01
746.44	46431.55
746.63	46529.85
746.81	46902.58
747.00	46103.87
747.18	46447.93
747.37	46372.16
747.55	46189.89
747.74	46605.62
747.92	45739.33
748.11	46030.15
748.29	46073.15
748.48	46251.33
748.66	45858.12
748.85	46030.15
749.03	46191.94
749.22	45954.37
749.41	45571.40
749.59	46013.76
749.78	45829.44
749.96	45487.43
750.15	45759.81
750.33	46007.62
750.52	45808.96
750.70	45626.70
750.89	45571.40
751.07	45407.56
751.26	45495.63
751.44	45585.74
751.63	45509.96
751.81	45301.07
752.00	45462.86
752.18	45645.13
752.37	45471.05
752.55	45065.55
752.74	45163.85
752.92	45464.91
753.10	45151.57
753.29	45163.85
753.47	45405.52
753.66	45108.56
753.84	45507.91
754.03	44991.83
754.21	44961.11
754.40	45065.55
754.58	45550.92
754.77	44954.96
754.95	44969.30
755.14	44989.78
755.32	45124.94
755.51	44875.09
755.69	44316.00
755.88	44805.46
756.06	44549.46
756.24	44744.02
756.43	44819.80
756.61	44692.82
756.80	44385.63
756.98	44340.57
757.17	44146.01
757.35	44653.91
757.54	44379.48
757.72	44426.59
757.90	44234.08
758.09	44162.40
758.27	44184.93
758.46	44043.62
758.64	44066.14
758.83	44412.25
759.01	44418.39
759.19	44012.90
759.38	44164.45
759.56	44244.32
759.75	43996.51
759.93	44219.74
760.12	44229.98
760.30	44029.28
760.48	44139.87
760.67	44019.04
760.85	43789.67
761.04	44238.17
761.22	44215.65
761.40	43937.12
761.59	43859.30
761.77	43572.58
761.96	43914.59
762.14	43732.32
762.32	43660.65
762.51	43636.07
762.69	43591.01
762.88	43459.94
763.06	43072.88
763.24	43369.83
763.43	43498.86
763.61	43349.35
763.80	43279.72
763.98	43570.54
764.16	43398.51
764.35	43136.37
764.53	42878.32
764.72	43050.35
764.90	42950.00
765.08	43189.61
765.27	43201.90
765.45	43003.25
765.63	42849.65
765.82	42816.88
766.00	43019.63
766.18	43074.93
766.37	42859.89
766.55	42694.00
766.74	42730.87
766.92	42790.26
767.10	42993.01
767.29	42980.72
767.47	42530.17
767.65	42935.66
767.84	42182.01
768.02	42607.99
768.20	42378.62
768.39	42519.93
768.57	42485.11
768.75	42323.32
768.94	42607.99
769.12	42446.20
769.30	41989.50
769.49	41956.74
769.67	42083.71
769.85	42173.82
770.04	42380.67
770.22	41940.35
770.40	41702.79
770.59	41827.71
770.77	41698.69
770.95	41751.94
771.14	41559.43
771.32	41325.96
771.50	41264.52
771.69	41301.39
771.87	41670.02
772.05	41635.20
772.24	41534.85
772.42	41454.98
772.60	41491.85
772.78	41444.74
772.97	41221.52
773.15	41555.33
773.33	41510.28
773.52	41100.68
773.70	40969.61
773.88	41461.13
774.07	40961.42
774.25	40975.76
774.43	41293.19
774.61	41209.23
774.80	41237.90
774.98	41631.11
775.16	41379.21
775.34	41547.14
775.53	41051.53
775.71	41489.80
775.89	41766.27
776.08	41581.96
776.26	41719.17
776.44	41344.39
776.62	41260.43
776.81	41033.10
776.99	41616.77
777.17	41291.15
777.35	41444.74
777.54	41776.51
777.72	41469.32
777.90	41481.61
778.08	41842.05
778.27	41393.54
778.45	41977.22
778.63	42071.42
778.81	40926.61
779.00	42016.13
779.18	41592.20
779.36	42216.83
779.54	41678.21
779.73	41569.67
779.91	41727.36
780.09	41659.78
780.27	41850.24
780.46	42081.66
780.64	41698.69
780.82	41792.90
781.00	42382.71
781.19	42376.57
781.37	42286.46
781.55	42077.57
781.73	42317.18
781.91	42016.13
782.10	42227.07
782.28	41969.02
782.46	41981.31
782.64	42253.69
782.82	41907.58
783.01	42304.89
783.19	42442.10
783.37	42292.60
783.55	42009.98
783.74	42417.53
783.92	42302.84
784.10	42607.99
784.28	42063.23
784.46	41747.84
784.64	42284.41
784.83	42450.30
785.01	42538.36
785.19	42526.07
785.37	42194.30
785.55	42370.43
785.74	41903.49
785.92	42194.30
786.10	42147.20
786.28	41821.57
786.46	41682.31
786.64	42175.87
786.83	42284.41
787.01	41774.47
787.19	41704.84
787.37	42020.22
787.55	41878.91
787.74	41592.20
787.92	41180.56
788.10	41917.82
788.28	41250.19
788.46	41352.58
788.64	41133.45
788.82	41610.63
789.01	41264.52
789.19	41661.83
789.37	41375.11
789.55	41481.61
789.73	41690.50
789.91	41092.49
790.09	41139.60
790.28	40789.39
790.46	40871.31
790.64	40994.19
790.82	40846.74
791.00	40727.95
791.18	40723.86
791.36	40596.88
791.55	40693.14
791.73	40310.17
791.91	40369.56
792.09	40293.79
792.27	39822.75
792.45	40379.80
792.63	39853.47
792.81	39951.77
793.00	39757.22
793.18	39796.13
793.36	39845.28
793.54	39435.69
793.72	39357.86
793.90	39474.60
794.08	39656.87
794.26	39456.17
794.44	39165.35
794.62	39226.79
794.81	39445.93
794.99	38905.26
795.17	39001.52
795.35	38909.36
795.53	39208.36
795.71	38905.26
795.89	38720.95
796.07	38722.99
796.25	38364.60
796.43	38266.30
796.61	38319.54
796.80	37907.90
796.98	38456.76
797.16	37391.81
797.34	38006.20
797.52	37967.29
797.70	38309.30
797.88	37778.88
798.06	37887.42
798.24	37895.61
798.42	37389.77
798.60	37199.30
798.78	37352.90
798.96	37361.09
799.14	37197.26
799.32	37324.23
799.51	36971.98
799.69	37211.59
799.87	36892.11
800.05	36562.39
800.23	36758.99
800.41	36697.55
800.59	36863.44
800.77	36355.54
800.95	36152.79
801.13	36281.81
801.31	35900.89
801.49	36130.26
801.67	36091.35
801.85	36312.53
802.03	35816.93
802.21	35657.18
802.39	35759.58
802.57	35575.27
802.75	35692.00
802.93	35423.72
803.11	35603.94
803.29	35304.93
803.47	35143.14
803.65	35460.58
803.83	35057.13
804.01	35141.10
804.19	34838.00
804.37	34858.48
804.55	34790.89
804.73	34655.73
804.91	34659.82
805.09	34563.57
805.27	34747.89
805.45	34508.27
805.63	34391.54
805.81	34719.21
805.99	34432.50
806.17	34565.62
806.35	34457.07
806.53	34123.26
806.71	34031.10
806.89	34065.91
807.07	33865.21
807.25	33789.44
807.43	33263.11
807.61	34055.67
807.79	33768.96
807.97	33584.64
808.15	33275.40
808.33	33179.14
808.51	33123.85
808.69	33205.77
808.87	33213.96
809.05	32957.96
809.23	32865.80
809.41	32867.85
809.59	32855.56
809.77	33031.69
809.95	32372.24
810.13	32798.22
810.31	32695.82
810.49	32362.00
810.67	32548.37
810.84	32400.91
811.02	32343.57
811.20	32161.30
811.38	32407.06
811.56	32015.90
811.74	31944.22
811.92	31827.48
812.10	32085.53
812.28	32067.09
812.46	31870.49
812.64	32175.64
812.82	31579.68
813.00	31809.05
813.18	31649.31
813.36	31594.01
813.53	31434.27
813.71	31309.35
813.89	31112.74
814.07	31424.03
814.25	31303.20
814.43	31149.60
814.61	30989.86
814.79	30973.48
814.97	31108.65
815.15	31057.45
815.33	30856.75
815.50	30455.34
815.68	31022.63
815.86	30735.92
816.04	30514.73
816.22	30707.24
816.40	30484.01
816.58	30668.33
816.76	30447.15
816.94	30377.52
817.11	30404.14
817.29	30166.58
817.47	30285.36
817.65	30348.85
817.83	29871.67
818.01	29879.86
818.19	29519.42
818.37	29998.65
818.54	30060.09
818.72	29343.30
818.90	29982.26
819.08	29828.66
819.26	29699.64
819.44	29486.65
819.62	29636.16
819.80	29611.58
819.97	29632.06
820.15	29640.25
820.33	29238.85
820.51	29525.57
820.69	29161.03
820.87	29232.71
821.05	29079.11
821.22	29204.03
821.40	29193.79
821.58	28886.60
821.76	29046.34
821.94	28907.08
822.12	28745.29
822.29	28884.55
822.47	28892.74
822.65	29126.21
822.83	28950.09
823.01	28878.41
823.19	28606.03
823.36	28485.20
823.54	28657.23
823.72	27776.60
823.90	28321.36
824.08	28337.74
824.25	27928.15
824.43	28309.07
824.61	28143.19
824.79	28106.32
824.97	27883.09
825.15	28063.32
825.32	28245.58
825.50	28087.89
825.68	28057.17
825.86	27985.49
826.04	27715.16
826.21	27850.33
826.39	27985.49
826.57	27766.36
826.75	27680.35
826.93	27522.65
827.10	27569.76
827.28	27965.01
827.46	27770.46
827.64	27571.80
827.81	27577.95
827.99	27434.59
828.17	27563.61
828.35	27047.52
828.53	27219.55
828.70	27078.24
828.88	27354.72
829.06	27262.56
829.24	27471.45
829.41	27045.48
829.59	27436.64
829.77	26961.51
829.95	26926.69
830.12	26775.14
830.30	27078.24
830.48	26986.08
830.66	26744.42
830.84	26930.79
831.01	26742.38
831.19	26887.78
831.37	26627.69
831.55	26392.17
831.72	26574.44
831.90	26525.29
832.08	26539.63
832.25	26594.92
832.43	26601.07
832.61	26429.04
832.79	26312.30
832.96	26453.61
833.14	26279.54
833.32	26363.50
833.50	26478.19
833.67	26459.76
833.85	26179.18
834.03	26089.07
834.20	26177.14
834.38	26355.31
834.56	26189.42
834.74	25779.83
834.91	25757.30
835.09	25857.65
835.27	25572.99
835.44	25581.18
835.62	25226.88
835.80	25634.42
835.98	25620.09
836.15	25859.70
836.33	25548.41
836.51	25656.95
836.68	25534.07
836.86	25302.65
837.04	25503.35
837.21	25464.44
837.39	25405.05
837.57	25675.38
837.75	25687.67
837.92	25261.69
838.10	25394.81
838.28	25024.13
838.45	24835.72
838.63	24923.78
838.81	25185.92
838.98	24886.92
839.16	24845.96
839.34	25015.94
839.51	24632.97
839.69	24696.46
839.87	24974.98
840.04	24876.68
840.22	25054.85
840.40	24577.67
840.57	24336.01
840.75	25120.38
840.93	24581.77
841.10	24622.73
841.28	24776.33
841.46	24571.53
841.63	24735.37
841.81	24645.26
841.98	24532.62
842.16	24819.33
842.34	24635.02
842.51	24200.85
842.69	24909.44
842.87	24430.22
843.04	24753.80
843.22	24276.62
843.40	23977.62
843.57	24350.35
843.75	24356.49
843.92	24342.16
844.10	24139.41
844.28	24327.82
844.45	24112.78
844.63	24174.22
844.81	24010.39
844.98	24241.81
845.16	24137.36
845.33	24276.62
845.51	24139.41
845.69	24012.43
845.86	23711.38
846.04	23998.10
846.21	23869.08
846.39	23643.80
846.57	23496.35
846.74	23819.92
846.92	23647.90
847.09	23729.81
847.27	23643.80
847.45	23697.05
847.62	23355.04
847.80	23910.04
847.97	23355.04
848.15	23682.71
848.32	23314.08
848.50	23344.80
848.68	23107.23
848.85	23574.17
849.03	22992.55
849.20	23514.78
849.38	23348.89
849.56	23469.72
849.73	23238.30
849.91	23129.76
850.08	23316.12
850.26	23078.56
850.43	23035.55
850.61	23064.22
850.78	22814.37
850.96	22947.49
851.14	22507.18
851.31	22910.63
851.49	22746.79
851.66	23148.19
851.84	22767.27
852.01	22871.72
852.19	22658.73
852.36	22861.48
852.54	22750.88
852.71	22613.67
852.89	22828.71
853.07	22693.54
853.24	22836.90
853.42	22591.14
853.59	22673.06
853.77	22578.86
853.94	22703.78
854.12	22718.12
854.29	22460.07
854.47	22466.22
854.64	22329.00
854.82	22415.02
854.99	22410.92
855.17	22531.75
855.34	22206.13
855.52	22437.55
855.69	22505.13
855.87	22556.33
856.04	22134.45
856.22	22050.48
856.39	22044.34
856.57	22122.16
856.74	22087.34
856.92	22097.58
857.09	22095.53
857.27	22091.44
857.44	21999.28
857.62	21599.93
857.79	21915.31
857.97	22331.05
858.14	22154.93
858.32	21722.80
858.49	21864.11
858.67	21747.38
858.84	21757.62
859.02	21974.70
859.19	21874.35
859.37	21499.58
859.54	21511.86
859.72	21649.08
859.89	21462.71
860.06	21630.65
860.24	21606.07
860.41	21626.55
860.59	21468.86
860.76	21831.35
860.94	21302.97
861.11	21362.36
861.29	21280.44
861.46	21348.03
861.64	21163.71
861.81	21384.89
861.98	21345.98
862.16	21190.33
862.33	21161.66
862.51	21221.05
862.68	21171.90
862.86	20995.78
863.03	21124.80
863.21	21067.45
863.38	21130.94
863.55	20942.53
863.73	20891.33
863.90	21087.93
864.08	20889.28
864.25	20639.43
864.43	20930.24
864.60	20647.62
864.77	20633.29
864.95	20995.78
865.12	20582.09
865.30	20784.83
865.47	20778.69
865.64	20803.27
865.82	20657.86
865.99	20827.84
866.17	20909.76
866.34	20635.33
866.51	20328.14
866.69	20913.86
866.86	20735.68
867.04	20479.69
867.21	20227.79
867.38	20217.55
867.56	20141.77
867.73	20289.23
867.91	20113.10
868.08	20272.84
868.25	20481.74
868.43	20197.07
868.60	20016.85
868.78	19916.50
868.95	20371.15
869.12	20162.25
869.30	20016.85
869.47	20139.72
869.64	19820.24
869.82	19963.60
869.99	19742.42
870.16	19871.44
870.34	19793.62
870.51	20186.83
870.69	19791.57
870.86	19689.17
871.03	19801.81
871.21	19660.50
871.38	19865.30
871.55	19607.25
871.73	19486.42
871.90	19482.33
872.07	19642.07
872.25	19472.09
872.42	19580.63
872.59	19449.56
872.77	19230.43
872.94	19168.99
873.11	19177.18
873.29	19304.15
873.46	19140.32
873.63	19166.94
873.81	19386.07
873.98	18841.31
874.15	18947.81
874.33	18808.54
874.50	18783.97
874.67	18994.91
874.85	18978.53
875.02	18738.91
875.19	18779.87
875.37	18757.35
875.54	18523.88
875.71	18757.35
875.88	18507.49
876.06	18378.47
876.23	18765.54
876.40	18464.49
876.58	18396.90
876.75	18507.49
876.92	18409.19
877.10	18736.87
877.27	18192.11
877.44	18364.14
877.61	18333.42
877.79	18386.66
877.96	18220.78
878.13	18388.71
878.31	18163.43
878.48	18259.69
878.65	18071.28
878.82	18251.50
879.00	18198.25
879.17	17917.68
879.34	18300.65
879.51	17819.38
879.69	17727.22
879.86	17893.10
880.03	17915.63
880.21	17716.98
880.38	17835.76
880.55	17854.19
880.72	17635.06
880.90	17833.71
881.07	17663.73
881.24	17690.35
881.41	17770.22
881.59	17635.06
881.76	17458.93
881.93	17430.26
882.10	17524.47
882.28	17291.00
882.45	17706.74
882.62	17608.44
882.79	17673.97
882.96	17188.60
883.14	17491.70
883.31	17422.07
883.48	17571.57
883.65	17207.03
883.83	17598.20
884.00	17364.73
884.17	17463.03
884.34	17295.10
884.51	17204.99
884.69	17352.44
884.86	17192.70
885.03	17284.86
885.20	16781.06
885.38	17272.57
885.55	17184.51
885.72	17057.53
885.89	16953.09
886.06	16842.50
886.24	16897.79
886.41	16758.53
886.58	16951.04
886.75	16922.37
886.92	16701.19
887.10	17123.07
887.27	16951.04
887.44	16748.29
887.61	17020.67
887.78	16877.31
887.95	16926.46
888.13	16805.63
888.30	16752.38
888.47	16627.46
888.64	16719.62
888.81	16465.67
888.99	16733.95
889.16	16451.33
889.33	16183.05
889.50	16441.09
889.67	16269.06
889.84	16723.71
890.01	16404.23
890.19	16092.94
890.36	16582.40
890.53	16443.14
890.70	16244.49
890.87	16260.87
891.04	16258.82
891.22	16385.80
891.39	16002.83
891.56	16217.86
891.73	16084.75
891.90	16006.92
892.07	15976.20
892.24	16094.99
892.42	15970.06
892.59	16125.71
892.76	15875.85
892.93	15988.49
893.10	16090.89
893.27	16006.92
893.44	15908.62
893.61	16021.26
893.79	16031.50
893.96	15894.29
894.13	16037.64
894.30	15998.73
894.47	15752.98
894.64	15785.74
894.81	15750.93
894.98	15877.90
895.15	15716.11
895.33	15685.39
895.50	15634.19
895.67	15838.99
895.84	15879.95
896.01	15804.17
896.18	15494.93
896.35	15994.64
896.52	15654.67
896.69	15501.08
896.86	15685.39
897.04	15968.01
897.21	15716.11
897.38	15523.60
897.55	15783.70
897.72	15666.96
897.89	15515.41
898.06	15505.17
898.23	15582.99
898.40	15798.03
898.57	15822.61
898.74	15453.97
898.91	15648.53
899.08	15564.56
899.26	15621.91
899.43	15843.09
899.60	15435.54
899.77	15560.47
899.94	15519.51
900.11	15505.17
900.28	15587.09
900.45	15585.04
900.62	15552.27
900.79	16015.12
900.96	15552.27
901.13	15707.92
901.30	15453.97
901.47	15359.77
901.64	15580.95
901.81	15650.58
901.98	15462.16
902.15	15761.17
902.32	15585.04
902.49	15462.16
902.66	15576.85
902.83	15757.07
903.01	15472.40
903.18	15306.52
903.35	15435.54
903.52	15675.15
903.69	15466.26
903.86	15591.19
904.03	15413.01
904.20	15630.10
904.37	15599.38
904.54	15499.03
904.71	15585.04
904.88	15511.32
905.05	15386.39
905.22	15505.17
905.39	15187.74
905.56	15503.12
905.73	15322.90
905.90	15447.83
906.07	15533.84
906.24	15472.40
906.41	15269.66
906.58	15626.00
906.75	15634.19
906.92	15433.49
907.09	15507.22
907.26	15468.31
907.43	15273.75
907.60	15476.50
907.77	15564.56
907.93	15486.74
908.10	15505.17
908.27	15564.56
908.44	15429.40
908.61	15056.67
908.78	15386.39
908.95	15591.19
909.12	15415.06
909.29	15357.72
909.46	15355.67
909.63	15228.70
909.80	15318.81
909.97	15263.51
910.14	15138.58
910.31	15331.09
910.48	15183.64
910.65	15259.42
910.82	14993.18
910.99	14941.98
911.16	14950.17
911.33	15030.04
911.50	15017.75
911.66	15023.90
911.83	15243.03
912.00	14888.73
912.17	15032.09
912.34	15177.50
912.51	15105.82
912.68	14858.01
912.85	15001.37
913.02	14913.31
913.19	14903.07
913.36	14960.41
913.53	14898.97
913.70	14872.35
913.86	14892.83
914.03	14772.00
914.20	14663.46
914.37	14761.76
914.54	14774.05
914.71	14681.89
914.88	14622.50
915.05	14536.48
915.22	14569.25
915.39	14280.49
915.55	14513.95
915.72	14321.45
915.89	14204.71
916.06	14151.46
916.23	14333.73
916.40	14350.12
916.57	14282.53
916.74	14165.80
916.91	14171.94
917.07	13965.10
917.24	14294.82
917.41	13834.03
917.58	14223.14
917.75	13887.28
917.92	13813.55
918.09	14100.26
918.26	13930.28
918.42	13748.01
918.59	13856.56
918.76	13621.04
918.93	13682.48
919.10	13625.14
919.27	13625.14
919.44	13752.11
919.60	13735.73
919.77	13436.72
919.94	13494.07
920.11	13340.47
920.28	13516.59
920.45	13416.24
920.61	13240.12
920.78	13250.36
920.95	13272.89
921.12	13283.13
921.29	13303.60
921.46	13043.51
921.62	12828.48
921.79	13055.80
921.96	12910.40
922.13	12898.11
922.30	12771.13
922.47	12822.33
922.63	12863.29
922.80	12664.64
922.97	12781.37
923.14	12443.46
923.31	12519.23
923.47	12566.34
923.64	12808.00
923.81	12525.38
923.98	12476.23
924.15	12195.65
924.32	12382.02
924.48	12494.66
924.65	12443.46
924.82	12312.39
924.99	12177.22
925.15	12263.24
925.32	12142.41
925.49	12042.06
925.66	12150.60
925.83	11839.31
925.99	11843.40
926.16	12025.67
926.33	11917.13
926.50	11722.57
926.67	11884.36
926.83	11677.52
927.00	11652.94
927.17	11683.66
927.34	11609.93
927.50	11360.08
927.67	11501.39
927.84	11343.70
928.01	11437.91
928.17	11110.23
928.34	11222.87
928.51	11224.92
928.68	11169.62
928.84	11208.53
929.01	11132.76
929.18	10850.14
929.35	10856.28
929.51	11038.55
929.68	10774.36
929.85	10753.88
930.02	10739.55
930.18	10831.71
930.35	10661.73
930.52	10671.97
930.69	10645.34
930.85	10585.95
931.02	10434.40
931.19	10389.35
931.36	10485.60
931.52	10438.50
931.69	10467.17
931.86	10209.12
932.02	10235.75
932.19	10268.52
932.36	10137.45
932.53	10108.77
932.69	9932.65
932.86	10217.32
933.03	10147.69
933.19	9887.59
933.36	9930.60
933.53	9934.70
933.70	9740.14
933.86	9760.62
934.03	9725.80
934.20	9537.39
934.36	9584.49
934.53	9406.32
934.70	9250.67
934.86	9408.37
935.03	9090.93
935.20	9193.33
935.36	9148.28
935.53	9265.01
935.70	9097.08
935.86	8966.01
936.03	9031.54
936.20	8746.87
936.36	8828.79
936.53	8638.33
936.70	8634.24
936.86	8544.13
937.03	8433.54
937.20	8294.27
937.36	8347.52
937.53	8056.71
937.70	8032.13
937.86	7860.10
938.03	8062.85
938.20	7948.17
938.36	7589.77
938.53	7845.77
938.70	7544.72
938.86	7505.81
939.03	7427.98
939.20	7354.26
939.36	7337.87
939.53	7354.26
939.70	7307.15
939.86	7165.84
940.03	7096.21
940.19	6838.17
940.36	6856.60
940.53	6936.47
940.69	6674.33
940.86	6664.09
941.03	6492.06
941.19	6391.71
941.36	6598.56
941.52	6506.40
941.69	6332.32
941.86	6307.74
942.02	6238.11
942.19	6342.56
942.35	6121.38
942.52	6018.98
942.69	6029.22
942.85	5873.57
943.02	5945.25
943.18	5986.21
943.35	5787.56
943.52	5754.79
943.68	5693.35
943.85	5683.11
944.01	5742.50
944.18	5631.91
944.35	5711.78
944.51	5636.01
944.68	5521.32
944.84	5396.40
945.01	5447.60
945.17	5547.95
945.34	5550.00
945.51	5492.65
945.67	5451.69
945.84	5547.95
946.00	5441.45
946.17	5517.23
946.33	5316.53
946.50	5584.81
946.67	5359.53
946.83	5300.14
947.00	5459.88
947.16	5337.01
947.33	5425.07
947.49	5334.96
947.66	5257.14
947.82	5302.19
947.99	5238.70
948.16	5361.58
948.32	5367.73
948.49	5377.97
948.65	5367.73
948.82	5300.14
948.98	5191.60
949.15	5308.34
949.31	5343.15
949.48	5294.00
949.64	5357.49
949.81	5304.24
949.97	5275.57
950.14	5412.78
950.30	5167.03
950.47	5521.32
950.63	5283.76
950.80	5287.86
950.96	5304.24
951.13	5373.87
951.30	5136.31
951.46	5359.53
951.63	5474.22
951.79	5392.30
951.96	5322.67
952.12	5439.40
952.29	5402.54
952.45	5453.74
952.62	5433.26
952.78	5427.12
952.94	5468.08
953.11	5447.60
953.27	5386.16
953.44	5369.77
953.60	5306.29
953.77	5478.32
953.93	5363.63
954.10	5500.84
954.26	5373.87
954.43	5300.14
954.59	5699.50
954.76	5615.53
954.92	5246.90
955.09	5482.41
955.25	5443.50
955.42	5404.59
955.58	5439.40
955.75	5330.86
955.91	5388.21
956.07	5425.07
956.24	5531.56
956.40	5414.83
956.57	5527.47
956.73	5353.39
956.90	5470.12
957.06	5396.40
957.23	5353.39
957.39	5382.06
957.56	5545.90
957.72	5345.20
957.88	5257.14
958.05	5539.76
958.21	5529.52
958.38	5445.55
958.54	5324.72
958.71	5515.18
958.87	5441.45
959.03	5308.34
959.20	5443.50
959.36	5269.42
959.53	5341.10
959.69	5482.41
959.85	5515.18
960.02	5433.26
960.18	5449.64
960.35	5425.07
960.51	5402.54
960.68	5404.59
960.84	5400.49
961.00	5384.11
961.17	5377.97
961.33	5386.16
961.50	5406.64
961.66	5445.55
961.82	5463.98
961.99	5418.93
962.15	5337.01
962.31	5277.62
962.48	5412.78
962.64	5597.10
962.81	5263.28
962.97	5535.66
963.13	5537.71
963.30	5463.98
963.46	5232.56
963.62	5283.76
963.79	5283.76
963.95	5361.58
964.12	5334.96
964.28	5316.53
964.44	5316.53
964.61	5427.12
964.77	5312.43
964.93	5539.76
965.10	5359.53
965.26	5459.88
965.42	5302.19
965.59	5195.70
965.75	5240.75
965.92	5353.39
966.08	5302.19
966.24	5232.56
966.41	5226.42
966.57	5304.24
966.73	5052.34
966.90	5269.42
967.06	5230.51
967.22	5242.80
967.39	5320.62
967.55	5169.07
967.71	5193.65
967.88	5326.77
968.04	5046.20
968.20	5130.16
968.37	5248.94
968.53	5083.06
968.69	5220.27
968.85	5228.46
969.02	5228.46
969.18	5124.02
969.34	5099.44
969.51	5070.77
969.67	5248.94
969.83	5064.63
970.00	5230.51
970.16	5035.96
970.32	5261.23
970.48	5212.08
970.65	4968.37
970.81	4964.28
970.97	5013.43
971.14	4951.99
971.30	5044.15
971.46	4949.94
971.63	4949.94
971.79	4925.36
971.95	4997.04
972.11	4968.37
972.28	4775.86
972.44	5064.63
972.60	4980.66
972.76	4976.56
972.93	4816.82
973.09	4941.75
973.25	4941.75
973.42	4863.93
973.58	4896.69
973.74	4923.32
973.90	4829.11
974.07	4810.68
974.23	4794.29
974.39	4775.86
974.55	4767.67
974.72	4851.64
974.88	4599.74
975.04	4896.69
975.20	4741.05
975.37	4771.77
975.53	4794.29
975.69	4792.25
975.85	4747.19
976.01	4689.85
976.18	4749.24
976.34	4861.88
976.50	4630.46
976.66	4661.18
976.83	4659.13
976.99	4587.45
977.15	4636.60
977.31	4530.11
977.47	4827.06
977.64	4622.27
977.80	4646.84
977.96	4579.26
978.12	4566.97
978.29	4624.31
978.45	4442.04
978.61	4620.22
978.77	4636.60
978.93	4444.09
979.10	4601.79
979.26	4476.86
979.42	4489.15
979.58	4333.50
979.74	4489.15
979.91	4495.29
980.07	4396.99
980.23	4444.09
980.39	4415.42
980.55	4407.23
980.71	4274.11
980.88	4452.28
981.04	4374.46
981.20	4409.28
981.36	4358.08
981.52	4403.13
981.68	4321.21
981.85	4356.03
982.01	4294.59
982.17	4317.12
982.33	4171.71
982.49	4417.47
982.65	4368.32
982.82	4341.69
982.98	4286.40
983.14	4263.87
983.30	4315.07
983.46	4327.36
983.62	4233.15
983.79	4167.62
983.95	4149.18
984.11	4059.07
984.27	4122.56
984.43	4192.19
984.59	4173.76
984.75	4177.86
984.91	4069.31
985.08	4212.67
985.24	4085.70
985.40	4046.79
985.56	4204.48
985.72	4147.14
985.88	4095.94
986.04	4071.36
986.20	3923.91
986.37	4116.42
986.53	4001.73
986.69	4073.41
986.85	3960.77
987.01	3928.00
987.17	4069.31
987.33	3960.77
987.49	3964.87
987.65	4059.07
987.82	3813.32
987.98	3829.70
988.14	3983.30
988.30	3903.43
988.46	3891.14
988.62	3848.13
988.78	3762.12
988.94	3858.37
989.10	3821.51
989.26	3829.70
989.42	3930.05
989.59	3778.50
989.75	3776.45
989.91	3815.37
990.07	3620.81
990.23	3749.83
990.39	3600.33
990.55	3841.99
990.71	3649.48
990.87	3680.20
991.03	3854.28
991.19	3743.69
991.35	3721.16
991.51	3778.50
991.67	3899.33
991.83	3764.17
992.00	3729.35
992.16	3817.41
992.32	3659.72
992.48	3616.71
992.64	3682.25
992.80	3696.58
992.96	3649.48
993.12	3719.11
993.28	3657.67
993.44	3684.30
993.60	3688.39
993.76	3567.56
993.92	3635.14
994.08	3547.08
994.24	3600.33
994.40	3520.46
994.56	3618.76
994.72	3454.92
994.88	3459.02
995.04	3467.21
995.20	3395.53
995.36	3401.68
995.52	3649.48
995.68	3434.44
995.84	3434.44
996.00	3532.75
996.16	3424.20
996.32	3463.12
996.48	3483.59
996.64	3516.36
996.80	3450.83
996.96	3411.92
997.12	3397.58
997.28	3375.05
997.44	3403.72
997.60	3297.23
997.76	3243.98
997.92	3375.05
998.08	3356.62
998.24	3262.41
998.40	3305.42
998.56	3383.24
998.72	3164.11
998.88	3270.61
999.04	3330.00
999.20	3321.81
999.36	3291.09
999.52	3319.76
999.68	3336.14
999.84	3393.48
1000.00	3180.50
1000.16	3311.57
1000.32	3198.93
1000.48	3350.48
1000.64	3164.11
1000.80	3055.57
1000.95	2957.27
1001.11	3198.93
1001.27	3125.20
1001.43	3268.56
1001.59	3155.92
1001.75	3217.36
1001.91	3166.16
1002.07	3076.05
1002.23	3192.78
1002.39	3260.37
1002.55	3203.02
1002.71	3110.86
1002.87	3051.47
1003.03	3090.38
1003.19	3063.76
1003.34	3076.05
1003.50	3104.72
1003.66	3127.25
1003.82	3067.86
1003.98	3121.10
1004.14	3065.81
1004.30	2969.55
1004.46	3018.71
1004.62	3012.56
1004.78	3008.47
1004.94	3063.76
1005.09	3133.39
1005.25	3043.28
1005.41	3006.42
1005.57	2961.36
1005.73	2969.55
1005.89	2936.79
1006.05	3020.75
1006.21	3004.37
1006.37	2899.92
1006.52	2920.40
1006.68	2818.00
1006.84	3078.10
1007.00	2928.60
1007.16	2967.51
1007.32	2891.73
1007.48	2783.19
1007.64	2899.92
1007.79	2879.44
1007.95	2801.62
1008.11	2920.40
1008.27	2809.81
1008.43	2834.39
1008.59	2865.11
1008.75	2867.16
1008.91	2815.96
1009.06	2840.53
1009.22	2785.24
1009.38	2883.54
1009.54	2781.14
1009.70	2664.41
1009.86	2738.13
1010.01	2793.43
1010.17	2740.18
1010.33	2779.09
1010.49	2719.70
1010.65	2842.58
1010.81	2660.31
1010.96	2688.98
1011.12	2617.30
1011.28	2641.88
1011.44	2744.28
1011.60	2723.80
1011.76	2695.13
1011.91	2725.85
1012.07	2594.78
1012.23	2514.91
1012.39	2580.44
1012.55	2725.85
1012.71	2705.37
1012.86	2648.02
1013.02	2688.98
1013.18	2533.34
1013.34	2621.40
1013.50	2656.22
1013.65	2574.30
1013.81	2643.93
1013.97	2607.06
1014.13	2613.21
1014.29	2623.45
1014.44	2662.36
1014.60	2574.30
1014.76	2508.76
1014.92	2486.23
1015.07	2465.75
1015.23	2613.21
1015.39	2545.63
1015.55	2426.84
1015.71	2445.27
1015.86	2490.33
1016.02	2422.75
1016.18	2346.97
1016.34	2430.94
1016.49	2504.67
1016.65	2570.20
1016.81	2418.65
1016.97	2402.27
1017.12	2527.19
1017.28	2406.36
1017.44	2326.49
1017.60	2441.18
1017.75	2383.84
1017.91	2492.38
1018.07	2410.46
1018.23	2451.42
1018.38	2379.74
1018.54	2344.92
1018.70	2443.23
1018.86	2420.70
1019.01	2394.08
1019.17	2357.21
1019.33	2508.76
1019.49	2269.15
1019.64	2373.60
1019.80	2379.74
1019.96	2338.78
1020.12	2418.65
1020.27	2244.57
1020.43	2258.91
1020.59	2273.25
1020.74	2342.88
1020.90	2351.07
1021.06	2275.29
1021.22	2303.96
1021.37	2258.91
1021.53	2256.86
1021.69	2353.12
1021.84	2121.70
1022.00	2254.81
1022.16	2203.61
1022.31	2166.75
1022.47	2234.33
1022.63	2240.48
1022.79	2199.52
1022.94	2099.17
1023.10	2346.97
1023.26	2131.94
1023.41	2185.18
1023.57	2090.98
1023.73	2205.66
1023.88	2226.14
1024.04	2041.82
1024.20	2056.16
1024.35	2138.08
1024.51	2205.66
1024.67	2146.27
1024.82	2197.47
1024.98	2086.88
1025.14	2172.89
1025.29	1978.34
1025.45	2101.22
1025.61	2070.50
1025.76	2123.74
1025.92	2072.54
1026.08	2101.22
1026.23	2158.56
1026.39	2164.70
1026.55	2072.54
1026.70	2009.06
1026.86	2115.55
1027.02	2189.28
1027.17	2052.06
1027.33	2015.20
1027.48	1984.48
1027.64	1964.00
1027.80	2035.68
1027.95	1949.67
1028.11	1908.71
1028.27	1947.62
1028.42	2054.11
1028.58	1996.77
1028.73	1910.75
1028.89	1931.23
1029.05	2062.30
1029.20	1994.72
>>>>>End Processed Spectral Data<<<<<
