SpectraSuite Data File
++++++++++++++++++++++++++++++++++++
Date: Fri Jun 02 14:57:20 CEST 2017
User: INFO_000
Dark Spectrum Present: No
Reference Spectrum Present: No
Number of Sampled Component Spectra: 1
Spectrometers: USB4H00879
Integration Time (usec): 80000 (USB4H00879)
Spectra Averaged: 1 (USB4H00879)
Boxcar Smoothing: 0 (USB4H00879)
Correct for Electrical Dark: No (USB4H00879)
Strobe/Lamp Enabled: No (USB4H00879)
Correct for Detector Non-linearity: No (USB4H00879)
Correct for Stray Light: No (USB4H00879)
Number of Pixels in Processed Spectrum: 3648
>>>>>Begin Processed Spectral Data<<<<<
345.13	1304.56
345.34	1304.56
345.56	1304.56
345.78	1286.12
345.99	1286.12
346.21	1712.10
346.42	1710.05
346.64	1630.18
346.86	1843.17
347.07	1716.20
347.29	1728.49
347.50	1568.74
347.72	1695.72
347.94	1693.67
348.15	1593.32
348.37	1554.41
348.59	1671.14
348.80	1605.61
349.02	1800.16
349.23	1839.08
349.45	1853.41
349.67	1877.99
349.88	1806.31
350.10	1998.82
350.31	1904.61
350.53	1796.07
350.75	1978.34
350.96	1812.45
351.18	1865.70
351.39	1945.57
351.61	1812.45
351.82	1802.21
352.04	1847.27
352.26	1871.84
352.47	1873.89
352.69	1863.65
352.90	1779.68
353.12	1912.80
353.34	1855.46
353.55	1931.23
353.77	1894.37
353.98	1845.22
354.20	1851.36
354.41	1959.91
354.63	1882.08
354.85	2019.30
355.06	1925.09
355.28	1796.07
355.49	1888.23
355.71	1775.59
355.92	1855.46
356.14	1933.28
356.35	1847.27
356.57	1847.27
356.79	1920.99
357.00	1900.52
357.22	1957.86
357.43	1892.32
357.65	2007.01
357.86	1902.56
358.08	1937.38
358.29	1920.99
358.51	1941.47
358.72	2004.96
358.94	1961.95
359.16	1929.19
359.37	2025.44
359.59	1896.42
359.80	2105.31
360.02	1996.77
360.23	2021.35
360.45	1982.43
360.66	1902.56
360.88	1863.65
361.09	1964.00
361.31	1920.99
361.52	1916.90
361.74	2025.44
361.95	2082.78
362.17	1900.52
362.38	2054.11
362.60	2050.02
362.81	2031.58
363.03	1929.19
363.24	2027.49
363.46	2119.65
363.67	2025.44
363.89	2009.06
364.10	2035.68
364.32	1970.15
364.53	2056.16
364.75	1935.33
364.96	2076.64
365.18	2093.02
365.39	2068.45
365.61	2050.02
365.82	2088.93
366.04	2017.25
366.25	1957.86
366.47	1982.43
366.68	2078.69
366.90	1992.67
367.11	2062.30
367.33	2060.26
367.54	2068.45
367.76	2060.26
367.97	2136.03
368.19	2068.45
368.40	2080.74
368.62	2000.87
368.83	2015.20
369.05	2023.39
369.26	2000.87
369.48	2000.87
369.69	1906.66
369.91	2131.94
370.12	1935.33
370.33	2174.94
370.55	2056.16
370.76	2035.68
370.98	2101.22
371.19	2084.83
371.41	2019.30
371.62	2037.73
371.84	2025.44
372.05	2150.37
372.27	2090.98
372.48	2017.25
372.69	2084.83
372.91	2023.39
373.12	2164.70
373.34	2103.26
373.55	2140.13
373.77	2187.23
373.98	2050.02
374.20	2107.36
374.41	2283.49
374.62	2146.27
374.84	2291.68
375.05	2244.57
375.27	2131.94
375.48	2211.81
375.70	2140.13
375.91	2244.57
376.12	2230.24
376.34	2168.80
376.55	2176.99
376.77	2222.05
376.98	2176.99
377.19	2189.28
377.41	2109.41
377.62	2209.76
377.84	2383.84
378.05	2361.31
378.27	2209.76
378.48	2297.82
378.69	2420.70
378.91	2322.40
379.12	2314.20
379.34	2263.01
379.55	2416.60
379.76	2281.44
379.98	2160.61
380.19	2207.71
380.41	2213.85
380.62	2338.78
380.83	2277.34
381.05	2222.05
381.26	2369.50
381.47	2269.15
381.69	2246.62
381.90	2373.60
382.12	2326.49
382.33	2318.30
382.54	2256.86
382.76	2346.97
382.97	2338.78
383.19	2185.18
383.40	2367.45
383.61	2308.06
383.83	2220.00
384.04	2334.68
384.25	2461.66
384.47	2385.88
384.68	2344.92
384.89	2291.68
385.11	2353.12
385.32	2340.83
385.54	2404.32
385.75	2277.34
385.96	2424.80
386.18	2410.46
386.39	2453.47
386.60	2324.44
386.82	2326.49
387.03	2396.12
387.24	2430.94
387.46	2461.66
387.67	2445.27
387.88	2504.67
388.10	2484.19
388.31	2553.82
388.52	2650.07
388.74	2508.76
388.95	2480.09
389.16	2539.48
389.38	2443.23
389.59	2568.15
389.80	2727.89
390.02	2586.58
390.23	2662.36
390.44	2596.82
390.66	2602.97
390.87	2549.72
391.08	2547.67
391.30	2654.17
391.51	2641.88
391.72	2672.60
391.94	2680.79
392.15	2590.68
392.36	2650.07
392.58	2527.19
392.79	2639.83
393.00	2695.13
393.22	2736.09
393.43	2723.80
393.64	2842.58
393.85	2656.22
394.07	2617.30
394.28	2701.27
394.49	2822.10
394.71	2760.66
394.92	2793.43
395.13	2701.27
395.35	2648.02
395.56	2660.31
395.77	2781.14
395.98	2885.59
396.20	2867.16
396.41	2867.16
396.62	2924.50
396.84	2768.85
397.05	2777.05
397.26	2932.69
397.47	2914.26
397.69	2828.24
397.90	2934.74
398.11	2885.59
398.32	2916.31
398.54	2809.81
398.75	2854.87
398.96	2959.31
399.18	3055.57
399.39	2957.27
399.60	3123.15
399.81	2920.40
400.03	3026.90
400.24	3198.93
400.45	2963.41
400.66	3035.09
400.88	2981.84
401.09	3213.26
401.30	3071.95
401.51	3065.81
401.73	3200.98
401.94	3123.15
402.15	3090.38
402.36	3151.82
402.58	3143.63
402.79	3358.67
403.00	3151.82
403.21	3250.13
403.43	3178.45
403.64	3250.13
403.85	3174.35
404.06	3268.56
404.27	3131.34
404.49	3151.82
404.70	3151.82
404.91	3348.43
405.12	3327.95
405.34	3174.35
405.55	3444.68
405.76	3166.16
405.97	3270.61
406.19	3332.05
406.40	3303.37
406.61	3432.40
406.82	3368.91
407.03	3229.65
407.25	3342.28
407.46	3461.07
407.67	3346.38
407.88	3590.09
408.09	3254.22
408.31	3327.95
408.52	3364.81
408.73	3397.58
408.94	3346.38
409.15	3370.96
409.37	3467.21
409.58	3561.42
409.79	3350.48
410.00	3583.95
410.21	3530.70
410.43	3440.59
410.64	3362.76
410.85	3575.75
411.06	3497.93
411.27	3553.23
411.48	3735.50
411.70	3600.33
411.91	3645.38
412.12	3674.06
412.33	3610.57
412.54	3719.11
412.76	3735.50
412.97	3694.54
413.18	3577.80
413.39	3663.82
413.60	3672.01
413.81	3780.55
414.03	3655.62
414.24	3551.18
414.45	3846.09
414.66	3585.99
414.87	3704.78
415.08	3631.05
415.30	3755.97
415.51	3823.56
415.72	3803.08
415.93	3755.97
416.14	3835.85
416.35	3852.23
416.56	3813.32
416.78	3780.55
416.99	3846.09
417.20	3768.26
417.41	3952.58
417.62	3878.85
417.83	3971.01
418.04	3874.76
418.26	3971.01
418.47	3901.38
418.68	3999.68
418.89	3915.72
419.10	4151.23
419.31	4065.22
419.52	4059.07
419.73	3983.30
419.95	4040.64
420.16	4014.02
420.37	4130.75
420.58	4128.70
420.79	3968.96
421.00	4091.84
421.21	4175.81
421.42	4083.65
421.63	4138.94
421.85	4046.79
422.06	4186.05
422.27	4274.11
422.48	4263.87
422.69	4337.60
422.90	4231.10
423.11	4220.86
423.32	4110.27
423.53	4413.37
423.75	4433.85
423.96	4280.25
424.17	4440.00
424.38	4532.15
424.59	4493.24
424.80	4564.92
425.01	4507.58
425.22	4509.63
425.43	4304.83
425.64	4599.74
425.85	4636.60
426.06	4511.68
426.28	4497.34
426.49	4423.61
426.70	4542.39
426.91	4779.96
427.12	4550.59
427.33	4618.17
427.54	4655.03
427.75	4790.20
427.96	4734.90
428.17	4757.43
428.38	4743.10
428.59	4814.77
428.80	4683.70
429.01	4829.11
429.23	4917.17
429.44	5060.53
429.65	4915.12
429.86	5021.62
430.07	4786.10
430.28	4808.63
430.49	4960.18
430.70	5134.26
430.91	5103.54
431.12	5013.43
431.33	5128.11
431.54	5162.93
431.75	5107.63
431.96	5148.59
432.17	5203.89
432.38	5193.65
432.59	5429.17
432.80	5265.33
433.01	5322.67
433.22	5367.73
433.43	5240.75
433.64	5128.11
433.85	5097.39
434.06	5330.86
434.27	5332.91
434.49	5332.91
434.70	5416.88
434.91	5425.07
435.12	5361.58
435.33	5406.64
435.54	5509.04
435.75	5347.25
435.96	5480.36
436.17	5441.45
436.38	5617.58
436.59	5537.71
436.80	5455.79
437.01	5887.91
437.22	5801.90
437.43	5660.59
437.64	5445.55
437.85	5656.49
438.06	5773.22
438.27	5597.10
438.48	5599.15
438.69	5836.71
438.90	5668.78
439.11	5552.04
439.32	5867.43
439.53	5808.04
439.74	5867.43
439.95	5851.05
440.16	5980.07
440.37	5910.44
440.57	5726.12
440.78	5869.48
440.99	5973.92
441.20	5963.68
441.41	5922.73
441.62	6035.36
441.83	5810.09
442.04	6066.08
442.25	5943.21
442.46	5883.81
442.67	6184.87
442.88	6383.52
443.09	5967.78
443.30	6121.38
443.51	6047.65
443.72	6344.61
443.93	6182.82
444.14	6285.22
444.35	6117.28
444.56	6213.54
444.77	6186.91
444.98	6322.08
445.19	6303.65
445.40	6285.22
445.61	6287.26
445.81	6463.39
446.02	6463.39
446.23	6180.77
446.44	6135.71
446.65	6477.73
446.86	6330.27
447.07	6528.92
447.28	6635.42
447.49	6512.54
447.70	6381.47
447.91	6621.08
448.12	6578.08
448.33	6651.80
448.54	6610.84
448.74	6598.56
448.95	6772.63
449.16	6653.85
449.37	6850.46
449.58	6625.18
449.79	6983.57
450.00	6686.62
450.21	6866.84
450.42	6875.03
450.63	6981.53
450.84	7010.20
451.05	6954.90
451.25	6983.57
451.46	6981.53
451.67	7258.00
451.88	7223.19
452.09	7116.69
452.30	7192.47
452.51	7016.34
452.72	7241.62
452.93	7489.42
453.13	7143.32
453.34	7137.17
453.55	7401.36
453.76	7206.80
453.97	7450.51
454.18	7333.78
454.39	7438.22
454.60	7481.23
454.81	7520.14
455.01	7749.51
455.22	7229.33
455.43	7565.20
455.64	7806.86
455.85	7669.64
456.06	7751.56
456.27	7724.94
456.48	7833.48
456.68	7829.38
456.89	7915.40
457.10	8034.18
457.31	7952.26
457.52	8019.85
457.73	7921.54
457.94	8148.87
458.14	8142.72
458.35	8482.69
458.56	8173.44
458.77	8079.24
458.98	8351.62
459.19	8286.08
459.39	8433.54
459.60	8454.02
459.81	8492.93
460.02	8359.81
460.23	8263.55
460.44	8873.85
460.65	8687.48
460.85	8746.87
461.06	8847.22
461.27	8464.25
461.48	8855.42
461.69	8994.68
461.89	8537.98
462.10	8945.53
462.31	8812.41
462.52	8910.71
462.73	9074.55
462.94	9256.82
463.14	9183.09
463.35	9162.61
463.56	9555.82
463.77	9459.57
463.98	9260.91
464.18	9422.70
464.39	9686.89
464.60	9705.32
464.81	9592.69
465.02	9529.20
465.23	9918.31
465.43	9678.70
465.64	9680.75
465.85	9838.44
466.06	9805.67
466.27	10039.14
466.47	9834.35
466.68	10186.60
466.89	10108.77
467.10	10227.56
467.30	10004.33
467.51	10143.59
467.72	10497.89
467.93	10121.06
468.14	10432.35
468.34	10712.92
468.55	10493.79
468.76	10622.81
468.97	10555.23
469.17	10882.91
469.38	10710.88
469.59	10995.54
469.80	10743.64
470.01	10864.47
470.21	11116.37
470.42	11122.52
470.63	11183.96
470.84	11161.43
471.04	11421.52
471.25	11349.84
471.46	11226.96
471.67	11624.27
471.87	11442.00
472.08	11566.93
472.29	11884.36
472.50	11628.37
472.70	11677.52
472.91	12017.48
473.12	12214.09
473.33	11999.05
473.53	12341.06
473.74	12255.04
473.95	12461.89
474.16	12570.43
474.36	12650.30
474.57	12562.24
474.78	12726.08
474.99	12521.28
475.19	12431.17
475.40	12971.83
475.61	13205.30
475.81	13186.87
476.02	13291.32
476.23	13256.50
476.44	13236.02
476.64	13664.05
476.85	13578.03
477.06	13602.61
477.27	13733.68
477.47	13778.73
477.68	13770.54
477.89	14300.97
478.09	13920.04
478.30	14016.30
478.51	14208.81
478.71	14313.25
478.92	14530.34
479.13	14530.34
479.34	14769.95
479.54	14731.04
479.75	14602.02
479.96	14710.56
480.16	14810.91
480.37	15025.95
480.58	15034.14
480.78	15296.28
480.99	15458.07
481.20	15482.64
481.41	15443.73
481.61	15580.95
481.82	15910.67
482.03	15529.75
482.23	15955.72
482.44	15879.95
482.65	16256.78
482.85	16072.46
483.06	16152.33
483.27	16209.67
483.47	16262.92
483.68	16252.68
483.89	16541.44
484.09	16459.52
484.30	16500.48
484.51	16600.83
484.71	16977.66
484.92	16852.73
485.13	17055.48
485.33	17237.75
485.54	17104.64
485.75	17329.91
485.95	17364.73
486.16	17448.69
486.37	17596.15
486.57	17508.08
486.78	17813.23
486.98	17759.98
487.19	18075.37
487.40	17995.50
487.60	17938.16
487.81	18220.78
488.02	18190.06
488.22	18327.27
488.43	18530.02
488.64	18507.49
488.84	18427.62
489.05	18845.41
489.25	18714.34
489.46	18890.46
489.67	18761.44
489.87	19207.90
490.08	19168.99
490.29	19259.10
490.49	19185.37
490.70	19576.53
490.90	19685.08
491.11	19281.63
491.32	19633.88
491.52	19476.18
491.73	19826.39
491.94	19771.09
492.14	19678.93
492.35	19908.30
492.55	20090.57
492.76	20156.11
492.97	20414.15
493.17	20127.44
493.38	20350.67
493.58	20547.27
493.79	20594.37
494.00	20784.83
494.20	20608.71
494.41	20772.55
494.61	20864.71
494.82	20860.61
495.02	20823.75
495.23	21139.13
495.44	21405.37
495.64	21290.68
495.85	21409.47
496.05	21378.75
496.26	21470.90
496.47	21720.76
496.67	21403.32
496.88	21702.32
497.08	21720.76
497.29	22216.36
497.49	21751.48
497.70	22148.78
497.91	22070.96
498.11	22073.01
498.32	22062.77
498.52	22455.98
498.73	22363.82
498.93	22355.63
499.14	22787.75
499.34	22421.16
499.55	22730.41
499.76	22564.52
499.96	22797.99
500.17	22914.72
500.37	22697.64
500.58	22826.66
500.78	23021.22
500.99	23170.72
501.19	23320.22
501.40	23238.30
501.60	23168.67
501.81	23459.48
502.02	23277.21
502.22	23330.46
502.43	23439.00
502.63	23731.86
502.84	23856.79
503.04	23660.18
503.25	23576.22
503.45	23838.36
503.66	23848.60
503.86	23891.60
504.07	24006.29
504.27	24118.93
504.48	24333.96
504.68	24333.96
504.89	24229.52
505.09	24397.45
505.30	24278.67
505.50	24647.30
505.71	24426.12
505.91	24610.44
506.12	24397.45
506.32	24671.88
506.53	24714.89
506.73	25138.82
506.94	24901.25
507.14	25003.65
507.35	25138.82
507.55	25040.51
507.76	25251.45
507.96	24866.44
508.17	25245.31
508.37	25304.70
508.58	25179.78
508.78	25171.58
508.99	25577.08
509.19	25304.70
509.40	25646.71
509.60	25570.94
509.81	25798.26
510.01	25589.37
510.22	25642.62
510.42	25906.80
510.63	26070.64
510.83	26048.11
511.04	26261.10
511.24	26066.55
511.44	25749.11
511.65	26119.79
511.85	26134.13
512.06	26125.94
512.26	26367.60
512.47	26580.59
512.67	26781.29
512.88	26582.63
513.08	25910.90
513.29	26584.68
513.49	26359.41
513.69	26543.72
513.90	26754.66
514.10	27025.00
514.31	26898.02
514.51	26834.53
514.72	26922.60
514.92	26748.52
515.13	27031.14
515.33	27004.52
515.53	27223.65
515.74	27008.61
515.94	27350.62
516.15	27326.05
516.35	27201.12
516.56	27512.41
516.76	27131.49
516.96	27483.74
517.17	27598.43
517.37	27428.45
517.58	27430.49
517.78	27506.27
517.99	28067.41
518.19	27901.53
518.39	27938.39
518.60	28145.23
518.80	28204.63
519.01	28567.12
519.21	28337.74
519.41	28415.57
519.62	28294.74
519.82	28395.09
520.03	28720.71
520.23	28667.47
520.43	28331.60
520.64	28747.34
520.84	28819.02
521.05	28663.37
521.25	29345.34
521.45	28892.74
521.66	29214.27
521.86	29306.43
522.07	29410.88
522.27	29126.21
522.47	29156.93
522.68	29892.15
522.88	29492.80
523.08	29597.24
523.29	29828.66
523.49	29797.95
523.70	30176.82
523.90	29937.21
524.10	30303.79
524.31	30338.61
524.51	30199.35
524.71	30508.59
524.92	30025.27
525.12	30348.85
525.33	30686.76
525.53	30572.08
525.73	31049.25
525.94	30973.48
526.14	31112.74
526.34	31116.84
526.55	31370.79
526.75	31354.40
526.95	31419.94
527.16	31520.29
527.36	31647.26
527.56	31551.01
527.77	31622.69
527.97	31782.43
528.17	31850.01
528.38	31567.39
528.58	31833.63
528.78	32183.83
528.99	32077.33
529.19	32325.14
529.39	32300.56
529.60	32810.51
529.80	32505.36
530.00	32480.78
530.21	33179.14
530.41	32841.23
530.61	32974.34
530.82	33089.03
531.02	33019.40
531.22	33201.67
531.43	33142.28
531.63	33252.87
531.83	33701.37
532.04	34072.06
532.24	33443.33
532.44	34031.10
532.64	34086.39
532.85	34309.62
533.05	34084.34
533.25	34375.16
533.46	34250.23
533.66	34616.82
533.86	34678.25
534.07	35014.12
534.27	34704.88
534.47	35272.17
534.67	34909.68
534.88	34807.28
535.08	35169.77
535.28	35491.30
535.49	35231.21
535.69	35624.42
535.89	35708.38
536.09	35364.32
536.30	35835.36
536.50	36105.69
536.70	36126.17
536.91	36072.92
537.11	36427.22
537.31	36187.61
537.51	36373.97
537.72	36924.88
537.92	36591.06
538.12	37088.71
538.32	36820.43
538.53	37176.78
538.73	37103.05
538.93	36937.16
539.13	37086.67
539.34	37004.75
539.54	37101.00
539.74	37320.13
539.94	37416.39
540.15	36875.73
540.35	37414.34
540.55	37643.71
540.75	37696.96
540.96	38012.35
541.16	37782.98
541.36	37995.96
541.56	37942.72
541.77	38430.13
541.97	38292.92
542.17	38309.30
542.37	38356.41
542.58	38696.37
542.78	38745.52
542.98	38659.51
543.18	38583.73
543.38	38892.97
543.59	39105.96
543.79	38983.09
543.99	39114.16
544.19	39245.23
544.40	39286.18
544.60	39364.01
544.80	39265.70
545.00	39359.91
545.20	39570.85
545.41	39298.47
545.61	39650.72
545.81	39679.39
546.01	39632.29
546.21	39591.33
546.42	39826.85
546.62	39931.29
546.82	39656.87
547.02	40277.40
547.22	40039.84
547.43	40025.50
547.63	40338.84
547.83	40308.12
548.03	40154.52
548.23	40312.22
548.44	40478.10
548.64	40306.07
548.84	40510.87
549.04	40680.85
549.24	40965.52
549.45	41139.60
549.65	40263.07
549.85	40828.30
550.05	40986.00
550.25	40981.90
550.45	41461.13
550.66	41035.15
550.86	41024.91
551.06	41541.00
551.26	41557.38
551.46	41506.18
551.66	41121.16
551.87	41321.87
552.07	41295.24
552.27	41608.58
552.47	41426.31
552.67	41702.79
552.87	41756.03
553.07	41790.85
553.28	41735.56
553.48	42300.79
553.68	41676.16
553.88	42397.05
554.08	41567.62
554.28	42012.03
554.48	42118.53
554.69	41983.36
554.89	41991.55
555.09	42358.14
555.29	41891.20
555.49	42122.62
555.69	42397.05
555.89	42186.11
556.10	42182.01
556.30	42282.36
556.50	42257.79
556.70	42407.29
556.90	42630.52
557.10	43085.17
557.30	42687.86
557.50	43130.22
557.70	42999.15
557.91	42835.31
558.11	42847.60
558.31	43079.02
558.51	43152.75
558.71	43003.25
558.91	43615.59
559.11	42530.17
559.31	43013.49
559.51	43054.45
559.72	43087.21
559.92	43335.02
560.12	42745.20
560.32	43218.28
560.52	43109.74
560.72	43224.43
560.92	43578.73
561.12	42855.79
561.32	43820.39
561.52	43033.97
561.72	43689.32
561.93	43251.05
562.13	43679.08
562.33	43550.06
562.53	44002.66
562.73	43562.34
562.93	43556.20
563.13	43720.04
563.33	43263.34
563.53	43971.94
563.73	43410.79
563.93	43582.82
564.13	43877.73
564.33	43414.89
564.53	43468.14
564.74	44457.31
564.94	43849.06
565.14	43885.92
565.34	43609.45
565.54	43763.04
565.74	44066.14
565.94	44238.17
566.14	43939.17
566.34	43951.46
566.54	43775.33
566.74	43939.17
566.94	44217.69
567.14	44189.02
567.34	44012.90
567.54	44363.10
567.74	44068.19
567.94	44244.32
568.14	44475.74
568.34	44451.16
568.54	44422.49
568.74	44170.59
568.94	44580.18
569.14	44961.11
569.34	44387.67
569.54	44680.53
569.75	44412.25
569.95	44453.21
570.15	44744.02
570.35	44520.79
570.55	44504.41
570.75	45102.42
570.95	44647.77
571.15	44797.27
571.35	44576.09
571.55	45030.74
571.75	44979.54
571.95	44686.68
572.15	45153.62
572.35	45040.98
572.55	45176.14
572.75	44684.63
572.95	45024.59
573.15	45014.35
573.35	45028.69
573.55	44911.95
573.75	45086.03
573.95	45122.90
574.15	45210.96
574.35	45376.84
574.55	44877.14
574.75	45442.38
574.95	45575.50
575.15	45032.78
575.34	45335.88
575.54	45360.46
575.74	45419.85
575.94	45813.06
576.14	45684.04
576.34	45436.23
576.54	45929.80
576.74	45839.68
576.94	45491.53
577.14	45757.77
577.34	45899.08
577.54	45757.77
577.74	46310.72
577.94	45870.40
578.14	45995.33
578.34	46382.40
578.54	45544.78
578.74	46009.67
578.94	46458.17
579.14	46535.99
579.34	46101.82
579.54	46216.51
579.74	46396.73
579.94	46394.68
580.13	46525.75
580.33	46265.66
580.53	46400.83
580.73	46677.30
580.93	46433.60
581.13	46337.34
581.33	47220.02
581.53	46761.27
581.73	46456.12
581.93	46681.40
582.13	46660.92
582.33	47177.01
582.53	46718.26
582.73	46703.93
582.92	47168.82
583.12	47113.52
583.32	46656.82
583.52	46892.34
583.72	47217.97
583.92	47099.19
584.12	46888.24
584.32	47467.82
584.52	47588.65
584.72	47408.43
584.92	47621.42
585.11	48227.62
585.31	47166.77
585.51	47480.11
585.71	47576.36
585.91	47873.32
586.11	47363.37
586.31	47412.52
586.51	47971.62
586.71	47512.88
586.91	47854.89
587.10	48000.29
587.30	47547.69
587.50	47723.82
587.70	48067.87
587.90	48205.09
588.10	48047.39
588.30	47828.26
588.50	48342.30
588.69	48024.87
588.89	47981.86
589.09	48092.45
589.29	48198.94
589.49	48557.34
589.69	48184.61
589.89	48485.66
590.08	48262.43
590.28	48391.45
590.48	48262.43
590.68	48473.37
590.88	48313.63
591.08	48698.65
591.28	48518.43
591.47	48659.74
591.67	48839.96
591.87	48549.15
592.07	48925.97
592.27	48704.79
592.47	48811.29
592.67	48977.17
592.86	48788.76
593.06	48559.39
593.26	49259.79
593.46	48844.05
593.66	48985.36
593.86	49204.50
594.05	49409.29
594.25	49700.11
594.45	49263.89
594.65	48901.40
594.85	48956.69
595.05	49671.43
595.24	49595.66
595.44	49552.65
595.64	49128.72
595.84	49480.97
596.04	49630.47
596.23	49624.33
596.43	49882.37
596.63	49644.81
596.83	49855.75
597.03	50345.22
597.22	50208.00
597.42	49667.34
597.62	49673.48
597.82	49984.77
598.02	50081.03
598.21	50435.33
598.41	50078.98
598.61	50046.21
598.81	50312.45
599.01	50353.41
599.20	50324.74
599.40	50246.91
599.60	50306.30
599.80	50363.65
600.00	50767.10
600.19	50961.65
600.39	50160.90
600.59	50713.85
600.79	50558.20
600.98	50674.94
601.18	50912.50
601.38	51131.64
601.58	51070.20
601.78	50990.33
601.97	50986.23
602.17	51377.39
602.37	50902.26
602.57	50717.95
602.76	51600.62
602.96	51096.82
603.16	51561.71
603.36	51602.67
603.55	52186.34
603.75	51397.87
603.95	51518.70
604.15	51520.75
604.34	51606.76
604.54	51404.02
604.74	51741.93
604.94	51879.14
605.13	51711.21
605.33	51748.07
605.53	52331.75
605.73	52344.03
605.92	52114.66
606.12	52038.89
606.32	52212.96
606.52	52098.28
606.71	52145.38
606.91	52577.50
607.11	52047.08
607.30	52262.11
607.50	52401.38
607.70	52753.63
607.90	52528.35
608.09	52606.17
608.29	52686.04
608.49	52708.57
608.68	52731.10
608.88	52907.22
609.08	52606.17
609.28	53200.08
609.47	52880.60
609.67	53132.50
609.87	53126.36
610.06	53005.53
610.26	53017.82
610.46	53273.81
610.66	52872.41
610.85	53607.63
611.05	52780.25
611.25	53372.11
611.44	52929.75
611.64	53224.66
611.84	52802.78
612.03	53085.40
612.23	53458.13
612.43	53699.79
612.62	53314.77
612.82	53707.98
613.02	53621.97
613.21	53435.60
613.41	53300.43
613.61	53259.48
613.80	53138.65
614.00	53279.96
614.20	53646.54
614.39	53718.22
614.59	54084.81
614.79	53474.51
614.98	53980.36
615.18	53611.73
615.38	53806.28
615.57	53146.84
615.77	53974.22
615.97	53781.71
616.16	53671.12
616.36	53660.88
616.56	53662.93
616.75	53470.42
616.95	53247.19
617.15	53781.71
617.34	53511.38
617.54	53816.52
617.74	54525.12
617.93	53941.45
618.13	53691.60
618.32	53769.42
618.52	53664.97
618.72	54222.02
618.91	54074.57
619.11	53689.55
619.31	53941.45
619.50	53857.48
619.70	54131.91
619.90	54324.42
620.09	54238.40
620.29	54080.71
620.48	54113.48
620.68	54680.77
620.88	53994.70
621.07	54000.84
621.27	54138.05
621.46	53445.84
621.66	54113.48
621.86	54217.92
622.05	53955.78
622.25	54619.33
622.44	54111.43
622.64	53822.67
622.84	54170.82
623.03	54074.57
623.23	54449.35
623.42	54076.61
623.62	53886.15
623.82	54713.53
624.01	54295.75
624.21	54588.61
624.40	54207.68
624.60	53941.45
624.80	54072.52
624.99	54482.11
625.19	53880.01
625.38	54459.58
625.58	54500.54
625.77	54516.93
625.97	54203.59
626.17	54246.60
626.36	54375.62
626.56	54441.15
626.75	53925.07
626.95	54893.75
627.14	54473.92
627.34	54547.65
627.54	54209.73
627.73	54117.57
627.93	54377.67
628.12	54236.36
628.32	54404.29
628.51	54447.30
628.71	54561.98
628.90	54324.42
629.10	54576.32
629.30	54463.68
629.49	54219.97
629.69	54385.86
629.88	55033.02
630.08	55014.58
630.27	54848.70
630.47	54895.80
630.66	54727.87
630.86	55141.56
631.05	54252.74
631.25	55071.93
631.44	55043.26
631.64	54875.32
631.84	54924.47
632.03	55008.44
632.23	54504.64
632.42	55338.16
632.62	54959.29
632.81	54844.60
633.01	54891.71
633.20	54906.04
633.40	54838.46
633.59	55133.37
633.79	54623.42
633.98	55190.71
634.18	55196.85
634.37	55342.26
634.57	55073.98
634.76	55219.38
634.96	55526.58
635.15	55448.75
635.35	55186.61
635.54	55059.64
635.74	55336.12
635.93	54910.14
636.13	55399.60
636.32	55809.20
636.52	55086.26
636.71	55647.41
636.91	55497.91
637.10	55809.20
637.30	55659.69
637.49	55706.80
637.69	55145.65
637.88	55700.65
638.08	55370.93
638.27	55866.54
638.46	55776.43
638.66	55397.55
638.85	55641.26
639.05	55688.37
639.24	55809.20
639.44	55166.13
639.63	55794.86
639.83	55979.18
640.02	55497.91
640.22	55667.89
640.41	55823.53
640.61	55522.48
640.80	55809.20
640.99	55884.97
641.19	56300.71
641.38	55964.84
641.58	55833.77
641.77	55878.83
641.97	55571.63
642.16	56110.25
642.36	56313.00
642.55	56505.51
642.74	55776.43
642.94	56687.78
643.13	56018.09
643.33	56218.79
643.52	55876.78
643.72	56231.08
643.91	55915.69
644.10	56089.77
644.30	56425.64
644.49	56265.89
644.69	56646.82
644.88	56206.50
645.08	55958.70
645.27	56388.77
645.46	55927.98
645.66	56601.76
645.85	56267.94
646.05	56439.97
646.24	56358.05
646.43	56452.26
646.63	56816.80
646.82	56886.43
647.02	56390.82
647.21	56818.84
647.40	56865.95
647.60	57105.56
647.79	56743.07
647.99	56925.34
648.18	56517.79
648.37	57265.30
648.57	56831.13
648.76	56444.07
648.96	56695.97
649.15	56747.17
649.34	57117.85
649.54	56988.83
649.73	56382.63
649.92	57068.70
650.12	56738.97
650.31	56982.68
650.51	56818.84
650.70	57142.42
650.89	57123.99
651.09	57351.32
651.28	57283.73
651.47	56898.72
651.67	57103.51
651.86	57433.24
652.06	56890.52
652.25	57078.94
652.44	57195.67
652.64	56980.63
652.83	56906.91
653.02	56685.73
653.22	56868.00
653.41	56646.82
653.60	57087.13
653.80	57218.20
653.99	57642.13
654.18	56972.44
654.38	56908.96
654.57	57414.80
654.76	57099.42
654.96	57111.70
655.15	57255.06
655.34	57138.33
655.54	57021.59
655.73	57379.99
655.92	57279.64
656.12	57236.63
656.31	57060.51
656.50	57388.18
656.70	56984.73
656.89	57261.21
657.08	57400.47
657.28	57242.77
657.47	57169.05
657.66	57238.68
657.86	57029.79
658.05	57318.55
658.24	57238.68
658.43	57214.10
658.63	57277.59
658.82	57734.29
659.01	57466.00
659.21	57431.19
659.40	57650.32
659.59	57074.84
659.79	57777.29
659.98	57578.64
660.17	57541.78
660.36	57232.53
660.56	57496.72
660.75	57296.02
660.94	57466.00
661.14	57392.28
661.33	57420.95
661.52	57195.67
661.71	57662.61
661.91	57623.70
662.10	57101.46
662.29	57730.19
662.49	57261.21
662.68	57814.16
662.87	57578.64
663.06	57418.90
663.26	57889.93
663.45	57488.53
663.64	57674.90
663.83	58119.31
664.03	57791.63
664.22	57308.31
664.41	57472.15
664.60	57218.20
664.80	57523.35
664.99	57433.24
665.18	57363.60
665.37	57767.05
665.57	57601.17
665.76	57396.37
665.95	57640.08
666.14	57181.34
666.34	57816.21
666.53	57423.00
666.72	57511.06
666.91	57214.10
667.11	57150.62
667.30	57554.07
667.49	57410.71
667.68	57158.81
667.87	57830.54
668.07	57109.66
668.26	57365.65
668.45	57023.64
668.64	57056.41
668.84	57816.21
669.03	57201.82
669.22	57609.36
669.41	57130.14
669.60	57838.73
669.80	57468.05
669.99	57875.60
670.18	57308.31
670.37	57629.84
670.57	57701.52
670.76	57379.99
670.95	57578.64
671.14	57027.74
671.33	57638.03
671.53	57754.77
671.72	57439.38
671.91	57384.08
672.10	57138.33
672.29	57246.87
672.48	57279.64
672.68	57687.18
672.87	56767.65
673.06	57021.59
673.25	57029.79
673.44	57109.66
673.64	56970.39
673.83	56890.52
674.02	57105.56
674.21	56583.33
674.40	57281.69
674.59	56616.10
674.79	57244.82
674.98	57261.21
675.17	57255.06
675.36	57091.22
675.55	56980.63
675.74	56415.40
675.94	57310.36
676.13	56896.67
676.32	57201.82
676.51	56900.76
676.70	57113.75
676.89	56702.11
677.08	57169.05
677.28	56616.10
677.47	56718.49
677.66	56814.75
677.85	56900.76
678.04	56837.28
678.23	56943.77
678.42	56466.59
678.62	56499.36
678.81	57054.36
679.00	56521.89
679.19	56997.02
679.38	57046.17
679.57	56695.97
679.76	56655.01
679.96	56960.15
680.15	56585.38
680.34	56616.10
680.53	56448.16
680.72	56554.66
680.91	56722.59
681.10	56796.32
681.29	56515.75
681.48	56546.47
681.68	56286.37
681.87	56048.81
682.06	56464.55
682.25	55991.47
682.44	55610.54
682.63	56382.63
682.82	55628.98
683.01	55985.32
683.20	55403.70
683.39	56061.10
683.59	56018.09
683.78	56177.83
683.97	55880.88
684.16	56147.11
684.35	56173.73
684.54	56216.74
684.73	55727.28
684.92	55915.69
685.11	55792.81
685.30	55727.28
685.49	56155.30
685.69	55817.39
685.88	56163.50
686.07	55506.10
686.26	55411.89
686.45	56087.72
686.64	55979.18
686.83	55479.47
687.02	55891.12
687.21	55848.11
687.40	55346.36
687.59	55487.67
687.78	55250.10
687.97	55647.41
688.16	55694.51
688.35	55340.21
688.54	55450.80
688.74	55121.08
688.93	55737.52
689.12	55424.18
689.31	54990.01
689.50	55649.45
689.69	55555.25
689.88	54645.95
690.07	55362.74
690.26	55233.72
690.45	55397.55
690.64	55297.20
690.83	54906.04
691.02	54547.65
691.21	55215.29
691.40	54957.24
691.59	54973.63
691.78	54559.94
691.97	54901.95
692.16	54891.71
692.35	54951.10
692.54	54797.50
692.73	54580.42
692.92	54705.34
693.11	55043.26
693.30	54432.96
693.49	54660.29
693.68	54246.60
693.87	54379.71
694.06	54131.91
694.25	54179.01
694.44	54480.06
694.63	54469.82
694.82	54451.39
695.01	54543.55
695.20	54150.34
695.39	54269.12
695.58	54602.94
695.77	54047.94
695.96	54068.42
696.15	54162.63
696.34	54076.61
696.53	54553.79
696.72	53900.49
696.91	53863.63
697.10	53785.80
697.29	53916.87
697.48	54416.58
697.67	53474.51
697.86	53957.83
698.05	53937.35
698.24	53740.75
698.43	53372.11
698.62	53740.75
698.81	53523.66
699.00	53916.87
699.19	53875.91
699.38	53507.28
699.57	53093.59
699.76	53720.27
699.95	53540.05
700.14	53204.18
700.32	52966.62
700.51	53335.25
700.70	53798.09
700.89	53425.36
701.08	53494.99
701.27	53306.58
701.46	53757.13
701.65	53032.15
701.84	53058.77
702.03	53220.56
702.22	53007.58
702.41	52901.08
702.60	52778.20
702.79	52520.16
702.98	52651.23
703.17	52614.37
703.35	52880.60
703.54	52798.68
703.73	52917.46
703.92	52688.09
704.11	53124.31
704.30	52542.69
704.49	52411.62
704.68	52567.26
704.87	52364.51
705.06	52405.47
705.25	52172.00
705.43	52458.72
705.62	52552.93
705.81	52378.85
706.00	52184.29
706.19	51848.42
706.38	51967.21
706.57	52638.94
706.76	51641.58
706.95	52077.80
707.14	51801.32
707.32	52049.13
707.51	51703.02
707.70	52210.92
707.89	51936.49
708.08	51737.83
708.27	51856.62
708.46	52147.43
708.65	51346.67
708.84	52186.34
709.02	51999.97
709.21	52002.02
709.40	51680.49
709.59	51485.93
709.78	51178.74
709.97	51922.15
710.16	51492.08
710.34	51725.55
710.53	51664.11
710.72	51193.07
710.91	51623.15
711.10	51453.17
711.29	51600.62
711.48	51422.45
711.66	51494.13
711.85	51422.45
712.04	51451.12
712.23	50787.58
712.42	50889.98
712.61	50765.05
712.80	51037.43
712.98	51250.42
713.17	50672.89
713.36	51320.05
713.55	50683.13
713.74	51303.67
713.93	50509.05
714.11	51283.19
714.30	50990.33
714.49	50672.89
714.68	50949.37
714.87	50357.50
715.06	51043.57
715.24	50773.24
715.43	50849.02
715.62	50255.11
715.81	50603.26
716.00	50812.15
716.18	50062.60
716.37	50283.78
716.56	50349.31
716.75	50754.81
716.94	49896.71
717.12	50164.99
717.31	50521.34
717.50	49890.57
717.69	49988.87
717.88	50062.60
718.06	49763.59
718.25	50420.99
718.44	49378.57
718.63	49704.20
718.82	49644.81
719.00	49861.90
719.19	49851.66
719.38	49843.46
719.57	49683.72
719.76	49227.02
719.94	48956.69
720.13	49675.53
720.32	49227.02
720.51	49179.92
720.69	49392.91
720.88	49181.97
721.07	49372.43
721.26	48755.99
721.44	48704.79
721.63	48999.70
721.82	48635.16
722.01	48755.99
722.20	49100.05
722.38	48244.00
722.57	48262.43
722.76	48594.20
722.95	48657.69
723.13	47949.09
723.32	48358.69
723.51	48407.84
723.70	48123.17
723.88	48301.34
724.07	48405.79
724.26	48121.12
724.44	47811.88
724.63	48444.70
724.82	48137.51
725.01	47871.27
725.19	48524.57
725.38	48096.55
725.57	48039.20
725.76	47938.85
725.94	47557.93
726.13	47492.40
726.32	47682.86
726.51	47578.41
726.69	47920.42
726.88	48133.41
727.07	47670.57
727.25	47785.25
727.44	47387.95
727.63	47576.36
727.82	47727.91
728.00	47367.47
728.19	47324.46
728.38	47791.40
728.56	47248.69
728.75	47594.79
728.94	47144.24
729.12	47291.69
729.31	47433.00
729.50	47271.21
729.69	47207.73
729.87	47566.12
730.06	47340.85
730.25	47703.34
730.43	48176.42
730.62	47207.73
730.81	47242.54
730.99	47797.54
731.18	47301.93
731.37	47080.75
731.55	47543.59
731.74	47502.64
731.93	47109.43
732.11	47629.61
732.30	47365.42
732.49	47289.65
732.67	47228.21
732.86	46863.67
733.05	47422.76
733.23	46857.52
733.42	47490.35
733.61	47263.02
733.79	47293.74
733.98	47484.20
734.17	47402.28
734.35	47584.55
734.54	47330.61
734.73	47318.32
734.91	46857.52
735.10	46982.45
735.29	47174.96
735.47	47107.38
735.66	47093.04
735.84	47035.70
736.03	46918.96
736.22	47107.38
736.40	46490.94
736.59	47144.24
736.78	46933.30
736.96	46400.83
737.15	46662.97
737.33	46601.53
737.52	46781.75
737.71	46765.37
737.89	46599.48
738.08	46556.47
738.27	46284.09
738.45	47228.21
738.64	46636.34
738.82	46554.43
739.01	46798.13
739.20	46646.58
739.38	46961.97
739.57	46601.53
739.75	46867.76
739.94	46810.42
740.13	46775.61
740.31	46011.71
740.50	46488.89
740.68	46239.04
740.87	46325.05
741.06	46771.51
741.24	46433.60
741.43	46165.31
741.61	46693.69
741.80	46302.53
741.99	45958.47
742.17	46073.15
742.36	46058.82
742.54	45890.88
742.73	46507.32
742.91	46318.91
743.10	46175.55
743.29	46230.85
743.47	46169.41
743.66	45989.19
743.84	46191.94
744.03	46372.16
744.21	45913.41
744.40	46286.14
744.59	45937.99
744.77	45552.97
744.96	45888.84
745.14	46187.84
745.33	46077.25
745.51	45915.46
745.70	45913.41
745.88	45927.75
746.07	45694.28
746.26	45471.05
746.44	45798.73
746.63	45802.82
746.81	45565.26
747.00	45503.82
747.18	45555.02
747.37	45765.96
747.55	45430.09
747.74	45798.73
747.92	45292.88
748.11	45321.55
748.29	45471.05
748.48	45491.53
748.66	44975.44
748.85	45274.45
749.03	45432.14
749.22	45368.65
749.41	45421.90
749.59	45397.32
749.78	45090.13
749.96	45024.59
750.15	45303.12
750.33	45186.38
750.52	45458.76
750.70	45694.28
750.89	44995.92
751.07	44914.00
751.26	45049.17
751.44	44580.18
751.63	44875.09
751.81	44692.82
752.00	44668.25
752.18	45016.40
752.37	44877.14
752.55	44610.90
752.74	45092.18
752.92	44930.39
753.10	44279.13
753.29	44709.21
753.47	44674.39
753.66	44219.74
753.84	44817.75
754.03	44526.94
754.21	44365.15
754.40	44666.20
754.58	44631.38
754.77	44485.98
754.95	44268.89
755.14	44170.59
755.32	44582.23
755.51	44143.97
755.69	44043.62
755.88	43867.49
756.06	43957.60
756.24	43804.00
756.43	44088.67
756.61	44143.97
756.80	43840.87
756.98	43595.11
757.17	43705.70
757.35	43795.81
757.54	44047.71
757.72	44131.68
757.90	43656.55
758.09	43691.37
758.27	43781.48
758.46	43726.18
758.64	43873.63
758.83	44029.28
759.01	43738.47
759.19	44029.28
759.38	43689.32
759.56	44133.73
759.75	43597.16
759.93	43685.22
760.12	43345.26
760.30	43607.40
760.48	43498.86
760.67	43277.68
760.85	43124.08
761.04	43537.77
761.22	43459.94
761.40	42954.10
761.59	43298.16
761.77	43396.46
761.96	43226.48
762.14	43269.48
762.32	42945.90
762.51	42863.99
762.69	43097.45
762.88	42913.14
763.06	42718.58
763.24	42554.74
763.43	42622.33
763.61	42913.14
763.80	42628.47
763.98	43115.89
764.16	42718.58
764.35	42794.36
764.53	42550.65
764.72	42444.15
764.90	42407.29
765.08	42601.85
765.27	42532.22
765.45	41993.60
765.63	42149.24
765.82	42552.69
766.00	42145.15
766.18	42046.85
766.37	42544.50
766.55	41956.74
766.74	42079.61
766.92	41891.20
767.10	42419.58
767.29	42247.55
767.47	42073.47
767.65	42362.23
767.84	41799.04
768.02	42200.44
768.20	41694.60
768.39	41702.79
768.57	42057.09
768.75	41977.22
768.94	42046.85
769.12	41956.74
769.30	41639.30
769.49	41909.63
769.67	41444.74
769.85	41207.18
770.04	41436.55
770.22	41147.79
770.40	41168.27
770.59	41285.00
770.77	41686.40
770.95	41532.81
771.14	41061.77
771.32	41268.62
771.50	41088.40
771.69	41411.98
771.87	41239.95
772.05	41084.30
772.24	40723.86
772.42	41350.54
772.60	41067.92
772.78	40949.14
772.97	40951.18
773.15	41256.33
773.33	40490.39
773.52	40613.27
773.70	40506.77
773.88	41018.77
774.07	40596.88
774.25	40498.58
774.43	40920.46
774.61	40842.64
774.80	41084.30
774.98	40703.38
775.16	40920.46
775.34	40942.99
775.53	41002.38
775.71	41209.23
775.89	40504.73
776.08	40744.34
776.26	41184.65
776.44	41201.04
776.62	40830.35
776.81	41108.88
776.99	41397.64
777.17	40949.14
777.35	40994.19
777.54	41139.60
777.72	40902.03
777.90	41020.81
778.08	41072.01
778.27	41305.48
778.45	41475.46
778.63	41213.32
778.81	41170.32
779.00	41536.90
779.18	41266.57
779.36	41786.75
779.54	41272.71
779.73	41399.69
779.91	41407.88
780.09	41862.53
780.27	41899.39
780.46	41674.12
780.64	41772.42
780.82	41661.83
781.00	41508.23
781.19	41725.32
781.37	41934.21
781.55	41696.64
781.73	42487.16
781.91	41465.22
782.10	41674.12
782.28	41645.44
782.46	42036.61
782.64	41975.17
782.82	41829.76
783.01	42120.57
783.19	42118.53
783.37	42175.87
783.55	41842.05
783.74	42462.58
783.92	41854.34
784.10	42423.67
784.28	42032.51
784.46	41676.16
784.64	41835.91
784.83	41778.56
785.01	42466.68
785.19	42253.69
785.37	42321.27
785.55	41975.17
785.74	41571.72
785.92	41436.55
786.10	41993.60
786.28	41907.58
786.46	41942.40
786.64	41665.92
786.83	42247.55
787.01	41932.16
787.19	41979.26
787.37	41813.38
787.55	41786.75
787.74	41493.89
787.92	41713.03
788.10	41452.94
788.28	41434.50
788.46	41432.46
788.64	41229.71
788.82	41530.76
789.01	41272.71
789.19	41485.70
789.37	41411.98
789.55	41475.46
789.73	40979.85
789.91	41192.84
790.09	41211.28
790.28	41096.59
790.46	40570.26
790.64	41006.48
790.82	40777.11
791.00	40942.99
791.18	40441.24
791.36	41033.10
791.55	40887.70
791.73	40600.98
791.91	40381.85
792.09	40551.83
792.27	40461.72
792.45	40332.70
792.63	40125.85
792.81	39988.64
793.00	40068.51
793.18	39736.74
793.36	39906.72
793.54	39570.85
793.72	39726.50
793.90	40031.65
794.08	39876.00
794.26	39460.26
794.44	39124.40
794.62	39071.15
794.81	39361.96
794.99	39433.64
795.17	39388.58
795.35	39101.87
795.53	39353.77
795.71	39253.42
795.89	38921.65
796.07	38606.26
796.25	38247.86
796.43	38485.43
796.61	38524.34
796.80	38167.99
796.98	38606.26
797.16	38215.10
797.34	38262.20
797.52	38268.34
797.70	38397.37
797.88	37752.26
798.06	37522.88
798.24	37805.50
798.42	37828.03
798.60	37959.10
798.78	37631.43
798.96	37488.07
799.14	37166.54
799.32	37629.38
799.51	37295.56
799.69	37737.92
799.87	37453.25
800.05	37193.16
800.23	37021.13
800.41	36699.60
800.59	36730.32
800.77	36335.06
800.95	36548.05
801.13	36865.49
801.31	36414.93
801.49	36804.05
801.67	36476.37
801.85	36302.29
802.03	36353.49
802.21	36156.89
802.39	35972.57
802.57	35886.56
802.75	35509.73
802.93	36068.83
803.11	35702.24
803.29	35630.56
803.47	35542.50
803.65	35857.88
803.83	35599.84
804.01	35632.61
804.19	35247.59
804.37	35425.76
804.55	35063.27
804.73	35229.16
804.91	35118.57
805.09	35227.11
805.27	34979.31
805.45	35227.11
805.63	35048.94
805.81	35079.66
805.99	34850.28
806.17	34846.19
806.35	34913.77
806.53	34473.46
806.71	34375.16
806.89	34674.16
807.07	34147.83
807.25	34502.13
807.43	34160.12
807.61	34575.86
807.79	34237.94
807.97	33920.51
808.15	33596.93
808.33	34174.45
808.51	33881.60
808.69	33883.64
808.87	33494.53
809.05	33703.42
809.23	33252.87
809.41	33512.96
809.59	33320.45
809.77	33414.66
809.95	33025.54
810.13	33345.03
810.31	33302.02
810.49	33138.18
810.67	33263.11
810.84	33277.44
811.02	32984.58
811.20	32529.94
811.38	33070.60
811.56	32501.26
811.74	32982.54
811.92	32591.37
812.10	32636.43
812.28	32695.82
812.46	32286.23
812.64	32822.80
812.82	32097.81
813.00	32564.75
813.18	32345.62
813.36	32194.07
813.53	32036.38
813.71	31839.77
813.89	31925.78
814.07	32032.28
814.25	31942.17
814.43	31530.53
814.61	31985.18
814.79	31720.99
814.97	31759.90
815.15	31847.96
815.33	31295.01
815.50	31270.43
815.68	31643.17
815.86	31372.83
816.04	31196.71
816.22	31378.98
816.40	31241.76
816.58	31041.06
816.76	30879.27
816.94	31088.17
817.11	30832.17
817.29	30918.18
817.47	30819.88
817.65	30512.69
817.83	30531.12
818.01	30352.94
818.19	30303.79
818.37	30955.05
818.54	30121.52
818.72	30332.47
818.90	30256.69
819.08	30387.76
819.26	30344.75
819.44	30070.33
819.62	30053.94
819.80	30359.09
819.97	30424.62
820.15	30004.79
820.33	29883.96
820.51	30240.31
820.69	29720.12
820.87	30199.35
821.05	29920.82
821.22	30088.76
821.40	30023.22
821.58	29814.33
821.76	29756.99
821.94	29666.88
822.12	29937.21
822.29	29742.65
822.47	29353.54
822.65	29787.71
822.83	29634.11
823.01	29681.21
823.19	29369.92
823.36	29042.24
823.54	28948.04
823.72	29109.83
823.90	28980.81
824.08	28665.42
824.25	29255.23
824.43	29304.38
824.61	28694.09
824.79	28829.26
824.97	28792.39
825.15	28991.05
825.32	28839.50
825.50	28421.71
825.68	28501.58
825.86	28823.11
826.04	28718.67
826.21	28243.54
826.39	28698.19
826.57	28667.47
826.75	28288.59
826.93	28149.33
827.10	28290.64
827.28	28704.33
827.46	28753.48
827.64	28329.55
827.81	28067.41
827.99	28257.87
828.17	28085.84
828.35	27704.92
828.53	27635.29
828.70	27833.94
828.88	27973.21
829.06	27946.58
829.24	28153.43
829.41	27694.68
829.59	28100.18
829.77	27457.12
829.95	27879.00
830.12	27614.81
830.30	27838.04
830.48	27332.19
830.66	27629.15
830.84	27735.64
831.01	27219.55
831.19	27229.79
831.37	27233.89
831.55	27500.12
831.72	27055.72
831.90	27385.44
832.08	27029.09
832.25	27168.35
832.43	27102.82
832.61	27164.26
832.79	27207.26
832.96	27033.19
833.14	26693.22
833.32	27426.40
833.50	27215.46
833.67	26820.20
833.85	27336.29
834.03	26551.91
834.20	26687.08
834.38	26709.61
834.56	26586.73
834.74	26437.23
834.91	26613.35
835.09	26687.08
835.27	26418.80
835.44	26633.83
835.62	26259.06
835.80	26160.75
835.98	26343.02
836.15	26361.45
836.33	26291.82
836.51	26467.95
836.68	26328.69
836.86	26103.41
837.04	26097.27
837.21	26216.05
837.39	26359.41
837.57	26246.77
837.75	25923.19
837.92	25888.37
838.10	25570.94
838.28	25792.12
838.45	25890.42
838.63	25867.89
838.81	25765.49
838.98	25794.17
839.16	25622.14
839.34	25523.83
839.51	25779.83
839.69	25235.07
839.87	25441.92
840.04	25417.34
840.22	25429.63
840.40	25296.51
840.57	25134.72
840.75	25607.80
840.93	25212.54
841.10	25484.92
841.28	25648.76
841.46	25292.41
841.63	25308.80
841.81	25306.75
841.98	25407.10
842.16	25118.34
842.34	24888.96
842.51	25046.66
842.69	25003.65
842.87	25169.54
843.04	25173.63
843.22	24741.51
843.40	24956.55
843.57	25214.59
843.75	24637.06
843.92	24753.80
844.10	24673.93
844.28	24925.83
844.45	24843.91
844.63	24983.17
844.81	24577.67
844.98	25024.13
845.16	24608.39
845.33	24667.78
845.51	24557.19
845.69	24460.94
845.86	24422.03
846.04	24565.39
846.21	24446.60
846.39	24460.94
846.57	24219.28
846.74	24272.53
846.92	23994.00
847.09	24118.93
847.27	23774.87
847.45	24084.11
847.62	24200.85
847.80	24051.34
847.97	24209.04
848.15	24045.20
848.32	23721.62
848.50	24063.63
848.68	23629.46
848.85	24004.24
849.03	23301.79
849.20	23957.14
849.38	23856.79
849.56	23637.66
849.73	23570.07
849.91	23787.16
850.08	23893.65
850.26	23545.50
850.43	23811.73
850.61	23133.86
850.78	23465.63
850.96	23381.66
851.14	23140.00
851.31	23658.14
851.49	23338.65
851.66	23613.08
851.84	23398.04
852.01	23316.12
852.19	23479.96
852.36	23076.51
852.54	22994.59
852.71	22935.20
852.89	23228.06
853.07	23156.38
853.24	22906.53
853.42	23117.47
853.59	22988.45
853.77	23152.29
853.94	23092.90
854.12	23318.17
854.29	22709.93
854.47	22685.35
854.64	22949.54
854.82	22603.43
854.99	22920.87
855.17	22797.99
855.34	22609.58
855.52	22638.25
855.69	22802.08
855.87	22482.60
856.04	22292.14
856.22	22517.42
856.39	22337.20
856.57	22312.62
856.74	22333.10
856.92	22218.41
857.09	22302.38
857.27	22187.69
857.44	22261.42
857.62	22404.78
857.79	22161.07
857.97	22343.34
858.14	22417.07
858.32	22429.35
858.49	22032.05
858.67	21921.46
858.84	22038.19
859.02	21948.08
859.19	22093.49
859.37	22032.05
859.54	21755.57
859.72	22136.49
859.89	21939.89
860.06	21763.76
860.24	21839.54
860.41	21923.51
860.59	21747.38
860.76	22023.86
860.94	21302.97
861.11	21642.93
861.29	21647.03
861.46	21700.28
861.64	21257.92
861.81	21288.64
861.98	21628.60
862.16	21159.61
862.33	20922.05
862.51	21214.91
862.68	21317.31
862.86	20926.14
863.03	21364.41
863.21	21141.18
863.38	21081.79
863.55	20903.62
863.73	21237.44
863.90	21143.23
864.08	20774.60
864.25	21040.83
864.43	21061.31
864.60	20907.71
864.77	20604.61
864.95	21073.60
865.12	20747.97
865.30	20956.86
865.47	20575.94
865.64	20692.68
865.82	20983.49
865.99	20825.79
866.17	20661.96
866.34	20733.64
866.51	20672.20
866.69	20653.76
866.86	20768.45
867.04	20543.17
867.21	20420.30
867.38	20354.76
867.56	20428.49
867.73	20123.34
867.91	20250.32
868.08	20176.59
868.25	20115.15
868.43	20127.44
868.60	19871.44
868.78	19959.50
868.95	20281.03
869.12	19799.76
869.30	19984.08
869.47	20123.34
869.64	19973.84
869.82	19984.08
869.99	19775.19
870.16	19779.28
870.34	19957.46
870.51	20076.24
870.69	19275.48
870.86	19934.93
871.03	19951.31
871.21	19605.20
871.38	19564.25
871.55	19683.03
871.73	19637.97
871.90	19424.98
872.07	19543.77
872.25	19238.62
872.42	19240.67
872.59	19042.01
872.77	19164.89
872.94	19353.30
873.11	19181.28
873.29	19177.18
873.46	19009.25
873.63	19216.09
873.81	18886.37
873.98	18966.24
874.15	18849.50
874.33	18912.99
874.50	18822.88
874.67	18734.82
874.85	18657.00
875.02	18773.73
875.19	18472.68
875.37	18458.34
875.54	18212.59
875.71	18573.03
875.88	18259.69
876.06	18605.80
876.23	18589.41
876.40	18405.10
876.58	18458.34
876.75	18452.20
876.92	18167.53
877.10	18341.61
877.27	18192.11
877.44	18183.91
877.61	18192.11
877.79	18065.13
877.96	18157.29
878.13	18196.20
878.31	18200.30
878.48	18065.13
878.65	17987.31
878.82	17934.06
879.00	17676.02
879.17	17757.94
879.34	17577.72
879.51	17452.79
879.69	17667.83
879.86	17473.27
880.03	17518.32
880.21	17534.71
880.38	17624.82
880.55	17737.46
880.72	17360.63
880.90	17485.56
881.07	17487.61
881.24	17231.61
881.41	17524.47
881.59	17415.93
881.76	17243.90
881.93	17219.32
882.10	17069.82
882.28	17274.62
882.45	17268.47
882.62	17215.23
882.79	17239.80
882.96	16895.74
883.14	17080.06
883.31	16951.04
883.48	17086.20
883.65	17061.63
883.83	17200.89
884.00	16983.80
884.17	17016.57
884.34	16977.66
884.51	16879.36
884.69	17227.51
884.86	16860.93
885.03	17051.39
885.20	16860.93
885.38	17106.68
885.55	16799.49
885.72	16682.75
885.89	16701.19
886.06	16875.26
886.24	16680.71
886.41	16871.17
886.58	16721.66
886.75	16619.27
886.92	16504.58
887.10	16637.70
887.27	16285.45
887.44	16496.39
887.61	16539.40
887.78	16746.24
887.95	16602.88
888.13	16434.95
888.30	16262.92
888.47	16187.14
888.64	16381.70
888.81	16477.96
888.99	16391.94
889.16	15920.91
889.33	16256.78
889.50	16019.21
889.67	16105.23
889.84	16011.02
890.01	15783.70
890.19	16094.99
890.36	16068.36
890.53	15953.68
890.70	15841.04
890.87	15974.16
891.04	15916.81
891.22	15925.00
891.39	15748.88
891.56	15666.96
891.73	15851.28
891.90	15814.41
892.07	15582.99
892.24	15820.56
892.42	15413.01
892.59	15626.00
892.76	15525.65
892.93	15437.59
893.10	15736.59
893.27	15585.04
893.44	15642.39
893.61	15468.31
893.79	15433.49
893.96	15372.05
894.13	15298.33
894.30	15449.88
894.47	15482.64
894.64	15466.26
894.81	15243.03
894.98	15386.39
895.15	15437.59
895.33	15322.90
895.50	15349.53
895.67	15322.90
895.84	15255.32
896.01	15234.84
896.18	15361.81
896.35	15486.74
896.52	15224.60
896.69	15370.01
896.86	15365.91
897.04	15376.15
897.21	14872.35
897.38	15421.20
897.55	15345.43
897.72	15107.87
897.89	15048.47
898.06	15277.85
898.23	15384.34
898.40	15310.61
898.57	15388.44
898.74	15433.49
898.91	15306.52
899.08	14960.41
899.26	15132.44
899.43	15243.03
899.60	15109.91
899.77	15085.34
899.94	15247.13
900.11	14989.08
900.28	15216.41
900.45	15068.95
900.62	15171.35
900.79	15234.84
900.96	14880.54
901.13	15073.05
901.30	15122.20
901.47	15044.38
901.64	15402.77
901.81	15240.98
901.98	14888.73
902.15	15238.94
902.32	15009.56
902.49	15136.54
902.66	15238.94
902.83	15148.82
903.01	15064.86
903.18	15142.68
903.35	15193.88
903.52	15036.19
903.69	15060.76
903.86	15132.44
904.03	15126.30
904.20	15337.24
904.37	15257.37
904.54	15103.77
904.71	15023.90
904.88	15128.35
905.05	14864.16
905.22	15109.91
905.39	14911.26
905.56	14921.50
905.73	14939.93
905.90	15101.72
906.07	14995.23
906.24	15081.24
906.41	14815.01
906.58	15032.09
906.75	14923.55
906.92	14819.10
907.09	14896.92
907.26	14958.36
907.43	14931.74
907.60	14890.78
907.77	15327.00
907.93	15042.33
908.10	14864.16
908.27	14726.94
908.44	14563.11
908.61	14776.09
908.78	14737.18
908.95	15130.39
909.12	14696.22
909.29	14667.55
909.46	14772.00
909.63	15075.10
909.80	14763.81
909.97	14964.51
910.14	14501.67
910.31	14714.66
910.48	14556.96
910.65	14845.73
910.82	14602.02
910.99	14786.33
911.16	14749.47
911.33	14638.88
911.50	14774.05
911.66	14520.10
911.83	14706.46
912.00	14460.71
912.17	14405.41
912.34	14516.00
912.51	14518.05
912.68	14372.64
912.85	14454.56
913.02	14593.83
913.19	14389.03
913.36	14352.16
913.53	14552.87
913.70	14294.82
913.86	14124.84
914.03	14221.10
914.20	14376.74
914.37	14251.81
914.54	14145.32
914.71	14182.18
914.88	14114.60
915.05	14063.40
915.22	13672.24
915.39	14085.93
915.55	13842.22
915.72	13815.60
915.89	14063.40
916.06	13666.10
916.23	13784.88
916.40	13741.87
916.57	13780.78
916.74	13524.79
916.91	13991.72
917.07	13383.48
917.24	13645.62
917.41	13731.63
917.58	13627.18
917.75	13557.55
917.92	13381.43
918.09	13479.73
918.26	13438.77
918.42	13371.19
918.59	13266.74
918.76	13332.28
918.93	13272.89
919.10	13049.66
919.27	13221.69
919.44	13438.77
919.60	13305.65
919.77	13121.34
919.94	13074.23
920.11	12992.31
920.28	13041.46
920.45	13090.62
920.61	12703.55
920.78	12652.35
920.95	12828.48
921.12	12738.37
921.29	12824.38
921.46	12754.75
921.62	12721.98
921.79	12801.85
921.96	12408.64
922.13	12418.88
922.30	12513.09
922.47	12365.64
922.63	12443.46
922.80	12504.90
922.97	12205.89
923.14	12455.75
923.31	12177.22
923.47	12257.09
923.64	12308.29
923.81	12029.77
923.98	12109.64
924.15	12035.91
924.32	11931.47
924.48	11839.31
924.65	11931.47
924.82	11841.36
924.99	11747.15
925.15	11595.60
925.32	11685.71
925.49	11331.41
925.66	11652.94
925.83	11538.26
925.99	11747.15
926.16	11749.20
926.33	11448.15
926.50	11300.69
926.67	11489.10
926.83	11409.23
927.00	11374.42
927.17	11294.55
927.34	11095.89
927.50	11054.94
927.67	11167.57
927.84	11114.33
928.01	11198.29
928.17	10966.87
928.34	11028.31
928.51	10999.64
928.68	10919.77
928.84	10764.12
929.01	10631.01
929.18	10729.31
929.35	10512.22
929.51	10551.14
929.68	10606.43
929.85	10426.21
930.02	10377.06
930.18	10436.45
930.35	10493.79
930.52	10413.92
930.69	10358.63
930.85	10352.48
931.02	10325.86
931.19	10106.73
931.36	10045.29
931.52	10078.05
931.69	10045.29
931.86	10035.05
932.02	10049.38
932.19	9957.22
932.36	10012.52
932.53	9863.02
932.69	9684.84
932.86	9647.98
933.03	9742.19
933.19	9453.42
933.36	9580.40
933.53	9453.42
933.70	9568.11
933.86	9492.34
934.03	9473.90
934.20	9273.20
934.36	9512.81
934.53	9121.65
934.70	9162.61
934.86	9179.00
935.03	9021.30
935.20	8771.45
935.36	9056.12
935.53	8750.97
935.70	8691.58
935.86	8933.24
936.03	8658.81
936.20	8501.12
936.36	8441.73
936.53	8599.42
936.70	8357.76
936.86	8441.73
937.03	8433.54
937.20	8003.46
937.36	8017.80
937.53	7933.83
937.70	7819.14
937.86	7833.48
938.03	7643.02
938.20	7843.72
938.36	7649.16
938.53	7620.49
938.70	7292.82
938.86	7358.35
939.03	7313.30
939.20	7186.32
939.36	7055.25
939.53	6989.72
939.70	7331.73
939.86	6772.63
940.03	6825.88
940.19	6719.39
940.36	6741.91
940.53	6690.71
940.69	6457.25
940.86	6428.57
941.03	6555.55
941.19	6096.80
941.36	6229.92
941.52	6350.75
941.69	6262.69
941.86	6170.53
942.02	6016.93
942.19	6055.84
942.35	6154.15
942.52	5787.56
942.69	5748.65
942.85	5818.28
943.02	5889.96
943.18	5961.64
943.35	5685.16
943.52	5795.75
943.68	5478.32
943.85	5613.48
944.01	5429.17
944.18	5439.40
944.35	5633.96
944.51	5416.88
944.68	5388.21
944.84	5398.45
945.01	5250.99
945.17	5396.40
945.34	5466.03
945.51	5408.69
945.67	5369.77
945.84	5418.93
946.00	5320.62
946.17	5322.67
946.33	5224.37
946.50	5488.56
946.67	5205.94
946.83	5433.26
947.00	5341.10
947.16	5093.30
947.33	5271.47
947.49	5195.70
947.66	5207.98
947.82	5287.86
947.99	5224.37
948.16	5240.75
948.32	5265.33
948.49	5281.71
948.65	5222.32
948.82	5287.86
948.98	5201.84
949.15	5183.41
949.31	5250.99
949.48	5351.34
949.64	5261.23
949.81	5189.55
949.97	5119.92
950.14	5259.18
950.30	5287.86
950.47	5392.30
950.63	5205.94
950.80	5181.36
950.96	5134.26
951.13	5312.43
951.30	5281.71
951.46	5277.62
951.63	5267.38
951.79	5017.52
951.96	5341.10
952.12	5314.48
952.29	5234.61
952.45	5294.00
952.62	5373.87
952.78	5400.49
952.94	5367.73
953.11	5304.24
953.27	5226.42
953.44	5494.70
953.60	5322.67
953.77	5515.18
953.93	5287.86
954.10	5246.90
954.26	5382.06
954.43	5214.13
954.59	5398.45
954.76	5533.61
954.92	5386.16
955.09	5541.80
955.25	5373.87
955.42	5441.45
955.58	5478.32
955.75	5457.84
955.91	5392.30
956.07	5615.53
956.24	5472.17
956.40	5343.15
956.57	5484.46
956.73	5412.78
956.90	5330.86
957.06	5375.92
957.23	5359.53
957.39	5429.17
957.56	5287.86
957.72	5296.05
957.88	5425.07
958.05	5457.84
958.21	5566.38
958.38	5568.43
958.54	5328.81
958.71	5359.53
958.87	5373.87
959.03	5425.07
959.20	5468.08
959.36	5281.71
959.53	5388.21
959.69	5396.40
959.85	5490.60
960.02	5210.03
960.18	5410.73
960.35	5484.46
960.51	5533.61
960.68	5394.35
960.84	5351.34
961.00	5474.22
961.17	5498.80
961.33	5441.45
961.50	5496.75
961.66	5418.93
961.82	5394.35
961.99	5359.53
962.15	5431.21
962.31	5341.10
962.48	5388.21
962.64	5449.64
962.81	5420.97
962.97	5308.34
963.13	5425.07
963.30	5375.92
963.46	5316.53
963.62	5369.77
963.79	5267.38
963.95	5363.63
964.12	5296.05
964.28	5267.38
964.44	5214.13
964.61	5326.77
964.77	5328.81
964.93	5279.66
965.10	5349.29
965.26	5244.85
965.42	5255.09
965.59	5150.64
965.75	5226.42
965.92	5201.84
966.08	5199.79
966.24	5228.46
966.41	5128.11
966.57	5195.70
966.73	5300.14
966.90	5300.14
967.06	5294.00
967.22	5234.61
967.39	5177.26
967.55	5054.39
967.71	5148.59
967.88	5240.75
968.04	5066.67
968.20	5095.35
968.37	5152.69
968.53	5076.91
968.69	5113.78
968.85	5218.22
969.02	5066.67
969.18	5027.76
969.34	5177.26
969.51	5124.02
969.67	5224.37
969.83	5074.87
970.00	5250.99
970.16	5066.67
970.32	5076.91
970.48	5177.26
970.65	4947.89
970.81	5152.69
970.97	5031.86
971.14	4931.51
971.30	5033.91
971.46	4874.17
971.63	5087.15
971.79	4980.66
971.95	4839.35
972.11	4892.60
972.28	5044.15
972.44	4956.08
972.60	4775.86
972.76	4886.45
972.93	4837.30
973.09	5033.91
973.25	4990.90
973.42	4822.97
973.58	4878.26
973.74	4931.51
973.90	4894.65
974.07	4822.97
974.23	4818.87
974.39	4945.84
974.55	4829.11
974.72	4841.40
974.88	4659.13
975.04	4810.68
975.20	4769.72
975.37	4827.06
975.53	4706.23
975.69	4689.85
975.85	4761.53
976.01	4749.24
976.18	4632.51
976.34	4769.72
976.50	4779.96
976.66	4829.11
976.83	4683.70
976.99	4560.83
977.15	4636.60
977.31	4620.22
977.47	4734.90
977.64	4536.25
977.80	4538.30
977.96	4589.50
978.12	4581.31
978.29	4569.02
978.45	4380.61
978.61	4476.86
978.77	4698.04
978.93	4517.82
979.10	4511.68
979.26	4528.06
979.42	4509.63
979.58	4323.26
979.74	4413.37
979.91	4462.52
980.07	4372.41
980.23	4497.34
980.39	4425.66
980.55	4372.41
980.71	4487.10
980.88	4247.49
981.04	4308.93
981.20	4261.82
981.36	4452.28
981.52	4437.95
981.68	4294.59
981.85	4329.41
982.01	4247.49
982.17	4294.59
982.33	4353.98
982.49	4296.64
982.65	4151.23
982.82	4206.53
982.98	4202.43
983.14	4290.49
983.30	4341.69
983.46	4331.45
983.62	4310.97
983.79	4040.64
983.95	4227.01
984.11	4075.46
984.27	4212.67
984.43	4134.85
984.59	4181.95
984.75	4136.90
984.91	4100.03
985.08	4198.34
985.24	4116.42
985.40	4110.27
985.56	4165.57
985.72	4267.97
985.88	4087.75
986.04	4087.75
986.20	4026.31
986.37	4065.22
986.53	4030.40
986.69	4140.99
986.85	4038.59
987.01	3966.92
987.17	4020.16
987.33	4075.46
987.49	3989.44
987.65	3968.96
987.82	4018.11
987.98	3887.04
988.14	3979.20
988.30	4009.92
988.46	3895.24
988.62	3925.96
988.78	3758.02
988.94	3899.33
989.10	3829.70
989.26	3870.66
989.42	3835.85
989.59	3811.27
989.75	3905.48
989.91	3993.54
990.07	3624.90
990.23	3727.30
990.39	3751.88
990.55	3776.45
990.71	3674.06
990.87	3864.52
991.03	3755.97
991.19	3680.20
991.35	3758.02
991.51	3872.71
991.67	3782.60
991.83	3540.94
992.00	3760.07
992.16	3708.87
992.32	3821.51
992.48	3794.89
992.64	3629.00
992.80	3768.26
992.96	3706.82
993.12	3563.47
993.28	3684.30
993.44	3588.04
993.60	3508.17
993.76	3657.67
993.92	3573.71
994.08	3727.30
994.24	3532.75
994.40	3542.99
994.56	3629.00
994.72	3604.42
994.88	3483.59
995.04	3626.95
995.20	3497.93
995.36	3393.48
995.52	3604.42
995.68	3528.65
995.84	3479.50
996.00	3633.10
996.16	3510.22
996.32	3403.72
996.48	3375.05
996.64	3508.17
996.80	3528.65
996.96	3571.66
997.12	3428.30
997.28	3387.34
997.44	3305.42
997.60	3424.20
997.76	3319.76
997.92	3471.31
998.08	3469.26
998.24	3252.17
998.40	3325.90
998.56	3401.68
998.72	3248.08
998.88	3291.09
999.04	3196.88
999.20	3469.26
999.36	3235.79
999.52	3381.20
999.68	3309.52
999.84	3407.82
1000.00	3317.71
1000.16	3360.72
1000.32	3289.04
1000.48	3383.24
1000.64	3129.30
1000.80	3123.15
1000.95	3086.29
1001.11	3332.05
1001.27	3129.30
1001.43	3174.35
1001.59	3176.40
1001.75	3055.57
1001.91	3211.22
1002.07	3190.74
1002.23	3170.26
1002.39	3051.47
1002.55	3092.43
1002.71	2977.75
1002.87	3225.55
1003.03	3012.56
1003.19	3162.06
1003.34	3217.36
1003.50	2979.79
1003.66	3106.77
1003.82	3131.34
1003.98	3022.80
1004.14	3125.20
1004.30	3076.05
1004.46	2908.12
1004.62	3123.15
1004.78	3004.37
1004.94	3008.47
1005.09	3014.61
1005.25	3059.67
1005.41	2975.70
1005.57	2996.18
1005.73	2912.21
1005.89	3008.47
1006.05	2973.65
1006.21	3039.19
1006.37	2912.21
1006.52	2926.55
1006.68	2879.44
1006.84	2951.12
1007.00	2955.22
1007.16	2928.60
1007.32	2910.16
1007.48	2867.16
1007.64	2932.69
1007.79	2850.77
1007.95	2850.77
1008.11	2873.30
1008.27	2783.19
1008.43	2828.24
1008.59	2858.96
1008.75	2877.40
1008.91	2885.59
1009.06	2836.44
1009.22	2779.09
1009.38	2807.77
1009.54	2879.44
1009.70	2772.95
1009.86	2748.37
1010.01	2834.39
1010.17	2729.94
1010.33	2740.18
1010.49	2676.70
1010.65	2873.30
1010.81	2688.98
1010.96	2768.85
1011.12	2660.31
1011.28	2721.75
1011.44	2801.62
1011.60	2666.46
1011.76	2719.70
1011.91	2762.71
1012.07	2680.79
1012.23	2625.50
1012.39	2645.98
1012.55	2723.80
1012.71	2510.81
1012.86	2676.70
1013.02	2746.33
1013.18	2713.56
1013.34	2615.26
1013.50	2637.78
1013.65	2613.21
1013.81	2643.93
1013.97	2543.58
1014.13	2678.74
1014.29	2623.45
1014.44	2701.27
1014.60	2570.20
1014.76	2621.40
1014.92	2633.69
1015.07	2598.87
1015.23	2623.45
1015.39	2580.44
1015.55	2531.29
1015.71	2562.01
1015.86	2533.34
1016.02	2615.26
1016.18	2432.99
1016.34	2592.73
1016.49	2484.19
1016.65	2566.10
1016.81	2500.57
1016.97	2447.32
1017.12	2490.33
1017.28	2392.03
1017.44	2392.03
1017.60	2465.75
1017.75	2492.38
1017.91	2488.28
1018.07	2400.22
1018.23	2484.19
1018.38	2443.23
1018.54	2502.62
1018.70	2486.23
1018.86	2418.65
1019.01	2422.75
1019.17	2451.42
1019.33	2512.86
1019.49	2418.65
1019.64	2523.10
1019.80	2451.42
1019.96	2486.23
1020.12	2394.08
1020.27	2377.69
1020.43	2445.27
1020.59	2396.12
1020.74	2351.07
1020.90	2408.41
1021.06	2324.44
1021.22	2418.65
1021.37	2353.12
1021.53	2334.68
1021.69	2367.45
1021.84	2285.53
1022.00	2328.54
1022.16	2342.88
1022.31	2271.20
1022.47	2385.88
1022.63	2402.27
1022.79	2273.25
1022.94	2273.25
1023.10	2355.16
1023.26	2377.69
1023.41	2277.34
1023.57	2250.72
1023.73	2303.96
1023.88	2238.43
1024.04	2246.62
1024.20	2220.00
1024.35	2289.63
1024.51	2281.44
1024.67	2277.34
1024.82	2359.26
1024.98	2146.27
1025.14	2295.77
1025.29	2183.13
1025.45	2314.20
1025.61	2230.24
1025.76	2197.47
1025.92	2203.61
1026.08	2240.48
1026.23	2269.15
1026.39	2183.13
1026.55	2113.50
1026.70	2176.99
1026.86	2234.33
1027.02	2209.76
1027.17	2133.98
1027.33	2222.05
1027.48	2199.52
1027.64	2215.90
1027.80	2039.78
1027.95	2109.41
1028.11	2068.45
1028.27	2187.23
1028.42	2222.05
1028.58	2105.31
1028.73	2119.65
1028.89	2156.51
1029.05	2166.75
1029.20	2254.81
>>>>>End Processed Spectral Data<<<<<
