SpectraSuite Data File
++++++++++++++++++++++++++++++++++++
Date: Fri Jun 02 14:57:20 CEST 2017
User: INFO_000
Dark Spectrum Present: No
Reference Spectrum Present: No
Number of Sampled Component Spectra: 1
Spectrometers: USB4H00879
Integration Time (usec): 80000 (USB4H00879)
Spectra Averaged: 1 (USB4H00879)
Boxcar Smoothing: 0 (USB4H00879)
Correct for Electrical Dark: No (USB4H00879)
Strobe/Lamp Enabled: No (USB4H00879)
Correct for Detector Non-linearity: No (USB4H00879)
Correct for Stray Light: No (USB4H00879)
Number of Pixels in Processed Spectrum: 3648
>>>>>Begin Processed Spectral Data<<<<<
345.13	1304.56
345.34	1304.56
345.56	1304.56
345.78	1314.80
345.99	1318.89
346.21	1695.72
346.42	1695.72
346.64	1662.95
346.86	1791.97
347.07	1636.33
347.29	1675.24
347.50	1591.27
347.72	1667.05
347.94	1769.44
348.15	1589.22
348.37	1572.84
348.59	1738.73
348.80	1681.38
349.02	1800.16
349.23	1869.80
349.45	1839.08
349.67	1902.56
349.88	1820.64
350.10	1929.19
350.31	1828.84
350.53	1761.25
350.75	1957.86
350.96	1847.27
351.18	1830.88
351.39	1884.13
351.61	1789.92
351.82	1880.04
352.04	1986.53
352.26	1961.95
352.47	1863.65
352.69	1966.05
352.90	1736.68
353.12	1847.27
353.34	1863.65
353.55	1865.70
353.77	1912.80
353.98	1851.36
354.20	1873.89
354.41	1880.04
354.63	1898.47
354.85	2019.30
355.06	1896.42
355.28	1855.46
355.49	1908.71
355.71	1894.37
355.92	1904.61
356.14	1925.09
356.35	1888.23
356.57	1847.27
356.79	1918.95
357.00	1902.56
357.22	1986.53
357.43	1898.47
357.65	1894.37
357.86	1882.08
358.08	1916.90
358.29	1896.42
358.51	1996.77
358.72	1953.76
358.94	1988.58
359.16	1953.76
359.37	1941.47
359.59	1929.19
359.80	2002.91
360.02	1935.33
360.23	2007.01
360.45	2084.83
360.66	1953.76
360.88	1888.23
361.09	1910.75
361.31	2000.87
361.52	2000.87
361.74	1978.34
361.95	2019.30
362.17	1972.19
362.38	1972.19
362.60	2021.35
362.81	1974.24
363.03	2019.30
363.24	1955.81
363.46	2064.35
363.67	1974.24
363.89	1994.72
364.10	2045.92
364.32	2000.87
364.53	2035.68
364.75	1920.99
364.96	2047.97
365.18	2060.26
365.39	1976.29
365.61	1871.84
365.82	2123.74
366.04	2027.49
366.25	1992.67
366.47	1990.63
366.68	2031.58
366.90	1959.91
367.11	2123.74
367.33	2097.12
367.54	2113.50
367.76	1984.48
367.97	2154.46
368.19	2035.68
368.40	1992.67
368.62	1961.95
368.83	1953.76
369.05	2068.45
369.26	2052.06
369.48	2052.06
369.69	1986.53
369.91	2086.88
370.12	1984.48
370.33	2113.50
370.55	1994.72
370.76	2007.01
370.98	2127.84
371.19	2027.49
371.41	2054.11
371.62	2095.07
371.84	2082.78
372.05	2156.51
372.27	2070.50
372.48	2168.80
372.69	2115.55
372.91	2185.18
373.12	2166.75
373.34	2076.64
373.55	2220.00
373.77	2193.37
373.98	2082.78
374.20	2215.90
374.41	2273.25
374.62	2129.89
374.84	2158.56
375.05	2263.01
375.27	2199.52
375.48	2146.27
375.70	2164.70
375.91	2258.91
376.12	2281.44
376.34	2168.80
376.55	2164.70
376.77	2314.20
376.98	2154.46
377.19	2125.79
377.41	2183.13
377.62	2205.66
377.84	2283.49
378.05	2299.87
378.27	2238.43
378.48	2320.35
378.69	2351.07
378.91	2363.36
379.12	2314.20
379.34	2211.81
379.55	2367.45
379.76	2258.91
379.98	2252.77
380.19	2207.71
380.41	2230.24
380.62	2279.39
380.83	2242.53
381.05	2168.80
381.26	2432.99
381.47	2265.05
381.69	2328.54
381.90	2428.89
382.12	2359.26
382.33	2283.49
382.54	2359.26
382.76	2258.91
382.97	2336.73
383.19	2228.19
383.40	2437.08
383.61	2306.01
383.83	2191.33
384.04	2295.77
384.25	2369.50
384.47	2387.93
384.68	2355.16
384.89	2273.25
385.11	2369.50
385.32	2322.40
385.54	2248.67
385.75	2430.94
385.96	2416.60
386.18	2342.88
386.39	2410.46
386.60	2394.08
386.82	2404.32
387.03	2394.08
387.24	2488.28
387.46	2437.08
387.67	2486.23
387.88	2523.10
388.10	2428.89
388.31	2469.85
388.52	2562.01
388.74	2525.15
388.95	2469.85
389.16	2516.95
389.38	2471.90
389.59	2600.92
389.80	2529.24
390.02	2551.77
390.23	2635.74
390.44	2576.34
390.66	2594.78
390.87	2617.30
391.08	2621.40
391.30	2615.26
391.51	2703.32
391.72	2713.56
391.94	2740.18
392.15	2648.02
392.36	2662.36
392.58	2568.15
392.79	2619.35
393.00	2688.98
393.22	2744.28
393.43	2740.18
393.64	2736.09
393.85	2742.23
394.07	2682.84
394.28	2734.04
394.49	2813.91
394.71	2697.17
394.92	2869.20
395.13	2678.74
395.35	2736.09
395.56	2791.38
395.77	2740.18
395.98	2797.53
396.20	2838.48
396.41	2863.06
396.62	2879.44
396.84	2815.96
397.05	2766.81
397.26	2856.92
397.47	2861.01
397.69	2858.96
397.90	2983.89
398.11	2951.12
398.32	2834.39
398.54	2908.12
398.75	2926.55
398.96	2983.89
399.18	3055.57
399.39	2852.82
399.60	2932.69
399.81	2932.69
400.03	2863.06
400.24	3239.89
400.45	2918.36
400.66	3078.10
400.88	2975.70
401.09	3219.41
401.30	3057.62
401.51	3149.78
401.73	3049.43
401.94	3174.35
402.15	3084.24
402.36	3213.26
402.58	3170.26
402.79	3166.16
403.00	3094.48
403.21	3172.30
403.43	3260.37
403.64	3274.70
403.85	3114.96
404.06	3352.52
404.27	3110.86
404.49	3217.36
404.70	3166.16
404.91	3272.65
405.12	3303.37
405.34	3182.54
405.55	3448.78
405.76	3110.86
405.97	3280.85
406.19	3428.30
406.40	3258.32
406.61	3262.41
406.82	3295.18
407.03	3311.57
407.25	3237.84
407.46	3305.42
407.67	3344.33
407.88	3459.02
408.09	3295.18
408.31	3344.33
408.52	3381.20
408.73	3321.81
408.94	3377.10
409.15	3456.97
409.37	3403.72
409.58	3536.84
409.79	3524.55
410.00	3518.41
410.21	3452.88
410.43	3477.45
410.64	3379.15
410.85	3596.23
411.06	3469.26
411.27	3575.75
411.48	3633.10
411.70	3508.17
411.91	3575.75
412.12	3637.19
412.33	3633.10
412.54	3495.88
412.76	3647.43
412.97	3651.53
413.18	3461.07
413.39	3631.05
413.60	3667.91
413.81	3629.00
414.03	3624.90
414.24	3731.40
414.45	3782.60
414.66	3545.03
414.87	3694.54
415.08	3766.21
415.30	3735.50
415.51	3815.37
415.72	3749.83
415.93	3696.58
416.14	3860.42
416.35	3712.97
416.56	3899.33
416.78	3905.48
416.99	3876.80
417.20	3735.50
417.41	3919.81
417.62	3792.84
417.83	3968.96
418.04	3928.00
418.26	3962.82
418.47	3868.61
418.68	4026.31
418.89	3821.51
419.10	4087.75
419.31	4065.22
419.52	4009.92
419.73	3997.64
419.95	4048.83
420.16	3854.28
420.37	4014.02
420.58	4073.41
420.79	3862.47
421.00	4032.45
421.21	4177.86
421.42	4093.89
421.63	4151.23
421.85	4100.03
422.06	4151.23
422.27	4321.21
422.48	4190.14
422.69	4181.95
422.90	4227.01
423.11	4198.34
423.32	4296.64
423.53	4513.72
423.75	4468.67
423.96	4460.48
424.17	4425.66
424.38	4607.93
424.59	4304.83
424.80	4571.07
425.01	4358.08
425.22	4448.19
425.43	4442.04
425.64	4710.33
425.85	4714.42
426.06	4560.83
426.28	4587.45
426.49	4577.21
426.70	4683.70
426.91	4675.51
427.12	4759.48
427.33	4591.55
427.54	4564.92
427.75	4605.88
427.96	4831.16
428.17	4898.74
428.38	4882.36
428.59	4908.98
428.80	4900.79
429.01	4941.75
429.23	4933.56
429.44	5078.96
429.65	5042.10
429.86	4947.89
430.07	4800.44
430.28	5009.33
430.49	4951.99
430.70	4984.76
430.91	5109.68
431.12	4921.27
431.33	5175.22
431.54	5091.25
431.75	5111.73
431.96	5181.36
432.17	5062.58
432.38	5072.82
432.59	5447.60
432.80	5273.52
433.01	5320.62
433.22	5347.25
433.43	5140.40
433.64	5111.73
433.85	5285.81
434.06	5418.93
434.27	5468.08
434.49	5435.31
434.70	5656.49
434.91	5490.60
435.12	5429.17
435.33	5453.74
435.54	5560.24
435.75	5414.83
435.96	5488.56
436.17	5449.64
436.38	5615.53
436.59	5758.89
436.80	5513.13
437.01	5965.73
437.22	5722.02
437.43	5760.94
437.64	5572.52
437.85	5861.29
438.06	5705.64
438.27	5621.67
438.48	5736.36
438.69	5951.40
438.90	5869.48
439.11	5765.03
439.32	5935.01
439.53	5789.61
439.74	6025.12
439.95	5963.68
440.16	5826.47
440.37	5943.21
440.57	5883.81
440.78	6016.93
440.99	5892.01
441.20	5930.92
441.41	5779.37
441.62	6086.56
441.83	5898.15
442.04	6133.67
442.25	6070.18
442.46	6033.32
442.67	6209.44
442.88	6512.54
443.09	6086.56
443.30	6137.76
443.51	6195.11
443.72	6455.20
443.93	6137.76
444.14	6492.06
444.35	6168.48
444.56	6332.32
444.77	6268.83
444.98	6305.70
445.19	6365.09
445.40	6526.88
445.61	6397.85
445.81	6393.76
446.02	6516.64
446.23	6526.88
446.44	6358.94
446.65	6412.19
446.86	6475.68
447.07	6725.53
447.28	6619.04
447.49	6623.13
447.70	6524.83
447.91	6758.30
448.12	6698.91
448.33	6815.64
448.54	6641.56
448.74	6739.87
448.95	6940.57
449.16	6803.35
449.37	7145.36
449.58	6758.30
449.79	6987.67
450.00	6721.43
450.21	7028.63
450.42	7061.40
450.63	6987.67
450.84	6995.86
451.05	7075.73
451.25	7022.48
451.46	6924.18
451.67	7077.78
451.88	7192.47
452.09	7128.98
452.30	6999.96
452.51	7145.36
452.72	7178.13
452.93	7270.29
453.13	7010.20
453.34	7139.22
453.55	7186.32
453.76	7225.23
453.97	7452.56
454.18	7358.35
454.39	7552.91
454.60	7520.14
454.81	7454.61
455.01	7690.12
455.22	7231.38
455.43	7585.68
455.64	7819.14
455.85	7929.74
456.06	7921.54
456.27	7825.29
456.48	7683.98
456.68	7704.46
456.89	7708.55
457.10	7862.15
457.31	7937.93
457.52	7849.86
457.73	7942.02
457.94	8208.26
458.14	7837.58
458.35	8318.85
458.56	8159.11
458.77	7997.32
458.98	8195.97
459.19	8200.07
459.39	8298.37
459.60	8507.26
459.81	8089.48
460.02	8488.83
460.23	8345.47
460.44	8750.97
460.65	8574.85
460.85	8628.09
461.06	8546.17
461.27	8621.95
461.48	8804.22
461.69	8998.77
461.89	8382.34
462.10	8734.59
462.31	8615.80
462.52	8783.74
462.73	8779.64
462.94	9103.22
463.14	8974.20
463.35	8900.47
463.56	9285.49
463.77	9209.72
463.98	9222.00
464.18	9107.32
464.39	9346.93
464.60	9629.55
464.81	9547.63
465.02	9490.29
465.23	9658.22
465.43	9336.69
465.64	9721.71
465.85	9613.17
466.06	9594.73
466.27	10086.25
466.47	9824.11
466.68	9799.53
466.89	9807.72
467.10	10231.65
467.30	9834.35
467.51	10162.02
467.72	10293.09
467.93	10112.87
468.14	10315.62
468.34	10483.55
468.55	10442.59
468.76	10424.16
468.97	10325.86
469.17	10639.20
469.38	10667.87
469.59	10735.45
469.80	10528.61
470.01	10866.52
470.21	10923.87
470.42	10878.81
470.63	11097.94
470.84	10970.97
471.04	11198.29
471.25	11132.76
471.46	11212.63
471.67	11470.67
471.87	11263.83
472.08	11431.76
472.29	11644.75
472.50	11472.72
472.70	11472.72
472.91	11554.64
473.12	11712.33
473.33	11784.01
473.53	12019.53
473.74	11767.63
473.95	12222.28
474.16	12289.86
474.36	12308.29
474.57	12490.56
474.78	12474.18
474.99	12416.83
475.19	12406.59
475.40	12758.85
475.61	12689.21
475.81	13000.51
476.02	13125.43
476.23	12857.15
476.44	13084.47
476.64	13107.00
476.85	13489.97
477.06	13416.24
477.27	13377.33
477.47	13870.89
477.68	13606.70
477.89	13758.25
478.09	13684.53
478.30	13897.52
478.51	13737.77
478.71	14149.42
478.92	14112.55
479.13	14298.92
479.34	14499.62
479.54	14477.09
479.75	14294.82
479.96	14579.49
480.16	14540.58
480.37	14901.02
480.58	14843.68
480.78	15056.67
480.99	15054.62
481.20	15138.58
481.41	15087.39
481.61	15322.90
481.82	15595.28
482.03	15539.99
482.23	15408.92
482.44	15927.05
482.65	15949.58
482.85	16215.82
483.06	16125.71
483.27	16187.14
483.47	15976.20
483.68	16129.80
483.89	16350.98
484.09	16486.15
484.30	16451.33
484.51	16822.02
484.71	17026.81
484.92	16736.00
485.13	16955.13
485.33	17010.43
485.54	16783.10
485.75	17381.11
485.95	17336.06
486.16	17313.53
486.37	17309.43
486.57	17473.27
486.78	17379.06
486.98	17614.58
487.19	17948.40
487.40	17876.72
487.60	18011.89
487.81	18515.69
488.02	18296.55
488.22	18138.86
488.43	18335.46
488.64	18261.74
488.84	18505.45
489.05	18599.65
489.25	18560.74
489.46	19009.25
489.67	18728.67
489.87	19238.62
490.08	19080.92
490.29	19107.55
490.49	19498.71
490.70	19746.51
490.90	19496.66
491.11	19373.78
491.32	19674.84
491.52	19844.82
491.73	19928.78
491.94	19949.26
492.14	19777.23
492.35	20344.52
492.55	20326.09
492.76	20174.54
492.97	20268.75
493.17	20670.15
493.38	20661.96
493.58	20827.84
493.79	21071.55
494.00	20799.17
494.20	20885.19
494.41	21075.65
494.61	21128.89
494.82	21225.15
495.02	21130.94
495.23	21366.46
495.44	21573.30
495.64	21538.49
495.85	21544.63
496.05	21798.58
496.26	21710.52
496.47	21733.04
496.67	21733.04
496.88	21950.13
497.08	22136.49
497.29	22451.88
497.49	22154.93
497.70	22320.81
497.91	22498.98
498.11	22703.78
498.32	22439.59
498.52	22709.93
498.73	23062.18
498.93	22920.87
499.14	22871.72
499.34	22759.08
499.55	23420.57
499.76	22978.21
499.96	23309.98
500.17	23406.23
500.37	23316.12
500.58	23217.82
500.78	23604.89
500.99	23436.95
501.19	23776.92
501.40	23729.81
501.60	23723.67
501.81	23899.80
502.02	23840.40
502.22	23748.25
502.43	24047.25
502.63	24108.69
502.84	24340.11
503.04	24235.66
503.25	24106.64
503.45	24686.22
503.66	24325.77
503.86	24549.00
504.07	24880.77
504.27	24495.75
504.48	25026.18
504.68	25265.79
504.89	25175.68
505.09	25177.73
505.30	25261.69
505.50	25339.52
505.71	25208.45
505.91	25501.31
506.12	25372.28
506.32	25370.24
506.53	25409.15
506.73	25667.19
506.94	25781.88
507.14	25683.58
507.35	25534.07
507.55	25871.99
507.76	25857.65
507.96	25861.75
508.17	25988.72
508.37	25792.12
508.58	25800.31
508.78	26193.52
508.99	26170.99
509.19	26123.89
509.40	26218.10
509.60	26547.82
509.81	26414.70
510.01	26443.37
510.22	26275.44
510.42	26558.06
510.63	26232.43
510.83	26594.92
511.04	26631.79
511.24	26715.75
511.44	26996.32
511.65	26975.84
511.85	26936.93
512.06	27168.35
512.26	27043.43
512.47	27115.11
512.67	27072.10
512.88	26932.84
513.08	27131.49
513.29	27059.81
513.49	27106.91
513.69	27371.10
513.90	27600.47
514.10	27362.91
514.31	27496.03
514.51	27440.73
514.72	27547.23
514.92	27618.91
515.13	27616.86
515.33	27721.30
515.53	27792.98
515.74	28034.64
515.94	27700.83
516.15	28014.16
516.35	28079.70
516.56	28081.75
516.76	28071.51
516.96	28069.46
517.17	28284.50
517.37	28532.30
517.58	28696.14
517.78	28540.49
517.99	28638.80
518.19	28626.51
518.39	28616.27
518.60	28626.51
518.80	28837.45
519.01	29075.01
519.21	29015.62
519.41	28943.94
519.62	29056.58
519.82	29042.24
520.03	28986.95
520.23	29218.37
520.43	29263.43
520.64	29322.82
520.84	29316.67
521.05	29259.33
521.25	29795.90
521.45	29451.84
521.66	29683.26
521.86	29611.58
522.07	29756.99
522.27	29808.19
522.47	29883.96
522.68	29834.81
522.88	29961.78
523.08	30359.09
523.29	30101.04
523.49	30228.02
523.70	29881.91
523.90	30203.44
524.10	30307.89
524.31	30676.52
524.51	30424.62
524.71	30795.31
524.92	30703.15
525.12	30860.84
525.33	30613.04
525.53	30924.33
525.73	31399.46
525.94	31196.71
526.14	30895.66
526.34	31131.17
526.55	31280.67
526.75	31432.22
526.95	31645.21
527.16	31491.62
527.36	31483.42
527.56	31751.71
527.77	31610.40
527.97	31837.72
528.17	31854.11
528.38	32101.91
528.58	32251.41
528.78	31970.84
528.99	32085.53
529.19	32491.02
529.39	32132.63
529.60	32726.54
529.80	32603.66
530.00	32323.09
530.21	32880.14
530.41	33011.21
530.61	32626.19
530.82	32851.47
531.02	32947.72
531.22	32992.78
531.43	33342.98
531.63	33353.22
531.83	33824.25
532.04	33871.36
532.24	33357.32
532.44	33562.11
532.64	34096.63
532.85	33910.27
533.05	33938.94
533.25	33824.25
533.46	33953.27
533.66	34354.68
533.86	34407.92
534.07	34301.43
534.27	34459.12
534.47	34588.14
534.67	34688.49
534.88	34641.39
535.08	34827.76
535.28	34614.77
535.49	35124.71
535.69	35159.53
535.89	34756.08
536.09	35456.48
536.30	35538.40
536.50	35431.91
536.70	35493.35
536.91	35272.17
537.11	35634.66
537.31	35628.51
537.51	35800.54
537.72	36062.68
537.92	36177.37
538.12	36382.16
538.32	35982.81
538.53	36410.84
538.73	36373.97
538.93	36595.15
539.13	36425.17
539.34	36257.24
539.54	36308.44
539.74	36908.49
539.94	36883.92
540.15	36382.16
540.35	36931.02
540.55	37004.75
540.75	36894.16
540.96	37094.86
541.16	36967.88
541.36	37182.92
541.56	37103.05
541.77	37729.73
541.97	37055.95
542.17	37574.08
542.37	37289.42
542.58	37778.88
542.78	37670.34
542.98	37430.72
543.18	37877.18
543.38	38204.86
543.59	37846.46
543.79	38084.03
543.99	37983.68
544.19	38423.99
544.40	38450.61
544.60	38809.01
544.80	38362.55
545.00	38557.11
545.20	38876.59
545.41	38192.57
545.61	38348.21
545.81	38909.36
546.01	38841.78
546.21	38722.99
546.42	39173.55
546.62	38653.36
546.82	38798.77
547.02	38950.32
547.22	39017.90
547.43	38811.06
547.63	39224.75
547.83	38999.47
548.03	38929.84
548.23	39458.21
548.44	39585.19
548.64	39429.54
548.84	39341.48
549.04	39536.04
549.24	40017.31
549.45	40226.20
549.65	39560.61
549.85	39581.09
550.05	40197.53
550.25	40041.88
550.45	40457.62
550.66	40187.29
550.86	39945.63
551.06	40316.31
551.26	40289.69
551.46	40076.70
551.66	40306.07
551.87	40639.89
552.07	40041.88
552.27	40056.22
552.47	40392.09
552.67	40740.24
552.87	40533.40
553.07	40424.86
553.28	40666.52
553.48	40947.09
553.68	40508.82
553.88	41211.28
554.08	40844.69
554.28	40924.56
554.48	41047.44
554.69	41086.35
554.89	41258.38
555.09	41285.00
555.29	40727.95
555.49	41475.46
555.69	40785.30
555.89	41088.40
556.10	41624.96
556.30	41260.43
556.50	41688.45
556.70	41092.49
556.90	41624.96
557.10	41723.27
557.30	41467.27
557.50	41858.43
557.70	41946.50
557.91	42247.55
558.11	41708.93
558.31	42077.57
558.51	41907.58
558.71	42083.71
558.91	42229.12
559.11	41686.40
559.31	41958.78
559.51	41878.91
559.72	42325.37
559.92	42644.85
560.12	41635.20
560.32	42495.35
560.52	42177.92
560.72	42386.81
560.92	42208.64
561.12	42345.85
561.32	42403.19
561.52	42399.10
561.72	43130.22
561.93	42745.20
562.13	42511.74
562.33	42425.72
562.53	42917.23
562.73	42386.81
562.93	42648.95
563.13	42737.01
563.33	42802.55
563.53	43146.61
563.73	42720.63
563.93	43093.36
564.13	43316.59
564.33	43457.90
564.53	43130.22
564.74	43283.82
564.94	43025.78
565.14	43494.76
565.34	43337.07
565.54	43230.57
565.74	42853.75
565.94	43539.82
566.14	43117.93
566.34	43287.92
566.54	43801.96
566.74	43169.13
566.94	43801.96
567.14	43502.95
567.34	43335.02
567.54	43953.51
567.74	43433.32
567.94	43861.35
568.14	43779.43
568.34	44191.07
568.54	43697.51
568.74	44031.33
568.94	44060.00
569.14	44334.43
569.34	44055.90
569.54	44148.06
569.75	43662.69
569.95	44236.12
570.15	44447.07
570.35	44385.63
570.55	44535.13
570.75	44410.20
570.95	44635.48
571.15	44735.83
571.35	44354.91
571.55	44864.85
571.75	44643.67
571.95	44571.99
572.15	44455.26
572.35	44938.58
572.55	44979.54
572.75	44662.10
572.95	44750.17
573.15	44950.87
573.35	45030.74
573.55	44832.08
573.75	44756.31
573.95	45204.81
574.15	44879.19
574.35	45315.40
574.55	44971.35
574.75	45217.10
574.95	45372.75
575.15	45303.12
575.34	46019.91
575.54	45911.36
575.74	45882.69
575.94	45569.35
576.14	45823.30
576.34	45565.26
576.54	45833.54
576.74	45821.25
576.94	45606.22
577.14	45978.95
577.34	46288.19
577.54	46071.10
577.74	46273.85
577.94	46081.34
578.14	46372.16
578.34	46230.85
578.54	45827.40
578.74	46077.25
578.94	46423.36
579.14	46179.65
579.34	46503.23
579.54	46583.10
579.74	46900.53
579.94	46660.92
580.13	46753.08
580.33	47080.75
580.53	46890.29
580.73	47433.00
580.93	47017.27
581.13	47129.90
581.33	47467.82
581.53	47480.11
581.73	47400.24
581.93	47645.99
582.13	47537.45
582.33	47445.29
582.53	47514.92
582.73	47848.74
582.92	47828.26
583.12	48033.06
583.32	48002.34
583.52	47568.17
583.72	47932.71
583.92	47891.75
584.12	47955.24
584.32	48358.69
584.52	47977.76
584.72	48043.30
584.92	48074.02
585.11	48393.50
585.31	48301.34
585.51	48157.99
585.71	48526.62
585.91	48401.69
586.11	48225.57
586.31	48438.56
586.51	48528.67
586.71	48530.72
586.91	48948.50
587.10	48626.97
587.30	49102.10
587.50	49018.13
587.70	49239.31
587.90	49456.40
588.10	49427.73
588.30	49093.91
588.50	49503.50
588.69	49347.86
588.89	49202.45
589.09	49147.15
589.29	49382.67
589.49	49743.11
589.69	48880.92
589.89	49472.78
590.08	49376.53
590.28	49452.30
590.48	49237.26
590.68	49638.67
590.88	49667.34
591.08	49906.95
591.28	49620.23
591.47	50296.06
591.67	50095.36
591.87	50121.99
592.07	49943.81
592.27	50025.73
592.47	50042.12
592.67	50375.94
592.86	50189.57
593.06	50044.16
593.26	50173.19
593.46	50259.20
593.66	50398.46
593.86	50765.05
594.05	50713.85
594.25	50652.41
594.45	50337.02
594.65	50738.43
594.85	50261.25
595.05	50584.83
595.24	51199.22
595.44	50558.20
595.64	51008.76
595.84	50978.04
596.04	50685.18
596.23	51123.44
596.43	51537.13
596.63	51485.93
596.83	51033.33
597.03	51621.10
597.22	51795.18
597.42	51373.30
597.62	51873.00
597.82	51442.93
598.02	51287.28
598.21	51780.84
598.41	51320.05
598.61	51533.04
598.81	51588.33
599.01	52163.81
599.20	51836.14
599.40	51424.50
599.60	51887.34
599.80	51684.59
600.00	52200.68
600.19	52204.77
600.39	52085.99
600.59	52393.18
600.79	52321.51
600.98	52495.58
601.18	52315.36
601.38	52704.48
601.58	52659.42
601.78	52514.01
601.97	52440.29
602.17	52944.09
602.37	52831.45
602.57	52843.74
602.76	52927.70
602.96	52917.46
603.16	52780.25
603.36	52792.54
603.55	53368.02
603.75	52995.29
603.95	53241.04
604.15	53363.92
604.34	53075.16
604.54	53015.77
604.74	53179.60
604.94	53605.58
605.13	53658.83
605.33	53529.81
605.53	53718.22
605.73	53712.08
605.92	53630.16
606.12	54107.33
606.32	53951.69
606.52	54146.25
606.71	53589.20
606.91	54064.33
607.11	53415.12
607.30	54209.73
607.50	53789.90
607.70	54314.18
607.90	54195.40
608.09	53900.49
608.29	54623.42
608.49	54269.12
608.68	54037.70
608.88	54176.97
609.08	54166.73
609.28	54359.23
609.47	54308.04
609.67	54887.61
609.87	54631.61
610.06	54869.18
610.26	54760.64
610.46	54424.77
610.66	54478.02
610.85	54566.08
611.05	54334.66
611.25	54762.68
611.44	54564.03
611.64	54590.66
611.84	54633.66
612.03	54789.31
612.23	54867.13
612.43	54801.60
612.62	54609.09
612.82	54889.66
613.02	55033.02
613.21	54883.51
613.41	54805.69
613.61	54932.67
613.80	54367.43
614.00	55063.74
614.20	54828.22
614.39	54756.54
614.59	55438.51
614.79	54764.73
614.98	54693.05
615.18	55112.89
615.38	54944.95
615.57	54699.20
615.77	54901.95
615.97	55483.57
616.16	54629.57
616.36	54633.66
616.56	54899.90
616.75	55493.81
616.95	54858.94
617.15	54830.27
617.34	55039.16
617.54	54953.15
617.74	55289.01
617.93	55352.50
618.13	55008.44
618.32	54867.13
618.52	54770.88
618.72	54979.77
618.91	55409.84
619.11	54756.54
619.31	54967.48
619.50	55411.89
619.70	54918.33
619.90	54926.52
620.09	55104.70
620.29	55389.36
620.48	55010.49
620.68	55293.11
620.88	54422.72
621.07	55078.07
621.27	55162.04
621.46	54551.74
621.66	54600.89
621.86	55047.35
622.05	54830.27
622.25	54842.56
622.44	54774.97
622.64	54973.63
622.84	55352.50
623.03	54811.84
623.23	55137.46
623.42	55119.03
623.62	54764.73
623.82	54924.47
624.01	54942.91
624.21	54893.75
624.40	55303.35
624.60	54721.72
624.80	55049.40
624.99	55108.79
625.19	54244.55
625.38	55141.56
625.58	54863.03
625.77	55057.59
625.97	54953.15
626.17	54449.35
626.36	55000.25
626.56	55192.76
626.75	54379.71
626.95	55022.78
627.14	54551.74
627.34	55057.59
627.54	54944.95
627.73	54611.13
627.93	54629.57
628.12	54213.83
628.32	54793.40
628.51	55030.97
628.71	54752.44
628.90	54912.19
629.10	54119.62
629.30	54877.37
629.49	54783.16
629.69	54901.95
629.88	54893.75
630.08	55323.83
630.27	54760.64
630.47	55006.39
630.66	54785.21
630.86	55659.69
631.05	55088.31
631.25	55325.88
631.44	54717.63
631.64	54910.14
631.84	55100.60
632.03	55225.53
632.23	54777.02
632.42	55190.71
632.62	55211.19
632.81	54744.25
633.01	54199.49
633.20	55096.50
633.40	55065.78
633.59	54906.04
633.79	54645.95
633.98	55162.04
634.18	55153.85
634.37	54912.19
634.57	54942.91
634.76	55266.48
634.96	55063.74
635.15	54881.47
635.35	54779.07
635.54	54781.12
635.74	54822.08
635.93	55180.47
636.13	55583.92
636.32	55366.84
636.52	54607.04
636.71	54785.21
636.91	55233.72
637.10	55006.39
637.30	54807.74
637.49	54772.92
637.69	55280.82
637.88	54932.67
638.08	54629.57
638.27	55366.84
638.46	54998.20
638.66	55069.88
638.85	55727.28
639.05	55301.30
639.24	55426.23
639.44	54916.28
639.63	55309.49
639.83	55051.45
640.02	55033.02
640.22	55366.84
640.41	55114.94
640.61	54992.06
640.80	55180.47
640.99	55071.93
641.19	55354.55
641.38	55397.55
641.58	55602.35
641.77	54973.63
641.97	55268.53
642.16	55225.53
642.36	55411.89
642.55	55733.42
642.74	55026.87
642.94	55936.17
643.13	55362.74
643.33	55551.15
643.52	55381.17
643.72	55502.00
643.91	55053.50
644.10	55567.54
644.30	54805.69
644.49	55448.75
644.69	55669.93
644.88	55227.57
645.08	55518.38
645.27	55344.31
645.46	55069.88
645.66	55712.94
645.85	55604.40
646.05	55581.87
646.24	55620.78
646.43	55504.05
646.63	55710.89
646.82	55792.81
647.02	55321.78
647.21	55415.99
647.40	55741.61
647.60	55538.86
647.79	55835.82
647.99	55907.50
648.18	55450.80
648.37	55661.74
648.57	55440.56
648.76	55710.89
648.96	55880.88
649.15	55936.17
649.34	55780.52
649.54	55837.87
649.73	55260.34
649.92	55452.85
650.12	55919.79
650.31	55813.29
650.51	55618.74
650.70	56204.45
650.89	55409.84
651.09	56521.89
651.28	55692.46
651.47	55790.76
651.67	56063.14
651.86	56265.89
652.06	55596.21
652.25	56288.42
652.44	55827.63
652.64	55440.56
652.83	55747.76
653.02	55909.55
653.22	56143.02
653.41	55794.86
653.60	55780.52
653.80	55702.70
653.99	56231.08
654.18	55792.81
654.38	55833.77
654.57	55954.60
654.76	55999.66
654.96	55633.07
655.15	56163.50
655.34	55964.84
655.54	55266.48
655.73	56005.80
655.92	55733.42
656.12	56214.69
656.31	55876.78
656.50	55485.62
656.70	55923.88
656.89	55717.04
657.08	56065.19
657.28	55858.35
657.47	55907.50
657.66	56126.63
657.86	55981.23
658.05	55784.62
658.24	56161.45
658.43	55889.07
658.63	56059.05
658.82	56218.79
659.01	56276.13
659.21	56349.86
659.40	55850.16
659.59	55614.64
659.79	55944.36
659.98	56755.36
660.17	56016.04
660.36	56235.17
660.56	56007.85
660.75	56356.00
660.94	56157.35
661.14	56065.19
661.33	56325.28
661.52	55741.61
661.71	56241.32
661.91	56097.96
662.10	55919.79
662.29	56564.90
662.49	56073.38
662.68	56403.11
662.87	56073.38
663.06	56095.91
663.26	56222.89
663.45	56401.06
663.64	56233.13
663.83	56419.49
664.03	56390.82
664.22	55717.04
664.41	56218.79
664.60	55768.24
664.80	56278.18
664.99	56016.04
665.18	56313.00
665.37	56353.96
665.57	56120.49
665.76	55835.82
665.95	56136.87
666.14	55841.96
666.34	56218.79
666.53	55950.51
666.72	55909.55
666.91	55813.29
667.11	55882.92
667.30	55878.83
667.49	55919.79
667.68	56222.89
667.87	55596.21
668.07	56435.87
668.26	55983.27
668.45	55958.70
668.64	55782.57
668.84	56171.69
669.03	56073.38
669.22	56163.50
669.41	56040.62
669.60	56249.51
669.80	56022.19
669.99	56284.33
670.18	55934.12
670.37	56196.26
670.57	56374.44
670.76	56038.57
670.95	56442.02
671.14	56177.83
671.33	55841.96
671.53	56013.99
671.72	55899.31
671.91	56159.40
672.10	55833.77
672.29	55753.90
672.48	56013.99
672.68	56097.96
672.87	56071.34
673.06	55817.39
673.25	55841.96
673.44	55768.24
673.64	55909.55
673.83	55690.41
674.02	55735.47
674.21	55739.57
674.40	56013.99
674.59	55692.46
674.79	55827.63
674.98	55866.54
675.17	55970.99
675.36	56210.60
675.55	56222.89
675.74	55807.15
675.94	55493.81
676.13	55674.03
676.32	55751.85
676.51	56349.86
676.70	55852.20
676.89	55891.12
677.08	55841.96
677.28	55547.06
677.47	56057.00
677.66	55651.50
677.85	55768.24
678.04	56325.28
678.23	56116.39
678.42	56044.71
678.62	55606.45
678.81	55970.99
679.00	55782.57
679.19	56003.75
679.38	55770.28
679.57	55719.09
679.76	56020.14
679.96	55776.43
680.15	55784.62
680.34	55569.58
680.53	55440.56
680.72	56143.02
680.91	55735.47
681.10	55964.84
681.29	55542.96
681.48	55024.82
681.68	55223.48
681.87	55129.27
682.06	55600.30
682.25	55334.07
682.44	55155.89
682.63	55676.08
682.82	55092.41
683.01	55026.87
683.20	55110.84
683.39	55391.41
683.59	55112.89
683.78	55162.04
683.97	55080.12
684.16	55415.99
684.35	54863.03
684.54	55010.49
684.73	55221.43
684.92	55106.74
685.11	55121.08
685.30	54611.13
685.49	55231.67
685.69	55252.15
685.88	54854.84
686.07	54469.82
686.26	54553.79
686.45	54666.43
686.64	55014.58
686.83	55309.49
687.02	54912.19
687.21	54856.89
687.40	54969.53
687.59	54967.48
687.78	54664.38
687.97	55170.23
688.16	55024.82
688.35	54324.42
688.54	54942.91
688.74	54535.36
688.93	54568.13
689.12	54551.74
689.31	54918.33
689.50	54529.22
689.69	54731.96
689.88	54273.22
690.07	54693.05
690.26	54387.91
690.45	55170.23
690.64	54344.90
690.83	54351.04
691.02	54383.81
691.21	54201.54
691.40	54916.28
691.59	54533.31
691.78	54361.28
691.97	54895.80
692.16	54461.63
692.35	54787.26
692.54	54473.92
692.73	54664.38
692.92	54572.22
693.11	54291.65
693.30	54332.61
693.49	54277.32
693.68	54437.06
693.87	54240.45
694.06	53912.78
694.25	53982.41
694.44	53820.62
694.63	54355.14
694.82	54334.66
695.01	53937.35
695.20	53638.35
695.39	53851.34
695.58	54443.20
695.77	54064.33
695.96	53656.78
696.15	53908.68
696.34	53818.57
696.53	53966.02
696.72	54385.86
696.91	53554.38
697.10	53814.47
697.29	53978.31
697.48	54138.05
697.67	53509.33
697.86	53794.00
698.05	53650.64
698.24	54514.88
698.43	53513.42
698.62	53542.10
698.81	53335.25
699.00	53634.25
699.19	53482.70
699.38	53523.66
699.57	53505.23
699.76	53804.24
699.95	53376.21
700.14	53517.52
700.32	53314.77
700.51	53568.72
700.70	53656.78
700.89	53636.30
701.08	53677.26
701.27	53150.93
701.46	53587.15
701.65	52765.91
701.84	53251.28
702.03	53740.75
702.22	52991.19
702.41	53394.64
702.60	53138.65
702.79	53269.72
702.98	53173.46
703.17	53222.61
703.35	52759.77
703.54	52983.00
703.73	53335.25
703.92	53179.60
704.11	53103.83
704.30	52571.36
704.49	52935.90
704.68	52710.62
704.87	52802.78
705.06	53224.66
705.25	52665.56
705.43	52790.49
705.62	53066.97
705.81	52460.77
706.00	52966.62
706.19	52384.99
706.38	52266.21
706.57	52720.86
706.76	52395.23
706.95	52647.13
707.14	52368.61
707.32	52647.13
707.51	52237.54
707.70	52509.92
707.89	52430.05
708.08	52294.88
708.27	52698.33
708.46	52595.93
708.65	52319.46
708.84	52925.66
709.02	52325.60
709.21	52081.89
709.40	52092.13
709.59	52311.27
709.78	52294.88
709.97	52397.28
710.16	52014.31
710.34	52036.84
710.53	51911.91
710.72	51959.02
710.91	52360.42
711.10	52055.27
711.29	52346.08
711.48	52047.08
711.66	51455.21
711.85	51829.99
712.04	51770.60
712.23	51811.56
712.42	51455.21
712.61	51385.58
712.80	51758.31
712.98	51657.96
713.17	51461.36
713.36	51700.97
713.55	51608.81
713.74	51596.52
713.93	51633.39
714.11	51770.60
714.30	51571.95
714.49	51309.81
714.68	51299.57
714.87	51553.52
715.06	51758.31
715.24	51381.49
715.43	51406.06
715.62	51225.84
715.81	51391.73
716.00	51522.80
716.18	51248.37
716.37	51041.53
716.56	51027.19
716.75	51361.01
716.94	51401.97
717.12	50652.41
717.31	51365.10
717.50	51137.78
717.69	51059.96
717.88	51055.86
718.06	51033.33
718.25	51647.72
718.44	50631.93
718.63	50873.59
718.82	50830.58
719.00	50674.94
719.19	50554.11
719.38	50576.64
719.57	50294.02
719.76	50377.98
719.94	50183.43
720.13	50025.73
720.32	50316.54
720.51	49992.97
720.69	50218.24
720.88	50060.55
721.07	49845.51
721.26	50070.79
721.44	50052.36
721.63	49898.76
721.82	49485.07
722.01	49599.76
722.20	49536.27
722.38	49718.54
722.57	49151.25
722.76	49749.26
722.95	49392.91
723.13	49034.52
723.32	49343.76
723.51	49011.99
723.70	49376.53
723.88	49405.20
724.07	49159.44
724.26	49190.16
724.44	48731.42
724.63	49347.86
724.82	49188.11
725.01	49179.92
725.19	49100.05
725.38	48772.38
725.57	48977.17
725.76	49304.85
725.94	49288.46
726.13	49222.93
726.32	48520.48
726.51	48766.23
726.69	48928.02
726.88	48911.64
727.07	48915.73
727.25	48913.69
727.44	48835.86
727.63	48608.54
727.82	48835.86
728.00	48583.96
728.19	48796.95
728.38	49011.99
728.56	48407.84
728.75	48788.76
728.94	48395.55
729.12	49030.42
729.31	48586.01
729.50	48473.37
729.69	48852.25
729.87	48792.86
730.06	48698.65
730.25	48493.85
730.43	48940.31
730.62	48686.36
730.81	49300.75
730.99	48739.61
731.18	48465.18
731.37	48712.98
731.55	48862.49
731.74	48850.20
731.93	48575.77
732.11	48833.81
732.30	48766.23
732.49	48309.53
732.67	48342.30
732.86	48674.07
733.05	48039.20
733.23	48112.93
733.42	48485.66
733.61	48065.83
733.79	48180.51
733.98	48925.97
734.17	48538.91
734.35	48784.66
734.54	48411.93
734.73	48354.59
734.91	48495.90
735.10	48278.82
735.29	48608.54
735.47	47777.06
735.66	48354.59
735.84	48633.11
736.03	48282.91
736.22	48520.48
736.40	47953.19
736.59	48616.73
736.78	48272.67
736.96	47985.96
737.15	48166.18
737.33	48190.75
737.52	47832.36
737.71	48082.21
737.89	47818.02
738.08	47349.04
738.27	47797.54
738.45	47912.23
738.64	48026.92
738.82	48108.83
739.01	48047.39
739.20	47899.94
739.38	47871.27
739.57	48256.29
739.75	47881.51
739.94	47725.86
740.13	48059.68
740.31	47641.90
740.50	47656.23
740.68	48217.38
740.87	48203.04
741.06	48143.65
741.24	47486.25
741.43	47402.28
741.61	47627.56
741.80	47547.69
741.99	47492.40
742.17	47398.19
742.36	47564.07
742.54	47183.15
742.73	47590.70
742.91	47559.98
743.10	47633.71
743.29	47758.63
743.47	47512.88
743.66	47148.34
743.84	47168.82
744.03	47183.15
744.21	47146.29
744.40	47303.98
744.59	47209.78
744.77	47177.01
744.96	47314.22
745.14	47113.52
745.33	47230.26
745.51	47011.12
745.70	47078.71
745.88	46961.97
746.07	46957.88
746.26	46810.42
746.44	46929.20
746.63	46775.61
746.81	47123.76
747.00	46757.17
747.18	46873.91
747.37	46986.55
747.55	46615.86
747.74	47559.98
747.92	46538.04
748.11	46714.17
748.29	46638.39
748.48	46970.16
748.66	46712.12
748.85	46388.54
749.03	46744.89
749.22	47064.37
749.41	46300.48
749.59	46581.05
749.78	46329.15
749.96	46495.03
750.15	46290.24
750.33	46093.63
750.52	46267.71
750.70	46155.07
750.89	46150.98
751.07	46021.95
751.26	46081.34
751.44	46024.00
751.63	45886.79
751.81	46026.05
752.00	45849.92
752.18	46126.40
752.37	46054.72
752.55	45735.24
752.74	45546.82
752.92	45452.62
753.10	45667.66
753.29	45710.66
753.47	45696.33
753.66	45083.98
753.84	46232.89
754.03	45753.67
754.21	45661.51
754.40	45727.05
754.58	45833.54
754.77	45522.25
754.95	45167.95
755.14	45299.02
755.32	45491.53
755.51	44676.44
755.69	44918.10
755.88	45073.74
756.06	45274.45
756.24	45004.11
756.43	45110.61
756.61	45460.81
756.80	45051.22
756.98	45040.98
757.17	44721.49
757.35	45278.54
757.54	45075.79
757.72	44684.63
757.90	44920.15
758.09	45079.89
758.27	44789.08
758.46	44801.36
758.64	44631.38
758.83	44797.27
759.01	44989.78
759.19	44383.58
759.38	44422.49
759.56	44733.78
759.75	44600.66
759.93	44373.34
760.12	44205.41
760.30	44535.13
760.48	44062.05
760.67	43810.15
760.85	44385.63
761.04	44545.37
761.22	44528.98
761.40	44285.28
761.59	43941.22
761.77	43996.51
761.96	44205.41
762.14	44270.94
762.32	44146.01
762.51	43722.08
762.69	44172.64
762.88	43758.95
763.06	44123.49
763.24	44039.52
763.43	43705.70
763.61	43560.30
763.80	43208.04
763.98	43875.68
764.16	43851.11
764.35	43431.27
764.53	42780.02
764.72	43304.30
764.90	43287.92
765.08	43502.95
765.27	43128.17
765.45	43119.98
765.63	42952.05
765.82	43062.64
766.00	43251.05
766.18	43138.41
766.37	43359.59
766.55	43210.09
766.74	43246.96
766.92	42890.61
767.10	43003.25
767.29	43267.44
767.47	42438.01
767.65	42841.46
767.84	42407.29
768.02	42743.16
768.20	42253.69
768.39	42863.99
768.57	42558.84
768.75	42866.03
768.94	42823.03
769.12	42491.26
769.30	42136.96
769.49	42212.73
769.67	42423.67
769.85	42100.09
770.04	42280.31
770.22	42261.88
770.40	41604.49
770.59	42055.04
770.77	42179.96
770.95	42169.72
771.14	41737.60
771.32	41878.91
771.50	41934.21
771.69	41649.54
771.87	42112.38
772.05	41825.67
772.24	41737.60
772.42	41692.55
772.60	41618.82
772.78	41622.92
772.97	41067.92
773.15	41622.92
773.33	41457.03
773.52	41336.20
773.70	41098.64
773.88	41616.77
774.07	41481.61
774.25	41188.75
774.43	41115.02
774.61	41000.33
774.80	41323.91
774.98	41479.56
775.16	41543.05
775.34	41420.17
775.53	41446.79
775.71	41526.66
775.89	41295.24
776.08	41497.99
776.26	41735.56
776.44	41581.96
776.62	41612.68
776.81	41112.97
776.99	41129.36
777.17	41561.48
777.35	41520.52
777.54	41481.61
777.72	41151.88
777.90	41342.35
778.08	41790.85
778.27	41137.55
778.45	41448.84
778.63	42003.84
778.81	41244.04
779.00	42003.84
779.18	41743.75
779.36	42165.63
779.54	41528.71
779.73	41829.76
779.91	42110.33
780.09	41788.80
780.27	41899.39
780.46	41938.30
780.64	42347.90
780.82	41958.78
781.00	41629.06
781.19	42149.24
781.37	42423.67
781.55	42343.80
781.73	42188.16
781.91	42087.81
782.10	41983.36
782.28	42335.61
782.46	42458.49
782.64	42513.78
782.82	42108.29
783.01	42460.54
783.19	42231.16
783.37	41979.26
783.55	42345.85
783.74	42653.05
783.92	42161.53
784.10	42841.46
784.28	42292.60
784.46	42128.77
784.64	42306.94
784.83	41911.68
785.01	43048.30
785.19	42503.54
785.37	42495.35
785.55	42341.75
785.74	42243.45
785.92	41921.92
786.10	42263.93
786.28	42030.46
786.46	42198.40
786.64	41985.41
786.83	42288.51
787.01	42036.61
787.19	41923.97
787.37	42151.29
787.55	42139.00
787.74	41858.43
787.92	41627.01
788.10	41383.30
788.28	41233.80
788.46	41792.90
788.64	41072.01
788.82	41629.06
789.01	41323.91
789.19	41485.70
789.37	41426.31
789.55	41526.66
789.73	41194.89
789.91	40805.78
790.09	41186.70
790.28	40789.39
790.46	40635.80
790.64	40990.09
790.82	40584.60
791.00	40349.08
791.18	40527.25
791.36	40945.04
791.55	40908.18
791.73	40418.71
791.91	40342.94
792.09	40762.77
792.27	40097.18
792.45	40080.80
792.63	40172.96
792.81	39896.48
793.00	39785.89
793.18	39693.73
793.36	39554.47
793.54	39558.56
793.72	39161.26
793.90	39447.97
794.08	39452.07
794.26	39181.74
794.44	39118.25
794.62	38546.87
794.81	39359.91
794.99	39095.72
795.17	39146.92
795.35	39069.10
795.53	38978.99
795.71	38778.29
795.89	38452.66
796.07	38792.62
796.25	38587.83
796.43	38051.26
796.61	38008.25
796.80	38446.52
796.98	37967.29
797.16	37873.09
797.34	37975.48
797.52	37967.29
797.70	38563.25
797.88	38043.07
798.06	37748.16
798.24	37952.96
798.42	37711.30
798.60	37381.57
798.78	37297.61
798.96	37508.55
799.14	37236.17
799.32	37846.46
799.51	36750.80
799.69	37031.37
799.87	36873.68
800.05	36832.72
800.23	36754.90
800.41	36443.60
800.59	36785.61
800.77	36560.34
800.95	36251.09
801.13	36572.63
801.31	36165.08
801.49	36267.48
801.67	36044.25
801.85	36412.88
802.03	35886.56
802.21	35759.58
802.39	35562.98
802.57	35927.52
802.75	35771.87
802.93	35962.33
803.11	35882.46
803.29	35300.84
803.47	35358.18
803.65	35431.91
803.83	35378.66
804.01	35315.17
804.19	35075.56
804.37	34874.86
804.55	34704.88
804.73	34858.48
804.91	34790.89
805.09	34616.82
805.27	34625.01
805.45	34928.11
805.63	34670.06
805.81	34305.52
805.99	34780.65
806.17	34645.49
806.35	34481.65
806.53	34131.45
806.71	34221.56
806.89	34358.77
807.07	34115.06
807.25	34229.75
807.43	33838.59
807.61	33943.03
807.79	33947.13
807.97	33463.81
808.15	33461.76
808.33	33127.94
808.51	33695.23
808.69	33396.23
808.87	33074.70
809.05	33041.93
809.23	33060.36
809.41	32683.53
809.59	32636.43
809.77	32873.99
809.95	32626.19
810.13	32476.69
810.31	32476.69
810.49	32753.16
810.67	32392.72
810.84	32468.50
811.02	32566.80
811.20	32210.45
811.38	32540.18
811.56	32026.14
811.74	32435.73
811.92	32136.73
812.10	32251.41
812.28	32478.74
812.46	31989.27
812.64	31931.93
812.82	31739.42
813.00	31737.37
813.18	31895.07
813.36	31579.68
813.53	31278.63
813.71	31555.10
813.89	31505.95
814.07	31581.73
814.25	31553.05
814.43	31151.65
814.61	30924.33
814.79	30821.93
814.97	30848.55
815.15	31004.20
815.33	30654.00
815.50	30955.05
815.68	30973.48
815.86	30903.85
816.04	30610.99
816.22	30668.33
816.40	30834.22
816.58	30889.51
816.76	30334.51
816.94	30457.39
817.11	30287.41
817.29	30469.68
817.47	30219.83
817.65	30055.99
817.83	30193.20
818.01	29920.82
818.19	29933.11
818.37	29961.78
818.54	29908.54
818.72	29808.19
818.90	29531.71
819.08	29740.60
819.26	29742.65
819.44	29836.86
819.62	30000.69
819.80	29437.50
819.97	29673.02
820.15	29589.05
820.33	29437.50
820.51	29795.90
820.69	29341.25
820.87	29380.16
821.05	29408.83
821.22	29443.65
821.40	29281.86
821.58	29191.75
821.76	29206.08
821.94	28927.56
822.12	29169.22
822.29	29234.75
822.47	28786.25
822.65	28935.75
822.83	28882.50
823.01	28921.41
823.19	28603.98
823.36	28522.06
823.54	28286.54
823.72	28448.33
823.90	28663.37
824.08	28405.33
824.25	28442.19
824.43	28288.59
824.61	28477.01
824.79	28253.78
824.97	28235.35
825.15	28294.74
825.32	28016.21
825.50	28225.11
825.68	27969.11
825.86	28390.99
826.04	27958.87
826.21	27643.48
826.39	28071.51
826.57	28001.88
826.75	28214.87
826.93	27694.68
827.10	27899.48
827.28	27719.26
827.46	28106.32
827.64	27577.95
827.81	27678.30
827.99	27565.66
828.17	27043.43
828.35	27276.90
828.53	27414.11
828.70	27358.81
828.88	26998.37
829.06	27104.87
829.24	27571.80
829.41	27113.06
829.59	27688.54
829.77	27303.52
829.95	27192.93
830.12	27139.68
830.30	26875.49
830.48	27119.20
830.66	27059.81
830.84	26785.38
831.01	26861.16
831.19	26893.93
831.37	26762.86
831.55	26676.84
831.72	26431.08
831.90	26648.17
832.08	26644.07
832.25	26996.32
832.43	26334.83
832.61	26416.75
832.79	26234.48
832.96	26396.27
833.14	26424.94
833.32	26680.94
833.50	26398.32
833.67	26562.15
833.85	26414.70
834.03	26345.07
834.20	26570.35
834.38	26406.51
834.56	26140.27
834.74	25757.30
834.91	26070.64
835.09	26087.03
835.27	25747.06
835.44	25884.28
835.62	25353.85
835.80	25716.34
835.98	25783.93
836.15	25529.98
836.33	25802.36
836.51	25947.76
836.68	25710.20
836.86	25804.41
837.04	25605.75
837.21	25706.10
837.39	25681.53
837.57	25730.68
837.75	25906.80
837.92	25257.60
838.10	25239.17
838.28	24837.76
838.45	25173.63
838.63	24755.85
838.81	25130.62
838.98	25083.52
839.16	24989.31
839.34	25046.66
839.51	25003.65
839.69	24833.67
839.87	24950.40
840.04	24876.68
840.22	25202.30
840.40	24696.46
840.57	24833.67
840.75	24913.54
840.93	24329.87
841.10	25022.08
841.28	24817.29
841.46	24837.76
841.63	24737.41
841.81	24462.99
841.98	24542.86
842.16	24501.90
842.34	24485.51
842.51	24399.50
842.69	24663.69
842.87	24170.13
843.04	24489.61
843.22	24286.86
843.40	24055.44
843.57	24323.72
843.75	24387.21
843.92	24000.15
844.10	24094.35
844.28	24297.10
844.45	24370.83
844.63	24198.80
844.81	23965.33
844.98	24442.51
845.16	24217.23
845.33	24589.96
845.51	23950.99
845.69	23787.16
845.86	23697.05
846.04	23723.67
846.21	23926.42
846.39	23735.96
846.57	23758.49
846.74	23643.80
846.92	23692.95
847.09	23586.46
847.27	23416.47
847.45	23883.41
847.62	23725.72
847.80	23723.67
847.97	23572.12
848.15	23344.80
848.32	23586.46
848.50	23494.30
848.68	23518.87
848.85	23389.85
849.03	22945.44
849.20	23420.57
849.38	23051.94
849.56	23357.08
849.73	22990.50
849.91	23060.13
850.08	23436.95
850.26	22640.29
850.43	22859.43
850.61	23217.82
850.78	22806.18
850.96	22910.63
851.14	22793.89
851.31	22847.14
851.49	22722.21
851.66	22826.66
851.84	22785.70
852.01	23092.90
852.19	22650.53
852.36	22668.97
852.54	22853.28
852.71	22533.80
852.89	22607.53
853.07	22613.67
853.24	22714.02
853.42	22382.25
853.59	22511.27
853.77	22251.18
853.94	22431.40
854.12	22800.04
854.29	22290.09
854.47	22638.25
854.64	22402.73
854.82	22312.62
854.99	22316.72
855.17	22269.61
855.34	22046.38
855.52	22286.00
855.69	22140.59
855.87	22253.23
856.04	22083.25
856.22	22138.54
856.39	21782.20
856.57	22079.15
856.74	21966.51
856.92	22146.73
857.09	21937.84
857.27	21755.57
857.44	21898.93
857.62	21792.44
857.79	21745.33
857.97	21726.90
858.14	21927.60
858.32	21808.82
858.49	21700.28
858.67	21872.31
858.84	21591.73
859.02	21567.16
859.19	21575.35
859.37	21311.16
859.54	21632.69
859.72	21733.04
859.89	21214.91
860.06	21661.37
860.24	21190.33
860.41	21546.68
860.59	21300.92
860.76	21380.79
860.94	20885.19
861.11	21567.16
861.29	21034.69
861.46	21087.93
861.64	21155.52
861.81	20999.87
861.98	21061.31
862.16	20987.58
862.33	20944.58
862.51	20868.80
862.68	20780.74
862.86	20661.96
863.03	20778.69
863.21	20743.88
863.38	20541.13
863.55	20618.95
863.73	20930.24
863.90	20584.13
864.08	20518.60
864.25	20643.52
864.43	20633.29
864.60	20440.78
864.77	20506.31
864.95	20377.29
865.12	20334.28
865.30	20491.98
865.47	20192.97
865.64	20516.55
865.82	20639.43
865.99	20661.96
866.17	20350.67
866.34	20401.86
866.51	20123.34
866.69	20301.51
866.86	20500.17
867.04	20258.51
867.21	20432.58
867.38	19828.43
867.56	20068.05
867.73	19844.82
867.91	20039.37
868.08	19883.73
868.25	19678.93
868.43	19896.02
868.60	19476.18
868.78	19904.21
868.95	19975.89
869.12	19541.72
869.30	19836.63
869.47	19658.45
869.64	19685.08
869.82	19850.96
869.99	19474.13
870.16	19695.32
870.34	19723.99
870.51	19676.88
870.69	19115.74
870.86	19519.19
871.03	19449.56
871.21	19107.55
871.38	19117.79
871.55	19259.10
871.73	19273.43
871.90	19132.12
872.07	19164.89
872.25	19236.57
872.42	18988.77
872.59	19019.49
872.77	18966.24
872.94	19037.92
873.11	18984.67
873.29	19023.58
873.46	18726.63
873.63	18915.04
873.81	18863.84
873.98	18505.45
874.15	18634.47
874.33	18501.35
874.50	18753.25
874.67	18548.45
874.85	18446.05
875.02	18489.06
875.19	18380.52
875.37	18329.32
875.54	18456.29
875.71	18276.07
875.88	18210.54
876.06	18357.99
876.23	18300.65
876.40	18239.21
876.58	18056.94
876.75	18188.01
876.92	18335.46
877.10	17934.06
877.27	18206.44
877.44	18081.52
877.61	17981.17
877.79	18159.34
877.96	17913.58
878.13	18018.03
878.31	17762.03
878.48	17854.19
878.65	17368.82
878.82	17694.45
879.00	17678.07
879.17	17522.42
879.34	17739.51
879.51	17284.86
879.69	17612.53
879.86	17241.85
880.03	17573.62
880.21	17196.79
880.38	17501.94
880.55	17551.09
880.72	17172.22
880.90	17301.24
881.07	17188.60
881.24	17327.86
881.41	17186.55
881.59	17139.45
881.76	17215.23
881.93	17051.39
882.10	16940.80
882.28	16944.89
882.45	17037.05
882.62	17039.10
882.79	17125.11
882.96	16641.79
883.14	17192.70
883.31	16957.18
883.48	16854.78
883.65	16994.04
883.83	17086.20
884.00	17209.08
884.17	16881.41
884.34	16969.47
884.51	16701.19
884.69	16893.69
884.86	17112.83
885.03	16973.56
885.20	16746.24
885.38	16678.66
885.55	16492.29
885.72	16584.45
885.89	16492.29
886.06	16467.72
886.24	16494.34
886.41	16305.93
886.58	16752.38
886.75	16547.59
886.92	16338.69
887.10	16619.27
887.27	16383.75
887.44	16494.34
887.61	16559.88
887.78	16639.75
887.95	16416.52
888.13	16150.28
888.30	16324.36
888.47	16238.34
888.64	16084.75
888.81	15992.59
888.99	16066.31
889.16	16111.37
889.33	16027.40
889.50	16242.44
889.67	15984.40
889.84	15806.22
890.01	15853.33
890.19	15947.53
890.36	16094.99
890.53	15945.48
890.70	15965.96
890.87	15922.96
891.04	15769.36
891.22	15562.51
891.39	15765.26
891.56	15738.64
891.73	15347.48
891.90	15554.32
892.07	15505.17
892.24	15642.39
892.42	15558.42
892.59	15632.15
892.76	15400.72
892.93	15480.60
893.10	15722.26
893.27	15531.80
893.44	15400.72
893.61	15318.81
893.79	15560.47
893.96	15312.66
894.13	15413.01
894.30	15382.29
894.47	15318.81
894.64	15564.56
894.81	15355.67
894.98	15441.68
895.15	15558.42
895.33	15206.17
895.50	15165.21
895.67	15331.09
895.84	15288.09
896.01	15345.43
896.18	15068.95
896.35	15484.69
896.52	15361.81
896.69	15327.00
896.86	15310.61
897.04	15128.35
897.21	15388.44
897.38	15169.30
897.55	15365.91
897.72	15191.83
897.89	15114.01
898.06	15331.09
898.23	15249.18
898.40	15255.32
898.57	15374.10
898.74	15279.89
898.91	15415.06
899.08	15466.26
899.26	15427.35
899.43	15275.80
899.60	15087.39
899.77	15175.45
899.94	15226.65
900.11	14989.08
900.28	15177.50
900.45	14987.04
900.62	15021.85
900.79	15255.32
900.96	14944.03
901.13	15195.93
901.30	14968.60
901.47	14860.06
901.64	15271.70
901.81	15114.01
901.98	14950.17
902.15	15058.71
902.32	15025.95
902.49	15126.30
902.66	15175.45
902.83	14954.27
903.01	15054.62
903.18	15101.72
903.35	15054.62
903.52	14962.46
903.69	15134.49
903.86	14995.23
904.03	15298.33
904.20	15032.09
904.37	15019.80
904.54	14974.75
904.71	15062.81
904.88	14890.78
905.05	14749.47
905.22	15283.99
905.39	14995.23
905.56	15034.14
905.73	14935.84
905.90	14993.18
906.07	14962.46
906.24	15148.82
906.41	15015.71
906.58	15038.23
906.75	14984.99
906.92	14786.33
907.09	14956.32
907.26	15052.57
907.43	14935.84
907.60	14827.29
907.77	15005.47
907.93	14997.28
908.10	14917.40
908.27	15052.57
908.44	14901.02
908.61	14815.01
908.78	14964.51
908.95	15077.15
909.12	15017.75
909.29	14769.95
909.46	14739.23
909.63	15091.48
909.80	15009.56
909.97	14839.58
910.14	14858.01
910.31	14782.24
910.48	14708.51
910.65	14692.13
910.82	14792.48
910.99	14790.43
911.16	14642.98
911.33	14573.35
911.50	14810.91
911.66	14561.06
911.83	14591.78
912.00	14464.80
912.17	14464.80
912.34	14563.11
912.51	14577.44
912.68	14559.01
912.85	14673.70
913.02	14411.56
913.19	14475.04
913.36	14610.21
913.53	14425.89
913.70	14425.89
913.86	14571.30
914.03	14403.36
914.20	14544.67
914.37	14290.73
914.54	14356.26
914.71	14059.31
914.88	14290.73
915.05	14245.67
915.22	14124.84
915.39	13887.28
915.55	14237.48
915.72	13827.88
915.89	14055.21
916.06	13852.46
916.23	13750.06
916.40	13938.48
916.57	13561.65
916.74	13690.67
916.91	13842.22
917.07	13549.36
917.24	13713.20
917.41	13791.02
917.58	13924.14
917.75	13721.39
917.92	13272.89
918.09	13567.79
918.26	13522.74
918.42	13553.46
918.59	13637.42
918.76	13289.27
918.93	13117.24
919.10	12963.64
919.27	13440.82
919.44	13367.09
919.60	13176.63
919.77	13252.41
919.94	13164.34
920.11	13133.62
920.28	13197.11
920.45	12920.63
920.61	12949.31
920.78	12918.59
920.95	12977.98
921.12	12924.73
921.29	12879.68
921.46	12998.46
921.62	12705.60
921.79	12926.78
921.96	12793.66
922.13	12707.65
922.30	12441.41
922.47	12404.55
922.63	12490.56
922.80	12400.45
922.97	12406.59
923.14	12265.28
923.31	12441.41
923.47	12324.68
923.64	12443.46
923.81	12080.97
923.98	12320.58
924.15	12214.09
924.32	12177.22
924.48	12209.99
924.65	12285.76
924.82	11941.71
924.99	11865.93
925.15	11786.06
925.32	11902.79
925.49	11765.58
925.66	11804.49
925.83	11765.58
925.99	11622.22
926.16	11669.33
926.33	11702.09
926.50	11607.89
926.67	11853.64
926.83	11509.58
927.00	11505.49
927.17	11298.64
927.34	11294.55
927.50	11315.03
927.67	11468.62
927.84	11145.05
928.01	11126.61
928.17	11145.05
928.34	11128.66
928.51	10930.01
928.68	10907.48
928.84	11075.42
929.01	10813.28
929.18	10764.12
929.35	10880.86
929.51	11011.93
929.68	10659.68
929.85	10618.72
930.02	10731.36
930.18	10506.08
930.35	10682.20
930.52	10413.92
930.69	10628.96
930.85	10456.93
931.02	10282.85
931.19	10401.63
931.36	10338.15
931.52	10381.15
931.69	10368.87
931.86	10233.70
932.02	10153.83
932.19	10063.72
932.36	9918.31
932.53	9871.21
932.69	9971.56
932.86	9930.60
933.03	9914.22
933.19	9627.50
933.36	9895.78
933.53	9770.86
933.70	9596.78
933.86	9553.77
934.03	9656.17
934.20	9533.29
934.36	9647.98
934.53	9240.44
934.70	9058.17
934.86	9291.63
935.03	9299.83
935.20	9129.84
935.36	9123.70
935.53	8986.49
935.70	9002.87
935.86	8931.19
936.03	8740.73
936.20	8431.49
936.36	8712.06
936.53	8544.13
936.70	8351.62
936.86	8550.27
937.03	8429.44
937.20	8249.22
937.36	8374.14
937.53	7905.16
937.70	8036.23
937.86	8081.28
938.03	7958.41
938.20	7960.45
938.36	7722.89
938.53	7647.12
938.70	7552.91
938.86	7481.23
939.03	7389.07
939.20	7260.05
939.36	7180.18
939.53	7116.69
939.70	7358.35
939.86	6872.98
940.03	6748.06
940.19	6727.58
940.36	6909.85
940.53	6928.28
940.69	6676.38
940.86	6729.63
941.03	6485.92
941.19	6356.90
941.36	6494.11
941.52	6348.70
941.69	6305.70
941.86	6324.13
942.02	6219.68
942.19	6092.71
942.35	6148.00
942.52	5994.40
942.69	6072.23
942.85	5953.45
943.02	6068.13
943.18	5898.15
943.35	5863.33
943.52	5826.47
943.68	5724.07
943.85	5816.23
944.01	5574.57
944.18	5631.91
944.35	5679.02
944.51	5652.39
944.68	5543.85
944.84	5558.19
945.01	5525.42
945.17	5394.35
945.34	5513.13
945.51	5410.73
945.67	5423.02
945.84	5468.08
946.00	5244.85
946.17	5402.54
946.33	5441.45
946.50	5279.66
946.67	5316.53
946.83	5341.10
947.00	5377.97
947.16	5459.88
947.33	5191.60
947.49	5312.43
947.66	5226.42
947.82	5308.34
947.99	5332.91
948.16	5277.62
948.32	5203.89
948.49	5429.17
948.65	5445.55
948.82	5261.23
948.98	5162.93
949.15	5263.28
949.31	5332.91
949.48	5285.81
949.64	5306.29
949.81	5398.45
949.97	5304.24
950.14	5412.78
950.30	5300.14
950.47	5361.58
950.63	5152.69
950.80	5455.79
950.96	5470.12
951.13	5308.34
951.30	5349.29
951.46	5433.26
951.63	5375.92
951.79	5361.58
951.96	5423.02
952.12	5375.92
952.29	5445.55
952.45	5472.17
952.62	5392.30
952.78	5453.74
952.94	5480.36
953.11	5459.88
953.27	5398.45
953.44	5523.37
953.60	5543.85
953.77	5547.95
953.93	5562.28
954.10	5506.99
954.26	5500.84
954.43	5349.29
954.59	5578.67
954.76	5562.28
954.92	5287.86
955.09	5492.65
955.25	5429.17
955.42	5550.00
955.58	5603.24
955.75	5490.60
955.91	5357.49
956.07	5388.21
956.24	5535.66
956.40	5423.02
956.57	5566.38
956.73	5416.88
956.90	5615.53
957.06	5562.28
957.23	5476.27
957.39	5326.77
957.56	5617.58
957.72	5359.53
957.88	5367.73
958.05	5506.99
958.21	5726.12
958.38	5332.91
958.54	5566.38
958.71	5656.49
958.87	5406.64
959.03	5492.65
959.20	5453.74
959.36	5435.31
959.53	5414.83
959.69	5439.40
959.85	5572.52
960.02	5382.06
960.18	5486.51
960.35	5492.65
960.51	5586.86
960.68	5568.43
960.84	5529.52
961.00	5431.21
961.17	5550.00
961.33	5558.19
961.50	5343.15
961.66	5484.46
961.82	5466.03
961.99	5392.30
962.15	5339.05
962.31	5570.48
962.48	5453.74
962.64	5457.84
962.81	5431.21
962.97	5371.82
963.13	5498.80
963.30	5437.36
963.46	5365.68
963.62	5418.93
963.79	5425.07
963.95	5359.53
964.12	5304.24
964.28	5443.50
964.44	5212.08
964.61	5425.07
964.77	5318.57
964.93	5447.60
965.10	5380.01
965.26	5304.24
965.42	5339.05
965.59	5324.72
965.75	5244.85
965.92	5304.24
966.08	5431.21
966.24	5414.83
966.41	5494.70
966.57	5345.20
966.73	5300.14
966.90	5437.36
967.06	5263.28
967.22	5222.32
967.39	5226.42
967.55	5224.37
967.71	5326.77
967.88	5332.91
968.04	5300.14
968.20	5259.18
968.37	5234.61
968.53	5070.77
968.69	5302.19
968.85	5398.45
969.02	5312.43
969.18	5132.21
969.34	5169.07
969.51	5289.90
969.67	5162.93
969.83	5167.03
970.00	5345.20
970.16	5152.69
970.32	5199.79
970.48	5289.90
970.65	5115.83
970.81	5226.42
970.97	5025.72
971.14	5083.06
971.30	5339.05
971.46	5054.39
971.63	5119.92
971.79	5207.98
971.95	5058.48
972.11	4954.04
972.28	5027.76
972.44	5042.10
972.60	4954.04
972.76	4974.52
972.93	4794.29
973.09	4929.46
973.25	5035.96
973.42	4902.84
973.58	4997.04
973.74	5031.86
973.90	4995.00
974.07	4923.32
974.23	4880.31
974.39	4988.85
974.55	4929.46
974.72	4890.55
974.88	4878.26
975.04	4925.36
975.20	4751.29
975.37	4960.18
975.53	4808.63
975.69	4779.96
975.85	4769.72
976.01	4800.44
976.18	4863.93
976.34	4759.48
976.50	4802.49
976.66	4960.18
976.83	4755.38
976.99	4908.98
977.15	4655.03
977.31	4624.31
977.47	4667.32
977.64	4562.87
977.80	4734.90
977.96	4695.99
978.12	4665.27
978.29	4607.93
978.45	4624.31
978.61	4657.08
978.77	4644.79
978.93	4558.78
979.10	4599.74
979.26	4642.75
979.42	4558.78
979.58	4413.37
979.74	4558.78
979.91	4554.68
980.07	4509.63
980.23	4523.96
980.39	4460.48
980.55	4528.06
980.71	4577.21
980.88	4419.52
981.04	4474.81
981.20	4444.09
981.36	4474.81
981.52	4394.94
981.68	4517.82
981.85	4515.77
982.01	4384.70
982.17	4331.45
982.33	4280.25
982.49	4413.37
982.65	4224.96
982.82	4515.77
982.98	4464.57
983.14	4186.05
983.30	4317.12
983.46	4214.72
983.62	4329.41
983.79	4212.67
983.95	4186.05
984.11	4218.82
984.27	4196.29
984.43	4263.87
984.59	4159.42
984.75	4255.68
984.91	4214.72
985.08	4296.64
985.24	4138.94
985.40	4024.26
985.56	4143.04
985.72	4143.04
985.88	4114.37
986.04	4046.79
986.20	4177.86
986.37	4050.88
986.53	3981.25
986.69	4081.60
986.85	4028.35
987.01	3946.44
987.17	4212.67
987.33	3995.59
987.49	3960.77
987.65	3946.44
987.82	4014.02
987.98	3971.01
988.14	4143.04
988.30	4102.08
988.46	3993.54
988.62	4046.79
988.78	4042.69
988.94	4005.83
989.10	3872.71
989.26	3876.80
989.42	3876.80
989.59	3803.08
989.75	3903.43
989.91	3944.39
990.07	3717.06
990.23	3854.28
990.39	3872.71
990.55	3846.09
990.71	3723.21
990.87	3870.66
991.03	3825.61
991.19	3731.40
991.35	3755.97
991.51	3682.25
991.67	3923.91
991.83	3780.55
992.00	3631.05
992.16	3731.40
992.32	3665.86
992.48	3854.28
992.64	3805.13
992.80	3788.74
992.96	3727.30
993.12	3649.48
993.28	3721.16
993.44	3598.28
993.60	3674.06
993.76	3649.48
993.92	3690.44
994.08	3688.39
994.24	3762.12
994.40	3497.93
994.56	3633.10
994.72	3563.47
994.88	3624.90
995.04	3700.68
995.20	3600.33
995.36	3416.01
995.52	3637.19
995.68	3573.71
995.84	3532.75
996.00	3571.66
996.16	3510.22
996.32	3420.11
996.48	3516.36
996.64	3456.97
996.80	3448.78
996.96	3567.56
997.12	3461.07
997.28	3420.11
997.44	3428.30
997.60	3465.16
997.76	3514.31
997.92	3442.64
998.08	3467.21
998.24	3442.64
998.40	3459.02
998.56	3426.25
998.72	3254.22
998.88	3403.72
999.04	3450.83
999.20	3436.49
999.36	3194.83
999.52	3440.59
999.68	3323.85
999.84	3397.58
1000.00	3311.57
1000.16	3397.58
1000.32	3264.46
1000.48	3444.68
1000.64	3145.68
1000.80	3145.68
1000.95	3186.64
1001.11	3215.31
1001.27	3198.93
1001.43	3237.84
1001.59	3123.15
1001.75	3221.45
1001.91	3137.49
1002.07	3151.82
1002.23	3157.97
1002.39	3172.30
1002.55	3100.62
1002.71	3090.38
1002.87	3241.93
1003.03	3074.00
1003.19	3127.25
1003.34	3108.82
1003.50	3133.39
1003.66	3170.26
1003.82	3141.58
1003.98	2992.08
1004.14	3145.68
1004.30	3002.32
1004.46	2949.08
1004.62	3071.95
1004.78	3082.19
1004.94	2977.75
1005.09	2957.27
1005.25	3137.49
1005.41	3041.23
1005.57	3022.80
1005.73	3024.85
1005.89	2926.55
1006.05	2985.94
1006.21	3067.86
1006.37	2944.98
1006.52	3041.23
1006.68	2854.87
1006.84	3008.47
1007.00	2916.31
1007.16	2961.36
1007.32	2783.19
1007.48	2852.82
1007.64	2906.07
1007.79	2891.73
1007.95	2875.35
1008.11	2994.13
1008.27	2856.92
1008.43	2908.12
1008.59	2834.39
1008.75	2856.92
1008.91	2916.31
1009.06	2863.06
1009.22	2936.79
1009.38	2916.31
1009.54	2826.20
1009.70	2736.09
1009.86	2822.10
1010.01	2871.25
1010.17	2781.14
1010.33	2861.01
1010.49	2844.63
1010.65	2840.53
1010.81	2725.85
1010.96	2736.09
1011.12	2680.79
1011.28	2789.33
1011.44	2801.62
1011.60	2723.80
1011.76	2631.64
1011.91	2719.70
1012.07	2693.08
1012.23	2650.07
1012.39	2707.41
1012.55	2717.65
1012.71	2615.26
1012.86	2621.40
1013.02	2709.46
1013.18	2699.22
1013.34	2723.80
1013.50	2719.70
1013.65	2688.98
1013.81	2668.50
1013.97	2633.69
1014.13	2672.60
1014.29	2605.02
1014.44	2650.07
1014.60	2623.45
1014.76	2566.10
1014.92	2572.25
1015.07	2519.00
1015.23	2545.63
1015.39	2572.25
1015.55	2547.67
1015.71	2605.02
1015.86	2478.04
1016.02	2379.74
1016.18	2394.08
1016.34	2516.95
1016.49	2537.43
1016.65	2512.86
1016.81	2469.85
1016.97	2488.28
1017.12	2619.35
1017.28	2406.36
1017.44	2416.60
1017.60	2519.00
1017.75	2490.33
1017.91	2482.14
1018.07	2392.03
1018.23	2607.06
1018.38	2494.43
1018.54	2525.15
1018.70	2519.00
1018.86	2402.27
1019.01	2394.08
1019.17	2445.27
1019.33	2469.85
1019.49	2428.89
1019.64	2455.51
1019.80	2469.85
1019.96	2379.74
1020.12	2455.51
1020.27	2363.36
1020.43	2406.36
1020.59	2394.08
1020.74	2430.94
1020.90	2426.84
1021.06	2306.01
1021.22	2418.65
1021.37	2357.21
1021.53	2375.64
1021.69	2398.17
1021.84	2258.91
1022.00	2287.58
1022.16	2308.06
1022.31	2322.40
1022.47	2293.72
1022.63	2295.77
1022.79	2254.81
1022.94	2328.54
1023.10	2289.63
1023.26	2201.57
1023.41	2166.75
1023.57	2306.01
1023.73	2289.63
1023.88	2308.06
1024.04	2183.13
1024.20	2199.52
1024.35	2338.78
1024.51	2222.05
1024.67	2263.01
1024.82	2316.25
1024.98	2195.42
1025.14	2220.00
1025.29	2195.42
1025.45	2310.11
1025.61	2193.37
1025.76	2246.62
1025.92	2275.29
1026.08	2236.38
1026.23	2228.19
1026.39	2287.58
1026.55	2176.99
1026.70	2166.75
1026.86	2244.57
1027.02	2314.20
1027.17	2310.11
1027.33	2172.89
1027.48	2172.89
1027.64	2119.65
1027.80	2121.70
1027.95	2168.80
1028.11	2088.93
1028.27	2185.18
1028.42	2140.13
1028.58	2125.79
1028.73	2199.52
1028.89	1972.19
1029.05	2263.01
1029.20	2123.74
>>>>>End Processed Spectral Data<<<<<
