SpectraSuite Data File
++++++++++++++++++++++++++++++++++++
Date: Fri Jun 02 14:57:17 CEST 2017
User: INFO_000
Dark Spectrum Present: No
Reference Spectrum Present: No
Number of Sampled Component Spectra: 1
Spectrometers: USB4H00879
Integration Time (usec): 80000 (USB4H00879)
Spectra Averaged: 1 (USB4H00879)
Boxcar Smoothing: 0 (USB4H00879)
Correct for Electrical Dark: No (USB4H00879)
Strobe/Lamp Enabled: No (USB4H00879)
Correct for Detector Non-linearity: No (USB4H00879)
Correct for Stray Light: No (USB4H00879)
Number of Pixels in Processed Spectrum: 3648
>>>>>Begin Processed Spectral Data<<<<<
345.13	1284.08
345.34	1284.08
345.56	1284.08
345.78	1294.32
345.99	1298.41
346.21	1681.38
346.42	1763.30
346.64	1708.01
346.86	1722.34
347.07	1644.52
347.29	1789.92
347.50	1642.47
347.72	1718.25
347.94	1863.65
348.15	1546.22
348.37	1646.57
348.59	1705.96
348.80	1656.81
349.02	1667.05
349.23	1812.45
349.45	1787.88
349.67	1869.80
349.88	1755.11
350.10	1935.33
350.31	1820.64
350.53	1740.77
350.75	1867.75
350.96	1720.29
351.18	1839.08
351.39	1748.97
351.61	1773.54
351.82	1798.12
352.04	1775.59
352.26	1732.58
352.47	1892.32
352.69	1880.04
352.90	1730.53
353.12	1814.50
353.34	1761.25
353.55	1816.55
353.77	1751.01
353.98	1800.16
354.20	1787.88
354.41	1869.80
354.63	1875.94
354.85	1994.72
355.06	1804.26
355.28	1691.62
355.49	1841.12
355.71	1882.08
355.92	1794.02
356.14	1820.64
356.35	1753.06
356.57	1789.92
356.79	1812.45
357.00	1736.68
357.22	1916.90
357.43	1820.64
357.65	1925.09
357.86	1775.59
358.08	1851.36
358.29	1908.71
358.51	1892.32
358.72	1849.32
358.94	1871.84
359.16	1972.19
359.37	1865.70
359.59	1843.17
359.80	1949.67
360.02	1951.71
360.23	1929.19
360.45	1939.43
360.66	1937.38
360.88	1834.98
361.09	1841.12
361.31	1882.08
361.52	1851.36
361.74	1980.39
361.95	2007.01
362.17	1849.32
362.38	1998.82
362.60	1982.43
362.81	1957.86
363.03	1746.92
363.24	1853.41
363.46	2058.21
363.67	1927.14
363.89	1875.94
364.10	2000.87
364.32	1908.71
364.53	1992.67
364.75	1863.65
364.96	1986.53
365.18	2017.25
365.39	1955.81
365.61	1888.23
365.82	2029.54
366.04	2023.39
366.25	1812.45
366.47	1959.91
366.68	2019.30
366.90	1886.18
367.11	2072.54
367.33	1951.71
367.54	2140.13
367.76	1925.09
367.97	2093.02
368.19	1949.67
368.40	2017.25
368.62	1949.67
368.83	1970.15
369.05	1937.38
369.26	1966.05
369.48	2009.06
369.69	1945.57
369.91	2050.02
370.12	1916.90
370.33	2082.78
370.55	1978.34
370.76	2062.30
370.98	2058.21
371.19	2052.06
371.41	1978.34
371.62	2035.68
371.84	1929.19
372.05	2115.55
372.27	1964.00
372.48	2058.21
372.69	2062.30
372.91	2125.79
373.12	2119.65
373.34	1951.71
373.55	2129.89
373.77	2174.94
373.98	2004.96
374.20	2199.52
374.41	2191.33
374.62	2142.18
374.84	2142.18
375.05	2129.89
375.27	2109.41
375.48	2131.94
375.70	2133.98
375.91	2150.37
376.12	2269.15
376.34	2043.87
376.55	2156.51
376.77	2142.18
376.98	2217.95
377.19	2109.41
377.41	2103.26
377.62	2117.60
377.84	2265.05
378.05	2295.77
378.27	2170.85
378.48	2353.12
378.69	2281.44
378.91	2402.27
379.12	2209.76
379.34	2213.85
379.55	2318.30
379.76	2258.91
379.98	2164.70
380.19	2232.29
380.41	2207.71
380.62	2334.68
380.83	2211.81
381.05	2222.05
381.26	2373.60
381.47	2224.09
381.69	2273.25
381.90	2408.41
382.12	2312.16
382.33	2144.22
382.54	2189.28
382.76	2254.81
382.97	2338.78
383.19	2181.09
383.40	2400.22
383.61	2344.92
383.83	2306.01
384.04	2340.83
384.25	2318.30
384.47	2387.93
384.68	2340.83
384.89	2236.38
385.11	2287.58
385.32	2355.16
385.54	2357.21
385.75	2252.77
385.96	2402.27
386.18	2447.32
386.39	2375.64
386.60	2279.39
386.82	2432.99
387.03	2500.57
387.24	2486.23
387.46	2484.19
387.67	2523.10
387.88	2512.86
388.10	2392.03
388.31	2488.28
388.52	2533.34
388.74	2504.67
388.95	2529.24
389.16	2439.13
389.38	2539.48
389.59	2658.26
389.80	2629.59
390.02	2639.83
390.23	2625.50
390.44	2527.19
390.66	2473.95
390.87	2533.34
391.08	2576.34
391.30	2756.57
391.51	2656.22
391.72	2645.98
391.94	2662.36
392.15	2727.89
392.36	2662.36
392.58	2605.02
392.79	2652.12
393.00	2670.55
393.22	2656.22
393.43	2699.22
393.64	2725.85
393.85	2762.71
394.07	2564.06
394.28	2764.76
394.49	2891.73
394.71	2738.13
394.92	2908.12
395.13	2731.99
395.35	2729.94
395.56	2744.28
395.77	2820.05
395.98	2770.90
396.20	2842.58
396.41	2783.19
396.62	2940.88
396.84	2822.10
397.05	2949.08
397.26	2879.44
397.47	2899.92
397.69	2844.63
397.90	2944.98
398.11	3041.23
398.32	2869.20
398.54	2969.55
398.75	2928.60
398.96	2877.40
399.18	3200.98
399.39	3053.52
399.60	3045.33
399.81	2918.36
400.03	2897.88
400.24	3262.41
400.45	3030.99
400.66	3049.43
400.88	2983.89
401.09	3133.39
401.30	3026.90
401.51	3127.25
401.73	2961.36
401.94	3133.39
402.15	3172.30
402.36	3092.43
402.58	3084.24
402.79	3123.15
403.00	3090.38
403.21	3168.21
403.43	3233.74
403.64	3213.26
403.85	3143.63
404.06	3231.69
404.27	3133.39
404.49	3246.03
404.70	3143.63
404.91	3323.85
405.12	3272.65
405.34	3180.50
405.55	3370.96
405.76	3256.27
405.97	3280.85
406.19	3360.72
406.40	3235.79
406.61	3295.18
406.82	3295.18
407.03	3387.34
407.25	3276.75
407.46	3379.15
407.67	3475.40
407.88	3442.64
408.09	3395.53
408.31	3436.49
408.52	3373.00
408.73	3248.08
408.94	3332.05
409.15	3368.91
409.37	3608.52
409.58	3481.55
409.79	3557.32
410.00	3659.72
410.21	3477.45
410.43	3440.59
410.64	3405.77
410.85	3622.86
411.06	3542.99
411.27	3614.66
411.48	3639.24
411.70	3600.33
411.91	3575.75
412.12	3540.94
412.33	3565.51
412.54	3536.84
412.76	3755.97
412.97	3581.90
413.18	3522.51
413.39	3567.56
413.60	3702.73
413.81	3719.11
414.03	3579.85
414.24	3639.24
414.45	3934.15
414.66	3651.53
414.87	3745.73
415.08	3751.88
415.30	3735.50
415.51	3725.26
415.72	3794.89
415.93	3768.26
416.14	3835.85
416.35	3841.99
416.56	3784.65
416.78	3901.38
416.99	3813.32
417.20	3819.46
417.41	3979.20
417.62	3850.18
417.83	4020.16
418.04	3833.80
418.26	3997.64
418.47	3901.38
418.68	4048.83
418.89	3923.91
419.10	4239.30
419.31	4059.07
419.52	4032.45
419.73	3897.28
419.95	4114.37
420.16	3913.67
420.37	4011.97
420.58	4110.27
420.79	3889.09
421.00	4067.27
421.21	4145.09
421.42	4069.31
421.63	4151.23
421.85	4046.79
422.06	4302.78
422.27	4210.62
422.48	4175.81
422.69	4337.60
422.90	4333.50
423.11	4329.41
423.32	4341.69
423.53	4454.33
423.75	4255.68
423.96	4353.98
424.17	4437.95
424.38	4446.14
424.59	4618.17
424.80	4558.78
425.01	4433.85
425.22	4368.32
425.43	4423.61
425.64	4497.34
425.85	4636.60
426.06	4591.55
426.28	4538.30
426.49	4448.19
426.70	4556.73
426.91	4558.78
427.12	4618.17
427.33	4616.12
427.54	4655.03
427.75	4843.45
427.96	4833.21
428.17	4704.18
428.38	4763.58
428.59	4884.41
428.80	4732.86
429.01	4874.17
429.23	4820.92
429.44	5083.06
429.65	4968.37
429.86	5048.24
430.07	4790.20
430.28	4798.39
430.49	4939.70
430.70	5171.12
430.91	5164.98
431.12	5005.24
431.33	5150.64
431.54	5171.12
431.75	4976.56
431.96	5162.93
432.17	5173.17
432.38	5177.26
432.59	5310.38
432.80	5222.32
433.01	5259.18
433.22	5410.73
433.43	5236.66
433.64	5138.35
433.85	5382.06
434.06	5316.53
434.27	5142.45
434.49	5511.08
434.70	5494.70
434.91	5427.12
435.12	5441.45
435.33	5443.50
435.54	5662.63
435.75	5250.99
435.96	5500.84
436.17	5146.55
436.38	5726.12
436.59	5566.38
436.80	5484.46
437.01	5916.58
437.22	5834.66
437.43	5722.02
437.64	5478.32
437.85	5801.90
438.06	5799.85
438.27	5713.83
438.48	5662.63
438.69	5914.53
438.90	5818.28
439.11	5699.50
439.32	5828.52
439.53	5742.50
439.74	5801.90
439.95	5892.01
440.16	5859.24
440.37	5951.40
440.57	5941.16
440.78	5820.33
440.99	5910.44
441.20	5836.71
441.41	5898.15
441.62	6002.60
441.83	6010.79
442.04	6231.97
442.25	6148.00
442.46	6184.87
442.67	6416.29
442.88	6504.35
443.09	5992.36
443.30	6158.24
443.51	6078.37
443.72	6367.13
443.93	6090.66
444.14	6432.67
444.35	6094.76
444.56	6447.01
444.77	6451.10
444.98	6365.09
445.19	6363.04
445.40	6389.66
445.61	6383.52
445.81	6520.73
446.02	6664.09
446.23	6483.87
446.44	6352.80
446.65	6447.01
446.86	6596.51
447.07	6573.98
447.28	6737.82
447.49	6741.91
447.70	6520.73
447.91	6602.65
448.12	6612.89
448.33	6870.94
448.54	6817.69
448.74	6729.63
448.95	6707.10
449.16	6692.76
449.37	6963.09
449.58	6881.18
449.79	6999.96
450.00	6754.20
450.21	6926.23
450.42	7180.18
450.63	7059.35
450.84	6877.08
451.05	7061.40
451.25	7192.47
451.46	6991.77
451.67	7112.60
451.88	7204.75
452.09	7227.28
452.30	7237.52
452.51	7294.86
452.72	7430.03
452.93	7540.62
453.13	7186.32
453.34	7057.30
453.55	7499.66
453.76	7358.35
453.97	7798.66
454.18	7419.79
454.39	7659.40
454.60	7514.00
454.81	7563.15
455.01	7620.49
455.22	7335.82
455.43	7561.10
455.64	7970.69
455.85	7882.63
456.06	8112.00
456.27	7786.38
456.48	7778.19
456.68	7815.05
456.89	7970.69
457.10	8023.94
457.31	7878.54
457.52	7843.72
457.73	8017.80
457.94	8212.35
458.14	8052.61
458.35	8382.34
458.56	8255.36
458.77	8171.40
458.98	8269.70
459.19	8413.06
459.39	8329.09
459.60	8451.97
459.81	8488.83
460.02	8761.21
460.23	8554.37
460.44	8726.39
460.65	8777.59
460.85	8722.30
461.06	8828.79
461.27	8609.66
461.48	8873.85
461.69	8806.27
461.89	8642.43
462.10	8830.84
462.31	8748.92
462.52	8800.12
462.73	8888.18
462.94	9105.27
463.14	9011.06
463.35	9146.23
463.56	9713.52
463.77	9424.75
463.98	9166.71
464.18	9117.56
464.39	9412.46
464.60	9453.42
464.81	9535.34
465.02	9537.39
465.23	9789.29
465.43	9617.26
465.64	10004.33
465.85	9721.71
466.06	9725.80
466.27	10043.24
466.47	10162.02
466.68	9922.41
466.89	10090.34
467.10	10051.43
467.30	9985.90
467.51	10268.52
467.72	10401.63
467.93	10127.21
468.14	10241.89
468.34	10424.16
468.55	10415.97
468.76	10528.61
468.97	10307.43
469.17	10516.32
469.38	10940.25
469.59	10891.10
469.80	10725.21
470.01	10915.67
470.21	10891.10
470.42	11140.95
470.63	11069.27
470.84	11208.53
471.04	11392.85
471.25	11337.56
471.46	11192.15
471.67	11485.01
471.87	11460.43
472.08	11589.46
472.29	11937.61
472.50	11618.13
472.70	11564.88
472.91	11673.42
473.12	12001.10
473.33	12111.69
473.53	12111.69
473.74	11962.19
473.95	12296.00
474.16	12345.16
474.36	12152.65
474.57	12521.28
474.78	12642.11
474.99	12457.79
475.19	12685.12
475.40	12904.25
475.61	13074.23
475.81	13031.23
476.02	13182.77
476.23	12975.93
476.44	13051.70
476.64	13444.91
476.85	13748.01
477.06	13297.46
477.27	13813.55
477.47	13819.69
477.68	13870.89
477.89	13911.85
478.09	13895.47
478.30	14149.42
478.51	14038.83
478.71	14284.58
478.92	14229.29
479.13	14429.99
479.34	14575.39
479.54	14421.80
479.75	14864.16
479.96	14806.81
480.16	14780.19
480.37	14903.07
480.58	14931.74
480.78	15580.95
480.99	14958.36
481.20	15173.40
481.41	15355.67
481.61	15785.74
481.82	15677.20
482.03	15795.98
482.23	15585.04
482.44	15914.77
482.65	15855.37
482.85	16314.12
483.06	16158.47
483.27	15984.40
483.47	16307.98
483.68	16105.23
483.89	16391.94
484.09	16715.52
484.30	16660.23
484.51	16858.88
484.71	16787.20
484.92	17055.48
485.13	17368.82
485.33	17028.86
485.54	16860.93
485.75	17278.71
485.95	17272.57
486.16	17667.83
486.37	17671.92
486.57	17514.23
486.78	17633.01
486.98	17866.48
487.19	18009.84
487.40	18337.51
487.60	17948.40
487.81	18448.10
488.02	18218.73
488.22	18343.66
488.43	18294.50
488.64	18478.82
488.84	18792.16
489.05	18824.93
489.25	18732.77
489.46	19031.77
489.67	18904.80
489.87	19144.41
490.08	19035.87
490.29	19183.32
490.49	19543.77
490.70	19543.77
490.90	19566.29
491.11	19691.22
491.32	19799.76
491.52	19752.66
491.73	19881.68
491.94	19795.67
492.14	19685.08
492.35	20248.27
492.55	20319.95
492.76	20379.34
492.97	20438.73
493.17	20395.72
493.38	20903.62
493.58	21008.06
493.79	20737.73
494.00	20891.33
494.20	20768.45
494.41	20930.24
494.61	21327.55
494.82	21358.27
495.02	21210.81
495.23	21210.81
495.44	21124.80
495.64	21464.76
495.85	21524.15
496.05	21659.32
496.26	21685.94
496.47	21780.15
496.67	21870.26
496.88	22085.30
497.08	21726.90
497.29	22103.73
497.49	22019.76
497.70	22271.66
497.91	22566.57
498.11	22369.96
498.32	22574.76
498.52	22607.53
498.73	22937.25
498.93	22931.11
499.14	22896.29
499.34	22781.60
499.55	23133.86
499.76	22890.15
499.96	23174.81
500.17	22881.95
500.37	23248.54
500.58	23269.02
500.78	23410.33
500.99	23606.94
501.19	23449.24
501.40	23621.27
501.60	23373.47
501.81	23406.23
502.02	23832.21
502.22	23715.48
502.43	23981.71
502.63	24256.14
502.84	24116.88
503.04	24272.53
503.25	24194.70
503.45	24090.26
503.66	24211.09
503.86	24241.81
504.07	24456.84
504.27	24297.10
504.48	24723.08
504.68	24630.92
504.89	25015.94
505.09	24792.71
505.30	24899.20
505.50	24768.13
505.71	24790.66
505.91	25104.00
506.12	24948.36
506.32	24841.86
506.53	24960.64
506.73	25194.11
506.94	25548.41
507.14	25278.08
507.35	25427.58
507.55	25423.48
507.76	25521.79
507.96	25310.85
508.17	25527.93
508.37	25435.77
508.58	25745.02
508.78	25773.69
508.99	25884.28
509.19	26025.59
509.40	25980.53
509.60	25968.24
509.81	26400.37
510.01	26142.32
510.22	25876.09
510.42	26289.77
510.63	26429.04
510.83	26377.84
511.04	26375.79
511.24	26533.48
511.44	26375.79
511.65	26596.97
511.85	26424.94
512.06	26717.80
512.26	27016.80
512.47	26760.81
512.67	27027.04
512.88	26809.96
513.08	26699.37
513.29	27240.03
513.49	26902.12
513.69	27061.86
513.90	27344.48
514.10	27074.15
514.31	27205.22
514.51	27219.55
514.72	27084.39
514.92	27285.09
515.13	27407.97
515.33	27641.43
515.53	27453.02
515.74	27606.62
515.94	27747.93
516.15	27803.22
516.35	27811.42
516.56	28081.75
516.76	27897.43
516.96	27776.60
517.17	28304.98
517.37	28184.15
517.58	28102.23
517.78	28317.26
517.99	28347.98
518.19	28388.94
518.39	28726.86
518.60	28802.63
518.80	28685.90
519.01	28935.75
519.21	28878.41
519.41	28898.89
519.62	28743.24
519.82	29253.19
520.03	29042.24
520.23	29097.54
520.43	28898.89
520.64	29228.61
520.84	29621.82
521.05	29097.54
521.25	29673.02
521.45	29603.39
521.66	29713.98
521.86	29699.64
522.07	29197.89
522.27	29988.41
522.47	30070.33
522.68	30107.19
522.88	29998.65
523.08	30197.30
523.29	30037.56
523.49	30223.92
523.70	30420.53
523.90	30400.05
524.10	30445.10
524.31	30899.75
524.51	30490.16
524.71	30973.48
524.92	30957.10
525.12	31010.34
525.33	31135.27
525.53	31331.87
525.73	31376.93
525.94	31198.76
526.14	31178.28
526.34	31637.02
526.55	31348.26
526.75	31419.94
526.95	31950.36
527.16	31675.93
527.36	31614.49
527.56	31776.28
527.77	31733.28
527.97	31890.97
528.17	32128.53
528.38	32335.38
528.58	32493.07
528.78	32765.45
528.99	32321.04
529.19	32990.73
529.39	32613.90
529.60	32957.96
529.80	32661.01
530.00	32747.02
530.21	33080.84
530.41	33375.75
530.61	33052.17
530.82	33449.47
531.02	33308.16
531.22	33435.14
531.43	33400.32
531.63	33789.44
531.83	33945.08
532.04	34330.10
532.24	33631.74
532.44	34029.05
532.64	34008.57
532.85	34237.94
533.05	34336.24
533.25	34194.93
533.46	34233.85
533.66	34866.67
533.86	34586.10
534.07	35073.51
534.27	34708.97
534.47	35014.12
534.67	35114.47
534.88	34864.62
535.08	35151.34
535.28	35460.58
535.49	35460.58
535.69	35567.07
535.89	35263.97
536.09	35460.58
536.30	36230.62
536.50	35909.08
536.70	36124.12
536.91	35962.33
537.11	36412.88
537.31	36152.79
537.51	36353.49
537.72	36613.59
537.92	36810.19
538.12	36582.87
538.32	36345.30
538.53	36869.58
538.73	36916.68
538.93	36722.13
539.13	36992.46
539.34	36904.40
539.54	36865.49
539.74	37610.95
539.94	36992.46
540.15	37043.66
540.35	37426.63
540.55	37520.84
540.75	37342.66
540.96	37586.37
541.16	37424.58
541.36	37748.16
541.56	37602.75
541.77	38600.12
541.97	37848.51
542.17	38327.74
542.37	38108.60
542.58	38534.58
542.78	38213.05
542.98	37916.09
543.18	38473.14
543.38	39048.62
543.59	38692.27
543.79	38346.17
543.99	38669.75
544.19	38706.61
544.40	38714.80
544.60	39120.30
544.80	38880.69
545.00	38917.55
545.20	38860.21
545.41	39069.10
545.61	39038.38
545.81	39642.53
546.01	39425.45
546.21	39366.06
546.42	39126.44
546.62	39736.74
546.82	39429.54
547.02	39368.10
547.22	39886.24
547.43	39353.77
547.63	39589.28
547.83	39980.45
548.03	39478.69
548.23	39771.55
548.44	40050.08
548.64	39925.15
548.84	40091.04
549.04	40512.92
549.24	40261.02
549.45	40301.98
549.65	39949.73
549.85	40261.02
550.05	40363.42
550.25	40299.93
550.45	40828.30
550.66	40175.00
550.86	39703.97
551.06	41051.53
551.26	40854.93
551.46	40801.68
551.66	40986.00
551.87	40934.80
552.07	40756.63
552.27	41278.86
552.47	41190.80
552.67	40826.26
552.87	40869.26
553.07	40983.95
553.28	40793.49
553.48	41010.57
553.68	41006.48
553.88	41706.88
554.08	41426.31
554.28	41553.29
554.48	40924.56
554.69	41559.43
554.89	41438.60
555.09	41262.47
555.29	41141.64
555.49	41942.40
555.69	41710.98
555.89	41495.94
556.10	42046.85
556.30	41518.47
556.50	41989.50
556.70	41891.20
556.90	41866.63
557.10	42222.97
557.30	42214.78
557.50	42087.81
557.70	42143.10
557.91	42184.06
558.11	42362.23
558.31	42503.54
558.51	42175.87
558.71	42313.08
558.91	42644.85
559.11	42130.81
559.31	42235.26
559.51	42059.13
559.72	42364.28
559.92	42677.62
560.12	42153.34
560.32	42505.59
560.52	42292.60
560.72	42546.55
560.92	42859.89
561.12	42759.54
561.32	43015.54
561.52	42632.57
561.72	43341.16
561.93	42468.73
562.13	43179.37
562.33	42532.22
562.53	43359.59
562.73	42681.72
562.93	42636.66
563.13	43031.92
563.33	42743.16
563.53	43386.22
563.73	42888.56
563.93	43195.76
564.13	43771.24
564.33	43304.30
564.53	43373.93
564.74	43656.55
564.94	43279.72
565.14	43365.74
565.34	43359.59
565.54	43404.65
565.74	43449.70
565.94	43703.65
566.14	44010.85
566.34	43476.33
566.54	44004.70
566.74	43683.17
566.94	43844.96
567.14	43959.65
567.34	43085.17
567.54	44092.77
567.74	44078.43
567.94	44133.73
568.14	44053.86
568.34	44027.23
568.54	44330.33
568.74	44397.91
568.94	44008.80
569.14	44600.66
569.34	44178.78
569.54	44471.64
569.75	44234.08
569.95	44475.74
570.15	44633.43
570.35	44664.15
570.55	43898.21
570.75	44406.11
570.95	44684.63
571.15	44516.70
571.35	44782.93
571.55	44987.73
571.75	45045.07
571.95	44723.54
572.15	44784.98
572.35	45131.09
572.55	44776.79
572.75	44883.28
572.95	44967.25
573.15	45337.93
573.35	45075.79
573.55	45004.11
573.75	45204.81
573.95	45813.06
574.15	45217.10
574.35	45421.90
574.55	45796.68
574.75	45368.65
574.95	45337.93
575.15	45184.33
575.34	45567.30
575.54	45679.94
575.74	45770.05
575.94	46249.28
576.14	45886.79
576.34	46282.05
576.54	46232.89
576.74	46107.97
576.94	46036.29
577.14	46423.36
577.34	46599.48
577.54	46241.09
577.74	46406.97
577.94	46615.86
578.14	46284.09
578.34	46488.89
578.54	46159.17
578.74	46179.65
578.94	46990.64
579.14	46499.13
579.34	46708.02
579.54	47123.76
579.74	47201.58
579.94	47093.04
580.13	47004.98
580.33	46961.97
580.53	47316.27
580.73	47740.20
580.93	47346.99
581.13	47523.11
581.33	47318.32
581.53	47418.67
581.73	47469.87
581.93	47799.59
582.13	47625.51
582.33	47705.38
582.53	47402.28
582.73	47975.72
582.92	47703.34
583.12	47631.66
583.32	48028.96
583.52	47234.35
583.72	48459.04
583.92	47639.85
584.12	48061.73
584.32	48510.24
584.52	48379.17
584.72	48088.35
584.92	48925.97
585.11	48870.68
585.31	48403.74
585.51	48502.04
585.71	48250.14
585.91	48868.63
586.11	48712.98
586.31	48721.18
586.51	48891.16
586.71	48493.85
586.91	49239.31
587.10	49044.76
587.30	49085.72
587.50	49433.87
587.70	48944.41
587.90	49147.15
588.10	49366.29
588.30	48923.93
588.50	49079.57
588.69	49450.25
588.89	49589.52
589.09	49175.83
589.29	49747.21
589.49	49782.02
589.69	49173.78
589.89	49675.53
590.08	49554.70
590.28	49593.61
590.48	49569.04
590.68	49884.42
590.88	50124.04
591.08	49964.29
591.28	49648.91
591.47	50441.47
591.67	49868.04
591.87	50453.76
592.07	50148.61
592.27	49986.82
592.47	50265.34
592.67	50076.93
592.86	50029.83
593.06	50660.60
593.26	50478.33
593.46	50433.28
593.66	50464.00
593.86	50844.92
594.05	50689.27
594.25	50836.73
594.45	50332.93
594.65	50257.15
594.85	50302.21
595.05	51088.63
595.24	51254.51
595.44	50519.29
595.64	50812.15
595.84	51248.37
596.04	51287.28
596.23	51188.98
596.43	51274.99
596.63	50988.28
596.83	51713.26
597.03	51614.96
597.22	51590.38
597.42	51234.03
597.62	51418.35
597.82	51250.42
598.02	51541.23
598.21	51846.38
598.41	51258.61
598.61	51664.11
598.81	51838.18
599.01	52038.89
599.20	51801.32
599.40	51629.29
599.60	51637.48
599.80	51481.84
600.00	51809.51
600.19	52364.51
600.39	52200.68
600.59	52247.78
600.79	51926.25
600.98	51940.58
601.18	52253.92
601.38	52155.62
601.58	52620.51
601.78	52569.31
601.97	52188.39
602.17	52706.52
602.37	52450.53
602.57	52346.08
602.76	52862.17
602.96	52536.54
603.16	53007.58
603.36	52892.89
603.55	53114.07
603.75	52219.11
603.95	52933.85
604.15	52655.32
604.34	53050.58
604.54	52974.81
604.74	52632.80
604.94	53320.91
605.13	52942.04
605.33	53310.67
605.53	53101.78
605.73	53462.22
605.92	53140.69
606.12	53664.97
606.32	53222.61
606.52	53224.66
606.71	53538.00
606.91	53363.92
607.11	53421.26
607.30	53683.40
607.50	53892.30
607.70	53830.86
607.90	53933.26
608.09	53957.83
608.29	53861.58
608.49	53867.72
608.68	54158.53
608.88	54248.64
609.08	54105.29
609.28	54138.05
609.47	53984.46
609.67	54508.74
609.87	53685.45
610.06	54246.60
610.26	54017.22
610.46	54324.42
610.66	53652.69
610.85	54236.36
611.05	54330.56
611.25	54211.78
611.44	53880.01
611.64	53955.78
611.84	53798.09
612.03	54154.44
612.23	54174.92
612.43	54334.66
612.62	53828.81
612.82	54389.95
613.02	54564.03
613.21	54187.21
613.41	53984.46
613.61	54289.60
613.80	53351.63
614.00	54203.59
614.20	54035.66
614.39	54344.90
614.59	54156.49
614.79	54291.65
614.98	54338.75
615.18	54129.86
615.38	54260.93
615.57	54400.19
615.77	54785.21
615.97	54455.49
616.16	54076.61
616.36	54271.17
616.56	54361.28
616.75	54529.22
616.95	54269.12
617.15	54410.43
617.34	54310.08
617.54	54201.54
617.74	54580.42
617.93	54318.28
618.13	54334.66
618.32	54678.72
618.52	54088.90
618.72	54441.15
618.91	54332.61
619.11	53925.07
619.31	54539.46
619.50	54598.85
619.70	54146.25
619.90	54328.52
620.09	54615.23
620.29	54230.21
620.48	54123.72
620.68	54721.72
620.88	53744.84
621.07	54498.50
621.27	54654.14
621.46	54168.77
621.66	53841.10
621.86	54187.21
622.05	54195.40
622.25	54699.20
622.44	54113.48
622.64	54367.43
622.84	54408.39
623.03	53937.35
623.23	54025.42
623.42	54129.86
623.62	54353.09
623.82	54682.81
624.01	54084.81
624.21	54275.27
624.40	54281.41
624.60	54195.40
624.80	54346.95
624.99	54254.79
625.19	54017.22
625.38	54334.66
625.58	54355.14
625.77	54080.71
625.97	54551.74
626.17	54318.28
626.36	54269.12
626.56	54355.14
626.75	53662.93
626.95	54533.31
627.14	54006.98
627.34	54817.98
627.54	54228.16
627.73	54437.06
627.93	54037.70
628.12	53746.89
628.32	54197.44
628.51	54025.42
628.71	54166.73
628.90	54279.36
629.10	54445.25
629.30	54203.59
629.49	54584.51
629.69	54144.20
629.88	54265.03
630.08	54709.44
630.27	54619.33
630.47	54580.42
630.66	54334.66
630.86	54865.08
631.05	54017.22
631.25	54867.13
631.44	54736.06
631.64	54496.45
631.84	54416.58
632.03	54742.20
632.23	54652.09
632.42	54572.22
632.62	54543.55
632.81	54113.48
633.01	54602.94
633.20	54668.48
633.40	54621.37
633.59	54662.33
633.79	54498.50
633.98	54543.55
634.18	54697.15
634.37	55112.89
634.57	54877.37
634.76	54975.67
634.96	54748.35
635.15	54820.03
635.35	54707.39
635.54	54564.03
635.74	54826.17
635.93	54705.34
636.13	54912.19
636.32	54940.86
636.52	54695.10
636.71	54965.43
636.91	54715.58
637.10	55057.59
637.30	55127.22
637.49	54949.05
637.69	54682.81
637.88	55745.71
638.08	54768.83
638.27	55151.80
638.46	55082.17
638.66	54936.76
638.85	55235.77
639.05	54850.75
639.24	55612.59
639.44	54707.39
639.63	54830.27
639.83	54826.17
640.02	55192.76
640.22	55006.39
640.41	55286.96
640.61	54953.15
640.80	55153.85
640.99	55301.30
641.19	55540.91
641.38	55628.98
641.58	55133.37
641.77	54797.50
641.97	54994.10
642.16	55491.76
642.36	55432.37
642.55	55784.62
642.74	55198.90
642.94	55985.32
643.13	55491.76
643.33	55741.61
643.52	55620.78
643.72	55549.10
643.91	55268.53
644.10	55399.60
644.30	55702.70
644.49	55616.69
644.69	55678.13
644.88	55796.91
645.08	55706.80
645.27	55651.50
645.46	55573.68
645.66	55579.82
645.85	55555.25
646.05	55405.75
646.24	55686.32
646.43	55899.31
646.63	55790.76
646.82	56362.15
647.02	56147.11
647.21	55936.17
647.40	55739.57
647.60	56216.74
647.79	55923.88
647.99	56439.97
648.18	56188.07
648.37	56564.90
648.57	56095.91
648.76	56347.81
648.96	55956.65
649.15	56542.37
649.34	56505.51
649.54	56235.17
649.73	55801.00
649.92	56169.64
650.12	56231.08
650.31	56464.55
650.51	56661.15
650.70	56097.96
650.89	56267.94
651.09	56884.38
651.28	56612.00
651.47	56501.41
651.67	56595.62
651.86	56884.38
652.06	56337.57
652.25	56784.03
652.44	56372.39
652.64	56671.39
652.83	56452.26
653.02	56663.20
653.22	56734.88
653.41	56390.82
653.60	56067.24
653.80	56730.78
653.99	56687.78
654.18	56632.48
654.38	56661.15
654.57	56831.13
654.76	56718.49
654.96	56407.20
655.15	57052.31
655.34	56808.61
655.54	56243.37
655.73	56755.36
655.92	56818.84
656.12	56984.73
656.31	56669.34
656.50	56794.27
656.70	56415.40
656.89	56708.25
657.08	56917.15
657.28	56661.15
657.47	56720.54
657.66	56986.78
657.86	57046.17
658.05	57154.71
658.24	56906.91
658.43	56714.40
658.63	57113.75
658.82	57085.08
659.01	56661.15
659.21	56769.69
659.40	57054.36
659.59	56538.27
659.79	57400.47
659.98	57332.89
660.17	57029.79
660.36	56935.58
660.56	57267.35
660.75	57316.50
660.94	57156.76
661.14	57193.62
661.33	57312.41
661.52	56874.14
661.71	57447.57
661.91	57089.18
662.10	56933.53
662.29	57386.13
662.49	56915.10
662.68	57265.30
662.87	57545.87
663.06	57201.82
663.26	57349.27
663.45	57451.67
663.64	57230.49
663.83	57484.43
664.03	57189.53
664.22	57205.91
664.41	57410.71
664.60	57222.29
664.80	57283.73
664.99	57173.14
665.18	57203.86
665.37	57275.54
665.57	57423.00
665.76	57197.72
665.95	57668.75
666.14	57261.21
666.34	56951.96
666.53	57351.32
666.72	56874.14
666.91	56972.44
667.11	57070.75
667.30	57193.62
667.49	56822.94
667.68	56884.38
667.87	57156.76
668.07	57621.65
668.26	56939.68
668.45	57072.79
668.64	57009.31
668.84	57570.45
669.03	57203.86
669.22	57537.68
669.41	57382.04
669.60	57093.27
669.80	57334.93
669.99	57341.08
670.18	57107.61
670.37	57080.98
670.57	57582.74
670.76	57062.55
670.95	57177.24
671.14	57216.15
671.33	57037.98
671.53	57631.89
671.72	57345.17
671.91	56972.44
672.10	56669.34
672.29	56882.33
672.48	56673.44
672.68	57425.04
672.87	56761.50
673.06	57150.62
673.25	56644.77
673.44	57070.75
673.64	56755.36
673.83	56976.54
674.02	56806.56
674.21	56800.41
674.40	57390.23
674.59	56880.28
674.79	57111.70
674.98	56482.98
675.17	57074.84
675.36	56886.43
675.55	56966.30
675.74	56853.66
675.94	56609.95
676.13	57173.14
676.32	56880.28
676.51	57164.95
676.70	56908.96
676.89	56597.66
677.08	56847.52
677.28	56525.99
677.47	57037.98
677.66	56915.10
677.85	56626.34
678.04	57351.32
678.23	56804.51
678.42	56892.57
678.62	56263.85
678.81	56648.86
679.00	56368.29
679.19	57255.06
679.38	56669.34
679.57	56652.96
679.76	56511.65
679.96	56814.75
680.15	57054.36
680.34	56595.62
680.53	56571.04
680.72	56439.97
680.91	57136.28
681.10	56274.09
681.29	56417.44
681.48	56161.45
681.68	56276.13
681.87	56442.02
682.06	56601.76
682.25	55889.07
682.44	56194.21
682.63	56513.70
682.82	56120.49
683.01	55874.73
683.20	55942.31
683.39	56226.98
683.59	56011.95
683.78	55930.03
683.97	55674.03
684.16	56155.30
684.35	55598.26
684.54	56009.90
684.73	55807.15
684.92	55608.50
685.11	55874.73
685.30	55758.00
685.49	56157.35
685.69	55602.35
685.88	55735.47
686.07	55512.24
686.26	55780.52
686.45	55616.69
686.64	55997.61
686.83	55717.04
687.02	56245.41
687.21	55862.44
687.40	55276.72
687.59	55633.07
687.78	55436.47
687.97	55741.61
688.16	55559.34
688.35	55514.29
688.54	55168.18
688.74	55252.15
688.93	54971.58
689.12	55395.51
689.31	55342.26
689.50	55289.01
689.69	55131.32
689.88	54990.01
690.07	55618.74
690.26	55473.33
690.45	55215.29
690.64	54981.82
690.83	54871.23
691.02	54901.95
691.21	54985.91
691.40	54791.36
691.59	55033.02
691.78	54803.64
691.97	55159.99
692.16	55090.36
692.35	55121.08
692.54	54889.66
692.73	55125.17
692.92	55530.67
693.11	54604.99
693.30	54660.29
693.49	54699.20
693.68	54803.64
693.87	54916.28
694.06	54506.69
694.25	54295.75
694.44	54766.78
694.63	54416.58
694.82	54525.12
695.01	54279.36
695.20	54279.36
695.39	53818.57
695.58	54285.51
695.77	54301.89
695.96	54373.57
696.15	54271.17
696.34	54144.20
696.53	53955.78
696.72	54076.61
696.91	54527.17
697.10	54408.39
697.29	54095.05
697.48	54197.44
697.67	53576.91
697.86	53523.66
698.05	53923.02
698.24	54109.38
698.43	53380.31
698.62	54031.56
698.81	53601.49
699.00	54031.56
699.19	53497.04
699.38	53888.20
699.57	52983.00
699.76	53787.85
699.95	53654.73
700.14	53796.04
700.32	53593.29
700.51	53353.68
700.70	53724.36
700.89	53644.49
701.08	54168.77
701.27	53288.15
701.46	53697.74
701.65	53011.67
701.84	53456.08
702.03	53306.58
702.22	53222.61
702.41	53327.06
702.60	53120.21
702.79	52606.17
702.98	53296.34
703.17	53314.77
703.35	53540.05
703.54	53325.01
703.73	53505.23
703.92	52901.08
704.11	52952.28
704.30	52405.47
704.49	52479.20
704.68	52679.90
704.87	53064.92
705.06	52460.77
705.25	52817.11
705.43	52604.13
705.62	52669.66
705.81	53179.60
706.00	52501.73
706.19	52124.90
706.38	52233.44
706.57	52483.30
706.76	52505.82
706.95	52178.15
707.14	52202.72
707.32	52157.67
707.51	52241.63
707.70	52225.25
707.89	52391.14
708.08	52401.38
708.27	52643.04
708.46	52460.77
708.65	51961.06
708.84	52188.39
709.02	52475.10
709.21	52372.70
709.40	52425.95
709.59	52311.27
709.78	51676.40
709.97	52172.00
710.16	52094.18
710.34	52331.75
710.53	52292.83
710.72	51682.54
710.91	52004.07
711.10	51803.37
711.29	52327.65
711.48	51848.42
711.66	51610.86
711.85	51877.10
712.04	51594.48
712.23	51539.18
712.42	51522.80
712.61	51858.66
712.80	51455.21
712.98	51805.42
713.17	51680.49
713.36	51469.55
713.55	51295.47
713.74	51522.80
713.93	51389.68
714.11	51584.24
714.30	51182.84
714.49	51229.94
714.68	51782.89
714.87	51379.44
715.06	51473.65
715.24	51475.69
715.43	51223.79
715.62	51111.16
715.81	50889.98
716.00	51076.34
716.18	50910.46
716.37	50812.15
716.56	50912.50
716.75	51244.27
716.94	50914.55
717.12	50550.01
717.31	51115.25
717.50	50752.76
717.69	50853.11
717.88	50535.68
718.06	50681.08
718.25	51098.87
718.44	50623.74
718.63	50683.13
718.82	50445.57
719.00	50535.68
719.19	50646.27
719.38	50365.70
719.57	50457.85
719.76	49605.90
719.94	50126.08
720.13	50267.39
720.32	49927.43
720.51	50099.46
720.69	49923.33
720.88	50091.27
721.07	50115.84
721.26	49464.59
721.44	49677.58
721.63	49747.21
721.82	49536.27
722.01	49415.44
722.20	49792.26
722.38	49323.28
722.57	49448.21
722.76	49599.76
722.95	49468.69
723.13	48514.33
723.32	49374.48
723.51	48694.55
723.70	48698.65
723.88	49208.59
724.07	48971.03
724.26	48999.70
724.44	48162.08
724.63	48712.98
724.82	49098.00
725.01	48803.10
725.19	49194.26
725.38	48968.98
725.57	48649.50
725.76	48647.45
725.94	48680.22
726.13	48882.97
726.32	48684.31
726.51	48684.31
726.69	48788.76
726.88	48860.44
727.07	48481.56
727.25	48301.34
727.44	48872.73
727.63	48383.26
727.82	48463.13
728.00	48725.27
728.19	47973.67
728.38	48856.34
728.56	48037.16
728.75	48725.27
728.94	48018.72
729.12	48266.53
729.31	48649.50
729.50	48205.09
729.69	48471.32
729.87	48794.90
730.06	48534.81
730.25	48383.26
730.43	48809.24
730.62	48575.77
730.81	48633.11
730.99	48842.01
731.18	48428.32
731.37	48436.51
731.55	48669.98
731.74	48940.31
731.93	48792.86
732.11	48547.10
732.30	48403.74
732.49	48157.99
732.67	48561.44
732.86	48127.27
733.05	48696.60
733.23	48166.18
733.42	48014.63
733.61	47891.75
733.79	48495.90
733.98	48930.07
734.17	48524.57
734.35	48303.39
734.54	48641.31
734.73	48758.04
734.91	48340.25
735.10	47826.21
735.29	48325.92
735.47	47854.89
735.66	48184.61
735.84	48571.67
736.03	47940.90
736.22	48768.28
736.40	48188.70
736.59	48172.32
736.78	48045.35
736.96	48274.72
737.15	47932.71
737.33	47830.31
737.52	47756.58
737.71	47772.97
737.89	48174.37
738.08	47555.88
738.27	47406.38
738.45	48389.41
738.64	47764.78
738.82	47924.52
739.01	47516.97
739.20	47768.87
739.38	47734.06
739.57	47838.50
739.75	48110.88
739.94	47686.95
740.13	48227.62
740.31	47572.27
740.50	47574.31
740.68	47709.48
740.87	47897.89
741.06	48272.67
741.24	47584.55
741.43	47682.86
741.61	48096.55
741.80	47484.20
741.99	47508.78
742.17	47260.97
742.36	47420.72
742.54	47177.01
742.73	47252.78
742.91	47578.41
743.10	47234.35
743.29	47656.23
743.47	47572.27
743.66	46964.02
743.84	47506.73
744.03	47158.58
744.21	46984.50
744.40	47947.04
744.59	46978.36
744.77	46740.79
744.96	47283.50
745.14	47095.09
745.33	47095.09
745.51	47166.77
745.70	46968.12
745.88	47193.39
746.07	46716.22
746.26	46570.81
746.44	47424.81
746.63	46951.73
746.81	46916.92
747.00	46515.51
747.18	46880.05
747.37	46560.57
747.55	46785.85
747.74	46820.66
747.92	46798.13
748.11	46652.73
748.29	46814.52
748.48	46562.62
748.66	46380.35
748.85	46431.55
749.03	46775.61
749.22	46355.77
749.41	46511.42
749.59	46458.17
749.78	46220.61
749.96	46019.91
750.15	46220.61
750.33	46615.86
750.52	46300.48
750.70	46396.73
750.89	45927.75
751.07	45952.32
751.26	46417.21
751.44	45712.71
751.63	46458.17
751.81	45974.85
752.00	45856.07
752.18	45843.78
752.37	45968.71
752.55	46099.78
752.74	46044.48
752.92	45784.39
753.10	45538.63
753.29	46067.01
753.47	45727.05
753.66	45251.92
753.84	45741.38
754.03	45462.86
754.21	45417.80
754.40	45667.66
754.58	45622.60
754.77	45589.83
754.95	45555.02
755.14	45710.66
755.32	45524.30
755.51	45118.80
755.69	44778.84
755.88	45122.90
756.06	45137.23
756.24	45086.03
756.43	45122.90
756.61	45022.54
756.80	44823.89
756.98	45024.59
757.17	44737.88
757.35	45008.21
757.54	44819.80
757.72	45016.40
757.90	45163.85
758.09	44610.90
758.27	44762.45
758.46	44850.52
758.64	44864.85
758.83	44938.58
759.01	44399.96
759.19	44717.40
759.38	44356.96
759.56	44873.04
759.75	44541.27
759.93	44604.76
760.12	44547.42
760.30	44397.91
760.48	44258.65
760.67	44002.66
760.85	44113.25
761.04	44492.12
761.22	44879.19
761.40	44062.05
761.59	44111.20
761.77	44137.82
761.96	43857.25
762.14	43883.87
762.32	43451.75
762.51	43717.99
762.69	43836.77
762.88	43568.49
763.06	43908.45
763.24	43959.65
763.43	43951.46
763.61	43494.76
763.80	43863.39
763.98	43332.97
764.16	43705.70
764.35	43302.25
764.53	43195.76
764.72	43611.49
764.90	43167.09
765.08	43543.91
765.27	43230.57
765.45	42831.22
765.63	42632.57
765.82	43257.20
766.00	42827.12
766.18	42792.31
766.37	43400.55
766.55	42909.04
766.74	42954.10
766.92	42988.91
767.10	42638.71
767.29	42560.89
767.47	42718.58
767.65	42507.64
767.84	42278.27
768.02	42952.05
768.20	42329.47
768.39	42190.20
768.57	42507.64
768.75	42665.33
768.94	42478.97
769.12	42661.24
769.30	41991.55
769.49	42048.89
769.67	42235.26
769.85	41813.38
770.04	41981.31
770.22	41624.96
770.40	41735.56
770.59	41921.92
770.77	42057.09
770.95	41608.58
771.14	41561.48
771.32	41434.50
771.50	41395.59
771.69	41057.68
771.87	41760.13
772.05	41428.36
772.24	41088.40
772.42	41102.73
772.60	41483.66
772.78	40983.95
772.97	41452.94
773.15	41018.77
773.33	41454.98
773.52	40965.52
773.70	41516.42
773.88	41180.56
774.07	41256.33
774.25	40988.05
774.43	40979.85
774.61	40932.75
774.80	41512.33
774.98	41502.09
775.16	41160.08
775.34	41022.86
775.53	40674.71
775.71	41434.50
775.89	41571.72
776.08	41190.80
776.26	41172.36
776.44	41389.45
776.62	41399.69
776.81	40760.72
776.99	41223.56
777.17	40967.57
777.35	40998.29
777.54	41090.44
777.72	40891.79
777.90	41198.99
778.08	41268.62
778.27	41139.60
778.45	41100.68
778.63	41543.05
778.81	41039.25
779.00	41670.02
779.18	41602.44
779.36	41823.62
779.54	41379.21
779.73	41274.76
779.91	41641.35
780.09	41383.30
780.27	41954.69
780.46	41491.85
780.64	41895.30
780.82	41657.73
781.00	41514.37
781.19	41571.72
781.37	42272.12
781.55	41584.01
781.73	42132.86
781.91	41960.83
782.10	41751.94
782.28	41729.41
782.46	41876.86
782.64	42044.80
782.82	41735.56
783.01	41883.01
783.19	41801.09
783.37	42009.98
783.55	41323.91
783.74	41536.90
783.92	41893.25
784.10	42257.79
784.28	41756.03
784.46	41426.31
784.64	41895.30
784.83	42040.70
785.01	41844.10
785.19	41809.28
785.37	41891.20
785.55	41473.42
785.74	41571.72
785.92	41299.34
786.10	42005.89
786.28	41239.95
786.46	41899.39
786.64	41379.21
786.83	41661.83
787.01	41862.53
787.19	41411.98
787.37	41373.06
787.55	41448.84
787.74	41258.38
787.92	41567.62
788.10	41043.34
788.28	41110.92
788.46	40965.52
788.64	40379.80
788.82	41176.46
789.01	40992.14
789.19	40959.38
789.37	40775.06
789.55	40967.57
789.73	40474.01
789.91	40639.89
790.09	40172.96
790.28	40140.19
790.46	40285.59
790.64	40353.18
790.82	40514.97
791.00	40119.71
791.18	40009.12
791.36	39544.23
791.55	40181.15
791.73	40033.69
791.91	39622.05
792.09	40150.43
792.27	39843.23
792.45	39554.47
792.63	39712.16
792.81	39507.37
793.00	39458.21
793.18	39552.42
793.36	39144.87
793.54	39118.25
793.72	38866.35
793.90	39304.62
794.08	38786.48
794.26	39110.06
794.44	38036.92
794.62	38843.82
794.81	38581.68
794.99	38778.29
795.17	38600.12
795.35	38360.50
795.53	38481.33
795.71	38041.02
795.89	38110.65
796.07	37961.15
796.25	37629.38
796.43	37410.25
796.61	37674.43
796.80	37762.50
796.98	37758.40
797.16	37207.50
797.34	37664.19
797.52	37268.94
797.70	37637.57
797.88	37123.53
798.06	37146.06
798.24	37082.57
798.42	36865.49
798.60	37246.41
798.78	36980.17
798.96	36695.50
799.14	36314.58
799.32	36799.95
799.51	36134.36
799.69	36593.11
799.87	36337.11
800.05	35919.32
800.23	36005.34
800.41	35958.24
800.59	35648.99
800.77	35827.17
800.95	35429.86
801.13	35825.12
801.31	35487.20
801.49	35730.91
801.67	35692.00
801.85	35476.96
802.03	35427.81
802.21	35112.42
802.39	35212.77
802.57	34891.24
802.75	35288.55
802.93	34928.11
803.11	34817.52
803.29	34766.32
803.47	34780.65
803.65	34792.94
803.83	34858.48
804.01	34530.80
804.19	34178.55
804.37	34418.16
804.55	34205.17
804.73	34364.92
804.91	34115.06
805.09	34033.14
805.27	34258.42
805.45	33953.27
805.63	34270.71
805.81	34057.72
805.99	34010.62
806.17	33943.03
806.35	33783.29
806.53	33314.31
806.71	33791.48
806.89	33728.00
807.07	33451.52
807.25	33623.55
807.43	32990.73
807.61	33525.25
807.79	33197.57
807.97	32593.42
808.15	32685.58
808.33	32847.37
808.51	32833.04
808.69	33007.11
808.87	32531.98
809.05	32681.49
809.23	32603.66
809.41	32527.89
809.59	32441.87
809.77	32347.67
809.95	32441.87
810.13	32476.69
810.31	32054.81
810.49	32265.75
810.67	31860.25
810.84	32130.58
811.02	31884.83
811.20	31669.79
811.38	32050.71
811.56	31579.68
811.74	31807.00
811.92	31630.88
812.10	31591.97
812.28	31940.12
812.46	31215.14
812.64	31637.02
812.82	31354.40
813.00	31417.89
813.18	31753.76
813.36	30991.91
813.53	31079.97
813.71	30866.98
813.89	30940.71
814.07	31024.68
814.25	31092.26
814.43	30916.14
814.61	30420.53
814.79	30570.03
814.97	30610.99
815.15	30506.54
815.33	30424.62
815.50	30268.98
815.68	30623.28
815.86	30598.70
816.04	30182.96
816.22	30330.42
816.40	30146.10
816.58	30311.99
816.76	30002.74
816.94	29945.40
817.11	30101.04
817.29	29998.65
817.47	29881.91
817.65	29763.13
817.83	30111.28
818.01	29562.43
818.19	29533.76
818.37	29720.12
818.54	29546.05
818.72	29298.24
818.90	29261.38
819.08	29158.98
819.26	29328.96
819.44	29244.99
819.62	29754.94
819.80	29283.91
819.97	28968.52
820.15	29345.34
820.33	29068.87
820.51	29081.16
820.69	29103.68
820.87	29005.38
821.05	29132.36
821.22	28945.99
821.40	28790.34
821.58	28882.50
821.76	28945.99
821.94	28821.06
822.12	28548.68
822.29	28778.06
822.47	28730.95
822.65	28868.17
822.83	28735.05
823.01	28862.02
823.19	28585.55
823.36	28487.25
823.54	28202.58
823.72	28384.85
823.90	28071.51
824.08	28188.24
824.25	28255.82
824.43	27930.20
824.61	28010.07
824.79	28255.82
824.97	27788.89
825.15	28347.98
825.32	27907.67
825.50	27616.86
825.68	27788.89
825.86	28259.92
826.04	27717.21
826.21	27586.14
826.39	27543.13
826.57	27676.25
826.75	27569.76
826.93	27332.19
827.10	27590.24
827.28	27457.12
827.46	27536.99
827.64	27453.02
827.81	27211.36
827.99	27446.88
828.17	27440.73
828.35	27352.67
828.53	27133.54
828.70	27283.04
828.88	27205.22
829.06	27336.29
829.24	27364.96
829.41	27321.95
829.59	27469.40
829.77	27141.73
829.95	27264.61
830.12	26748.52
830.30	26992.23
830.48	26920.55
830.66	27158.11
830.84	26654.31
831.01	26797.67
831.19	26941.03
831.37	26410.60
831.55	26527.34
831.72	26590.83
831.90	26760.81
832.08	26648.17
832.25	26807.91
832.43	26525.29
832.61	26363.50
832.79	26175.09
832.96	26271.34
833.14	26222.19
833.32	26060.40
833.50	26543.72
833.67	26332.78
833.85	26424.94
834.03	25814.65
834.20	26177.14
834.38	26183.28
834.56	26375.79
834.74	26269.30
834.91	26064.50
835.09	26082.93
835.27	25917.04
835.44	25742.97
835.62	25357.95
835.80	25820.79
835.98	25843.32
836.15	25861.75
836.33	25577.08
836.51	26031.73
836.68	25437.82
836.86	25781.88
837.04	25638.52
837.21	25687.67
837.39	25656.95
837.57	25620.09
837.75	25761.40
837.92	25386.62
838.10	25366.14
838.28	25056.90
838.45	25302.65
838.63	25054.85
838.81	25273.98
838.98	25450.11
839.16	25040.51
839.34	24950.40
839.51	25220.74
839.69	24942.21
839.87	24796.81
840.04	24893.06
840.22	25257.60
840.40	25001.60
840.57	24714.89
840.75	24921.73
840.93	24843.91
841.10	24946.31
841.28	25271.93
841.46	24948.36
841.63	24727.17
841.81	24776.33
841.98	25099.90
842.16	24630.92
842.34	24700.55
842.51	24293.01
842.69	24731.27
842.87	24589.96
843.04	24835.72
843.22	24669.83
843.40	24538.76
843.57	24460.94
843.75	24645.26
843.92	24553.10
844.10	24524.43
844.28	24737.41
844.45	24563.34
844.63	24274.57
844.81	24329.87
844.98	24403.60
845.16	24254.09
845.33	24293.01
845.51	24233.61
845.69	24178.32
845.86	24188.56
846.04	23922.32
846.21	24409.74
846.39	23830.16
846.57	24020.63
846.74	24129.17
846.92	23797.40
847.09	23905.94
847.27	23766.68
847.45	23625.37
847.62	23891.60
847.80	23813.78
847.97	23946.90
848.15	23729.81
848.32	23529.11
848.50	23883.41
848.68	23674.52
848.85	23668.37
849.03	23449.24
849.20	23719.57
849.38	23711.38
849.56	23682.71
849.73	23287.45
849.91	23482.01
850.08	23576.22
850.26	23393.95
850.43	23695.00
850.61	23275.16
850.78	23275.16
850.96	23420.57
851.14	23285.40
851.31	23271.07
851.49	23086.75
851.66	23197.34
851.84	23348.89
852.01	23185.05
852.19	22910.63
852.36	23090.85
852.54	23076.51
852.71	22941.35
852.89	23041.70
853.07	23031.46
853.24	23240.35
853.42	22916.77
853.59	23314.08
853.77	22849.19
853.94	22877.86
854.12	22935.20
854.29	22660.77
854.47	23025.31
854.64	22947.49
854.82	22754.98
854.99	22711.97
855.17	22666.92
855.34	22601.38
855.52	23078.56
855.69	22898.34
855.87	22482.60
856.04	22580.90
856.22	22494.89
856.39	22380.20
856.57	22398.63
856.74	22216.36
856.92	22412.97
857.09	22423.21
857.27	22312.62
857.44	22294.19
857.62	22286.00
857.79	22720.17
857.97	22335.15
858.14	22372.01
858.32	22150.83
858.49	21982.90
858.67	22191.79
858.84	22142.64
859.02	21905.07
859.19	22009.52
859.37	22136.49
859.54	21997.23
859.72	22056.62
859.89	21923.51
860.06	22310.57
860.24	21950.13
860.41	22103.73
860.59	21544.63
860.76	21802.68
860.94	21612.21
861.11	21870.26
861.29	21903.03
861.46	21503.67
861.64	21552.82
861.81	21597.88
861.98	21567.16
862.16	21395.13
862.33	21448.38
862.51	21296.83
862.68	21626.55
862.86	21536.44
863.03	21497.53
863.21	21419.71
863.38	21421.75
863.55	21221.05
863.73	21290.68
863.90	21194.43
864.08	21397.18
864.25	21286.59
864.43	21063.36
864.60	21024.45
864.77	20981.44
864.95	21155.52
865.12	20846.27
865.30	21010.11
865.47	21008.06
865.64	21124.80
865.82	20983.49
865.99	21313.21
866.17	20805.31
866.34	20969.15
866.51	20790.98
866.69	21053.12
866.86	21026.50
867.04	20893.38
867.21	20948.67
867.38	21012.16
867.56	20537.03
867.73	20532.93
867.91	20625.09
868.08	20532.93
868.25	20545.22
868.43	20444.87
868.60	20209.36
868.78	20389.58
868.95	20483.78
869.12	20371.15
869.30	20487.88
869.47	20186.83
869.64	20166.35
869.82	20199.12
869.99	19977.94
870.16	20356.81
870.34	20340.43
870.51	20442.82
870.69	19953.36
870.86	20096.72
871.03	20082.38
871.21	19975.89
871.38	19936.98
871.55	19904.21
871.73	19887.82
871.90	19771.09
872.07	19498.71
872.25	19654.36
872.42	19760.85
872.59	19746.51
872.77	19805.91
872.94	19390.17
873.11	19574.49
873.29	19521.24
873.46	19611.35
873.63	19531.48
873.81	19470.04
873.98	19300.06
874.15	19171.04
874.33	18867.94
874.50	19168.99
874.67	19160.80
874.85	19263.19
875.02	19113.69
875.19	18937.57
875.37	19189.47
875.54	18882.27
875.71	18970.33
875.88	18829.02
876.06	18988.77
876.23	18700.00
876.40	18804.45
876.58	18650.85
876.75	18743.01
876.92	18783.97
877.10	18679.52
877.27	18476.77
877.44	18495.21
877.61	18482.92
877.79	18536.17
877.96	18357.99
878.13	18622.18
878.31	18296.55
878.48	18253.55
878.65	18114.28
878.82	18288.36
879.00	18136.81
879.17	18202.35
879.34	18489.06
879.51	17866.48
879.69	18063.08
879.86	17848.05
880.03	17774.32
880.21	18050.80
880.38	17886.96
880.55	17895.15
880.72	17903.34
880.90	17790.70
881.07	17895.15
881.24	17831.66
881.41	17700.59
881.59	17819.38
881.76	17571.57
881.93	17807.09
882.10	17579.76
882.28	17532.66
882.45	17549.04
882.62	17651.44
882.79	17622.77
882.96	17286.90
883.14	17532.66
883.31	17540.85
883.48	17579.76
883.65	17530.61
883.83	17518.32
884.00	17415.93
884.17	17553.14
884.34	17483.51
884.51	17489.65
884.69	17383.16
884.86	17460.98
885.03	17202.94
885.20	17016.57
885.38	17192.70
885.55	17108.73
885.72	17338.10
885.89	16922.37
886.06	17016.57
886.24	16948.99
886.41	17061.63
886.58	17172.22
886.75	17405.69
886.92	17270.52
887.10	17006.33
887.27	17088.25
887.44	17299.19
887.61	17276.66
887.78	16948.99
887.95	16973.56
888.13	16918.27
888.30	17008.38
888.47	16856.83
888.64	16541.44
888.81	16736.00
888.99	16979.71
889.16	16586.50
889.33	16813.82
889.50	16545.54
889.67	16688.90
889.84	16465.67
890.01	16486.15
890.19	16340.74
890.36	16520.96
890.53	16555.78
890.70	16432.90
890.87	16299.78
891.04	16400.13
891.22	16244.49
891.39	16158.47
891.56	16271.11
891.73	16084.75
891.90	16119.56
892.07	15947.53
892.24	16160.52
892.42	16086.79
892.59	16004.88
892.76	15941.39
892.93	16097.03
893.10	16162.57
893.27	15914.77
893.44	15828.75
893.61	16158.47
893.79	16094.99
893.96	15759.12
894.13	15955.72
894.30	16031.50
894.47	16037.64
894.64	16238.34
894.81	15859.47
894.98	15714.06
895.15	15826.70
895.33	15730.45
895.50	15726.35
895.67	15916.81
895.84	15914.77
896.01	15777.55
896.18	15890.19
896.35	15818.51
896.52	15992.59
896.69	15617.81
896.86	15822.61
897.04	15574.80
897.21	15867.66
897.38	15533.84
897.55	15726.35
897.72	15642.39
897.89	15714.06
898.06	15736.59
898.23	15775.50
898.40	15806.22
898.57	15685.39
898.74	15783.70
898.91	15523.60
899.08	15775.50
899.26	15691.54
899.43	15716.11
899.60	15623.95
899.77	15496.98
899.94	15519.51
900.11	15410.96
900.28	15605.52
900.45	15593.23
900.62	15603.47
900.79	15589.14
900.96	15632.15
901.13	15634.19
901.30	15384.34
901.47	15388.44
901.64	15425.30
901.81	15476.50
901.98	15554.32
902.15	15585.04
902.32	15437.59
902.49	15691.54
902.66	15421.20
902.83	15664.91
903.01	15646.48
903.18	15656.72
903.35	15449.88
903.52	15329.05
903.69	15339.29
903.86	15429.40
904.03	15273.75
904.20	15503.12
904.37	15552.27
904.54	15431.44
904.71	15488.79
904.88	15550.23
905.05	15400.72
905.22	15482.64
905.39	15601.43
905.56	15322.90
905.73	15218.46
905.90	15384.34
906.07	15208.22
906.24	15320.85
906.41	15523.60
906.58	15460.12
906.75	15218.46
906.92	15140.63
907.09	15073.05
907.26	15257.37
907.43	15236.89
907.60	15238.94
907.77	15290.13
907.93	15480.60
908.10	15370.01
908.27	15478.55
908.44	15085.34
908.61	15183.64
908.78	15130.39
908.95	15214.36
909.12	15238.94
909.29	15079.19
909.46	15351.57
909.63	15562.51
909.80	15316.76
909.97	15238.94
910.14	15152.92
910.31	15140.63
910.48	15124.25
910.65	15097.63
910.82	14987.04
910.99	15161.11
911.16	14974.75
911.33	15136.54
911.50	14952.22
911.66	14896.92
911.83	15089.43
912.00	14761.76
912.17	14753.57
912.34	14872.35
912.51	14896.92
912.68	14608.16
912.85	14874.40
913.02	14876.44
913.19	14401.32
913.36	14772.00
913.53	14718.75
913.70	14628.64
913.86	14778.14
914.03	14511.91
914.20	14583.59
914.37	14683.94
914.54	14606.11
914.71	14544.67
914.88	14522.15
915.05	14602.02
915.22	14116.65
915.39	14452.52
915.55	14550.82
915.72	14163.75
915.89	14233.38
916.06	13868.84
916.23	13915.95
916.40	14022.44
916.57	13860.65
916.74	14155.56
916.91	14061.35
917.07	13854.51
917.24	13709.10
917.41	13934.38
917.58	13924.14
917.75	13715.25
917.92	13803.31
918.09	13885.23
918.26	13721.39
918.42	13545.27
918.59	13647.66
918.76	13539.12
918.93	13389.62
919.10	13340.47
919.27	13313.84
919.44	13500.21
919.60	13477.68
919.77	13338.42
919.94	13127.48
920.11	13389.62
920.28	13270.84
920.45	13115.19
920.61	13211.45
920.78	13207.35
920.95	13195.06
921.12	12922.68
921.29	12969.79
921.46	12994.36
921.62	12781.37
921.79	12891.96
921.96	12889.92
922.13	12842.81
922.30	12740.41
922.47	12543.81
922.63	12599.10
922.80	12463.94
922.97	12513.09
923.14	12373.83
923.31	12683.07
923.47	12431.17
923.64	12631.87
923.81	12291.91
923.98	12410.69
924.15	12271.43
924.32	12236.61
924.48	12183.37
924.65	12160.84
924.82	11939.66
924.99	12025.67
925.15	12117.83
925.32	12021.58
925.49	11929.42
925.66	11931.47
925.83	12013.38
925.99	11872.07
926.16	11917.13
926.33	11704.14
926.50	11525.97
926.67	11732.81
926.83	11505.49
927.00	11452.24
927.17	11310.93
927.34	11345.75
927.50	11257.68
927.67	11507.54
927.84	11183.96
928.01	11269.97
928.17	10991.45
928.34	11235.16
928.51	11073.37
928.68	10907.48
928.84	10950.49
929.01	10897.24
929.18	10833.75
929.35	10768.22
929.51	10692.44
929.68	10581.85
929.85	10641.25
930.02	10606.43
930.18	10487.65
930.35	10542.94
930.52	10661.73
930.69	10467.17
930.85	10477.41
931.02	10297.19
931.19	10313.57
931.36	10348.39
931.52	10561.37
931.69	10135.40
931.86	10299.23
932.02	10293.09
932.19	10166.12
932.36	10026.86
932.53	10084.20
932.69	9922.41
932.86	9994.09
933.03	10065.77
933.19	9678.70
933.36	9850.73
933.53	9867.11
933.70	9576.30
933.86	9564.01
934.03	9541.49
934.20	9434.99
934.36	9336.69
934.53	9318.26
934.70	9111.41
934.86	9293.68
935.03	9047.93
935.20	9066.36
935.36	9000.82
935.53	8845.18
935.70	8996.73
935.86	8859.51
936.03	8650.62
936.20	8380.29
936.36	8638.33
936.53	8398.72
936.70	8435.58
936.86	8576.89
937.03	8253.31
937.20	8048.52
937.36	8300.42
937.53	8044.42
937.70	7950.21
937.86	7882.63
938.03	7845.77
938.20	7819.14
938.36	7573.39
938.53	7675.79
938.70	7411.60
938.86	7643.02
939.03	7387.02
939.20	7479.18
939.36	7253.91
939.53	7249.81
939.70	7344.02
939.86	6915.99
940.03	6852.50
940.19	6698.91
940.36	6668.19
940.53	6582.17
940.69	6561.69
940.86	6596.51
941.03	6467.49
941.19	6375.33
941.36	6387.61
941.52	6311.84
941.69	6305.70
941.86	6315.94
942.02	6356.90
942.19	6051.75
942.35	6223.78
942.52	5963.68
942.69	5908.39
942.85	5713.83
943.02	5734.31
943.18	5795.75
943.35	5892.01
943.52	5670.83
943.68	5660.59
943.85	5662.63
944.01	5564.33
944.18	5564.33
944.35	5636.01
944.51	5631.91
944.68	5355.44
944.84	5324.72
945.01	5386.16
945.17	5482.41
945.34	5457.84
945.51	5400.49
945.67	5418.93
945.84	5361.58
946.00	5218.22
946.17	5298.10
946.33	5224.37
946.50	5418.93
946.67	5212.08
946.83	5406.64
947.00	5461.93
947.16	5330.86
947.33	5418.93
947.49	5212.08
947.66	5205.94
947.82	5402.54
947.99	5222.32
948.16	5349.29
948.32	5162.93
948.49	5357.49
948.65	5406.64
948.82	5228.46
948.98	5224.37
949.15	5250.99
949.31	5103.54
949.48	5328.81
949.64	5207.98
949.81	5042.10
949.97	5265.33
950.14	5304.24
950.30	5074.87
950.47	5324.72
950.63	5291.95
950.80	5302.19
950.96	5140.40
951.13	5287.86
951.30	5355.44
951.46	5380.01
951.63	5269.42
951.79	5248.94
951.96	5224.37
952.12	5337.01
952.29	5320.62
952.45	5283.76
952.62	5291.95
952.78	5416.88
952.94	5250.99
953.11	5308.34
953.27	5148.59
953.44	5519.28
953.60	5449.64
953.77	5423.02
953.93	5216.18
954.10	5482.41
954.26	5361.58
954.43	5306.29
954.59	5472.17
954.76	5560.24
954.92	5275.57
955.09	5582.76
955.25	5320.62
955.42	5367.73
955.58	5590.95
955.75	5513.13
955.91	5431.21
956.07	5386.16
956.24	5367.73
956.40	5447.60
956.57	5476.27
956.73	5306.29
956.90	5373.87
957.06	5277.62
957.23	5318.57
957.39	5402.54
957.56	5445.55
957.72	5334.96
957.88	5392.30
958.05	5398.45
958.21	5468.08
958.38	5449.64
958.54	5367.73
958.71	5365.68
958.87	5474.22
959.03	5283.76
959.20	5472.17
959.36	5328.81
959.53	5384.11
959.69	5218.22
959.85	5341.10
960.02	5429.17
960.18	5410.73
960.35	5380.01
960.51	5482.41
960.68	5355.44
960.84	5427.12
961.00	5316.53
961.17	5451.69
961.33	5281.71
961.50	5326.77
961.66	5457.84
961.82	5310.38
961.99	5556.14
962.15	5318.57
962.31	5416.88
962.48	5382.06
962.64	5265.33
962.81	5222.32
962.97	5361.58
963.13	5396.40
963.30	5457.84
963.46	5287.86
963.62	5193.65
963.79	5197.74
963.95	5289.90
964.12	5261.23
964.28	5351.34
964.44	5308.34
964.61	5226.42
964.77	5322.67
964.93	5289.90
965.10	5302.19
965.26	5367.73
965.42	5291.95
965.59	5328.81
965.75	5210.03
965.92	5349.29
966.08	5259.18
966.24	5287.86
966.41	5197.74
966.57	5318.57
966.73	5255.09
966.90	5281.71
967.06	5164.98
967.22	5173.17
967.39	5140.40
967.55	5113.78
967.71	5150.64
967.88	5128.11
968.04	5042.10
968.20	5222.32
968.37	5265.33
968.53	5074.87
968.69	5140.40
968.85	5175.22
969.02	5195.70
969.18	5148.59
969.34	5060.53
969.51	5117.87
969.67	5179.31
969.83	5089.20
970.00	5164.98
970.16	4954.04
970.32	5097.39
970.48	5203.89
970.65	4960.18
970.81	5062.58
970.97	5040.05
971.14	4945.84
971.30	5173.17
971.46	4968.37
971.63	4974.52
971.79	4990.90
971.95	5013.43
972.11	4927.41
972.28	4929.46
972.44	4919.22
972.60	4859.83
972.76	5017.52
972.93	4878.26
973.09	4888.50
973.25	4933.56
973.42	4763.58
973.58	5038.00
973.74	4845.49
973.90	4878.26
974.07	4863.93
974.23	4839.35
974.39	4720.57
974.55	4708.28
974.72	4693.94
974.88	4648.89
975.04	4845.49
975.20	4784.06
975.37	4782.01
975.53	4761.53
975.69	4691.90
975.85	4710.33
976.01	4714.42
976.18	4650.94
976.34	4626.36
976.50	4802.49
976.66	4704.18
976.83	4751.29
976.99	4655.03
977.15	4601.79
977.31	4521.92
977.47	4585.40
977.64	4601.79
977.80	4648.89
977.96	4546.49
978.12	4538.30
978.29	4616.12
978.45	4560.83
978.61	4437.95
978.77	4556.73
978.93	4419.52
979.10	4450.24
979.26	4554.68
979.42	4411.32
979.58	4411.32
979.74	4345.79
979.91	4483.00
980.07	4401.08
980.23	4347.84
980.39	4413.37
980.55	4458.43
980.71	4343.74
980.88	4319.17
981.04	4300.73
981.20	4345.79
981.36	4288.45
981.52	4345.79
981.68	4321.21
981.85	4425.66
982.01	4392.89
982.17	4237.25
982.33	4394.94
982.49	4409.28
982.65	4292.54
982.82	4206.53
982.98	4288.45
983.14	4149.18
983.30	4253.63
983.46	4327.36
983.62	4313.02
983.79	4382.65
983.95	4276.16
984.11	4134.85
984.27	4175.81
984.43	4124.61
984.59	4196.29
984.75	4257.73
984.91	4202.43
985.08	4179.90
985.24	3966.92
985.40	4046.79
985.56	4083.65
985.72	4143.04
985.88	4138.94
986.04	4052.93
986.20	3975.11
986.37	4208.58
986.53	4034.50
986.69	4059.07
986.85	4003.78
987.01	4011.97
987.17	3930.05
987.33	3907.52
987.49	3950.53
987.65	4083.65
987.82	3858.37
987.98	3841.99
988.14	4005.83
988.30	4009.92
988.46	3841.99
988.62	3934.15
988.78	3921.86
988.94	3839.94
989.10	3841.99
989.26	3770.31
989.42	3901.38
989.59	3762.12
989.75	3899.33
989.91	3831.75
990.07	3614.66
990.23	3741.64
990.39	3893.19
990.55	3858.37
990.71	3686.34
990.87	3710.92
991.03	3878.85
991.19	3784.65
991.35	3659.72
991.51	3727.30
991.67	3825.61
991.83	3749.83
992.00	3694.54
992.16	3786.69
992.32	3772.36
992.48	3807.17
992.64	3567.56
992.80	3784.65
992.96	3647.43
993.12	3686.34
993.28	3629.00
993.44	3528.65
993.60	3590.09
993.76	3680.20
993.92	3551.18
994.08	3557.32
994.24	3510.22
994.40	3622.86
994.56	3456.97
994.72	3559.37
994.88	3606.47
995.04	3516.36
995.20	3508.17
995.36	3430.35
995.52	3565.51
995.68	3669.96
995.84	3459.02
996.00	3680.20
996.16	3499.98
996.32	3540.94
996.48	3493.83
996.64	3612.62
996.80	3401.68
996.96	3512.27
997.12	3375.05
997.28	3469.26
997.44	3313.61
997.60	3420.11
997.76	3420.11
997.92	3373.00
998.08	3411.92
998.24	3330.00
998.40	3391.44
998.56	3428.30
998.72	3342.28
998.88	3303.37
999.04	3311.57
999.20	3418.06
999.36	3248.08
999.52	3407.82
999.68	3248.08
999.84	3313.61
1000.00	3272.65
1000.16	3282.89
1000.32	3180.50
1000.48	3327.95
1000.64	3166.16
1000.80	3192.78
1000.95	3131.34
1001.11	3203.02
1001.27	3162.06
1001.43	3182.54
1001.59	3059.67
1001.75	3157.97
1001.91	3223.50
1002.07	3243.98
1002.23	3100.62
1002.39	3303.37
1002.55	3082.19
1002.71	3098.58
1002.87	3004.37
1003.03	3084.24
1003.19	3026.90
1003.34	3239.89
1003.50	3035.09
1003.66	3074.00
1003.82	3082.19
1003.98	3035.09
1004.14	2987.99
1004.30	2985.94
1004.46	2977.75
1004.62	3022.80
1004.78	2981.84
1004.94	2959.31
1005.09	3076.05
1005.25	3035.09
1005.41	2994.13
1005.57	3016.66
1005.73	3024.85
1005.89	2963.41
1006.05	2947.03
1006.21	2963.41
1006.37	2887.64
1006.52	2920.40
1006.68	2947.03
1006.84	3063.76
1007.00	2936.79
1007.16	2969.55
1007.32	2926.55
1007.48	2969.55
1007.64	2883.54
1007.79	2899.92
1007.95	2826.20
1008.11	2996.18
1008.27	2920.40
1008.43	2887.64
1008.59	2818.00
1008.75	2901.97
1008.91	2897.88
1009.06	2799.57
1009.22	2846.68
1009.38	2834.39
1009.54	2811.86
1009.70	2834.39
1009.86	2813.91
1010.01	2949.08
1010.17	2748.37
1010.33	2824.15
1010.49	2738.13
1010.65	2850.77
1010.81	2666.46
1010.96	2705.37
1011.12	2664.41
1011.28	2744.28
1011.44	2779.09
1011.60	2713.56
1011.76	2639.83
1011.91	2836.44
1012.07	2582.49
1012.23	2654.17
1012.39	2650.07
1012.55	2701.27
1012.71	2676.70
1012.86	2551.77
1013.02	2584.54
1013.18	2648.02
1013.34	2594.78
1013.50	2621.40
1013.65	2580.44
1013.81	2592.73
1013.97	2635.74
1014.13	2570.20
1014.29	2596.82
1014.44	2727.89
1014.60	2637.78
1014.76	2592.73
1014.92	2662.36
1015.07	2568.15
1015.23	2549.72
1015.39	2566.10
1015.55	2467.80
1015.71	2598.87
1015.86	2613.21
1016.02	2469.85
1016.18	2504.67
1016.34	2557.91
1016.49	2494.43
1016.65	2568.15
1016.81	2428.89
1016.97	2410.46
1017.12	2490.33
1017.28	2482.14
1017.44	2394.08
1017.60	2408.41
1017.75	2406.36
1017.91	2473.95
1018.07	2416.60
1018.23	2537.43
1018.38	2439.13
1018.54	2396.12
1018.70	2494.43
1018.86	2467.80
1019.01	2383.84
1019.17	2355.16
1019.33	2432.99
1019.49	2359.26
1019.64	2398.17
1019.80	2478.04
1019.96	2392.03
1020.12	2437.08
1020.27	2373.60
1020.43	2428.89
1020.59	2412.51
1020.74	2371.55
1020.90	2330.59
1021.06	2320.35
1021.22	2394.08
1021.37	2379.74
1021.53	2316.25
1021.69	2385.88
1021.84	2207.71
1022.00	2353.12
1022.16	2316.25
1022.31	2260.96
1022.47	2322.40
1022.63	2344.92
1022.79	2205.66
1022.94	2250.72
1023.10	2373.60
1023.26	2224.09
1023.41	2265.05
1023.57	2174.94
1023.73	2287.58
1023.88	2242.53
1024.04	2203.61
1024.20	2209.76
1024.35	2248.67
1024.51	2303.96
1024.67	2176.99
1024.82	2297.82
1024.98	2121.70
1025.14	2263.01
1025.29	2189.28
1025.45	2226.14
1025.61	2095.07
1025.76	2189.28
1025.92	2154.46
1026.08	2240.48
1026.23	2222.05
1026.39	2203.61
1026.55	2199.52
1026.70	2179.04
1026.86	2119.65
1027.02	2222.05
1027.17	2217.95
1027.33	2265.05
1027.48	2074.59
1027.64	2160.61
1027.80	2054.11
1027.95	2185.18
1028.11	2050.02
1028.27	2111.46
1028.42	2123.74
1028.58	2090.98
1028.73	2070.50
1028.89	2011.11
1029.05	2174.94
1029.20	2158.56
>>>>>End Processed Spectral Data<<<<<
