SpectraSuite Data File
++++++++++++++++++++++++++++++++++++
Date: Fri Jun 02 14:57:19 CEST 2017
User: INFO_000
Dark Spectrum Present: No
Reference Spectrum Present: No
Number of Sampled Component Spectra: 1
Spectrometers: USB4H00879
Integration Time (usec): 80000 (USB4H00879)
Spectra Averaged: 1 (USB4H00879)
Boxcar Smoothing: 0 (USB4H00879)
Correct for Electrical Dark: No (USB4H00879)
Strobe/Lamp Enabled: No (USB4H00879)
Correct for Detector Non-linearity: No (USB4H00879)
Correct for Stray Light: No (USB4H00879)
Number of Pixels in Processed Spectrum: 3648
>>>>>Begin Processed Spectral Data<<<<<
345.13	1304.56
345.34	1304.56
345.56	1304.56
345.78	1279.98
345.99	1300.46
346.21	1712.10
346.42	1703.91
346.64	1667.05
346.86	1748.97
347.07	1720.29
347.29	1591.27
347.50	1605.61
347.72	1710.05
347.94	1738.73
348.15	1535.98
348.37	1646.57
348.59	1617.90
348.80	1634.28
349.02	1748.97
349.23	1894.37
349.45	1873.89
349.67	1886.18
349.88	1828.84
350.10	1951.71
350.31	1845.22
350.53	1890.28
350.75	1918.95
350.96	1818.60
351.18	1830.88
351.39	1871.84
351.61	1814.50
351.82	1851.36
352.04	1968.10
352.26	1802.21
352.47	1920.99
352.69	1886.18
352.90	1843.17
353.12	1945.57
353.34	1820.64
353.55	1937.38
353.77	1902.56
353.98	1888.23
354.20	1906.66
354.41	1882.08
354.63	1920.99
354.85	2050.02
355.06	1929.19
355.28	1853.41
355.49	1839.08
355.71	1902.56
355.92	1920.99
356.14	1875.94
356.35	1802.21
356.57	1873.89
356.79	1867.75
357.00	1877.99
357.22	2060.26
357.43	1927.14
357.65	1959.91
357.86	1910.75
358.08	1959.91
358.29	1935.33
358.51	1929.19
358.72	2007.01
358.94	1931.23
359.16	1904.61
359.37	2002.91
359.59	1986.53
359.80	1982.43
360.02	1916.90
360.23	1951.71
360.45	2029.54
360.66	1918.95
360.88	1914.85
361.09	1941.47
361.31	2031.58
361.52	1875.94
361.74	1957.86
361.95	2082.78
362.17	1898.47
362.38	2025.44
362.60	2035.68
362.81	2009.06
363.03	1920.99
363.24	1976.29
363.46	2023.39
363.67	2084.83
363.89	2045.92
364.10	1953.76
364.32	2039.78
364.53	2025.44
364.75	1906.66
364.96	2031.58
365.18	2066.40
365.39	1974.24
365.61	1943.52
365.82	2084.83
366.04	1986.53
366.25	1949.67
366.47	2109.41
366.68	2027.49
366.90	1982.43
367.11	2084.83
367.33	2101.22
367.54	2119.65
367.76	1941.47
367.97	2097.12
368.19	1968.10
368.40	2072.54
368.62	2011.11
368.83	1988.58
369.05	2004.96
369.26	2050.02
369.48	2062.30
369.69	1910.75
369.91	2047.97
370.12	2060.26
370.33	2148.32
370.55	2000.87
370.76	2050.02
370.98	2093.02
371.19	2072.54
371.41	2080.74
371.62	2064.35
371.84	2023.39
372.05	2205.66
372.27	2086.88
372.48	2066.40
372.69	2144.22
372.91	2179.04
373.12	2228.19
373.34	2138.08
373.55	2072.54
373.77	2314.20
373.98	2074.59
374.20	2183.13
374.41	2187.23
374.62	2066.40
374.84	2183.13
375.05	2193.37
375.27	2275.29
375.48	2256.86
375.70	2220.00
375.91	2289.63
376.12	2308.06
376.34	2207.71
376.55	2205.66
376.77	2250.72
376.98	2172.89
377.19	2113.50
377.41	2220.00
377.62	2174.94
377.84	2244.57
378.05	2377.69
378.27	2191.33
378.48	2287.58
378.69	2353.12
378.91	2385.88
379.12	2336.73
379.34	2240.48
379.55	2312.16
379.76	2263.01
379.98	2213.85
380.19	2254.81
380.41	2293.72
380.62	2324.44
380.83	2310.11
381.05	2195.42
381.26	2412.51
381.47	2295.77
381.69	2285.53
381.90	2340.83
382.12	2256.86
382.33	2308.06
382.54	2312.16
382.76	2291.68
382.97	2357.21
383.19	2301.92
383.40	2465.75
383.61	2293.72
383.83	2279.39
384.04	2260.96
384.25	2291.68
384.47	2426.84
384.68	2531.29
384.89	2256.86
385.11	2273.25
385.32	2424.80
385.54	2349.02
385.75	2394.08
385.96	2443.23
386.18	2443.23
386.39	2420.70
386.60	2363.36
386.82	2467.80
387.03	2410.46
387.24	2486.23
387.46	2498.52
387.67	2461.66
387.88	2592.73
388.10	2394.08
388.31	2418.65
388.52	2592.73
388.74	2545.63
388.95	2508.76
389.16	2508.76
389.38	2394.08
389.59	2572.25
389.80	2609.11
390.02	2521.05
390.23	2596.82
390.44	2584.54
390.66	2578.39
390.87	2543.58
391.08	2590.68
391.30	2697.17
391.51	2668.50
391.72	2707.41
391.94	2598.87
392.15	2539.48
392.36	2547.67
392.58	2504.67
392.79	2662.36
393.00	2619.35
393.22	2678.74
393.43	2836.44
393.64	2828.24
393.85	2752.47
394.07	2678.74
394.28	2777.05
394.49	2818.00
394.71	2723.80
394.92	2858.96
395.13	2629.59
395.35	2764.76
395.56	2807.77
395.77	2764.76
395.98	2818.00
396.20	2813.91
396.41	2891.73
396.62	2889.68
396.84	2797.53
397.05	2822.10
397.26	2871.25
397.47	2973.65
397.69	2856.92
397.90	3035.09
398.11	2799.57
398.32	2809.81
398.54	2918.36
398.75	2924.50
398.96	2961.36
399.18	3035.09
399.39	2934.74
399.60	3024.85
399.81	3000.27
400.03	2869.20
400.24	3243.98
400.45	2904.02
400.66	2985.94
400.88	3088.34
401.09	3231.69
401.30	2904.02
401.51	3157.97
401.73	3059.67
401.94	3094.48
402.15	3170.26
402.36	3149.78
402.58	3106.77
402.79	3127.25
403.00	3157.97
403.21	3098.58
403.43	3133.39
403.64	3321.81
403.85	3049.43
404.06	3207.12
404.27	3076.05
404.49	3172.30
404.70	3141.58
404.91	3215.31
405.12	3203.02
405.34	3215.31
405.55	3377.10
405.76	3117.01
405.97	3172.30
406.19	3289.04
406.40	3221.45
406.61	3297.23
406.82	3428.30
407.03	3219.41
407.25	3278.80
407.46	3461.07
407.67	3235.79
407.88	3465.16
408.09	3309.52
408.31	3350.48
408.52	3446.73
408.73	3295.18
408.94	3366.86
409.15	3442.64
409.37	3420.11
409.58	3469.26
409.79	3411.92
410.00	3479.50
410.21	3319.76
410.43	3528.65
410.64	3604.42
410.85	3489.74
411.06	3516.36
411.27	3608.52
411.48	3557.32
411.70	3549.13
411.91	3624.90
412.12	3723.21
412.33	3534.79
412.54	3485.64
412.76	3690.44
412.97	3620.81
413.18	3555.27
413.39	3651.53
413.60	3674.06
413.81	3672.01
414.03	3698.63
414.24	3563.47
414.45	3688.39
414.66	3530.70
414.87	3661.77
415.08	3616.71
415.30	3667.91
415.51	3719.11
415.72	3762.12
415.93	3788.74
416.14	3784.65
416.35	3827.65
416.56	3764.17
416.78	3827.65
416.99	3854.28
417.20	3803.08
417.41	3850.18
417.62	3903.43
417.83	3913.67
418.04	3901.38
418.26	3975.11
418.47	3964.87
418.68	3950.53
418.89	4005.83
419.10	4093.89
419.31	3889.09
419.52	4095.94
419.73	4132.80
419.95	4128.70
420.16	4138.94
420.37	4061.12
420.58	4163.52
420.79	3968.96
421.00	4132.80
421.21	4097.99
421.42	4126.66
421.63	4184.00
421.85	4081.60
422.06	4313.02
422.27	4276.16
422.48	4259.78
422.69	4231.10
422.90	4343.74
423.11	4200.38
423.32	4407.23
423.53	4558.78
423.75	4446.14
423.96	4540.35
424.17	4509.63
424.38	4450.24
424.59	4538.30
424.80	4579.26
425.01	4493.24
425.22	4575.16
425.43	4507.58
425.64	4704.18
425.85	4624.31
426.06	4679.61
426.28	4605.88
426.49	4558.78
426.70	4573.11
426.91	4601.79
427.12	4757.43
427.33	4671.42
427.54	4689.85
427.75	4726.71
427.96	4949.94
428.17	4745.14
428.38	4743.10
428.59	4888.50
428.80	4792.25
429.01	4947.89
429.23	4917.17
429.44	5107.63
429.65	5027.76
429.86	4988.85
430.07	4927.41
430.28	4855.73
430.49	5113.78
430.70	5101.49
430.91	5171.12
431.12	5074.87
431.33	5205.94
431.54	5255.09
431.75	5257.14
431.96	5236.66
432.17	5201.84
432.38	5316.53
432.59	5431.21
432.80	5289.90
433.01	5394.35
433.22	5298.10
433.43	5443.50
433.64	5361.58
433.85	5357.49
434.06	5490.60
434.27	5414.83
434.49	5490.60
434.70	5533.61
434.91	5486.51
435.12	5572.52
435.33	5758.89
435.54	5597.10
435.75	5550.00
435.96	5494.70
436.17	5504.94
436.38	5709.74
436.59	5808.04
436.80	5599.15
437.01	5687.21
437.22	5859.24
437.43	5728.17
437.64	5523.37
437.85	5744.55
438.06	5859.24
438.27	5793.70
438.48	5844.90
438.69	5945.25
438.90	5924.77
439.11	5912.49
439.32	6018.98
439.53	5785.51
439.74	6033.32
439.95	5904.29
440.16	5889.96
440.37	5912.49
440.57	5836.71
440.78	6008.74
440.99	5939.11
441.20	6023.08
441.41	5998.50
441.62	6111.14
441.83	5963.68
442.04	6023.08
442.25	6148.00
442.46	6037.41
442.67	6193.06
442.88	6522.78
443.09	6209.44
443.30	6219.68
443.51	6223.78
443.72	6623.13
443.93	6168.48
444.14	6352.80
444.35	6053.80
444.56	6293.41
444.77	6287.26
444.98	6358.94
445.19	6590.36
445.40	6551.45
445.61	6502.30
445.81	6545.31
446.02	6680.47
446.23	6447.01
446.44	6242.21
446.65	6555.55
446.86	6580.12
447.07	6596.51
447.28	6829.98
447.49	6561.69
447.70	6637.47
447.91	6590.36
448.12	6754.20
448.33	6711.19
448.54	6625.18
448.74	6582.17
448.95	6846.36
449.16	6639.51
449.37	7016.34
449.58	6750.10
449.79	6979.48
450.00	6651.80
450.21	6965.14
450.42	6963.09
450.63	6842.26
450.84	6981.53
451.05	6868.89
451.25	7055.25
451.46	6791.06
451.67	7153.55
451.88	7331.73
452.09	7057.30
452.30	6973.33
452.51	7083.92
452.72	7176.08
452.93	7511.95
453.13	6977.43
453.34	7253.91
453.55	7239.57
453.76	7255.95
453.97	7436.17
454.18	7423.89
454.39	7421.84
454.60	7362.45
454.81	7352.21
455.01	7530.38
455.22	7307.15
455.43	7444.37
455.64	7733.13
455.85	7606.16
456.06	7813.00
456.27	7665.55
456.48	7645.07
456.68	7874.44
456.89	7720.84
457.10	7792.52
457.31	7819.14
457.52	7800.71
457.73	8034.18
457.94	8066.95
458.14	7806.86
458.35	8277.89
458.56	7970.69
458.77	7946.12
458.98	8179.59
459.19	8306.56
459.39	8294.27
459.60	8425.34
459.81	8046.47
460.02	8310.66
460.23	8365.95
460.44	8558.46
460.65	8466.30
460.85	8404.86
461.06	8449.92
461.27	8415.10
461.48	8648.57
461.69	8968.06
461.89	8470.40
462.10	8902.52
462.31	8603.52
462.52	8693.63
462.73	8769.40
462.94	8857.46
463.14	9082.74
463.35	8976.25
463.56	9424.75
463.77	9095.03
463.98	9033.59
464.18	8957.82
464.39	9260.91
464.60	9437.04
464.81	9426.80
465.02	9312.11
465.23	9488.24
465.43	9451.38
465.64	9750.38
465.85	9498.48
466.06	9373.55
466.27	9785.19
466.47	9623.41
466.68	9803.63
466.89	9889.64
467.10	9852.78
467.30	9844.59
467.51	9965.42
467.72	10202.98
467.93	9920.36
468.14	10202.98
468.34	10225.51
468.55	10358.63
468.76	10452.83
468.97	10153.83
469.17	10585.95
469.38	10477.41
469.59	10542.94
469.80	10510.18
470.01	10702.68
470.21	10794.84
470.42	10927.96
470.63	11032.41
470.84	10841.95
471.04	11216.72
471.25	11081.56
471.46	11177.81
471.67	11376.47
471.87	11204.44
472.08	11317.08
472.29	11521.87
472.50	11054.94
472.70	11403.09
472.91	11614.03
473.12	11845.45
473.33	11949.90
473.53	11876.17
473.74	11691.85
473.95	12199.75
474.16	12250.95
474.36	12322.63
474.57	12435.27
474.78	12486.47
474.99	12304.20
475.19	12441.41
475.40	12707.65
475.61	12621.63
475.81	12992.31
476.02	12937.02
476.23	12908.35
476.44	13152.06
476.64	13356.85
476.85	13569.84
477.06	13313.84
477.27	13639.47
477.47	13731.63
477.68	13725.49
477.89	13666.10
478.09	13778.73
478.30	13901.61
478.51	14083.88
478.71	14208.81
478.92	14067.50
479.13	14403.36
479.34	14485.28
479.54	14182.18
479.75	14640.93
479.96	14374.69
480.16	14645.02
480.37	14802.72
480.58	14946.08
480.78	15030.04
480.99	15011.61
481.20	15275.80
481.41	15208.22
481.61	15484.69
481.82	15613.71
482.03	15705.87
482.23	15599.38
482.44	15683.34
482.65	16058.12
482.85	16037.64
483.06	16105.23
483.27	16015.12
483.47	16168.71
483.68	16301.83
483.89	16568.07
484.09	16164.62
484.30	16660.23
484.51	16895.74
484.71	17055.48
484.92	16682.75
485.13	17211.13
485.33	17125.11
485.54	16914.17
485.75	17475.32
485.95	17399.54
486.16	17395.45
486.37	17637.11
486.57	17643.25
486.78	17665.78
486.98	17755.89
487.19	17923.82
487.40	18339.56
487.60	18075.37
487.81	18456.29
488.02	18380.52
488.22	18263.79
488.43	18456.29
488.64	18513.64
488.84	18956.00
489.05	18984.67
489.25	18757.35
489.46	18779.87
489.67	18951.90
489.87	19486.42
490.08	19447.51
490.29	19447.51
490.49	19777.23
490.70	19785.43
490.90	19771.09
491.11	19746.51
491.32	19885.78
491.52	20111.05
491.73	20180.68
491.94	20180.68
492.14	19971.79
492.35	20365.00
492.55	20340.43
492.76	20506.31
492.97	20442.82
493.17	20659.91
493.38	20733.64
493.58	20909.76
493.79	21180.09
494.00	21145.28
494.20	21223.10
494.41	21454.52
494.61	21499.58
494.82	21468.86
495.02	21710.52
495.23	21712.56
495.44	21860.02
495.64	21946.03
495.85	21909.17
496.05	21763.76
496.26	22183.60
496.47	22329.00
496.67	22546.09
496.88	22173.36
497.08	22357.67
497.29	22773.41
497.49	22392.49
497.70	22537.90
497.91	22953.63
498.11	22916.77
498.32	22933.15
498.52	22957.73
498.73	23254.69
498.93	23010.98
499.14	23256.73
499.34	23217.82
499.55	23602.84
499.76	23414.43
499.96	23312.03
500.17	23455.39
500.37	23869.08
500.58	23811.73
500.78	24032.91
500.99	23998.10
501.19	23864.98
501.40	24254.09
501.60	23971.47
501.81	24241.81
502.02	24198.80
502.22	23998.10
502.43	24323.72
502.63	24592.01
502.84	24663.69
503.04	24794.76
503.25	24411.79
503.45	24811.14
503.66	24938.12
503.86	24749.70
504.07	25269.89
504.27	25020.03
504.48	25341.57
504.68	25427.58
504.89	25501.31
505.09	25474.68
505.30	25319.04
505.50	25462.40
505.71	25609.85
505.91	25773.69
506.12	25470.59
506.32	25869.94
506.53	25681.53
506.73	26025.59
506.94	25871.99
507.14	25906.80
507.35	25802.36
507.55	25927.28
507.76	26148.46
507.96	26039.92
508.17	25982.58
508.37	26175.09
508.58	26445.42
508.78	26179.18
508.99	26650.22
509.19	26809.96
509.40	26584.68
509.60	26644.07
509.81	26455.66
510.01	26820.20
510.22	26664.55
510.42	26746.47
510.63	26685.03
510.83	26697.32
511.04	26877.54
511.24	26955.36
511.44	26930.79
511.65	27111.01
511.85	27076.19
512.06	27385.44
512.26	27147.87
512.47	27328.10
512.67	27184.74
512.88	27412.06
513.08	27151.97
513.29	27367.01
513.49	27639.39
513.69	27414.11
513.90	27283.04
514.10	27702.87
514.31	27747.93
514.51	27518.56
514.72	27473.50
514.92	27526.75
515.13	27491.93
515.33	27870.81
515.53	27901.53
515.74	28128.85
515.94	27938.39
516.15	28319.31
516.35	27965.01
516.56	28429.90
516.76	28038.74
516.96	28028.50
517.17	28442.19
517.37	28407.37
517.58	28646.99
517.78	28280.40
517.99	28507.72
518.19	28792.39
518.39	28626.51
518.60	28819.02
518.80	28636.75
519.01	29099.59
519.21	28911.17
519.41	28888.65
519.62	28925.51
519.82	28919.37
520.03	29339.20
520.23	29384.26
520.43	28884.55
520.64	29468.22
520.84	29283.91
521.05	29339.20
521.25	29752.89
521.45	29709.88
521.66	29738.55
521.86	29423.17
522.07	29720.12
522.27	29896.25
522.47	29437.50
522.68	30115.38
522.88	30119.48
523.08	30166.58
523.29	30172.72
523.49	29980.21
523.70	30033.46
523.90	30174.77
524.10	30199.35
524.31	30920.23
524.51	30516.78
524.71	30799.40
524.92	30600.75
525.12	30875.18
525.33	30717.48
525.53	30914.09
525.73	30950.95
525.94	30889.51
526.14	30905.90
526.34	31239.72
526.55	31256.10
526.75	31424.03
526.95	31407.65
527.16	31710.75
527.36	31485.47
527.56	31452.70
527.77	31813.15
527.97	31827.48
528.17	31606.30
528.38	31946.26
528.58	31866.39
528.78	31913.50
528.99	32149.01
529.19	32245.27
529.39	32042.52
529.60	32083.48
529.80	32413.20
530.00	32409.11
530.21	32552.46
530.41	32753.16
530.61	32697.87
530.82	32433.68
531.02	32675.34
531.22	32622.09
531.43	32812.56
531.63	33033.74
531.83	33265.16
532.04	33519.10
532.24	33291.78
532.44	33398.27
532.64	33609.22
532.85	33752.57
533.05	33402.37
533.25	33781.24
533.46	33723.90
533.66	34176.50
533.86	33568.26
534.07	34211.32
534.27	34211.32
534.47	34608.62
534.67	34455.03
534.88	33969.66
535.08	34491.89
535.28	34719.21
535.49	34915.82
535.69	34766.32
535.89	34756.08
536.09	34979.31
536.30	34938.35
536.50	35122.66
536.70	35237.35
536.91	35003.88
537.11	35681.76
537.31	35364.32
537.51	35362.28
537.72	35900.89
537.92	36005.34
538.12	35651.04
538.32	35644.90
538.53	36060.63
538.73	35878.36
538.93	36017.63
539.13	35960.28
539.34	36083.16
539.54	36259.29
539.74	36482.52
539.94	36517.33
540.15	36091.35
540.35	36474.32
540.55	36617.68
540.75	36488.66
540.96	36775.37
541.16	36853.20
541.36	36883.92
541.56	36672.98
541.77	37037.51
541.97	37006.80
542.17	37111.24
542.37	37014.99
542.58	37369.29
542.78	37334.47
542.98	37283.27
543.18	37590.47
543.38	37606.85
543.59	37699.01
543.79	37604.80
543.99	37471.68
544.19	37606.85
544.40	38036.92
544.60	38104.51
544.80	37891.52
545.00	38421.94
545.20	38354.36
545.41	38254.01
545.61	37995.96
545.81	38475.19
546.01	38520.24
546.21	38272.44
546.42	38059.45
546.62	38614.45
546.82	38270.39
547.02	38720.95
547.22	38557.11
547.43	38469.04
547.63	38768.05
547.83	38925.74
548.03	38774.19
548.23	38976.94
548.44	38884.78
548.64	39165.35
548.84	39339.43
549.04	38704.56
549.24	39433.64
549.45	39464.36
549.65	39108.01
549.85	39712.16
550.05	39523.75
550.25	39495.08
550.45	40138.14
550.66	39597.48
550.86	39409.06
551.06	39847.33
551.26	39882.14
551.46	39929.25
551.66	39636.39
551.87	39884.19
552.07	39908.77
552.27	39902.62
552.47	40129.95
552.67	40205.72
552.87	40091.04
553.07	40379.80
553.28	40437.14
553.48	40238.49
553.68	40445.33
553.88	40615.32
554.08	40865.17
554.28	40371.61
554.48	40570.26
554.69	40867.22
554.89	40871.31
555.09	40531.35
555.29	40605.08
555.49	41100.68
555.69	40861.07
555.89	40967.57
556.10	41215.37
556.30	40947.09
556.50	41108.88
556.70	40752.53
556.90	41239.95
557.10	41549.19
557.30	41162.12
557.50	41790.85
557.70	41780.61
557.91	41481.61
558.11	41893.25
558.31	41837.95
558.51	41254.28
558.71	41733.51
558.91	41749.89
559.11	42079.61
559.31	41491.85
559.51	41485.70
559.72	42022.27
559.92	42153.34
560.12	41868.67
560.32	42085.76
560.52	41977.22
560.72	42141.05
560.92	42329.47
561.12	42270.08
561.32	42558.84
561.52	42276.22
561.72	42794.36
561.93	42247.55
562.13	42505.59
562.33	42030.46
562.53	43304.30
562.73	42206.59
562.93	42630.52
563.13	43054.45
563.33	43212.14
563.53	43119.98
563.73	42761.59
563.93	42841.46
564.13	43210.09
564.33	42902.90
564.53	43101.55
564.74	43255.15
564.94	43079.02
565.14	43431.27
565.34	43095.41
565.54	43416.94
565.74	43517.29
565.94	43623.78
566.14	43562.34
566.34	43287.92
566.54	43898.21
566.74	43148.65
566.94	43763.04
567.14	43668.84
567.34	43625.83
567.54	43611.49
567.74	43560.30
567.94	43957.60
568.14	44135.77
568.34	44412.25
568.54	44025.18
568.74	44619.10
568.94	44201.31
569.14	44432.73
569.34	44402.01
569.54	44393.82
569.75	43881.83
569.95	44563.80
570.15	44682.58
570.35	44574.04
570.55	44608.86
570.75	44676.44
570.95	44801.36
571.15	44918.10
571.35	44684.63
571.55	44944.72
571.75	44989.78
571.95	44815.70
572.15	45057.36
572.35	45221.20
572.55	45129.04
572.75	45057.36
572.95	45002.07
573.15	45313.36
573.35	45436.23
573.55	45249.87
573.75	45475.15
573.95	45471.05
574.15	45720.90
574.35	46013.76
574.55	45739.33
574.75	45555.02
574.95	45866.31
575.15	45636.94
575.34	45946.18
575.54	46187.84
575.74	46277.95
575.94	46765.37
576.14	46040.39
576.34	46351.68
576.54	46310.72
576.74	46347.58
576.94	45966.66
577.14	45892.93
577.34	46912.82
577.54	46458.17
577.74	46904.63
577.94	47078.71
578.14	46699.83
578.34	46984.50
578.54	46445.88
578.74	46605.62
578.94	47004.98
579.14	46650.68
579.34	47174.96
579.54	47254.83
579.74	47299.89
579.94	46935.35
580.13	47390.00
580.33	47465.77
580.53	47422.76
580.73	47619.37
580.93	47467.82
581.13	47715.62
581.33	48114.98
581.53	48377.12
581.73	48223.52
581.93	48135.46
582.13	48157.99
582.33	48424.22
582.53	47994.15
582.73	48626.97
582.92	48274.72
583.12	48760.09
583.32	48090.40
583.52	48112.93
583.72	48334.11
583.92	48264.48
584.12	48735.51
584.32	48964.88
584.52	48799.00
584.72	48833.81
584.92	48721.18
585.11	49419.53
585.31	49046.80
585.51	49067.28
585.71	48493.85
585.91	49169.68
586.11	49341.71
586.31	49108.24
586.51	49198.35
586.71	49440.01
586.91	49267.98
587.10	49657.10
587.30	49620.23
587.50	50050.31
587.70	49804.55
587.90	49802.50
588.10	49685.77
588.30	49360.14
588.50	50058.50
588.69	50214.15
588.89	50070.79
589.09	50152.71
589.29	49960.20
589.49	50427.13
589.69	50038.02
589.89	50261.25
590.08	50140.42
590.28	50408.70
590.48	50230.53
590.68	50511.10
590.88	50605.31
591.08	50619.64
591.28	50431.23
591.47	50943.22
591.67	50885.88
591.87	50631.93
592.07	50746.62
592.27	50679.03
592.47	50728.19
592.67	51057.91
592.86	50705.66
593.06	51033.33
593.26	51365.10
593.46	51203.31
593.66	50898.17
593.86	51234.03
594.05	51320.05
594.25	51428.59
594.45	50953.46
594.65	51766.51
594.85	50955.51
595.05	51492.08
595.24	51838.18
595.44	51365.10
595.64	51434.74
595.84	51746.03
596.04	51680.49
596.23	51909.86
596.43	52313.31
596.63	51905.77
596.83	51795.18
597.03	52399.33
597.22	52397.28
597.42	52227.30
597.62	52335.84
597.82	52245.73
598.02	52225.25
598.21	52249.83
598.41	51926.25
598.61	52669.66
598.81	52997.34
599.01	52333.79
599.20	52157.67
599.40	52401.38
599.60	52679.90
599.80	52692.19
600.00	52610.27
600.19	53099.73
600.39	52626.65
600.59	53296.34
600.79	53132.50
600.98	52471.01
601.18	53400.79
601.38	53671.12
601.58	53441.74
601.78	53468.37
601.97	53163.22
602.17	53632.21
602.37	53292.24
602.57	53810.38
602.76	54013.13
602.96	53345.49
603.16	53945.54
603.36	53413.07
603.55	54113.48
603.75	53712.08
603.95	54289.60
604.15	53937.35
604.34	53947.59
604.54	53828.81
604.74	53800.14
604.94	53982.41
605.13	54371.52
605.33	54113.48
605.53	54512.83
605.73	54199.49
605.92	54226.12
606.12	54463.68
606.32	54332.61
606.52	54473.92
606.71	54398.15
606.91	54688.96
607.11	54721.72
607.30	54985.91
607.50	54232.26
607.70	54766.78
607.90	54453.44
608.09	54625.47
608.29	54627.52
608.49	54990.01
608.68	54621.37
608.88	54543.55
609.08	54975.67
609.28	54707.39
609.47	54994.10
609.67	55211.19
609.87	54924.47
610.06	55329.97
610.26	55043.26
610.46	55125.17
610.66	55022.78
610.85	55461.04
611.05	55125.17
611.25	55432.37
611.44	54797.50
611.64	55076.02
611.84	55051.45
612.03	54961.34
612.23	55305.40
612.43	54961.34
612.62	54789.31
612.82	55790.76
613.02	55112.89
613.21	55235.77
613.41	55266.48
613.61	55243.96
613.80	54676.67
614.00	55975.08
614.20	55456.95
614.39	55395.51
614.59	55268.53
614.79	55526.58
614.98	55157.94
615.18	55506.10
615.38	55727.28
615.57	55024.82
615.77	55182.52
615.97	55340.21
616.16	55327.92
616.36	55213.24
616.56	54858.94
616.75	55309.49
616.95	54850.75
617.15	54924.47
617.34	55518.38
617.54	54992.06
617.74	55516.34
617.93	55405.75
618.13	54779.07
618.32	55047.35
618.52	55233.72
618.72	55141.56
618.91	55207.09
619.11	54746.30
619.31	55241.91
619.50	55491.76
619.70	54518.98
619.90	54942.91
620.09	54916.28
620.29	54924.47
620.48	54957.24
620.68	55313.59
620.88	54744.25
621.07	54908.09
621.27	54903.99
621.46	54875.32
621.66	55028.92
621.86	54566.08
622.05	55067.83
622.25	55297.20
622.44	54711.49
622.64	54912.19
622.84	54885.56
623.03	54736.06
623.23	55104.70
623.42	54828.22
623.62	54944.95
623.82	54934.71
624.01	54975.67
624.21	55481.52
624.40	55008.44
624.60	54852.80
624.80	54717.63
624.99	54860.99
625.19	54228.16
625.38	54869.18
625.58	54891.71
625.77	54949.05
625.97	54731.96
626.17	54582.46
626.36	54639.81
626.56	54654.14
626.75	53943.50
626.95	55125.17
627.14	54486.21
627.34	54871.23
627.54	54480.06
627.73	54621.37
627.93	54480.06
628.12	54267.08
628.32	54555.84
628.51	54652.09
628.71	54109.38
628.90	54619.33
629.10	54420.67
629.30	54318.28
629.49	54652.09
629.69	54650.05
629.88	54740.16
630.08	55024.82
630.27	54686.91
630.47	54854.84
630.66	54351.04
630.86	55082.17
631.05	54295.75
631.25	54875.32
631.44	54971.58
631.64	54803.64
631.84	54211.78
632.03	55262.39
632.23	54457.54
632.42	55088.31
632.62	54197.44
632.81	54441.15
633.01	54478.02
633.20	54699.20
633.40	54742.20
633.59	54666.43
633.79	54232.26
633.98	54518.98
634.18	54885.56
634.37	54680.77
634.57	54271.17
634.76	54807.74
634.96	54844.60
635.15	54713.53
635.35	54035.66
635.54	54346.95
635.74	54924.47
635.93	54414.53
636.13	54678.72
636.32	54594.75
636.52	54490.30
636.71	54369.47
636.91	54473.92
637.10	54693.05
637.30	54142.15
637.49	54097.09
637.69	54568.13
637.88	54965.43
638.08	54416.58
638.27	54766.78
638.46	54650.05
638.66	54244.55
638.85	54666.43
639.05	54699.20
639.24	54338.75
639.44	54043.85
639.63	54379.71
639.83	54797.50
640.02	54758.59
640.22	54441.15
640.41	54607.04
640.61	54195.40
640.80	54570.18
640.99	54367.43
641.19	54850.75
641.38	54293.70
641.58	54154.44
641.77	54781.12
641.97	54475.97
642.16	54406.34
642.36	54942.91
642.55	55196.85
642.74	54508.74
642.94	55100.60
643.13	54574.27
643.33	54801.60
643.52	54768.83
643.72	54625.47
643.91	54312.13
644.10	54557.89
644.30	54953.15
644.49	54316.23
644.69	55397.55
644.88	54777.02
645.08	54609.09
645.27	54719.68
645.46	53806.28
645.66	54744.25
645.85	54275.27
646.05	54684.86
646.24	55069.88
646.43	54590.66
646.63	54934.71
646.82	54736.06
647.02	54287.56
647.21	54936.76
647.40	54686.91
647.60	54850.75
647.79	54893.75
647.99	54934.71
648.18	54758.59
648.37	55264.44
648.57	54754.49
648.76	54699.20
648.96	54918.33
649.15	55170.23
649.34	54918.33
649.54	54881.47
649.73	54691.01
649.92	54801.60
650.12	55096.50
650.31	54842.56
650.51	55231.67
650.70	54574.27
650.89	54813.88
651.09	55710.89
651.28	55155.89
651.47	54965.43
651.67	54953.15
651.86	55100.60
652.06	54762.68
652.25	55309.49
652.44	55061.69
652.64	54899.90
652.83	54785.21
653.02	54727.87
653.22	54805.69
653.41	55055.54
653.60	54801.60
653.80	55104.70
653.99	55499.95
654.18	54963.39
654.38	54951.10
654.57	54662.33
654.76	54666.43
654.96	55030.97
655.15	54975.67
655.34	55186.61
655.54	54301.89
655.73	55260.34
655.92	55047.35
656.12	55141.56
656.31	55076.02
656.50	55145.65
656.70	55135.41
656.89	54920.38
657.08	55047.35
657.28	55295.16
657.47	55256.24
657.66	55497.91
657.86	55192.76
658.05	55057.59
658.24	55493.81
658.43	55133.37
658.63	55280.82
658.82	55516.34
659.01	55579.82
659.21	55624.88
659.40	55313.59
659.59	54748.35
659.79	55088.31
659.98	55815.34
660.17	55430.32
660.36	55372.98
660.56	55196.85
660.75	55127.22
660.94	55571.63
661.14	55194.81
661.33	55063.74
661.52	55119.03
661.71	55530.67
661.91	55207.09
662.10	55213.24
662.29	56024.23
662.49	55491.76
662.68	55485.62
662.87	55604.40
663.06	55178.42
663.26	55420.08
663.45	55362.74
663.64	55207.09
663.83	56077.48
664.03	55274.68
664.22	55211.19
664.41	55682.22
664.60	55342.26
664.80	55299.25
664.99	55309.49
665.18	55381.17
665.37	55473.33
665.57	55102.65
665.76	55594.16
665.95	55530.67
666.14	55061.69
666.34	55186.61
666.53	55211.19
666.72	55207.09
666.91	55133.37
667.11	55188.66
667.30	55407.79
667.49	54860.99
667.68	55311.54
667.87	55162.04
668.07	55512.24
668.26	55121.08
668.45	55440.56
668.64	54891.71
668.84	55571.63
669.03	55485.62
669.22	55772.33
669.41	55141.56
669.60	55731.37
669.80	55465.14
669.99	55618.74
670.18	55303.35
670.37	55706.80
670.57	55823.53
670.76	55530.67
670.95	56063.14
671.14	55913.64
671.33	55395.51
671.53	56046.76
671.72	55303.35
671.91	55000.25
672.10	54979.77
672.29	55172.28
672.48	55153.85
672.68	55635.12
672.87	55272.63
673.06	55131.32
673.25	55020.73
673.44	55268.53
673.64	55469.23
673.83	55362.74
674.02	55076.02
674.21	55284.92
674.40	55747.76
674.59	55063.74
674.79	55637.17
674.98	55223.48
675.17	55588.02
675.36	55108.79
675.55	55254.20
675.74	55395.51
675.94	55024.82
676.13	55489.71
676.32	55948.46
676.51	55780.52
676.70	55696.56
676.89	55653.55
677.08	55657.65
677.28	55555.25
677.47	55479.47
677.66	55571.63
677.85	55162.04
678.04	55438.51
678.23	55721.13
678.42	55502.00
678.62	55368.88
678.81	55319.73
679.00	55272.63
679.19	55970.99
679.38	55461.04
679.57	55493.81
679.76	55469.23
679.96	55420.08
680.15	55243.96
680.34	55477.43
680.53	55313.59
680.72	55526.58
680.91	55635.12
681.10	55076.02
681.29	55567.54
681.48	55272.63
681.68	55383.22
681.87	55430.32
682.06	55403.70
682.25	55053.50
682.44	55033.02
682.63	55125.17
682.82	55194.81
683.01	54809.79
683.20	54791.36
683.39	55084.22
683.59	55063.74
683.78	54760.64
683.97	54936.76
684.16	55100.60
684.35	54936.76
684.54	54828.22
684.73	55065.78
684.92	55121.08
685.11	54983.86
685.30	54795.45
685.49	55612.59
685.69	55100.60
685.88	54949.05
686.07	55012.54
686.26	54965.43
686.45	55030.97
686.64	55243.96
686.83	55358.64
687.02	55332.02
687.21	54838.46
687.40	54607.04
687.59	54858.94
687.78	54990.01
687.97	55364.79
688.16	54957.24
688.35	54834.36
688.54	54850.75
688.74	55028.92
688.93	54815.93
689.12	55026.87
689.31	55014.58
689.50	54748.35
689.69	54629.57
689.88	54056.14
690.07	55168.18
690.26	54408.39
690.45	54992.06
690.64	54940.86
690.83	54449.35
691.02	54475.97
691.21	54734.01
691.40	54592.70
691.59	54584.51
691.78	54926.52
691.97	54920.38
692.16	55014.58
692.35	54820.03
692.54	54754.49
692.73	54648.00
692.92	54949.05
693.11	54588.61
693.30	54422.72
693.49	55008.44
693.68	54428.87
693.87	54580.42
694.06	54121.67
694.25	54645.95
694.44	54154.44
694.63	54189.25
694.82	54750.40
695.01	54303.94
695.20	54484.16
695.39	53755.08
695.58	54150.34
695.77	54037.70
695.96	54318.28
696.15	54633.66
696.34	54025.42
696.53	54699.20
696.72	54451.39
696.91	54228.16
697.10	54111.43
697.29	54115.53
697.48	54330.56
697.67	54408.39
697.86	54058.18
698.05	53935.30
698.24	54127.81
698.43	53544.14
698.62	53798.09
698.81	54064.33
699.00	54604.99
699.19	53802.19
699.38	54031.56
699.57	53953.74
699.76	54502.59
699.95	53744.84
700.14	53843.15
700.32	53841.10
700.51	53884.11
700.70	54158.53
700.89	54402.24
701.08	54047.94
701.27	53677.26
701.46	54224.07
701.65	53288.15
701.84	53959.88
702.03	53832.91
702.22	53441.74
702.41	54017.22
702.60	53714.12
702.79	53599.44
702.98	53310.67
703.17	53683.40
703.35	53820.62
703.54	53509.33
703.73	53677.26
703.92	53753.04
704.11	53910.73
704.30	53359.83
704.49	53458.13
704.68	53404.88
704.87	53247.19
705.06	53376.21
705.25	53484.75
705.43	53290.19
705.62	53253.33
705.81	53392.59
706.00	53609.68
706.19	53204.18
706.38	53195.99
706.57	53851.34
706.76	52952.28
706.95	53226.71
707.14	52972.76
707.32	53351.63
707.51	52915.42
707.70	52913.37
707.89	53210.32
708.08	52933.85
708.27	52944.09
708.46	53619.92
708.65	53021.91
708.84	53189.84
709.02	53265.62
709.21	53099.73
709.40	53032.15
709.59	53335.25
709.78	52774.11
709.97	53140.69
710.16	52700.38
710.34	53107.93
710.53	53419.22
710.72	52745.44
710.91	53001.43
711.10	52776.15
711.29	52860.12
711.48	52823.26
711.66	52311.27
711.85	52456.67
712.04	52673.76
712.23	52540.64
712.42	52583.65
712.61	52612.32
712.80	52298.98
712.98	52745.44
713.17	52679.90
713.36	52876.51
713.55	52544.73
713.74	52651.23
713.93	52720.86
714.11	52110.56
714.30	52331.75
714.49	52159.72
714.68	52124.90
714.87	52290.79
715.06	52643.04
715.24	52505.82
715.43	51963.11
715.62	52237.54
715.81	52247.78
716.00	52606.17
716.18	51739.88
716.37	51950.82
716.56	51969.26
716.75	52483.30
716.94	51825.90
717.12	51909.86
717.31	51903.72
717.50	51825.90
717.69	51623.15
717.88	51756.27
718.06	51959.02
718.25	52008.17
718.44	51401.97
718.63	51588.33
718.82	51801.32
719.00	51721.45
719.19	51639.53
719.38	51254.51
719.57	50691.32
719.76	51066.10
719.94	50965.75
720.13	51098.87
720.32	50943.22
720.51	51107.06
720.69	51182.84
720.88	51283.19
721.07	51246.32
721.26	50373.89
721.44	50748.67
721.63	50853.11
721.82	50375.94
722.01	50898.17
722.20	51006.71
722.38	50623.74
722.57	50238.72
722.76	51043.57
722.95	50496.77
723.13	50388.22
723.32	50707.71
723.51	50087.17
723.70	50023.68
723.88	50148.61
724.07	49949.96
724.26	50130.18
724.44	49777.93
724.63	50201.86
724.82	50429.18
725.01	49677.58
725.19	50017.54
725.38	50009.35
725.57	49747.21
725.76	50482.43
725.94	49816.84
726.13	49863.94
726.32	49843.46
726.51	49726.73
726.69	50019.59
726.88	49775.88
727.07	49411.34
727.25	49630.47
727.44	49526.03
727.63	49368.33
727.82	49673.48
728.00	49345.81
728.19	50033.92
728.38	49865.99
728.56	49331.47
728.75	49356.05
728.94	49214.74
729.12	49558.80
729.31	49401.10
729.50	49313.04
729.69	49755.40
729.87	49548.56
730.06	49147.15
730.25	49689.87
730.43	49743.11
730.62	49263.89
730.81	49757.45
730.99	49816.84
731.18	49548.56
731.37	49454.35
731.55	49468.69
731.74	49853.70
731.93	49730.83
732.11	49298.70
732.30	49595.66
732.49	49177.87
732.67	49345.81
732.86	49034.52
733.05	49227.02
733.23	48911.64
733.42	49452.30
733.61	49378.57
733.79	49423.63
733.98	49493.26
734.17	49011.99
734.35	49335.57
734.54	49610.00
734.73	49124.63
734.91	49366.29
735.10	49202.45
735.29	49618.19
735.47	49165.59
735.66	49087.76
735.84	49136.91
736.03	48962.84
736.22	49472.78
736.40	49167.63
736.59	49235.22
736.78	48850.20
736.96	48780.57
737.15	49599.76
737.33	48780.57
737.52	48512.28
737.71	49161.49
737.89	48741.66
738.08	48831.77
738.27	48792.86
738.45	49098.00
738.64	48669.98
738.82	48563.48
739.01	48524.57
739.20	48864.53
739.38	48569.63
739.57	49055.00
739.75	48762.14
739.94	48731.42
740.13	48342.30
740.31	48299.30
740.50	48624.92
740.68	48411.93
740.87	48874.77
741.06	49042.71
741.24	48284.96
741.43	48196.90
741.61	48854.29
741.80	48211.23
741.99	48125.22
742.17	48522.52
742.36	48080.16
742.54	48514.33
742.73	48569.63
742.91	48512.28
743.10	47897.89
743.29	48825.62
743.47	48233.76
743.66	47965.48
743.84	47947.04
744.03	47914.28
744.21	47805.73
744.40	48366.88
744.59	47734.06
744.77	47697.19
744.96	47916.32
745.14	47584.55
745.33	47969.57
745.51	48092.45
745.70	47906.08
745.88	47607.08
746.07	47748.39
746.26	47289.65
746.44	47498.54
746.63	47758.63
746.81	47676.71
747.00	47199.54
747.18	47703.34
747.37	47363.37
747.55	47187.25
747.74	47635.75
747.92	47201.58
748.11	47129.90
748.29	47408.43
748.48	47050.03
748.66	47088.95
748.85	47330.61
749.03	46746.93
749.22	47639.85
749.41	46914.87
749.59	47101.23
749.78	47078.71
749.96	46816.57
750.15	47113.52
750.33	46845.24
750.52	46720.31
750.70	46921.01
750.89	46656.82
751.07	46415.16
751.26	46896.44
751.44	46568.76
751.63	46673.21
751.81	46390.59
752.00	46265.66
752.18	46589.24
752.37	46677.30
752.55	46525.75
752.74	46353.72
752.92	46308.67
753.10	46011.71
753.29	46056.77
753.47	46165.31
753.66	46110.02
753.84	46128.45
754.03	45964.61
754.21	45923.65
754.40	46382.40
754.58	46144.83
754.77	45978.95
754.95	45606.22
755.14	45741.38
755.32	45819.20
755.51	45534.54
755.69	45620.55
755.88	45905.22
756.06	45616.46
756.24	45618.50
756.43	45610.31
756.61	45589.83
756.80	45227.34
756.98	45397.32
757.17	45559.11
757.35	45366.60
757.54	44754.26
757.72	45600.07
757.90	44995.92
758.09	45159.76
758.27	45337.93
758.46	44926.29
758.64	45294.92
758.83	45167.95
759.01	45331.79
759.19	45120.85
759.38	44803.41
759.56	45331.79
759.75	45057.36
759.93	44952.91
760.12	44877.14
760.30	45133.14
760.48	44375.39
760.67	44782.93
760.85	44590.42
761.04	44582.23
761.22	44957.01
761.40	44871.00
761.59	44463.45
761.77	44432.73
761.96	44442.97
762.14	44064.10
762.32	44189.02
762.51	44207.45
762.69	43953.51
762.88	44070.24
763.06	44146.01
763.24	44068.19
763.43	44326.24
763.61	44000.61
763.80	44008.80
763.98	44266.84
764.16	43697.51
764.35	43765.09
764.53	43539.82
764.72	43464.04
764.90	43257.20
765.08	43404.65
765.27	43521.38
765.45	43425.13
765.63	42995.06
765.82	43613.54
766.00	43173.23
766.18	43187.56
766.37	43847.01
766.55	43058.54
766.74	43099.50
766.92	42927.47
767.10	43173.23
767.29	43181.42
767.47	42481.02
767.65	42937.71
767.84	42567.03
768.02	42829.17
768.20	42372.47
768.39	42976.62
768.57	42763.64
768.75	43052.40
768.94	42673.52
769.12	42386.81
769.30	42431.86
769.49	42358.14
769.67	42263.93
769.85	42120.57
770.04	42345.85
770.22	41753.99
770.40	41975.17
770.59	41858.43
770.77	42411.38
770.95	41960.83
771.14	41401.74
771.32	41502.09
771.50	41332.11
771.69	41688.45
771.87	41934.21
772.05	41805.19
772.24	41541.00
772.42	41708.93
772.60	41678.21
772.78	41330.06
772.97	40912.27
773.15	41325.96
773.33	41377.16
773.52	41282.95
773.70	41276.81
773.88	41293.19
774.07	41418.12
774.25	41426.31
774.43	41485.70
774.61	41405.83
774.80	41323.91
774.98	40895.89
775.16	41475.46
775.34	41670.02
775.53	41524.61
775.71	41563.53
775.89	41366.92
776.08	41424.26
776.26	41477.51
776.44	41188.75
776.62	41280.91
776.81	41162.12
776.99	41612.68
777.17	40994.19
777.35	41233.80
777.54	41305.48
777.72	40848.78
777.90	41641.35
778.08	41436.55
778.27	41182.60
778.45	41473.42
778.63	41393.54
778.81	41153.93
779.00	41915.78
779.18	41514.37
779.36	41645.44
779.54	41698.69
779.73	41604.49
779.91	41784.71
780.09	41682.31
780.27	42106.24
780.46	41942.40
780.64	42036.61
780.82	41194.89
781.00	41674.12
781.19	41809.28
781.37	41932.16
781.55	41870.72
781.73	42093.95
781.91	41764.23
782.10	41649.54
782.28	41688.45
782.46	42016.13
782.64	42122.62
782.82	41805.19
783.01	42020.22
783.19	42069.37
783.37	41907.58
783.55	41772.42
783.74	41887.10
783.92	41436.55
784.10	42272.12
784.28	41885.06
784.46	41584.01
784.64	41768.32
784.83	41702.79
785.01	42487.16
785.19	41778.56
785.37	41946.50
785.55	42018.17
785.74	41471.37
785.92	41457.03
786.10	41514.37
786.28	41880.96
786.46	41459.08
786.64	41395.59
786.83	41428.36
787.01	41721.22
787.19	41844.10
787.37	41846.15
787.55	41366.92
787.74	41252.23
787.92	41311.63
788.10	40922.51
788.28	40838.54
788.46	41045.39
788.64	40373.66
788.82	40930.70
789.01	40977.81
789.19	41037.20
789.37	40861.07
789.55	40893.84
789.73	40228.25
789.91	40918.42
790.09	40512.92
790.28	40402.33
790.46	40324.50
790.64	40742.29
790.82	40136.09
791.00	40543.64
791.18	40402.33
791.36	40129.95
791.55	40002.97
791.73	40039.84
791.91	39712.16
792.09	39929.25
792.27	39679.39
792.45	40150.43
792.63	39699.87
792.81	39683.49
793.00	39341.48
793.18	39210.41
793.36	39056.81
793.54	39185.83
793.72	39179.69
793.90	38954.41
794.08	39048.62
794.26	39009.71
794.44	38837.68
794.62	38716.85
794.81	38974.89
794.99	38585.78
795.17	38907.31
795.35	38380.98
795.53	38340.02
795.71	38819.25
795.89	38219.19
796.07	37950.91
796.25	37885.37
796.43	37885.37
796.61	37678.53
796.80	37664.19
796.98	37701.06
797.16	37594.56
797.34	37565.89
797.52	37359.05
797.70	37660.10
797.88	37426.63
798.06	36681.17
798.24	37447.11
798.42	36816.33
798.60	37066.19
798.78	37207.50
798.96	36955.60
799.14	36578.77
799.32	36705.74
799.51	36398.55
799.69	36552.15
799.87	36611.54
800.05	36085.21
800.23	36294.10
800.41	36355.54
800.59	36031.96
800.77	35841.50
800.95	35444.20
801.13	35859.93
801.31	35556.83
801.49	35696.10
801.67	35567.07
801.85	35722.72
802.03	35290.60
802.21	35026.41
802.39	35034.60
802.57	35071.46
802.75	34944.49
802.93	35335.65
803.11	34903.53
803.29	34772.46
803.47	34498.03
803.65	34229.75
803.83	34493.94
804.01	34409.97
804.19	34491.89
804.37	34225.65
804.55	34321.91
804.73	34086.39
804.91	33844.73
805.09	34418.16
805.27	34053.62
805.45	34532.85
805.63	34231.80
805.81	33842.68
805.99	33842.68
806.17	33908.22
806.35	33861.12
806.53	33791.48
806.71	33236.48
806.89	33162.76
807.07	33129.99
807.25	33003.02
807.43	33164.81
807.61	33056.26
807.79	33394.18
807.97	32863.75
808.15	32835.08
808.33	33111.56
808.51	32734.73
808.69	32769.55
808.87	32495.12
809.05	32278.04
809.23	32206.36
809.41	32421.39
809.59	32402.96
809.77	32450.06
809.95	32009.75
810.13	32505.36
810.31	32044.57
810.49	32302.61
810.67	32196.12
810.84	31925.78
811.02	32095.77
811.20	31731.23
811.38	32218.64
811.56	31350.31
811.74	31458.85
811.92	31444.51
812.10	31585.82
812.28	31518.24
812.46	31305.25
812.64	31514.14
812.82	31536.67
813.00	31196.71
813.18	31297.06
813.36	30944.81
813.53	30924.33
813.71	30744.11
813.89	30692.91
814.07	30930.47
814.25	30801.45
814.43	30377.52
814.61	30684.72
814.79	30418.48
814.97	30643.76
815.15	30651.95
815.33	30154.29
815.50	29843.00
815.68	30430.77
815.86	30295.60
816.04	29918.78
816.22	30250.55
816.40	30311.99
816.58	30133.81
816.76	29699.64
816.94	29931.06
817.11	29865.53
817.29	29761.08
817.47	29572.67
817.65	29709.88
817.83	29691.45
818.01	29531.71
818.19	29433.41
818.37	29433.41
818.54	29277.76
818.72	29216.32
818.90	29636.16
819.08	29038.15
819.26	29570.62
819.44	29032.00
819.62	29093.44
819.80	28849.74
819.97	29089.35
820.15	28937.80
820.33	28962.37
820.51	29107.78
820.69	28622.41
820.87	28833.35
821.05	28950.09
821.22	28917.32
821.40	28710.47
821.58	28497.49
821.76	28581.45
821.94	28683.85
822.12	28526.16
822.29	28819.02
822.47	28300.88
822.65	28462.67
822.83	28350.03
823.01	28425.81
823.19	28290.64
823.36	28034.64
823.54	27936.34
823.72	28038.74
823.90	27901.53
824.08	27762.26
824.25	28024.40
824.43	27514.46
824.61	27825.75
824.79	27954.77
824.97	27485.79
825.15	27700.83
825.32	27602.52
825.50	27176.55
825.68	27469.40
825.86	27321.95
826.04	27223.65
826.21	27569.76
826.39	27086.43
826.57	27657.82
826.75	27246.18
826.93	27254.37
827.10	27166.31
827.28	27242.08
827.46	27088.48
827.64	26988.13
827.81	26893.93
827.99	27375.20
828.17	27154.02
828.35	26627.69
828.53	26816.10
828.70	26730.09
828.88	26588.78
829.06	26629.74
829.24	26656.36
829.41	26543.72
829.59	26959.46
829.77	26912.36
829.95	26584.68
830.12	26486.38
830.30	26625.64
830.48	26869.35
830.66	26799.72
830.84	26330.73
831.01	25941.62
831.19	26478.19
831.37	26252.91
831.55	26326.64
831.72	26373.74
831.90	26076.79
832.08	26232.43
832.25	26095.22
832.43	26003.06
832.61	25904.76
832.79	25841.27
832.96	26031.73
833.14	25972.34
833.32	26080.88
833.50	25728.63
833.67	25976.44
833.85	25667.19
834.03	25517.69
834.20	25597.56
834.38	25640.57
834.56	25738.87
834.74	25550.46
834.91	25464.44
835.09	25624.18
835.27	25192.06
835.44	25423.48
835.62	25149.06
835.80	25343.61
835.98	25364.09
836.15	25222.78
836.33	25458.30
836.51	25532.03
836.68	24923.78
836.86	25161.34
837.04	25267.84
837.21	25046.66
837.39	25173.63
837.57	25552.51
837.75	25050.75
837.92	24899.20
838.10	24776.33
838.28	24602.25
838.45	25110.14
838.63	24768.13
838.81	24940.16
838.98	24651.40
839.16	24753.80
839.34	24438.41
839.51	24391.31
839.69	24284.81
839.87	24393.36
840.04	24557.19
840.22	24514.19
840.40	24364.68
840.57	24184.46
840.75	24731.27
840.93	24172.18
841.10	24395.40
841.28	24592.01
841.46	24516.23
841.63	24264.33
841.81	24450.70
841.98	24073.87
842.16	24348.30
842.34	24059.54
842.51	24104.59
842.69	24073.87
842.87	24215.18
843.04	24067.73
843.22	23627.42
843.40	24055.44
843.57	23983.76
843.75	23969.43
843.92	24006.29
844.10	23746.20
844.28	24024.72
844.45	23836.31
844.63	23996.05
844.81	23633.56
844.98	23883.41
845.16	23895.70
845.33	23647.90
845.51	23654.04
845.69	23459.48
845.86	23557.78
846.04	23574.17
846.21	23406.23
846.39	23656.09
846.57	23496.35
846.74	23312.03
846.92	23283.36
847.09	23393.95
847.27	23072.42
847.45	23367.32
847.62	23350.94
847.80	23279.26
847.97	23086.75
848.15	23307.93
848.32	23086.75
848.50	23142.05
848.68	22978.21
848.85	22984.35
849.03	22894.24
849.20	23178.91
849.38	23129.76
849.56	22830.76
849.73	22671.01
849.91	23066.27
850.08	22972.07
850.26	22245.04
850.43	22828.71
850.61	22877.86
850.78	22533.80
850.96	22326.96
851.14	22550.18
851.31	22425.26
851.49	22486.70
851.66	22685.35
851.84	22671.01
852.01	22634.15
852.19	22560.42
852.36	22484.65
852.54	22707.88
852.71	22247.08
852.89	22388.39
853.07	22316.72
853.24	22363.82
853.42	22693.54
853.59	22173.36
853.77	22726.31
853.94	22302.38
854.12	22306.48
854.29	22009.52
854.47	22316.72
854.64	22175.41
854.82	22046.38
854.99	22040.24
855.17	22003.38
855.34	22267.56
855.52	22111.92
855.69	22443.69
855.87	21862.07
856.04	21905.07
856.22	21798.58
856.39	21608.12
856.57	21763.76
856.74	21796.53
856.92	21669.56
857.09	21589.69
857.27	21774.00
857.44	21872.31
857.62	21628.60
857.79	21644.98
857.97	21757.62
858.14	21739.19
858.32	21352.12
858.49	21591.73
858.67	21362.36
858.84	21399.23
859.02	21315.26
859.19	21489.34
859.37	21223.10
859.54	21186.24
859.72	21444.28
859.89	21180.09
860.06	21454.52
860.24	21264.06
860.41	21173.95
860.59	21036.74
860.76	21419.71
860.94	20707.01
861.11	21139.13
861.29	21046.97
861.46	21018.30
861.64	20973.25
861.81	20776.64
861.98	20817.60
862.16	20942.53
862.33	20448.97
862.51	20799.17
862.68	20963.01
862.86	20657.86
863.03	20760.26
863.21	20721.35
863.38	20678.34
863.55	20668.10
863.73	20459.21
863.90	20868.80
864.08	20641.48
864.25	20393.67
864.43	20467.40
864.60	20494.02
864.77	20418.25
864.95	20270.79
865.12	20057.81
865.30	20360.91
865.47	20365.00
865.64	20307.66
865.82	20221.64
865.99	20473.54
866.17	20268.75
866.34	20268.75
866.51	20012.75
866.69	20418.25
866.86	20156.11
867.04	19887.82
867.21	19861.20
867.38	19709.65
867.56	19943.12
867.73	19850.96
867.91	19627.73
868.08	19887.82
868.25	19838.67
868.43	19949.26
868.60	19810.00
868.78	19676.88
868.95	19996.37
869.12	19742.42
869.30	19709.65
869.47	19748.56
869.64	19683.03
869.82	19392.22
869.99	19369.69
870.16	19678.93
870.34	19523.29
870.51	19672.79
870.69	19291.87
870.86	19289.82
871.03	19525.33
871.21	19140.32
871.38	19521.24
871.55	19211.99
871.73	19070.68
871.90	19265.24
872.07	19082.97
872.25	18773.73
872.42	19121.88
872.59	19101.40
872.77	18876.13
872.94	19021.53
873.11	18970.33
873.29	18962.14
873.46	18829.02
873.63	18970.33
873.81	18929.38
873.98	18648.80
874.15	18636.52
874.33	18530.02
874.50	18472.68
874.67	18659.04
874.85	18343.66
875.02	18323.18
875.19	18370.28
875.37	18179.82
875.54	18433.77
875.71	18312.94
875.88	18222.83
876.06	18421.48
876.23	18190.06
876.40	18202.35
876.58	18179.82
876.75	18163.43
876.92	17893.10
877.10	17985.26
877.27	17954.54
877.44	17843.95
877.61	17800.94
877.79	17811.18
877.96	17671.92
878.13	17831.66
878.31	17768.18
878.48	17886.96
878.65	17796.85
878.82	17573.62
879.00	17641.20
879.17	17575.67
879.34	17503.99
879.51	17604.34
879.69	17520.37
879.86	17512.18
880.03	17415.93
880.21	17307.38
880.38	17430.26
880.55	17641.20
880.72	17409.78
880.90	17647.35
881.07	17352.44
881.24	17299.19
881.41	17528.56
881.59	17131.26
881.76	17377.01
881.93	17155.83
882.10	16928.51
882.28	17219.32
882.45	16920.32
882.62	17211.13
882.79	17442.55
882.96	16662.27
883.14	16961.28
883.31	16887.55
883.48	17184.51
883.65	16989.95
883.83	17221.37
884.00	16971.52
884.17	17039.10
884.34	16869.12
884.51	17006.33
884.69	17139.45
884.86	16908.03
885.03	16729.86
885.20	16545.54
885.38	16948.99
885.55	16824.06
885.72	16828.16
885.89	16488.20
886.06	16752.38
886.24	16557.83
886.41	16523.01
886.58	16533.25
886.75	16658.18
886.92	16684.80
887.10	16469.76
887.27	16324.36
887.44	16572.16
887.61	16752.38
887.78	16639.75
887.95	16529.16
888.13	16635.65
888.30	16213.77
888.47	16375.56
888.64	16326.41
888.81	16518.92
888.99	16267.02
889.16	16074.51
889.33	16006.92
889.50	16412.42
889.67	16019.21
889.84	16154.38
890.01	16230.15
890.19	16017.16
890.36	16244.49
890.53	15873.81
890.70	15916.81
890.87	15722.26
891.04	15695.63
891.22	15832.85
891.39	15746.83
891.56	15800.08
891.73	16080.65
891.90	15949.58
892.07	15777.55
892.24	15920.91
892.42	15642.39
892.59	15824.65
892.76	15638.29
892.93	15443.73
893.10	15646.48
893.27	15726.35
893.44	15640.34
893.61	15531.80
893.79	15763.22
893.96	15353.62
894.13	15413.01
894.30	15597.33
894.47	15474.45
894.64	15666.96
894.81	15539.99
894.98	15423.25
895.15	15505.17
895.33	15265.56
895.50	15376.15
895.67	15664.91
895.84	15621.91
896.01	15427.35
896.18	15374.10
896.35	15632.15
896.52	15503.12
896.69	15269.66
896.86	15349.53
897.04	15580.95
897.21	15329.05
897.38	15367.96
897.55	15197.98
897.72	15744.78
897.89	15468.31
898.06	15310.61
898.23	15357.72
898.40	15318.81
898.57	15427.35
898.74	15460.12
898.91	15505.17
899.08	15376.15
899.26	15556.37
899.43	15265.56
899.60	15189.78
899.77	15425.30
899.94	15318.81
900.11	15154.97
900.28	15140.63
900.45	15439.64
900.62	15492.88
900.79	15425.30
900.96	15363.86
901.13	15238.94
901.30	15189.78
901.47	15202.07
901.64	15183.64
901.81	15417.11
901.98	15085.34
902.15	15650.58
902.32	15111.96
902.49	15279.89
902.66	15214.36
902.83	15253.27
903.01	15308.57
903.18	14853.92
903.35	15419.16
903.52	15353.62
903.69	15378.20
903.86	15382.29
904.03	15236.89
904.20	15193.88
904.37	15480.60
904.54	15204.12
904.71	15298.33
904.88	15232.79
905.05	15216.41
905.22	15218.46
905.39	15247.13
905.56	15157.02
905.73	15034.14
905.90	15130.39
906.07	15378.20
906.24	15290.13
906.41	15247.13
906.58	15013.66
906.75	15327.00
906.92	15032.09
907.09	15083.29
907.26	15380.25
907.43	15236.89
907.60	15036.19
907.77	15175.45
907.93	15238.94
908.10	15216.41
908.27	15486.74
908.44	15171.35
908.61	15046.43
908.78	15027.99
908.95	15265.56
909.12	15294.23
909.29	14954.27
909.46	15429.40
909.63	15099.67
909.80	15075.10
909.97	14948.12
910.14	15044.38
910.31	14978.84
910.48	14835.49
910.65	15175.45
910.82	15056.67
910.99	14964.51
911.16	14878.49
911.33	14933.79
911.50	14941.98
911.66	14933.79
911.83	15114.01
912.00	15099.67
912.17	14702.37
912.34	14751.52
912.51	14724.90
912.68	14511.91
912.85	14880.54
913.02	14679.84
913.19	14782.24
913.36	14743.33
913.53	14731.04
913.70	14470.95
913.86	14815.01
914.03	14714.66
914.20	14444.32
914.37	14315.30
914.54	14536.48
914.71	14585.63
914.88	14440.23
915.05	14384.93
915.22	14464.80
915.39	14112.55
915.55	14360.36
915.72	14124.84
915.89	14298.92
916.06	14026.54
916.23	14307.11
916.40	14108.46
916.57	13997.87
916.74	14004.01
916.91	14114.60
917.07	13815.60
917.24	13774.64
917.41	13907.76
917.58	13940.52
917.75	14063.40
917.92	13801.26
918.09	13901.61
918.26	13774.64
918.42	13856.56
918.59	13690.67
918.76	13651.76
918.93	13414.20
919.10	13627.18
919.27	13477.68
919.44	13834.03
919.60	13201.21
919.77	13371.19
919.94	13391.67
920.11	13231.93
920.28	13414.20
920.45	13354.80
920.61	13125.43
920.78	13436.72
920.95	13219.64
921.12	13313.84
921.29	12998.46
921.46	12871.48
921.62	12865.34
921.79	12867.39
921.96	12859.20
922.13	12750.65
922.30	12683.07
922.47	12646.21
922.63	12746.56
922.80	12891.96
922.97	12623.68
923.14	12566.34
923.31	12691.26
923.47	12511.04
923.64	12728.13
923.81	12392.26
923.98	12363.59
924.15	12562.24
924.32	12562.24
924.48	12296.00
924.65	12365.64
924.82	12126.02
924.99	12173.13
925.15	11921.23
925.32	12197.70
925.49	12109.64
925.66	11865.93
925.83	11876.17
925.99	12072.78
926.16	11960.14
926.33	11964.23
926.50	11708.24
926.67	11652.94
926.83	11702.09
927.00	11601.74
927.17	11579.22
927.34	11534.16
927.50	11417.43
927.67	11552.59
927.84	11585.36
928.01	11388.75
928.17	11192.15
928.34	11323.22
928.51	11118.42
928.68	11179.86
928.84	11222.87
929.01	10987.35
929.18	10725.21
929.35	10950.49
929.51	10968.92
929.68	10698.59
929.85	10794.84
930.02	10780.51
930.18	10874.71
930.35	10774.36
930.52	10626.91
930.69	10745.69
930.85	10641.25
931.02	10604.38
931.19	10413.92
931.36	10485.60
931.52	10452.83
931.69	10567.52
931.86	10479.46
932.02	10178.40
932.19	10209.12
932.36	10229.60
932.53	10223.46
932.69	10174.31
932.86	10176.36
933.03	9983.85
933.19	10022.76
933.36	9957.22
933.53	9949.03
933.70	9887.59
933.86	9629.55
934.03	10030.95
934.20	9713.52
934.36	9801.58
934.53	9621.36
934.70	9523.05
934.86	9293.68
935.03	9271.15
935.20	9226.10
935.36	9224.05
935.53	9000.82
935.70	9049.97
935.86	9119.60
936.03	8849.27
936.20	8832.89
936.36	8773.50
936.53	8701.82
936.70	8527.74
936.86	8654.72
937.03	8523.65
937.20	8279.94
937.36	8341.38
937.53	8222.59
937.70	8177.54
937.86	7968.65
938.03	7980.93
938.20	7933.83
938.36	7968.65
938.53	7726.99
938.70	7696.27
938.86	7559.05
939.03	7352.21
939.20	7489.42
939.36	7311.25
939.53	7403.41
939.70	7456.65
939.86	6997.91
940.03	7020.44
940.19	6944.66
940.36	7030.68
940.53	6813.59
940.69	6680.47
940.86	6633.37
941.03	6619.04
941.19	6383.52
941.36	6444.96
941.52	6573.98
941.69	6406.05
941.86	6328.22
942.02	6334.37
942.19	6311.84
942.35	6164.39
942.52	6053.80
942.69	6008.74
942.85	6135.71
943.02	5914.53
943.18	6094.76
943.35	5828.52
943.52	5930.92
943.68	5865.38
943.85	5889.96
944.01	5617.58
944.18	5695.40
944.35	5752.74
944.51	5740.46
944.68	5726.12
944.84	5638.06
945.01	5541.80
945.17	5529.52
945.34	5578.67
945.51	5595.05
945.67	5515.18
945.84	5451.69
946.00	5500.84
946.17	5384.11
946.33	5445.55
946.50	5451.69
946.67	5447.60
946.83	5439.40
947.00	5437.36
947.16	5449.64
947.33	5525.42
947.49	5382.06
947.66	5377.97
947.82	5371.82
947.99	5367.73
948.16	5359.53
948.32	5298.10
948.49	5400.49
948.65	5361.58
948.82	5420.97
948.98	5357.49
949.15	5355.44
949.31	5455.79
949.48	5388.21
949.64	5320.62
949.81	5412.78
949.97	5347.25
950.14	5287.86
950.30	5267.38
950.47	5494.70
950.63	5394.35
950.80	5363.63
950.96	5466.03
951.13	5320.62
951.30	5349.29
951.46	5545.90
951.63	5613.48
951.79	5435.31
951.96	5490.60
952.12	5386.16
952.29	5580.71
952.45	5416.88
952.62	5609.39
952.78	5398.45
952.94	5394.35
953.11	5611.43
953.27	5478.32
953.44	5695.40
953.60	5599.15
953.77	5689.26
953.93	5547.95
954.10	5533.61
954.26	5550.00
954.43	5586.86
954.59	5590.95
954.76	5541.80
954.92	5574.57
955.09	5552.04
955.25	5539.76
955.42	5506.99
955.58	5574.57
955.75	5539.76
955.91	5414.83
956.07	5492.65
956.24	5570.48
956.40	5631.91
956.57	5679.02
956.73	5590.95
956.90	5713.83
957.06	5812.14
957.23	5550.00
957.39	5486.51
957.56	5611.43
957.72	5685.16
957.88	5611.43
958.05	5576.62
958.21	5709.74
958.38	5672.87
958.54	5486.51
958.71	5693.35
958.87	5617.58
959.03	5597.10
959.20	5636.01
959.36	5398.45
959.53	5517.23
959.69	5437.36
959.85	5533.61
960.02	5480.36
960.18	5580.71
960.35	5541.80
960.51	5613.48
960.68	5613.48
960.84	5509.04
961.00	5631.91
961.17	5578.67
961.33	5492.65
961.50	5541.80
961.66	5515.18
961.82	5382.06
961.99	5525.42
962.15	5492.65
962.31	5345.20
962.48	5449.64
962.64	5631.91
962.81	5429.17
962.97	5427.12
963.13	5572.52
963.30	5506.99
963.46	5361.58
963.62	5556.14
963.79	5533.61
963.95	5416.88
964.12	5369.77
964.28	5570.48
964.44	5431.21
964.61	5590.95
964.77	5463.98
964.93	5509.04
965.10	5496.75
965.26	5357.49
965.42	5431.21
965.59	5482.41
965.75	5273.52
965.92	5468.08
966.08	5449.64
966.24	5390.25
966.41	5255.09
966.57	5418.93
966.73	5418.93
966.90	5400.49
967.06	5490.60
967.22	5324.72
967.39	5449.64
967.55	5154.74
967.71	5300.14
967.88	5296.05
968.04	5365.68
968.20	5177.26
968.37	5205.94
968.53	5232.56
968.69	5214.13
968.85	5357.49
969.02	5181.36
969.18	5230.51
969.34	5242.80
969.51	5316.53
969.67	5402.54
969.83	5062.58
970.00	5312.43
970.16	5150.64
970.32	5261.23
970.48	5357.49
970.65	5021.62
970.81	5169.07
970.97	5220.27
971.14	5015.48
971.30	5054.39
971.46	5070.77
971.63	5029.81
971.79	5181.36
971.95	5113.78
972.11	4976.56
972.28	5072.82
972.44	5017.52
972.60	5050.29
972.76	4927.41
972.93	4982.71
973.09	5142.45
973.25	5207.98
973.42	4945.84
973.58	5046.20
973.74	5154.74
973.90	4810.68
974.07	4966.32
974.23	4992.95
974.39	5040.05
974.55	4814.77
974.72	4863.93
974.88	4767.67
975.04	4943.80
975.20	4878.26
975.37	4779.96
975.53	4882.36
975.69	4806.58
975.85	4755.38
976.01	4739.00
976.18	4892.60
976.34	4685.75
976.50	4845.49
976.66	4892.60
976.83	4839.35
976.99	4773.82
977.15	4804.53
977.31	4782.01
977.47	4931.51
977.64	4857.78
977.80	4657.08
977.96	4728.76
978.12	4614.07
978.29	4575.16
978.45	4507.58
978.61	4538.30
978.77	4650.94
978.93	4562.87
979.10	4622.27
979.26	4704.18
979.42	4558.78
979.58	4495.29
979.74	4489.15
979.91	4648.89
980.07	4589.50
980.23	4650.94
980.39	4499.39
980.55	4571.07
980.71	4517.82
980.88	4523.96
981.04	4534.20
981.20	4526.01
981.36	4571.07
981.52	4499.39
981.68	4495.29
981.85	4460.48
982.01	4433.85
982.17	4323.26
982.33	4407.23
982.49	4499.39
982.65	4413.37
982.82	4386.75
982.98	4526.01
983.14	4263.87
983.30	4456.38
983.46	4485.05
983.62	4448.19
983.79	4204.48
983.95	4419.52
984.11	4188.10
984.27	4251.58
984.43	4255.68
984.59	4302.78
984.75	4423.61
984.91	4300.73
985.08	4339.65
985.24	4149.18
985.40	4136.90
985.56	4292.54
985.72	4231.10
985.88	4274.11
986.04	4251.58
986.20	4081.60
986.37	4161.47
986.53	4171.71
986.69	4188.10
986.85	4081.60
987.01	4059.07
987.17	4022.21
987.33	4095.94
987.49	4038.59
987.65	4263.87
987.82	4005.83
987.98	4007.87
988.14	3985.35
988.30	4030.40
988.46	3895.24
988.62	4001.73
988.78	4018.11
988.94	4024.26
989.10	3893.19
989.26	3985.35
989.42	3907.52
989.59	3825.61
989.75	3915.72
989.91	3956.68
990.07	3753.93
990.23	3796.93
990.39	3837.89
990.55	3893.19
990.71	3796.93
990.87	3821.51
991.03	3837.89
991.19	3755.97
991.35	3803.08
991.51	3796.93
991.67	3897.28
991.83	3768.26
992.00	3876.80
992.16	3854.28
992.32	3788.74
992.48	3848.13
992.64	3747.78
992.80	3846.09
992.96	3778.50
993.12	3712.97
993.28	3737.54
993.44	3729.35
993.60	3766.21
993.76	3690.44
993.92	3669.96
994.08	3622.86
994.24	3706.82
994.40	3702.73
994.56	3598.28
994.72	3602.38
994.88	3598.28
995.04	3542.99
995.20	3651.53
995.36	3553.23
995.52	3669.96
995.68	3608.52
995.84	3461.07
996.00	3661.77
996.16	3502.03
996.32	3379.15
996.48	3540.94
996.64	3610.57
996.80	3471.31
996.96	3522.51
997.12	3370.96
997.28	3401.68
997.44	3504.07
997.60	3452.88
997.76	3518.41
997.92	3526.60
998.08	3444.68
998.24	3424.20
998.40	3489.74
998.56	3426.25
998.72	3350.48
998.88	3442.64
999.04	3362.76
999.20	3407.82
999.36	3342.28
999.52	3440.59
999.68	3321.81
999.84	3303.37
1000.00	3289.04
1000.16	3444.68
1000.32	3282.89
1000.48	3420.11
1000.64	3190.74
1000.80	3235.79
1000.95	3139.54
1001.11	3321.81
1001.27	3213.26
1001.43	3217.36
1001.59	3098.58
1001.75	3174.35
1001.91	3196.88
1002.07	3131.34
1002.23	3074.00
1002.39	3194.83
1002.55	3088.34
1002.71	3223.50
1002.87	3049.43
1003.03	3198.93
1003.19	3127.25
1003.34	3276.75
1003.50	3086.29
1003.66	3143.63
1003.82	3078.10
1003.98	3076.05
1004.14	3065.81
1004.30	3067.86
1004.46	3100.62
1004.62	3018.71
1004.78	3119.06
1004.94	3030.99
1005.09	3084.24
1005.25	3164.11
1005.41	3024.85
1005.57	3000.27
1005.73	3035.09
1005.89	2932.69
1006.05	2987.99
1006.21	3082.19
1006.37	2932.69
1006.52	3002.32
1006.68	2861.01
1006.84	3084.24
1007.00	2885.59
1007.16	3100.62
1007.32	2971.60
1007.48	2949.08
1007.64	3055.57
1007.79	2809.81
1007.95	2877.40
1008.11	2889.68
1008.27	2873.30
1008.43	2854.87
1008.59	2916.31
1008.75	2918.36
1008.91	2869.20
1009.06	2863.06
1009.22	2793.43
1009.38	2828.24
1009.54	2811.86
1009.70	2844.63
1009.86	2918.36
1010.01	2805.72
1010.17	2684.89
1010.33	2758.61
1010.49	2719.70
1010.65	2828.24
1010.81	2715.61
1010.96	2791.38
1011.12	2738.13
1011.28	2756.57
1011.44	2734.04
1011.60	2770.90
1011.76	2709.46
1011.91	2758.61
1012.07	2707.41
1012.23	2660.31
1012.39	2682.84
1012.55	2752.47
1012.71	2762.71
1012.86	2648.02
1013.02	2551.77
1013.18	2594.78
1013.34	2764.76
1013.50	2748.37
1013.65	2639.83
1013.81	2535.39
1013.97	2623.45
1014.13	2605.02
1014.29	2682.84
1014.44	2656.22
1014.60	2580.44
1014.76	2611.16
1014.92	2531.29
1015.07	2609.11
1015.23	2672.60
1015.39	2555.86
1015.55	2605.02
1015.71	2502.62
1015.86	2496.47
1016.02	2527.19
1016.18	2488.28
1016.34	2566.10
1016.49	2525.15
1016.65	2582.49
1016.81	2484.19
1016.97	2496.47
1017.12	2549.72
1017.28	2473.95
1017.44	2445.27
1017.60	2490.33
1017.75	2551.77
1017.91	2453.47
1018.07	2461.66
1018.23	2516.95
1018.38	2502.62
1018.54	2451.42
1018.70	2385.88
1018.86	2488.28
1019.01	2381.79
1019.17	2412.51
1019.33	2533.34
1019.49	2459.61
1019.64	2467.80
1019.80	2420.70
1019.96	2422.75
1020.12	2475.99
1020.27	2312.16
1020.43	2424.80
1020.59	2430.94
1020.74	2449.37
1020.90	2420.70
1021.06	2375.64
1021.22	2443.23
1021.37	2351.07
1021.53	2260.96
1021.69	2387.93
1021.84	2248.67
1022.00	2326.49
1022.16	2312.16
1022.31	2265.05
1022.47	2344.92
1022.63	2385.88
1022.79	2207.71
1022.94	2271.20
1023.10	2408.41
1023.26	2324.44
1023.41	2330.59
1023.57	2269.15
1023.73	2281.44
1023.88	2306.01
1024.04	2170.85
1024.20	2279.39
1024.35	2277.34
1024.51	2293.72
1024.67	2191.33
1024.82	2338.78
1024.98	2174.94
1025.14	2359.26
1025.29	2191.33
1025.45	2236.38
1025.61	2148.32
1025.76	2252.77
1025.92	2263.01
1026.08	2324.44
1026.23	2185.18
1026.39	2248.67
1026.55	2174.94
1026.70	2174.94
1026.86	2179.04
1027.02	2211.81
1027.17	2234.33
1027.33	2269.15
1027.48	2144.22
1027.64	2125.79
1027.80	2142.18
1027.95	2205.66
1028.11	2058.21
1028.27	2123.74
1028.42	2156.51
1028.58	2101.22
1028.73	2099.17
1028.89	2140.13
1029.05	2207.71
1029.20	2203.61
>>>>>End Processed Spectral Data<<<<<
