SpectraSuite Data File
++++++++++++++++++++++++++++++++++++
Date: Fri Jun 02 14:57:18 CEST 2017
User: INFO_000
Dark Spectrum Present: No
Reference Spectrum Present: No
Number of Sampled Component Spectra: 1
Spectrometers: USB4H00879
Integration Time (usec): 80000 (USB4H00879)
Spectra Averaged: 1 (USB4H00879)
Boxcar Smoothing: 0 (USB4H00879)
Correct for Electrical Dark: No (USB4H00879)
Strobe/Lamp Enabled: No (USB4H00879)
Correct for Detector Non-linearity: No (USB4H00879)
Correct for Stray Light: No (USB4H00879)
Number of Pixels in Processed Spectrum: 3648
>>>>>Begin Processed Spectral Data<<<<<
345.13	1335.28
345.34	1335.28
345.56	1335.28
345.78	1273.84
345.99	1269.74
346.21	1708.01
346.42	1689.57
346.64	1636.33
346.86	1802.21
347.07	1677.29
347.29	1691.62
347.50	1593.32
347.72	1662.95
347.94	1759.21
348.15	1578.98
348.37	1677.29
348.59	1708.01
348.80	1724.39
349.02	1753.06
349.23	1845.22
349.45	1851.36
349.67	1865.70
349.88	1757.16
350.10	1968.10
350.31	1832.93
350.53	1759.21
350.75	2011.11
350.96	1812.45
351.18	1859.56
351.39	1839.08
351.61	1826.79
351.82	1865.70
352.04	1908.71
352.26	1812.45
352.47	1902.56
352.69	1900.52
352.90	1798.12
353.12	1892.32
353.34	1877.99
353.55	1951.71
353.77	1906.66
353.98	1877.99
354.20	1880.04
354.41	1900.52
354.63	1957.86
354.85	2093.02
355.06	1945.57
355.28	1806.31
355.49	2033.63
355.71	1910.75
355.92	1896.42
356.14	1945.57
356.35	1841.12
356.57	1781.73
356.79	1933.28
357.00	1804.26
357.22	2035.68
357.43	1834.98
357.65	1968.10
357.86	1920.99
358.08	1941.47
358.29	2019.30
358.51	1947.62
358.72	2013.15
358.94	1869.80
359.16	1912.80
359.37	2029.54
359.59	1900.52
359.80	2021.35
360.02	1974.24
360.23	1988.58
360.45	2080.74
360.66	2017.25
360.88	1892.32
361.09	1914.85
361.31	1996.77
361.52	1937.38
361.74	2097.12
361.95	1986.53
362.17	1925.09
362.38	2052.06
362.60	2052.06
362.81	2056.16
363.03	1945.57
363.24	1976.29
363.46	2072.54
363.67	2027.49
363.89	2009.06
364.10	2035.68
364.32	1957.86
364.53	1986.53
364.75	1957.86
364.96	1937.38
365.18	2037.73
365.39	1984.48
365.61	1988.58
365.82	2072.54
366.04	2033.63
366.25	2007.01
366.47	2047.97
366.68	2033.63
366.90	1929.19
367.11	2097.12
367.33	2078.69
367.54	2031.58
367.76	2013.15
367.97	2033.63
368.19	2025.44
368.40	2164.70
368.62	2027.49
368.83	1996.77
369.05	2084.83
369.26	2015.20
369.48	1972.19
369.69	2019.30
369.91	2062.30
370.12	2050.02
370.33	2146.27
370.55	1986.53
370.76	2086.88
370.98	2144.22
371.19	2172.89
371.41	2093.02
371.62	2076.64
371.84	2058.21
372.05	2228.19
372.27	2115.55
372.48	2138.08
372.69	2060.26
372.91	2150.37
373.12	2211.81
373.34	2035.68
373.55	2232.29
373.77	2150.37
373.98	2041.82
374.20	2209.76
374.41	2248.67
374.62	2191.33
374.84	2162.66
375.05	2217.95
375.27	2215.90
375.48	2236.38
375.70	2066.40
375.91	2267.10
376.12	2308.06
376.34	2170.85
376.55	2170.85
376.77	2265.05
376.98	2183.13
377.19	2107.36
377.41	2203.61
377.62	2232.29
377.84	2252.77
378.05	2355.16
378.27	2213.85
378.48	2320.35
378.69	2402.27
378.91	2289.63
379.12	2242.53
379.34	2263.01
379.55	2328.54
379.76	2328.54
379.98	2263.01
380.19	2330.59
380.41	2295.77
380.62	2263.01
380.83	2279.39
381.05	2174.94
381.26	2422.75
381.47	2263.01
381.69	2238.43
381.90	2379.74
382.12	2246.62
382.33	2220.00
382.54	2365.40
382.76	2387.93
382.97	2269.15
383.19	2254.81
383.40	2349.02
383.61	2293.72
383.83	2295.77
384.04	2310.11
384.25	2404.32
384.47	2410.46
384.68	2359.26
384.89	2349.02
385.11	2320.35
385.32	2435.03
385.54	2344.92
385.75	2338.78
385.96	2428.89
386.18	2281.44
386.39	2375.64
386.60	2355.16
386.82	2469.85
387.03	2402.27
387.24	2519.00
387.46	2410.46
387.67	2525.15
387.88	2432.99
388.10	2410.46
388.31	2480.09
388.52	2547.67
388.74	2541.53
388.95	2551.77
389.16	2527.19
389.38	2504.67
389.59	2533.34
389.80	2662.36
390.02	2469.85
390.23	2627.54
390.44	2613.21
390.66	2592.73
390.87	2482.14
391.08	2590.68
391.30	2609.11
391.51	2625.50
391.72	2629.59
391.94	2658.26
392.15	2631.64
392.36	2670.55
392.58	2643.93
392.79	2658.26
393.00	2715.61
393.22	2676.70
393.43	2723.80
393.64	2705.37
393.85	2772.95
394.07	2701.27
394.28	2770.90
394.49	2746.33
394.71	2822.10
394.92	2738.13
395.13	2727.89
395.35	2664.41
395.56	2807.77
395.77	2707.41
395.98	2818.00
396.20	2854.87
396.41	2932.69
396.62	2775.00
396.84	2785.24
397.05	2822.10
397.26	2922.45
397.47	2918.36
397.69	2854.87
397.90	3047.38
398.11	2891.73
398.32	2736.09
398.54	2975.70
398.75	2826.20
398.96	2951.12
399.18	2981.84
399.39	3006.42
399.60	3020.75
399.81	2850.77
400.03	2967.51
400.24	3282.89
400.45	2979.79
400.66	3080.14
400.88	2951.12
401.09	3203.02
401.30	3078.10
401.51	3205.07
401.73	3127.25
401.94	3184.59
402.15	3092.43
402.36	3168.21
402.58	3229.65
402.79	3170.26
403.00	3157.97
403.21	3241.93
403.43	3268.56
403.64	3250.13
403.85	3127.25
404.06	3207.12
404.27	3235.79
404.49	3286.99
404.70	3176.40
404.91	3330.00
405.12	3307.47
405.34	3284.94
405.55	3454.92
405.76	3051.47
405.97	3166.16
406.19	3475.40
406.40	3307.47
406.61	3248.08
406.82	3364.81
407.03	3401.68
407.25	3385.29
407.46	3358.67
407.67	3364.81
407.88	3579.85
408.09	3588.04
408.31	3299.28
408.52	3510.22
408.73	3426.25
408.94	3321.81
409.15	3481.55
409.37	3528.65
409.58	3522.51
409.79	3487.69
410.00	3678.15
410.21	3459.02
410.43	3426.25
410.64	3518.41
410.85	3477.45
411.06	3555.27
411.27	3524.55
411.48	3723.21
411.70	3514.31
411.91	3672.01
412.12	3635.14
412.33	3606.47
412.54	3653.58
412.76	3739.59
412.97	3641.29
413.18	3641.29
413.39	3772.36
413.60	3823.56
413.81	3659.72
414.03	3727.30
414.24	3731.40
414.45	3774.41
414.66	3620.81
414.87	3829.70
415.08	3936.20
415.30	3669.96
415.51	3782.60
415.72	3739.59
415.93	3725.26
416.14	3944.39
416.35	3805.13
416.56	3706.82
416.78	3925.96
416.99	3932.10
417.20	3944.39
417.41	3903.43
417.62	3948.48
417.83	4020.16
418.04	3962.82
418.26	3971.01
418.47	3995.59
418.68	4136.90
418.89	3979.20
419.10	4048.83
419.31	4054.98
419.52	4153.28
419.73	4112.32
419.95	4147.14
420.16	3915.72
420.37	4077.51
420.58	4018.11
420.79	3954.63
421.00	4138.94
421.21	4239.30
421.42	4071.36
421.63	4290.49
421.85	4249.54
422.06	4192.19
422.27	4218.82
422.48	4132.80
422.69	4157.38
422.90	4302.78
423.11	4325.31
423.32	4339.65
423.53	4536.25
423.75	4386.75
423.96	4458.43
424.17	4433.85
424.38	4546.49
424.59	4448.19
424.80	4622.27
425.01	4392.89
425.22	4364.22
425.43	4462.52
425.64	4558.78
425.85	4677.56
426.06	4618.17
426.28	4593.59
426.49	4607.93
426.70	4493.24
426.91	4620.22
427.12	4599.74
427.33	4700.09
427.54	4534.20
427.75	4708.28
427.96	4726.71
428.17	4661.18
428.38	4876.21
428.59	4816.82
428.80	4827.06
429.01	4896.69
429.23	4769.72
429.44	4951.99
429.65	4956.08
429.86	4870.07
430.07	4784.06
430.28	4820.92
430.49	4859.83
430.70	5169.07
430.91	5044.15
431.12	4939.70
431.33	5140.40
431.54	5207.98
431.75	5103.54
431.96	5193.65
432.17	5078.96
432.38	5033.91
432.59	5429.17
432.80	5244.85
433.01	5201.84
433.22	5226.42
433.43	5177.26
433.64	5277.62
433.85	5214.13
434.06	5330.86
434.27	5095.35
434.49	5349.29
434.70	5480.36
434.91	5410.73
435.12	5463.98
435.33	5439.40
435.54	5492.65
435.75	5222.32
435.96	5234.61
436.17	5218.22
436.38	5619.63
436.59	5478.32
436.80	5347.25
437.01	5648.30
437.22	5607.34
437.43	5470.12
437.64	5412.78
437.85	5582.76
438.06	5541.80
438.27	5646.25
438.48	5765.03
438.69	5771.18
438.90	5636.01
439.11	5482.41
439.32	5844.90
439.53	5812.14
439.74	5849.00
439.95	5832.62
440.16	5791.66
440.37	5773.22
440.57	5597.10
440.78	5992.36
440.99	5844.90
441.20	5785.51
441.41	5697.45
441.62	5826.47
441.83	5803.94
442.04	5953.45
442.25	5836.71
442.46	5863.33
442.67	5961.64
442.88	6293.41
443.09	5836.71
443.30	6195.11
443.51	6084.52
443.72	6451.10
443.93	5982.12
444.14	6227.87
444.35	6129.57
444.56	6340.51
444.77	6311.84
444.98	6234.02
445.19	6356.90
445.40	6363.04
445.61	6322.08
445.81	6358.94
446.02	6414.24
446.23	6395.81
446.44	6242.21
446.65	6377.37
446.86	6447.01
447.07	6666.14
447.28	6455.20
447.49	6502.30
447.70	6416.29
447.91	6645.66
448.12	6741.91
448.33	6760.34
448.54	6664.09
448.74	6690.71
448.95	6836.12
449.16	6703.00
449.37	6961.05
449.58	6776.73
449.79	7034.77
450.00	6760.34
450.21	6868.89
450.42	6881.18
450.63	6963.09
450.84	6987.67
451.05	7096.21
451.25	6983.57
451.46	7034.77
451.67	7065.49
451.88	7116.69
452.09	7104.40
452.30	7163.79
452.51	7108.50
452.72	7292.82
452.93	7538.57
453.13	7063.44
453.34	7321.49
453.55	7298.96
453.76	7344.02
453.97	7610.25
454.18	7249.81
454.39	7606.16
454.60	7450.51
454.81	7475.09
455.01	7739.27
455.22	7419.79
455.43	7702.41
455.64	7860.10
455.85	7884.68
456.06	8099.72
456.27	7851.91
456.48	7753.61
456.68	7817.10
456.89	7925.64
457.10	7858.06
457.31	7968.65
457.52	7950.21
457.73	8175.49
457.94	8300.42
458.14	8015.75
458.35	8519.55
458.56	8300.42
458.77	8148.87
458.98	8107.91
459.19	8429.44
459.39	8499.07
459.60	8685.44
459.81	8466.30
460.02	8732.54
460.23	8552.32
460.44	8804.22
460.65	8765.31
460.85	8820.60
461.06	8996.73
461.27	8662.91
461.48	8966.01
461.69	9129.84
461.89	8853.37
462.10	9072.50
462.31	8839.03
462.52	9023.35
462.73	8945.53
462.94	9338.74
463.14	9365.36
463.35	9258.87
463.56	9627.50
463.77	9529.20
463.98	9480.05
464.18	9480.05
464.39	9467.76
464.60	9688.94
464.81	9637.74
465.02	9781.10
465.23	10043.24
465.43	9711.47
465.64	10063.72
465.85	10051.43
466.06	9795.43
466.27	10340.19
466.47	10121.06
466.68	10305.38
466.89	10254.18
467.10	10458.98
467.30	10231.65
467.51	10506.08
467.72	10606.43
467.93	10360.67
468.14	10647.39
468.34	10755.93
468.55	10737.50
468.76	10848.09
468.97	10657.63
469.17	10991.45
469.38	10923.87
469.59	10973.02
469.80	11155.29
470.01	11108.18
470.21	11310.93
470.42	11378.51
470.63	11347.79
470.84	11251.54
471.04	11464.53
471.25	11401.04
471.46	11521.87
471.67	11894.60
471.87	11738.96
472.08	11968.33
472.29	12052.30
472.50	11620.17
472.70	11884.36
472.91	11892.55
473.12	12181.32
473.33	12255.04
473.53	12506.95
473.74	12267.33
473.95	12513.09
474.16	12666.69
474.36	12670.78
474.57	12703.55
474.78	12846.91
474.99	12732.22
475.19	12904.25
475.40	13061.94
475.61	13129.53
475.81	13272.89
476.02	13616.94
476.23	13399.86
476.44	13664.05
476.64	13887.28
476.85	13915.95
477.06	13840.17
477.27	14024.49
477.47	14073.64
477.68	14100.26
477.89	14092.07
478.09	14133.03
478.30	14130.98
478.51	14313.25
478.71	14411.56
478.92	14393.12
479.13	14653.22
479.34	14700.32
479.54	14700.32
479.75	14649.12
479.96	14757.66
480.16	14874.40
480.37	14872.35
480.58	15114.01
480.78	15322.90
480.99	15294.23
481.20	15423.25
481.41	15513.36
481.61	15660.82
481.82	15693.58
482.03	15791.89
482.23	15566.61
482.44	16219.91
482.65	16197.38
482.85	15992.59
483.06	16080.65
483.27	16406.28
483.47	16373.51
483.68	16647.94
483.89	16772.86
484.09	16254.73
484.30	16725.76
484.51	16541.44
484.71	16738.05
484.92	16930.56
485.13	17233.66
485.33	17223.42
485.54	16987.90
485.75	17569.52
485.95	17610.48
486.16	17395.45
486.37	17366.78
486.57	17661.68
486.78	17827.57
486.98	17745.65
487.19	17936.11
487.40	18003.69
487.60	17878.77
487.81	18368.23
488.02	17989.36
488.22	18102.00
488.43	18411.24
488.64	18624.23
488.84	18550.50
489.05	18689.76
489.25	18646.76
489.46	18777.83
489.67	18558.69
489.87	19003.10
490.08	19214.04
490.29	18693.86
490.49	19357.40
490.70	19406.55
490.90	19320.54
491.11	19234.52
491.32	19451.61
491.52	19470.04
491.73	19648.21
491.94	19613.40
492.14	19525.33
492.35	19740.37
492.55	20088.53
492.76	19963.60
492.97	20074.19
493.17	20213.45
493.38	20168.40
493.58	20655.81
493.79	20471.50
494.00	20301.51
494.20	20260.55
494.41	20459.21
494.61	20879.04
494.82	20811.46
495.02	20909.76
495.23	20784.83
495.44	21003.97
495.64	21225.15
495.85	20967.10
496.05	21399.23
496.26	21284.54
496.47	21356.22
496.67	21110.46
496.88	21620.41
497.08	21407.42
497.29	21663.41
497.49	21458.62
497.70	21804.72
497.91	21790.39
498.11	22099.63
498.32	22218.41
498.52	21868.21
498.73	22486.70
498.93	22466.22
499.14	22271.66
499.34	22238.89
499.55	22423.21
499.76	22263.47
499.96	22718.12
500.17	22468.27
500.37	22802.08
500.58	22800.04
500.78	22687.40
500.99	23189.15
501.19	23115.42
501.40	22867.62
501.60	23256.73
501.81	23127.71
502.02	23197.34
502.22	23121.57
502.43	23277.21
502.63	23766.68
502.84	23608.98
503.04	23637.66
503.25	23568.02
503.45	23195.29
503.66	23762.58
503.86	23701.14
504.07	24223.37
504.27	23699.09
504.48	24534.67
504.68	24045.20
504.89	24604.30
505.09	24346.25
505.30	24561.29
505.50	24434.32
505.71	24358.54
505.91	24669.83
506.12	24712.84
506.32	24657.54
506.53	24794.76
506.73	24807.05
506.94	25104.00
507.14	24815.24
507.35	24880.77
507.55	25067.14
507.76	25087.62
507.96	24909.44
508.17	24907.40
508.37	25159.30
508.58	25106.05
508.78	25091.71
508.99	25589.37
509.19	25202.30
509.40	25593.47
509.60	25501.31
509.81	25667.19
510.01	25732.73
510.22	25937.52
510.42	25978.48
510.63	25788.02
510.83	25726.58
511.04	25949.81
511.24	25845.37
511.44	26150.51
511.65	26381.93
511.85	26070.64
512.06	26005.11
512.26	26164.85
512.47	26398.32
512.67	26343.02
512.88	26629.74
513.08	25904.76
513.29	26992.23
513.49	26707.56
513.69	26662.51
513.90	26668.65
514.10	26938.98
514.31	26924.65
514.51	27168.35
514.72	27248.22
514.92	26973.80
515.13	27078.24
515.33	27280.99
515.53	27018.85
515.74	27651.67
515.94	27682.39
516.15	27401.82
516.35	27383.39
516.56	27776.60
516.76	27584.09
516.96	27737.69
517.17	27772.50
517.37	27958.87
517.58	27930.20
517.78	27901.53
517.99	28018.26
518.19	28499.53
518.39	28270.16
518.60	28352.08
518.80	28608.08
519.01	28618.32
519.21	28534.35
519.41	28755.53
519.62	28737.10
519.82	28890.70
520.03	28954.18
520.23	28763.72
520.43	29201.99
520.64	29337.15
520.84	29554.24
521.05	29404.74
521.25	29191.75
521.45	29435.45
521.66	29386.30
521.86	29511.23
522.07	29613.63
522.27	29623.87
522.47	29701.69
522.68	29902.39
522.88	29832.76
523.08	30240.31
523.29	30144.05
523.49	30258.74
523.70	30414.38
523.90	30797.35
524.10	30621.23
524.31	30731.82
524.51	30465.58
524.71	31098.41
524.92	31254.05
525.12	31256.10
525.33	31032.87
525.53	31241.76
525.73	31209.00
525.94	31421.98
526.14	31493.66
526.34	31804.95
526.55	31782.43
526.75	31456.80
526.95	32226.84
527.16	31829.53
527.36	31972.89
527.56	31933.98
527.77	32466.45
527.97	32216.60
528.17	32466.45
528.38	32521.74
528.58	32681.49
528.78	32851.47
528.99	32720.40
529.19	33084.94
529.39	32808.46
529.60	33334.79
529.80	32812.56
530.00	33021.45
530.21	33439.23
530.41	33740.29
530.61	33537.54
530.82	33629.69
531.02	33762.81
531.22	34176.50
531.43	34006.52
531.63	34369.01
531.83	34186.74
532.04	34522.61
532.24	34268.66
532.44	34643.44
532.64	34842.09
532.85	34987.50
533.05	34770.41
533.25	34911.72
533.46	34964.97
533.66	35362.28
533.86	35311.08
534.07	35386.85
534.27	35399.14
534.47	35696.10
534.67	35915.23
534.88	35565.03
535.08	35739.10
535.28	35698.14
535.49	36337.11
535.69	36697.55
535.89	36459.99
536.09	36425.17
536.30	36578.77
536.50	36437.46
536.70	36959.69
536.91	36771.28
537.11	36914.64
537.31	37053.90
537.51	36896.20
537.72	37103.05
537.92	37445.06
538.12	37719.49
538.32	37184.97
538.53	38075.84
538.73	37545.41
538.93	37905.85
539.13	37995.96
539.34	37819.84
539.54	37594.56
539.74	38350.26
539.94	38081.98
540.15	38196.67
540.35	38538.68
540.55	38256.06
540.75	38075.84
540.96	38417.85
541.16	38346.17
541.36	38700.47
541.56	38741.42
541.77	38768.05
541.97	39191.98
542.17	38987.18
542.37	38837.68
542.58	39255.46
542.78	39333.29
542.98	39267.75
543.18	39265.70
543.38	39404.97
543.59	39757.22
543.79	39155.11
543.99	39595.43
544.19	39579.04
544.40	39982.49
544.60	40068.51
544.80	39939.49
545.00	39990.69
545.20	40373.66
545.41	40150.43
545.61	39976.35
545.81	40557.97
546.01	40199.58
546.21	40162.72
546.42	40357.27
546.62	40621.46
546.82	40349.08
547.02	40555.93
547.22	40791.44
547.43	40893.84
547.63	40818.07
547.83	41280.91
548.03	40580.50
548.23	41022.86
548.44	40922.51
548.64	41194.89
548.84	41143.69
549.04	41139.60
549.24	41440.65
549.45	41608.58
549.65	41407.88
549.85	41022.86
550.05	41387.40
550.25	41364.87
550.45	41971.07
550.66	41667.97
550.86	41381.26
551.06	41864.58
551.26	41956.74
551.46	42102.14
551.66	41850.24
551.87	41612.68
552.07	42102.14
552.27	42098.05
552.47	41670.02
552.67	42169.72
552.87	41938.30
553.07	42030.46
553.28	42268.03
553.48	42175.87
553.68	42114.43
553.88	42567.03
554.08	42304.89
554.28	42229.12
554.48	42225.02
554.69	42610.04
554.89	42139.00
555.09	42524.02
555.29	42509.69
555.49	42618.23
555.69	42499.45
555.89	42526.07
556.10	42866.03
556.30	42380.67
556.50	42906.99
556.70	42636.66
556.90	42874.23
557.10	43029.87
557.30	42550.65
557.50	43418.99
557.70	43300.20
557.91	42673.52
558.11	42689.91
558.31	42943.86
558.51	42919.28
558.71	42886.51
558.91	43255.15
559.11	42888.56
559.31	43136.37
559.51	43119.98
559.72	43169.13
559.92	43062.64
560.12	43548.01
560.32	43251.05
560.52	42833.27
560.72	43472.23
560.92	42990.96
561.12	43345.26
561.32	43662.69
561.52	43371.88
561.72	43828.58
561.93	42798.45
562.13	43074.93
562.33	42855.79
562.53	44010.85
562.73	43392.36
562.93	43300.20
563.13	43494.76
563.33	43570.54
563.53	44027.23
563.73	43578.73
563.93	43550.06
564.13	44340.57
564.33	43595.11
564.53	43486.57
564.74	44254.56
564.94	43818.34
565.14	43631.97
565.34	43693.41
565.54	44268.89
565.74	43527.53
565.94	44152.16
566.14	43423.08
566.34	43922.79
566.54	44313.95
566.74	44031.33
566.94	44172.64
567.14	44332.38
567.34	43793.76
567.54	43980.13
567.74	43881.83
567.94	44074.34
568.14	44234.08
568.34	44426.59
568.54	44139.87
568.74	44367.20
568.94	44197.21
569.14	44827.99
569.34	44164.45
569.54	44309.85
569.75	43965.79
569.95	44092.77
570.15	44688.73
570.35	44320.09
570.55	44408.15
570.75	44741.97
570.95	44647.77
571.15	44438.87
571.35	44524.89
571.55	44666.20
571.75	44440.92
571.95	44807.51
572.15	44270.94
572.35	44569.94
572.55	44995.92
572.75	44748.12
572.95	44922.19
573.15	45047.12
573.35	44770.64
573.55	44418.39
573.75	44739.93
573.95	44914.00
574.15	44883.28
574.35	44803.41
574.55	44574.04
574.75	44594.52
574.95	45124.94
575.15	45000.02
575.34	45004.11
575.54	45276.49
575.74	45393.23
575.94	45282.64
576.14	44875.09
576.34	45667.66
576.54	45694.28
576.74	45528.39
576.94	45036.88
577.14	45774.15
577.34	46527.80
577.54	45471.05
577.74	45397.32
577.94	45638.98
578.14	45569.35
578.34	45782.34
578.54	45186.38
578.74	45968.71
578.94	45710.66
579.14	45731.14
579.34	45413.71
579.54	45647.18
579.74	46222.65
579.94	45765.96
580.13	45802.82
580.33	45847.88
580.53	46019.91
580.73	46128.45
580.93	45831.49
581.13	46050.63
581.33	46384.44
581.53	46370.11
581.73	46445.88
581.93	46679.35
582.13	46363.96
582.33	46517.56
582.53	46361.92
582.73	46605.62
582.92	46378.30
583.12	46568.76
583.32	46558.52
583.52	46271.81
583.72	46787.89
583.92	46595.38
584.12	46832.95
584.32	47068.47
584.52	46851.38
584.72	47066.42
584.92	47017.27
585.11	47269.17
585.31	47113.52
585.51	47387.95
585.71	46863.67
585.91	47523.11
586.11	47043.89
586.31	47168.82
586.51	47183.15
586.71	47404.33
586.91	47308.08
587.10	47557.93
587.30	47650.09
587.50	47549.74
587.70	47412.52
587.90	47748.39
588.10	48028.96
588.30	47645.99
588.50	47717.67
588.69	47836.45
588.89	47502.64
589.09	48035.11
589.29	48194.85
589.49	48395.55
589.69	47211.82
589.89	48456.99
590.08	48114.98
590.28	48334.11
590.48	48235.81
590.68	48090.40
590.88	48518.43
591.08	48137.51
591.28	48051.49
591.47	48307.49
591.67	48377.12
591.87	48471.32
592.07	48489.76
592.27	48583.96
592.47	48764.18
592.67	48297.25
592.86	48596.25
593.06	48626.97
593.26	48878.87
593.46	48686.36
593.66	49050.90
593.86	48749.85
594.05	48839.96
594.25	49620.23
594.45	48508.19
594.65	48844.05
594.85	48799.00
595.05	48950.55
595.24	49286.42
595.44	49198.35
595.64	49284.37
595.84	49048.85
596.04	49517.84
596.23	49683.72
596.43	49431.82
596.63	49548.56
596.83	49810.70
597.03	49595.66
597.22	50009.35
597.42	49804.55
597.62	50414.85
597.82	50248.96
598.02	49458.45
598.21	49976.58
598.41	50070.79
598.61	50017.54
598.81	50400.51
599.01	50097.41
599.20	50427.13
599.40	49788.17
599.60	50568.44
599.80	50431.23
600.00	50334.98
600.19	50740.47
600.39	50363.65
600.59	50756.86
600.79	50533.63
600.98	50590.97
601.18	50662.65
601.38	51277.04
601.58	50963.70
601.78	50967.80
601.97	51049.72
602.17	51363.06
602.37	51238.13
602.57	50877.69
602.76	51324.14
602.96	50863.35
603.16	51528.94
603.36	51594.48
603.55	52030.69
603.75	52024.55
603.95	51428.59
604.15	51735.79
604.34	51426.54
604.54	52014.31
604.74	52600.03
604.94	51610.86
605.13	51707.12
605.33	52233.44
605.53	51844.33
605.73	52335.84
605.92	51739.88
606.12	52307.17
606.32	52270.31
606.52	52311.27
606.71	52937.94
606.91	52634.84
607.11	52311.27
607.30	52208.87
607.50	52575.45
607.70	52884.70
607.90	52868.31
608.09	52888.79
608.29	52974.81
608.49	53157.08
608.68	52866.27
608.88	53208.28
609.08	53404.88
609.28	52933.85
609.47	52862.17
609.67	53824.71
609.87	53398.74
610.06	53679.31
610.26	53204.18
610.46	53654.73
610.66	53470.42
610.85	53777.61
611.05	53302.48
611.25	53556.43
611.44	53679.31
611.64	53552.33
611.84	53884.11
612.03	53687.50
612.23	53697.74
612.43	53583.05
612.62	53732.56
612.82	53783.76
613.02	54004.94
613.21	53875.91
613.41	53849.29
613.61	54244.55
613.80	53484.75
614.00	53982.41
614.20	53902.54
614.39	54025.42
614.59	54115.53
614.79	54162.63
614.98	54305.99
615.18	54269.12
615.38	54760.64
615.57	54039.75
615.77	54582.46
615.97	54445.25
616.16	54172.87
616.36	54752.44
616.56	54312.13
616.75	54566.08
616.95	54486.21
617.15	54262.98
617.34	54379.71
617.54	54105.29
617.74	54895.80
617.93	54867.13
618.13	54639.81
618.32	54742.20
618.52	54174.92
618.72	54764.73
618.91	54975.67
619.11	54541.50
619.31	54670.53
619.50	54756.54
619.70	54424.77
619.90	54826.17
620.09	54525.12
620.29	54926.52
620.48	54678.72
620.68	54973.63
620.88	54410.43
621.07	54947.00
621.27	54893.75
621.46	54570.18
621.66	54754.49
621.86	54457.54
622.05	55090.36
622.25	54674.62
622.44	54719.68
622.64	54754.49
622.84	55381.17
623.03	54625.47
623.23	54959.29
623.42	54846.65
623.62	55350.45
623.82	55225.53
624.01	55121.08
624.21	55166.13
624.40	54932.67
624.60	54672.57
624.80	54969.53
624.99	55252.15
625.19	54422.72
625.38	55246.00
625.58	54656.19
625.77	55352.50
625.97	55057.59
626.17	55125.17
626.36	55137.46
626.56	55217.33
626.75	54543.55
626.95	55153.85
627.14	55291.06
627.34	56022.19
627.54	55121.08
627.73	55545.01
627.93	55274.68
628.12	54887.61
628.32	55360.69
628.51	55309.49
628.71	55274.68
628.90	55671.98
629.10	55594.16
629.30	55280.82
629.49	55743.66
629.69	55753.90
629.88	55178.42
630.08	56186.02
630.27	55508.14
630.47	55731.37
630.66	55489.71
630.86	56229.03
631.05	55483.57
631.25	56247.46
631.44	55936.17
631.64	55624.88
631.84	55856.30
632.03	56372.39
632.23	55649.45
632.42	55921.83
632.62	55665.84
632.81	55745.71
633.01	55633.07
633.20	55743.66
633.40	56116.39
633.59	56360.10
633.79	56018.09
633.98	55874.73
634.18	56308.90
634.37	56071.34
634.57	55979.18
634.76	56167.59
634.96	56079.53
635.15	56593.57
635.35	56337.57
635.54	56229.03
635.74	56458.40
635.93	55977.13
636.13	56665.25
636.32	56382.63
636.52	56087.72
636.71	55958.70
636.91	56278.18
637.10	56812.70
637.30	56341.67
637.49	56349.86
637.69	55987.37
637.88	56949.92
638.08	56138.92
638.27	56820.89
638.46	56620.19
638.66	56439.97
638.85	56589.47
639.05	56890.52
639.24	57033.88
639.44	56399.01
639.63	56468.64
639.83	56439.97
640.02	56497.31
640.22	56517.79
640.41	56755.36
640.61	56325.28
640.80	57091.22
640.99	56587.42
641.19	57181.34
641.38	56714.40
641.58	56958.11
641.77	56820.89
641.97	56898.72
642.16	56669.34
642.36	56407.20
642.55	57101.46
642.74	56614.05
642.94	57775.25
643.13	56962.20
643.33	57453.72
643.52	57064.60
643.72	56870.04
643.91	56964.25
644.10	57361.56
644.30	57259.16
644.49	57308.31
644.69	57291.93
644.88	57420.95
645.08	56718.49
645.27	57279.64
645.46	56949.92
645.66	57433.24
645.85	57549.97
646.05	57392.28
646.24	57678.99
646.43	57441.43
646.63	57375.89
646.82	57134.23
647.02	57390.23
647.21	57523.35
647.40	57836.69
647.60	57646.22
647.79	57615.50
647.99	57523.35
648.18	57298.07
648.37	58104.97
648.57	57906.32
648.76	57171.10
648.96	56982.68
649.15	57660.56
649.34	58037.39
649.54	57842.83
649.73	57457.81
649.92	57939.08
650.12	57822.35
650.31	57949.32
650.51	58045.58
650.70	57857.17
650.89	57722.00
651.09	58471.56
651.28	58057.87
651.47	57945.23
651.67	57713.81
651.86	58184.84
652.06	57640.08
652.25	58346.63
652.44	57703.57
652.64	57697.42
652.83	58057.87
653.02	57433.24
653.22	57928.84
653.41	57799.82
653.60	57742.48
653.80	57695.38
653.99	58008.71
654.18	57951.37
654.38	58356.87
654.57	58033.29
654.76	58033.29
654.96	57687.18
655.15	57734.29
655.34	57830.54
655.54	56734.88
655.73	58213.51
655.92	58438.79
656.12	57613.46
656.31	58061.96
656.50	58186.89
656.70	58004.62
656.89	57642.13
657.08	57777.29
657.28	57734.29
657.47	57928.84
657.66	57957.52
657.86	58303.62
658.05	57791.63
658.24	58336.39
658.43	57425.04
658.63	57789.58
658.82	58244.23
659.01	58176.65
659.21	57998.48
659.40	58502.28
659.59	57672.85
659.79	58403.97
659.98	57949.32
660.17	58109.07
660.36	58258.57
660.56	58051.72
660.75	58123.40
660.94	58133.64
661.14	58219.66
661.33	57662.61
661.52	57855.12
661.71	58311.81
661.91	57709.71
662.10	57662.61
662.29	58291.33
662.49	58016.91
662.68	58260.62
662.87	58023.05
663.06	58199.18
663.26	57748.62
663.45	58580.10
663.64	57765.01
663.83	58440.84
664.03	58160.26
664.22	58004.62
664.41	58004.62
664.60	57697.42
664.80	57660.56
664.99	57722.00
665.18	57605.26
665.37	58152.07
665.57	58246.28
665.76	57279.64
665.95	58205.32
666.14	58287.24
666.34	57724.05
666.53	57668.75
666.72	57926.80
666.91	57515.15
667.11	57674.90
667.30	57808.01
667.49	57545.87
667.68	57463.96
667.87	57382.04
668.07	57934.99
668.26	57722.00
668.45	57750.67
668.64	57191.58
668.84	58074.25
669.03	57474.20
669.22	57638.03
669.41	57349.27
669.60	57549.97
669.80	57382.04
669.99	58217.61
670.18	57693.33
670.37	57595.03
670.57	58264.71
670.76	57486.48
670.95	57932.94
671.14	57746.57
671.33	57545.87
671.53	57519.25
671.72	57056.41
671.91	57357.46
672.10	57185.43
672.29	57384.08
672.48	57177.24
672.68	57611.41
672.87	57382.04
673.06	57189.53
673.25	56839.32
673.44	56763.55
673.64	57230.49
673.83	57107.61
674.02	57212.06
674.21	57037.98
674.40	57320.60
674.59	57285.78
674.79	56847.52
674.98	56550.56
675.17	57078.94
675.36	56741.02
675.55	57253.01
675.74	56859.80
675.94	56824.99
676.13	56734.88
676.32	57037.98
676.51	57160.86
676.70	56986.78
676.89	56945.82
677.08	57336.98
677.28	56323.24
677.47	57222.29
677.66	56982.68
677.85	56646.82
678.04	56908.96
678.23	57011.35
678.42	56849.56
678.62	56712.35
678.81	56646.82
679.00	56472.74
679.19	57390.23
679.38	56603.81
679.57	56360.10
679.76	57056.41
679.96	56663.20
680.15	56450.21
680.34	56679.58
680.53	56626.34
680.72	56876.19
680.91	56482.98
681.10	56358.05
681.29	56345.76
681.48	56231.08
681.68	56384.68
681.87	56003.75
682.06	55792.81
682.25	55770.28
682.44	56409.25
682.63	55985.32
682.82	55870.64
683.01	55973.03
683.20	55860.40
683.39	55848.11
683.59	55602.35
683.78	55588.02
683.97	55755.95
684.16	55940.27
684.35	55196.85
684.54	55516.34
684.73	55579.82
684.92	55221.43
685.11	55321.78
685.30	55559.34
685.49	56104.10
685.69	55801.00
685.88	55581.87
686.07	55653.55
686.26	55078.07
686.45	55520.43
686.64	55112.89
686.83	55258.29
687.02	55200.95
687.21	55532.72
687.40	55246.00
687.59	55415.99
687.78	55125.17
687.97	55760.05
688.16	55166.13
688.35	54996.15
688.54	55145.65
688.74	55125.17
688.93	54777.02
689.12	54709.44
689.31	54854.84
689.50	55094.46
689.69	54480.06
689.88	54445.25
690.07	54940.86
690.26	54863.03
690.45	54985.91
690.64	54842.56
690.83	54406.34
691.02	54604.99
691.21	54662.33
691.40	54731.96
691.59	54785.21
691.78	54373.57
691.97	54629.57
692.16	54666.43
692.35	54744.25
692.54	54604.99
692.73	54451.39
692.92	54686.91
693.11	54432.96
693.30	54148.29
693.49	54189.25
693.68	54213.83
693.87	54332.61
694.06	53882.06
694.25	53753.04
694.44	53859.53
694.63	54197.44
694.82	53804.24
695.01	53796.04
695.20	53843.15
695.39	53722.32
695.58	53658.83
695.77	53546.19
695.96	53458.13
696.15	53955.78
696.34	53798.09
696.53	53574.86
696.72	53576.91
696.91	53593.29
697.10	53540.05
697.29	53152.98
697.48	53744.84
697.67	53222.61
697.86	53251.28
698.05	53351.63
698.24	53617.87
698.43	52862.17
698.62	53263.57
698.81	53007.58
699.00	53466.32
699.19	52491.49
699.38	53089.49
699.57	52673.76
699.76	53613.77
699.95	53155.03
700.14	52661.47
700.32	53322.96
700.51	52384.99
700.70	52999.38
700.89	52671.71
701.08	52847.83
701.27	52991.19
701.46	53060.82
701.65	52579.55
701.84	52804.83
702.03	52432.10
702.22	52288.74
702.41	52804.83
702.60	52622.56
702.79	52675.80
702.98	51905.77
703.17	52792.54
703.35	52423.90
703.54	52262.11
703.73	52804.83
703.92	52573.41
704.11	51959.02
704.30	52370.66
704.49	52290.79
704.68	51907.82
704.87	51862.76
705.06	51850.47
705.25	51594.48
705.43	51827.95
705.62	52116.71
705.81	51754.22
706.00	52040.93
706.19	51778.79
706.38	51815.66
706.57	51510.51
706.76	51664.11
706.95	51715.31
707.14	51299.57
707.32	51426.54
707.51	51477.74
707.70	51260.66
707.89	51647.72
708.08	51047.67
708.27	51455.21
708.46	51629.29
708.65	51213.55
708.84	51320.05
709.02	51354.86
709.21	51520.75
709.40	51264.75
709.59	51328.24
709.78	51111.16
709.97	51500.27
710.16	50973.94
710.34	50998.52
710.53	50937.08
710.72	50791.67
710.91	50984.18
711.10	50939.13
711.29	50754.81
711.48	50672.89
711.66	51254.51
711.85	50406.65
712.04	50758.91
712.23	51014.90
712.42	50904.31
712.61	50664.70
712.80	50775.29
712.98	50351.36
713.17	50730.23
713.36	50519.29
713.55	50767.10
713.74	50298.11
713.93	50773.24
714.11	50339.07
714.30	49849.61
714.49	50156.80
714.68	49773.83
714.87	50109.70
715.06	50588.92
715.24	50279.68
715.43	50044.16
715.62	49829.13
715.81	50181.38
716.00	50451.71
716.18	49497.36
716.37	49784.07
716.56	49913.09
716.75	50263.30
716.94	49835.27
717.12	49501.45
717.31	50013.44
717.50	49693.96
717.69	49853.70
717.88	49544.46
718.06	49470.73
718.25	50003.20
718.44	49351.95
718.63	49065.24
718.82	49300.75
719.00	49339.66
719.19	49036.56
719.38	49270.03
719.57	49063.19
719.76	48565.53
719.94	48983.32
720.13	48583.96
720.32	48780.57
720.51	48704.79
720.69	48555.29
720.88	48932.12
721.07	48565.53
721.26	48248.10
721.44	48602.39
721.63	48166.18
721.82	48309.53
722.01	48260.38
722.20	48389.41
722.38	47756.58
722.57	47598.89
722.76	48008.48
722.95	48205.09
723.13	48096.55
723.32	48358.69
723.51	48043.30
723.70	47787.30
723.88	48211.23
724.07	47830.31
724.26	47738.15
724.44	47275.31
724.63	47920.42
724.82	48041.25
725.01	47549.74
725.19	47584.55
725.38	47398.19
725.57	47211.82
725.76	47815.97
725.94	47338.80
726.13	47320.37
726.32	47648.04
726.51	47127.86
726.69	47805.73
726.88	47797.54
727.07	47529.26
727.25	47252.78
727.44	47533.35
727.63	47093.04
727.82	47148.34
728.00	47183.15
728.19	47146.29
728.38	47322.41
728.56	46767.41
728.75	47400.24
728.94	47066.42
729.12	47168.82
729.31	47072.56
729.50	46988.60
729.69	47240.50
729.87	47066.42
730.06	47273.26
730.25	47023.41
730.43	47637.80
730.62	46976.31
730.81	47572.27
730.99	47314.22
731.18	47170.86
731.37	47312.17
731.55	47193.39
731.74	47426.86
731.93	47115.57
732.11	46843.19
732.30	47387.95
732.49	47289.65
732.67	46998.83
732.86	46953.78
733.05	47084.85
733.23	46908.72
733.42	46841.14
733.61	46923.06
733.79	47158.58
733.98	47390.00
734.17	47224.11
734.35	47058.23
734.54	47113.52
734.73	46925.11
734.91	47113.52
735.10	46574.91
735.29	47148.34
735.47	46878.00
735.66	46843.19
735.84	47197.49
736.03	46820.66
736.22	47207.73
736.40	46931.25
736.59	46867.76
736.78	46689.59
736.96	46988.60
737.15	46771.51
737.33	46583.10
737.52	46554.43
737.71	46378.30
737.89	46505.27
738.08	46101.82
738.27	46030.15
738.45	46560.57
738.64	46683.45
738.82	46712.12
739.01	46695.74
739.20	46314.81
739.38	46732.60
739.57	46789.94
739.75	46603.58
739.94	46708.02
740.13	46241.09
740.31	46284.09
740.50	46665.02
740.68	46599.48
740.87	46181.70
741.06	46755.13
741.24	46050.63
741.43	46185.79
741.61	46452.03
741.80	46435.64
741.99	46146.88
742.17	46351.68
742.36	46470.46
742.54	45915.46
742.73	46376.25
742.91	46351.68
743.10	46126.40
743.29	46234.94
743.47	46429.50
743.66	46277.95
743.84	46355.77
744.03	46097.73
744.21	46122.30
744.40	46161.22
744.59	45612.36
744.77	45716.81
744.96	45657.42
745.14	46243.13
745.33	46173.50
745.51	45782.34
745.70	45679.94
745.88	45858.12
746.07	45929.80
746.26	45557.06
746.44	45874.50
746.63	45808.96
746.81	45917.51
747.00	45718.85
747.18	45925.70
747.37	45352.27
747.55	45483.34
747.74	46073.15
747.92	45643.08
748.11	45770.05
748.29	45571.40
748.48	45653.32
748.66	45139.28
748.85	45602.12
749.03	45475.15
749.22	45286.73
749.41	45028.69
749.59	45770.05
749.78	45258.06
749.96	45170.00
750.15	45303.12
750.33	45876.55
750.52	45600.07
750.70	45221.20
750.89	45415.76
751.07	45053.26
751.26	45301.07
751.44	44979.54
751.63	45239.63
751.81	45120.85
752.00	44959.06
752.18	45172.05
752.37	45174.09
752.55	44647.77
752.74	44969.30
752.92	44959.06
753.10	44887.38
753.29	44885.33
753.47	44963.15
753.66	44541.27
753.84	44907.86
754.03	44776.79
754.21	44367.20
754.40	44905.81
754.58	44852.56
754.77	44735.83
754.95	44569.94
755.14	44784.98
755.32	44713.30
755.51	44522.84
755.69	44209.50
755.88	44445.02
756.06	44340.57
756.24	44178.78
756.43	44117.34
756.61	44668.25
756.80	44961.11
756.98	44436.83
757.17	44553.56
757.35	43914.59
757.54	44213.60
757.72	44193.12
757.90	44125.53
758.09	43881.83
758.27	44152.16
758.46	44131.68
758.64	44189.02
758.83	43988.32
759.01	44150.11
759.19	43969.89
759.38	43773.28
759.56	44137.82
759.75	43951.46
759.93	44176.73
760.12	43990.37
760.30	43646.31
760.48	43758.95
760.67	43869.54
760.85	44211.55
761.04	43930.98
761.22	43707.75
761.40	43808.10
761.59	43783.52
761.77	43171.18
761.96	43572.58
762.14	43396.46
762.32	43611.49
762.51	43242.86
762.69	43212.14
762.88	43615.59
763.06	43437.42
763.24	43611.49
763.43	43390.31
763.61	43095.41
763.80	43029.87
763.98	43300.20
764.16	43240.81
764.35	43033.97
764.53	42933.62
764.72	43195.76
764.90	43451.75
765.08	42780.02
765.27	42845.55
765.45	43175.28
765.63	42671.48
765.82	43068.78
766.00	42612.09
766.18	42622.33
766.37	43044.21
766.55	42487.16
766.74	42630.52
766.92	43042.16
767.10	42460.54
767.29	42831.22
767.47	42425.72
767.65	42687.86
767.84	42474.87
768.02	42734.96
768.20	42319.23
768.39	42626.42
768.57	42599.80
768.75	42370.43
768.94	42913.14
769.12	42642.81
769.30	41942.40
769.49	42024.32
769.67	41973.12
769.85	41522.57
770.04	42247.55
770.22	41950.59
770.40	42171.77
770.59	41684.36
770.77	41680.26
770.95	41850.24
771.14	41772.42
771.32	41532.81
771.50	41297.29
771.69	41577.86
771.87	41805.19
772.05	41409.93
772.24	41645.44
772.42	41571.72
772.60	41438.60
772.78	41139.60
772.97	41256.33
773.15	41571.72
773.33	41467.27
773.52	41426.31
773.70	41112.97
773.88	41842.05
774.07	41090.44
774.25	41571.72
774.43	41377.16
774.61	41465.22
774.80	41893.25
774.98	41387.40
775.16	41620.87
775.34	41661.83
775.53	41274.76
775.71	41530.76
775.89	41641.35
776.08	41751.94
776.26	41588.10
776.44	41710.98
776.62	41715.08
776.81	41532.81
776.99	41827.71
777.17	41561.48
777.35	42149.24
777.54	41930.11
777.72	41346.44
777.90	41811.33
778.08	41768.32
778.27	41917.82
778.45	42169.72
778.63	42069.37
778.81	41424.26
779.00	42290.55
779.18	41993.60
779.36	42290.55
779.54	41872.77
779.73	42093.95
779.91	42120.57
780.09	42057.09
780.27	42304.89
780.46	42149.24
780.64	42562.93
780.82	42423.67
781.00	42388.86
781.19	42552.69
781.37	42782.07
781.55	42751.35
781.73	42524.02
781.91	42526.07
782.10	42655.09
782.28	42321.27
782.46	42571.13
782.64	43107.69
782.82	42751.35
783.01	42898.80
783.19	42906.99
783.37	42417.53
783.55	42708.34
783.74	42986.86
783.92	42569.08
784.10	43126.13
784.28	42937.71
784.46	42327.42
784.64	42564.98
784.83	42937.71
785.01	42687.86
785.19	42542.45
785.37	43046.26
785.55	42597.75
785.74	42564.98
785.92	42718.58
786.10	42933.62
786.28	42511.74
786.46	42534.26
786.64	42517.88
786.83	42681.72
787.01	42863.99
787.19	42323.32
787.37	42466.68
787.55	42329.47
787.74	42128.77
787.92	42442.10
788.10	42372.47
788.28	41715.08
788.46	42343.80
788.64	42007.94
788.82	42341.75
789.01	42098.05
789.19	42296.70
789.37	42102.14
789.55	42306.94
789.73	41663.88
789.91	41942.40
790.09	41778.56
790.28	41391.50
790.46	41733.51
790.64	41858.43
790.82	41657.73
791.00	41338.25
791.18	41465.22
791.36	41448.84
791.55	41670.02
791.73	41448.84
791.91	40584.60
792.09	41293.19
792.27	40662.42
792.45	41209.23
792.63	41084.30
792.81	40840.59
793.00	40654.23
793.18	40613.27
793.36	40371.61
793.54	40457.62
793.72	40459.67
793.90	40351.13
794.08	40148.38
794.26	40093.08
794.44	39607.72
794.62	39925.15
794.81	40191.39
794.99	39847.33
795.17	40195.48
795.35	40064.41
795.53	40162.72
795.71	39722.40
795.89	39826.85
796.07	39519.65
796.25	39341.48
796.43	39253.42
796.61	38976.94
796.80	38860.21
796.98	39122.35
797.16	38757.81
797.34	39011.76
797.52	38835.63
797.70	39234.99
797.88	38737.33
798.06	38497.72
798.24	38528.44
798.42	38204.86
798.60	38342.07
798.78	38223.29
798.96	38319.54
799.14	38049.21
799.32	38233.53
799.51	37705.15
799.69	38299.06
799.87	38000.06
800.05	37572.03
800.23	37850.56
800.41	37508.55
800.59	37703.10
800.77	37172.68
800.95	36998.60
801.13	37514.69
801.31	36820.43
801.49	37576.13
801.67	36851.15
801.85	37008.84
802.03	36615.63
802.21	36509.14
802.39	36660.69
802.57	36795.85
802.75	36599.25
802.93	36453.84
803.11	36498.90
803.29	36267.48
803.47	36261.33
803.65	36431.32
803.83	36247.00
804.01	36715.98
804.19	35870.17
804.37	35624.42
804.55	35640.80
804.73	35608.03
804.91	35554.79
805.09	35659.23
805.27	35626.46
805.45	35991.00
805.63	35913.18
805.81	35382.76
805.99	35337.70
806.17	35489.25
806.35	35386.85
806.53	35077.61
806.71	35384.80
806.89	34934.25
807.07	34688.49
807.25	35018.22
807.43	34817.52
807.61	35020.27
807.79	34532.85
807.97	34420.21
808.15	34352.63
808.33	34442.74
808.51	34364.92
808.69	34522.61
808.87	34172.41
809.05	34027.00
809.23	33762.81
809.41	33818.11
809.59	34076.15
809.77	34385.40
809.95	33736.19
810.13	33676.80
810.31	33537.54
810.49	33916.41
810.67	33738.24
810.84	33588.74
811.02	33629.69
811.20	33134.09
811.38	33197.57
811.56	32935.43
811.74	33197.57
811.92	32986.63
812.10	33312.26
812.28	33259.01
812.46	32994.82
812.64	32828.94
812.82	32441.87
813.00	32830.99
813.18	32740.88
813.36	32540.18
813.53	32472.59
813.71	32495.12
813.89	32499.22
814.07	32718.35
814.25	32454.16
814.43	32355.86
814.61	32355.86
814.79	31921.69
814.97	32003.61
815.15	32075.29
815.33	32065.05
815.50	31764.00
815.68	32187.92
815.86	32085.53
816.04	31761.95
816.22	31501.86
816.40	31864.35
816.58	31307.30
816.76	31188.52
816.94	31702.56
817.11	31770.14
817.29	31268.39
817.47	31086.12
817.65	31262.24
817.83	31118.89
818.01	31276.58
818.19	31137.32
818.37	31034.92
818.54	30871.08
818.72	30807.59
818.90	30678.57
819.08	30979.62
819.26	30817.83
819.44	30565.93
819.62	30539.31
819.80	30770.73
819.97	30862.89
820.15	30279.22
820.33	30287.41
820.51	30580.27
820.69	30113.33
820.87	30330.42
821.05	30799.40
821.22	30389.81
821.40	30373.42
821.58	29822.52
821.76	30152.24
821.94	29984.31
822.12	29718.07
822.29	29929.02
822.47	29711.93
822.65	30240.31
822.83	30023.22
823.01	29668.92
823.19	29634.11
823.36	29363.78
823.54	29263.43
823.72	29541.95
823.90	29185.60
824.08	28917.32
824.25	29417.02
824.43	29029.96
824.61	29253.19
824.79	29210.18
824.97	29048.39
825.15	29351.49
825.32	29406.78
825.50	28544.59
825.68	28913.22
825.86	29050.44
826.04	29015.62
826.21	28773.96
826.39	28579.40
826.57	28536.40
826.75	28884.55
826.93	28757.58
827.10	28681.80
827.28	28341.84
827.46	28759.63
827.64	28517.96
827.81	28296.78
827.99	28417.61
828.17	28358.22
828.35	28051.03
828.53	28284.50
828.70	28134.99
828.88	27926.10
829.06	28055.12
829.24	28317.26
829.41	28120.66
829.59	28251.73
829.77	27965.01
829.95	27981.40
830.12	27633.24
830.30	27897.43
830.48	27924.05
830.66	27733.59
830.84	27860.57
831.01	27557.47
831.19	27637.34
831.37	27807.32
831.55	27420.25
831.72	27510.36
831.90	27715.16
832.08	27637.34
832.25	27344.48
832.43	27270.75
832.61	27252.32
832.79	27029.09
832.96	27223.65
833.14	27158.11
833.32	27608.67
833.50	27438.69
833.67	27045.48
833.85	26959.46
834.03	26928.74
834.20	26863.21
834.38	27002.47
834.56	26920.55
834.74	26812.01
834.91	26908.26
835.09	26756.71
835.27	26642.03
835.44	26791.53
835.62	26365.55
835.80	26502.76
835.98	26515.05
836.15	26533.48
836.33	26498.67
836.51	26549.87
836.68	26320.49
836.86	26289.77
837.04	26443.37
837.21	26289.77
837.39	26189.42
837.57	26441.32
837.75	26308.21
837.92	26164.85
838.10	25927.28
838.28	25921.14
838.45	25917.04
838.63	25892.47
838.81	25822.84
838.98	25902.71
839.16	25659.00
839.34	25740.92
839.51	25677.43
839.69	25527.93
839.87	25271.93
840.04	25271.93
840.22	25855.61
840.40	25405.05
840.57	25478.78
840.75	25708.15
840.93	25288.32
841.10	25433.72
841.28	25523.83
841.46	25280.13
841.63	25466.49
841.81	25368.19
841.98	25050.75
842.16	25235.07
842.34	25349.76
842.51	24927.88
842.69	25296.51
842.87	25075.33
843.04	24700.55
843.22	24921.73
843.40	24845.96
843.57	24700.55
843.75	24927.88
843.92	25081.47
844.10	25087.62
844.28	24786.57
844.45	24917.64
844.63	24708.74
844.81	24985.22
844.98	24880.77
845.16	24739.46
845.33	25038.47
845.51	24534.67
845.69	24436.36
845.86	24688.26
846.04	24479.37
846.21	24237.71
846.39	24391.31
846.57	24252.05
846.74	24413.84
846.92	24155.79
847.09	24284.81
847.27	23846.55
847.45	24348.30
847.62	23996.05
847.80	24215.18
847.97	24118.93
848.15	23983.76
848.32	24151.70
848.50	23643.80
848.68	23781.01
848.85	24084.11
849.03	23795.35
849.20	23914.13
849.38	23975.57
849.56	24112.78
849.73	23733.91
849.91	23844.50
850.08	24161.94
850.26	23563.93
850.43	23572.12
850.61	23590.55
850.78	23195.29
850.96	23375.52
851.14	23131.81
851.31	23469.72
851.49	23297.69
851.66	23471.77
851.84	23369.37
852.01	23283.36
852.19	23533.21
852.36	23183.01
852.54	23144.09
852.71	23309.98
852.89	22959.78
853.07	23099.04
853.24	23223.97
853.42	23238.30
853.59	23101.09
853.77	23070.37
853.94	23201.44
854.12	23125.66
854.29	22711.97
854.47	22625.96
854.64	22951.59
854.82	23023.26
854.99	22838.95
855.17	22648.49
855.34	22906.53
855.52	22992.55
855.69	22990.50
855.87	22615.72
856.04	22406.83
856.22	22527.66
856.39	22570.66
856.57	22085.30
856.74	22417.07
856.92	22521.51
857.09	22081.20
857.27	22253.23
857.44	22232.75
857.62	22271.66
857.79	22380.20
857.97	22093.49
858.14	22224.56
858.32	21976.75
858.49	22091.44
858.67	22253.23
858.84	21986.99
859.02	22015.66
859.19	21724.85
859.37	21724.85
859.54	21720.76
859.72	22062.77
859.89	21941.94
860.06	21913.27
860.24	21587.64
860.41	22032.05
860.59	21554.87
860.76	21802.68
860.94	21532.34
861.11	21464.76
861.29	21319.35
861.46	21505.72
861.64	21153.47
861.81	21286.59
861.98	21089.98
862.16	21284.54
862.33	21003.97
862.51	21157.57
862.68	21100.22
862.86	20997.82
863.03	21272.25
863.21	20891.33
863.38	21159.61
863.55	21104.32
863.73	21137.09
863.90	21311.16
864.08	21055.17
864.25	20903.62
864.43	20776.64
864.60	20934.34
864.77	20563.65
864.95	20659.91
865.12	20526.79
865.30	20682.44
865.47	20547.27
865.64	20580.04
865.82	20614.85
865.99	20903.62
866.17	20567.75
866.34	20674.24
866.51	20356.81
866.69	20713.16
866.86	20524.74
867.04	20436.68
867.21	20231.88
867.38	20610.76
867.56	19949.26
867.73	20197.07
867.91	20053.71
868.08	20326.09
868.25	20100.81
868.43	20002.51
868.60	19891.92
868.78	19816.15
868.95	20199.12
869.12	19998.41
869.30	19789.52
869.47	19941.07
869.64	19853.01
869.82	19754.71
869.99	19623.64
870.16	19797.71
870.34	19459.80
870.51	19863.25
870.69	19705.56
870.86	19558.10
871.03	19562.20
871.21	19572.44
871.38	19701.46
871.55	19703.51
871.73	19404.50
871.90	19408.60
872.07	19355.35
872.25	19175.13
872.42	19007.20
872.59	19293.91
872.77	19285.72
872.94	19132.12
873.11	19128.03
873.29	19087.07
873.46	18937.57
873.63	18945.76
873.81	19042.01
873.98	18718.43
874.15	18775.78
874.33	18724.58
874.50	18558.69
874.67	18915.04
874.85	18804.45
875.02	18401.00
875.19	18364.14
875.37	18341.61
875.54	18464.49
875.71	18374.38
875.88	18466.53
876.06	18278.12
876.23	18630.37
876.40	18151.15
876.58	18398.95
876.75	17991.41
876.92	18028.27
877.10	18450.15
877.27	18063.08
877.44	17925.87
877.61	18102.00
877.79	17882.86
877.96	18061.04
878.13	17915.63
878.31	17647.35
878.48	17831.66
878.65	17526.52
878.82	17508.08
879.00	17889.01
879.17	17626.87
879.34	17710.83
879.51	17616.63
879.69	17403.64
879.86	17370.87
880.03	17338.10
880.21	17469.17
880.38	17389.30
880.55	17710.83
880.72	17598.20
880.90	17309.43
881.07	17411.83
881.24	17350.39
881.41	17139.45
881.59	17338.10
881.76	17194.75
881.93	17098.49
882.10	17069.82
882.28	17078.01
882.45	16973.56
882.62	17086.20
882.79	16977.66
882.96	16799.49
883.14	17000.19
883.31	17002.24
883.48	16998.14
883.65	16862.97
883.83	17055.48
884.00	16983.80
884.17	16852.73
884.34	17145.59
884.51	16566.02
884.69	16750.34
884.86	16692.99
885.03	16709.38
885.20	16514.82
885.38	16606.98
885.55	16649.99
885.72	16674.56
885.89	16291.59
886.06	16590.59
886.24	16635.65
886.41	16465.67
886.58	16463.62
886.75	16570.12
886.92	16471.81
887.10	16557.83
887.27	16277.26
887.44	16396.04
887.61	16529.16
887.78	16572.16
887.95	16135.95
888.13	16551.68
888.30	16215.82
888.47	16193.29
888.64	16193.29
888.81	16187.14
888.99	15945.48
889.16	15787.79
889.33	16062.22
889.50	15800.08
889.67	15920.91
889.84	15626.00
890.01	16021.26
890.19	15912.72
890.36	15863.57
890.53	15925.00
890.70	15703.82
890.87	15857.42
891.04	15683.34
891.22	15669.01
891.39	15789.84
891.56	15525.65
891.73	15535.89
891.90	15263.51
892.07	15396.63
892.24	15691.54
892.42	15296.28
892.59	15304.47
892.76	15208.22
892.93	15404.82
893.10	15589.14
893.27	15339.29
893.44	15324.95
893.61	15413.01
893.79	15322.90
893.96	15193.88
894.13	15210.26
894.30	15435.54
894.47	15312.66
894.64	15539.99
894.81	15374.10
894.98	14960.41
895.15	15159.06
895.33	15306.52
895.50	15144.73
895.67	15367.96
895.84	15146.78
896.01	15081.24
896.18	14882.59
896.35	15247.13
896.52	15228.70
896.69	15007.52
896.86	15208.22
897.04	15212.31
897.21	15267.61
897.38	15048.47
897.55	14974.75
897.72	15019.80
897.89	15169.30
898.06	15130.39
898.23	15001.37
898.40	15056.67
898.57	15044.38
898.74	15245.08
898.91	15087.39
899.08	14984.99
899.26	14960.41
899.43	15200.02
899.60	15040.28
899.77	15066.91
899.94	14927.64
900.11	15116.06
900.28	14829.34
900.45	14991.13
900.62	14892.83
900.79	15111.96
900.96	14905.12
901.13	14937.88
901.30	14763.81
901.47	15009.56
901.64	14839.58
901.81	14921.50
901.98	14597.92
902.15	14970.65
902.32	14843.68
902.49	15027.99
902.66	15003.42
902.83	14870.30
903.01	15023.90
903.18	15052.57
903.35	14821.15
903.52	14960.41
903.69	15126.30
903.86	14898.97
904.03	14874.40
904.20	14931.74
904.37	15177.50
904.54	15079.19
904.71	14681.89
904.88	14884.64
905.05	14872.35
905.22	15048.47
905.39	14847.77
905.56	14769.95
905.73	14606.11
905.90	14817.05
906.07	15034.14
906.24	14872.35
906.41	14837.53
906.58	14896.92
906.75	14661.41
906.92	14819.10
907.09	14614.30
907.26	15077.15
907.43	14772.00
907.60	14866.21
907.77	15042.33
907.93	14939.93
908.10	14524.19
908.27	15103.77
908.44	14626.59
908.61	14710.56
908.78	14763.81
908.95	14939.93
909.12	14399.27
909.29	14704.42
909.46	14470.95
909.63	14589.73
909.80	14731.04
909.97	14749.47
910.14	14569.25
910.31	14395.17
910.48	14585.63
910.65	14608.16
910.82	14712.61
910.99	14307.11
911.16	14624.54
911.33	14702.37
911.50	14477.09
911.66	14401.32
911.83	14647.07
912.00	14399.27
912.17	14223.14
912.34	14221.10
912.51	14358.31
912.68	14429.99
912.85	14358.31
913.02	14214.95
913.19	14327.59
913.36	14260.01
913.53	14409.51
913.70	13971.24
913.86	14325.54
914.03	14102.31
914.20	14059.31
914.37	13971.24
914.54	14047.02
914.71	14075.69
914.88	14075.69
915.05	13827.88
915.22	13698.86
915.39	13807.41
915.55	13731.63
915.72	13694.77
915.89	13709.10
916.06	13606.70
916.23	13836.08
916.40	13653.81
916.57	13606.70
916.74	13412.15
916.91	13664.05
917.07	13430.58
917.24	13274.93
917.41	13465.39
917.58	13762.35
917.75	13571.89
917.92	13340.47
918.09	13336.37
918.26	13229.88
918.42	13283.13
918.59	13154.10
918.76	13094.71
918.93	13141.82
919.10	12828.48
919.27	12922.68
919.44	13225.78
919.60	12900.16
919.77	13076.28
919.94	13053.75
920.11	13025.08
920.28	13063.99
920.45	12652.35
920.61	12746.56
920.78	12595.01
920.95	12812.09
921.12	12556.10
921.29	12572.48
921.46	12484.42
921.62	12429.12
921.79	12400.45
921.96	12572.48
922.13	12543.81
922.30	12435.27
922.47	12394.31
922.63	12300.10
922.80	12322.63
922.97	12265.28
923.14	11902.79
923.31	12269.38
923.47	11843.40
923.64	12285.76
923.81	11919.18
923.98	12064.58
924.15	11597.65
924.32	11724.62
924.48	11800.40
924.65	12111.69
924.82	11636.56
924.99	11728.72
925.15	11700.05
925.32	11755.34
925.49	11382.61
925.66	11677.52
925.83	11388.75
925.99	11505.49
926.16	11554.64
926.33	11429.71
926.50	11190.10
926.67	11374.42
926.83	11183.96
927.00	11214.68
927.17	11038.55
927.34	11013.98
927.50	11161.43
927.67	11206.48
927.84	10968.92
928.01	11024.22
928.17	10903.39
928.34	10674.01
928.51	10719.07
928.68	10839.90
928.84	10692.44
929.01	10665.82
929.18	10628.96
929.35	10688.35
929.51	10626.91
929.68	10278.76
929.85	10477.41
930.02	10389.35
930.18	10213.22
930.35	10166.12
930.52	10413.92
930.69	10504.03
930.85	10219.36
931.02	9987.94
931.19	10168.16
931.36	10168.16
931.52	10018.66
931.69	10059.62
931.86	9805.67
932.02	10014.57
932.19	9867.11
932.36	9783.15
932.53	9711.47
932.69	9643.88
932.86	9701.23
933.03	9693.04
933.19	9557.87
933.36	9543.53
933.53	9555.82
933.70	9400.18
933.86	9461.62
934.03	9316.21
934.20	9271.15
934.36	9400.18
934.53	9037.69
934.70	8884.09
934.86	9168.76
935.03	8945.53
935.20	8773.50
935.36	8947.58
935.53	8628.09
935.70	8707.96
935.86	8783.74
936.03	8566.65
936.20	8437.63
936.36	8423.30
936.53	8478.59
936.70	8300.42
936.86	8394.62
937.03	8155.01
937.20	8003.46
937.36	8189.83
937.53	7827.34
937.70	8013.70
937.86	7765.90
938.03	7800.71
938.20	7686.03
938.36	7602.06
938.53	7456.65
938.70	7352.21
938.86	7391.12
939.03	7370.64
939.20	7204.75
939.36	7255.95
939.53	7147.41
939.70	7081.88
939.86	6801.30
940.03	6791.06
940.19	6770.58
940.36	6528.92
940.53	6653.85
940.69	6500.25
940.86	6602.65
941.03	6385.57
941.19	6277.02
941.36	6367.13
941.52	6207.39
941.69	6178.72
941.86	6113.19
942.02	5947.30
942.19	6078.37
942.35	5947.30
942.52	5834.66
942.69	5998.50
942.85	5762.98
943.02	5619.63
943.18	5717.93
943.35	5621.67
943.52	5742.50
943.68	5599.15
943.85	5537.71
944.01	5562.28
944.18	5484.46
944.35	5558.19
944.51	5398.45
944.68	5404.59
944.84	5369.77
945.01	5250.99
945.17	5398.45
945.34	5394.35
945.51	5433.26
945.67	5287.86
945.84	5429.17
946.00	5185.46
946.17	5343.15
946.33	5201.84
946.50	5244.85
946.67	5265.33
946.83	5220.27
947.00	5316.53
947.16	5138.35
947.33	5158.83
947.49	5179.31
947.66	5201.84
947.82	5259.18
947.99	5158.83
948.16	5238.70
948.32	5142.45
948.49	5328.81
948.65	5253.04
948.82	5138.35
948.98	5236.66
949.15	5263.28
949.31	5207.98
949.48	5275.57
949.64	5128.11
949.81	5177.26
949.97	5160.88
950.14	5205.94
950.30	5187.50
950.47	5224.37
950.63	5121.97
950.80	5193.65
950.96	5324.72
951.13	5201.84
951.30	5111.73
951.46	5201.84
951.63	5257.14
951.79	5314.48
951.96	5339.05
952.12	5347.25
952.29	5281.71
952.45	5312.43
952.62	5339.05
952.78	5273.52
952.94	5271.47
953.11	5136.31
953.27	5365.68
953.44	5349.29
953.60	5318.57
953.77	5380.01
953.93	5322.67
954.10	5472.17
954.26	5537.71
954.43	5236.66
954.59	5341.10
954.76	5429.17
954.92	5459.88
955.09	5218.22
955.25	5341.10
955.42	5349.29
955.58	5470.12
955.75	5500.84
955.91	5355.44
956.07	5447.60
956.24	5371.82
956.40	5539.76
956.57	5502.89
956.73	5410.73
956.90	5414.83
957.06	5371.82
957.23	5302.19
957.39	5294.00
957.56	5294.00
957.72	5326.77
957.88	5265.33
958.05	5500.84
958.21	5484.46
958.38	5476.27
958.54	5425.07
958.71	5590.95
958.87	5359.53
959.03	5394.35
959.20	5337.01
959.36	5320.62
959.53	5330.86
959.69	5400.49
959.85	5375.92
960.02	5310.38
960.18	5326.77
960.35	5377.97
960.51	5400.49
960.68	5304.24
960.84	5398.45
961.00	5351.34
961.17	5300.14
961.33	5388.21
961.50	5423.02
961.66	5435.31
961.82	5281.71
961.99	5547.95
962.15	5371.82
962.31	5423.02
962.48	5402.54
962.64	5435.31
962.81	5347.25
962.97	5320.62
963.13	5375.92
963.30	5306.29
963.46	5271.47
963.62	5386.16
963.79	5390.25
963.95	5306.29
964.12	5162.93
964.28	5369.77
964.44	5169.07
964.61	5345.20
964.77	5160.88
964.93	5345.20
965.10	5394.35
965.26	5244.85
965.42	5173.17
965.59	5267.38
965.75	5271.47
965.92	5363.63
966.08	5160.88
966.24	5162.93
966.41	5181.36
966.57	5042.10
966.73	5218.22
966.90	5197.74
967.06	5273.52
967.22	5214.13
967.39	5201.84
967.55	5214.13
967.71	5242.80
967.88	5128.11
968.04	5078.96
968.20	5146.55
968.37	5150.64
968.53	5195.70
968.69	5124.02
968.85	5222.32
969.02	5259.18
969.18	5156.79
969.34	5146.55
969.51	5031.86
969.67	5099.44
969.83	4935.60
970.00	5076.91
970.16	4984.76
970.32	5021.62
970.48	5189.55
970.65	5029.81
970.81	4925.36
970.97	5117.87
971.14	4931.51
971.30	5068.72
971.46	4951.99
971.63	4929.46
971.79	5128.11
971.95	4923.32
972.11	4888.50
972.28	4876.21
972.44	4919.22
972.60	4804.53
972.76	4890.55
972.93	4929.46
973.09	4937.65
973.25	5007.28
973.42	4833.21
973.58	4927.41
973.74	4949.94
973.90	4884.41
974.07	4825.01
974.23	4759.48
974.39	4853.69
974.55	4794.29
974.72	4790.20
974.88	4753.34
975.04	4773.82
975.20	4663.22
975.37	4718.52
975.53	4612.03
975.69	4708.28
975.85	4718.52
976.01	4730.81
976.18	4687.80
976.34	4777.91
976.50	4786.10
976.66	4779.96
976.83	4669.37
976.99	4695.99
977.15	4501.44
977.31	4507.58
977.47	4663.22
977.64	4599.74
977.80	4726.71
977.96	4636.60
978.12	4648.89
978.29	4573.11
978.45	4464.57
978.61	4493.24
978.77	4626.36
978.93	4466.62
979.10	4589.50
979.26	4409.28
979.42	4648.89
979.58	4386.75
979.74	4351.93
979.91	4425.66
980.07	4341.69
980.23	4521.92
980.39	4360.13
980.55	4460.48
980.71	4349.89
980.88	4218.82
981.04	4427.71
981.20	4468.67
981.36	4462.52
981.52	4356.03
981.68	4405.18
981.85	4431.80
982.01	4366.27
982.17	4347.84
982.33	4280.25
982.49	4460.48
982.65	4286.40
982.82	4300.73
982.98	4349.89
983.14	4259.78
983.30	4306.88
983.46	4376.51
983.62	4302.78
983.79	4161.47
983.95	4251.58
984.11	4278.21
984.27	4198.34
984.43	4194.24
984.59	4284.35
984.75	4237.25
984.91	4124.61
985.08	4239.30
985.24	4120.51
985.40	3981.25
985.56	4095.94
985.72	4212.67
985.88	4173.76
986.04	4087.75
986.20	4044.74
986.37	4196.29
986.53	3956.68
986.69	4071.36
986.85	4007.87
987.01	4059.07
987.17	4136.90
987.33	3958.72
987.49	3895.24
987.65	3958.72
987.82	3999.68
987.98	3807.17
988.14	4024.26
988.30	3948.48
988.46	3968.96
988.62	3932.10
988.78	3835.85
988.94	3934.15
989.10	3866.56
989.26	3868.61
989.42	3897.28
989.59	3778.50
989.75	3737.54
989.91	3858.37
990.07	3684.30
990.23	3770.31
990.39	3715.02
990.55	3889.09
990.71	3841.99
990.87	3762.12
991.03	3852.23
991.19	3727.30
991.35	3813.32
991.51	3811.27
991.67	3819.46
991.83	3657.67
992.00	3715.02
992.16	3801.03
992.32	3715.02
992.48	3706.82
992.64	3629.00
992.80	3649.48
992.96	3622.86
993.12	3678.15
993.28	3719.11
993.44	3649.48
993.60	3753.93
993.76	3702.73
993.92	3598.28
994.08	3635.14
994.24	3657.67
994.40	3672.01
994.56	3692.49
994.72	3622.86
994.88	3608.52
995.04	3565.51
995.20	3497.93
995.36	3426.25
995.52	3674.06
995.68	3491.79
995.84	3491.79
996.00	3608.52
996.16	3520.46
996.32	3483.59
996.48	3565.51
996.64	3540.94
996.80	3393.48
996.96	3452.88
997.12	3434.44
997.28	3426.25
997.44	3450.83
997.60	3456.97
997.76	3477.45
997.92	3483.59
998.08	3469.26
998.24	3413.96
998.40	3377.10
998.56	3581.90
998.72	3487.69
998.88	3284.94
999.04	3211.22
999.20	3399.63
999.36	3221.45
999.52	3432.40
999.68	3219.41
999.84	3276.75
1000.00	3301.33
1000.16	3342.28
1000.32	3305.42
1000.48	3465.16
1000.64	3135.44
1000.80	3221.45
1000.95	3188.69
1001.11	3200.98
1001.27	3166.16
1001.43	3215.31
1001.59	3215.31
1001.75	3102.67
1001.91	3248.08
1002.07	3227.60
1002.23	3137.49
1002.39	3231.69
1002.55	3131.34
1002.71	3082.19
1002.87	3080.14
1003.03	3063.76
1003.19	3137.49
1003.34	3051.47
1003.50	3094.48
1003.66	3211.22
1003.82	3221.45
1003.98	3022.80
1004.14	3133.39
1004.30	2977.75
1004.46	3063.76
1004.62	3067.86
1004.78	2987.99
1004.94	3014.61
1005.09	3117.01
1005.25	2973.65
1005.41	2992.08
1005.57	3026.90
1005.73	3043.28
1005.89	2961.36
1006.05	2992.08
1006.21	3002.32
1006.37	2854.87
1006.52	2899.92
1006.68	2875.35
1006.84	3053.52
1007.00	2920.40
1007.16	2957.27
1007.32	2930.64
1007.48	2854.87
1007.64	2904.02
1007.79	2846.68
1007.95	2793.43
1008.11	3088.34
1008.27	2846.68
1008.43	2897.88
1008.59	2844.63
1008.75	2865.11
1008.91	2885.59
1009.06	2836.44
1009.22	2856.92
1009.38	2828.24
1009.54	2842.58
1009.70	2803.67
1009.86	2832.34
1010.01	2879.44
1010.17	2779.09
1010.33	2770.90
1010.49	2752.47
1010.65	2815.96
1010.81	2746.33
1010.96	2764.76
1011.12	2658.26
1011.28	2678.74
1011.44	2754.52
1011.60	2711.51
1011.76	2641.88
1011.91	2783.19
1012.07	2691.03
1012.23	2684.89
1012.39	2613.21
1012.55	2752.47
1012.71	2699.22
1012.86	2635.74
1013.02	2705.37
1013.18	2613.21
1013.34	2641.88
1013.50	2729.94
1013.65	2746.33
1013.81	2596.82
1013.97	2629.59
1014.13	2664.41
1014.29	2596.82
1014.44	2645.98
1014.60	2600.92
1014.76	2592.73
1014.92	2568.15
1015.07	2594.78
1015.23	2549.72
1015.39	2551.77
1015.55	2549.72
1015.71	2592.73
1015.86	2488.28
1016.02	2387.93
1016.18	2418.65
1016.34	2537.43
1016.49	2516.95
1016.65	2555.86
1016.81	2480.09
1016.97	2559.96
1017.12	2523.10
1017.28	2437.08
1017.44	2465.75
1017.60	2465.75
1017.75	2478.04
1017.91	2432.99
1018.07	2539.48
1018.23	2467.80
1018.38	2375.64
1018.54	2430.94
1018.70	2404.32
1018.86	2410.46
1019.01	2437.08
1019.17	2432.99
1019.33	2377.69
1019.49	2402.27
1019.64	2469.85
1019.80	2449.37
1019.96	2451.42
1020.12	2344.92
1020.27	2392.03
1020.43	2396.12
1020.59	2332.64
1020.74	2439.13
1020.90	2373.60
1021.06	2351.07
1021.22	2324.44
1021.37	2387.93
1021.53	2289.63
1021.69	2334.68
1021.84	2236.38
1022.00	2400.22
1022.16	2303.96
1022.31	2295.77
1022.47	2330.59
1022.63	2346.97
1022.79	2224.09
1022.94	2322.40
1023.10	2404.32
1023.26	2215.90
1023.41	2248.67
1023.57	2232.29
1023.73	2273.25
1023.88	2287.58
1024.04	2256.86
1024.20	2289.63
1024.35	2226.14
1024.51	2342.88
1024.67	2183.13
1024.82	2318.30
1024.98	2191.33
1025.14	2213.85
1025.29	2199.52
1025.45	2189.28
1025.61	2084.83
1025.76	2254.81
1025.92	2172.89
1026.08	2254.81
1026.23	2168.80
1026.39	2363.36
1026.55	2234.33
1026.70	2207.71
1026.86	2181.09
1027.02	2330.59
1027.17	2244.57
1027.33	2269.15
1027.48	2123.74
1027.64	2097.12
1027.80	2103.26
1027.95	2289.63
1028.11	2088.93
1028.27	2197.47
1028.42	2148.32
1028.58	2068.45
1028.73	2074.59
1028.89	2060.26
1029.05	2230.24
1029.20	2119.65
>>>>>End Processed Spectral Data<<<<<
