SpectraSuite Data File
++++++++++++++++++++++++++++++++++++
Date: Fri Jun 02 14:57:20 CEST 2017
User: INFO_000
Dark Spectrum Present: No
Reference Spectrum Present: No
Number of Sampled Component Spectra: 1
Spectrometers: USB4H00879
Integration Time (usec): 80000 (USB4H00879)
Spectra Averaged: 1 (USB4H00879)
Boxcar Smoothing: 0 (USB4H00879)
Correct for Electrical Dark: No (USB4H00879)
Strobe/Lamp Enabled: No (USB4H00879)
Correct for Detector Non-linearity: No (USB4H00879)
Correct for Stray Light: No (USB4H00879)
Number of Pixels in Processed Spectrum: 3648
>>>>>Begin Processed Spectral Data<<<<<
345.13	1271.79
345.34	1271.79
345.56	1271.79
345.78	1331.18
345.99	1218.54
346.21	1787.88
346.42	1755.11
346.64	1634.28
346.86	1781.73
347.07	1718.25
347.29	1673.19
347.50	1689.57
347.72	1695.72
347.94	1730.53
348.15	1597.42
348.37	1554.41
348.59	1722.34
348.80	1708.01
349.02	1791.97
349.23	1830.88
349.45	1830.88
349.67	1859.56
349.88	1802.21
350.10	1953.76
350.31	1810.40
350.53	1849.32
350.75	1918.95
350.96	1720.29
351.18	1865.70
351.39	1849.32
351.61	1861.60
351.82	1890.28
352.04	1871.84
352.26	1900.52
352.47	1863.65
352.69	1912.80
352.90	1914.85
353.12	1837.03
353.34	1859.56
353.55	1851.36
353.77	1855.46
353.98	1906.66
354.20	1890.28
354.41	1959.91
354.63	1914.85
354.85	2050.02
355.06	1947.62
355.28	1806.31
355.49	1935.33
355.71	1837.03
355.92	1920.99
356.14	1961.95
356.35	1904.61
356.57	1843.17
356.79	1978.34
357.00	1867.75
357.22	2066.40
357.43	1880.04
357.65	2047.97
357.86	1857.51
358.08	1976.29
358.29	1957.86
358.51	2015.20
358.72	2015.20
358.94	1880.04
359.16	1923.04
359.37	2027.49
359.59	1918.95
359.80	1882.08
360.02	1959.91
360.23	1953.76
360.45	2039.78
360.66	1961.95
360.88	1886.18
361.09	1863.65
361.31	1996.77
361.52	1949.67
361.74	2054.11
361.95	2029.54
362.17	2002.91
362.38	2074.59
362.60	1986.53
362.81	2011.11
363.03	1978.34
363.24	1986.53
363.46	2078.69
363.67	1968.10
363.89	1992.67
364.10	2031.58
364.32	1920.99
364.53	2033.63
364.75	1902.56
364.96	2027.49
365.18	2029.54
365.39	2009.06
365.61	1976.29
365.82	2070.50
366.04	2033.63
366.25	1904.61
366.47	2031.58
366.68	1996.77
366.90	1937.38
367.11	2039.78
367.33	2152.42
367.54	2056.16
367.76	2066.40
367.97	2129.89
368.19	2027.49
368.40	2131.94
368.62	2027.49
368.83	2009.06
369.05	2037.73
369.26	1990.63
369.48	2011.11
369.69	1992.67
369.91	2011.11
370.12	2052.06
370.33	2158.56
370.55	1949.67
370.76	2025.44
370.98	2111.46
371.19	2093.02
371.41	2084.83
371.62	2160.61
371.84	2029.54
372.05	2195.42
372.27	2011.11
372.48	2068.45
372.69	2066.40
372.91	2205.66
373.12	2138.08
373.34	2117.60
373.55	2095.07
373.77	2133.98
373.98	2047.97
374.20	2166.75
374.41	2176.99
374.62	2080.74
374.84	2217.95
375.05	2211.81
375.27	2158.56
375.48	2185.18
375.70	2215.90
375.91	2211.81
376.12	2189.28
376.34	2125.79
376.55	2215.90
376.77	2254.81
376.98	2052.06
377.19	2064.35
377.41	2119.65
377.62	2205.66
377.84	2254.81
378.05	2353.12
378.27	2144.22
378.48	2301.92
378.69	2408.41
378.91	2312.16
379.12	2222.05
379.34	2238.43
379.55	2230.24
379.76	2332.64
379.98	2273.25
380.19	2285.53
380.41	2291.68
380.62	2303.96
380.83	2252.77
381.05	2250.72
381.26	2508.76
381.47	2117.60
381.69	2269.15
381.90	2404.32
382.12	2289.63
382.33	2273.25
382.54	2326.49
382.76	2275.29
382.97	2359.26
383.19	2273.25
383.40	2422.75
383.61	2306.01
383.83	2306.01
384.04	2353.12
384.25	2363.36
384.47	2377.69
384.68	2336.73
384.89	2310.11
385.11	2260.96
385.32	2416.60
385.54	2330.59
385.75	2346.97
385.96	2394.08
386.18	2428.89
386.39	2297.82
386.60	2400.22
386.82	2471.90
387.03	2420.70
387.24	2475.99
387.46	2422.75
387.67	2549.72
387.88	2453.47
388.10	2494.43
388.31	2525.15
388.52	2572.25
388.74	2480.09
388.95	2465.75
389.16	2572.25
389.38	2551.77
389.59	2682.84
389.80	2691.03
390.02	2541.53
390.23	2633.69
390.44	2523.10
390.66	2559.96
390.87	2473.95
391.08	2619.35
391.30	2574.30
391.51	2674.65
391.72	2641.88
391.94	2605.02
392.15	2648.02
392.36	2572.25
392.58	2666.46
392.79	2641.88
393.00	2650.07
393.22	2740.18
393.43	2811.86
393.64	2873.30
393.85	2842.58
394.07	2691.03
394.28	2748.37
394.49	2799.57
394.71	2762.71
394.92	2877.40
395.13	2738.13
395.35	2736.09
395.56	2742.23
395.77	2676.70
395.98	2820.05
396.20	2758.61
396.41	2830.29
396.62	2924.50
396.84	2842.58
397.05	2910.16
397.26	2813.91
397.47	2934.74
397.69	2754.52
397.90	2955.22
398.11	2953.17
398.32	2858.96
398.54	2908.12
398.75	2858.96
398.96	2924.50
399.18	3090.38
399.39	2928.60
399.60	2983.89
399.81	2832.34
400.03	2940.88
400.24	3256.27
400.45	2942.93
400.66	3153.87
400.88	2926.55
401.09	3123.15
401.30	3041.23
401.51	3100.62
401.73	3151.82
401.94	3145.68
402.15	3194.83
402.36	3090.38
402.58	3221.45
402.79	3071.95
403.00	3059.67
403.21	3233.74
403.43	3342.28
403.64	3203.02
403.85	3160.02
404.06	3313.61
404.27	3131.34
404.49	3182.54
404.70	3071.95
404.91	3246.03
405.12	3332.05
405.34	3203.02
405.55	3461.07
405.76	3123.15
405.97	3198.93
406.19	3393.48
406.40	3233.74
406.61	3387.34
406.82	3272.65
407.03	3237.84
407.25	3307.47
407.46	3456.97
407.67	3450.83
407.88	3403.72
408.09	3424.20
408.31	3366.86
408.52	3399.63
408.73	3377.10
408.94	3430.35
409.15	3395.53
409.37	3559.37
409.58	3594.19
409.79	3665.86
410.00	3481.55
410.21	3493.83
410.43	3377.10
410.64	3438.54
410.85	3604.42
411.06	3530.70
411.27	3655.62
411.48	3592.14
411.70	3530.70
411.91	3565.51
412.12	3747.78
412.33	3624.90
412.54	3592.14
412.76	3762.12
412.97	3719.11
413.18	3590.09
413.39	3651.53
413.60	3674.06
413.81	3676.10
414.03	3667.91
414.24	3665.86
414.45	3719.11
414.66	3557.32
414.87	3680.20
415.08	3704.78
415.30	3637.19
415.51	3889.09
415.72	3805.13
415.93	3747.78
416.14	3706.82
416.35	3909.57
416.56	3846.09
416.78	3788.74
416.99	3770.31
417.20	3825.61
417.41	3993.54
417.62	3960.77
417.83	3968.96
418.04	3868.61
418.26	3817.41
418.47	3860.42
418.68	3876.80
418.89	4001.73
419.10	4069.31
419.31	4063.17
419.52	4157.38
419.73	4030.40
419.95	4157.38
420.16	3868.61
420.37	4130.75
420.58	4245.44
420.79	3895.24
421.00	4075.46
421.21	4204.48
421.42	4112.32
421.63	4171.71
421.85	4114.37
422.06	4237.25
422.27	4118.47
422.48	4186.05
422.69	4310.97
422.90	4310.97
423.11	4206.53
423.32	4304.83
423.53	4368.32
423.75	4296.64
423.96	4546.49
424.17	4450.24
424.38	4554.68
424.59	4454.33
424.80	4607.93
425.01	4460.48
425.22	4415.42
425.43	4435.90
425.64	4474.81
425.85	4601.79
426.06	4661.18
426.28	4587.45
426.49	4571.07
426.70	4597.69
426.91	4558.78
427.12	4704.18
427.33	4585.40
427.54	4734.90
427.75	4818.87
427.96	4857.78
428.17	4716.47
428.38	4800.44
428.59	4898.74
428.80	4726.71
429.01	4915.12
429.23	4847.54
429.44	4982.71
429.65	4986.80
429.86	4851.64
430.07	4851.64
430.28	4929.46
430.49	4968.37
430.70	5025.72
430.91	5107.63
431.12	5019.57
431.33	5154.74
431.54	5212.08
431.75	4984.76
431.96	5124.02
432.17	5228.46
432.38	5099.44
432.59	5300.14
432.80	5193.65
433.01	5334.96
433.22	5216.18
433.43	5250.99
433.64	5271.47
433.85	5240.75
434.06	5484.46
434.27	5234.61
434.49	5390.25
434.70	5539.76
434.91	5343.15
435.12	5468.08
435.33	5558.19
435.54	5443.50
435.75	5361.58
435.96	5488.56
436.17	5365.68
436.38	5695.40
436.59	5474.22
436.80	5568.43
437.01	5765.03
437.22	5615.53
437.43	5521.32
437.64	5554.09
437.85	5730.22
438.06	5863.33
438.27	5619.63
438.48	5588.91
438.69	5812.14
438.90	5752.74
439.11	5638.06
439.32	5775.27
439.53	5851.05
439.74	5855.14
439.95	6029.22
440.16	5834.66
440.37	5828.52
440.57	5879.72
440.78	5799.85
440.99	5885.86
441.20	5789.61
441.41	5842.85
441.62	5939.11
441.83	5762.98
442.04	6025.12
442.25	5900.20
442.46	5894.05
442.67	6033.32
442.88	6475.68
443.09	6033.32
443.30	5957.54
443.51	6131.62
443.72	6201.25
443.93	6156.19
444.14	6401.95
444.35	6127.52
444.56	6244.26
444.77	6266.78
444.98	6188.96
445.19	6307.74
445.40	6211.49
445.61	6320.03
445.81	6434.72
446.02	6389.66
446.23	6408.09
446.44	6086.56
446.65	6502.30
446.86	6447.01
447.07	6506.40
447.28	6733.72
447.49	6653.85
447.70	6610.84
447.91	6641.56
448.12	6533.02
448.33	6866.84
448.54	6852.50
448.74	6582.17
448.95	6803.35
449.16	6592.41
449.37	6938.52
449.58	6645.66
449.79	6856.60
450.00	6557.60
450.21	6952.85
450.42	6932.37
450.63	6948.76
450.84	6801.30
451.05	6905.75
451.25	6981.53
451.46	6997.91
451.67	7008.15
451.88	7034.77
452.09	7122.84
452.30	7184.27
452.51	7176.08
452.72	7270.29
452.93	7501.71
453.13	7165.84
453.34	7212.95
453.55	7278.48
453.76	7294.86
453.97	7602.06
454.18	7366.54
454.39	7374.74
454.60	7360.40
454.81	7538.57
455.01	7544.72
455.22	7421.84
455.43	7550.86
455.64	7792.52
455.85	7843.72
456.06	7927.69
456.27	7675.79
456.48	7737.23
456.68	7989.13
456.89	7794.57
457.10	7817.10
457.31	7878.54
457.52	7937.93
457.73	8087.43
457.94	8269.70
458.14	7970.69
458.35	8552.32
458.56	8159.11
458.77	8263.55
458.98	8351.62
459.19	8408.96
459.39	8279.94
459.60	8394.62
459.81	8306.56
460.02	8435.58
460.23	8388.48
460.44	8685.44
460.65	8585.08
460.85	8724.35
461.06	8552.32
461.27	8441.73
461.48	8808.31
461.69	8732.54
461.89	8687.48
462.10	8808.31
462.31	8652.67
462.52	8660.86
462.73	8898.42
462.94	9332.59
463.14	9150.32
463.35	9119.60
463.56	9504.62
463.77	9406.32
463.98	9211.76
464.18	9351.03
464.39	9564.01
464.60	9502.58
464.81	9734.00
465.02	9549.68
465.23	9768.81
465.43	9723.76
465.64	9795.43
465.85	9764.72
466.06	9727.85
466.27	10108.77
466.47	10127.21
466.68	10035.05
466.89	10014.57
467.10	10446.69
467.30	9959.27
467.51	10248.04
467.72	10370.91
467.93	10243.94
468.14	10401.63
468.34	10463.07
468.55	10479.46
468.76	10555.23
468.97	10549.09
469.17	10819.42
469.38	10782.56
469.59	10895.19
469.80	10874.71
470.01	11030.36
470.21	11087.70
470.42	11237.20
470.63	11388.75
470.84	11177.81
471.04	11333.46
471.25	11358.03
471.46	11423.57
471.67	11652.94
471.87	11503.44
472.08	11597.65
472.29	11876.17
472.50	11601.74
472.70	11763.53
472.91	11814.73
473.12	12027.72
473.33	12009.29
473.53	12181.32
473.74	12037.96
473.95	12302.15
474.16	12527.42
474.36	12517.18
474.57	12629.82
474.78	12762.94
474.99	12617.54
475.19	12599.10
475.40	12941.11
475.61	13014.84
475.81	13221.69
476.02	13393.72
476.23	13025.08
476.44	13385.52
476.64	13332.28
476.85	13647.66
477.06	13477.68
477.27	13864.75
477.47	13709.10
477.68	13866.80
477.89	14001.96
478.09	13760.30
478.30	14004.01
478.51	14348.07
478.71	14346.02
478.92	14350.12
479.13	14589.73
479.34	14511.91
479.54	14618.40
479.75	14534.43
479.96	14642.98
480.16	14952.22
480.37	15159.06
480.58	15095.58
480.78	15378.20
480.99	15318.81
481.20	15263.51
481.41	15378.20
481.61	15628.05
481.82	15812.37
482.03	15746.83
482.23	15879.95
482.44	16183.05
482.65	16183.05
482.85	16168.71
483.06	16097.03
483.27	16404.23
483.47	16224.01
483.68	16131.85
483.89	16486.15
484.09	16590.59
484.30	16584.45
484.51	16705.28
484.71	16838.40
484.92	16867.07
485.13	17121.02
485.33	17315.58
485.54	17118.97
485.75	17325.82
485.95	17389.30
486.16	17465.08
486.37	17698.55
486.57	17469.17
486.78	17649.39
486.98	17594.10
487.19	18114.28
487.40	17979.12
487.60	18015.98
487.81	18159.34
488.02	18167.53
488.22	18247.40
488.43	18611.94
488.64	18712.29
488.84	18460.39
489.05	18931.42
489.25	18720.48
489.46	18962.14
489.67	18837.22
489.87	19074.78
490.08	19056.35
490.29	18867.94
490.49	19355.35
490.70	19435.22
490.90	19560.15
491.11	19820.24
491.32	19533.53
491.52	19633.88
491.73	19705.56
491.94	19850.96
492.14	19785.43
492.35	20055.76
492.55	20354.76
492.76	20166.35
492.97	20303.56
493.17	20432.58
493.38	20395.72
493.58	20836.03
493.79	20848.32
494.00	20270.79
494.20	20750.02
494.41	21059.26
494.61	21180.09
494.82	21030.59
495.02	20844.23
495.23	21294.78
495.44	21305.02
495.64	21409.47
495.85	21345.98
496.05	21311.16
496.26	21477.05
496.47	21614.26
496.67	21649.08
496.88	21956.27
497.08	21610.17
497.29	22195.89
497.49	21972.66
497.70	22136.49
497.91	22179.50
498.11	22314.67
498.32	22474.41
498.52	22286.00
498.73	22595.24
498.93	22320.81
499.14	22869.67
499.34	22685.35
499.55	22931.11
499.76	22679.21
499.96	22658.73
500.17	22744.74
500.37	22867.62
500.58	22943.39
500.78	23217.82
500.99	23277.21
501.19	23586.46
501.40	23203.49
501.60	23471.77
501.81	23275.16
502.02	23479.96
502.22	23711.38
502.43	23688.85
502.63	24020.63
502.84	23754.39
503.04	23578.26
503.25	23766.68
503.45	23664.28
503.66	24149.65
503.86	24032.91
504.07	24268.43
504.27	23998.10
504.48	24221.33
504.68	24217.23
504.89	24843.91
505.09	24213.13
505.30	24460.94
505.50	24706.70
505.71	24628.87
505.91	24954.50
506.12	24698.50
506.32	25020.03
506.53	24788.61
506.73	24948.36
506.94	24964.74
507.14	25237.12
507.35	24874.63
507.55	25101.95
507.76	25267.84
507.96	25200.26
508.17	25163.39
508.37	25233.02
508.58	25568.89
508.78	25570.94
508.99	25661.05
509.19	25460.35
509.40	25761.40
509.60	25925.24
509.81	25538.17
510.01	25642.62
510.22	26144.37
510.42	25892.47
510.63	25966.20
510.83	26175.09
511.04	25900.66
511.24	26175.09
511.44	26148.46
511.65	26279.54
511.85	26224.24
512.06	26304.11
512.26	26291.82
512.47	26435.18
512.67	26476.14
512.88	26697.32
513.08	26357.36
513.29	26801.77
513.49	26551.91
513.69	26582.63
513.90	26855.01
514.10	27002.47
514.31	26635.88
514.51	27328.10
514.72	26943.08
514.92	27049.57
515.13	27182.69
515.33	27158.11
515.53	26959.46
515.74	27174.50
515.94	27303.52
516.15	27481.69
516.35	26869.35
516.56	27536.99
516.76	27764.31
516.96	27702.87
517.17	27668.06
517.37	27651.67
517.58	27842.14
517.78	27772.50
517.99	28053.08
518.19	28132.95
518.39	27768.41
518.60	28159.57
518.80	28053.08
519.01	28458.57
519.21	28485.20
519.41	28429.90
519.62	28655.18
519.82	28663.37
520.03	28532.30
520.23	28534.35
520.43	28329.55
520.64	29003.33
520.84	29023.81
521.05	28874.31
521.25	28829.26
521.45	29249.09
521.66	29222.47
521.86	29394.50
522.07	29410.88
522.27	29201.99
522.47	29382.21
522.68	29703.74
522.88	29457.98
523.08	30105.14
523.29	29664.83
523.49	29865.53
523.70	30148.15
523.90	29634.11
524.10	30234.16
524.31	30258.74
524.51	29931.06
524.71	30508.59
524.92	30395.95
525.12	30307.89
525.33	30684.72
525.53	30846.51
525.73	30975.53
525.94	31249.96
526.14	30883.37
526.34	30979.62
526.55	31368.74
526.75	31213.09
526.95	31733.28
527.16	31512.10
527.36	31385.12
527.56	31745.56
527.77	31626.78
527.97	31856.15
528.17	31651.36
528.38	32167.45
528.58	32065.05
528.78	32366.10
528.99	31895.07
529.19	32441.87
529.39	31958.55
529.60	32536.08
529.80	32650.77
530.00	32321.04
530.21	32583.18
530.41	32798.22
530.61	32833.04
530.82	33265.16
531.02	33089.03
531.22	33365.51
531.43	33084.94
531.63	33478.15
531.83	33633.79
532.04	34004.47
532.24	33748.48
532.44	33877.50
532.64	34178.55
532.85	34174.45
533.05	33981.95
533.25	33961.47
533.46	33918.46
533.66	34360.82
533.86	34309.62
534.07	35038.70
534.27	34399.73
534.47	35173.86
534.67	35018.22
534.88	34747.89
535.08	34727.41
535.28	35057.13
535.49	35522.02
535.69	35747.29
535.89	35349.99
536.09	35698.14
536.30	35845.60
536.50	35761.63
536.70	36279.77
536.91	35706.34
537.11	35878.36
537.31	36599.25
537.51	36464.08
537.72	36609.49
537.92	36470.23
538.12	36625.87
538.32	36394.45
538.53	36818.38
538.73	36447.70
538.93	36955.60
539.13	37176.78
539.34	37014.99
539.54	36957.64
539.74	37230.02
539.94	37168.58
540.15	37357.00
540.35	37719.49
540.55	37410.25
540.75	37336.52
540.96	37946.81
541.16	37905.85
541.36	37909.95
541.56	37985.72
541.77	38278.58
541.97	37789.12
542.17	38245.82
542.37	38032.83
542.58	38276.54
542.78	38213.05
542.98	38327.74
543.18	38735.28
543.38	38966.70
543.59	38696.37
543.79	38442.42
543.99	38620.59
544.19	38892.97
544.40	38796.72
544.60	39159.21
544.80	38843.82
545.00	39091.63
545.20	39792.03
545.41	39265.70
545.61	39044.52
545.81	39550.37
546.01	39384.49
546.21	39019.95
546.42	39742.88
546.62	39769.51
546.82	39691.68
547.02	39800.22
547.22	39906.72
547.43	39904.67
547.63	39558.56
547.83	40304.02
548.03	40150.43
548.23	40506.77
548.44	40332.70
548.64	40578.45
548.84	40387.99
549.04	40207.77
549.24	40547.73
549.45	40945.04
549.65	40562.07
549.85	40719.76
550.05	40852.88
550.25	40664.47
550.45	40879.50
550.66	41088.40
550.86	40715.67
551.06	40988.05
551.26	41033.10
551.46	41409.93
551.66	41268.62
551.87	41463.18
552.07	41366.92
552.27	41401.74
552.47	41575.81
552.67	41610.63
552.87	41254.28
553.07	41381.26
553.28	41645.44
553.48	41571.72
553.68	41170.32
553.88	41926.02
554.08	41747.84
554.28	41854.34
554.48	41919.87
554.69	41938.30
554.89	41903.49
555.09	41815.43
555.29	41809.28
555.49	42120.57
555.69	42091.90
555.89	41977.22
556.10	42657.14
556.30	41983.36
556.50	42210.68
556.70	41975.17
556.90	42268.03
557.10	42571.13
557.30	42401.14
557.50	42669.43
557.70	43085.17
557.91	42982.77
558.11	42612.09
558.31	43021.68
558.51	42491.26
558.71	42984.82
558.91	42835.31
559.11	42331.51
559.31	43060.59
559.51	42837.36
559.72	42943.86
559.92	42976.62
560.12	43025.78
560.32	43197.80
560.52	42798.45
560.72	42896.75
560.92	43203.95
561.12	43261.29
561.32	43566.44
561.52	42722.68
561.72	43783.52
561.93	43144.56
562.13	43353.45
562.33	43177.33
562.53	43294.06
562.73	43296.11
562.93	43439.47
563.13	43668.84
563.33	43576.68
563.53	44096.86
563.73	43261.29
563.93	43384.17
564.13	44051.81
564.33	43566.44
564.53	43767.14
564.74	44023.14
564.94	43662.69
565.14	44207.45
565.34	43775.33
565.54	43603.30
565.74	43701.61
565.94	44324.19
566.14	43836.77
566.34	44092.77
566.54	44062.05
566.74	43900.26
566.94	44205.41
567.14	44260.70
567.34	43910.50
567.54	44338.52
567.74	44098.91
567.94	44287.32
568.14	44457.31
568.34	44877.14
568.54	44311.90
568.74	44332.38
568.94	44025.18
569.14	44782.93
569.34	44600.66
569.54	44189.02
569.75	44193.12
569.95	44535.13
570.15	45231.44
570.35	44359.00
570.55	44561.75
570.75	44899.67
570.95	45110.61
571.15	45102.42
571.35	44957.01
571.55	45413.71
571.75	44807.51
571.95	44930.39
572.15	44551.51
572.35	45344.08
572.55	45000.02
572.75	44967.25
572.95	44995.92
573.15	45579.59
573.35	44971.35
573.55	45284.68
573.75	45258.06
573.95	45548.87
574.15	45176.14
574.35	45509.96
574.55	45751.62
574.75	45030.74
574.95	45350.22
575.15	45315.40
575.34	45561.16
575.54	45669.70
575.74	45669.70
575.94	45966.66
576.14	45618.50
576.34	45841.73
576.54	46038.34
576.74	45704.52
576.94	45491.53
577.14	45630.79
577.34	45987.14
577.54	45444.43
577.74	46073.15
577.94	45831.49
578.14	46224.70
578.34	46134.59
578.54	45729.09
578.74	46083.39
578.94	46263.61
579.14	46261.57
579.34	46245.18
579.54	46357.82
579.74	46378.30
579.94	46675.26
580.13	46927.16
580.33	46705.98
580.53	46372.16
580.73	46918.96
580.93	46388.54
581.13	46820.66
581.33	46964.02
581.53	47152.43
581.73	46818.61
581.93	47113.52
582.13	47371.57
582.33	46992.69
582.53	46755.13
582.73	47359.28
582.92	47054.13
583.12	47007.03
583.32	47426.86
583.52	47152.43
583.72	47543.59
583.92	46757.17
584.12	47494.44
584.32	47717.67
584.52	47732.01
584.72	47785.25
584.92	47764.78
585.11	48014.63
585.31	47740.20
585.51	47893.80
585.71	47555.88
585.91	47951.14
586.11	47830.31
586.31	47676.71
586.51	47725.86
586.71	47914.28
586.91	48110.88
587.10	48248.10
587.30	48250.14
587.50	48327.97
587.70	48532.76
587.90	48395.55
588.10	48106.79
588.30	48018.72
588.50	48850.20
588.69	48540.96
588.89	48190.75
589.09	48772.38
589.29	48325.92
589.49	48862.49
589.69	48180.51
589.89	48698.65
590.08	48846.10
590.28	48465.18
590.48	48659.74
590.68	48583.96
590.88	48928.02
591.08	48612.63
591.28	48489.76
591.47	49198.35
591.67	48948.50
591.87	48784.66
592.07	48901.40
592.27	49034.52
592.47	48903.45
592.67	49472.78
592.86	48868.63
593.06	49446.16
593.26	49036.56
593.46	49145.11
593.66	49083.67
593.86	49181.97
594.05	49710.35
594.25	49659.15
594.45	49280.27
594.65	49534.22
594.85	49194.26
595.05	50048.26
595.24	49378.57
595.44	49534.22
595.64	49771.78
595.84	49612.04
596.04	49640.71
596.23	50119.94
596.43	50173.19
596.63	50167.04
596.83	50255.11
597.03	50185.47
597.22	50496.77
597.42	50097.41
597.62	50525.44
597.82	50228.48
598.02	50023.68
598.21	50695.42
598.41	50277.63
598.61	50160.90
598.81	50382.08
599.01	50494.72
599.20	50693.37
599.40	50472.19
599.60	50664.70
599.80	50672.89
600.00	50560.25
600.19	50885.88
600.39	50443.52
600.59	51305.71
600.79	50877.69
600.98	50660.60
601.18	51207.41
601.38	51311.86
601.58	50885.88
601.78	51746.03
601.97	51225.84
602.17	51549.42
602.37	51205.36
602.57	50957.56
602.76	51750.12
602.96	51311.86
603.16	51678.44
603.36	51299.57
603.55	51926.25
603.75	52239.59
603.95	51670.25
604.15	51385.58
604.34	51746.03
604.54	52368.61
604.74	52231.40
604.94	52098.28
605.13	51752.17
605.33	52425.95
605.53	51420.40
605.73	52350.18
605.92	51856.62
606.12	52477.15
606.32	52808.92
606.52	52780.25
606.71	52155.62
606.91	52491.49
607.11	52395.23
607.30	52724.96
607.50	52597.98
607.70	52829.40
607.90	52593.89
608.09	52841.69
608.29	53171.41
608.49	52532.45
608.68	52853.98
608.88	52985.05
609.08	53212.37
609.28	53341.39
609.47	52925.66
609.67	52896.98
609.87	53355.73
610.06	53486.80
610.26	53306.58
610.46	53519.57
610.66	53331.15
610.85	53247.19
611.05	53105.88
611.25	53433.55
611.44	53001.43
611.64	53599.44
611.84	53089.49
612.03	53464.27
612.23	53523.66
612.43	53996.74
612.62	53898.44
612.82	53750.99
613.02	53531.86
613.21	53081.30
613.41	53419.22
613.61	53736.65
613.80	53212.37
614.00	53728.46
614.20	53855.43
614.39	53781.71
614.59	53863.63
614.79	53912.78
614.98	53908.68
615.18	53972.17
615.38	53634.25
615.57	53339.35
615.77	54355.14
615.97	53853.39
616.16	53841.10
616.36	53714.12
616.56	53976.26
616.75	54209.73
616.95	53478.61
617.15	53972.17
617.34	53986.50
617.54	53660.88
617.74	54445.25
617.93	54121.67
618.13	53626.06
618.32	53953.74
618.52	53980.36
618.72	54269.12
618.91	54138.05
619.11	53794.00
619.31	54082.76
619.50	54099.14
619.70	53769.42
619.90	54283.46
620.09	54049.99
620.29	54205.64
620.48	53947.59
620.68	54465.73
620.88	53779.66
621.07	54033.61
621.27	54129.86
621.46	53716.17
621.66	54127.81
621.86	54172.87
622.05	53855.43
622.25	54521.02
622.44	54275.27
622.64	54000.84
622.84	54324.42
623.03	53832.91
623.23	54197.44
623.42	54107.33
623.62	54248.64
623.82	54125.77
624.01	54357.19
624.21	54127.81
624.40	53818.57
624.60	54129.86
624.80	54103.24
624.99	54148.29
625.19	54015.18
625.38	54725.82
625.58	54049.99
625.77	54291.65
625.97	54322.37
626.17	53884.11
626.36	54275.27
626.56	54555.84
626.75	53834.95
626.95	54678.72
627.14	54262.98
627.34	54482.11
627.54	54113.48
627.73	54383.81
627.93	54328.52
628.12	54045.90
628.32	54977.72
628.51	54383.81
628.71	54334.66
628.90	54914.23
629.10	54549.70
629.30	54510.78
629.49	54240.45
629.69	54449.35
629.88	54281.41
630.08	54828.22
630.27	54756.54
630.47	54942.91
630.66	54475.97
630.86	55016.63
631.05	54351.04
631.25	55170.23
631.44	54838.46
631.64	54418.63
631.84	54541.50
632.03	54942.91
632.23	54629.57
632.42	54998.20
632.62	54654.14
632.81	54353.09
633.01	54183.11
633.20	55076.02
633.40	55084.22
633.59	55407.79
633.79	54377.67
633.98	54787.26
634.18	54834.36
634.37	55452.85
634.57	54875.32
634.76	55008.44
634.96	55110.84
635.15	55030.97
635.35	55352.50
635.54	54715.58
635.74	55108.79
635.93	54736.06
636.13	55293.11
636.32	55344.31
636.52	54746.30
636.71	54801.60
636.91	55559.34
637.10	55446.71
637.30	55229.62
637.49	55305.40
637.69	55340.21
637.88	55743.66
638.08	55325.88
638.27	55542.96
638.46	55321.78
638.66	55364.79
638.85	55159.99
639.05	55893.16
639.24	55624.88
639.44	55219.38
639.63	55616.69
639.83	55764.14
640.02	55301.30
640.22	55526.58
640.41	55432.37
640.61	55360.69
640.80	55418.03
640.99	55579.82
641.19	55911.59
641.38	55882.92
641.58	55469.23
641.77	55710.89
641.97	55311.54
642.16	55579.82
642.36	55821.48
642.55	56214.69
642.74	55420.08
642.94	55934.12
643.13	55608.50
643.33	55850.16
643.52	55841.96
643.72	56032.42
643.91	55874.73
644.10	56003.75
644.30	56353.96
644.49	55866.54
644.69	56018.09
644.88	55815.34
645.08	55813.29
645.27	55796.91
645.46	55729.33
645.66	56409.25
645.85	55755.95
646.05	56530.08
646.24	56134.82
646.43	56140.97
646.63	56403.11
646.82	56106.15
647.02	56472.74
647.21	56251.56
647.40	56050.86
647.60	56442.02
647.79	56462.50
647.99	56530.08
648.18	56372.39
648.37	57017.50
648.57	56478.88
648.76	56513.70
648.96	56466.59
649.15	56759.45
649.34	56863.90
649.54	56104.10
649.73	56169.64
649.92	56677.54
650.12	56466.59
650.31	57117.85
650.51	56872.09
650.70	57050.27
650.89	56833.18
651.09	57193.62
651.28	57046.17
651.47	56908.96
651.67	57007.26
651.86	57132.18
652.06	56810.65
652.25	56800.41
652.44	56734.88
652.64	56755.36
652.83	57261.21
653.02	56753.31
653.22	56972.44
653.41	56618.14
653.60	56822.94
653.80	56700.06
653.99	57298.07
654.18	56915.10
654.38	57023.64
654.57	57162.90
654.76	57224.34
654.96	57064.60
655.15	56722.59
655.34	56775.84
655.54	56878.24
655.73	57187.48
655.92	56786.08
656.12	57017.50
656.31	56898.72
656.50	57078.94
656.70	57095.32
656.89	56931.48
657.08	57148.57
657.28	57189.53
657.47	57191.58
657.66	56915.10
657.86	56908.96
658.05	57410.71
658.24	57341.08
658.43	57009.31
658.63	57212.06
658.82	57322.65
659.01	57635.98
659.21	57134.23
659.40	57255.06
659.59	57336.98
659.79	57472.15
659.98	57281.69
660.17	57631.89
660.36	57269.40
660.56	57310.36
660.75	57709.71
660.94	57519.25
661.14	57244.82
661.33	56851.61
661.52	56865.95
661.71	57398.42
661.91	57123.99
662.10	56800.41
662.29	57478.29
662.49	56988.83
662.68	57736.34
662.87	57881.74
663.06	57529.49
663.26	57582.74
663.45	57982.09
663.64	57549.97
663.83	57816.21
664.03	57681.04
664.22	57197.72
664.41	57384.08
664.60	57470.10
664.80	57681.04
664.99	57025.69
665.18	57455.76
665.37	57902.22
665.57	57263.25
665.76	57277.59
665.95	57517.20
666.14	57193.62
666.34	57248.92
666.53	57185.43
666.72	57441.43
666.91	56847.52
667.11	56898.72
667.30	57144.47
667.49	57076.89
667.68	57261.21
667.87	56906.91
668.07	57103.51
668.26	57232.53
668.45	57271.45
668.64	57283.73
668.84	57853.07
669.03	57736.34
669.22	57109.66
669.41	57726.10
669.60	56792.22
669.80	57173.14
669.99	57652.37
670.18	57132.18
670.37	57414.80
670.57	57365.65
670.76	57289.88
670.95	57443.48
671.14	57472.15
671.33	57162.90
671.53	57339.03
671.72	57488.53
671.91	57201.82
672.10	57066.65
672.29	57222.29
672.48	57052.31
672.68	57468.05
672.87	56917.15
673.06	56822.94
673.25	57068.70
673.44	57207.96
673.64	57021.59
673.83	56845.47
674.02	56937.63
674.21	56378.53
674.40	57230.49
674.59	57062.55
674.79	56978.59
674.98	56956.06
675.17	57099.42
675.36	56755.36
675.55	57189.53
675.74	56804.51
675.94	56452.26
676.13	57046.17
676.32	57040.03
676.51	56945.82
676.70	56890.52
676.89	56847.52
677.08	57322.65
677.28	56085.67
677.47	56759.45
677.66	56980.63
677.85	56892.57
678.04	57005.21
678.23	57418.90
678.42	56855.71
678.62	57154.71
678.81	56562.85
679.00	56661.15
679.19	57060.51
679.38	56685.73
679.57	56818.84
679.76	56939.68
679.96	56894.62
680.15	56802.46
680.34	56745.12
680.53	56622.24
680.72	56859.80
680.91	56806.56
681.10	56554.66
681.29	56372.39
681.48	56497.31
681.68	56599.71
681.87	56560.80
682.06	56679.58
682.25	56300.71
682.44	56233.13
682.63	56480.93
682.82	55776.43
683.01	56018.09
683.20	55762.09
683.39	56026.28
683.59	55960.75
683.78	55979.18
683.97	55915.69
684.16	55970.99
684.35	55792.81
684.54	55747.76
684.73	55948.46
684.92	55753.90
685.11	55876.78
685.30	55827.63
685.49	56353.96
685.69	56253.61
685.88	56030.38
686.07	55600.30
686.26	55540.91
686.45	55927.98
686.64	55841.96
686.83	56095.91
687.02	55542.96
687.21	55891.12
687.40	55467.19
687.59	55690.41
687.78	55817.39
687.97	56192.17
688.16	55567.54
688.35	55575.73
688.54	55239.86
688.74	55571.63
688.93	55372.98
689.12	55747.76
689.31	55678.13
689.50	55399.60
689.69	55129.27
689.88	55002.30
690.07	55239.86
690.26	55237.81
690.45	55704.75
690.64	55162.04
690.83	55129.27
691.02	55059.64
691.21	55125.17
691.40	55176.37
691.59	55194.81
691.78	54863.03
691.97	55555.25
692.16	54983.86
692.35	55166.13
692.54	55301.30
692.73	55071.93
692.92	54795.45
693.11	55008.44
693.30	54543.55
693.49	54586.56
693.68	54490.30
693.87	54727.87
694.06	54389.95
694.25	54590.66
694.44	54428.87
694.63	54379.71
694.82	54766.78
695.01	54267.08
695.20	54265.03
695.39	54189.25
695.58	54623.42
695.77	54242.50
695.96	54351.04
696.15	54502.59
696.34	54060.23
696.53	54627.52
696.72	54523.07
696.91	53990.60
697.10	54400.19
697.29	53738.70
697.48	54400.19
697.67	53998.79
697.86	53447.89
698.05	53828.81
698.24	53851.34
698.43	53333.20
698.62	53798.09
698.81	53269.72
699.00	54111.43
699.19	53331.15
699.38	54142.15
699.57	53501.14
699.76	53808.33
699.95	53126.36
700.14	53771.47
700.32	53091.54
700.51	53521.62
700.70	53669.07
700.89	53707.98
701.08	53900.49
701.27	53226.71
701.46	53863.63
701.65	53155.03
701.84	53454.03
702.03	53494.99
702.22	53464.27
702.41	53214.42
702.60	53705.93
702.79	53490.90
702.98	53007.58
703.17	53019.86
703.35	52917.46
703.54	52679.90
703.73	53294.29
703.92	52493.54
704.11	53087.45
704.30	52909.27
704.49	52761.82
704.68	52378.85
704.87	52657.37
705.06	52729.05
705.25	52487.39
705.43	52563.17
705.62	52665.56
705.81	52808.92
706.00	52507.87
706.19	52333.79
706.38	52215.01
706.57	52401.38
706.76	52376.80
706.95	52368.61
707.14	52524.25
707.32	52057.32
707.51	51877.10
707.70	51690.73
707.89	52380.90
708.08	51973.35
708.27	52075.75
708.46	52335.84
708.65	52147.43
708.84	51909.86
709.02	51875.05
709.21	51746.03
709.40	52042.98
709.59	52081.89
709.78	51477.74
709.97	51901.67
710.16	51504.37
710.34	52026.60
710.53	51424.50
710.72	51281.14
710.91	51496.17
711.10	51565.81
711.29	51832.04
711.48	51637.48
711.66	51225.84
711.85	50818.30
712.04	51344.62
712.23	51393.78
712.42	51680.49
712.61	51039.48
712.80	51479.79
712.98	51461.36
713.17	51168.50
713.36	50924.79
713.55	50975.99
713.74	50945.27
713.93	51401.97
714.11	51031.29
714.30	50906.36
714.49	51195.12
714.68	50502.91
714.87	51238.13
715.06	51258.61
715.24	50932.98
715.43	50859.26
715.62	50582.78
715.81	50447.61
716.00	51019.00
716.18	50599.16
716.37	50367.74
716.56	50259.20
716.75	50875.64
716.94	50408.70
717.12	50306.30
717.31	50601.21
717.50	50009.35
717.69	49882.37
717.88	50091.27
718.06	50377.98
718.25	50294.02
718.44	49906.95
718.63	49992.97
718.82	49806.60
719.00	49995.01
719.19	49722.63
719.38	49888.52
719.57	49616.14
719.76	48979.22
719.94	49308.94
720.13	49669.39
720.32	49687.82
720.51	49415.44
720.69	49689.87
720.88	49141.01
721.07	49542.41
721.26	49079.57
721.44	49231.12
721.63	48807.19
721.82	48731.42
722.01	48860.44
722.20	49020.18
722.38	48925.97
722.57	48833.81
722.76	48981.27
722.95	48928.02
723.13	48631.07
723.32	48547.10
723.51	48219.42
723.70	48270.62
723.88	48379.17
724.07	48383.26
724.26	48301.34
724.44	48024.87
724.63	48469.28
724.82	48182.56
725.01	47848.74
725.19	47772.97
725.38	48069.92
725.57	48178.46
725.76	48200.99
725.94	47879.46
726.13	47969.57
726.32	48125.22
726.51	47691.05
726.69	48274.72
726.88	47904.04
727.07	47803.69
727.25	47574.31
727.44	48063.78
727.63	47576.36
727.82	47699.24
728.00	47988.00
728.19	47611.18
728.38	47838.50
728.56	47011.12
728.75	47834.41
728.94	47480.11
729.12	47887.65
729.31	47220.02
729.50	47596.84
729.69	47703.34
729.87	47541.55
730.06	47654.18
730.25	47338.80
730.43	48037.16
730.62	47906.08
730.81	47719.72
730.99	47734.06
731.18	46976.31
731.37	47797.54
731.55	47842.60
731.74	47875.37
731.93	47248.69
732.11	47508.78
732.30	47637.80
732.49	47437.10
732.67	47316.27
732.86	46988.60
733.05	47379.76
733.23	47328.56
733.42	47807.78
733.61	47316.27
733.79	47734.06
733.98	47863.08
734.17	47482.16
734.35	47629.61
734.54	47232.30
734.73	47633.71
734.91	47463.72
735.10	47469.87
735.29	47230.26
735.47	46953.78
735.66	47369.52
735.84	47400.24
736.03	46923.06
736.22	47256.88
736.40	47234.35
736.59	46853.43
736.78	47107.38
736.96	46798.13
737.15	47027.51
737.33	46779.70
737.52	46726.46
737.71	46736.69
737.89	46701.88
738.08	46439.74
738.27	46636.34
738.45	47007.03
738.64	46603.58
738.82	46773.56
739.01	47107.38
739.20	46673.21
739.38	46437.69
739.57	47146.29
739.75	46605.62
739.94	46703.93
740.13	46511.42
740.31	46439.74
740.50	46705.98
740.68	46316.86
740.87	46454.08
741.06	47152.43
741.24	46417.21
741.43	46388.54
741.61	46785.85
741.80	46540.09
741.99	46759.22
742.17	45847.88
742.36	46388.54
742.54	46120.26
742.73	46294.33
742.91	46314.81
743.10	46081.34
743.29	46540.09
743.47	46353.72
743.66	46222.65
743.84	46144.83
744.03	46425.40
744.21	46009.67
744.40	46302.53
744.59	46056.77
744.77	45839.68
744.96	46257.47
745.14	45913.41
745.33	46245.18
745.51	45964.61
745.70	45839.68
745.88	45786.44
746.07	46081.34
746.26	45790.53
746.44	45446.47
746.63	45604.17
746.81	45825.35
747.00	45278.54
747.18	45755.72
747.37	45421.90
747.55	45731.14
747.74	45892.93
747.92	45651.27
748.11	45481.29
748.29	45278.54
748.48	45063.50
748.66	45249.87
748.85	45131.09
749.03	45301.07
749.22	45397.32
749.41	44709.21
749.59	45358.41
749.78	45114.70
749.96	44905.81
750.15	45385.04
750.33	45210.96
750.52	45045.07
750.70	45116.75
750.89	44801.36
751.07	44889.43
751.26	45184.33
751.44	44780.88
751.63	45053.26
751.81	44561.75
752.00	44635.48
752.18	44643.67
752.37	44977.49
752.55	45012.31
752.74	44602.71
752.92	44545.37
753.10	44318.04
753.29	44711.25
753.47	44535.13
753.66	44160.35
753.84	44582.23
754.03	44866.90
754.21	44186.97
754.40	44610.90
754.58	44811.60
754.77	44496.22
754.95	44301.66
755.14	44475.74
755.32	44348.76
755.51	43918.69
755.69	43961.70
755.88	43922.79
756.06	44242.27
756.24	44223.84
756.43	43953.51
756.61	44000.61
756.80	44107.10
756.98	43705.70
757.17	43910.50
757.35	43908.45
757.54	43595.11
757.72	43808.10
757.90	43513.19
758.09	43955.55
758.27	43857.25
758.46	43529.58
758.64	43713.89
758.83	43998.56
759.01	43730.28
759.19	43808.10
759.38	43539.82
759.56	43314.54
759.75	43926.88
759.93	43834.72
760.12	43361.64
760.30	43214.19
760.48	43279.72
760.67	42943.86
760.85	43332.97
761.04	43486.57
761.22	43451.75
761.40	43263.34
761.59	43113.84
761.77	42816.88
761.96	43234.67
762.14	43142.51
762.32	42788.21
762.51	42919.28
762.69	43070.83
762.88	42990.96
763.06	43095.41
763.24	42675.57
763.43	42763.64
763.61	42278.27
763.80	42868.08
763.98	42659.19
764.16	42427.77
764.35	42583.41
764.53	42452.34
764.72	42710.39
764.90	42343.80
765.08	42562.93
765.27	42427.77
765.45	42073.47
765.63	41895.30
765.82	42597.75
766.00	42169.72
766.18	42476.92
766.37	42456.44
766.55	42005.89
766.74	42296.70
766.92	42229.12
767.10	41971.07
767.29	41715.08
767.47	42007.94
767.65	42118.53
767.84	41753.99
768.02	42216.83
768.20	41303.43
768.39	41946.50
768.57	41606.53
768.75	41944.45
768.94	41747.84
769.12	41766.27
769.30	41278.86
769.49	41414.02
769.67	41147.79
769.85	41276.81
770.04	41586.05
770.22	40891.79
770.40	41201.04
770.59	41029.01
770.77	41315.72
770.95	41088.40
771.14	41088.40
771.32	40762.77
771.50	41029.01
771.69	40678.80
771.87	41504.13
772.05	41149.84
772.24	40568.21
772.42	40955.28
772.60	40924.56
772.78	40795.54
772.97	40650.13
773.15	41039.25
773.33	40885.65
773.52	40625.56
773.70	40461.72
773.88	40701.33
774.07	40310.17
774.25	40713.62
774.43	41182.60
774.61	40793.49
774.80	40963.47
774.98	41037.20
775.16	41010.57
775.34	41139.60
775.53	40740.24
775.71	40629.65
775.89	40510.87
776.08	41215.37
776.26	41065.87
776.44	41063.82
776.62	40674.71
776.81	40854.93
776.99	40899.98
777.17	40574.36
777.35	40959.38
777.54	41231.75
777.72	41000.33
777.90	40942.99
778.08	41325.96
778.27	40945.04
778.45	41452.94
778.63	41291.15
778.81	41010.57
779.00	41850.24
779.18	40875.41
779.36	41569.67
779.54	41399.69
779.73	41129.36
779.91	41620.87
780.09	41629.06
780.27	41305.48
780.46	41471.37
780.64	41958.78
780.82	41469.32
781.00	41534.85
781.19	41971.07
781.37	42194.30
781.55	41774.47
781.73	42136.96
781.91	41786.75
782.10	41567.62
782.28	42071.42
782.46	41934.21
782.64	42204.54
782.82	41840.00
783.01	41969.02
783.19	42048.89
783.37	41809.28
783.55	41852.29
783.74	42161.53
783.92	42233.21
784.10	42317.18
784.28	41940.35
784.46	41694.60
784.64	41880.96
784.83	41831.81
785.01	42196.35
785.19	41710.98
785.37	42073.47
785.55	42161.53
785.74	41520.52
785.92	41360.78
786.10	41989.50
786.28	42380.67
786.46	41768.32
786.64	41530.76
786.83	41620.87
787.01	42163.58
787.19	41719.17
787.37	41840.00
787.55	41528.71
787.74	41760.13
787.92	41340.30
788.10	41452.94
788.28	40961.42
788.46	41194.89
788.64	41360.78
788.82	41207.18
789.01	41454.98
789.19	41457.03
789.37	41416.07
789.55	41239.95
789.73	41168.27
789.91	40834.45
790.09	40899.98
790.28	40584.60
790.46	40535.45
790.64	40646.04
790.82	40258.97
791.00	40725.91
791.18	40420.76
791.36	40725.91
791.55	40517.01
791.73	40371.61
791.91	40306.07
792.09	40437.14
792.27	40195.48
792.45	40320.41
792.63	40101.28
792.81	39984.54
793.00	39863.71
793.18	39579.04
793.36	39572.90
793.54	39345.58
793.72	39544.23
793.90	39546.28
794.08	39230.89
794.26	39388.58
794.44	39052.72
794.62	38741.42
794.81	39407.01
794.99	39034.28
795.17	39351.72
795.35	39110.06
795.53	39277.99
795.71	39204.27
795.89	38839.73
796.07	38766.00
796.25	38858.16
796.43	38493.62
796.61	38374.84
796.80	37922.24
796.98	38290.87
797.16	37834.17
797.34	38118.84
797.52	37789.12
797.70	38176.19
797.88	37930.43
798.06	37979.58
798.24	38020.54
798.42	37914.05
798.60	37477.83
798.78	37428.68
798.96	37365.19
799.14	37090.76
799.32	37756.35
799.51	37117.39
799.69	37520.84
799.87	37295.56
800.05	36748.75
800.23	37139.91
800.41	37041.61
800.59	36945.36
800.77	36527.57
800.95	36457.94
801.13	36859.34
801.31	36365.78
801.49	36675.02
801.67	36232.66
801.85	36398.55
802.03	36040.15
802.21	35724.77
802.39	36281.81
802.57	36025.82
802.75	36099.55
802.93	35839.45
803.11	35720.67
803.29	35558.88
803.47	35581.41
803.65	35368.42
803.83	35323.36
804.01	35268.07
804.19	34989.55
804.37	35292.65
804.55	34928.11
804.73	35214.82
804.91	35184.10
805.09	35014.12
805.27	34811.37
805.45	34938.35
805.63	35046.89
805.81	35014.12
805.99	35077.61
806.17	35016.17
806.35	34778.61
806.53	34086.39
806.71	34354.68
806.89	34151.93
807.07	34344.44
807.25	34438.64
807.43	33918.46
807.61	33914.36
807.79	34137.59
807.97	33783.29
808.15	33949.18
808.33	33590.78
808.51	33893.88
808.69	33902.07
808.87	33453.57
809.05	33103.37
809.23	33385.99
809.41	33021.45
809.59	33263.11
809.77	33191.43
809.95	32904.71
810.13	33381.89
810.31	32884.23
810.49	33031.69
810.67	33025.54
810.84	32804.36
811.02	33015.30
811.20	32620.05
811.38	32697.87
811.56	32720.40
811.74	32697.87
811.92	32613.90
812.10	32491.02
812.28	32716.30
812.46	32587.28
812.64	32419.35
812.82	32259.60
813.00	32255.51
813.18	32259.60
813.36	31823.39
813.53	31858.20
813.71	32136.73
813.89	31999.51
814.07	32112.15
814.25	32083.48
814.43	31727.13
814.61	31639.07
814.79	31534.62
814.97	31690.27
815.15	31714.84
815.33	31411.74
815.50	31168.04
815.68	31305.25
815.86	31342.11
816.04	30944.81
816.22	31227.43
816.40	31262.24
816.58	30805.55
816.76	30787.11
816.94	31022.63
817.11	31120.93
817.29	30549.55
817.47	31022.63
817.65	30838.31
817.83	30883.37
818.01	30180.92
818.19	30307.89
818.37	30428.72
818.54	30539.31
818.72	30203.44
818.90	30461.49
819.08	30189.11
819.26	30156.34
819.44	30148.15
819.62	30162.48
819.80	30236.21
819.97	30281.27
820.15	30019.13
820.33	29953.59
820.51	30176.82
820.69	29445.69
820.87	29830.71
821.05	29892.15
821.22	29619.77
821.40	29976.12
821.58	29554.24
821.76	29460.03
821.94	29410.88
822.12	29455.93
822.29	29699.64
822.47	29410.88
822.65	29566.52
822.83	29599.29
823.01	29437.50
823.19	29242.95
823.36	29169.22
823.54	28776.01
823.72	29154.88
823.90	28601.93
824.08	28958.28
824.25	28964.42
824.43	28624.46
824.61	28558.92
824.79	29023.81
824.97	28874.31
825.15	29070.92
825.32	28837.45
825.50	28448.33
825.68	28253.78
825.86	28767.82
826.04	28735.05
826.21	28274.26
826.39	28210.77
826.57	28122.71
826.75	28513.87
826.93	28147.28
827.10	28540.49
827.28	28485.20
827.46	28522.06
827.64	28139.09
827.81	27727.45
827.99	28335.70
828.17	28249.68
828.35	27776.60
828.53	28016.21
828.70	27926.10
828.88	28122.71
829.06	27747.93
829.24	27960.92
829.41	27827.80
829.59	27817.56
829.77	27829.85
829.95	27743.83
830.12	28046.93
830.30	27469.40
830.48	27752.02
830.66	27668.06
830.84	27569.76
831.01	27264.61
831.19	27434.59
831.37	27401.82
831.55	27143.78
831.72	27129.44
831.90	27448.93
832.08	27448.93
832.25	27360.86
832.43	27213.41
832.61	26922.60
832.79	26859.11
832.96	26928.74
833.14	27209.31
833.32	27174.50
833.50	27076.19
833.67	26787.43
833.85	26988.13
834.03	26746.47
834.20	26836.58
834.38	26842.73
834.56	27219.55
834.74	26615.40
834.91	26627.69
835.09	26472.04
835.27	26447.47
835.44	26443.37
835.62	26234.48
835.80	26117.75
835.98	26371.69
836.15	26490.48
836.33	26371.69
836.51	26537.58
836.68	25986.68
836.86	26164.85
837.04	26312.30
837.21	26361.45
837.39	26414.70
837.57	26367.60
837.75	26439.28
837.92	25546.36
838.10	26199.66
838.28	25984.63
838.45	25845.37
838.63	25316.99
838.81	25589.37
838.98	25609.85
839.16	25462.40
839.34	25425.53
839.51	25925.24
839.69	25040.51
839.87	25321.09
840.04	25417.34
840.22	25425.53
840.40	25716.34
840.57	25386.62
840.75	25282.17
840.93	25114.24
841.10	25400.96
841.28	25599.61
841.46	25255.55
841.63	25173.63
841.81	25327.23
841.98	25089.67
842.16	25267.84
842.34	24960.64
842.51	24884.87
842.69	25007.75
842.87	25030.27
843.04	25075.33
843.22	24733.32
843.40	24745.61
843.57	24958.60
843.75	24858.24
843.92	24921.73
844.10	24880.77
844.28	24983.17
844.45	25005.70
844.63	24635.02
844.81	24557.19
844.98	24665.74
845.16	24729.22
845.33	24413.84
845.51	24602.25
845.69	24184.46
845.86	24161.94
846.04	24434.32
846.21	24528.52
846.39	24624.78
846.57	24338.06
846.74	24204.94
846.92	24680.07
847.09	24159.89
847.27	24151.70
847.45	23934.61
847.62	24321.68
847.80	23864.98
847.97	23981.71
848.15	24096.40
848.32	23842.45
848.50	23987.86
848.68	23914.13
848.85	23920.28
849.03	23506.59
849.20	23850.64
849.38	23641.75
849.56	24100.50
849.73	23387.80
849.91	23821.97
850.08	23983.76
850.26	23475.87
850.43	23600.79
850.61	23549.59
850.78	23056.03
850.96	23326.36
851.14	23385.76
851.31	23404.19
851.49	23133.86
851.66	23312.03
851.84	23436.95
852.01	23348.89
852.19	23228.06
852.36	23187.10
852.54	23045.79
852.71	23156.38
852.89	23035.55
853.07	23117.47
853.24	23129.76
853.42	23039.65
853.59	23133.86
853.77	22947.49
853.94	22916.77
854.12	23072.42
854.29	22871.72
854.47	22810.28
854.64	22773.41
854.82	22632.10
854.99	22935.20
855.17	22527.66
855.34	22570.66
855.52	22922.91
855.69	23090.85
855.87	22750.88
856.04	22509.22
856.22	22564.52
856.39	22671.01
856.57	22476.46
856.74	22322.86
856.92	22437.55
857.09	22099.63
857.27	22208.17
857.44	22359.72
857.62	22242.99
857.79	22421.16
857.97	22261.42
858.14	22386.35
858.32	22255.28
858.49	22142.64
858.67	21929.65
858.84	22073.01
859.02	22109.87
859.19	21974.70
859.37	21900.98
859.54	21685.94
859.72	22146.73
859.89	21874.35
860.06	22056.62
860.24	21677.75
860.41	21999.28
860.59	21745.33
860.76	21685.94
860.94	21851.83
861.11	21450.42
861.29	21657.27
861.46	21552.82
861.64	21325.50
861.81	21391.03
861.98	21421.75
862.16	21345.98
862.33	21276.35
862.51	21321.40
862.68	21403.32
862.86	21268.16
863.03	21251.77
863.21	20999.87
863.38	21321.40
863.55	21290.68
863.73	21089.98
863.90	21116.61
864.08	20899.52
864.25	21171.90
864.43	21141.18
864.60	20960.96
864.77	20524.74
864.95	20743.88
865.12	20889.28
865.30	20983.49
865.47	20944.58
865.64	20641.48
865.82	20850.37
865.99	20776.64
866.17	20520.65
866.34	20920.00
866.51	20342.47
866.69	20543.17
866.86	20639.43
867.04	20524.74
867.21	20424.39
867.38	20596.42
867.56	20430.54
867.73	20352.71
867.91	19930.83
868.08	20188.88
868.25	20315.85
868.43	20158.16
868.60	20168.40
868.78	20125.39
868.95	20139.72
869.12	20117.20
869.30	20125.39
869.47	20068.05
869.64	19822.29
869.82	19754.71
869.99	19877.58
870.16	20111.05
870.34	19717.84
870.51	19898.06
870.69	19637.97
870.86	19652.31
871.03	19869.39
871.21	19631.83
871.38	19801.81
871.55	19730.13
871.73	19748.56
871.90	19445.46
872.07	19326.68
872.25	19068.64
872.42	19039.97
872.59	19130.08
872.77	19402.46
872.94	19322.59
873.11	19259.10
873.29	19214.04
873.46	19338.97
873.63	19164.89
873.81	19230.43
873.98	19070.68
874.15	18929.38
874.33	18859.74
874.50	18718.43
874.67	19068.64
874.85	18855.65
875.02	18855.65
875.19	18818.78
875.37	18587.36
875.54	18472.68
875.71	18446.05
875.88	18413.29
876.06	18587.36
876.23	18118.38
876.40	18173.67
876.58	18321.13
876.75	18456.29
876.92	18423.53
877.10	18388.71
877.27	18390.76
877.44	18263.79
877.61	18151.15
877.79	18067.18
877.96	18163.43
878.13	17895.15
878.31	18077.42
878.48	17762.03
878.65	17802.99
878.82	17659.63
879.00	17766.13
879.17	17864.43
879.34	17706.74
879.51	17649.39
879.69	17516.28
879.86	17788.66
880.03	17583.86
880.21	17733.36
880.38	17643.25
880.55	17723.12
880.72	17624.82
880.90	17872.62
881.07	17409.78
881.24	17643.25
881.41	17247.99
881.59	17172.22
881.76	17354.49
881.93	17338.10
882.10	17301.24
882.28	17331.96
882.45	17407.73
882.62	17100.54
882.79	17346.30
882.96	16903.93
883.14	17145.59
883.31	17243.90
883.48	17020.67
883.65	17063.68
883.83	17166.07
884.00	17012.48
884.17	17024.76
884.34	17264.38
884.51	17026.81
884.69	16793.34
884.86	16953.09
885.03	16807.68
885.20	16877.31
885.38	16940.80
885.55	16744.19
885.72	16555.78
885.89	16441.09
886.06	16699.14
886.24	16969.47
886.41	16682.75
886.58	16924.41
886.75	16723.71
886.92	16455.43
887.10	16654.08
887.27	16355.08
887.44	16625.41
887.61	16746.24
887.78	16779.01
887.95	16697.09
888.13	16174.86
888.30	16170.76
888.47	16420.61
888.64	16275.21
888.81	16414.47
888.99	16176.91
889.16	16064.27
889.33	15994.64
889.50	16123.66
889.67	16099.08
889.84	16305.93
890.01	16174.86
890.19	16031.50
890.36	16099.08
890.53	15843.09
890.70	15720.21
890.87	16019.21
891.04	15613.71
891.22	15894.29
891.39	15744.78
891.56	16051.98
891.73	15904.53
891.90	15896.33
892.07	15662.86
892.24	15689.49
892.42	15679.25
892.59	15535.89
892.76	15652.63
892.93	15390.49
893.10	15875.85
893.27	15603.47
893.44	15433.49
893.61	15320.85
893.79	15671.06
893.96	15535.89
894.13	15474.45
894.30	15388.44
894.47	15517.46
894.64	15611.67
894.81	15376.15
894.98	15447.83
895.15	15197.98
895.33	15386.39
895.50	15253.27
895.67	15427.35
895.84	15404.82
896.01	15433.49
896.18	15486.74
896.35	15410.96
896.52	15372.05
896.69	15353.62
896.86	15320.85
897.04	15355.67
897.21	15437.59
897.38	15253.27
897.55	15109.91
897.72	15468.31
897.89	15314.71
898.06	15279.89
898.23	15329.05
898.40	15159.06
898.57	15146.78
898.74	15253.27
898.91	15413.01
899.08	15093.53
899.26	15204.12
899.43	15404.82
899.60	15042.33
899.77	15195.93
899.94	15204.12
900.11	15009.56
900.28	15152.92
900.45	14993.18
900.62	14862.11
900.79	15372.05
900.96	15419.16
901.13	15232.79
901.30	15408.92
901.47	15011.61
901.64	15044.38
901.81	15011.61
901.98	15107.87
902.15	15126.30
902.32	15071.00
902.49	15144.73
902.66	15279.89
902.83	15288.09
903.01	15171.35
903.18	15204.12
903.35	15023.90
903.52	15124.25
903.69	15046.43
903.86	15091.48
904.03	15222.55
904.20	15159.06
904.37	15251.22
904.54	15230.74
904.71	14798.62
904.88	14925.60
905.05	14958.36
905.22	15130.39
905.39	14892.83
905.56	14923.55
905.73	15138.58
905.90	15007.52
906.07	14970.65
906.24	14937.88
906.41	14999.32
906.58	14888.73
906.75	14950.17
906.92	14714.66
907.09	14915.36
907.26	14921.50
907.43	14767.90
907.60	14896.92
907.77	14765.85
907.93	15038.23
908.10	15027.99
908.27	14946.08
908.44	15083.29
908.61	14667.55
908.78	15077.15
908.95	14890.78
909.12	15071.00
909.29	14733.09
909.46	14712.61
909.63	14937.88
909.80	14878.49
909.97	14499.62
910.14	14921.50
910.31	14890.78
910.48	14786.33
910.65	14556.96
910.82	14767.90
910.99	14909.21
911.16	14663.46
911.33	14546.72
911.50	14812.96
911.66	14556.96
911.83	14632.74
912.00	14413.60
912.17	14456.61
912.34	14389.03
912.51	14616.35
912.68	14401.32
912.85	14606.11
913.02	14692.13
913.19	14311.21
913.36	14278.44
913.53	14573.35
913.70	14253.86
913.86	14499.62
914.03	14554.91
914.20	14356.26
914.37	14272.29
914.54	13956.91
914.71	14217.00
914.88	14212.90
915.05	14153.51
915.22	14047.02
915.39	14083.88
915.55	14018.35
915.72	14026.54
915.89	13729.58
916.06	13930.28
916.23	13840.17
916.40	13659.95
916.57	13676.34
916.74	13750.06
916.91	13698.86
917.07	13473.59
917.24	13725.49
917.41	13813.55
917.58	13616.94
917.75	13494.07
917.92	13510.45
918.09	13385.52
918.26	13545.27
918.42	13539.12
918.59	13201.21
918.76	13250.36
918.93	13170.49
919.10	13176.63
919.27	13227.83
919.44	13371.19
919.60	13240.12
919.77	13213.49
919.94	13049.66
920.11	12969.79
920.28	13168.44
920.45	13063.99
920.61	12797.76
920.78	12736.32
920.95	12869.44
921.12	12910.40
921.29	12597.06
921.46	12769.09
921.62	12633.92
921.79	12760.89
921.96	12351.30
922.13	12541.76
922.30	12361.54
922.47	12322.63
922.63	12154.69
922.80	12496.71
922.97	12009.29
923.14	12035.91
923.31	12400.45
923.47	12150.60
923.64	12267.33
923.81	12166.98
923.98	12187.46
924.15	11999.05
924.32	12058.44
924.48	12007.24
924.65	12021.58
924.82	11822.92
924.99	11900.75
925.15	11616.08
925.32	11857.74
925.49	11847.50
925.66	11792.20
925.83	11542.35
925.99	11476.82
926.16	11685.71
926.33	11552.59
926.50	11362.13
926.67	11450.19
926.83	11382.61
927.00	11351.89
927.17	11265.88
927.34	11218.77
927.50	11157.33
927.67	11241.30
927.84	11007.83
928.01	11013.98
928.17	11001.69
928.34	10835.80
928.51	10944.34
928.68	10803.04
928.84	10733.40
929.01	10733.40
929.18	10471.26
929.35	10647.39
929.51	10428.26
929.68	10362.72
929.85	10379.11
930.02	10530.66
930.18	10393.44
930.35	10426.21
930.52	10381.15
930.69	10305.38
930.85	10358.63
931.02	10237.80
931.19	10174.31
931.36	10098.53
931.52	10196.84
931.69	10217.32
931.86	9940.84
932.02	9992.04
932.19	9701.23
932.36	9926.50
932.53	9906.02
932.69	9744.24
932.86	9817.96
933.03	9758.57
933.19	9541.49
933.36	9523.05
933.53	9668.46
933.70	9340.79
933.86	9371.50
934.03	9557.87
934.20	9289.59
934.36	9570.16
934.53	9168.76
934.70	9238.39
934.86	9176.95
935.03	8873.85
935.20	8900.47
935.36	9000.82
935.53	8736.63
935.70	8834.94
935.86	8918.90
936.03	8701.82
936.20	8521.60
936.36	8368.00
936.53	8415.10
936.70	8441.73
936.86	8519.55
937.03	8208.26
937.20	8109.96
937.36	8128.39
937.53	7866.25
937.70	7659.40
937.86	7833.48
938.03	7774.09
938.20	7868.30
938.36	7634.83
938.53	7702.41
938.70	7417.74
938.86	7589.77
939.03	7268.24
939.20	7325.58
939.36	7159.70
939.53	6922.13
939.70	7145.36
939.86	6844.31
940.03	6727.58
940.19	6631.32
940.36	6819.74
940.53	6795.16
940.69	6455.20
940.86	6600.60
941.03	6516.64
941.19	6195.11
941.36	6279.07
941.52	6367.13
941.69	6176.67
941.86	6188.96
942.02	6143.91
942.19	6021.03
942.35	6115.23
942.52	6057.89
942.69	5812.14
942.85	5709.74
943.02	5810.09
943.18	5838.76
943.35	5812.14
943.52	5650.35
943.68	5566.38
943.85	5427.12
944.01	5492.65
944.18	5443.50
944.35	5640.11
944.51	5449.64
944.68	5404.59
944.84	5369.77
945.01	5337.01
945.17	5427.12
945.34	5343.15
945.51	5498.80
945.67	5337.01
945.84	5312.43
946.00	5298.10
946.17	5345.20
946.33	5259.18
946.50	5373.87
946.67	5337.01
946.83	5334.96
947.00	5337.01
947.16	5152.69
947.33	5226.42
947.49	5191.60
947.66	5289.90
947.82	5197.74
947.99	5152.69
948.16	5320.62
948.32	5283.76
948.49	5187.50
948.65	5255.09
948.82	5181.36
948.98	5412.78
949.15	5222.32
949.31	5277.62
949.48	5294.00
949.64	5183.41
949.81	5214.13
949.97	5183.41
950.14	5167.03
950.30	5175.22
950.47	5265.33
950.63	5218.22
950.80	5302.19
950.96	5218.22
951.13	5242.80
951.30	5248.94
951.46	5318.57
951.63	5363.63
951.79	5343.15
951.96	5334.96
952.12	5240.75
952.29	5183.41
952.45	5253.04
952.62	5337.01
952.78	5220.27
952.94	5289.90
953.11	5214.13
953.27	5158.83
953.44	5492.65
953.60	5384.11
953.77	5375.92
953.93	5337.01
954.10	5304.24
954.26	5328.81
954.43	5246.90
954.59	5547.95
954.76	5515.18
954.92	5244.85
955.09	5382.06
955.25	5408.69
955.42	5425.07
955.58	5367.73
955.75	5312.43
955.91	5275.57
956.07	5347.25
956.24	5386.16
956.40	5416.88
956.57	5468.08
956.73	5238.70
956.90	5410.73
957.06	5394.35
957.23	5425.07
957.39	5408.69
957.56	5351.34
957.72	5220.27
957.88	5375.92
958.05	5521.32
958.21	5504.94
958.38	5488.56
958.54	5386.16
958.71	5498.80
958.87	5455.79
959.03	5398.45
959.20	5433.26
959.36	5318.57
959.53	5318.57
959.69	5339.05
959.85	5455.79
960.02	5349.29
960.18	5306.29
960.35	5472.17
960.51	5539.76
960.68	5226.42
960.84	5396.40
961.00	5300.14
961.17	5492.65
961.33	5404.59
961.50	5343.15
961.66	5302.19
961.82	5226.42
961.99	5402.54
962.15	5294.00
962.31	5302.19
962.48	5244.85
962.64	5158.83
962.81	5281.71
962.97	5345.20
963.13	5337.01
963.30	5291.95
963.46	5363.63
963.62	5273.52
963.79	5287.86
963.95	5265.33
964.12	5324.72
964.28	5334.96
964.44	5259.18
964.61	5314.48
964.77	5353.39
964.93	5509.04
965.10	5259.18
965.26	5171.12
965.42	5171.12
965.59	5171.12
965.75	5236.66
965.92	5216.18
966.08	5216.18
966.24	5255.09
966.41	5160.88
966.57	5234.61
966.73	5230.51
966.90	5236.66
967.06	5222.32
967.22	5175.22
967.39	5185.46
967.55	5076.91
967.71	5169.07
967.88	5113.78
968.04	4980.66
968.20	5158.83
968.37	5156.79
968.53	5111.73
968.69	5156.79
968.85	5136.31
969.02	5232.56
969.18	5259.18
969.34	5068.72
969.51	5046.20
969.67	5121.97
969.83	5023.67
970.00	5078.96
970.16	5162.93
970.32	4923.32
970.48	5109.68
970.65	5011.38
970.81	5033.91
970.97	5025.72
971.14	4837.30
971.30	5076.91
971.46	5095.35
971.63	4949.94
971.79	5078.96
971.95	4863.93
972.11	4892.60
972.28	4988.85
972.44	4904.89
972.60	4771.77
972.76	4855.73
972.93	4870.07
973.09	4921.27
973.25	4923.32
973.42	4755.38
973.58	4820.92
973.74	4970.42
973.90	4954.04
974.07	4620.22
974.23	4763.58
974.39	4954.04
974.55	4691.90
974.72	4683.70
974.88	4724.66
975.04	4857.78
975.20	4784.06
975.37	4812.73
975.53	4751.29
975.69	4771.77
975.85	4650.94
976.01	4659.13
976.18	4583.35
976.34	4741.05
976.50	4775.86
976.66	4714.42
976.83	4667.32
976.99	4646.84
977.15	4620.22
977.31	4566.97
977.47	4657.08
977.64	4548.54
977.80	4489.15
977.96	4558.78
978.12	4579.26
978.29	4435.90
978.45	4427.71
978.61	4575.16
978.77	4620.22
978.93	4384.70
979.10	4483.00
979.26	4548.54
979.42	4474.81
979.58	4396.99
979.74	4388.80
979.91	4425.66
980.07	4317.12
980.23	4347.84
980.39	4376.51
980.55	4442.04
980.71	4415.42
980.88	4386.75
981.04	4362.17
981.20	4464.57
981.36	4485.05
981.52	4384.70
981.68	4222.91
981.85	4448.19
982.01	4339.65
982.17	4333.50
982.33	4347.84
982.49	4339.65
982.65	4315.07
982.82	4175.81
982.98	4231.10
983.14	4267.97
983.30	4210.62
983.46	4247.49
983.62	4304.83
983.79	4282.30
983.95	4280.25
984.11	4106.18
984.27	4184.00
984.43	4071.36
984.59	4151.23
984.75	4169.66
984.91	4171.71
985.08	4220.86
985.24	4040.64
985.40	4079.55
985.56	4175.81
985.72	4104.13
985.88	4104.13
986.04	4026.31
986.20	4114.37
986.37	4097.99
986.53	4009.92
986.69	3983.30
986.85	3979.20
987.01	4071.36
987.17	4136.90
987.33	4093.89
987.49	3887.04
987.65	4048.83
987.82	3975.11
987.98	3825.61
988.14	3899.33
988.30	4052.93
988.46	3985.35
988.62	3876.80
988.78	3928.00
988.94	3938.24
989.10	3825.61
989.26	3876.80
989.42	3940.29
989.59	3835.85
989.75	3839.94
989.91	3854.28
990.07	3778.50
990.23	3821.51
990.39	3803.08
990.55	3925.96
990.71	3870.66
990.87	3737.54
991.03	3852.23
991.19	3719.11
991.35	3778.50
991.51	3727.30
991.67	3745.73
991.83	3715.02
992.00	3817.41
992.16	3776.45
992.32	3805.13
992.48	3755.97
992.64	3596.23
992.80	3788.74
992.96	3696.58
993.12	3698.63
993.28	3659.72
993.44	3620.81
993.60	3715.02
993.76	3674.06
993.92	3704.78
994.08	3600.33
994.24	3653.58
994.40	3612.62
994.56	3581.90
994.72	3547.08
994.88	3444.68
995.04	3481.55
995.20	3459.02
995.36	3428.30
995.52	3534.79
995.68	3454.92
995.84	3516.36
996.00	3688.39
996.16	3506.12
996.32	3448.78
996.48	3465.16
996.64	3499.98
996.80	3356.62
996.96	3493.83
997.12	3448.78
997.28	3338.19
997.44	3393.48
997.60	3522.51
997.76	3317.71
997.92	3436.49
998.08	3461.07
998.24	3375.05
998.40	3358.67
998.56	3446.73
998.72	3352.52
998.88	3289.04
999.04	3356.62
999.20	3502.03
999.36	3379.15
999.52	3506.12
999.68	3254.22
999.84	3323.85
1000.00	3338.19
1000.16	3311.57
1000.32	3252.17
1000.48	3334.09
1000.64	3141.58
1000.80	3246.03
1000.95	3182.54
1001.11	3137.49
1001.27	3133.39
1001.43	3133.39
1001.59	3207.12
1001.75	3088.34
1001.91	3221.45
1002.07	3090.38
1002.23	3186.64
1002.39	3147.73
1002.55	3153.87
1002.71	3145.68
1002.87	3125.20
1003.03	3045.33
1003.19	3184.59
1003.34	3088.34
1003.50	3090.38
1003.66	3094.48
1003.82	3110.86
1003.98	3041.23
1004.14	3237.84
1004.30	3141.58
1004.46	3043.28
1004.62	3012.56
1004.78	2955.22
1004.94	3018.71
1005.09	3035.09
1005.25	3037.14
1005.41	2985.94
1005.57	2973.65
1005.73	3004.37
1005.89	2891.73
1006.05	3000.27
1006.21	3010.51
1006.37	2856.92
1006.52	2897.88
1006.68	2910.16
1006.84	2973.65
1007.00	2824.15
1007.16	2973.65
1007.32	2861.01
1007.48	2981.84
1007.64	2910.16
1007.79	2918.36
1007.95	2789.33
1008.11	2949.08
1008.27	2848.72
1008.43	2850.77
1008.59	2838.48
1008.75	2883.54
1008.91	2809.81
1009.06	2793.43
1009.22	2883.54
1009.38	2842.58
1009.54	2803.67
1009.70	2848.72
1009.86	2791.38
1010.01	2885.59
1010.17	2738.13
1010.33	2742.23
1010.49	2736.09
1010.65	2777.05
1010.81	2772.95
1010.96	2742.23
1011.12	2721.75
1011.28	2660.31
1011.44	2746.33
1011.60	2766.81
1011.76	2648.02
1011.91	2707.41
1012.07	2666.46
1012.23	2590.68
1012.39	2590.68
1012.55	2672.60
1012.71	2543.58
1012.86	2699.22
1013.02	2660.31
1013.18	2596.82
1013.34	2584.54
1013.50	2721.75
1013.65	2664.41
1013.81	2600.92
1013.97	2615.26
1014.13	2674.65
1014.29	2635.74
1014.44	2762.71
1014.60	2574.30
1014.76	2502.62
1014.92	2590.68
1015.07	2588.63
1015.23	2592.73
1015.39	2500.57
1015.55	2523.10
1015.71	2613.21
1015.86	2592.73
1016.02	2447.32
1016.18	2551.77
1016.34	2533.34
1016.49	2500.57
1016.65	2508.76
1016.81	2521.05
1016.97	2572.25
1017.12	2488.28
1017.28	2396.12
1017.44	2435.03
1017.60	2428.89
1017.75	2457.56
1017.91	2445.27
1018.07	2404.32
1018.23	2457.56
1018.38	2437.08
1018.54	2459.61
1018.70	2455.51
1018.86	2426.84
1019.01	2455.51
1019.17	2490.33
1019.33	2525.15
1019.49	2406.36
1019.64	2486.23
1019.80	2437.08
1019.96	2410.46
1020.12	2355.16
1020.27	2357.21
1020.43	2359.26
1020.59	2394.08
1020.74	2457.56
1020.90	2394.08
1021.06	2379.74
1021.22	2461.66
1021.37	2310.11
1021.53	2314.20
1021.69	2377.69
1021.84	2346.97
1022.00	2310.11
1022.16	2396.12
1022.31	2314.20
1022.47	2406.36
1022.63	2271.20
1022.79	2281.44
1022.94	2256.86
1023.10	2357.21
1023.26	2240.48
1023.41	2314.20
1023.57	2375.64
1023.73	2217.95
1023.88	2289.63
1024.04	2220.00
1024.20	2263.01
1024.35	2283.49
1024.51	2312.16
1024.67	2220.00
1024.82	2277.34
1024.98	2279.39
1025.14	2183.13
1025.29	2172.89
1025.45	2330.59
1025.61	2207.71
1025.76	2213.85
1025.92	2170.85
1026.08	2215.90
1026.23	2254.81
1026.39	2244.57
1026.55	2222.05
1026.70	2174.94
1026.86	2113.50
1027.02	2265.05
1027.17	2129.89
1027.33	2209.76
1027.48	2172.89
1027.64	2127.84
1027.80	2117.60
1027.95	2211.81
1028.11	2088.93
1028.27	2101.22
1028.42	2166.75
1028.58	2140.13
1028.73	2070.50
1028.89	2131.94
1029.05	2195.42
1029.20	2107.36
>>>>>End Processed Spectral Data<<<<<
