SpectraSuite Data File
++++++++++++++++++++++++++++++++++++
Date: Fri Jun 02 14:57:21 CEST 2017
User: INFO_000
Dark Spectrum Present: No
Reference Spectrum Present: No
Number of Sampled Component Spectra: 1
Spectrometers: USB4H00879
Integration Time (usec): 80000 (USB4H00879)
Spectra Averaged: 1 (USB4H00879)
Boxcar Smoothing: 0 (USB4H00879)
Correct for Electrical Dark: No (USB4H00879)
Strobe/Lamp Enabled: No (USB4H00879)
Correct for Detector Non-linearity: No (USB4H00879)
Correct for Stray Light: No (USB4H00879)
Number of Pixels in Processed Spectrum: 3648
>>>>>Begin Processed Spectral Data<<<<<
345.13	1247.21
345.34	1247.21
345.56	1247.21
345.78	1357.80
345.99	1300.46
346.21	1722.34
346.42	1638.38
346.64	1695.72
346.86	1839.08
347.07	1656.81
347.29	1703.91
347.50	1726.44
347.72	1710.05
347.94	1802.21
348.15	1558.50
348.37	1628.14
348.59	1624.04
348.80	1677.29
349.02	1779.68
349.23	1830.88
349.45	1847.27
349.67	1882.08
349.88	1804.26
350.10	1998.82
350.31	1820.64
350.53	1822.69
350.75	1972.19
350.96	1794.02
351.18	1853.41
351.39	1865.70
351.61	1814.50
351.82	1902.56
352.04	1877.99
352.26	1847.27
352.47	1929.19
352.69	1877.99
352.90	1730.53
353.12	1822.69
353.34	1794.02
353.55	1869.80
353.77	1929.19
353.98	1935.33
354.20	1857.51
354.41	1900.52
354.63	1945.57
354.85	2093.02
355.06	1976.29
355.28	1834.98
355.49	1968.10
355.71	1873.89
355.92	1826.79
356.14	1884.13
356.35	1904.61
356.57	1853.41
356.79	1933.28
357.00	1896.42
357.22	1937.38
357.43	1806.31
357.65	1933.28
357.86	1865.70
358.08	1869.80
358.29	1912.80
358.51	2029.54
358.72	1984.48
358.94	1914.85
359.16	1861.60
359.37	1931.23
359.59	2033.63
359.80	2011.11
360.02	2011.11
360.23	1982.43
360.45	2041.82
360.66	1880.04
360.88	1902.56
361.09	1957.86
361.31	2011.11
361.52	1937.38
361.74	2080.74
361.95	2037.73
362.17	1933.28
362.38	2043.87
362.60	2103.26
362.81	2015.20
363.03	2025.44
363.24	1923.04
363.46	2039.78
363.67	2050.02
363.89	1990.63
364.10	1964.00
364.32	1988.58
364.53	2072.54
364.75	1886.18
364.96	2039.78
365.18	2002.91
365.39	2017.25
365.61	1964.00
365.82	2097.12
366.04	1929.19
366.25	1984.48
366.47	2090.98
366.68	1994.72
366.90	2011.11
367.11	2146.27
367.33	2142.18
367.54	2068.45
367.76	2105.31
367.97	2095.07
368.19	2047.97
368.40	2047.97
368.62	1968.10
368.83	1902.56
369.05	2097.12
369.26	1978.34
369.48	1935.33
369.69	1955.81
369.91	2115.55
370.12	2007.01
370.33	2148.32
370.55	1900.52
370.76	1990.63
370.98	2082.78
371.19	2056.16
371.41	1994.72
371.62	2099.17
371.84	2088.93
372.05	2207.71
372.27	2121.70
372.48	2050.02
372.69	2113.50
372.91	2084.83
373.12	2142.18
373.34	2191.33
373.55	2179.04
373.77	2142.18
373.98	2064.35
374.20	2222.05
374.41	2265.05
374.62	2125.79
374.84	2127.84
375.05	2213.85
375.27	2179.04
375.48	2164.70
375.70	2148.32
375.91	2174.94
376.12	2306.01
376.34	2156.51
376.55	2080.74
376.77	2240.48
376.98	2074.59
377.19	2109.41
377.41	2193.37
377.62	2197.47
377.84	2336.73
378.05	2277.34
378.27	2187.23
378.48	2324.44
378.69	2320.35
378.91	2283.49
379.12	2226.14
379.34	2240.48
379.55	2256.86
379.76	2209.76
379.98	2193.37
380.19	2306.01
380.41	2240.48
380.62	2396.12
380.83	2281.44
381.05	2193.37
381.26	2463.71
381.47	2197.47
381.69	2342.88
381.90	2447.32
382.12	2248.67
382.33	2271.20
382.54	2215.90
382.76	2314.20
382.97	2344.92
383.19	2365.40
383.40	2328.54
383.61	2334.68
383.83	2228.19
384.04	2303.96
384.25	2353.12
384.47	2435.03
384.68	2365.40
384.89	2287.58
385.11	2342.88
385.32	2398.17
385.54	2432.99
385.75	2324.44
385.96	2394.08
386.18	2424.80
386.39	2338.78
386.60	2314.20
386.82	2402.27
387.03	2365.40
387.24	2512.86
387.46	2410.46
387.67	2430.94
387.88	2490.33
388.10	2494.43
388.31	2437.08
388.52	2564.06
388.74	2480.09
388.95	2519.00
389.16	2478.04
389.38	2424.80
389.59	2527.19
389.80	2598.87
390.02	2535.39
390.23	2568.15
390.44	2584.54
390.66	2533.34
390.87	2420.70
391.08	2600.92
391.30	2707.41
391.51	2680.79
391.72	2611.16
391.94	2578.39
392.15	2598.87
392.36	2594.78
392.58	2549.72
392.79	2635.74
393.00	2688.98
393.22	2754.52
393.43	2758.61
393.64	2725.85
393.85	2863.06
394.07	2744.28
394.28	2736.09
394.49	2754.52
394.71	2762.71
394.92	2834.39
395.13	2742.23
395.35	2682.84
395.56	2727.89
395.77	2731.99
395.98	2760.66
396.20	2848.72
396.41	2787.29
396.62	2822.10
396.84	2795.48
397.05	2838.48
397.26	2793.43
397.47	3022.80
397.69	2877.40
397.90	3018.71
398.11	2985.94
398.32	2885.59
398.54	2932.69
398.75	2906.07
398.96	2897.88
399.18	3127.25
399.39	2914.26
399.60	3090.38
399.81	2891.73
400.03	2865.11
400.24	3194.83
400.45	3028.95
400.66	3082.19
400.88	3106.77
401.09	3104.72
401.30	3125.20
401.51	3155.92
401.73	3182.54
401.94	3067.86
402.15	3030.99
402.36	3121.10
402.58	3117.01
402.79	3164.11
403.00	3166.16
403.21	3207.12
403.43	3149.78
403.64	3246.03
403.85	3182.54
404.06	3209.17
404.27	3147.73
404.49	3174.35
404.70	3229.65
404.91	3338.19
405.12	3215.31
405.34	3231.69
405.55	3510.22
405.76	3231.69
405.97	3182.54
406.19	3366.86
406.40	3375.05
406.61	3360.72
406.82	3381.20
407.03	3342.28
407.25	3381.20
407.46	3456.97
407.67	3426.25
407.88	3459.02
408.09	3401.68
408.31	3330.00
408.52	3465.16
408.73	3481.55
408.94	3370.96
409.15	3383.24
409.37	3514.31
409.58	3581.90
409.79	3487.69
410.00	3508.17
410.21	3461.07
410.43	3375.05
410.64	3444.68
410.85	3608.52
411.06	3575.75
411.27	3452.88
411.48	3504.07
411.70	3481.55
411.91	3518.41
412.12	3690.44
412.33	3547.08
412.54	3583.95
412.76	3760.07
412.97	3598.28
413.18	3629.00
413.39	3719.11
413.60	3581.90
413.81	3751.88
414.03	3598.28
414.24	3717.06
414.45	3796.93
414.66	3520.46
414.87	3798.98
415.08	3753.93
415.30	3684.30
415.51	3745.73
415.72	3831.75
415.93	3755.97
416.14	3770.31
416.35	3866.56
416.56	3786.69
416.78	3948.48
416.99	3948.48
417.20	3839.94
417.41	3772.36
417.62	3737.54
417.83	3981.25
418.04	3835.85
418.26	3966.92
418.47	3755.97
418.68	3977.16
418.89	3971.01
419.10	4018.11
419.31	3997.64
419.52	4120.51
419.73	3983.30
419.95	4163.52
420.16	3934.15
420.37	4079.55
420.58	4077.51
420.79	3801.03
421.00	4024.26
421.21	4009.92
421.42	4087.75
421.63	4165.57
421.85	4184.00
422.06	4149.18
422.27	4173.76
422.48	4208.58
422.69	4241.34
422.90	4284.35
423.11	4218.82
423.32	4274.11
423.53	4327.36
423.75	4448.19
423.96	4403.13
424.17	4343.74
424.38	4517.82
424.59	4390.84
424.80	4605.88
425.01	4308.93
425.22	4417.47
425.43	4339.65
425.64	4652.98
425.85	4569.02
426.06	4575.16
426.28	4483.00
426.49	4485.05
426.70	4554.68
426.91	4444.09
427.12	4638.65
427.33	4755.38
427.54	4564.92
427.75	4677.56
427.96	4792.25
428.17	4771.77
428.38	4802.49
428.59	4845.49
428.80	4806.58
429.01	4761.53
429.23	4773.82
429.44	4966.32
429.65	4954.04
429.86	4747.19
430.07	4908.98
430.28	4882.36
430.49	4896.69
430.70	5031.86
430.91	4951.99
431.12	5021.62
431.33	5076.91
431.54	5054.39
431.75	5146.55
431.96	4992.95
432.17	4999.09
432.38	5056.43
432.59	5365.68
432.80	5099.44
433.01	5277.62
433.22	5234.61
433.43	5257.14
433.64	5207.98
433.85	5263.28
434.06	5179.31
434.27	5240.75
434.49	5400.49
434.70	5539.76
434.91	5345.20
435.12	5513.13
435.33	5472.17
435.54	5439.40
435.75	5232.56
435.96	5384.11
436.17	5287.86
436.38	5441.45
436.59	5672.87
436.80	5541.80
437.01	5857.19
437.22	5724.07
437.43	5664.68
437.64	5439.40
437.85	5820.33
438.06	5889.96
438.27	5523.37
438.48	5849.00
438.69	5676.97
438.90	5627.82
439.11	5668.78
439.32	5867.43
439.53	5920.68
439.74	5859.24
439.95	5861.29
440.16	5760.94
440.37	5994.40
440.57	5783.46
440.78	5928.87
440.99	5719.98
441.20	6023.08
441.41	5762.98
441.62	5734.31
441.83	5963.68
442.04	6154.15
442.25	5855.14
442.46	6066.08
442.67	6227.87
442.88	6496.16
443.09	5851.05
443.30	6090.66
443.51	6252.45
443.72	6404.00
443.93	6086.56
444.14	6174.63
444.35	6164.39
444.56	6264.74
444.77	6219.68
444.98	6348.70
445.19	6365.09
445.40	6305.70
445.61	6418.33
445.81	6514.59
446.02	6426.53
446.23	6328.22
446.44	6545.31
446.65	6410.14
446.86	6471.58
447.07	6541.21
447.28	6623.13
447.49	6797.21
447.70	6473.63
447.91	6649.75
448.12	6530.97
448.33	6829.98
448.54	6875.03
448.74	6608.80
448.95	6741.91
449.16	6717.34
449.37	6932.37
449.58	6768.54
449.79	6844.31
450.00	6627.23
450.21	6948.76
450.42	7028.63
450.63	7077.78
450.84	7040.92
451.05	7065.49
451.25	7063.44
451.46	6979.48
451.67	7014.29
451.88	7221.14
452.09	7151.51
452.30	7145.36
452.51	7110.55
452.72	7071.64
452.93	7487.37
453.13	7188.37
453.34	7255.95
453.55	7409.55
453.76	7309.20
453.97	7581.58
454.18	7239.57
454.39	7520.14
454.60	7507.85
454.81	7288.72
455.01	7667.60
455.22	7448.46
455.43	7688.07
455.64	7876.49
455.85	8003.46
456.06	8044.42
456.27	7714.70
456.48	7776.14
456.68	7833.48
456.89	7827.34
457.10	8058.76
457.31	8021.89
457.52	7989.13
457.73	8046.47
457.94	8226.69
458.14	8011.65
458.35	8392.58
458.56	8275.84
458.77	8138.63
458.98	8427.39
459.19	8331.14
459.39	8298.37
459.60	8472.45
459.81	8281.99
460.02	8523.65
460.23	8449.92
460.44	8839.03
460.65	8812.41
460.85	8755.07
461.06	8724.35
461.27	8517.50
461.48	9092.98
461.69	8927.10
461.89	8560.51
462.10	8945.53
462.31	8798.07
462.52	8904.57
462.73	8931.19
462.94	9156.47
463.14	9023.35
463.35	9076.60
463.56	9410.42
463.77	9205.62
463.98	9174.90
464.18	9310.07
464.39	9252.72
464.60	9383.79
464.81	9576.30
465.02	9451.38
465.23	9838.44
465.43	9699.18
465.64	9830.25
465.85	9543.53
466.06	9750.38
466.27	10207.08
466.47	10098.53
466.68	9891.69
466.89	9881.45
467.10	10121.06
467.30	9871.21
467.51	10268.52
467.72	10358.63
467.93	10178.40
468.14	10264.42
468.34	10598.24
468.55	10428.26
468.76	10579.81
468.97	10497.89
469.17	10569.57
469.38	10825.56
469.59	10682.20
469.80	10604.38
470.01	10907.48
470.21	10880.86
470.42	11235.16
470.63	10911.58
470.84	11091.80
471.04	11157.33
471.25	11186.01
471.46	11208.53
471.67	11394.90
471.87	11575.12
472.08	11505.49
472.29	11759.44
472.50	11497.30
472.70	11616.08
472.91	11880.27
473.12	11878.22
473.33	11767.63
473.53	12242.76
473.74	12011.34
473.95	12152.65
474.16	12355.40
474.36	12126.02
474.57	12521.28
474.78	12619.58
474.99	12410.69
475.19	12554.05
475.40	12672.83
475.61	12863.29
475.81	13002.55
476.02	13248.31
476.23	12885.82
476.44	13219.64
476.64	13283.13
476.85	13455.15
477.06	13406.00
477.27	13600.56
477.47	13573.94
477.68	13590.32
477.89	13788.97
478.09	13907.76
478.30	13739.82
478.51	13928.24
478.71	14106.41
478.92	14223.14
479.13	14235.43
479.34	14573.35
479.54	14464.80
479.75	14456.61
479.96	14362.40
480.16	14724.90
480.37	14952.22
480.58	14917.40
480.78	15157.02
480.99	14991.13
481.20	15277.85
481.41	15329.05
481.61	15626.00
481.82	15724.30
482.03	15400.72
482.23	15605.52
482.44	15740.69
482.65	15949.58
482.85	15976.20
483.06	16045.84
483.27	15990.54
483.47	15851.28
483.68	15888.14
483.89	16314.12
484.09	16314.12
484.30	16322.31
484.51	16787.20
484.71	16744.19
484.92	16592.64
485.13	16721.66
485.33	16895.74
485.54	16654.08
485.75	17264.38
485.95	17311.48
486.16	17270.52
486.37	17411.83
486.57	17381.11
486.78	17647.35
486.98	17403.64
487.19	17651.44
487.40	17886.96
487.60	17497.84
487.81	18136.81
488.02	17807.09
488.22	18073.32
488.43	17944.30
488.64	18177.77
488.84	18474.73
489.05	18349.80
489.25	18390.76
489.46	18919.14
489.67	18700.00
489.87	18976.48
490.08	18716.39
490.29	18845.41
490.49	19093.21
490.70	19222.23
490.90	19328.73
491.11	19347.16
491.32	19633.88
491.52	19631.83
491.73	19576.53
491.94	19594.96
492.14	19791.57
492.35	19912.40
492.55	19859.15
492.76	20227.79
492.97	20235.98
493.17	20395.72
493.38	20170.44
493.58	20321.99
493.79	20264.65
494.00	20180.68
494.20	20764.36
494.41	20557.51
494.61	20895.43
494.82	20948.67
495.02	21026.50
495.23	21106.37
495.44	21106.37
495.64	21243.58
495.85	21057.21
496.05	21145.28
496.26	21239.48
496.47	21638.84
496.67	21442.23
496.88	21761.72
497.08	21679.80
497.29	21880.50
497.49	21710.52
497.70	22171.31
497.91	22107.82
498.11	22032.05
498.32	22081.20
498.52	22363.82
498.73	22603.43
498.93	22527.66
499.14	22472.36
499.34	22324.91
499.55	22689.45
499.76	22664.87
499.96	22687.40
500.17	23029.41
500.37	22681.25
500.58	22988.45
500.78	23178.91
500.99	23160.48
501.19	23262.88
501.40	23406.23
501.60	23137.95
501.81	23381.66
502.02	23543.45
502.22	23537.30
502.43	23512.73
502.63	23811.73
502.84	24108.69
503.04	24084.11
503.25	23961.23
503.45	23883.41
503.66	23987.86
503.86	24227.47
504.07	24268.43
504.27	24194.70
504.48	24659.59
504.68	24485.51
504.89	24716.93
505.09	24585.86
505.30	24632.97
505.50	24753.80
505.71	24596.10
505.91	24901.25
506.12	24774.28
506.32	24751.75
506.53	25089.67
506.73	24841.86
506.94	25044.61
507.14	25040.51
507.35	25239.17
507.55	25405.05
507.76	25378.43
507.96	25489.02
508.17	25486.97
508.37	25716.34
508.58	25548.41
508.78	25941.62
508.99	25878.13
509.19	25851.51
509.40	26039.92
509.60	25820.79
509.81	25988.72
510.01	25818.74
510.22	26031.73
510.42	25962.10
510.63	26177.14
510.83	26031.73
511.04	26078.83
511.24	26295.92
511.44	26418.80
511.65	26867.30
511.85	26451.56
512.06	26586.73
512.26	27000.42
512.47	26850.92
512.67	26611.31
512.88	26766.95
513.08	26545.77
513.29	26867.30
513.49	26848.87
513.69	26869.35
513.90	27197.02
514.10	27311.71
514.31	27043.43
514.51	27078.24
514.72	27332.19
514.92	27287.14
515.13	27403.87
515.33	27479.64
515.53	27680.35
515.74	27508.32
515.94	27795.03
516.15	27868.76
516.35	27725.40
516.56	27778.65
516.76	27924.05
516.96	28059.22
517.17	27985.49
517.37	27975.25
517.58	28051.03
517.78	28089.94
517.99	28634.70
518.19	28405.33
518.39	28137.04
518.60	28517.96
518.80	28390.99
519.01	29113.92
519.21	28599.88
519.41	28638.80
519.62	28583.50
519.82	28966.47
520.03	29017.67
520.23	28866.12
520.43	28759.63
520.64	29208.13
520.84	29281.86
521.05	29507.13
521.25	29527.61
521.45	29410.88
521.66	29994.55
521.86	29509.18
522.07	29797.95
522.27	29580.86
522.47	29793.85
522.68	30103.09
522.88	29933.11
523.08	30113.33
523.29	30391.86
523.49	30150.20
523.70	30078.52
523.90	30311.99
524.10	30031.41
524.31	30690.86
524.51	30248.50
524.71	30756.39
524.92	31231.52
525.12	30967.34
525.33	30807.59
525.53	31088.17
525.73	30920.23
525.94	31180.32
526.14	30932.52
526.34	31303.20
526.55	31540.77
526.75	31217.19
526.95	31469.09
527.16	31362.59
527.36	31495.71
527.56	31866.39
527.77	31899.16
527.97	32067.09
528.17	31860.25
528.38	31946.26
528.58	32269.84
528.78	32396.82
528.99	32116.25
529.19	32374.29
529.39	31960.60
529.60	32435.73
529.80	32271.89
530.00	32548.37
530.21	33091.08
530.41	33132.04
530.61	33154.57
530.82	32626.19
531.02	32949.77
531.22	33365.51
531.43	33281.54
531.63	33273.35
531.83	33398.27
532.04	33715.71
532.24	33402.37
532.44	33809.92
532.64	34104.82
532.85	33926.65
533.05	34233.85
533.25	34274.80
533.46	34205.17
533.66	34620.91
533.86	34620.91
534.07	34842.09
534.27	34514.42
534.47	35177.96
534.67	35249.64
534.88	34731.50
535.08	34829.80
535.28	35028.46
535.49	35421.67
535.69	35669.47
535.89	35306.98
536.09	35577.31
536.30	36025.82
536.50	35843.55
536.70	35665.38
536.91	35644.90
537.11	35605.98
537.31	36021.72
537.51	35894.75
537.72	36242.90
537.92	36396.50
538.12	36804.05
538.32	36079.07
538.53	36525.52
538.73	36165.08
538.93	36679.12
539.13	36609.49
539.34	36992.46
539.54	36787.66
539.74	36752.85
539.94	36789.71
540.15	36976.08
540.35	37121.48
540.55	37154.25
540.75	37084.62
540.96	37301.70
541.16	37488.07
541.36	37645.76
541.56	37725.63
541.77	37871.04
541.97	37699.01
542.17	37952.96
542.37	38131.13
542.58	37862.85
542.78	37629.38
542.98	38221.24
543.18	38342.07
543.38	38489.52
543.59	38352.31
543.79	37881.28
543.99	38063.55
544.19	38208.95
544.40	38489.52
544.60	38794.67
544.80	38475.19
545.00	38548.92
545.20	38950.32
545.41	38831.54
545.61	38647.22
545.81	39042.48
546.01	39155.11
546.21	38892.97
546.42	39249.32
546.62	39015.85
546.82	39069.10
547.02	38878.64
547.22	39191.98
547.43	39187.88
547.63	39026.09
547.83	39493.03
548.03	39490.98
548.23	39673.25
548.44	39959.97
548.64	39798.18
548.84	39804.32
549.04	39527.84
549.24	40056.22
549.45	40181.15
549.65	39892.38
549.85	40031.65
550.05	40181.15
550.25	40111.52
550.45	40201.63
550.66	40164.76
550.86	40279.45
551.06	40068.51
551.26	40543.64
551.46	40482.20
551.66	40699.28
551.87	40261.02
552.07	40650.13
552.27	40320.41
552.47	40316.31
552.67	40709.52
552.87	40785.30
553.07	40885.65
553.28	40803.73
553.48	41188.75
553.68	40699.28
553.88	41309.58
554.08	40752.53
554.28	41078.16
554.48	40883.60
554.69	41055.63
554.89	41037.20
555.09	41104.78
555.29	40961.42
555.49	41252.23
555.69	41209.23
555.89	41067.92
556.10	41301.39
556.30	41344.39
556.50	41549.19
556.70	41307.53
556.90	41641.35
557.10	41737.60
557.30	41495.94
557.50	41907.58
557.70	41909.63
557.91	41989.50
558.11	41653.64
558.31	42139.00
558.51	41680.26
558.71	41870.72
558.91	42489.21
559.11	41926.02
559.31	42118.53
559.51	41837.95
559.72	41987.46
559.92	42175.87
560.12	41801.09
560.32	42218.88
560.52	42177.92
560.72	42057.09
560.92	42216.83
561.12	42560.89
561.32	42661.24
561.52	42308.99
561.72	43021.68
561.93	41753.99
562.13	42567.03
562.33	42233.21
562.53	42853.75
562.73	42417.53
562.93	42640.76
563.13	42476.92
563.33	42452.34
563.53	42988.91
563.73	42182.01
563.93	43111.79
564.13	43081.07
564.33	43052.40
564.53	42675.57
564.74	42790.26
564.94	42835.31
565.14	43023.73
565.34	43353.45
565.54	43083.12
565.74	43267.44
565.94	43398.51
566.14	43283.82
566.34	43251.05
566.54	43486.57
566.74	43128.17
566.94	43529.58
567.14	43912.55
567.34	43128.17
567.54	43707.75
567.74	43898.21
567.94	43615.59
568.14	43715.94
568.34	43756.90
568.54	43449.70
568.74	43922.79
568.94	43582.82
569.14	43793.76
569.34	43998.56
569.54	44105.06
569.75	43941.22
569.95	44299.61
570.15	44426.59
570.35	44234.08
570.55	43918.69
570.75	44166.49
570.95	44098.91
571.15	44381.53
571.35	44578.14
571.55	44242.27
571.75	44176.73
571.95	44432.73
572.15	44363.10
572.35	44219.74
572.55	44901.71
572.75	45032.78
572.95	44875.09
573.15	44447.07
573.35	44836.18
573.55	44660.05
573.75	44860.76
573.95	44950.87
574.15	44885.33
574.35	45262.16
574.55	45294.92
574.75	45118.80
574.95	45526.35
575.15	45178.19
575.34	45217.10
575.54	45561.16
575.74	45493.58
575.94	45243.73
576.14	45073.74
576.34	45643.08
576.54	45800.77
576.74	45643.08
576.94	45593.93
577.14	45829.44
577.34	46030.15
577.54	45393.23
577.74	45886.79
577.94	45712.71
578.14	45608.26
578.34	46351.68
578.54	45417.80
578.74	45847.88
578.94	46220.61
579.14	46234.94
579.34	46153.02
579.54	46026.05
579.74	46394.68
579.94	45966.66
580.13	46535.99
580.33	46859.57
580.53	47056.18
580.73	46368.06
580.93	46368.06
581.13	46923.06
581.33	46966.07
581.53	46892.34
581.73	46886.20
581.93	47066.42
582.13	47086.90
582.33	47197.49
582.53	46789.94
582.73	47279.41
582.92	47177.01
583.12	47584.55
583.32	47179.06
583.52	47213.87
583.72	47228.21
583.92	47215.92
584.12	47641.90
584.32	48215.33
584.52	47772.97
584.72	47793.45
584.92	47856.93
585.11	48295.20
585.31	48096.55
585.51	48092.45
585.71	48031.01
585.91	48504.09
586.11	47801.64
586.31	47830.31
586.51	48260.38
586.71	48370.97
586.91	48655.64
587.10	48526.62
587.30	48428.32
587.50	48588.06
587.70	48637.21
587.90	48762.14
588.10	48796.95
588.30	48819.48
588.50	48801.05
588.69	48788.76
588.89	48917.78
589.09	49055.00
589.29	48530.72
589.49	49519.88
589.69	49102.10
589.89	49190.16
590.08	49257.74
590.28	48700.70
590.48	49384.72
590.68	48921.88
590.88	49528.08
591.08	49165.59
591.28	49083.67
591.47	49718.54
591.67	49466.64
591.87	49952.01
592.07	49517.84
592.27	49693.96
592.47	49474.83
592.67	49933.57
592.86	49655.05
593.06	49730.83
593.26	49765.64
593.46	49259.79
593.66	50259.20
593.86	50158.85
594.05	49851.66
594.25	50181.38
594.45	49775.88
594.65	49773.83
594.85	50117.89
595.05	50294.02
595.24	50468.09
595.44	49857.80
595.64	50287.87
595.84	50478.33
596.04	50631.93
596.23	50820.34
596.43	50593.02
596.63	50554.11
596.83	50640.12
597.03	50803.96
597.22	50846.97
597.42	51205.36
597.62	50842.87
597.82	50916.60
598.02	50769.15
598.21	51164.40
598.41	50578.68
598.61	51434.74
598.81	50842.87
599.01	51356.91
599.20	51109.11
599.40	51057.91
599.60	51199.22
599.80	51553.52
600.00	51662.06
600.19	52100.32
600.39	51406.06
600.59	51877.10
600.79	51864.81
600.98	51643.63
601.18	51670.25
601.38	52020.45
601.58	52114.66
601.78	52286.69
601.97	52016.36
602.17	52393.18
602.37	51905.77
602.57	52384.99
602.76	52520.16
602.96	52147.43
603.16	52573.41
603.36	52208.87
603.55	52727.00
603.75	52659.42
603.95	52612.32
604.15	52745.44
604.34	52856.03
604.54	52632.80
604.74	52724.96
604.94	52696.28
605.13	53050.58
605.33	52952.28
605.53	52868.31
605.73	53361.87
605.92	53003.48
606.12	53239.00
606.32	53222.61
606.52	53034.20
606.71	53144.79
606.91	53429.46
607.11	53054.68
607.30	53497.04
607.50	53122.26
607.70	53576.91
607.90	53523.66
608.09	53978.31
608.29	53791.95
608.49	54179.01
608.68	53667.02
608.88	53499.09
609.08	53789.90
609.28	53920.97
609.47	53603.53
609.67	54062.28
609.87	53499.09
610.06	54275.27
610.26	53679.31
610.46	54416.58
610.66	54021.32
610.85	53937.35
611.05	53902.54
611.25	54244.55
611.44	53851.34
611.64	54420.67
611.84	54312.13
612.03	53963.98
612.23	54262.98
612.43	54727.87
612.62	53998.79
612.82	54179.01
613.02	54197.44
613.21	53769.42
613.41	53984.46
613.61	54414.53
613.80	54105.29
614.00	54781.12
614.20	54219.97
614.39	54299.84
614.59	54705.34
614.79	54336.71
614.98	54385.86
615.18	54250.69
615.38	54639.81
615.57	54396.10
615.77	54830.27
615.97	54637.76
616.16	54244.55
616.36	54727.87
616.56	54838.46
616.75	54596.80
616.95	54435.01
617.15	54721.72
617.34	54215.88
617.54	54850.75
617.74	54940.86
617.93	54731.96
618.13	54293.70
618.32	54850.75
618.52	54310.08
618.72	54817.98
618.91	54596.80
619.11	54404.29
619.31	54361.28
619.50	54525.12
619.70	54723.77
619.90	54615.23
620.09	54641.85
620.29	54531.26
620.48	54748.35
620.68	54594.75
620.88	54344.90
621.07	54097.09
621.27	54308.04
621.46	54336.71
621.66	54432.96
621.86	54162.63
622.05	54281.41
622.25	54406.34
622.44	54465.73
622.64	54277.32
622.84	54850.75
623.03	54222.02
623.23	54604.99
623.42	54578.37
623.62	54576.32
623.82	54801.60
624.01	54717.63
624.21	54777.02
624.40	54365.38
624.60	54299.84
624.80	54629.57
624.99	54443.20
625.19	53851.34
625.38	54568.13
625.58	54138.05
625.77	54432.96
625.97	54621.37
626.17	54179.01
626.36	54090.95
626.56	54631.61
626.75	54121.67
626.95	54498.50
627.14	54197.44
627.34	54301.89
627.54	54652.09
627.73	54488.26
627.93	54342.85
628.12	53765.32
628.32	54105.29
628.51	54195.40
628.71	54572.22
628.90	54580.42
629.10	54322.37
629.30	54506.69
629.49	54111.43
629.69	54478.02
629.88	54715.58
630.08	54791.36
630.27	54598.85
630.47	54555.84
630.66	54545.60
630.86	54736.06
631.05	54084.81
631.25	54803.64
631.44	54895.80
631.64	54727.87
631.84	54557.89
632.03	54875.32
632.23	54533.31
632.42	54891.71
632.62	54809.79
632.81	54084.81
633.01	54109.38
633.20	54246.60
633.40	54240.45
633.59	54279.36
633.79	54351.04
633.98	54785.21
634.18	54611.13
634.37	55012.54
634.57	54432.96
634.76	54840.51
634.96	54570.18
635.15	55092.41
635.35	54719.68
635.54	54969.53
635.74	54820.03
635.93	54516.93
636.13	54836.41
636.32	54965.43
636.52	54736.06
636.71	54598.85
636.91	55407.79
637.10	54746.30
637.30	55239.86
637.49	54377.67
637.69	55139.51
637.88	55071.93
638.08	54815.93
638.27	54963.39
638.46	54809.79
638.66	54269.12
638.85	55063.74
639.05	54682.81
639.24	54822.08
639.44	54727.87
639.63	55311.54
639.83	55231.67
640.02	54770.88
640.22	54852.80
640.41	55395.51
640.61	54885.56
640.80	55108.79
640.99	54975.67
641.19	55354.55
641.38	54797.50
641.58	54973.63
641.77	55180.47
641.97	54783.16
642.16	54537.41
642.36	55018.68
642.55	55585.97
642.74	54471.87
642.94	55436.47
643.13	55108.79
643.33	55669.93
643.52	55203.00
643.72	55162.04
643.91	55063.74
644.10	55274.68
644.30	55235.77
644.49	55237.81
644.69	55127.22
644.88	55200.95
645.08	55043.26
645.27	55143.61
645.46	54817.98
645.66	55633.07
645.85	55465.14
646.05	55502.00
646.24	55473.33
646.43	55164.09
646.63	55653.55
646.82	55805.10
647.02	55606.45
647.21	55465.14
647.40	55446.71
647.60	55723.18
647.79	56194.21
647.99	55631.02
648.18	54783.16
648.37	55940.27
648.57	56077.48
648.76	55389.36
648.96	55411.89
649.15	55710.89
649.34	55841.96
649.54	55741.61
649.73	55235.77
649.92	55645.36
650.12	55880.88
650.31	55721.13
650.51	55866.54
650.70	55975.08
650.89	55704.75
651.09	56155.30
651.28	55825.58
651.47	56347.81
651.67	55946.41
651.86	56444.07
652.06	55698.61
652.25	55547.06
652.44	55702.70
652.64	55882.92
652.83	55577.78
653.02	55825.58
653.22	55833.77
653.41	55502.00
653.60	55325.88
653.80	55970.99
653.99	55743.66
654.18	55592.11
654.38	55700.65
654.57	55925.93
654.76	56048.81
654.96	55415.99
655.15	55907.50
655.34	55397.55
655.54	55215.29
655.73	55569.58
655.92	55764.14
656.12	56157.35
656.31	55911.59
656.50	56073.38
656.70	55993.51
656.89	55606.45
657.08	56079.53
657.28	56032.42
657.47	55837.87
657.66	55993.51
657.86	55702.70
658.05	56005.80
658.24	56468.64
658.43	55788.72
658.63	55973.03
658.82	56048.81
659.01	56345.76
659.21	55841.96
659.40	56188.07
659.59	56140.97
659.79	56022.19
659.98	56163.50
660.17	56247.46
660.36	56372.39
660.56	55712.94
660.75	56235.17
660.94	56612.00
661.14	56261.80
661.33	56425.64
661.52	55749.81
661.71	56265.89
661.91	56030.38
662.10	56065.19
662.29	56399.01
662.49	56491.17
662.68	56378.53
662.87	56288.42
663.06	56183.97
663.26	56186.02
663.45	56515.75
663.64	55944.36
663.83	56251.56
664.03	56417.44
664.22	56372.39
664.41	56005.80
664.60	55649.45
664.80	56280.23
664.99	55997.61
665.18	56048.81
665.37	56132.78
665.57	56460.45
665.76	55973.03
665.95	56054.95
666.14	55942.31
666.34	56022.19
666.53	56042.66
666.72	55801.00
666.91	56165.54
667.11	55727.28
667.30	56091.82
667.49	55897.26
667.68	56145.06
667.87	55909.55
668.07	56624.29
668.26	56263.85
668.45	56194.21
668.64	55809.20
668.84	56548.51
669.03	56329.38
669.22	56181.93
669.41	56091.82
669.60	56331.43
669.80	56155.30
669.99	56382.63
670.18	55997.61
670.37	56429.73
670.57	56624.29
670.76	56247.46
670.95	56462.50
671.14	56179.88
671.33	55999.66
671.53	56695.97
671.72	56224.93
671.91	56073.38
672.10	55921.83
672.29	56116.39
672.48	55864.49
672.68	56407.20
672.87	56140.97
673.06	55678.13
673.25	55821.48
673.44	56104.10
673.64	56100.01
673.83	55817.39
674.02	56112.30
674.21	55547.06
674.40	56495.27
674.59	55874.73
674.79	55647.41
674.98	56089.77
675.17	55956.65
675.36	55536.82
675.55	56513.70
675.74	56079.53
675.94	55817.39
676.13	56065.19
676.32	56136.87
676.51	56251.56
676.70	56028.33
676.89	55915.69
677.08	56126.63
677.28	55970.99
677.47	55975.08
677.66	55714.99
677.85	55506.10
678.04	56048.81
678.23	56186.02
678.42	56194.21
678.62	55680.17
678.81	56292.52
679.00	56112.30
679.19	56460.45
679.38	55798.96
679.57	56054.95
679.76	56216.74
679.96	56360.10
680.15	55899.31
680.34	55903.40
680.53	55741.61
680.72	55891.12
680.91	56267.94
681.10	55485.62
681.29	55839.92
681.48	55663.79
681.68	55743.66
681.87	55739.57
682.06	55819.44
682.25	55395.51
682.44	55770.28
682.63	55805.10
682.82	55377.08
683.01	55825.58
683.20	55301.30
683.39	55354.55
683.59	55571.63
683.78	55381.17
683.97	55475.38
684.16	55497.91
684.35	55217.33
684.54	55461.04
684.73	55551.15
684.92	54846.65
685.11	55108.79
685.30	55325.88
685.49	55588.02
685.69	55112.89
685.88	55291.06
686.07	55184.57
686.26	55153.85
686.45	55856.30
686.64	55624.88
686.83	54961.34
687.02	55475.38
687.21	55526.58
687.40	55350.45
687.59	55084.22
687.78	54723.77
687.97	55342.26
688.16	55002.30
688.35	54891.71
688.54	54512.83
688.74	55321.78
688.93	55002.30
689.12	55039.16
689.31	55076.02
689.50	55653.55
689.69	54762.68
689.88	54394.05
690.07	55405.75
690.26	54961.34
690.45	55071.93
690.64	54922.43
690.83	55264.44
691.02	54408.39
691.21	54609.09
691.40	55010.49
691.59	55182.52
691.78	54588.61
691.97	54568.13
692.16	54822.08
692.35	54891.71
692.54	55008.44
692.73	55035.06
692.92	55000.25
693.11	55061.69
693.30	54410.43
693.49	54656.19
693.68	54549.70
693.87	54494.40
694.06	53935.30
694.25	54115.53
694.44	54285.51
694.63	54883.51
694.82	54742.20
695.01	54570.18
695.20	54664.38
695.39	53654.73
695.58	54318.28
695.77	54219.97
695.96	53963.98
696.15	54686.91
696.34	53775.56
696.53	54054.09
696.72	54473.92
696.91	54162.63
697.10	54181.06
697.29	54076.61
697.48	54283.46
697.67	54146.25
697.86	54121.67
698.05	53744.84
698.24	54168.77
698.43	53243.09
698.62	54176.97
698.81	53918.92
699.00	54039.75
699.19	53480.66
699.38	53595.34
699.57	53540.05
699.76	54041.80
699.95	53851.34
700.14	53818.57
700.32	53769.42
700.51	53730.51
700.70	54025.42
700.89	53939.40
701.08	53826.76
701.27	53390.55
701.46	53769.42
701.65	53230.80
701.84	53957.83
702.03	53863.63
702.22	53073.11
702.41	53572.81
702.60	53214.42
702.79	53599.44
702.98	53212.37
703.17	53157.08
703.35	53499.09
703.54	53425.36
703.73	53290.19
703.92	53138.65
704.11	53148.88
704.30	53097.69
704.49	53058.77
704.68	52577.50
704.87	52909.27
705.06	52792.54
705.25	52554.97
705.43	52774.11
705.62	53089.49
705.81	53052.63
706.00	53202.13
706.19	52399.33
706.38	52821.21
706.57	52557.02
706.76	52276.45
706.95	52561.12
707.14	52360.42
707.32	52337.89
707.51	52327.65
707.70	52372.70
707.89	52614.37
708.08	52638.94
708.27	52909.27
708.46	53114.07
708.65	52434.14
708.84	52421.86
709.02	52327.65
709.21	52747.48
709.40	52737.24
709.59	52651.23
709.78	52393.18
709.97	52761.82
710.16	52235.49
710.34	52466.91
710.53	52333.79
710.72	52055.27
710.91	52233.44
711.10	52477.15
711.29	52407.52
711.48	52337.89
711.66	52063.46
711.85	51809.51
712.04	52036.84
712.23	51913.96
712.42	51987.69
712.61	51700.97
712.80	52120.80
712.98	51903.72
713.17	51920.10
713.36	51952.87
713.55	51676.40
713.74	51639.53
713.93	51784.94
714.11	51981.54
714.30	51440.88
714.49	51166.45
714.68	51600.62
714.87	51594.48
715.06	51737.83
715.24	51451.12
715.43	51395.82
715.62	50988.28
715.81	51318.00
716.00	51180.79
716.18	51131.64
716.37	51199.22
716.56	50973.94
716.75	51764.46
716.94	51111.16
717.12	51193.07
717.31	51487.98
717.50	51000.57
717.69	50814.20
717.88	50904.31
718.06	51367.15
718.25	51186.93
718.44	50441.47
718.63	50619.64
718.82	50556.16
719.00	50681.08
719.19	50386.18
719.38	50455.81
719.57	50169.09
719.76	50005.25
719.94	50242.82
720.13	50029.83
720.32	50316.54
720.51	50382.08
720.69	50234.63
720.88	50066.69
721.07	50097.41
721.26	49360.14
721.44	50119.94
721.63	49841.42
721.82	49732.87
722.01	49460.49
722.20	49870.09
722.38	49261.84
722.57	49210.64
722.76	49788.17
722.95	49528.08
723.13	49216.78
723.32	49349.90
723.51	49050.90
723.70	48860.44
723.88	49519.88
724.07	49233.17
724.26	49038.61
724.44	48309.53
724.63	49124.63
724.82	49052.95
725.01	48907.54
725.19	48637.21
725.38	48844.05
725.57	49241.36
725.76	49241.36
725.94	48657.69
726.13	48448.80
726.32	48594.20
726.51	48471.32
726.69	48979.22
726.88	49173.78
727.07	48487.71
727.25	48661.79
727.44	48430.36
727.63	48469.28
727.82	48338.21
728.00	48442.65
728.19	48545.05
728.38	48577.82
728.56	48063.78
728.75	49212.69
728.94	48452.89
729.12	48409.89
729.31	48262.43
729.50	48239.90
729.69	48430.36
729.87	48461.08
730.06	48403.74
730.25	48297.25
730.43	48565.53
730.62	48225.57
730.81	48620.83
730.99	48719.13
731.18	48278.82
731.37	48620.83
731.55	48755.99
731.74	48471.32
731.93	48157.99
732.11	48176.42
732.30	48317.73
732.49	48121.12
732.67	48514.33
732.86	48092.45
733.05	48145.70
733.23	48063.78
733.42	48131.36
733.61	48272.67
733.79	48319.77
733.98	48659.74
734.17	48461.08
734.35	48121.12
734.54	47912.23
734.73	48381.21
734.91	47965.48
735.10	47590.70
735.29	48117.03
735.47	47813.93
735.66	47936.80
735.84	48047.39
736.03	47516.97
736.22	48375.07
736.40	47695.14
736.59	47750.44
736.78	47428.91
736.96	47633.71
737.15	47404.33
737.33	47744.30
737.52	47617.32
737.71	47322.41
737.89	47439.15
738.08	47207.73
738.27	47476.01
738.45	47807.78
738.64	47621.42
738.82	47404.33
739.01	47459.63
739.20	47310.13
739.38	47813.93
739.57	47766.82
739.75	47482.16
739.94	47166.77
740.13	47355.18
740.31	47095.09
740.50	47068.47
740.68	47617.32
740.87	47232.30
741.06	47592.75
741.24	47240.50
741.43	46791.99
741.61	47172.91
741.80	46603.58
741.99	46773.56
742.17	46961.97
742.36	46708.02
742.54	46718.26
742.73	46712.12
742.91	47203.63
743.10	46386.49
743.29	47019.31
743.47	46781.75
743.66	46669.11
743.84	46751.03
744.03	46724.41
744.21	47088.95
744.40	46890.29
744.59	46722.36
744.77	46339.39
744.96	46345.53
745.14	46462.27
745.33	46503.23
745.51	46775.61
745.70	46953.78
745.88	46157.12
746.07	46462.27
746.26	45913.41
746.44	46259.52
746.63	46032.19
746.81	46191.94
747.00	46083.39
747.18	46040.39
747.37	46198.08
747.55	46241.09
747.74	46597.43
747.92	46292.29
748.11	46355.77
748.29	46081.34
748.48	46036.29
748.66	45710.66
748.85	46193.98
749.03	46150.98
749.22	45690.18
749.41	45925.70
749.59	46159.17
749.78	45604.17
749.96	45401.42
750.15	45804.87
750.33	45946.18
750.52	45333.84
750.70	45632.84
750.89	45593.93
751.07	45323.60
751.26	45460.81
751.44	45391.18
751.63	45520.20
751.81	45458.76
752.00	45206.86
752.18	45352.27
752.37	45147.47
752.55	44991.83
752.74	44801.36
752.92	44868.95
753.10	44698.97
753.29	45315.40
753.47	45004.11
753.66	44707.16
753.84	45145.42
754.03	44975.44
754.21	44805.46
754.40	44770.64
754.58	44963.15
754.77	44326.24
754.95	44371.29
755.14	44891.48
755.32	44447.07
755.51	44340.57
755.69	44365.15
755.88	44430.68
756.06	44600.66
756.24	44477.79
756.43	44170.59
756.61	44639.57
756.80	44402.01
756.98	43971.94
757.17	44299.61
757.35	44076.38
757.54	44217.69
757.72	44748.12
757.90	44209.50
758.09	44039.52
758.27	44143.97
758.46	44127.58
758.64	43922.79
758.83	44266.84
759.01	44229.98
759.19	44033.38
759.38	43535.72
759.56	44219.74
759.75	43615.59
759.93	43619.69
760.12	43480.42
760.30	43263.34
760.48	43410.79
760.67	43906.40
760.85	44016.99
761.04	43648.36
761.22	43865.44
761.40	43535.72
761.59	43666.79
761.77	43042.16
761.96	43222.38
762.14	43009.39
762.32	42958.19
762.51	42804.59
762.69	43220.33
762.88	43029.87
763.06	42866.03
763.24	43210.09
763.43	43183.47
763.61	42964.34
763.80	43003.25
763.98	42767.73
764.16	42298.75
764.35	42571.13
764.53	42401.14
764.72	42446.20
764.90	42956.14
765.08	42579.32
765.27	42587.51
765.45	42368.38
765.63	42458.49
765.82	42257.79
766.00	42161.53
766.18	42171.77
766.37	42646.90
766.55	42374.52
766.74	42323.32
766.92	42425.72
767.10	42284.41
767.29	42153.34
767.47	42147.20
767.65	42120.57
767.84	41721.22
768.02	42192.25
768.20	41862.53
768.39	41547.14
768.57	41383.30
768.75	41977.22
768.94	41721.22
769.12	41796.99
769.30	41457.03
769.49	41794.95
769.67	41481.61
769.85	41151.88
770.04	41729.41
770.22	41485.70
770.40	40869.26
770.59	41106.83
770.77	41336.20
770.95	41409.93
771.14	40947.09
771.32	40877.46
771.50	40469.91
771.69	40609.17
771.87	40928.66
772.05	40832.40
772.24	40715.67
772.42	40824.21
772.60	40697.24
772.78	40754.58
772.97	40684.95
773.15	40631.70
773.33	40521.11
773.52	40414.62
773.70	40674.71
773.88	40867.22
774.07	40433.05
774.25	40611.22
774.43	41041.29
774.61	40496.53
774.80	40695.19
774.98	40730.00
775.16	40723.86
775.34	40832.40
775.53	40562.07
775.71	40885.65
775.89	40680.85
776.08	40555.93
776.26	40981.90
776.44	41442.70
776.62	40267.16
776.81	40670.61
776.99	40793.49
777.17	40820.11
777.35	40271.26
777.54	41121.16
777.72	40371.61
777.90	40512.92
778.08	40967.57
778.27	40621.46
778.45	40961.42
778.63	40928.66
778.81	40547.73
779.00	41520.52
779.18	40926.61
779.36	41276.81
779.54	40859.02
779.73	40725.91
779.91	41065.87
780.09	40947.09
780.27	41160.08
780.46	41377.16
780.64	41145.74
780.82	41301.39
781.00	41196.94
781.19	41153.93
781.37	41481.61
781.55	41309.58
781.73	42018.17
781.91	41667.97
782.10	41381.26
782.28	41317.77
782.46	41432.46
782.64	41616.77
782.82	41131.40
783.01	41274.76
783.19	41780.61
783.37	41602.44
783.55	41493.89
783.74	41751.94
783.92	41121.16
784.10	42030.46
784.28	41860.48
784.46	41786.75
784.64	41622.92
784.83	41518.47
785.01	41932.16
785.19	41493.89
785.37	41710.98
785.55	41614.72
785.74	41317.77
785.92	41252.23
786.10	41530.76
786.28	41719.17
786.46	41285.00
786.64	41018.77
786.83	41254.28
787.01	41338.25
787.19	41049.49
787.37	41321.87
787.55	41186.70
787.74	40850.83
787.92	40998.29
788.10	40701.33
788.28	40598.93
788.46	40973.71
788.64	40549.78
788.82	40906.13
789.01	40519.06
789.19	40736.15
789.37	40830.35
789.55	40877.46
789.73	40261.02
789.91	40605.08
790.09	40525.21
790.28	40156.57
790.46	40185.24
790.64	40433.05
790.82	39978.40
791.00	40138.14
791.18	39884.19
791.36	39880.10
791.55	39898.53
791.73	39996.83
791.91	39697.83
792.09	39755.17
792.27	39839.14
792.45	39818.66
792.63	39257.51
792.81	39191.98
793.00	39316.90
793.18	39003.56
793.36	39458.21
793.54	39597.48
793.72	38849.97
793.90	39159.21
794.08	38901.17
794.26	38997.42
794.44	38389.17
794.62	38606.26
794.81	38751.66
794.99	38204.86
795.17	38446.52
795.35	38575.54
795.53	38667.70
795.71	38569.40
795.89	37832.13
796.07	38264.25
796.25	37662.15
796.43	37879.23
796.61	37348.81
796.80	37660.10
796.98	37680.58
797.16	37361.09
797.34	37651.91
797.52	37416.39
797.70	37793.22
797.88	37336.52
798.06	37066.19
798.24	37141.96
798.42	37434.82
798.60	37174.73
798.78	37139.91
798.96	36941.26
799.14	36783.57
799.32	36617.68
799.51	36685.26
799.69	36662.74
799.87	36615.63
800.05	36277.72
800.23	36320.73
800.41	36091.35
800.59	36339.16
800.77	35960.28
800.95	35978.72
801.13	35864.03
801.31	35878.36
801.49	35964.38
801.67	35388.90
801.85	35778.01
802.03	35491.30
802.21	35388.90
802.39	35460.58
802.57	35390.95
802.75	35345.89
802.93	35276.26
803.11	34975.21
803.29	35257.83
803.47	34956.78
803.65	34856.43
803.83	34944.49
804.01	34754.03
804.19	34543.09
804.37	34330.10
804.55	34498.03
804.73	34428.40
804.91	34475.51
805.09	34328.05
805.27	34311.67
805.45	34516.47
805.63	34418.16
805.81	34125.30
805.99	34223.61
806.17	33768.96
806.35	33695.23
806.53	33838.59
806.71	33936.89
806.89	33938.94
807.07	33637.89
807.25	33707.52
807.43	33275.40
807.61	33803.77
807.79	33242.63
807.97	33224.20
808.15	33551.87
808.33	33009.16
808.51	32767.50
808.69	33127.94
808.87	33058.31
809.05	32839.18
809.23	32824.84
809.41	32523.79
809.59	32284.18
809.77	32632.33
809.95	32448.02
810.13	32749.07
810.31	32028.18
810.49	32407.06
810.67	32194.07
810.84	32388.63
811.02	32374.29
811.20	31782.43
811.38	32142.87
811.56	32044.57
811.74	31880.73
811.92	31866.39
812.10	32065.05
812.28	32073.24
812.46	31739.42
812.64	31843.87
812.82	31591.97
813.00	31741.47
813.18	31571.49
813.36	31663.64
813.53	31450.66
813.71	31323.68
813.89	31323.68
814.07	31145.51
814.25	31256.10
814.43	31014.44
814.61	30981.67
814.79	30977.58
814.97	30852.65
815.15	30965.29
815.33	30907.94
815.50	30289.46
815.68	30674.48
815.86	30774.83
816.04	30539.31
816.22	30365.23
816.40	30647.85
816.58	30250.55
816.76	30332.47
816.94	30238.26
817.11	30223.92
817.29	30115.38
817.47	30320.18
817.65	30037.56
817.83	30008.89
818.01	29771.32
818.19	29795.90
818.37	29818.42
818.54	29894.20
818.72	29556.28
818.90	29851.19
819.08	29632.06
819.26	29601.34
819.44	29664.83
819.62	29544.00
819.80	29820.47
819.97	29541.95
820.15	29421.12
820.33	29353.54
820.51	29621.82
820.69	29333.06
820.87	29107.78
821.05	29548.09
821.22	29308.48
821.40	29539.90
821.58	28804.68
821.76	28722.76
821.94	28866.12
822.12	29005.38
822.29	29042.24
822.47	28802.63
822.65	29193.79
822.83	28872.26
823.01	28788.30
823.19	28479.05
823.36	28683.85
823.54	28448.33
823.72	28282.45
823.90	28438.09
824.08	28411.47
824.25	28255.82
824.43	28423.76
824.61	28292.69
824.79	28319.31
824.97	28198.48
825.15	28178.00
825.32	28036.69
825.50	27926.10
825.68	27729.50
825.86	28192.34
826.04	27735.64
826.21	27840.09
826.39	27874.90
826.57	27864.66
826.75	27326.05
826.93	27657.82
827.10	27450.97
827.28	27737.69
827.46	27807.32
827.64	27790.94
827.81	27584.09
827.99	27526.75
828.17	27258.46
828.35	27500.12
828.53	27379.29
828.70	27295.33
828.88	27407.97
829.06	27283.04
829.24	27498.08
829.41	27526.75
829.59	27465.31
829.77	27205.22
829.95	27186.79
830.12	26955.36
830.30	27059.81
830.48	26789.48
830.66	27131.49
830.84	26816.10
831.01	26588.78
831.19	26467.95
831.37	26891.88
831.55	26775.14
831.72	26625.64
831.90	26852.97
832.08	26785.38
832.25	26799.72
832.43	26662.51
832.61	26472.04
832.79	26615.40
832.96	26539.63
833.14	26650.22
833.32	26599.02
833.50	26367.60
833.67	26470.00
833.85	26295.92
834.03	26463.85
834.20	26586.73
834.38	26498.67
834.56	26308.21
834.74	26261.10
834.91	26041.97
835.09	26228.34
835.27	25720.44
835.44	25882.23
835.62	25636.47
835.80	25894.52
835.98	26027.63
836.15	25851.51
836.33	25472.64
836.51	25798.26
836.68	25642.62
836.86	25441.92
837.04	25613.95
837.21	25691.77
837.39	25681.53
837.57	25575.03
837.75	25820.79
837.92	25495.16
838.10	25173.63
838.28	25243.26
838.45	25161.34
838.63	25335.42
838.81	25505.40
838.98	25065.09
839.16	25171.58
839.34	25208.45
839.51	25089.67
839.69	25013.89
839.87	24819.33
840.04	24864.39
840.22	25198.21
840.40	25312.89
840.57	24807.05
840.75	25161.34
840.93	24757.89
841.10	24956.55
841.28	25020.03
841.46	24743.56
841.63	24936.07
841.81	24931.97
841.98	24673.93
842.16	24612.49
842.34	24659.59
842.51	24315.53
842.69	25034.37
842.87	24247.95
843.04	24544.91
843.22	24413.84
843.40	24698.50
843.57	24166.03
843.75	24579.72
843.92	24618.63
844.10	24596.10
844.28	24450.70
844.45	24446.60
844.63	24368.78
844.81	24116.88
844.98	24401.55
845.16	24163.98
845.33	24204.94
845.51	24051.34
845.69	23967.38
845.86	23918.23
846.04	23770.77
846.21	23821.97
846.39	23746.20
846.57	23848.60
846.74	23815.83
846.92	23856.79
847.09	24071.82
847.27	23729.81
847.45	23430.81
847.62	23959.19
847.80	23867.03
847.97	23600.79
848.15	23692.95
848.32	23606.94
848.50	23695.00
848.68	23314.08
848.85	23352.99
849.03	23070.37
849.20	23637.66
849.38	23332.51
849.56	23658.14
849.73	23156.38
849.91	23496.35
850.08	23533.21
850.26	23119.52
850.43	23350.94
850.61	23420.57
850.78	22865.57
850.96	22789.80
851.14	22941.35
851.31	23314.08
851.49	22974.11
851.66	22992.55
851.84	22855.33
852.01	23060.13
852.19	22896.29
852.36	22777.51
852.54	22759.08
852.71	22988.45
852.89	22947.49
853.07	22808.23
853.24	22793.89
853.42	22714.02
853.59	22808.23
853.77	23006.88
853.94	23236.25
854.12	23025.31
854.29	22304.43
854.47	22507.18
854.64	22505.13
854.82	22654.63
854.99	22388.39
855.17	22537.90
855.34	22572.71
855.52	22435.50
855.69	22650.53
855.87	22589.10
856.04	22277.80
856.22	22181.55
856.39	22142.64
856.57	22361.77
856.74	22019.76
856.92	22136.49
857.09	21876.40
857.27	22212.27
857.44	22066.86
857.62	22107.82
857.79	22017.71
857.97	22085.30
858.14	21907.12
858.32	22134.45
858.49	21999.28
858.67	22030.00
858.84	21769.91
859.02	21749.43
859.19	21755.57
859.37	21599.93
859.54	21505.72
859.72	22005.42
859.89	21798.58
860.06	21814.96
860.24	21524.15
860.41	21728.95
860.59	21450.42
860.76	21458.62
860.94	21409.47
861.11	21618.36
861.29	21612.21
861.46	21282.49
861.64	21286.59
861.81	21358.27
861.98	21122.75
862.16	21169.85
862.33	21126.85
862.51	21087.93
862.68	21231.29
862.86	21075.65
863.03	21132.99
863.21	20987.58
863.38	20901.57
863.55	20664.00
863.73	21075.65
863.90	21135.04
864.08	20858.56
864.25	20934.34
864.43	20766.40
864.60	20762.31
864.77	20772.55
864.95	20850.37
865.12	20371.15
865.30	20911.81
865.47	20711.11
865.64	20541.13
865.82	20524.74
865.99	20629.19
866.17	20754.12
866.34	20776.64
866.51	20268.75
866.69	20741.83
866.86	20592.33
867.04	20545.22
867.21	20549.32
867.38	20201.16
867.56	20242.12
867.73	20217.55
867.91	19900.11
868.08	20074.19
868.25	20068.05
868.43	19939.02
868.60	19967.70
868.78	20076.24
868.95	20356.81
869.12	19979.98
869.30	19949.26
869.47	19779.28
869.64	19805.91
869.82	19787.47
869.99	19828.43
870.16	19734.23
870.34	19744.47
870.51	19848.91
870.69	19844.82
870.86	19861.20
871.03	19629.78
871.21	19527.38
871.38	19680.98
871.55	19285.72
871.73	19504.85
871.90	19556.05
872.07	19427.03
872.25	19109.60
872.42	19328.73
872.59	19269.34
872.77	19361.50
872.94	19265.24
873.11	19113.69
873.29	19164.89
873.46	18947.81
873.63	19195.61
873.81	18865.89
873.98	18661.09
874.15	18861.79
874.33	18743.01
874.50	18894.56
874.67	18894.56
874.85	18775.78
875.02	18452.20
875.19	18513.64
875.37	18401.00
875.54	18427.62
875.71	18632.42
875.88	18419.43
876.06	18265.83
876.23	18370.28
876.40	18231.02
876.58	18394.86
876.75	18499.30
876.92	18347.75
877.10	18390.76
877.27	18038.51
877.44	18349.80
877.61	18228.97
877.79	17954.54
877.96	17895.15
878.13	18071.28
878.31	18015.98
878.48	17944.30
878.65	17880.82
878.82	17829.62
879.00	18001.65
879.17	17747.70
879.34	17831.66
879.51	17596.15
879.69	17436.41
879.86	17497.84
880.03	17499.89
880.21	17491.70
880.38	17667.83
880.55	17952.49
880.72	17428.21
880.90	17542.90
881.07	17327.86
881.24	17712.88
881.41	17598.20
881.59	17436.41
881.76	17481.46
881.93	17358.58
882.10	17118.97
882.28	17377.01
882.45	17321.72
882.62	17123.07
882.79	17291.00
882.96	17108.73
883.14	16959.23
883.31	17067.77
883.48	16998.14
883.65	17364.73
883.83	17217.27
884.00	17106.68
884.17	17063.68
884.34	17006.33
884.51	17008.38
884.69	16940.80
884.86	17100.54
885.03	17073.92
885.20	16760.58
885.38	17032.96
885.55	16926.46
885.72	16893.69
885.89	16531.20
886.06	16623.36
886.24	16793.34
886.41	16781.06
886.58	17010.43
886.75	16637.70
886.92	16617.22
887.10	16617.22
887.27	16758.53
887.44	16645.89
887.61	16834.30
887.78	16779.01
887.95	16676.61
888.13	16437.00
888.30	16492.29
888.47	16361.22
888.64	16400.13
888.81	16195.34
888.99	16387.85
889.16	16199.43
889.33	16168.71
889.50	16283.40
889.67	16144.14
889.84	16164.62
890.01	16123.66
890.19	16164.62
890.36	16279.30
890.53	15912.72
890.70	15859.47
890.87	16109.32
891.04	15957.77
891.22	15742.74
891.39	15875.85
891.56	15814.41
891.73	15943.44
891.90	15933.20
892.07	15879.95
892.24	15933.20
892.42	15765.26
892.59	15800.08
892.76	15726.35
892.93	15699.73
893.10	15927.05
893.27	15742.74
893.44	15310.61
893.61	15429.40
893.79	15812.37
893.96	15777.55
894.13	15748.88
894.30	15566.61
894.47	15675.15
894.64	15521.56
894.81	15494.93
894.98	15554.32
895.15	15685.39
895.33	15353.62
895.50	15443.73
895.67	15843.09
895.84	15501.08
896.01	15398.68
896.18	15435.54
896.35	15873.81
896.52	15478.55
896.69	15355.67
896.86	15327.00
897.04	15630.10
897.21	15365.91
897.38	15322.90
897.55	15464.21
897.72	15539.99
897.89	15200.02
898.06	15505.17
898.23	15396.63
898.40	15351.57
898.57	15157.02
898.74	15451.92
898.91	15257.37
899.08	15458.07
899.26	15197.98
899.43	15271.70
899.60	15396.63
899.77	15193.88
899.94	15355.67
900.11	15019.80
900.28	15505.17
900.45	15183.64
900.62	15286.04
900.79	15509.27
900.96	15191.83
901.13	15406.87
901.30	15335.19
901.47	15204.12
901.64	15177.50
901.81	15337.24
901.98	15255.32
902.15	15396.63
902.32	15312.66
902.49	15245.08
902.66	15308.57
902.83	15343.38
903.01	15243.03
903.18	15306.52
903.35	15312.66
903.52	15157.02
903.69	15372.05
903.86	15376.15
904.03	15306.52
904.20	15230.74
904.37	15468.31
904.54	15054.62
904.71	15300.37
904.88	14999.32
905.05	15200.02
905.22	15116.06
905.39	15197.98
905.56	15159.06
905.73	15275.80
905.90	15146.78
906.07	15071.00
906.24	15034.14
906.41	14989.08
906.58	15050.52
906.75	15167.26
906.92	14675.74
907.09	15058.71
907.26	15075.10
907.43	15105.82
907.60	15073.05
907.77	15193.88
907.93	14960.41
908.10	15056.67
908.27	15353.62
908.44	14864.16
908.61	14972.70
908.78	14829.34
908.95	15208.22
909.12	15171.35
909.29	14960.41
909.46	14933.79
909.63	14993.18
909.80	14993.18
909.97	15050.52
910.14	14958.36
910.31	14923.55
910.48	14739.23
910.65	14739.23
910.82	14712.61
910.99	14868.25
911.16	14671.65
911.33	15071.00
911.50	14784.29
911.66	14794.53
911.83	14747.42
912.00	14841.63
912.17	14690.08
912.34	14718.75
912.51	14780.19
912.68	14552.87
912.85	14606.11
913.02	14636.83
913.19	14665.50
913.36	14626.59
913.53	14798.62
913.70	14325.54
913.86	14497.57
914.03	14397.22
914.20	14423.84
914.37	14466.85
914.54	14288.68
914.71	14321.45
914.88	14343.97
915.05	14108.46
915.22	14112.55
915.39	14225.19
915.55	14155.56
915.72	14059.31
915.89	14137.13
916.06	14001.96
916.23	13901.61
916.40	13946.67
916.57	13899.56
916.74	13831.98
916.91	13889.32
917.07	13821.74
917.24	13737.77
917.41	13637.42
917.58	13868.84
917.75	13778.73
917.92	13479.73
918.09	13725.49
918.26	13666.10
918.42	13659.95
918.59	13627.18
918.76	13471.54
918.93	13547.31
919.10	13328.18
919.27	13201.21
919.44	13442.87
919.60	13629.23
919.77	13291.32
919.94	13164.34
920.11	13145.91
920.28	13197.11
920.45	12894.01
920.61	13266.74
920.78	13008.70
920.95	13098.81
921.12	13008.70
921.29	12914.49
921.46	13037.37
921.62	12881.72
921.79	12932.92
921.96	12928.83
922.13	12855.10
922.30	12496.71
922.47	12693.31
922.63	12435.27
922.80	12595.01
922.97	12455.75
923.14	12349.25
923.31	12463.94
923.47	12447.55
923.64	12533.57
923.81	12177.22
923.98	12214.09
924.15	12121.93
924.32	12298.05
924.48	12191.56
924.65	12318.53
924.82	12005.19
924.99	12033.86
925.15	11841.36
925.32	12160.84
925.49	11767.63
925.66	11874.12
925.83	11722.57
925.99	11683.66
926.16	11767.63
926.33	11771.72
926.50	11589.46
926.67	11654.99
926.83	11280.21
927.00	11409.23
927.17	11462.48
927.34	11288.40
927.50	11460.43
927.67	11308.88
927.84	11183.96
928.01	11370.32
928.17	11046.74
928.34	11206.48
928.51	11042.65
928.68	10833.75
928.84	10938.20
929.01	10616.67
929.18	10784.60
929.35	10751.84
929.51	10790.75
929.68	10598.24
929.85	10475.36
930.02	10604.38
930.18	10514.27
930.35	10284.90
930.52	10594.14
930.69	10583.90
930.85	10424.16
931.02	10239.84
931.19	10270.56
931.36	10180.45
931.52	10233.70
931.69	10084.20
931.86	10178.40
932.02	10186.60
932.19	10024.81
932.36	10018.66
932.53	10022.76
932.69	9815.91
932.86	10125.16
933.03	9865.07
933.19	9527.15
933.36	9797.48
933.53	9856.87
933.70	9543.53
933.86	9559.92
934.03	9478.00
934.20	9478.00
934.36	9492.34
934.53	9185.14
934.70	9201.52
934.86	9265.01
935.03	9121.65
935.20	8927.10
935.36	9166.71
935.53	8875.90
935.70	9049.97
935.86	8847.22
936.03	8679.29
936.20	8644.48
936.36	8699.77
936.53	8499.07
936.70	8488.83
936.86	8660.86
937.03	8275.84
937.20	8155.01
937.36	8390.53
937.53	8046.47
937.70	7987.08
937.86	7876.49
938.03	7815.05
938.20	7901.06
938.36	7724.94
938.53	7657.36
938.70	7589.77
938.86	7464.85
939.03	7360.40
939.20	7284.62
939.36	7282.58
939.53	7272.34
939.70	7266.19
939.86	7063.44
940.03	6981.53
940.19	6733.72
940.36	6866.84
940.53	6850.46
940.69	6584.22
940.86	6664.09
941.03	6586.27
941.19	6356.90
941.36	6367.13
941.52	6375.33
941.69	6225.82
941.86	6096.80
942.02	6102.95
942.19	6188.96
942.35	6254.50
942.52	5943.21
942.69	5971.88
942.85	5978.02
943.02	5838.76
943.18	5957.54
943.35	5830.57
943.52	5892.01
943.68	5674.92
943.85	5705.64
944.01	5623.72
944.18	5607.34
944.35	5609.39
944.51	5453.74
944.68	5541.80
944.84	5523.37
945.01	5408.69
945.17	5484.46
945.34	5480.36
945.51	5449.64
945.67	5404.59
945.84	5480.36
946.00	5304.24
946.17	5463.98
946.33	5302.19
946.50	5337.01
946.67	5466.03
946.83	5300.14
947.00	5377.97
947.16	5420.97
947.33	5185.46
947.49	5248.94
947.66	5216.18
947.82	5316.53
947.99	5277.62
948.16	5357.49
948.32	5345.20
948.49	5361.58
948.65	5308.34
948.82	5312.43
948.98	5273.52
949.15	5134.26
949.31	5300.14
949.48	5312.43
949.64	5283.76
949.81	5322.67
949.97	5345.20
950.14	5339.05
950.30	5107.63
950.47	5328.81
950.63	5236.66
950.80	5271.47
950.96	5214.13
951.13	5302.19
951.30	5382.06
951.46	5373.87
951.63	5363.63
951.79	5402.54
951.96	5406.64
952.12	5283.76
952.29	5447.60
952.45	5431.21
952.62	5308.34
952.78	5480.36
952.94	5429.17
953.11	5490.60
953.27	5324.72
953.44	5672.87
953.60	5285.81
953.77	5560.24
953.93	5392.30
954.10	5382.06
954.26	5361.58
954.43	5480.36
954.59	5537.71
954.76	5582.76
954.92	5535.66
955.09	5482.41
955.25	5412.78
955.42	5480.36
955.58	5572.52
955.75	5574.57
955.91	5328.81
956.07	5359.53
956.24	5439.40
956.40	5576.62
956.57	5525.42
956.73	5511.08
956.90	5400.49
957.06	5468.08
957.23	5406.64
957.39	5435.31
957.56	5414.83
957.72	5443.50
957.88	5564.33
958.05	5574.57
958.21	5517.23
958.38	5396.40
958.54	5406.64
958.71	5625.77
958.87	5425.07
959.03	5349.29
959.20	5433.26
959.36	5369.77
959.53	5330.86
959.69	5373.87
959.85	5482.41
960.02	5250.99
960.18	5496.75
960.35	5369.77
960.51	5463.98
960.68	5457.84
960.84	5410.73
961.00	5320.62
961.17	5488.56
961.33	5437.36
961.50	5341.10
961.66	5357.49
961.82	5314.48
961.99	5488.56
962.15	5328.81
962.31	5212.08
962.48	5244.85
962.64	5564.33
962.81	5394.35
962.97	5392.30
963.13	5353.39
963.30	5449.64
963.46	5203.89
963.62	5312.43
963.79	5283.76
963.95	5431.21
964.12	5267.38
964.28	5300.14
964.44	5275.57
964.61	5357.49
964.77	5369.77
964.93	5472.17
965.10	5375.92
965.26	5380.01
965.42	5285.81
965.59	5250.99
965.75	5296.05
965.92	5259.18
966.08	5306.29
966.24	5314.48
966.41	5273.52
966.57	5320.62
966.73	5124.02
966.90	5298.10
967.06	5238.70
967.22	5343.15
967.39	5380.01
967.55	5246.90
967.71	5283.76
967.88	5173.17
968.04	5121.97
968.20	5230.51
968.37	5121.97
968.53	5070.77
968.69	5195.70
968.85	5136.31
969.02	5134.26
969.18	5197.74
969.34	5107.63
969.51	5089.20
969.67	5150.64
969.83	4976.56
970.00	5124.02
970.16	5115.83
970.32	5175.22
970.48	5132.21
970.65	5058.48
970.81	5013.43
970.97	5103.54
971.14	5115.83
971.30	5173.17
971.46	5074.87
971.63	4943.80
971.79	5205.94
971.95	5025.72
972.11	4839.35
972.28	4802.49
972.44	4984.76
972.60	4892.60
972.76	4960.18
972.93	4966.32
973.09	4935.60
973.25	4833.21
973.42	4728.76
973.58	4935.60
973.74	4906.93
973.90	4960.18
974.07	4839.35
974.23	4876.21
974.39	4878.26
974.55	4804.53
974.72	4765.62
974.88	4681.66
975.04	4878.26
975.20	4800.44
975.37	4790.20
975.53	4720.57
975.69	4825.01
975.85	4749.24
976.01	4675.51
976.18	4782.01
976.34	4655.03
976.50	4695.99
976.66	4771.77
976.83	4599.74
976.99	4708.28
977.15	4704.18
977.31	4589.50
977.47	4730.81
977.64	4618.17
977.80	4616.12
977.96	4675.51
978.12	4546.49
978.29	4620.22
978.45	4521.92
978.61	4609.98
978.77	4599.74
978.93	4607.93
979.10	4677.56
979.26	4468.67
979.42	4491.20
979.58	4282.30
979.74	4515.77
979.91	4573.11
980.07	4378.56
980.23	4513.72
980.39	4374.46
980.55	4462.52
980.71	4409.28
980.88	4466.62
981.04	4427.71
981.20	4351.93
981.36	4255.68
981.52	4319.17
981.68	4259.78
981.85	4345.79
982.01	4194.24
982.17	4237.25
982.33	4403.13
982.49	4415.42
982.65	4380.61
982.82	4323.26
982.98	4306.88
983.14	4274.11
983.30	4413.37
983.46	4337.60
983.62	4194.24
983.79	4270.01
983.95	4204.48
984.11	4241.34
984.27	4308.93
984.43	4200.38
984.59	4087.75
984.75	4231.10
984.91	4040.64
985.08	4116.42
985.24	4059.07
985.40	4091.84
985.56	4159.42
985.72	4188.10
985.88	4116.42
986.04	3973.06
986.20	4065.22
986.37	4165.57
986.53	4063.17
986.69	4120.51
986.85	4085.70
987.01	4003.78
987.17	3975.11
987.33	3928.00
987.49	3915.72
987.65	4100.03
987.82	3977.16
987.98	3850.18
988.14	4020.16
988.30	3979.20
988.46	3784.65
988.62	3940.29
988.78	3958.72
988.94	3880.90
989.10	3780.55
989.26	3770.31
989.42	3862.47
989.59	3862.47
989.75	3876.80
989.91	3833.80
990.07	3676.10
990.23	3766.21
990.39	3729.35
990.55	3788.74
990.71	3708.87
990.87	3882.95
991.03	3846.09
991.19	3690.44
991.35	3694.54
991.51	3807.17
991.67	3741.64
991.83	3710.92
992.00	3796.93
992.16	3811.27
992.32	3661.77
992.48	3725.26
992.64	3559.37
992.80	3547.08
992.96	3667.91
993.12	3655.62
993.28	3672.01
993.44	3577.80
993.60	3522.51
993.76	3674.06
993.92	3729.35
994.08	3551.18
994.24	3706.82
994.40	3624.90
994.56	3614.66
994.72	3446.73
994.88	3499.98
995.04	3489.74
995.20	3520.46
995.36	3418.06
995.52	3512.27
995.68	3524.55
995.84	3461.07
996.00	3524.55
996.16	3469.26
996.32	3459.02
996.48	3448.78
996.64	3508.17
996.80	3502.03
996.96	3452.88
997.12	3454.92
997.28	3399.63
997.44	3364.81
997.60	3407.82
997.76	3426.25
997.92	3446.73
998.08	3360.72
998.24	3354.57
998.40	3381.20
998.56	3463.12
998.72	3188.69
998.88	3336.14
999.04	3301.33
999.20	3284.94
999.36	3356.62
999.52	3391.44
999.68	3385.29
999.84	3272.65
1000.00	3332.05
1000.16	3286.99
1000.32	3221.45
1000.48	3354.57
1000.64	3207.12
1000.80	3200.98
1000.95	3147.73
1001.11	3180.50
1001.27	3157.97
1001.43	3143.63
1001.59	3213.26
1001.75	3223.50
1001.91	3223.50
1002.07	3157.97
1002.23	3067.86
1002.39	3024.85
1002.55	3160.02
1002.71	3055.57
1002.87	3067.86
1003.03	3080.14
1003.19	2953.17
1003.34	3198.93
1003.50	3069.91
1003.66	3149.78
1003.82	3117.01
1003.98	3037.14
1004.14	3162.06
1004.30	2977.75
1004.46	3014.61
1004.62	2910.16
1004.78	3043.28
1004.94	3051.47
1005.09	3035.09
1005.25	2904.02
1005.41	2912.21
1005.57	3004.37
1005.73	2877.40
1005.89	3030.99
1006.05	2983.89
1006.21	3030.99
1006.37	2863.06
1006.52	2926.55
1006.68	2797.53
1006.84	3030.99
1007.00	2856.92
1007.16	3016.66
1007.32	2854.87
1007.48	2789.33
1007.64	2822.10
1007.79	2854.87
1007.95	2830.29
1008.11	2910.16
1008.27	2871.25
1008.43	2813.91
1008.59	2809.81
1008.75	2809.81
1008.91	2934.74
1009.06	2809.81
1009.22	2777.05
1009.38	2785.24
1009.54	2809.81
1009.70	2721.75
1009.86	2916.31
1010.01	2818.00
1010.17	2758.61
1010.33	2797.53
1010.49	2781.14
1010.65	2715.61
1010.81	2699.22
1010.96	2748.37
1011.12	2734.04
1011.28	2590.68
1011.44	2846.68
1011.60	2723.80
1011.76	2639.83
1011.91	2754.52
1012.07	2559.96
1012.23	2543.58
1012.39	2707.41
1012.55	2738.13
1012.71	2641.88
1012.86	2529.24
1013.02	2678.74
1013.18	2664.41
1013.34	2629.59
1013.50	2617.30
1013.65	2717.65
1013.81	2553.82
1013.97	2572.25
1014.13	2674.65
1014.29	2656.22
1014.44	2656.22
1014.60	2545.63
1014.76	2576.34
1014.92	2480.09
1015.07	2598.87
1015.23	2654.17
1015.39	2539.48
1015.55	2576.34
1015.71	2631.64
1015.86	2549.72
1016.02	2490.33
1016.18	2387.93
1016.34	2549.72
1016.49	2498.52
1016.65	2609.11
1016.81	2486.23
1016.97	2514.91
1017.12	2484.19
1017.28	2457.56
1017.44	2349.02
1017.60	2435.03
1017.75	2453.47
1017.91	2418.65
1018.07	2428.89
1018.23	2533.34
1018.38	2418.65
1018.54	2469.85
1018.70	2455.51
1018.86	2334.68
1019.01	2426.84
1019.17	2443.23
1019.33	2504.67
1019.49	2392.03
1019.64	2459.61
1019.80	2394.08
1019.96	2377.69
1020.12	2410.46
1020.27	2226.14
1020.43	2486.23
1020.59	2455.51
1020.74	2322.40
1020.90	2338.78
1021.06	2224.09
1021.22	2310.11
1021.37	2222.05
1021.53	2342.88
1021.69	2377.69
1021.84	2301.92
1022.00	2330.59
1022.16	2310.11
1022.31	2324.44
1022.47	2357.21
1022.63	2330.59
1022.79	2136.03
1022.94	2195.42
1023.10	2359.26
1023.26	2293.72
1023.41	2217.95
1023.57	2232.29
1023.73	2285.53
1023.88	2287.58
1024.04	2267.10
1024.20	2170.85
1024.35	2138.08
1024.51	2308.06
1024.67	2301.92
1024.82	2314.20
1024.98	2133.98
1025.14	2183.13
1025.29	2201.57
1025.45	2277.34
1025.61	2150.37
1025.76	2209.76
1025.92	2179.04
1026.08	2187.23
1026.23	2215.90
1026.39	2295.77
1026.55	2217.95
1026.70	2224.09
1026.86	2125.79
1027.02	2207.71
1027.17	2205.66
1027.33	2138.08
1027.48	2105.31
1027.64	2215.90
1027.80	2146.27
1027.95	2136.03
1028.11	2136.03
1028.27	2154.46
1028.42	2129.89
1028.58	2133.98
1028.73	2039.78
1028.89	2027.49
1029.05	2217.95
1029.20	2164.70
>>>>>End Processed Spectral Data<<<<<
