SpectraSuite Data File
++++++++++++++++++++++++++++++++++++
Date: Fri Jun 02 14:57:16 CEST 2017
User: INFO_000
Dark Spectrum Present: No
Reference Spectrum Present: No
Number of Sampled Component Spectra: 1
Spectrometers: USB4H00879
Integration Time (usec): 80000 (USB4H00879)
Spectra Averaged: 1 (USB4H00879)
Boxcar Smoothing: 0 (USB4H00879)
Correct for Electrical Dark: No (USB4H00879)
Strobe/Lamp Enabled: No (USB4H00879)
Correct for Detector Non-linearity: No (USB4H00879)
Correct for Stray Light: No (USB4H00879)
Number of Pixels in Processed Spectrum: 3648
>>>>>Begin Processed Spectral Data<<<<<
345.13	1312.75
345.34	1312.75
345.56	1312.75
345.78	1310.70
345.99	1269.74
346.21	1748.97
346.42	1652.71
346.64	1695.72
346.86	1818.60
347.07	1667.05
347.29	1683.43
347.50	1621.99
347.72	1665.00
347.94	1746.92
348.15	1550.31
348.37	1650.66
348.59	1656.81
348.80	1595.37
349.02	1615.85
349.23	1771.49
349.45	1718.25
349.67	1796.07
349.88	1689.57
350.10	1869.80
350.31	1728.49
350.53	1769.44
350.75	1853.41
350.96	1644.52
351.18	1769.44
351.39	1753.06
351.61	1679.33
351.82	1816.55
352.04	1814.50
352.26	1742.82
352.47	1718.25
352.69	1812.45
352.90	1630.18
353.12	1734.63
353.34	1699.81
353.55	1839.08
353.77	1705.96
353.98	1705.96
354.20	1767.40
354.41	1806.31
354.63	1828.84
354.85	1898.47
355.06	1785.83
355.28	1646.57
355.49	1734.63
355.71	1757.16
355.92	1746.92
356.14	1798.12
356.35	1728.49
356.57	1740.77
356.79	1808.36
357.00	1746.92
357.22	1871.84
357.43	1687.53
357.65	1744.87
357.86	1665.00
358.08	1708.01
358.29	1816.55
358.51	1802.21
358.72	1806.31
358.94	1708.01
359.16	1699.81
359.37	1740.77
359.59	1787.88
359.80	1736.68
360.02	1761.25
360.23	1789.92
360.45	1824.74
360.66	1744.87
360.88	1667.05
361.09	1720.29
361.31	1769.44
361.52	1708.01
361.74	1869.80
361.95	1826.79
362.17	1738.73
362.38	1824.74
362.60	1849.32
362.81	1804.26
363.03	1714.15
363.24	1753.06
363.46	1855.46
363.67	1820.64
363.89	1777.64
364.10	1812.45
364.32	1757.16
364.53	1746.92
364.75	1660.90
364.96	1769.44
365.18	1816.55
365.39	1814.50
365.61	1748.97
365.82	1910.75
366.04	1791.97
366.25	1703.91
366.47	1796.07
366.68	1720.29
366.90	1830.88
367.11	1755.11
367.33	1800.16
367.54	1839.08
367.76	1806.31
367.97	1832.93
368.19	1763.30
368.40	1884.13
368.62	1773.54
368.83	1748.97
369.05	1798.12
369.26	1658.85
369.48	1691.62
369.69	1699.81
369.91	1740.77
370.12	1736.68
370.33	1871.84
370.55	1667.05
370.76	1746.92
370.98	1871.84
371.19	1716.20
371.41	1826.79
371.62	1787.88
371.84	1757.16
372.05	1912.80
372.27	1695.72
372.48	1826.79
372.69	1740.77
372.91	1877.99
373.12	1804.26
373.34	1720.29
373.55	1755.11
373.77	1847.27
373.98	1839.08
374.20	1943.52
374.41	1873.89
374.62	1777.64
374.84	1865.70
375.05	1796.07
375.27	1908.71
375.48	1804.26
375.70	1775.59
375.91	1843.17
376.12	1912.80
376.34	1773.54
376.55	1781.73
376.77	1871.84
376.98	1769.44
377.19	1673.19
377.41	1791.97
377.62	1824.74
377.84	1902.56
378.05	1974.24
378.27	1828.84
378.48	1863.65
378.69	1945.57
378.91	2000.87
379.12	1923.04
379.34	1769.44
379.55	1880.04
379.76	1890.28
379.98	1812.45
380.19	1865.70
380.41	1791.97
380.62	1847.27
380.83	1824.74
381.05	1789.92
381.26	1998.82
381.47	1837.03
381.69	1851.36
381.90	1945.57
382.12	1820.64
382.33	1787.88
382.54	1837.03
382.76	1906.66
382.97	1980.39
383.19	1855.46
383.40	2045.92
383.61	1861.60
383.83	1777.64
384.04	1834.98
384.25	1849.32
384.47	1978.34
384.68	1783.78
384.89	1900.52
385.11	1923.04
385.32	1957.86
385.54	1884.13
385.75	1851.36
385.96	1908.71
386.18	1894.37
386.39	1994.72
386.60	1806.31
386.82	1972.19
387.03	1863.65
387.24	1984.48
387.46	1923.04
387.67	2019.30
387.88	2082.78
388.10	1834.98
388.31	1918.95
388.52	2113.50
388.74	2019.30
388.95	2064.35
389.16	1947.62
389.38	1841.12
389.59	1988.58
389.80	1974.24
390.02	2027.49
390.23	2076.64
390.44	1855.46
390.66	1994.72
390.87	1873.89
391.08	1968.10
391.30	2125.79
391.51	2119.65
391.72	2066.40
391.94	2150.37
392.15	2265.05
392.36	1900.52
392.58	2043.87
392.79	2039.78
393.00	2228.19
393.22	2121.70
393.43	2176.99
393.64	2220.00
393.85	2138.08
394.07	2109.41
394.28	2260.96
394.49	2250.72
394.71	2461.66
394.92	2271.20
395.13	1994.72
395.35	2174.94
395.56	1992.67
395.77	2308.06
395.98	2203.61
396.20	2238.43
396.41	2265.05
396.62	2332.64
396.84	2346.97
397.05	2103.26
397.26	2220.00
397.47	2392.03
397.69	2328.54
397.90	2463.71
398.11	2398.17
398.32	2252.77
398.54	2312.16
398.75	2328.54
398.96	2332.64
399.18	2371.55
399.39	2357.21
399.60	2547.67
399.81	2285.53
400.03	2471.90
400.24	2547.67
400.45	2330.59
400.66	2486.23
400.88	2273.25
401.09	2543.58
401.30	2326.49
401.51	2643.93
401.73	2488.28
401.94	2463.71
402.15	2572.25
402.36	2830.29
402.58	2598.87
402.79	2865.11
403.00	2562.01
403.21	2707.41
403.43	2635.74
403.64	2822.10
403.85	2729.94
404.06	2725.85
404.27	2650.07
404.49	2666.46
404.70	2668.50
404.91	2768.85
405.12	2549.72
405.34	2672.60
405.55	2822.10
405.76	2643.93
405.97	2643.93
406.19	3162.06
406.40	2648.02
406.61	2904.02
406.82	2867.16
407.03	2838.48
407.25	2686.94
407.46	3086.29
407.67	2838.48
407.88	3088.34
408.09	2848.72
408.31	2805.72
408.52	3045.33
408.73	2973.65
408.94	2967.51
409.15	2951.12
409.37	3041.23
409.58	2987.99
409.79	3096.53
410.00	3065.81
410.21	2842.58
410.43	3000.27
410.64	2783.19
410.85	3018.71
411.06	3133.39
411.27	3074.00
411.48	3131.34
411.70	3164.11
411.91	3151.82
412.12	3407.82
412.33	3237.84
412.54	3110.86
412.76	3299.28
412.97	3284.94
413.18	3100.62
413.39	3055.57
413.60	3375.05
413.81	3358.67
414.03	3252.17
414.24	3110.86
414.45	3534.79
414.66	3258.32
414.87	3573.71
415.08	3121.10
415.30	3481.55
415.51	3428.30
415.72	3211.22
415.93	3690.44
416.14	3213.26
416.35	3477.45
416.56	3420.11
416.78	3530.70
416.99	3411.92
417.20	3319.76
417.41	3663.82
417.62	3637.19
417.83	3622.86
418.04	3583.95
418.26	3878.85
418.47	3645.38
418.68	3708.87
418.89	3739.59
419.10	3907.52
419.31	3784.65
419.52	3653.58
419.73	3682.25
419.95	3975.11
420.16	3684.30
420.37	3721.16
420.58	3528.65
420.79	3669.96
421.00	3751.88
421.21	3841.99
421.42	3882.95
421.63	3925.96
421.85	3917.76
422.06	3860.42
422.27	3895.24
422.48	4020.16
422.69	4138.94
422.90	4095.94
423.11	4079.55
423.32	4128.70
423.53	4181.95
423.75	4075.46
423.96	4323.26
424.17	4239.30
424.38	4374.46
424.59	4323.26
424.80	4362.17
425.01	4317.12
425.22	4247.49
425.43	4280.25
425.64	4550.59
425.85	4497.34
426.06	4468.67
426.28	4403.13
426.49	4216.77
426.70	4302.78
426.91	4523.96
427.12	4566.97
427.33	4689.85
427.54	4511.68
427.75	4515.77
427.96	4900.79
428.17	4710.33
428.38	4614.07
428.59	4755.38
428.80	4632.51
429.01	4837.30
429.23	4663.22
429.44	4929.46
429.65	4702.14
429.86	4829.11
430.07	4849.59
430.28	4902.84
430.49	4904.89
430.70	4855.73
430.91	4982.71
431.12	4978.61
431.33	4954.04
431.54	5167.03
431.75	5097.39
431.96	5013.43
432.17	4986.80
432.38	5117.87
432.59	5269.42
432.80	5236.66
433.01	5265.33
433.22	5199.79
433.43	5189.55
433.64	5291.95
433.85	5162.93
434.06	5527.47
434.27	5242.80
434.49	5349.29
434.70	5490.60
434.91	5326.77
435.12	5529.52
435.33	5445.55
435.54	5404.59
435.75	5201.84
435.96	5482.41
436.17	5343.15
436.38	5676.97
436.59	5674.92
436.80	5529.52
437.01	5941.16
437.22	5742.50
437.43	5590.95
437.64	5490.60
437.85	5734.31
438.06	5736.36
438.27	5681.07
438.48	5629.87
438.69	5730.22
438.90	5779.37
439.11	5736.36
439.32	5930.92
439.53	5658.54
439.74	5955.49
439.95	5883.81
440.16	5896.10
440.37	5904.29
440.57	5857.19
440.78	5912.49
440.99	5982.12
441.20	5932.97
441.41	5758.89
441.62	5922.73
441.83	5877.67
442.04	6012.84
442.25	6045.60
442.46	6156.19
442.67	6092.71
442.88	6234.02
443.09	5996.45
443.30	6086.56
443.51	6197.15
443.72	6483.87
443.93	6109.09
444.14	6455.20
444.35	6211.49
444.56	6285.22
444.77	6336.42
444.98	6473.63
445.19	6555.55
445.40	6283.17
445.61	6164.39
445.81	6473.63
446.02	6465.44
446.23	6481.82
446.44	6389.66
446.65	6418.33
446.86	6539.16
447.07	6588.32
447.28	6696.86
447.49	6711.19
447.70	6490.01
447.91	6647.71
448.12	6819.74
448.33	6690.71
448.54	6815.64
448.74	6698.91
448.95	6778.78
449.16	6672.28
449.37	6977.43
449.58	6811.54
449.79	7036.82
450.00	6780.82
450.21	6801.30
450.42	7079.83
450.63	7051.16
450.84	6913.94
451.05	6997.91
451.25	7079.83
451.46	6942.61
451.67	7206.80
451.88	7516.05
452.09	7272.34
452.30	7126.93
452.51	7239.57
452.72	7475.09
452.93	7356.30
453.13	7167.89
453.34	7194.51
453.55	7389.07
453.76	7309.20
453.97	7755.66
454.18	7290.77
454.39	7739.27
454.60	7458.70
454.81	7495.57
455.01	7704.46
455.22	7495.57
455.43	7628.68
455.64	7796.62
455.85	7833.48
456.06	7931.78
456.27	7686.03
456.48	7837.58
456.68	7868.30
456.89	7841.67
457.10	7989.13
457.31	8028.04
457.52	7942.02
457.73	7964.55
457.94	8241.03
458.14	8032.13
458.35	8365.95
458.56	8200.07
458.77	8222.59
458.98	8298.37
459.19	8277.89
459.39	8298.37
459.60	8464.25
459.81	8482.69
460.02	8550.27
460.23	8466.30
460.44	8781.69
460.65	8527.74
460.85	8724.35
461.06	8882.04
461.27	8570.75
461.48	9009.01
461.69	9119.60
461.89	8757.11
462.10	8912.76
462.31	8724.35
462.52	8824.70
462.73	8982.39
462.94	9090.93
463.14	9228.15
463.35	9201.52
463.56	9541.49
463.77	9222.00
463.98	9101.17
464.18	9127.80
464.39	9578.35
464.60	9586.54
464.81	9437.04
465.02	9551.73
465.23	9789.29
465.43	9570.16
465.64	9838.44
465.85	9840.49
466.06	9549.68
466.27	10250.08
466.47	10024.81
466.68	9949.03
466.89	10055.53
467.10	10131.30
467.30	10069.86
467.51	10008.42
467.72	10461.02
467.93	10364.77
468.14	10448.74
468.34	10571.61
468.55	10588.00
468.76	10530.66
468.97	10440.54
469.17	10823.51
469.38	10688.35
469.59	10884.95
469.80	10741.60
470.01	10846.04
470.21	10997.59
470.42	11175.77
470.63	11177.81
470.84	11272.02
471.04	11321.17
471.25	11507.54
471.46	11315.03
471.67	11536.21
471.87	11384.66
472.08	11693.90
472.29	11722.57
472.50	11544.40
472.70	11603.79
472.91	11794.25
473.12	11816.78
473.33	11919.18
473.53	12072.78
473.74	11964.23
473.95	12148.55
474.16	12257.09
474.36	12406.59
474.57	12484.42
474.78	12793.66
474.99	12576.58
475.19	12793.66
475.40	12932.92
475.61	12871.48
475.81	13025.08
476.02	13127.48
476.23	13057.85
476.44	13180.73
476.64	13358.90
476.85	13528.88
477.06	13485.87
477.27	13666.10
477.47	13639.47
477.68	13844.27
477.89	14083.88
478.09	14133.03
478.30	14188.33
478.51	14040.87
478.71	14266.15
478.92	14309.16
479.13	14298.92
479.34	14493.47
479.54	14550.82
479.75	14602.02
479.96	14735.14
480.16	14778.14
480.37	14671.65
480.58	15064.86
480.78	15269.66
480.99	15105.82
481.20	15413.01
481.41	15417.11
481.61	15628.05
481.82	15562.51
482.03	15752.98
482.23	15652.63
482.44	15920.91
482.65	16078.60
482.85	16344.84
483.06	16215.82
483.27	16279.30
483.47	16301.83
483.68	16242.44
483.89	16510.72
484.09	16588.55
484.30	16678.66
484.51	16733.95
484.71	16846.59
484.92	16819.97
485.13	17055.48
485.33	17266.42
485.54	17219.32
485.75	17571.57
485.95	17565.43
486.16	17725.17
486.37	17620.72
486.57	17518.32
486.78	17594.10
486.98	17782.51
487.19	17929.97
487.40	18036.46
487.60	17874.67
487.81	18304.74
488.02	18153.20
488.22	18321.13
488.43	18329.32
488.64	18409.19
488.84	18675.43
489.05	18532.07
489.25	18601.70
489.46	18833.12
489.67	18671.33
489.87	19121.88
490.08	19187.42
490.29	19099.36
490.49	19615.44
490.70	19570.39
490.90	19244.76
491.11	19504.85
491.32	19619.54
491.52	19779.28
491.73	19994.32
491.94	19943.12
492.14	20010.70
492.35	20086.48
492.55	20289.23
492.76	20207.31
492.97	20520.65
493.17	20158.16
493.38	20569.80
493.58	20909.76
493.79	20756.16
494.00	20747.97
494.20	20831.94
494.41	20979.39
494.61	21184.19
494.82	21208.76
495.02	20965.06
495.23	21477.05
495.44	21444.28
495.64	21759.67
495.85	21561.02
496.05	21798.58
496.26	21526.20
496.47	22009.52
496.67	21724.85
496.88	22064.82
497.08	21720.76
497.29	21882.55
497.49	22320.81
497.70	22496.94
497.91	22443.69
498.11	22638.25
498.32	22585.00
498.52	22482.60
498.73	22886.05
498.93	22693.54
499.14	22630.05
499.34	23144.09
499.55	22943.39
499.76	22847.14
499.96	23064.22
500.17	23348.89
500.37	23221.92
500.58	23199.39
500.78	23273.12
500.99	23504.54
501.19	23494.30
501.40	23541.40
501.60	23545.50
501.81	23899.80
502.02	23750.29
502.22	23934.61
502.43	23977.62
502.63	24045.20
502.84	24225.42
503.04	24108.69
503.25	24032.91
503.45	24159.89
503.66	24401.55
503.86	24489.61
504.07	24915.59
504.27	24364.68
504.48	24897.16
504.68	24577.67
504.89	25239.17
505.09	24841.86
505.30	24794.76
505.50	25157.25
505.71	25116.29
505.91	25173.63
506.12	25202.30
506.32	25167.49
506.53	25292.41
506.73	25550.46
506.94	25753.21
507.14	25228.93
507.35	25718.39
507.55	25538.17
507.76	25484.92
507.96	25566.84
508.17	25517.69
508.37	25734.78
508.58	25716.34
508.78	25882.23
508.99	26013.30
509.19	26261.10
509.40	25906.80
509.60	26115.70
509.81	26326.64
510.01	26406.51
510.22	26396.27
510.42	26199.66
510.63	26426.99
510.83	26506.86
511.04	26701.42
511.24	26621.55
511.44	26556.01
511.65	26433.13
511.85	26584.68
512.06	26619.50
512.26	26924.65
512.47	27117.15
512.67	27186.79
512.88	27033.19
513.08	26924.65
513.29	27278.94
513.49	27006.56
513.69	27264.61
513.90	27127.39
514.10	27471.45
514.31	27231.84
514.51	27520.60
514.72	27739.74
514.92	27467.36
515.13	27467.36
515.33	27848.28
515.53	27782.74
515.74	27686.49
515.94	28018.26
516.15	27901.53
516.35	27831.90
516.56	28005.97
516.76	27913.81
516.96	28059.22
517.17	28352.08
517.37	28114.52
517.58	28249.68
517.78	28063.32
517.99	28470.86
518.19	28591.69
518.39	29009.48
518.60	28941.89
518.80	28786.25
519.01	28878.41
519.21	28827.21
519.41	28749.39
519.62	28745.29
519.82	28784.20
520.03	29240.90
520.23	29040.20
520.43	29077.06
520.64	29359.68
520.84	29523.52
521.05	29554.24
521.25	29795.90
521.45	29496.89
521.66	29857.34
521.86	29640.25
522.07	29500.99
522.27	29689.40
522.47	29242.95
522.68	29974.07
522.88	29929.02
523.08	30565.93
523.29	30012.98
523.49	30426.67
523.70	30080.56
523.90	30756.39
524.10	30737.96
524.31	30594.61
524.51	30400.05
524.71	30643.76
524.92	30823.98
525.12	31088.17
525.33	31135.27
525.53	31297.06
525.73	31571.49
525.94	31290.91
526.14	31280.67
526.34	31233.57
526.55	31342.11
526.75	31147.56
526.95	31704.60
527.16	31698.46
527.36	31618.59
527.56	31700.51
527.77	32056.85
527.97	31841.82
528.17	32013.85
528.38	32083.48
528.58	32337.43
528.78	32429.59
528.99	32077.33
529.19	32439.82
529.39	32480.78
529.60	32876.04
529.80	32822.80
530.00	32646.67
530.21	33109.51
530.41	33461.76
530.61	32908.81
530.82	32962.06
531.02	33093.13
531.22	33183.24
531.43	33447.43
531.63	33486.34
531.83	33664.51
532.04	34117.11
532.24	33893.88
532.44	34223.61
532.64	34100.73
532.85	34283.00
533.05	34117.11
533.25	34289.14
533.46	34057.72
533.66	34416.11
533.86	34440.69
534.07	34928.11
534.27	34444.79
534.47	34747.89
534.67	34618.86
534.88	34518.51
535.08	34999.79
535.28	34774.51
535.49	35384.80
535.69	35603.94
535.89	35575.27
536.09	35446.24
536.30	36003.29
536.50	35864.03
536.70	35792.35
536.91	35878.36
537.11	35948.00
537.31	36124.12
537.51	36300.25
537.72	36468.18
537.92	36640.21
538.12	36384.21
538.32	36371.92
538.53	36877.77
538.73	36468.18
538.93	36767.18
539.13	36662.74
539.34	36756.94
539.54	36910.54
539.74	36967.88
539.94	36967.88
540.15	36857.29
540.35	37549.51
540.55	37072.33
540.75	37750.21
540.96	37576.13
541.16	37291.46
541.36	37897.66
541.56	37875.13
541.77	37799.36
541.97	37885.37
542.17	38030.78
542.37	37866.94
542.58	37971.39
542.78	37817.79
542.98	38137.27
543.18	38606.26
543.38	38567.35
543.59	38606.26
543.79	38319.54
543.99	38256.06
544.19	38761.90
544.40	38690.23
544.60	38647.22
544.80	38778.29
545.00	38935.98
545.20	39409.06
545.41	38958.51
545.61	38923.69
545.81	38852.02
546.01	38849.97
546.21	39314.86
546.42	39280.04
546.62	39466.41
546.82	39132.59
547.02	39464.36
547.22	39435.69
547.43	39255.46
547.63	39753.12
547.83	40043.93
548.03	39648.68
548.23	39701.92
548.44	39867.81
548.64	40304.02
548.84	40062.36
549.04	40007.07
549.24	40385.94
549.45	40727.95
549.65	40207.77
549.85	40248.73
550.05	40359.32
550.25	39957.92
550.45	40854.93
550.66	40506.77
550.86	40525.21
551.06	40615.32
551.26	40844.69
551.46	40746.39
551.66	40730.00
551.87	40793.49
552.07	40916.37
552.27	40768.91
552.47	40934.80
552.67	41155.98
552.87	41231.75
553.07	41096.59
553.28	41315.72
553.48	41549.19
553.68	40895.89
553.88	41594.25
554.08	41561.48
554.28	41268.62
554.48	41495.94
554.69	41721.22
554.89	41543.05
555.09	41309.58
555.29	41665.92
555.49	42081.66
555.69	41745.80
555.89	41518.47
556.10	42366.33
556.30	41592.20
556.50	41964.93
556.70	41833.86
556.90	42247.55
557.10	42208.64
557.30	41856.39
557.50	42409.34
557.70	42276.22
557.91	42603.89
558.11	42462.58
558.31	42671.48
558.51	42435.96
558.71	42845.55
558.91	42929.52
559.11	42485.11
559.31	42425.72
559.51	42474.87
559.72	42464.63
559.92	43001.20
560.12	42497.40
560.32	42894.71
560.52	42788.21
560.72	42718.58
560.92	42845.55
561.12	42751.35
561.32	43584.87
561.52	42694.00
561.72	43449.70
561.93	42997.10
562.13	43197.80
562.33	42972.53
562.53	43488.62
562.73	42739.06
562.93	43160.94
563.13	43195.76
563.33	43296.11
563.53	43707.75
563.73	43238.76
563.93	43375.98
564.13	44174.69
564.33	43545.96
564.53	43361.64
564.74	43713.89
564.94	43668.84
565.14	43726.18
565.34	43887.97
565.54	43767.14
565.74	43695.46
565.94	44262.75
566.14	44023.14
566.34	43550.06
566.54	44287.32
566.74	43517.29
566.94	43998.56
567.14	44246.36
567.34	43898.21
567.54	44385.63
567.74	44229.98
567.94	43869.54
568.14	44500.31
568.34	44373.34
568.54	44180.83
568.74	44346.72
568.94	44336.48
569.14	44574.04
569.34	44361.05
569.54	44799.32
569.75	44070.24
569.95	44506.46
570.15	45155.66
570.35	44617.05
570.55	44440.92
570.75	44680.53
570.95	44803.41
571.15	45141.33
571.35	44809.56
571.55	45223.25
571.75	44311.90
571.95	45051.22
572.15	44655.96
572.35	45532.49
572.55	44926.29
572.75	45063.50
572.95	45155.66
573.15	45681.99
573.35	45417.80
573.55	45190.48
573.75	45667.66
573.95	45665.61
574.15	45495.63
574.35	45516.11
574.55	45616.46
574.75	45395.28
574.95	45497.67
575.15	45260.11
575.34	45897.03
575.54	45956.42
575.74	46064.96
575.94	45593.93
576.14	45733.19
576.34	46376.25
576.54	46189.89
576.74	46077.25
576.94	45913.41
577.14	45890.88
577.34	46658.87
577.54	46443.84
577.74	46411.07
577.94	46726.46
578.14	46312.77
578.34	46789.94
578.54	46363.96
578.74	46708.02
578.94	47052.08
579.14	46366.01
579.34	46470.46
579.54	46935.35
579.74	47101.23
579.94	47011.12
580.13	47250.74
580.33	47105.33
580.53	47166.77
580.73	47342.89
580.93	46902.58
581.13	47349.04
581.33	47525.16
581.53	47344.94
581.73	47383.85
581.93	47469.87
582.13	47650.09
582.33	47430.96
582.53	47734.06
582.73	47899.94
582.92	47932.71
583.12	47805.73
583.32	47396.14
583.52	47504.68
583.72	48233.76
583.92	48010.53
584.12	47906.08
584.32	48334.11
584.52	48241.95
584.72	48221.47
584.92	48090.40
585.11	48823.58
585.31	48549.15
585.51	48332.06
585.71	47856.93
585.91	48858.39
586.11	48413.98
586.31	48479.52
586.51	48403.74
586.71	48549.15
586.91	48968.98
587.10	48674.07
587.30	48811.29
587.50	49194.26
587.70	48993.56
587.90	48899.35
588.10	48946.45
588.30	48956.69
588.50	49468.69
588.69	48854.29
588.89	49034.52
589.09	49354.00
589.29	49050.90
589.49	49431.82
589.69	48989.46
589.89	49978.63
590.08	49227.02
590.28	49513.74
590.48	49411.34
590.68	49607.95
590.88	49841.42
591.08	49495.31
591.28	49798.41
591.47	50068.74
591.67	49706.25
591.87	49505.55
592.07	49540.36
592.27	49837.32
592.47	50070.79
592.67	49911.05
592.86	49659.15
593.06	50377.98
593.26	50316.54
593.46	50121.99
593.66	50224.39
593.86	49931.53
594.05	50513.15
594.25	50435.33
594.45	49691.91
594.65	50222.34
594.85	50144.51
595.05	50332.93
595.24	50558.20
595.44	50345.22
595.64	50447.61
595.84	50748.67
596.04	50586.88
596.23	50668.79
596.43	51051.76
596.63	50791.67
596.83	50779.39
597.03	50996.47
597.22	51221.75
597.42	51002.61
597.62	51401.97
597.82	51215.60
598.02	50908.41
598.21	51479.79
598.41	51246.32
598.61	51100.92
598.81	51451.12
599.01	51412.21
599.20	51946.73
599.40	51188.98
599.60	51621.10
599.80	51737.83
600.00	51393.78
600.19	52147.43
600.39	51887.34
600.59	51789.03
600.79	52235.49
600.98	51844.33
601.18	51846.38
601.38	52085.99
601.58	52284.64
601.78	52387.04
601.97	52106.47
602.17	52587.74
602.37	52417.76
602.57	52151.52
602.76	52722.91
602.96	52354.27
603.16	52511.97
603.36	52327.65
603.55	53130.45
603.75	52696.28
603.95	53105.88
604.15	52737.24
604.34	52536.54
604.54	52557.02
604.74	52735.20
604.94	52958.42
605.13	53015.77
605.33	53216.47
605.53	52790.49
605.73	53587.15
605.92	53146.84
606.12	53359.83
606.32	53501.14
606.52	53069.01
606.71	53183.70
606.91	53568.72
607.11	53239.00
607.30	53605.58
607.50	53282.00
607.70	53425.36
607.90	53458.13
608.09	53413.07
608.29	53863.63
608.49	53781.71
608.68	53646.54
608.88	53890.25
609.08	53814.47
609.28	54115.53
609.47	54199.49
609.67	54226.12
609.87	53667.02
610.06	53916.87
610.26	54322.37
610.46	54285.51
610.66	54254.79
610.85	54416.58
611.05	53970.12
611.25	54205.64
611.44	54002.89
611.64	53939.40
611.84	54287.56
612.03	54037.70
612.23	54566.08
612.43	54490.30
612.62	54203.59
612.82	54138.05
613.02	54226.12
613.21	54572.22
613.41	54248.64
613.61	54164.68
613.80	54138.05
614.00	54367.43
614.20	54523.07
614.39	54465.73
614.59	54932.67
614.79	54844.60
614.98	54543.55
615.18	54924.47
615.38	55047.35
615.57	54482.11
615.77	54899.90
615.97	54785.21
616.16	54858.94
616.36	54437.06
616.56	54686.91
616.75	54785.21
616.95	54738.11
617.15	54824.12
617.34	54942.91
617.54	54670.53
617.74	54990.01
617.93	54721.72
618.13	54281.41
618.32	54576.32
618.52	54992.06
618.72	54807.74
618.91	55043.26
619.11	54809.79
619.31	55200.95
619.50	55186.61
619.70	54449.35
619.90	54934.71
620.09	54449.35
620.29	54656.19
620.48	55096.50
620.68	55184.57
620.88	54297.80
621.07	54860.99
621.27	54822.08
621.46	54754.49
621.66	54543.55
621.86	54572.22
622.05	54719.68
622.25	54783.16
622.44	54490.30
622.64	54260.93
622.84	54826.17
623.03	54867.13
623.23	54828.22
623.42	54736.06
623.62	54600.89
623.82	54967.48
624.01	54703.29
624.21	55278.77
624.40	54947.00
624.60	54750.40
624.80	54504.64
624.99	54457.54
625.19	54228.16
625.38	54797.50
625.58	55065.78
625.77	54602.94
625.97	54836.41
626.17	54219.97
626.36	54686.91
626.56	55063.74
626.75	54459.58
626.95	54975.67
627.14	54701.25
627.34	55014.58
627.54	54817.98
627.73	54785.21
627.93	54619.33
628.12	54009.03
628.32	54801.60
628.51	54531.26
628.71	55106.74
628.90	54652.09
629.10	55157.94
629.30	54961.34
629.49	54609.09
629.69	54494.40
629.88	54893.75
630.08	55092.41
630.27	55006.39
630.47	54674.62
630.66	54703.29
630.86	54607.04
631.05	54947.00
631.25	55301.30
631.44	54875.32
631.64	54981.82
631.84	55221.43
632.03	55555.25
632.23	54994.10
632.42	55016.63
632.62	54447.30
632.81	54547.65
633.01	54580.42
633.20	55159.99
633.40	55100.60
633.59	54813.88
633.79	55000.25
633.98	55129.27
634.18	54686.91
634.37	55248.05
634.57	55073.98
634.76	55522.48
634.96	55067.83
635.15	55317.68
635.35	55014.58
635.54	54887.61
635.74	55198.90
635.93	54906.04
636.13	55063.74
636.32	55172.28
636.52	54813.88
636.71	54736.06
636.91	55030.97
637.10	55325.88
637.30	54768.83
637.49	55071.93
637.69	55495.86
637.88	55633.07
638.08	55086.26
638.27	55108.79
638.46	55059.64
638.66	55413.94
638.85	55157.94
639.05	55368.88
639.24	55577.78
639.44	55041.21
639.63	54852.80
639.83	55186.61
640.02	55456.95
640.22	55205.05
640.41	55919.79
640.61	55026.87
640.80	55551.15
640.99	55153.85
641.19	55817.39
641.38	55295.16
641.58	55506.10
641.77	55524.53
641.97	54961.34
642.16	55436.47
642.36	55401.65
642.55	55989.42
642.74	55209.14
642.94	55975.08
643.13	55254.20
643.33	55565.49
643.52	55948.46
643.72	55604.40
643.91	55295.16
644.10	55588.02
644.30	56403.11
644.49	55452.85
644.69	55397.55
644.88	55702.70
645.08	55389.36
645.27	55547.06
645.46	55016.63
645.66	55901.36
645.85	55268.53
646.05	55938.22
646.24	56022.19
646.43	56202.41
646.63	55719.09
646.82	56140.97
647.02	56179.88
647.21	55927.98
647.40	55714.99
647.60	56005.80
647.79	56231.08
647.99	55960.75
648.18	56059.05
648.37	56763.55
648.57	56083.62
648.76	55858.35
648.96	55811.24
649.15	56327.33
649.34	56087.72
649.54	55915.69
649.73	55305.40
649.92	55680.17
650.12	55729.33
650.31	56458.40
650.51	55657.65
650.70	56192.17
650.89	55956.65
651.09	56620.19
651.28	56233.13
651.47	56183.97
651.67	56239.27
651.86	56468.64
652.06	55817.39
652.25	56339.62
652.44	56415.40
652.64	56202.41
652.83	55735.47
653.02	55749.81
653.22	55977.13
653.41	56198.31
653.60	56360.10
653.80	56310.95
653.99	56577.18
654.18	56302.76
654.38	55981.23
654.57	56577.18
654.76	56405.16
654.96	55690.41
655.15	55880.88
655.34	56179.88
655.54	55966.89
655.73	56095.91
655.92	56399.01
656.12	56005.80
656.31	56261.80
656.50	56460.45
656.70	56132.78
656.89	55807.15
657.08	56366.24
657.28	56323.24
657.47	56394.92
657.66	56673.44
657.86	56347.81
658.05	56325.28
658.24	56304.80
658.43	56585.38
658.63	56349.86
658.82	56636.58
659.01	56407.20
659.21	56810.65
659.40	56964.25
659.59	56274.09
659.79	56464.55
659.98	56779.93
660.17	56698.01
660.36	56911.00
660.56	56657.06
660.75	56450.21
660.94	56499.36
661.14	56241.32
661.33	56681.63
661.52	55825.58
661.71	56929.44
661.91	56261.80
662.10	56290.47
662.29	57267.35
662.49	57042.07
662.68	56749.21
662.87	56898.72
663.06	57023.64
663.26	56474.79
663.45	56722.59
663.64	56620.19
663.83	57099.42
664.03	56677.54
664.22	56562.85
664.41	57107.61
664.60	56325.28
664.80	56392.87
664.99	56501.41
665.18	56444.07
665.37	56712.35
665.57	56868.00
665.76	56337.57
665.95	56984.73
666.14	56786.08
666.34	56378.53
666.53	56519.84
666.72	56439.97
666.91	56245.41
667.11	56206.50
667.30	56759.45
667.49	56272.04
667.68	56923.29
667.87	56300.71
668.07	56851.61
668.26	56507.55
668.45	56614.05
668.64	56558.75
668.84	57191.58
669.03	56947.87
669.22	56595.62
669.41	56540.32
669.60	56972.44
669.80	56366.24
669.99	57160.86
670.18	56423.59
670.37	56677.54
670.57	57218.20
670.76	56530.08
670.95	56906.91
671.14	56525.99
671.33	56624.29
671.53	57357.46
671.72	56325.28
671.91	56650.91
672.10	56568.99
672.29	56431.78
672.48	56528.03
672.68	57146.52
672.87	56726.69
673.06	56536.23
673.25	56505.51
673.44	56046.76
673.64	56714.40
673.83	56243.37
674.02	56530.08
674.21	56786.08
674.40	56769.69
674.59	56480.93
674.79	56192.17
674.98	56384.68
675.17	56675.49
675.36	56167.59
675.55	56837.28
675.74	56548.51
675.94	56439.97
676.13	56370.34
676.32	56523.94
676.51	57052.31
676.70	56722.59
676.89	56276.13
677.08	56548.51
677.28	56013.99
677.47	56657.06
677.66	56538.27
677.85	56425.64
678.04	56652.96
678.23	56800.41
678.42	56597.66
678.62	56294.56
678.81	56552.61
679.00	56173.73
679.19	57115.80
679.38	56257.70
679.57	56491.17
679.76	56401.06
679.96	56480.93
680.15	56325.28
680.34	56519.84
680.53	56769.69
680.72	56177.83
680.91	56669.34
681.10	56339.62
681.29	56605.86
681.48	56292.52
681.68	56161.45
681.87	56300.71
682.06	56497.31
682.25	55706.80
682.44	56341.67
682.63	56083.62
682.82	55733.42
683.01	55624.88
683.20	56100.01
683.39	56288.42
683.59	55655.60
683.78	55878.83
683.97	55755.95
684.16	56155.30
684.35	55778.48
684.54	56046.76
684.73	55981.23
684.92	56061.10
685.11	55944.36
685.30	56071.34
685.49	56485.03
685.69	55987.37
685.88	55772.33
686.07	55481.52
686.26	55784.62
686.45	55952.55
686.64	55919.79
686.83	56069.29
687.02	56114.34
687.21	55825.58
687.40	56032.42
687.59	55856.30
687.78	55825.58
687.97	55813.29
688.16	55805.10
688.35	55700.65
688.54	55499.95
688.74	55735.47
688.93	55477.43
689.12	55645.36
689.31	55712.94
689.50	56132.78
689.69	54977.72
689.88	55100.60
690.07	55545.01
690.26	55563.44
690.45	55884.97
690.64	55026.87
690.83	55315.64
691.02	55258.29
691.21	55497.91
691.40	54854.84
691.59	55489.71
691.78	55047.35
691.97	55409.84
692.16	55360.69
692.35	55514.29
692.54	55229.62
692.73	54998.20
692.92	55088.31
693.11	55071.93
693.30	54770.88
693.49	54971.58
693.68	55444.66
693.87	54947.00
694.06	54899.90
694.25	55051.45
694.44	54899.90
694.63	54576.32
694.82	54947.00
695.01	55184.57
695.20	54486.21
695.39	54805.69
695.58	54711.49
695.77	54869.18
695.96	54840.51
696.15	54574.27
696.34	54539.46
696.53	54944.95
696.72	54914.23
696.91	54514.88
697.10	55047.35
697.29	54330.56
697.48	54940.86
697.67	54842.56
697.86	54088.90
698.05	54181.06
698.24	54670.53
698.43	54439.11
698.62	54740.16
698.81	53877.96
699.00	54637.76
699.19	53990.60
699.38	54480.06
699.57	54179.01
699.76	54664.38
699.95	54041.80
700.14	54148.29
700.32	54179.01
700.51	54357.19
700.70	54437.06
700.89	54295.75
701.08	53744.84
701.27	54183.11
701.46	54404.29
701.65	53683.40
701.84	54043.85
702.03	54090.95
702.22	53560.53
702.41	54295.75
702.60	53583.05
702.79	53826.76
702.98	53679.31
703.17	54084.81
703.35	53628.11
703.54	53443.79
703.73	54033.61
703.92	53982.41
704.11	53634.25
704.30	53761.23
704.49	53589.20
704.68	53365.97
704.87	53157.08
705.06	53447.89
705.25	52864.22
705.43	53257.43
705.62	53712.08
705.81	53284.05
706.00	53384.40
706.19	53056.73
706.38	52868.31
706.57	52890.84
706.76	53009.62
706.95	53136.60
707.14	52993.24
707.32	52911.32
707.51	52763.87
707.70	52550.88
707.89	52958.42
708.08	52847.83
708.27	52833.50
708.46	53116.12
708.65	52911.32
708.84	52925.66
709.02	52987.10
709.21	52864.22
709.40	52389.09
709.59	53144.79
709.78	52614.37
709.97	52577.50
710.16	52477.15
710.34	52454.62
710.53	52788.44
710.72	52059.37
710.91	51946.73
711.10	52172.00
711.29	52440.29
711.48	52215.01
711.66	51881.19
711.85	52303.07
712.04	52442.34
712.23	51829.99
712.42	52380.90
712.61	52204.77
712.80	52274.40
712.98	52215.01
713.17	51660.01
713.36	51852.52
713.55	51764.46
713.74	52085.99
713.93	52147.43
714.11	51490.03
714.30	51574.00
714.49	51574.00
714.68	51690.73
714.87	51563.76
715.06	51694.83
715.24	51836.14
715.43	52098.28
715.62	51750.12
715.81	51520.75
716.00	51705.07
716.18	51414.26
716.37	51033.33
716.56	50951.41
716.75	51797.23
716.94	51449.07
717.12	50898.17
717.31	51647.72
717.50	51137.78
717.69	51053.81
717.88	51105.01
718.06	51553.52
718.25	51266.80
718.44	50806.01
718.63	50633.98
718.82	50601.21
719.00	50646.27
719.19	50611.45
719.38	50369.79
719.57	50337.02
719.76	49753.35
719.94	50044.16
720.13	50388.22
720.32	50470.14
720.51	50361.60
720.69	50486.53
720.88	50347.26
721.07	50134.28
721.26	50111.75
721.44	49491.21
721.63	49429.77
721.82	49497.36
722.01	49386.77
722.20	50121.99
722.38	49724.68
722.57	49431.82
722.76	49448.21
722.95	49446.16
723.13	49073.43
723.32	49079.57
723.51	48846.10
723.70	49022.23
723.88	49825.03
724.07	49014.04
724.26	49321.23
724.44	48626.97
724.63	48956.69
724.82	49020.18
725.01	48973.08
725.19	49026.32
725.38	48874.77
725.57	48639.26
725.76	48712.98
725.94	48504.09
726.13	48872.73
726.32	48561.44
726.51	48665.88
726.69	49003.80
726.88	48870.68
727.07	48446.75
727.25	48684.31
727.44	48334.11
727.63	48637.21
727.82	48399.65
728.00	48377.12
728.19	48678.17
728.38	48719.13
728.56	48612.63
728.75	48889.11
728.94	48344.35
729.12	48338.21
729.31	48340.25
729.50	48137.51
729.69	48588.06
729.87	48379.17
730.06	48059.68
730.25	48356.64
730.43	48700.70
730.62	47932.71
730.81	48467.23
730.99	48346.40
731.18	48100.64
731.37	48123.17
731.55	48373.02
731.74	48571.67
731.93	48291.10
732.11	48297.25
732.30	47973.67
732.49	47953.19
732.67	48012.58
732.86	48010.53
733.05	48203.04
733.23	47615.27
733.42	48280.86
733.61	48031.01
733.79	48174.37
733.98	48465.18
734.17	47719.72
734.35	48039.20
734.54	47789.35
734.73	48246.05
734.91	47846.69
735.10	47617.32
735.29	48162.08
735.47	48088.35
735.66	48237.86
735.84	48147.75
736.03	47516.97
736.22	48237.86
736.40	47469.87
736.59	47578.41
736.78	47633.71
736.96	47535.40
737.15	47881.51
737.33	47246.64
737.52	47613.23
737.71	47656.23
737.89	47355.18
738.08	46959.92
738.27	47314.22
738.45	47596.84
738.64	47453.48
738.82	47277.36
739.01	47510.83
739.20	47326.51
739.38	47506.73
739.57	47578.41
739.75	47795.49
739.94	47002.93
740.13	47369.52
740.31	47371.57
740.50	47242.54
740.68	47084.85
740.87	47193.39
741.06	47680.81
741.24	47174.96
741.43	46925.11
741.61	47230.26
741.80	46906.68
741.99	47004.98
742.17	46916.92
742.36	47056.18
742.54	47142.19
742.73	46888.24
742.91	46828.85
743.10	46634.30
743.29	47015.22
743.47	46816.57
743.66	46642.49
743.84	47125.81
744.03	46998.83
744.21	46515.51
744.40	47340.85
744.59	46312.77
744.77	46488.89
744.96	46507.32
745.14	46773.56
745.33	46880.05
745.51	46376.25
745.70	46425.40
745.88	46511.42
746.07	46626.10
746.26	46028.10
746.44	46316.86
746.63	46308.67
746.81	46871.86
747.00	45630.79
747.18	46187.84
747.37	45999.43
747.55	46136.64
747.74	46355.77
747.92	45761.86
748.11	46310.72
748.29	46216.51
748.48	46159.17
748.66	46095.68
748.85	46144.83
749.03	45886.79
749.22	45976.90
749.41	45899.08
749.59	45901.12
749.78	45839.68
749.96	45491.53
750.15	45698.37
750.33	45851.97
750.52	45935.94
750.70	45753.67
750.89	45612.36
751.07	45464.91
751.26	45509.96
751.44	45391.18
751.63	45305.16
751.81	45288.78
752.00	45126.99
752.18	45493.58
752.37	45411.66
752.55	44879.19
752.74	45096.27
752.92	45526.35
753.10	45266.25
753.29	45315.40
753.47	45221.20
753.66	44586.33
753.84	45213.01
754.03	44805.46
754.21	45102.42
754.40	44778.84
754.58	45245.77
754.77	45104.46
754.95	44905.81
755.14	44811.60
755.32	45008.21
755.51	44363.10
755.69	44864.85
755.88	44473.69
756.06	44727.64
756.24	44389.72
756.43	44402.01
756.61	44494.17
756.80	44189.02
756.98	44221.79
757.17	44055.90
757.35	44447.07
757.54	44289.37
757.72	44348.76
757.90	44623.19
758.09	44105.06
758.27	44154.21
758.46	44031.33
758.64	43881.83
758.83	44238.17
759.01	44152.16
759.19	44578.14
759.38	44084.58
759.56	44199.26
759.75	44334.43
759.93	43976.03
760.12	43695.46
760.30	43916.64
760.48	43582.82
760.67	43857.25
760.85	43834.72
761.04	43218.28
761.22	43789.67
761.40	43808.10
761.59	43388.27
761.77	43502.95
761.96	43642.21
762.14	43992.42
762.32	43103.60
762.51	43206.00
762.69	43464.04
762.88	43199.85
763.06	43343.21
763.24	43494.76
763.43	43613.54
763.61	42978.67
763.80	43337.07
763.98	42917.23
764.16	43449.70
764.35	43324.78
764.53	42659.19
764.72	42923.38
764.90	43357.55
765.08	43042.16
765.27	42857.84
765.45	42423.67
765.63	42431.86
765.82	42923.38
766.00	42546.55
766.18	42898.80
766.37	42943.86
766.55	42575.22
766.74	42753.40
766.92	42554.74
767.10	42706.29
767.29	42612.09
767.47	42032.51
767.65	42253.69
767.84	42018.17
768.02	42491.26
768.20	41899.39
768.39	42347.90
768.57	42216.83
768.75	42448.25
768.94	42362.23
769.12	42165.63
769.30	41981.31
769.49	42333.56
769.67	41612.68
769.85	41829.76
770.04	41997.70
770.22	41342.35
770.40	41381.26
770.59	41616.77
770.77	41713.03
770.95	41692.55
771.14	41346.44
771.32	41289.10
771.50	41022.86
771.69	41743.75
771.87	41536.90
772.05	41297.29
772.24	40963.47
772.42	41205.13
772.60	41223.56
772.78	40957.33
772.97	41037.20
773.15	41209.23
773.33	41014.67
773.52	41217.42
773.70	40865.17
773.88	41491.85
774.07	40848.78
774.25	40807.83
774.43	40904.08
774.61	40928.66
774.80	41051.53
774.98	40920.46
775.16	40863.12
775.34	41010.57
775.53	40926.61
775.71	41272.71
775.89	41448.84
776.08	41029.01
776.26	41131.40
776.44	41272.71
776.62	41055.63
776.81	40969.61
776.99	41074.06
777.17	40961.42
777.35	41069.97
777.54	41356.68
777.72	40969.61
777.90	41088.40
778.08	41530.76
778.27	41123.21
778.45	41334.15
778.63	41649.54
778.81	41461.13
779.00	41756.03
779.18	41311.63
779.36	41794.95
779.54	41196.94
779.73	41112.97
779.91	41694.60
780.09	41348.49
780.27	41858.43
780.46	41637.25
780.64	41874.82
780.82	41751.94
781.00	41356.68
781.19	41739.65
781.37	41928.06
781.55	42079.61
781.73	42501.50
781.91	41573.77
782.10	41739.65
782.28	41831.81
782.46	42116.48
782.64	42186.11
782.82	41600.39
783.01	42276.22
783.19	42016.13
783.37	42046.85
783.55	41905.54
783.74	42149.24
783.92	41463.18
784.10	42401.14
784.28	42175.87
784.46	41768.32
784.64	41616.77
784.83	42114.43
785.01	42093.95
785.19	42089.85
785.37	42300.79
785.55	42173.82
785.74	41541.00
785.92	41450.89
786.10	41606.53
786.28	41936.26
786.46	41782.66
786.64	41356.68
786.83	41657.73
787.01	41981.31
787.19	41624.96
787.37	41979.26
787.55	41346.44
787.74	41497.99
787.92	41551.24
788.10	41393.54
788.28	40891.79
788.46	41379.21
788.64	41002.38
788.82	41059.73
789.01	41391.50
789.19	41381.26
789.37	41377.16
789.55	41002.38
789.73	40717.71
789.91	40914.32
790.09	40738.19
790.28	40682.90
790.46	40377.75
790.64	40584.60
790.82	40627.60
791.00	40529.30
791.18	40551.83
791.36	39959.97
791.55	40490.39
791.73	39796.13
791.91	40224.15
792.09	40349.08
792.27	39964.06
792.45	39736.74
792.63	40066.46
792.81	39419.30
793.00	39744.93
793.18	39458.21
793.36	39564.71
793.54	39509.41
793.72	39433.64
793.90	39478.69
794.08	39482.79
794.26	39241.13
794.44	38827.44
794.62	38886.83
794.81	39103.92
794.99	38806.96
795.17	38962.61
795.35	38438.33
795.53	38925.74
795.71	39085.48
795.89	38471.09
796.07	38503.86
796.25	38286.78
796.43	38364.60
796.61	38137.27
796.80	38124.99
796.98	38118.84
797.16	37586.37
797.34	38088.12
797.52	37615.04
797.70	38309.30
797.88	37879.23
798.06	37574.08
798.24	37694.91
798.42	37176.78
798.60	37119.43
798.78	37373.38
798.96	37111.24
799.14	37455.30
799.32	37414.34
799.51	36646.35
799.69	37111.24
799.87	36685.26
800.05	36404.69
800.23	36695.50
800.41	36638.16
800.59	36580.82
800.77	36242.90
800.95	35902.94
801.13	36083.16
801.31	35825.12
801.49	36242.90
801.67	35769.82
801.85	36326.87
802.03	36003.29
802.21	35620.32
802.39	35626.46
802.57	35581.41
802.75	35569.12
802.93	35589.60
803.11	35337.70
803.29	35333.60
803.47	35431.91
803.65	35415.52
803.83	34911.72
804.01	35087.85
804.19	34698.73
804.37	34782.70
804.55	34565.62
804.73	34913.77
804.91	34506.23
805.09	34485.75
805.27	34551.28
805.45	34448.88
805.63	34864.62
805.81	34428.40
805.99	34381.30
806.17	34266.61
806.35	34450.93
806.53	34045.43
806.71	33699.33
806.89	34029.05
807.07	34000.38
807.25	33910.27
807.43	33699.33
807.61	34100.73
807.79	33674.75
807.97	33216.01
808.15	33220.10
808.33	33291.78
808.51	32912.91
808.69	33455.62
808.87	32644.62
809.05	32902.67
809.23	33021.45
809.41	32980.49
809.59	32853.51
809.77	32849.42
809.95	32583.18
810.13	33072.65
810.31	32454.16
810.49	32722.44
810.67	32390.67
810.84	32302.61
811.02	32165.40
811.20	32112.15
811.38	32042.52
811.56	32017.94
811.74	31903.26
811.92	31727.13
812.10	31712.80
812.28	31985.18
812.46	31807.00
812.64	31837.72
812.82	31655.45
813.00	31710.75
813.18	31782.43
813.36	31049.25
813.53	31364.64
813.71	31393.31
813.89	30987.82
814.07	31110.69
814.25	31381.03
814.43	31137.32
814.61	30692.91
814.79	31153.70
814.97	31036.97
815.15	30957.10
815.33	30955.05
815.50	30686.76
815.68	30989.86
815.86	30676.52
816.04	30834.22
816.22	30553.65
816.40	30760.49
816.58	30400.05
816.76	30357.04
816.94	30207.54
817.11	30180.92
817.29	30361.14
817.47	30080.56
817.65	29855.29
817.83	30248.50
818.01	29908.54
818.19	30027.32
818.37	29937.21
818.54	29402.69
818.72	29582.91
818.90	30039.61
819.08	29871.67
819.26	29691.45
819.44	29394.50
819.62	29574.72
819.80	29374.02
819.97	29353.54
820.15	29693.50
820.33	29531.71
820.51	29283.91
820.69	29042.24
820.87	29316.67
821.05	29744.70
821.22	29068.87
821.40	29253.19
821.58	29148.74
821.76	28950.09
821.94	29036.10
822.12	28993.09
822.29	29165.12
822.47	28751.43
822.65	29279.81
822.83	28931.65
823.01	29060.68
823.19	28708.43
823.36	28589.64
823.54	28290.64
823.72	28370.51
823.90	28646.99
824.08	28343.89
824.25	28366.42
824.43	28286.54
824.61	28089.94
824.79	28376.66
824.97	28081.75
825.15	28290.64
825.32	28272.21
825.50	27788.89
825.68	27954.77
825.86	28122.71
826.04	28151.38
826.21	28057.17
826.39	28167.76
826.57	27911.77
826.75	27690.59
826.93	27532.89
827.10	27754.07
827.28	27528.80
827.46	27661.91
827.64	27690.59
827.81	27379.29
827.99	27860.57
828.17	27244.13
828.35	27297.38
828.53	27354.72
828.70	27244.13
828.88	27391.58
829.06	27262.56
829.24	27299.42
829.41	27283.04
829.59	27348.57
829.77	27209.31
829.95	27235.94
830.12	27092.58
830.30	27199.07
830.48	26887.78
830.66	27225.70
830.84	26959.46
831.01	26852.97
831.19	27018.85
831.37	26723.94
831.55	26822.25
831.72	26773.10
831.90	26730.09
832.08	26670.70
832.25	26605.16
832.43	26670.70
832.61	26461.80
832.79	26490.48
832.96	26590.83
833.14	26324.59
833.32	26744.42
833.50	26711.66
833.67	26156.66
833.85	26232.43
834.03	26187.38
834.20	26064.50
834.38	26484.33
834.56	26439.28
834.74	25888.37
834.91	26048.11
835.09	26066.55
835.27	25794.17
835.44	26023.54
835.62	25775.73
835.80	25867.89
835.98	25659.00
836.15	25839.22
836.33	25818.74
836.51	25970.29
836.68	25654.90
836.86	25695.86
837.04	25597.56
837.21	25894.52
837.39	25767.54
837.57	25538.17
837.75	25489.02
837.92	25282.17
838.10	25224.83
838.28	25067.14
838.45	25431.68
838.63	25134.72
838.81	25233.02
838.98	25147.01
839.16	25216.64
839.34	25024.13
839.51	25212.54
839.69	24794.76
839.87	24876.68
840.04	25054.85
840.22	25046.66
840.40	24829.57
840.57	24792.71
840.75	25286.27
840.93	24833.67
841.10	24997.51
841.28	25493.12
841.46	25024.13
841.63	25069.19
841.81	24839.81
841.98	24800.90
842.16	24725.13
842.34	24667.78
842.51	24383.12
842.69	24974.98
842.87	24532.62
843.04	24825.48
843.22	24338.06
843.40	24497.80
843.57	24669.83
843.75	24686.22
843.92	24508.04
844.10	24522.38
844.28	24426.12
844.45	24452.75
844.63	24518.28
844.81	24219.28
844.98	24274.57
845.16	24166.03
845.33	24422.03
845.51	24075.92
845.69	24026.77
845.86	24182.42
846.04	24082.06
846.21	23918.23
846.39	24080.02
846.57	23963.28
846.74	23975.57
846.92	23684.76
847.09	23801.49
847.27	23830.16
847.45	24094.35
847.62	24030.87
847.80	23946.90
847.97	23649.94
848.15	23787.16
848.32	23776.92
848.50	23590.55
848.68	23336.60
848.85	23676.57
849.03	23178.91
849.20	23549.59
849.38	23312.03
849.56	23355.04
849.73	23291.55
849.91	23258.78
850.08	23486.11
850.26	23125.66
850.43	23295.64
850.61	23316.12
850.78	22890.15
850.96	23279.26
851.14	23070.37
851.31	23000.74
851.49	22873.76
851.66	23033.50
851.84	22992.55
852.01	23162.53
852.19	22970.02
852.36	22752.93
852.54	23017.12
852.71	22812.32
852.89	22769.32
853.07	23101.09
853.24	22834.85
853.42	22759.08
853.59	22615.72
853.77	22851.24
853.94	23053.98
854.12	23223.97
854.29	22462.12
854.47	22855.33
854.64	22716.07
854.82	22451.88
854.99	22367.91
855.17	22408.87
855.34	22621.86
855.52	22390.44
855.69	22826.66
855.87	22212.27
856.04	22302.38
856.22	22509.22
856.39	21882.55
856.57	22165.17
856.74	22486.70
856.92	22081.20
857.09	22343.34
857.27	22271.66
857.44	22283.95
857.62	22398.63
857.79	21978.80
857.97	21874.35
858.14	22079.15
858.32	21982.90
858.49	21993.14
858.67	21857.97
858.84	21980.85
859.02	21751.48
859.19	21982.90
859.37	21831.35
859.54	21782.20
859.72	21935.79
859.89	21685.94
860.06	22011.57
860.24	21667.51
860.41	22124.21
860.59	21626.55
860.76	21593.78
860.94	21636.79
861.11	21356.22
861.29	21497.53
861.46	21434.04
861.64	21075.65
861.81	21206.72
861.98	21194.43
862.16	21128.89
862.33	21073.60
862.51	21044.93
862.68	21245.63
862.86	21286.59
863.03	21386.94
863.21	21141.18
863.38	21034.69
863.55	21130.94
863.73	21397.18
863.90	21022.40
864.08	21014.21
864.25	21040.83
864.43	21149.37
864.60	21028.54
864.77	20741.83
864.95	20846.27
865.12	20661.96
865.30	20655.81
865.47	20827.84
865.64	20692.68
865.82	20965.06
865.99	21042.88
866.17	20463.30
866.34	20799.17
866.51	20412.10
866.69	20682.44
866.86	20514.50
867.04	20571.85
867.21	20483.78
867.38	20549.32
867.56	20494.02
867.73	20154.06
867.91	20432.58
868.08	20420.30
868.25	20332.23
868.43	20358.86
868.60	19967.70
868.78	20197.07
868.95	20426.44
869.12	20141.77
869.30	20131.53
869.47	20285.13
869.64	19797.71
869.82	19810.00
869.99	19830.48
870.16	19865.30
870.34	19805.91
870.51	20055.76
870.69	19644.12
870.86	19783.38
871.03	19883.73
871.21	19672.79
871.38	19662.55
871.55	19754.71
871.73	19488.47
871.90	19754.71
872.07	19422.94
872.25	19531.48
872.42	19433.18
872.59	19580.63
872.77	19439.32
872.94	19410.65
873.11	19185.37
873.29	19429.08
873.46	19402.46
873.63	19349.21
873.81	19148.51
873.98	19066.59
874.15	19132.12
874.33	19044.06
874.50	18898.66
874.67	18953.95
874.85	18980.57
875.02	18708.19
875.19	18570.98
875.37	18978.53
875.54	18802.40
875.71	18624.23
875.88	18554.60
876.06	18562.79
876.23	18839.26
876.40	18433.77
876.58	18507.49
876.75	18415.34
876.92	18462.44
877.10	18667.24
877.27	18280.17
877.44	18681.57
877.61	18310.89
877.79	18470.63
877.96	18306.79
878.13	18398.95
878.31	18194.15
878.48	18028.27
878.65	18028.27
878.82	17927.92
879.00	18142.96
879.17	18040.56
879.34	18067.18
879.51	17913.58
879.69	17870.58
879.86	17788.66
880.03	17723.12
880.21	17596.15
880.38	17706.74
880.55	17790.70
880.72	17606.39
880.90	17747.70
881.07	17854.19
881.24	17714.93
881.41	17684.21
881.59	17671.92
881.76	17678.07
881.93	17514.23
882.10	17428.21
882.28	17415.93
882.45	17270.52
882.62	17299.19
882.79	17393.40
882.96	17284.86
883.14	17377.01
883.31	17495.80
883.48	17075.96
883.65	17495.80
883.83	17473.27
884.00	17616.63
884.17	17069.82
884.34	17374.97
884.51	17329.91
884.69	17100.54
884.86	16977.66
885.03	16977.66
885.20	16973.56
885.38	17032.96
885.55	16934.65
885.72	17004.28
885.89	17247.99
886.06	17176.31
886.24	17000.19
886.41	16736.00
886.58	16967.42
886.75	17317.62
886.92	16738.05
887.10	17014.52
887.27	16658.18
887.44	16975.61
887.61	16897.79
887.78	16867.07
887.95	16834.30
888.13	16457.48
888.30	16750.34
888.47	16807.68
888.64	16944.89
888.81	16584.45
888.99	16680.71
889.16	16246.54
889.33	16246.54
889.50	16385.80
889.67	16437.00
889.84	16076.55
890.01	16357.13
890.19	16332.55
890.36	16373.51
890.53	16137.99
890.70	16267.02
890.87	16115.47
891.04	16068.36
891.22	16172.81
891.39	16062.22
891.56	16154.38
891.73	16264.97
891.90	16082.70
892.07	15986.44
892.24	16013.07
892.42	15779.60
892.59	15937.29
892.76	15986.44
892.93	15724.30
893.10	16125.71
893.27	15832.85
893.44	15933.20
893.61	15847.18
893.79	16080.65
893.96	15716.11
894.13	15785.74
894.30	15707.92
894.47	15683.34
894.64	15867.66
894.81	15697.68
894.98	15810.32
895.15	15781.65
895.33	15714.06
895.50	15740.69
895.67	15714.06
895.84	15607.57
896.01	15752.98
896.18	15798.03
896.35	15830.80
896.52	15517.46
896.69	15574.80
896.86	15523.60
897.04	15703.82
897.21	15558.42
897.38	15726.35
897.55	15517.46
897.72	15671.06
897.89	15642.39
898.06	15384.34
898.23	15636.24
898.40	15480.60
898.57	15554.32
898.74	15697.68
898.91	15705.87
899.08	15595.28
899.26	15384.34
899.43	15509.27
899.60	15355.67
899.77	15468.31
899.94	15695.63
900.11	15230.74
900.28	15562.51
900.45	15277.85
900.62	15562.51
900.79	15322.90
900.96	15294.23
901.13	15353.62
901.30	15609.62
901.47	15386.39
901.64	15466.26
901.81	15189.78
901.98	15261.46
902.15	15537.94
902.32	15343.38
902.49	15396.63
902.66	15529.75
902.83	15292.18
903.01	15302.42
903.18	15415.06
903.35	15404.82
903.52	15347.48
903.69	15396.63
903.86	15601.43
904.03	15654.67
904.20	15327.00
904.37	15353.62
904.54	15511.32
904.71	15212.31
904.88	15206.17
905.05	15107.87
905.22	15253.27
905.39	15271.70
905.56	15281.94
905.73	15216.41
905.90	15484.69
906.07	15419.16
906.24	15431.44
906.41	15099.67
906.58	15347.48
906.75	15159.06
906.92	15150.87
907.09	15101.72
907.26	15247.13
907.43	15173.40
907.60	15404.82
907.77	15517.46
907.93	15290.13
908.10	15296.28
908.27	15560.47
908.44	14948.12
908.61	15171.35
908.78	15218.46
908.95	15234.84
909.12	14939.93
909.29	14913.31
909.46	15144.73
909.63	15142.68
909.80	14970.65
909.97	15068.95
910.14	14876.44
910.31	15159.06
910.48	15148.82
910.65	15138.58
910.82	14763.81
910.99	14700.32
911.16	15064.86
911.33	14993.18
911.50	15140.63
911.66	15081.24
911.83	15015.71
912.00	14855.97
912.17	14702.37
912.34	14724.90
912.51	14604.07
912.68	14804.77
912.85	14968.60
913.02	14698.27
913.19	14759.71
913.36	14759.71
913.53	14685.98
913.70	14440.23
913.86	14632.74
914.03	14888.73
914.20	14466.85
914.37	14468.90
914.54	14509.86
914.71	14323.49
914.88	14229.29
915.05	14313.25
915.22	14391.08
915.39	14411.56
915.55	14368.55
915.72	14157.61
915.89	14335.78
916.06	14249.77
916.23	14104.36
916.40	13991.72
916.57	14053.16
916.74	14042.92
916.91	13850.41
917.07	13932.33
917.24	13911.85
917.41	14073.64
917.58	13735.73
917.75	13854.51
917.92	13680.43
918.09	13987.63
918.26	13858.60
918.42	13690.67
918.59	13629.23
918.76	13604.66
918.93	13494.07
919.10	13426.48
919.27	13279.03
919.44	13438.77
919.60	13381.43
919.77	13358.90
919.94	13373.24
920.11	13268.79
920.28	13485.87
920.45	13002.55
920.61	13109.05
920.78	13219.64
920.95	13152.06
921.12	13080.38
921.29	13016.89
921.46	12939.07
921.62	12683.07
921.79	13139.77
921.96	12961.59
922.13	12764.99
922.30	12564.29
922.47	12404.55
922.63	12787.52
922.80	12615.49
922.97	12476.23
923.14	12508.99
923.31	12558.14
923.47	12461.89
923.64	12556.10
923.81	12404.55
923.98	12390.21
924.15	12343.11
924.32	12328.77
924.48	12140.36
924.65	12345.16
924.82	12093.26
924.99	12025.67
925.15	11763.53
925.32	11994.95
925.49	11945.80
925.66	11757.39
925.83	11704.14
925.99	11743.05
926.16	11917.13
926.33	11745.10
926.50	11587.41
926.67	11755.34
926.83	11556.69
927.00	11474.77
927.17	11534.16
927.34	11544.40
927.50	11323.22
927.67	11495.25
927.84	11274.07
928.01	11421.52
928.17	11169.62
928.34	11345.75
928.51	11259.73
928.68	11030.36
928.84	10864.47
929.01	10860.38
929.18	10862.43
929.35	10782.56
929.51	10737.50
929.68	10817.37
929.85	10692.44
930.02	10504.03
930.18	10571.61
930.35	10497.89
930.52	10616.67
930.69	10674.01
930.85	10465.12
931.02	10202.98
931.19	10461.02
931.36	10219.36
931.52	10329.95
931.69	10252.13
931.86	10235.75
932.02	10291.04
932.19	10076.01
932.36	10004.33
932.53	9996.14
932.69	9873.26
932.86	9969.51
933.03	9801.58
933.19	9686.89
933.36	9594.73
933.53	9764.72
933.70	9740.14
933.86	9564.01
934.03	9527.15
934.20	9340.79
934.36	9647.98
934.53	9256.82
934.70	9342.83
934.86	9213.81
935.03	9086.84
935.20	8912.76
935.36	9123.70
935.53	8890.23
935.70	8968.06
935.86	8892.28
936.03	8687.48
936.20	8624.00
936.36	8544.13
936.53	8580.99
936.70	8519.55
936.86	8587.13
937.03	8492.93
937.20	8202.11
937.36	8275.84
937.53	8007.56
937.70	8046.47
937.86	7843.72
938.03	7731.08
938.20	7892.87
938.36	7557.00
938.53	7669.64
938.70	7479.18
938.86	7591.82
939.03	7403.41
939.20	7262.10
939.36	7354.26
939.53	7167.89
939.70	7307.15
939.86	6977.43
940.03	6815.64
940.19	6705.05
940.36	6848.41
940.53	6959.00
940.69	6662.04
940.86	6690.71
941.03	6422.43
941.19	6457.25
941.36	6348.70
941.52	6401.95
941.69	6203.30
941.86	6332.32
942.02	6281.12
942.19	6025.12
942.35	6100.90
942.52	5896.10
942.69	5918.63
942.85	5785.51
943.02	5797.80
943.18	5787.56
943.35	5728.17
943.52	5765.03
943.68	5668.78
943.85	5668.78
944.01	5621.67
944.18	5441.45
944.35	5521.32
944.51	5425.07
944.68	5316.53
944.84	5425.07
945.01	5550.00
945.17	5455.79
945.34	5517.23
945.51	5365.68
945.67	5271.47
945.84	5285.81
946.00	5205.94
946.17	5459.88
946.33	5271.47
946.50	5337.01
946.67	5236.66
946.83	5142.45
947.00	5279.66
947.16	5263.28
947.33	5224.37
947.49	5197.74
947.66	5156.79
947.82	5287.86
947.99	5160.88
948.16	5457.84
948.32	5210.03
948.49	5179.31
948.65	5316.53
948.82	5124.02
948.98	5115.83
949.15	5042.10
949.31	5197.74
949.48	5205.94
949.64	5296.05
949.81	5210.03
949.97	5162.93
950.14	5197.74
950.30	5015.48
950.47	5197.74
950.63	5281.71
950.80	5181.36
950.96	5230.51
951.13	5263.28
951.30	5242.80
951.46	5248.94
951.63	5406.64
951.79	5289.90
951.96	5339.05
952.12	5316.53
952.29	5244.85
952.45	5351.34
952.62	5291.95
952.78	5369.77
952.94	5394.35
953.11	5476.27
953.27	5330.86
953.44	5476.27
953.60	5339.05
953.77	5396.40
953.93	5250.99
954.10	5380.01
954.26	5377.97
954.43	5255.09
954.59	5488.56
954.76	5459.88
954.92	5363.63
955.09	5435.31
955.25	5377.97
955.42	5287.86
955.58	5574.57
955.75	5312.43
955.91	5375.92
956.07	5466.03
956.24	5416.88
956.40	5294.00
956.57	5441.45
956.73	5449.64
956.90	5392.30
957.06	5394.35
957.23	5357.49
957.39	5275.57
957.56	5453.74
957.72	5179.31
957.88	5337.01
958.05	5394.35
958.21	5562.28
958.38	5386.16
958.54	5435.31
958.71	5498.80
958.87	5347.25
959.03	5414.83
959.20	5404.59
959.36	5294.00
959.53	5478.32
959.69	5193.65
959.85	5384.11
960.02	5312.43
960.18	5359.53
960.35	5427.12
960.51	5470.12
960.68	5427.12
960.84	5326.77
961.00	5453.74
961.17	5367.73
961.33	5371.82
961.50	5332.91
961.66	5494.70
961.82	5214.13
961.99	5408.69
962.15	5294.00
962.31	5349.29
962.48	5337.01
962.64	5365.68
962.81	5386.16
962.97	5375.92
963.13	5390.25
963.30	5345.20
963.46	5332.91
963.62	5328.81
963.79	5380.01
963.95	5152.69
964.12	5181.36
964.28	5230.51
964.44	5191.60
964.61	5375.92
964.77	5189.55
964.93	5359.53
965.10	5222.32
965.26	5285.81
965.42	5140.40
965.59	5121.97
965.75	5169.07
965.92	5191.60
966.08	5185.46
966.24	5334.96
966.41	5148.59
966.57	5089.20
966.73	5091.25
966.90	5240.75
967.06	5167.03
967.22	5189.55
967.39	5167.03
967.55	5167.03
967.71	5179.31
967.88	5138.35
968.04	5013.43
968.20	5158.83
968.37	5132.21
968.53	5109.68
968.69	5154.74
968.85	5183.41
969.02	5021.62
969.18	5089.20
969.34	5011.38
969.51	5132.21
969.67	5109.68
969.83	4917.17
970.00	5169.07
970.16	5054.39
970.32	4947.89
970.48	5107.63
970.65	4923.32
970.81	4843.45
970.97	4927.41
971.14	4935.60
971.30	5236.66
971.46	4913.08
971.63	5050.29
971.79	5066.67
971.95	4870.07
972.11	4896.69
972.28	4839.35
972.44	4886.45
972.60	4786.10
972.76	4820.92
972.93	4751.29
973.09	4820.92
973.25	4792.25
973.42	4673.46
973.58	4779.96
973.74	4786.10
973.90	4812.73
974.07	4634.55
974.23	4927.41
974.39	4724.66
974.55	4671.42
974.72	4747.19
974.88	4728.76
975.04	4726.71
975.20	4532.15
975.37	4730.81
975.53	4693.94
975.69	4562.87
975.85	4788.15
976.01	4493.24
976.18	4523.96
976.34	4589.50
976.50	4691.90
976.66	4607.93
976.83	4642.75
976.99	4546.49
977.15	4566.97
977.31	4368.32
977.47	4521.92
977.64	4591.55
977.80	4558.78
977.96	4407.23
978.12	4343.74
978.29	4466.62
978.45	4442.04
978.61	4392.89
978.77	4489.15
978.93	4394.94
979.10	4399.04
979.26	4333.50
979.42	4495.29
979.58	4292.54
979.74	4327.36
979.91	4313.02
980.07	4298.69
980.23	4261.82
980.39	4157.38
980.55	4177.86
980.71	4253.63
980.88	4216.77
981.04	4208.58
981.20	4214.72
981.36	4249.54
981.52	4210.62
981.68	4020.16
981.85	4327.36
982.01	4165.57
982.17	4034.50
982.33	4120.51
982.49	4227.01
982.65	4093.89
982.82	4104.13
982.98	4081.60
983.14	4018.11
983.30	4030.40
983.46	4145.09
983.62	4071.36
983.79	3997.64
983.95	4077.51
984.11	3852.23
984.27	3960.77
984.43	3891.14
984.59	4026.31
984.75	3962.82
984.91	3874.76
985.08	4040.64
985.24	3874.76
985.40	3819.46
985.56	3907.52
985.72	3942.34
985.88	3844.04
986.04	3807.17
986.20	3704.78
986.37	3846.09
986.53	3733.45
986.69	3831.75
986.85	3811.27
987.01	3708.87
987.17	3870.66
987.33	3616.71
987.49	3647.43
987.65	3559.37
987.82	3782.60
987.98	3530.70
988.14	3653.58
988.30	3692.49
988.46	3639.24
988.62	3723.21
988.78	3567.56
988.94	3465.16
989.10	3577.80
989.26	3465.16
989.42	3395.53
989.59	3469.26
989.75	3651.53
989.91	3514.31
990.07	3280.85
990.23	3465.16
990.39	3448.78
990.55	3442.64
990.71	3381.20
990.87	3542.99
991.03	3579.85
991.19	3114.96
991.35	3289.04
991.51	3479.50
991.67	3600.33
991.83	3305.42
992.00	3246.03
992.16	3194.83
992.32	3235.79
992.48	3348.43
992.64	3239.89
992.80	3395.53
992.96	3276.75
993.12	3377.10
993.28	3289.04
993.44	3114.96
993.60	3186.64
993.76	3311.57
993.92	3174.35
994.08	3239.89
994.24	3086.29
994.40	3184.59
994.56	3190.74
994.72	3000.27
994.88	3121.10
995.04	3088.34
995.20	3211.22
995.36	3223.50
995.52	3157.97
995.68	3106.77
995.84	2987.99
996.00	3286.99
996.16	3051.47
996.32	3004.37
996.48	3100.62
996.64	3147.73
996.80	3030.99
996.96	2932.69
997.12	3057.62
997.28	2867.16
997.44	2934.74
997.60	2871.25
997.76	2891.73
997.92	2863.06
998.08	2930.64
998.24	2809.81
998.40	2793.43
998.56	2920.40
998.72	2805.72
998.88	2844.63
999.04	2744.28
999.20	2844.63
999.36	2791.38
999.52	2813.91
999.68	2738.13
999.84	2656.22
1000.00	2770.90
1000.16	2975.70
1000.32	2584.54
1000.48	2645.98
1000.64	2662.36
1000.80	2478.04
1000.95	2402.27
1001.11	2785.24
1001.27	2779.09
1001.43	2594.78
1001.59	2578.39
1001.75	2473.95
1001.91	2734.04
1002.07	2629.59
1002.23	2377.69
1002.39	2467.80
1002.55	2318.30
1002.71	2410.46
1002.87	2783.19
1003.03	2564.06
1003.19	2478.04
1003.34	2793.43
1003.50	2459.61
1003.66	2623.45
1003.82	2379.74
1003.98	2471.90
1004.14	2748.37
1004.30	2283.49
1004.46	2312.16
1004.62	2506.71
1004.78	2375.64
1004.94	2410.46
1005.09	2478.04
1005.25	2484.19
1005.41	2486.23
1005.57	2240.48
1005.73	2250.72
1005.89	2252.77
1006.05	2385.88
1006.21	2385.88
1006.37	2154.46
1006.52	2275.29
1006.68	2123.74
1006.84	2416.60
1007.00	2332.64
1007.16	2306.01
1007.32	2113.50
1007.48	2201.57
1007.64	2131.94
1007.79	2228.19
1007.95	2174.94
1008.11	2297.82
1008.27	2191.33
1008.43	2144.22
1008.59	2183.13
1008.75	2146.27
1008.91	2224.09
1009.06	2213.85
1009.22	2156.51
1009.38	2211.81
1009.54	2115.55
1009.70	2002.91
1009.86	2189.28
1010.01	2164.70
1010.17	2146.27
1010.33	2303.96
1010.49	2209.76
1010.65	2351.07
1010.81	2011.11
1010.96	2113.50
1011.12	2052.06
1011.28	1970.15
1011.44	2320.35
1011.60	2084.83
1011.76	2019.30
1011.91	2068.45
1012.07	1982.43
1012.23	2023.39
1012.39	2093.02
1012.55	2097.12
1012.71	2125.79
1012.86	1992.67
1013.02	2064.35
1013.18	2002.91
1013.34	2029.54
1013.50	2099.17
1013.65	1980.39
1013.81	2015.20
1013.97	2058.21
1014.13	1974.24
1014.29	1974.24
1014.44	2015.20
1014.60	1968.10
1014.76	2019.30
1014.92	1837.03
1015.07	1935.33
1015.23	2019.30
1015.39	1914.85
1015.55	1996.77
1015.71	2045.92
1015.86	1910.75
1016.02	1929.19
1016.18	1746.92
1016.34	1945.57
1016.49	1863.65
1016.65	1961.95
1016.81	1896.42
1016.97	1830.88
1017.12	1920.99
1017.28	1880.04
1017.44	1703.91
1017.60	1964.00
1017.75	1851.36
1017.91	1937.38
1018.07	1933.28
1018.23	1939.43
1018.38	1894.37
1018.54	1853.41
1018.70	1947.62
1018.86	1855.46
1019.01	1955.81
1019.17	1978.34
1019.33	2060.26
1019.49	1865.70
1019.64	1859.56
1019.80	1802.21
1019.96	1892.32
1020.12	1900.52
1020.27	1785.83
1020.43	1888.23
1020.59	1800.16
1020.74	1974.24
1020.90	1808.36
1021.06	1718.25
1021.22	1826.79
1021.37	1877.99
1021.53	1806.31
1021.69	1812.45
1021.84	1705.96
1022.00	1882.08
1022.16	1808.36
1022.31	1841.12
1022.47	1941.47
1022.63	1830.88
1022.79	1742.82
1022.94	1783.78
1023.10	1978.34
1023.26	1775.59
1023.41	1794.02
1023.57	1679.33
1023.73	1722.34
1023.88	1843.17
1024.04	1671.14
1024.20	1736.68
1024.35	1796.07
1024.51	1818.60
1024.67	1800.16
1024.82	1804.26
1024.98	1624.04
1025.14	1783.78
1025.29	1722.34
1025.45	1789.92
1025.61	1695.72
1025.76	1767.40
1025.92	1814.50
1026.08	1757.16
1026.23	1804.26
1026.39	1814.50
1026.55	1775.59
1026.70	1753.06
1026.86	1765.35
1027.02	1732.58
1027.17	1730.53
1027.33	1740.77
1027.48	1724.39
1027.64	1753.06
1027.80	1681.38
1027.95	1720.29
1028.11	1607.66
1028.27	1683.43
1028.42	1806.31
1028.58	1753.06
1028.73	1673.19
1028.89	1654.76
1029.05	1853.41
1029.20	1701.86
>>>>>End Processed Spectral Data<<<<<
