SpectraSuite Data File
++++++++++++++++++++++++++++++++++++
Date: Fri Jun 02 14:57:22 CEST 2017
User: INFO_000
Dark Spectrum Present: No
Reference Spectrum Present: No
Number of Sampled Component Spectra: 1
Spectrometers: USB4H00879
Integration Time (usec): 80000 (USB4H00879)
Spectra Averaged: 1 (USB4H00879)
Boxcar Smoothing: 0 (USB4H00879)
Correct for Electrical Dark: No (USB4H00879)
Strobe/Lamp Enabled: No (USB4H00879)
Correct for Detector Non-linearity: No (USB4H00879)
Correct for Stray Light: No (USB4H00879)
Number of Pixels in Processed Spectrum: 3648
>>>>>Begin Processed Spectral Data<<<<<
345.13	1241.07
345.34	1241.07
345.56	1241.07
345.78	1302.51
345.99	1269.74
346.21	1703.91
346.42	1728.49
346.64	1683.43
346.86	1806.31
347.07	1667.05
347.29	1708.01
347.50	1656.81
347.72	1660.90
347.94	1708.01
348.15	1562.60
348.37	1652.71
348.59	1722.34
348.80	1667.05
349.02	1775.59
349.23	1851.36
349.45	1861.60
349.67	1939.43
349.88	1806.31
350.10	1968.10
350.31	1906.66
350.53	1826.79
350.75	2002.91
350.96	1814.50
351.18	1884.13
351.39	1820.64
351.61	1814.50
351.82	1855.46
352.04	1925.09
352.26	1806.31
352.47	1857.51
352.69	1918.95
352.90	1728.49
353.12	1877.99
353.34	1837.03
353.55	2019.30
353.77	1949.67
353.98	1839.08
354.20	1857.51
354.41	1920.99
354.63	1875.94
354.85	1966.05
355.06	1841.12
355.28	1824.74
355.49	1863.65
355.71	1910.75
355.92	1843.17
356.14	1904.61
356.35	1916.90
356.57	1888.23
356.79	1890.28
357.00	1859.56
357.22	1920.99
357.43	1853.41
357.65	1920.99
357.86	1871.84
358.08	1890.28
358.29	1935.33
358.51	2033.63
358.72	1972.19
358.94	1896.42
359.16	1935.33
359.37	1994.72
359.59	1980.39
359.80	1927.14
360.02	1925.09
360.23	1931.23
360.45	2052.06
360.66	1908.71
360.88	1908.71
361.09	1929.19
361.31	1925.09
361.52	2068.45
361.74	2070.50
361.95	2113.50
362.17	2009.06
362.38	2068.45
362.60	2056.16
362.81	2023.39
363.03	1980.39
363.24	1920.99
363.46	2068.45
363.67	2050.02
363.89	2056.16
364.10	2078.69
364.32	1992.67
364.53	2039.78
364.75	1906.66
364.96	2072.54
365.18	2004.96
365.39	1994.72
365.61	1931.23
365.82	2215.90
366.04	1994.72
366.25	1966.05
366.47	2103.26
366.68	2054.11
366.90	2025.44
367.11	2133.98
367.33	2045.92
367.54	2148.32
367.76	2043.87
367.97	2103.26
368.19	1957.86
368.40	2068.45
368.62	1916.90
368.83	1990.63
369.05	2125.79
369.26	2019.30
369.48	2043.87
369.69	2035.68
369.91	2000.87
370.12	1990.63
370.33	2123.74
370.55	1978.34
370.76	2050.02
370.98	2150.37
371.19	2119.65
371.41	2015.20
371.62	2027.49
371.84	2013.15
372.05	2203.61
372.27	2066.40
372.48	2090.98
372.69	2097.12
372.91	2136.03
373.12	2174.94
373.34	2099.17
373.55	2203.61
373.77	2154.46
373.98	2086.88
374.20	2127.84
374.41	2228.19
374.62	2133.98
374.84	2248.67
375.05	2144.22
375.27	2166.75
375.48	2248.67
375.70	2213.85
375.91	2234.33
376.12	2209.76
376.34	2174.94
376.55	2156.51
376.77	2213.85
376.98	2127.84
377.19	2101.22
377.41	2211.81
377.62	2150.37
377.84	2230.24
378.05	2334.68
378.27	2220.00
378.48	2340.83
378.69	2357.21
378.91	2297.82
379.12	2183.13
379.34	2250.72
379.55	2263.01
379.76	2207.71
379.98	2303.96
380.19	2269.15
380.41	2324.44
380.62	2295.77
380.83	2277.34
381.05	2174.94
381.26	2379.74
381.47	2209.76
381.69	2330.59
381.90	2426.84
382.12	2338.78
382.33	2226.14
382.54	2375.64
382.76	2353.12
382.97	2332.64
383.19	2197.47
383.40	2406.36
383.61	2297.82
383.83	2263.01
384.04	2316.25
384.25	2451.42
384.47	2422.75
384.68	2404.32
384.89	2258.91
385.11	2314.20
385.32	2379.74
385.54	2265.05
385.75	2306.01
385.96	2416.60
386.18	2336.73
386.39	2404.32
386.60	2346.97
386.82	2430.94
387.03	2424.80
387.24	2459.61
387.46	2455.51
387.67	2457.56
387.88	2471.90
388.10	2445.27
388.31	2422.75
388.52	2578.39
388.74	2412.51
388.95	2492.38
389.16	2553.82
389.38	2551.77
389.59	2584.54
389.80	2576.34
390.02	2510.81
390.23	2629.59
390.44	2598.87
390.66	2498.52
390.87	2484.19
391.08	2590.68
391.30	2684.89
391.51	2572.25
391.72	2719.70
391.94	2660.31
392.15	2627.54
392.36	2541.53
392.58	2562.01
392.79	2676.70
393.00	2574.30
393.22	2629.59
393.43	2734.04
393.64	2740.18
393.85	2756.57
394.07	2656.22
394.28	2633.69
394.49	2727.89
394.71	2727.89
394.92	2781.14
395.13	2695.13
395.35	2734.04
395.56	2625.50
395.77	2809.81
395.98	2822.10
396.20	2746.33
396.41	2850.77
396.62	2834.39
396.84	2826.20
397.05	2727.89
397.26	2838.48
397.47	2949.08
397.69	2887.64
397.90	3090.38
398.11	2842.58
398.32	2942.93
398.54	2957.27
398.75	2885.59
398.96	2875.35
399.18	3055.57
399.39	2979.79
399.60	2916.31
399.81	3008.47
400.03	2832.34
400.24	3217.36
400.45	2992.08
400.66	3030.99
400.88	3039.19
401.09	3174.35
401.30	3022.80
401.51	3129.30
401.73	3153.87
401.94	3051.47
402.15	3117.01
402.36	3160.02
402.58	3080.14
402.79	3184.59
403.00	3164.11
403.21	3205.07
403.43	3286.99
403.64	3250.13
403.85	3014.61
404.06	3213.26
404.27	3071.95
404.49	3135.44
404.70	3037.14
404.91	3250.13
405.12	3205.07
405.34	3235.79
405.55	3362.76
405.76	3135.44
405.97	3166.16
406.19	3377.10
406.40	3274.70
406.61	3360.72
406.82	3272.65
407.03	3315.66
407.25	3284.94
407.46	3448.78
407.67	3452.88
407.88	3489.74
408.09	3346.38
408.31	3436.49
408.52	3348.43
408.73	3387.34
408.94	3338.19
409.15	3426.25
409.37	3475.40
409.58	3540.94
409.79	3450.83
410.00	3542.99
410.21	3327.95
410.43	3450.83
410.64	3475.40
410.85	3526.60
411.06	3506.12
411.27	3526.60
411.48	3643.34
411.70	3577.80
411.91	3649.48
412.12	3616.71
412.33	3579.85
412.54	3633.10
412.76	3661.77
412.97	3788.74
413.18	3485.64
413.39	3618.76
413.60	3706.82
413.81	3663.82
414.03	3540.94
414.24	3643.34
414.45	3788.74
414.66	3590.09
414.87	3768.26
415.08	3762.12
415.30	3747.78
415.51	3743.69
415.72	3825.61
415.93	3579.85
416.14	3768.26
416.35	3868.61
416.56	3792.84
416.78	3856.33
416.99	3721.16
417.20	3960.77
417.41	3893.19
417.62	3807.17
417.83	3948.48
418.04	3962.82
418.26	3964.87
418.47	3973.06
418.68	4011.97
418.89	3948.48
419.10	4128.70
419.31	4077.51
419.52	4140.99
419.73	3985.35
419.95	4169.66
420.16	3893.19
420.37	3989.44
420.58	3999.68
420.79	3901.38
421.00	4143.04
421.21	4085.70
421.42	4063.17
421.63	4206.53
421.85	4143.04
422.06	4138.94
422.27	4177.86
422.48	4153.28
422.69	4214.72
422.90	4149.18
423.11	4317.12
423.32	4227.01
423.53	4427.71
423.75	4423.61
423.96	4523.96
424.17	4517.82
424.38	4513.72
424.59	4358.08
424.80	4607.93
425.01	4499.39
425.22	4351.93
425.43	4448.19
425.64	4618.17
425.85	4612.03
426.06	4644.79
426.28	4460.48
426.49	4571.07
426.70	4581.31
426.91	4532.15
427.12	4417.47
427.33	4605.88
427.54	4607.93
427.75	4648.89
427.96	4751.29
428.17	4745.14
428.38	4669.37
428.59	4870.07
428.80	4818.87
429.01	4788.15
429.23	4839.35
429.44	5097.39
429.65	4925.36
429.86	4990.90
430.07	4773.82
430.28	4829.11
430.49	4921.27
430.70	5007.28
430.91	5060.53
431.12	5033.91
431.33	5083.06
431.54	5154.74
431.75	5124.02
431.96	5013.43
432.17	5132.21
432.38	5126.07
432.59	5222.32
432.80	5220.27
433.01	5132.21
433.22	5205.94
433.43	5226.42
433.64	5189.55
433.85	5140.40
434.06	5294.00
434.27	5158.83
434.49	5420.97
434.70	5474.22
434.91	5496.75
435.12	5287.86
435.33	5445.55
435.54	5453.74
435.75	5337.01
435.96	5275.57
436.17	5220.27
436.38	5367.73
436.59	5609.39
436.80	5492.65
437.01	5474.22
437.22	5631.91
437.43	5668.78
437.64	5509.04
437.85	5654.44
438.06	5517.23
438.27	5572.52
438.48	5588.91
438.69	5746.60
438.90	5625.77
439.11	5525.42
439.32	5781.42
439.53	5812.14
439.74	5920.68
439.95	5781.42
440.16	5808.04
440.37	5871.53
440.57	5537.71
440.78	5945.25
440.99	5912.49
441.20	5877.67
441.41	5783.46
441.62	5859.24
441.83	5803.94
442.04	5922.73
442.25	6070.18
442.46	5894.05
442.67	6191.01
442.88	6334.37
443.09	6016.93
443.30	6053.80
443.51	6293.41
443.72	6428.57
443.93	6053.80
444.14	6205.35
444.35	6072.23
444.56	6240.16
444.77	6205.35
444.98	6289.31
445.19	6389.66
445.40	6334.37
445.61	6238.11
445.81	6336.42
446.02	6338.46
446.23	6401.95
446.44	6154.15
446.65	6528.92
446.86	6440.86
447.07	6721.43
447.28	6512.54
447.49	6633.37
447.70	6371.23
447.91	6631.32
448.12	6483.87
448.33	6768.54
448.54	6711.19
448.74	6680.47
448.95	6631.32
449.16	6633.37
449.37	6934.42
449.58	6727.58
449.79	6971.29
450.00	6696.86
450.21	6813.59
450.42	7032.72
450.63	6832.02
450.84	6729.63
451.05	6836.12
451.25	6840.22
451.46	6838.17
451.67	7153.55
451.88	7282.58
452.09	7061.40
452.30	7208.85
452.51	6948.76
452.72	7169.94
452.93	7456.65
453.13	7118.74
453.34	7161.75
453.55	7366.54
453.76	7368.59
453.97	7536.52
454.18	7438.22
454.39	7587.72
454.60	7350.16
454.81	7352.21
455.01	7753.61
455.22	7223.19
455.43	7524.24
455.64	7573.39
455.85	7774.09
456.06	7839.62
456.27	7835.53
456.48	7739.27
456.68	7792.52
456.89	7948.17
457.10	8073.09
457.31	7960.45
457.52	7890.82
457.73	8021.89
457.94	8275.84
458.14	7968.65
458.35	8267.65
458.56	8263.55
458.77	8198.02
458.98	8382.34
459.19	8208.26
459.39	8529.79
459.60	8501.12
459.81	8316.80
460.02	8685.44
460.23	8507.26
460.44	8740.73
460.65	8425.34
460.85	8720.25
461.06	8744.83
461.27	8597.37
461.48	8908.66
461.69	8986.49
461.89	8613.76
462.10	8957.82
462.31	8841.08
462.52	8914.81
462.73	8847.22
462.94	9248.63
463.14	9209.72
463.35	9234.29
463.56	9529.20
463.77	9408.37
463.98	9246.58
464.18	9418.61
464.39	9539.44
464.60	9584.49
464.81	9543.53
465.02	9592.69
465.23	9895.78
465.43	9545.58
465.64	9883.50
465.85	9996.14
466.06	9832.30
466.27	10149.73
466.47	10028.90
466.68	9957.22
466.89	10004.33
467.10	10313.57
467.30	10065.77
467.51	10202.98
467.72	10379.11
467.93	10329.95
468.14	10622.81
468.34	10393.44
468.55	10585.95
468.76	10692.44
468.97	10385.25
469.17	10895.19
469.38	10858.33
469.59	11056.98
469.80	10966.87
470.01	10833.75
470.21	10866.52
470.42	11274.07
470.63	11591.50
470.84	11173.72
471.04	11398.99
471.25	11349.84
471.46	11353.94
471.67	11814.73
471.87	11378.51
472.08	11601.74
472.29	11751.24
472.50	11556.69
472.70	11589.46
472.91	11941.71
473.12	12216.13
473.33	12068.68
473.53	12316.48
473.74	12144.45
473.95	12185.41
474.16	12402.50
474.36	12390.21
474.57	12631.87
474.78	12844.86
474.99	12638.02
475.19	12568.38
475.40	13111.10
475.61	13107.00
475.81	13215.54
476.02	13115.19
476.23	13088.57
476.44	13252.41
476.64	13526.83
476.85	13727.53
477.06	13436.72
477.27	13733.68
477.47	13657.90
477.68	13713.20
477.89	13961.00
478.09	13971.24
478.30	13987.63
478.51	14157.61
478.71	14229.29
478.92	14446.37
479.13	14454.56
479.34	14380.84
479.54	14606.11
479.75	14653.22
479.96	14569.25
480.16	14974.75
480.37	14671.65
480.58	14903.07
480.78	15329.05
480.99	15273.75
481.20	15443.73
481.41	15580.95
481.61	15589.14
481.82	15644.43
482.03	15765.26
482.23	15554.32
482.44	15902.48
482.65	15968.01
482.85	16267.02
483.06	16135.95
483.27	16256.78
483.47	16211.72
483.68	16342.79
483.89	16428.81
484.09	16271.11
484.30	16396.04
484.51	16916.22
484.71	16830.21
484.92	16822.02
485.13	16951.04
485.33	17051.39
485.54	16840.45
485.75	17401.59
485.95	17489.65
486.16	17432.31
486.37	17524.47
486.57	17346.30
486.78	17553.14
486.98	17587.96
487.19	17956.59
487.40	17966.83
487.60	17809.14
487.81	18140.91
488.02	18296.55
488.22	18097.90
488.43	18435.81
488.64	18362.09
488.84	18446.05
489.05	18589.41
489.25	18351.85
489.46	18749.15
489.67	18800.35
489.87	18826.98
490.08	19011.29
490.29	19177.18
490.49	19355.35
490.70	19291.87
490.90	19119.84
491.11	19232.47
491.32	19633.88
491.52	19693.27
491.73	19738.32
491.94	19291.87
492.14	19678.93
492.35	20070.09
492.55	19906.26
492.76	20195.02
492.97	20303.56
493.17	20168.40
493.38	20238.03
493.58	20735.68
493.79	20377.29
494.00	20233.93
494.20	20465.35
494.41	20680.39
494.61	20967.10
494.82	20733.64
495.02	20940.48
495.23	20805.31
495.44	21192.38
495.64	21020.35
495.85	20954.82
496.05	21391.03
496.26	21335.74
496.47	21642.93
496.67	21235.39
496.88	21558.97
497.08	21405.37
497.29	21812.92
497.49	21894.83
497.70	22064.82
497.91	22023.86
498.11	22210.22
498.32	22154.93
498.52	21966.51
498.73	22257.32
498.93	22357.67
499.14	22197.93
499.34	22531.75
499.55	22617.77
499.76	22550.18
499.96	22451.88
500.17	22556.33
500.37	22933.15
500.58	22685.35
500.78	22847.14
500.99	23004.83
501.19	23391.90
501.40	23396.00
501.60	22814.37
501.81	23096.99
502.02	23230.11
502.22	23305.88
502.43	23316.12
502.63	23783.06
502.84	23606.94
503.04	23631.51
503.25	23676.57
503.45	23750.29
503.66	23787.16
503.86	23930.51
504.07	23869.08
504.27	23791.25
504.48	24213.13
504.68	24084.11
504.89	24450.70
505.09	24131.22
505.30	24399.50
505.50	24413.84
505.71	24374.92
505.91	24379.02
506.12	24680.07
506.32	24493.71
506.53	24714.89
506.73	24663.69
506.94	25013.89
507.14	25071.23
507.35	25122.43
507.55	24987.27
507.76	25292.41
507.96	25085.57
508.17	24952.45
508.37	25161.34
508.58	25388.67
508.78	25308.80
508.99	25509.50
509.19	25626.23
509.40	25583.23
509.60	25517.69
509.81	25468.54
510.01	25493.12
510.22	25593.47
510.42	25441.92
510.63	26166.90
510.83	25814.65
511.04	25867.89
511.24	26064.50
511.44	26127.99
511.65	26031.73
511.85	26193.52
512.06	26345.07
512.26	26515.05
512.47	26529.39
512.67	26613.35
512.88	26637.93
513.08	26400.37
513.29	26848.87
513.49	26416.75
513.69	26435.18
513.90	26670.70
514.10	26791.53
514.31	26883.69
514.51	26834.53
514.72	27098.72
514.92	27248.22
515.13	26969.70
515.33	27072.10
515.53	27102.82
515.74	27338.33
515.94	27403.87
516.15	27604.57
516.35	27260.51
516.56	27528.80
516.76	27350.62
516.96	27672.15
517.17	27629.15
517.37	27612.76
517.58	27846.23
517.78	27870.81
517.99	27905.62
518.19	28182.10
518.39	28366.42
518.60	28517.96
518.80	28399.18
519.01	28612.17
519.21	28397.13
519.41	28231.25
519.62	28360.27
519.82	28751.43
520.03	28716.62
520.23	28560.97
520.43	28438.09
520.64	28814.92
520.84	29118.02
521.05	28788.30
521.25	29165.12
521.45	29191.75
521.66	29527.61
521.86	29361.73
522.07	29290.05
522.27	29285.95
522.47	29478.46
522.68	29531.71
522.88	29759.03
523.08	30172.72
523.29	30158.39
523.49	29912.63
523.70	30314.03
523.90	30383.66
524.10	30148.15
524.31	30369.33
524.51	30185.01
524.71	30668.33
524.92	30553.65
525.12	30500.40
525.33	30873.13
525.53	31047.21
525.73	31104.55
525.94	30750.25
526.14	31100.45
526.34	31235.62
526.55	31399.46
526.75	31225.38
526.95	31569.44
527.16	31634.97
527.36	31624.73
527.56	31739.42
527.77	32032.28
527.97	32030.23
528.17	32034.33
528.38	32454.16
528.58	32183.83
528.78	32554.51
528.99	32273.94
529.19	33193.48
529.39	32261.65
529.60	32568.85
529.80	33021.45
530.00	32622.09
530.21	32880.14
530.41	33279.49
530.61	33007.11
530.82	32859.66
531.02	33021.45
531.22	33168.90
531.43	33324.55
531.63	33570.30
531.83	33842.68
532.04	34074.10
532.24	33881.60
532.44	34366.96
532.64	34362.87
532.85	34389.49
533.05	34166.26
533.25	34641.39
533.46	34076.15
533.66	34391.54
533.86	34596.34
534.07	34944.49
534.27	34711.02
534.47	35284.45
534.67	35145.19
534.88	34741.74
535.08	34956.78
535.28	35714.53
535.49	35595.74
535.69	35710.43
535.89	35661.28
536.09	35712.48
536.30	36167.13
536.50	35745.25
536.70	36107.74
536.91	36005.34
537.11	36310.49
537.31	36486.61
537.51	36173.27
537.72	36902.35
537.92	36779.47
538.12	36957.64
538.32	36842.96
538.53	37397.96
538.73	37199.30
538.93	36980.17
539.13	36666.83
539.34	37383.62
539.54	37068.23
539.74	37537.22
539.94	37162.44
540.15	37311.94
540.35	38057.40
540.55	37455.30
540.75	37709.25
540.96	37832.13
541.16	37766.59
541.36	37510.60
541.56	38346.17
541.77	38034.88
541.97	38237.62
542.17	38331.83
542.37	38315.45
542.58	38229.43
542.78	38342.07
542.98	38405.56
543.18	38888.88
543.38	38995.37
543.59	38806.96
543.79	38639.03
543.99	38790.58
544.19	39343.53
544.40	39347.62
544.60	39456.17
544.80	39251.37
545.00	39382.44
545.20	39617.96
545.41	39495.08
545.61	39347.62
545.81	39376.30
546.01	40037.79
546.21	39611.81
546.42	39515.56
546.62	40244.63
546.82	39675.30
547.02	39929.25
547.22	39943.58
547.43	40029.60
547.63	40385.94
547.83	40115.61
548.03	40160.67
548.23	40326.55
548.44	40535.45
548.64	40523.16
548.84	40347.03
549.04	40756.63
549.24	40555.93
549.45	41029.01
549.65	40387.99
549.85	40373.66
550.05	41006.48
550.25	40410.52
550.45	40912.27
550.66	41082.25
550.86	40912.27
551.06	41074.06
551.26	41000.33
551.46	41438.60
551.66	41555.33
551.87	41246.09
552.07	41381.26
552.27	41170.32
552.47	41538.95
552.67	41405.83
552.87	41448.84
553.07	41616.77
553.28	41784.71
553.48	41610.63
553.68	41710.98
553.88	42182.01
554.08	41772.42
554.28	41829.76
554.48	41575.81
554.69	41999.74
554.89	41725.32
555.09	41903.49
555.29	41862.53
555.49	41670.02
555.69	42005.89
555.89	42159.48
556.10	42308.99
556.30	42061.18
556.50	42104.19
556.70	42227.07
556.90	42423.67
557.10	42403.19
557.30	42341.75
557.50	42407.29
557.70	42675.57
557.91	42657.14
558.11	42526.07
558.31	42186.11
558.51	42282.36
558.71	42788.21
558.91	42816.88
559.11	42421.62
559.31	42792.31
559.51	42341.75
559.72	42683.76
559.92	43201.90
560.12	43126.13
560.32	43234.67
560.52	42581.37
560.72	43160.94
560.92	43126.13
561.12	43074.93
561.32	43582.82
561.52	42947.95
561.72	43480.42
561.93	42753.40
562.13	43332.97
562.33	43251.05
562.53	43701.61
562.73	43038.06
562.93	43087.21
563.13	43404.65
563.33	43023.73
563.53	43533.67
563.73	43251.05
563.93	43318.64
564.13	43769.19
564.33	43517.29
564.53	43054.45
564.74	43726.18
564.94	43144.56
565.14	43722.08
565.34	43384.17
565.54	43435.37
565.74	43578.73
565.94	43906.40
566.14	43744.61
566.34	43318.64
566.54	44012.90
566.74	43273.58
566.94	43679.08
567.14	44266.84
567.34	43636.07
567.54	44123.49
567.74	43941.22
567.94	43668.84
568.14	43953.51
568.34	44166.49
568.54	44074.34
568.74	44029.28
568.94	44023.14
569.14	44414.30
569.34	44115.29
569.54	44385.63
569.75	43973.98
569.95	44031.33
570.15	44625.24
570.35	44449.11
570.55	43804.00
570.75	44088.67
570.95	44459.35
571.15	44449.11
571.35	44641.62
571.55	44668.25
571.75	44272.99
571.95	44789.08
572.15	44549.46
572.35	44903.76
572.55	44389.72
572.75	44586.33
572.95	44301.66
573.15	44711.25
573.35	45038.93
573.55	44588.38
573.75	44479.83
573.95	44868.95
574.15	44957.01
574.35	44784.98
574.55	45204.81
574.75	44625.24
574.95	45251.92
575.15	44963.15
575.34	45061.46
575.54	45425.99
575.74	45219.15
575.94	45694.28
576.14	45389.13
576.34	45446.47
576.54	45704.52
576.74	45626.70
576.94	45667.66
577.14	45845.83
577.34	46251.33
577.54	45315.40
577.74	45948.23
577.94	45763.91
578.14	46110.02
578.34	46327.10
578.54	45233.49
578.74	45565.26
578.94	46183.74
579.14	45796.68
579.34	45696.33
579.54	46282.05
579.74	46564.67
579.94	45872.45
580.13	46495.03
580.33	45985.09
580.53	46245.18
580.73	46067.01
580.93	46269.76
581.13	46247.23
581.33	46146.88
581.53	46990.64
581.73	46415.16
581.93	46652.73
582.13	46548.28
582.33	46839.09
582.53	46359.87
582.73	46996.79
582.92	46880.05
583.12	47174.96
583.32	46947.64
583.52	46544.19
583.72	47168.82
583.92	47205.68
584.12	46818.61
584.32	47287.60
584.52	47275.31
584.72	47404.33
584.92	47605.03
585.11	48092.45
585.31	47301.93
585.51	47396.14
585.71	47412.52
585.91	47795.49
586.11	47711.53
586.31	47426.86
586.51	47748.39
586.71	47777.06
586.91	48069.92
587.10	47600.94
587.30	47846.69
587.50	48315.68
587.70	47654.18
587.90	47873.32
588.10	47998.24
588.30	47697.19
588.50	47883.56
588.69	47981.86
588.89	48274.72
589.09	48203.04
589.29	48432.41
589.49	48645.40
589.69	48127.27
589.89	48704.79
590.08	48708.89
590.28	48282.91
590.48	48278.82
590.68	48563.48
590.88	48360.73
591.08	48637.21
591.28	48239.90
591.47	48964.88
591.67	48567.58
591.87	49108.24
592.07	48862.49
592.27	48977.17
592.47	48610.59
592.67	49038.61
592.86	48489.76
593.06	49206.55
593.26	49448.21
593.46	49501.45
593.66	48956.69
593.86	48995.60
594.05	49065.24
594.25	49560.84
594.45	49145.11
594.65	49184.02
594.85	49251.60
595.05	49763.59
595.24	49657.10
595.44	49222.93
595.64	49904.90
595.84	49706.25
596.04	49931.53
596.23	49739.02
596.43	49988.87
596.63	49566.99
596.83	49673.48
597.03	50351.36
597.22	50058.50
597.42	50029.83
597.62	50595.07
597.82	50240.77
598.02	50271.49
598.21	50756.86
598.41	50109.70
598.61	50294.02
598.81	50515.20
599.01	50812.15
599.20	50674.94
599.40	50412.80
599.60	51014.90
599.80	50791.67
600.00	50681.08
600.19	50963.70
600.39	50525.44
600.59	50838.78
600.79	50699.51
600.98	50834.68
601.18	51328.24
601.38	51352.82
601.58	51428.59
601.78	51393.78
601.97	50996.47
602.17	51463.41
602.37	51533.04
602.57	51483.89
602.76	51645.68
602.96	51166.45
603.16	51662.06
603.36	51856.62
603.55	52129.00
603.75	52020.45
603.95	51592.43
604.15	52344.03
604.34	51604.72
604.54	52098.28
604.74	52036.84
604.94	52159.72
605.13	52610.27
605.33	52143.33
605.53	51909.86
605.73	52466.91
605.92	52337.89
606.12	52600.03
606.32	52491.49
606.52	52337.89
606.71	52528.35
606.91	52710.62
607.11	52110.56
607.30	52571.36
607.50	52724.96
607.70	53028.05
607.90	52704.48
608.09	52819.16
608.29	53046.49
608.49	53040.34
608.68	53036.25
608.88	53341.39
609.08	53146.84
609.28	53212.37
609.47	53095.64
609.67	53794.00
609.87	53454.03
610.06	53468.37
610.26	53486.80
610.46	53572.81
610.66	53484.75
610.85	53544.14
611.05	53626.06
611.25	53609.68
611.44	53282.00
611.64	53667.02
611.84	53540.05
612.03	53413.07
612.23	53951.69
612.43	53826.76
612.62	53664.97
612.82	54009.03
613.02	53621.97
613.21	53578.96
613.41	53503.18
613.61	53843.15
613.80	53529.81
614.00	53916.87
614.20	53843.15
614.39	53818.57
614.59	54297.80
614.79	53986.50
614.98	53761.23
615.18	54136.01
615.38	54035.66
615.57	53933.26
615.77	54240.45
615.97	54252.74
616.16	54215.88
616.36	53912.78
616.56	54320.32
616.75	53974.22
616.95	53949.64
617.15	54179.01
617.34	54039.75
617.54	53714.12
617.74	54508.74
617.93	54424.77
618.13	54054.09
618.32	54418.63
618.52	54031.56
618.72	54541.50
618.91	54574.27
619.11	53884.11
619.31	54385.86
619.50	54207.68
619.70	54367.43
619.90	54254.79
620.09	54457.54
620.29	54314.18
620.48	54426.82
620.68	54674.62
620.88	54025.42
621.07	54631.61
621.27	54277.32
621.46	54428.87
621.66	54289.60
621.86	54848.70
622.05	54312.13
622.25	54486.21
622.44	54060.23
622.64	54084.81
622.84	54867.13
623.03	54310.08
623.23	54027.46
623.42	54379.71
623.62	54852.80
623.82	54992.06
624.01	54408.39
624.21	54131.91
624.40	54621.37
624.60	54301.89
624.80	54070.47
624.99	54492.35
625.19	53896.39
625.38	54250.69
625.58	54627.52
625.77	53986.50
625.97	54482.11
626.17	54389.95
626.36	54664.38
626.56	54617.28
626.75	54191.30
626.95	54783.16
627.14	54777.02
627.34	54860.99
627.54	54506.69
627.73	54598.85
627.93	54551.74
628.12	54160.58
628.32	54437.06
628.51	54500.54
628.71	54693.05
628.90	54975.67
629.10	54758.59
629.30	55043.26
629.49	54729.92
629.69	54695.10
629.88	54766.78
630.08	55229.62
630.27	54834.36
630.47	54987.96
630.66	54531.26
630.86	55071.93
631.05	54701.25
631.25	55108.79
631.44	54537.41
631.64	54928.57
631.84	54850.75
632.03	55223.48
632.23	55315.64
632.42	55360.69
632.62	55055.54
632.81	54506.69
633.01	54928.57
633.20	54903.99
633.40	55186.61
633.59	55225.53
633.79	54594.75
633.98	54910.14
634.18	55418.03
634.37	55063.74
634.57	55114.94
634.76	55626.93
634.96	55076.02
635.15	55749.81
635.35	55045.30
635.54	55127.22
635.74	55186.61
635.93	54998.20
636.13	55448.75
636.32	55598.26
636.52	55096.50
636.71	55229.62
636.91	55467.19
637.10	55327.92
637.30	55588.02
637.49	55209.14
637.69	55215.29
637.88	55387.31
638.08	55649.45
638.27	55610.54
638.46	55366.84
638.66	55254.20
638.85	55506.10
639.05	55639.22
639.24	56231.08
639.44	55166.13
639.63	55268.53
639.83	56204.45
640.02	56030.38
640.22	55624.88
640.41	55954.60
640.61	55352.50
640.80	55923.88
640.99	55649.45
641.19	56210.60
641.38	55735.47
641.58	55334.07
641.77	55209.14
641.97	55633.07
642.16	55927.98
642.36	55809.20
642.55	56288.42
642.74	55891.12
642.94	56267.94
643.13	55710.89
643.33	55930.03
643.52	56034.47
643.72	55964.84
643.91	55604.40
644.10	56061.10
644.30	56306.85
644.49	55651.50
644.69	56351.91
644.88	56175.78
645.08	55985.32
645.27	56169.64
645.46	55694.51
645.66	56071.34
645.85	55735.47
646.05	56175.78
646.24	56362.15
646.43	56216.74
646.63	56628.38
646.82	56302.76
647.02	56546.47
647.21	56085.67
647.40	56208.55
647.60	56741.02
647.79	56482.98
647.99	56657.06
648.18	56059.05
648.37	57046.17
648.57	56503.46
648.76	56630.43
648.96	56040.62
649.15	56800.41
649.34	56841.37
649.54	57013.40
649.73	56315.04
649.92	56536.23
650.12	56564.90
650.31	56921.24
650.51	56753.31
650.70	57064.60
650.89	56675.49
651.09	57543.83
651.28	56870.04
651.47	56919.20
651.67	57058.46
651.86	57183.38
652.06	56628.38
652.25	56720.54
652.44	57013.40
652.64	56847.52
652.83	56700.06
653.02	56411.30
653.22	56673.44
653.41	56681.63
653.60	56390.82
653.80	57037.98
653.99	56601.76
654.18	56456.35
654.38	56591.52
654.57	56837.28
654.76	56759.45
654.96	56333.48
655.15	56521.89
655.34	56894.62
655.54	56579.23
655.73	57076.89
655.92	56976.54
656.12	57154.71
656.31	56865.95
656.50	57222.29
656.70	56868.00
656.89	56571.04
657.08	56941.72
657.28	56712.35
657.47	57078.94
657.66	57035.93
657.86	56908.96
658.05	56947.87
658.24	57285.78
658.43	56626.34
658.63	57353.36
658.82	57259.16
659.01	57269.40
659.21	57513.11
659.40	57160.86
659.59	57056.41
659.79	57144.47
659.98	57281.69
660.17	57244.82
660.36	57257.11
660.56	57070.75
660.75	57543.83
660.94	57171.10
661.14	57345.17
661.33	57035.93
661.52	57091.22
661.71	57824.40
661.91	57234.58
662.10	57042.07
662.29	57769.10
662.49	57107.61
662.68	57355.41
662.87	57056.41
663.06	57009.31
663.26	56824.99
663.45	57603.22
663.64	57547.92
663.83	57826.45
664.03	57453.72
664.22	57042.07
664.41	57212.06
664.60	56913.05
664.80	57367.70
664.99	57064.60
665.18	57109.66
665.37	57341.08
665.57	57343.12
665.76	57275.54
665.95	57339.03
666.14	57257.11
666.34	57363.60
666.53	57023.64
666.72	56628.38
666.91	56720.54
667.11	56575.14
667.30	56779.93
667.49	57085.08
667.68	56876.19
667.87	56765.60
668.07	57279.64
668.26	57234.58
668.45	57187.48
668.64	56689.82
668.84	57613.46
669.03	57177.24
669.22	56777.89
669.41	57095.32
669.60	56970.39
669.80	56792.22
669.99	57328.79
670.18	57001.11
670.37	57226.39
670.57	57259.16
670.76	57097.37
670.95	57521.30
671.14	56808.61
671.33	56343.72
671.53	57169.05
671.72	57226.39
671.91	57093.27
672.10	56706.21
672.29	56960.15
672.48	57037.98
672.68	57283.73
672.87	56884.38
673.06	57152.66
673.25	56796.32
673.44	56499.36
673.64	56755.36
673.83	56784.03
674.02	56530.08
674.21	56493.22
674.40	57095.32
674.59	56736.93
674.79	56767.65
674.98	56720.54
675.17	56874.14
675.36	56900.76
675.55	56902.81
675.74	56566.94
675.94	56581.28
676.13	56599.71
676.32	57005.21
676.51	57052.31
676.70	56435.87
676.89	56446.11
677.08	56933.53
677.28	56663.20
677.47	56509.60
677.66	56607.90
677.85	56231.08
678.04	56546.47
678.23	57128.09
678.42	56521.89
678.62	56288.42
678.81	56423.59
679.00	56542.37
679.19	57244.82
679.38	56513.70
679.57	56710.30
679.76	56497.31
679.96	56472.74
680.15	56706.21
680.34	56112.30
680.53	56292.52
680.72	55999.66
680.91	56339.62
681.10	56179.88
681.29	56276.13
681.48	56093.86
681.68	56507.55
681.87	56536.23
682.06	56358.05
682.25	55835.82
682.44	55999.66
682.63	56054.95
682.82	55770.28
683.01	55698.61
683.20	55442.61
683.39	55872.68
683.59	55692.46
683.78	55729.33
683.97	55719.09
684.16	55731.37
684.35	55415.99
684.54	55710.89
684.73	56095.91
684.92	55790.76
685.11	55645.36
685.30	55661.74
685.49	56130.73
685.69	55577.78
685.88	55241.91
686.07	55712.94
686.26	55579.82
686.45	55628.98
686.64	55868.59
686.83	55522.48
687.02	55706.80
687.21	55440.56
687.40	55170.23
687.59	55284.92
687.78	55481.52
687.97	55628.98
688.16	55506.10
688.35	55215.29
688.54	55059.64
688.74	55471.28
688.93	55350.45
689.12	55399.60
689.31	55121.08
689.50	55526.58
689.69	55241.91
689.88	54750.40
690.07	55266.48
690.26	54455.49
690.45	55282.87
690.64	55004.34
690.83	54711.49
691.02	54914.23
691.21	54748.35
691.40	54820.03
691.59	54934.71
691.78	55114.94
691.97	55047.35
692.16	54750.40
692.35	55069.88
692.54	54774.97
692.73	54463.68
692.92	54641.85
693.11	54473.92
693.30	54916.28
693.49	54598.85
693.68	54387.91
693.87	54801.60
694.06	54230.21
694.25	54422.72
694.44	54392.00
694.63	54723.77
694.82	54592.70
695.01	54334.66
695.20	54023.37
695.39	54578.37
695.58	54719.68
695.77	53765.32
695.96	53957.83
696.15	54267.08
696.34	54121.67
696.53	54219.97
696.72	54222.02
696.91	53955.78
697.10	54021.32
697.29	53847.24
697.48	54019.27
697.67	54125.77
697.86	53763.28
698.05	53935.30
698.24	54525.12
698.43	53515.47
698.62	54219.97
698.81	53554.38
699.00	53925.07
699.19	53331.15
699.38	53728.46
699.57	53206.23
699.76	54435.01
699.95	53320.91
700.14	53601.49
700.32	53310.67
700.51	53531.86
700.70	53589.20
700.89	53687.50
701.08	53417.17
701.27	53669.07
701.46	53601.49
701.65	53159.12
701.84	53429.46
702.03	53417.17
702.22	52784.35
702.41	53089.49
702.60	53167.32
702.79	52980.95
702.98	52993.24
703.17	53095.64
703.35	52722.91
703.54	52860.12
703.73	53232.85
703.92	53259.48
704.11	52757.72
704.30	52651.23
704.49	52647.13
704.68	52763.87
704.87	52649.18
705.06	52559.07
705.25	52741.34
705.43	52454.62
705.62	52565.21
705.81	52346.08
706.00	52303.07
706.19	52309.22
706.38	52493.54
706.57	52563.17
706.76	51995.88
706.95	52501.73
707.14	52239.59
707.32	52196.58
707.51	52325.60
707.70	52198.63
707.89	52131.04
708.08	52071.65
708.27	52552.93
708.46	52665.56
708.65	51838.18
708.84	52217.06
709.02	51739.88
709.21	51492.08
709.40	51942.63
709.59	52083.94
709.78	51707.12
709.97	51778.79
710.16	51862.76
710.34	51625.20
710.53	51807.47
710.72	51510.51
710.91	52057.32
711.10	51760.36
711.29	51913.96
711.48	51795.18
711.66	51342.58
711.85	51770.60
712.04	51463.41
712.23	51557.61
712.42	51201.27
712.61	51131.64
712.80	50982.13
712.98	51475.69
713.17	51348.72
713.36	51295.47
713.55	51172.60
713.74	51004.66
713.93	51463.41
714.11	51139.83
714.30	50906.36
714.49	51125.49
714.68	50779.39
714.87	51039.48
715.06	51322.10
715.24	50918.65
715.43	50517.25
715.62	50593.02
715.81	50980.09
716.00	51096.82
716.18	50820.34
716.37	50740.47
716.56	50429.18
716.75	50885.88
716.94	50681.08
717.12	50531.58
717.31	50400.51
717.50	50140.42
717.69	50238.72
717.88	50038.02
718.06	50482.43
718.25	50693.37
718.44	49886.47
718.63	50248.96
718.82	49831.18
719.00	50023.68
719.19	50210.05
719.38	49767.69
719.57	49739.02
719.76	49526.03
719.94	49419.53
720.13	49509.64
720.32	49517.84
720.51	49370.38
720.69	49767.69
720.88	49448.21
721.07	49673.48
721.26	49208.59
721.44	49214.74
721.63	49063.19
721.82	48702.74
722.01	48698.65
722.20	49372.43
722.38	49124.63
722.57	48272.67
722.76	49009.94
722.95	48903.45
723.13	48370.97
723.32	49042.71
723.51	48268.58
723.70	48456.99
723.88	48577.82
724.07	48268.58
724.26	48727.32
724.44	48069.92
724.63	48495.90
724.82	48661.79
725.01	48401.69
725.19	48434.46
725.38	48047.39
725.57	47756.58
725.76	48166.18
725.94	47805.73
726.13	47885.61
726.32	48059.68
726.51	48012.58
726.69	48706.84
726.88	47721.77
727.07	47830.31
727.25	48207.14
727.44	48342.30
727.63	48076.07
727.82	47945.00
728.00	47629.61
728.19	47707.43
728.38	47756.58
728.56	47461.68
728.75	48260.38
728.94	47574.31
729.12	47398.19
729.31	47717.67
729.50	47355.18
729.69	47904.04
729.87	47983.91
730.06	47547.69
730.25	48065.83
730.43	47856.93
730.62	47697.19
730.81	47994.15
730.99	47947.04
731.18	47496.49
731.37	47932.71
731.55	47478.06
731.74	48094.50
731.93	47750.44
732.11	47832.36
732.30	47707.43
732.49	47381.80
732.67	47385.90
732.86	47652.14
733.05	47482.16
733.23	47052.08
733.42	47775.02
733.61	47674.66
733.79	47428.91
733.98	47267.12
734.17	47543.59
734.35	47744.30
734.54	47547.69
734.73	47609.13
734.91	47818.02
735.10	47019.31
735.29	47379.76
735.47	47119.66
735.66	47078.71
735.84	47346.99
736.03	46644.54
736.22	47699.24
736.40	47134.00
736.59	47260.97
736.78	47072.56
736.96	47166.77
737.15	47019.31
737.33	46878.00
737.52	47021.36
737.71	46964.02
737.89	47031.60
738.08	46798.13
738.27	46626.10
738.45	47285.55
738.64	47232.30
738.82	47164.72
739.01	47068.47
739.20	46822.71
739.38	46882.10
739.57	46871.86
739.75	46685.50
739.94	46847.29
740.13	46538.04
740.31	46501.18
740.50	46980.40
740.68	46945.59
740.87	46271.81
741.06	46832.95
741.24	46804.28
741.43	46234.94
741.61	46787.89
741.80	46318.91
741.99	46417.21
742.17	46312.77
742.36	46476.60
742.54	46136.64
742.73	46441.79
742.91	46581.05
743.10	46292.29
743.29	46556.47
743.47	46386.49
743.66	46351.68
743.84	46259.52
744.03	46347.58
744.21	45858.12
744.40	46619.96
744.59	46110.02
744.77	46028.10
744.96	46169.41
745.14	46140.74
745.33	45966.66
745.51	46316.86
745.70	46581.05
745.88	46030.15
746.07	45987.14
746.26	45593.93
746.44	45978.95
746.63	46122.30
746.81	45899.08
747.00	45774.15
747.18	46001.47
747.37	45782.34
747.55	45489.48
747.74	46355.77
747.92	45507.91
748.11	45208.91
748.29	45606.22
748.48	45608.26
748.66	45620.55
748.85	45149.52
749.03	45258.06
749.22	45522.25
749.41	45487.43
749.59	45499.72
749.78	45512.01
749.96	45192.53
750.15	45309.26
750.33	45407.56
750.52	45135.18
750.70	45536.59
750.89	45225.29
751.07	45057.36
751.26	44887.38
751.44	44643.67
751.63	44727.64
751.81	45301.07
752.00	44576.09
752.18	44954.96
752.37	44647.77
752.55	44498.26
752.74	44723.54
752.92	44391.77
753.10	44528.98
753.29	44858.71
753.47	44510.55
753.66	44445.02
753.84	44651.86
754.03	44774.74
754.21	44516.70
754.40	44623.19
754.58	44584.28
754.77	44322.14
754.95	44801.36
755.14	44289.37
755.32	44430.68
755.51	43750.76
755.69	44039.52
755.88	44227.93
756.06	44416.35
756.24	44129.63
756.43	43892.07
756.61	43812.20
756.80	43834.72
756.98	44107.10
757.17	44311.90
757.35	43943.27
757.54	43939.17
757.72	43863.39
757.90	43666.79
758.09	44342.62
758.27	44514.65
758.46	43566.44
758.64	43607.40
758.83	43943.27
759.01	43672.93
759.19	43847.01
759.38	43488.62
759.56	44008.80
759.75	43838.82
759.93	43666.79
760.12	43382.12
760.30	43406.70
760.48	43423.08
760.67	43324.78
760.85	43550.06
761.04	43414.89
761.22	43705.70
761.40	43085.17
761.59	43339.11
761.77	43060.59
761.96	43169.13
762.14	43162.99
762.32	42761.59
762.51	42677.62
762.69	43013.49
762.88	42917.23
763.06	43115.89
763.24	42696.05
763.43	42562.93
763.61	42898.80
763.80	43111.79
763.98	42784.12
764.16	42886.51
764.35	42538.36
764.53	42292.60
764.72	42603.89
764.90	42642.81
765.08	42884.47
765.27	42509.69
765.45	41997.70
765.63	42038.65
765.82	41944.45
766.00	42065.28
766.18	42251.64
766.37	42390.91
766.55	42003.84
766.74	42345.85
766.92	41975.17
767.10	42415.48
767.29	42313.08
767.47	41489.80
767.65	42028.41
767.84	41915.78
768.02	42048.89
768.20	41538.95
768.39	41866.63
768.57	42233.21
768.75	41835.91
768.94	42057.09
769.12	41739.65
769.30	41336.20
769.49	41500.04
769.67	41620.87
769.85	41102.73
770.04	41502.09
770.22	41010.57
770.40	41366.92
770.59	41119.12
770.77	41287.05
770.95	41336.20
771.14	41301.39
771.32	41053.58
771.50	40791.44
771.69	40951.18
771.87	40965.52
772.05	40680.85
772.24	40586.64
772.42	40916.37
772.60	40834.45
772.78	40662.42
772.97	40840.59
773.15	40637.84
773.33	40512.92
773.52	40158.62
773.70	40551.83
773.88	40512.92
774.07	40265.11
774.25	40289.69
774.43	40527.25
774.61	40445.33
774.80	41289.10
774.98	40568.21
775.16	40879.50
775.34	41055.63
775.53	40711.57
775.71	40932.75
775.89	40390.04
776.08	40906.13
776.26	40998.29
776.44	40797.59
776.62	40809.87
776.81	40719.76
776.99	40709.52
777.17	40433.05
777.35	40648.08
777.54	41186.70
777.72	40766.87
777.90	40920.46
778.08	40789.39
778.27	41289.10
778.45	41211.28
778.63	41473.42
778.81	40992.14
779.00	41405.83
779.18	41205.13
779.36	41551.24
779.54	41104.78
779.73	41371.02
779.91	41452.94
780.09	41512.33
780.27	41481.61
780.46	41559.43
780.64	41487.75
780.82	41483.66
781.00	41942.40
781.19	41465.22
781.37	41682.31
781.55	41487.75
781.73	41940.35
781.91	41260.43
782.10	41743.75
782.28	41858.43
782.46	42130.81
782.64	42147.20
782.82	41772.42
783.01	41893.25
783.19	41825.67
783.37	41887.10
783.55	41500.04
783.74	42104.19
783.92	41325.96
784.10	42157.44
784.28	41956.74
784.46	41528.71
784.64	41557.38
784.83	41735.56
785.01	42306.94
785.19	41973.12
785.37	41696.64
785.55	41911.68
785.74	41751.94
785.92	41323.91
786.10	41645.44
786.28	41819.52
786.46	42157.44
786.64	41104.78
786.83	41586.05
787.01	41784.71
787.19	41678.21
787.37	41678.21
787.55	41692.55
787.74	40992.14
787.92	41635.20
788.10	41330.06
788.28	40756.63
788.46	41125.26
788.64	40885.65
788.82	41207.18
789.01	41192.84
789.19	41328.01
789.37	40672.66
789.55	41205.13
789.73	40940.94
789.91	40940.94
790.09	40832.40
790.28	40525.21
790.46	40609.17
790.64	40711.57
790.82	40457.62
791.00	40347.03
791.18	39794.08
791.36	40707.47
791.55	40195.48
791.73	40418.71
791.91	40154.52
792.09	40154.52
792.27	40115.61
792.45	39974.30
792.63	40088.99
792.81	39855.52
793.00	39810.46
793.18	39409.06
793.36	39574.95
793.54	39241.13
793.72	39097.77
793.90	39306.66
794.08	39290.28
794.26	39302.57
794.44	39030.19
794.62	38790.58
794.81	39253.42
794.99	39206.31
795.17	39132.59
795.35	38813.10
795.53	39001.52
795.71	39245.23
795.89	38303.16
796.07	38700.47
796.25	38229.43
796.43	38354.36
796.61	38073.79
796.80	38200.76
796.98	38430.13
797.16	37885.37
797.34	37836.22
797.52	37780.93
797.70	38251.96
797.88	37701.06
798.06	37881.28
798.24	37787.07
798.42	37365.19
798.60	37586.37
798.78	37199.30
798.96	37434.82
799.14	36869.58
799.32	37608.90
799.51	36820.43
799.69	37268.94
799.87	37053.90
800.05	37000.65
800.23	36589.01
800.41	36720.08
800.59	36754.90
800.77	36629.97
800.95	36402.64
801.13	36361.69
801.31	36117.98
801.49	36429.27
801.67	36208.09
801.85	36410.84
802.03	35861.98
802.21	35925.47
802.39	35694.05
802.57	35798.49
802.75	35544.55
802.93	36064.73
803.11	35692.00
803.29	35319.27
803.47	35118.57
803.65	35304.93
803.83	35126.76
804.01	35319.27
804.19	34846.19
804.37	35093.99
804.55	34950.63
804.73	34878.96
804.91	35089.90
805.09	35263.97
805.27	34633.20
805.45	34799.08
805.63	34725.36
805.81	34717.17
805.99	34637.30
806.17	34766.32
806.35	34770.41
806.53	33883.64
806.71	34090.49
806.89	34244.09
807.07	34276.85
807.25	34170.36
807.43	33764.86
807.61	34201.08
807.79	33777.15
807.97	33744.38
808.15	33570.30
808.33	33732.09
808.51	33304.07
808.69	33883.64
808.87	33467.91
809.05	33326.60
809.23	33078.79
809.41	32882.19
809.59	33003.02
809.77	32998.92
809.95	33070.60
810.13	33443.33
810.31	32912.91
810.49	32683.53
810.67	32665.10
810.84	32800.27
811.02	32910.86
811.20	32691.73
811.38	32376.34
811.56	32116.25
811.74	32587.28
811.92	32415.25
812.10	32218.64
812.28	32392.72
812.46	32357.91
812.64	32331.28
812.82	32058.90
813.00	32108.05
813.18	31927.83
813.36	31872.54
813.53	31944.22
813.71	31757.85
813.89	31739.42
814.07	31757.85
814.25	31485.47
814.43	31045.16
814.61	31256.10
814.79	31362.59
814.97	31192.61
815.15	31421.98
815.33	31239.72
815.50	31282.72
815.68	31204.90
815.86	31358.50
816.04	30717.48
816.22	31047.21
816.40	31016.49
816.58	31151.65
816.76	30447.15
816.94	30733.87
817.11	30758.44
817.29	30897.70
817.47	30862.89
817.65	30584.37
817.83	30592.56
818.01	30164.53
818.19	30467.63
818.37	30389.81
818.54	30027.32
818.72	29931.06
818.90	30217.78
819.08	30221.87
819.26	30260.79
819.44	30039.61
819.62	30058.04
819.80	30105.14
819.97	30139.96
820.15	30047.80
820.33	30033.46
820.51	29873.72
820.69	29646.40
820.87	29509.18
821.05	29867.58
821.22	29435.45
821.40	29523.52
821.58	29304.38
821.76	29515.33
821.94	29128.26
822.12	29564.48
822.29	29224.51
822.47	29228.61
822.65	29687.36
822.83	29656.64
823.01	29298.24
823.19	29228.61
823.36	29236.80
823.54	28618.32
823.72	29105.73
823.90	28945.99
824.08	28511.82
824.25	28595.79
824.43	28573.26
824.61	28669.51
824.79	28606.03
824.97	28454.48
825.15	28814.92
825.32	28730.95
825.50	28460.62
825.68	28470.86
825.86	28458.57
826.04	28622.41
826.21	28370.51
826.39	28499.53
826.57	28077.65
826.75	27922.01
826.93	28055.12
827.10	28290.64
827.28	28347.98
827.46	28153.43
827.64	28126.80
827.81	27932.25
827.99	27932.25
828.17	27823.70
828.35	27962.97
828.53	27727.45
828.70	27596.38
828.88	27668.06
829.06	27774.55
829.24	27922.01
829.41	27635.29
829.59	27674.20
829.77	27743.83
829.95	27629.15
830.12	27225.70
830.30	27186.79
830.48	27547.23
830.66	27526.75
830.84	27623.00
831.01	27217.50
831.19	27303.52
831.37	27166.31
831.55	27217.50
831.72	27078.24
831.90	26662.51
832.08	26863.21
832.25	27088.48
832.43	26895.97
832.61	26803.82
832.79	26963.56
832.96	26918.50
833.14	27139.68
833.32	26861.16
833.50	26893.93
833.67	26760.81
833.85	26824.29
834.03	26629.74
834.20	26664.55
834.38	26654.31
834.56	26629.74
834.74	26572.39
834.91	26613.35
835.09	26582.63
835.27	25876.09
835.44	26273.39
835.62	25882.23
835.80	26123.89
835.98	26347.12
836.15	26498.67
836.33	26146.42
836.51	26343.02
836.68	25826.93
836.86	26134.13
837.04	26134.13
837.21	26244.72
837.39	26293.87
837.57	25896.56
837.75	26078.83
837.92	25810.55
838.10	25552.51
838.28	25720.44
838.45	25816.69
838.63	25577.08
838.81	25816.69
838.98	25529.98
839.16	25468.54
839.34	25575.03
839.51	25343.61
839.69	25280.13
839.87	25179.78
840.04	25046.66
840.22	25304.70
840.40	25228.93
840.57	25106.05
840.75	25316.99
840.93	25243.26
841.10	25650.81
841.28	25630.33
841.46	25136.77
841.63	25030.27
841.81	25101.95
841.98	24723.08
842.16	25101.95
842.34	24997.51
842.51	24757.89
842.69	25208.45
842.87	24929.92
843.04	24884.87
843.22	24761.99
843.40	24632.97
843.57	24833.67
843.75	25024.13
843.92	25101.95
844.10	24782.47
844.28	24786.57
844.45	24848.00
844.63	24782.47
844.81	24460.94
844.98	24608.39
845.16	24508.04
845.33	24483.47
845.51	24407.69
845.69	24346.25
845.86	24514.19
846.04	23928.47
846.21	24497.80
846.39	24166.03
846.57	24073.87
846.74	24237.71
846.92	24168.08
847.09	24114.83
847.27	23965.33
847.45	24110.74
847.62	24170.13
847.80	24010.39
847.97	23994.00
848.15	24245.90
848.32	23795.35
848.50	24086.16
848.68	23651.99
848.85	23948.95
849.03	23588.50
849.20	23776.92
849.38	24186.51
849.56	23768.73
849.73	23723.67
849.91	23529.11
850.08	23846.55
850.26	23260.83
850.43	23707.29
850.61	23666.33
850.78	23426.71
850.96	23215.77
851.14	23004.83
851.31	23236.25
851.49	23031.46
851.66	23492.25
851.84	23068.32
852.01	23391.90
852.19	23140.00
852.36	23316.12
852.54	22949.54
852.71	23051.94
852.89	23223.97
853.07	22884.00
853.24	22994.59
853.42	23162.53
853.59	22845.09
853.77	23021.22
853.94	23013.02
854.12	23289.50
854.29	22742.69
854.47	22773.41
854.64	22623.91
854.82	22750.88
854.99	22957.73
855.17	22662.82
855.34	22836.90
855.52	22888.10
855.69	22705.83
855.87	22326.96
856.04	22423.21
856.22	22312.62
856.39	22103.73
856.57	22652.58
856.74	22132.40
856.92	22257.32
857.09	22232.75
857.27	22148.78
857.44	22380.20
857.62	22281.90
857.79	22111.92
857.97	22161.07
858.14	22202.03
858.32	22036.14
858.49	21964.46
858.67	22040.24
858.84	22036.14
859.02	21767.86
859.19	22138.54
859.37	21835.44
859.54	21792.44
859.72	22152.88
859.89	21747.38
860.06	22120.11
860.24	21685.94
860.41	22140.59
860.59	21585.59
860.76	21698.23
860.94	21524.15
861.11	21548.73
861.29	21874.35
861.46	21620.41
861.64	21247.68
861.81	21477.05
861.98	21448.38
862.16	21151.42
862.33	21122.75
862.51	21171.90
862.68	21327.55
862.86	21132.99
863.03	20895.43
863.21	20963.01
863.38	21130.94
863.55	21190.33
863.73	20913.86
863.90	21087.93
864.08	21231.29
864.25	21028.54
864.43	21307.07
864.60	20760.26
864.77	21022.40
864.95	20778.69
865.12	20649.67
865.30	20895.43
865.47	20733.64
865.64	20653.76
865.82	20938.43
865.99	20897.47
866.17	20516.55
866.34	20860.61
866.51	20442.82
866.69	20799.17
866.86	20815.55
867.04	20414.15
867.21	20510.41
867.38	20549.32
867.56	20397.77
867.73	20227.79
867.91	20545.22
868.08	20440.78
868.25	20127.44
868.43	19975.89
868.60	20182.73
868.78	20041.42
868.95	20182.73
869.12	19883.73
869.30	20035.28
869.47	20278.99
869.64	19902.16
869.82	20068.05
869.99	19721.94
870.16	20192.97
870.34	19766.99
870.51	19820.24
870.69	19867.34
870.86	19715.80
871.03	19744.47
871.21	19803.86
871.38	19754.71
871.55	19623.64
871.73	19793.62
871.90	19590.87
872.07	19416.79
872.25	19076.83
872.42	19703.51
872.59	19160.80
872.77	19345.11
872.94	19275.48
873.11	19586.77
873.29	18972.38
873.46	19060.45
873.63	19140.32
873.81	19025.63
873.98	19105.50
874.15	19037.92
874.33	18845.41
874.50	18532.07
874.67	18910.94
874.85	18757.35
875.02	18568.93
875.19	18749.15
875.37	18542.31
875.54	18527.97
875.71	18820.83
875.88	18333.42
876.06	18540.26
876.23	18335.46
876.40	18538.21
876.58	18206.44
876.75	18366.18
876.92	18458.34
877.10	18437.86
877.27	18425.57
877.44	18257.64
877.61	18089.71
877.79	18314.98
877.96	17929.97
878.13	18165.48
878.31	18114.28
878.48	17829.62
878.65	18020.08
878.82	17893.10
879.00	17895.15
879.17	17864.43
879.34	18032.36
879.51	17735.41
879.69	17702.64
879.86	17407.73
880.03	17690.35
880.21	17757.94
880.38	17682.16
880.55	18081.52
880.72	17655.54
880.90	17663.73
881.07	17372.92
881.24	17567.48
881.41	17739.51
881.59	17553.14
881.76	17757.94
881.93	17229.56
882.10	17393.40
882.28	17274.62
882.45	17688.31
882.62	17121.02
882.79	17278.71
882.96	17022.72
883.14	17342.20
883.31	17239.80
883.48	17153.79
883.65	17227.51
883.83	17090.30
884.00	17192.70
884.17	17272.57
884.34	17086.20
884.51	17055.48
884.69	16922.37
884.86	17153.79
885.03	16742.14
885.20	16969.47
885.38	17030.91
885.55	17012.48
885.72	16885.50
885.89	16809.73
886.06	16723.71
886.24	16668.42
886.41	16443.14
886.58	16862.97
886.75	16660.23
886.92	16467.72
887.10	16850.69
887.27	16682.75
887.44	16729.86
887.61	16793.34
887.78	16412.42
887.95	16611.07
888.13	16533.25
888.30	16629.51
888.47	16322.31
888.64	16467.72
888.81	16332.55
888.99	16594.69
889.16	16193.29
889.33	16131.85
889.50	16379.65
889.67	16232.20
889.84	16170.76
890.01	16105.23
890.19	16185.10
890.36	16142.09
890.53	16051.98
890.70	16021.26
890.87	15974.16
891.04	16199.43
891.22	16131.85
891.39	15785.74
891.56	15812.37
891.73	15818.51
891.90	15765.26
892.07	15740.69
892.24	15916.81
892.42	15767.31
892.59	15748.88
892.76	15669.01
892.93	15779.60
893.10	15918.86
893.27	15554.32
893.44	15599.38
893.61	15523.60
893.79	15587.09
893.96	15775.50
894.13	15380.25
894.30	15378.20
894.47	15525.65
894.64	15683.34
894.81	15509.27
894.98	15609.62
895.15	15390.49
895.33	15308.57
895.50	15451.92
895.67	15550.23
895.84	15496.98
896.01	15445.78
896.18	15335.19
896.35	15617.81
896.52	15277.85
896.69	15419.16
896.86	15281.94
897.04	15288.09
897.21	15370.01
897.38	15224.60
897.55	15214.36
897.72	15316.76
897.89	15083.29
898.06	15304.47
898.23	15267.61
898.40	15419.16
898.57	15304.47
898.74	15238.94
898.91	15187.74
899.08	15333.14
899.26	15300.37
899.43	15402.77
899.60	15388.44
899.77	15277.85
899.94	15367.96
900.11	15374.10
900.28	15306.52
900.45	15240.98
900.62	14913.31
900.79	15601.43
900.96	15277.85
901.13	15200.02
901.30	15052.57
901.47	15027.99
901.64	15208.22
901.81	14935.84
901.98	15134.49
902.15	15283.99
902.32	15236.89
902.49	15257.37
902.66	15345.43
902.83	15312.66
903.01	15224.60
903.18	15206.17
903.35	15183.64
903.52	15271.70
903.69	15279.89
903.86	15226.65
904.03	15232.79
904.20	15351.57
904.37	15402.77
904.54	15206.17
904.71	14919.45
904.88	15240.98
905.05	15130.39
905.22	15148.82
905.39	15175.45
905.56	15171.35
905.73	15044.38
905.90	15068.95
906.07	15218.46
906.24	15083.29
906.41	15064.86
906.58	15095.58
906.75	15062.81
906.92	14905.12
907.09	15116.06
907.26	15048.47
907.43	14794.53
907.60	15034.14
907.77	14919.45
907.93	14821.15
908.10	14980.89
908.27	15025.95
908.44	14882.59
908.61	14864.16
908.78	15132.44
908.95	15009.56
909.12	14995.23
909.29	15001.37
909.46	14806.81
909.63	15040.28
909.80	14976.80
909.97	14833.44
910.14	14835.49
910.31	14862.11
910.48	14798.62
910.65	14894.88
910.82	14755.61
910.99	14776.09
911.16	14735.14
911.33	14612.26
911.50	14708.51
911.66	14774.05
911.83	14636.83
912.00	14403.36
912.17	14677.79
912.34	14579.49
912.51	14640.93
912.68	14616.35
912.85	14571.30
913.02	14710.56
913.19	14319.40
913.36	14366.50
913.53	14634.78
913.70	14329.64
913.86	14382.88
914.03	14364.45
914.20	14339.88
914.37	14233.38
914.54	14294.82
914.71	14313.25
914.88	14094.12
915.05	14210.86
915.22	14274.34
915.39	14171.94
915.55	14139.18
915.72	13920.04
915.89	14085.93
916.06	13850.41
916.23	13836.08
916.40	13784.88
916.57	13920.04
916.74	13754.16
916.91	13930.28
917.07	13807.41
917.24	13676.34
917.41	13616.94
917.58	13649.71
917.75	13629.23
917.92	13440.82
918.09	13463.35
918.26	13502.26
918.42	13479.73
918.59	13567.79
918.76	13348.66
918.93	13274.93
919.10	13461.30
919.27	13195.06
919.44	13238.07
919.60	13063.99
919.77	13158.20
919.94	13016.89
920.11	13141.82
920.28	13010.75
920.45	12971.83
920.61	13086.52
920.78	12922.68
920.95	13020.99
921.12	12554.05
921.29	12699.45
921.46	12568.38
921.62	12601.15
921.79	12627.78
921.96	12613.44
922.13	12742.46
922.30	12570.43
922.47	12519.23
922.63	12461.89
922.80	12420.93
922.97	12394.31
923.14	12322.63
923.31	12242.76
923.47	12316.48
923.64	12447.55
923.81	12109.64
923.98	12097.35
924.15	12089.16
924.32	12150.60
924.48	11853.64
924.65	12166.98
924.82	11951.95
924.99	11800.40
925.15	11792.20
925.32	11784.01
925.49	11595.60
925.66	11485.01
925.83	11454.29
925.99	11544.40
926.16	11630.41
926.33	11640.65
926.50	11294.55
926.67	11403.09
926.83	11380.56
927.00	11396.95
927.17	11237.20
927.34	11183.96
927.50	11339.60
927.67	11284.31
927.84	11265.88
928.01	11063.13
928.17	10970.97
928.34	11124.57
928.51	11036.50
928.68	10821.47
928.84	10831.71
929.01	10762.08
929.18	10717.02
929.35	10614.62
929.51	10651.49
929.68	10624.86
929.85	10555.23
930.02	10475.36
930.18	10309.47
930.35	10329.95
930.52	10471.26
930.69	10354.53
930.85	10432.35
931.02	10334.05
931.19	10377.06
931.36	10266.47
931.52	10145.64
931.69	10112.87
931.86	10080.10
932.02	10071.91
932.19	10090.34
932.36	9877.35
932.53	9891.69
932.69	9723.76
932.86	9912.17
933.03	9801.58
933.19	9611.12
933.36	9717.61
933.53	9613.17
933.70	9457.52
933.86	9537.39
934.03	9518.96
934.20	9361.27
934.36	9523.05
934.53	9240.44
934.70	9277.30
934.86	9078.65
935.03	8916.86
935.20	8937.34
935.36	8836.99
935.53	8781.69
935.70	8656.76
935.86	8970.10
936.03	8595.32
936.20	8402.82
936.36	8462.21
936.53	8595.32
936.70	8494.97
936.86	8462.21
937.03	8202.11
937.20	7927.69
937.36	8241.03
937.53	7884.68
937.70	7890.82
937.86	7710.60
938.03	7927.69
938.20	7944.07
938.36	7657.36
938.53	7733.13
938.70	7315.34
938.86	7532.43
939.03	7434.13
939.20	7204.75
939.36	7077.78
939.53	7096.21
939.70	7249.81
939.86	6823.83
940.03	6975.38
940.19	6676.38
940.36	6651.80
940.53	6641.56
940.69	6621.08
940.86	6522.78
941.03	6504.35
941.19	6401.95
941.36	6279.07
941.52	6250.40
941.69	6281.12
941.86	6148.00
942.02	6191.01
942.19	6076.32
942.35	6129.57
942.52	5865.38
942.69	5900.20
942.85	5861.29
943.02	5857.19
943.18	5814.18
943.35	5568.43
943.52	5740.46
943.68	5711.78
943.85	5701.54
944.01	5570.48
944.18	5531.56
944.35	5517.23
944.51	5570.48
944.68	5310.38
944.84	5535.66
945.01	5269.42
945.17	5531.56
945.34	5394.35
945.51	5463.98
945.67	5375.92
945.84	5351.34
946.00	5294.00
946.17	5312.43
946.33	5316.53
946.50	5291.95
946.67	5449.64
946.83	5236.66
947.00	5347.25
947.16	5214.13
947.33	5267.38
947.49	5218.22
947.66	5164.98
947.82	5271.47
947.99	5310.38
948.16	5173.17
948.32	5308.34
948.49	5181.36
948.65	5330.86
948.82	5031.86
948.98	5160.88
949.15	5085.11
949.31	5296.05
949.48	5119.92
949.64	5220.27
949.81	5083.06
949.97	5181.36
950.14	5267.38
950.30	5195.70
950.47	5334.96
950.63	5113.78
950.80	5355.44
950.96	5386.16
951.13	5210.03
951.30	5287.86
951.46	5332.91
951.63	5386.16
951.79	5330.86
951.96	5382.06
952.12	5445.55
952.29	5468.08
952.45	5298.10
952.62	5281.71
952.78	5337.01
952.94	5279.66
953.11	5193.65
953.27	5287.86
953.44	5535.66
953.60	5416.88
953.77	5457.84
953.93	5412.78
954.10	5396.40
954.26	5353.39
954.43	5324.72
954.59	5339.05
954.76	5484.46
954.92	5412.78
955.09	5457.84
955.25	5212.08
955.42	5250.99
955.58	5484.46
955.75	5416.88
955.91	5453.74
956.07	5377.97
956.24	5445.55
956.40	5380.01
956.57	5476.27
956.73	5318.57
956.90	5287.86
957.06	5353.39
957.23	5253.04
957.39	5441.45
957.56	5330.86
957.72	5279.66
957.88	5375.92
958.05	5371.82
958.21	5582.76
958.38	5367.73
958.54	5431.21
958.71	5492.65
958.87	5480.36
959.03	5392.30
959.20	5384.11
959.36	5275.57
959.53	5470.12
959.69	5414.83
959.85	5425.07
960.02	5310.38
960.18	5361.58
960.35	5476.27
960.51	5423.02
960.68	5390.25
960.84	5361.58
961.00	5275.57
961.17	5285.81
961.33	5308.34
961.50	5427.12
961.66	5377.97
961.82	5189.55
961.99	5371.82
962.15	5267.38
962.31	5242.80
962.48	5398.45
962.64	5406.64
962.81	5367.73
962.97	5347.25
963.13	5400.49
963.30	5365.68
963.46	5337.01
963.62	5298.10
963.79	5443.50
963.95	5273.52
964.12	5334.96
964.28	5392.30
964.44	5275.57
964.61	5314.48
964.77	5152.69
964.93	5382.06
965.10	5316.53
965.26	5199.79
965.42	5343.15
965.59	5296.05
965.75	5298.10
965.92	5306.29
966.08	5337.01
966.24	5236.66
966.41	5265.33
966.57	5250.99
966.73	5298.10
966.90	5224.37
967.06	5205.94
967.22	5169.07
967.39	5066.67
967.55	5175.22
967.71	5212.08
967.88	5081.01
968.04	5021.62
968.20	5150.64
968.37	5013.43
968.53	5154.74
968.69	5169.07
968.85	5048.24
969.02	5081.01
969.18	5158.83
969.34	5134.26
969.51	5083.06
969.67	5095.35
969.83	5021.62
970.00	5236.66
970.16	5117.87
970.32	5167.03
970.48	5279.66
970.65	5085.11
970.81	5009.33
970.97	4929.46
971.14	4890.55
971.30	5107.63
971.46	5011.38
971.63	4964.28
971.79	4859.83
971.95	5068.72
972.11	4992.95
972.28	4853.69
972.44	4960.18
972.60	4964.28
972.76	5005.24
972.93	4845.49
973.09	5109.68
973.25	4915.12
973.42	4886.45
973.58	4984.76
973.74	4915.12
973.90	4990.90
974.07	4833.21
974.23	4751.29
974.39	4728.76
974.55	4665.27
974.72	4786.10
974.88	4747.19
975.04	4665.27
975.20	4734.90
975.37	4788.15
975.53	4650.94
975.69	4704.18
975.85	4630.46
976.01	4698.04
976.18	4646.84
976.34	4634.55
976.50	4669.37
976.66	4798.39
976.83	4597.69
976.99	4630.46
977.15	4722.62
977.31	4589.50
977.47	4628.41
977.64	4556.73
977.80	4546.49
977.96	4583.35
978.12	4655.03
978.29	4513.72
978.45	4468.67
978.61	4554.68
978.77	4542.39
978.93	4442.04
979.10	4462.52
979.26	4396.99
979.42	4483.00
979.58	4372.41
979.74	4304.83
979.91	4456.38
980.07	4405.18
980.23	4353.98
980.39	4417.47
980.55	4542.39
980.71	4263.87
980.88	4280.25
981.04	4335.55
981.20	4298.69
981.36	4300.73
981.52	4280.25
981.68	4337.60
981.85	4384.70
982.01	4204.48
982.17	4300.73
982.33	4292.54
982.49	4329.41
982.65	4274.11
982.82	4337.60
982.98	4329.41
983.14	4227.01
983.30	4239.30
983.46	4292.54
983.62	4349.89
983.79	4331.45
983.95	4257.73
984.11	4114.37
984.27	4167.62
984.43	4202.43
984.59	4155.33
984.75	4239.30
984.91	4298.69
985.08	4134.85
985.24	3981.25
985.40	3956.68
985.56	4093.89
985.72	4136.90
985.88	4005.83
986.04	4097.99
986.20	4059.07
986.37	4028.35
986.53	3944.39
986.69	4091.84
986.85	4075.46
987.01	3911.62
987.17	4097.99
987.33	4120.51
987.49	3964.87
987.65	3944.39
987.82	3866.56
987.98	3878.85
988.14	3952.58
988.30	3917.76
988.46	3878.85
988.62	3856.33
988.78	3923.91
988.94	3950.53
989.10	3899.33
989.26	3862.47
989.42	3901.38
989.59	3819.46
989.75	3725.26
989.91	3897.28
990.07	3682.25
990.23	3864.52
990.39	3815.37
990.55	3864.52
990.71	3712.97
990.87	3841.99
991.03	3860.42
991.19	3618.76
991.35	3676.10
991.51	3780.55
991.67	3715.02
991.83	3653.58
992.00	3731.40
992.16	3667.91
992.32	3792.84
992.48	3762.12
992.64	3635.14
992.80	3690.44
992.96	3653.58
993.12	3565.51
993.28	3674.06
993.44	3747.78
993.60	3669.96
993.76	3600.33
993.92	3694.54
994.08	3708.87
994.24	3692.49
994.40	3608.52
994.56	3567.56
994.72	3653.58
994.88	3504.07
995.04	3579.85
995.20	3485.64
995.36	3596.23
995.52	3459.02
995.68	3475.40
995.84	3499.98
996.00	3669.96
996.16	3383.24
996.32	3397.58
996.48	3510.22
996.64	3487.69
996.80	3436.49
996.96	3442.64
997.12	3403.72
997.28	3313.61
997.44	3418.06
997.60	3313.61
997.76	3393.48
997.92	3448.78
998.08	3469.26
998.24	3422.16
998.40	3413.96
998.56	3456.97
998.72	3233.74
998.88	3366.86
999.04	3375.05
999.20	3487.69
999.36	3295.18
999.52	3461.07
999.68	3325.90
999.84	3373.00
1000.00	3299.28
1000.16	3258.32
1000.32	3291.09
1000.48	3223.50
1000.64	3270.61
1000.80	3205.07
1000.95	3168.21
1001.11	3235.79
1001.27	3094.48
1001.43	3186.64
1001.59	3184.59
1001.75	3119.06
1001.91	3192.78
1002.07	3141.58
1002.23	3035.09
1002.39	3110.86
1002.55	3108.82
1002.71	3102.67
1002.87	3153.87
1003.03	3086.29
1003.19	3053.52
1003.34	3133.39
1003.50	3133.39
1003.66	3178.45
1003.82	3174.35
1003.98	2981.84
1004.14	3047.38
1004.30	3024.85
1004.46	2901.97
1004.62	3061.71
1004.78	3045.33
1004.94	3030.99
1005.09	3069.91
1005.25	2938.84
1005.41	2973.65
1005.57	2967.51
1005.73	3014.61
1005.89	3112.91
1006.05	2979.79
1006.21	3043.28
1006.37	2867.16
1006.52	2938.84
1006.68	2912.21
1006.84	2901.97
1007.00	2861.01
1007.16	2971.60
1007.32	2998.23
1007.48	2936.79
1007.64	2916.31
1007.79	2830.29
1007.95	2826.20
1008.11	2891.73
1008.27	2854.87
1008.43	2914.26
1008.59	2752.47
1008.75	2901.97
1008.91	2836.44
1009.06	2834.39
1009.22	2824.15
1009.38	2854.87
1009.54	2885.59
1009.70	2813.91
1009.86	2818.00
1010.01	2828.24
1010.17	2731.99
1010.33	2871.25
1010.49	2717.65
1010.65	2842.58
1010.81	2697.17
1010.96	2762.71
1011.12	2693.08
1011.28	2699.22
1011.44	2674.65
1011.60	2813.91
1011.76	2645.98
1011.91	2768.85
1012.07	2699.22
1012.23	2650.07
1012.39	2678.74
1012.55	2652.12
1012.71	2543.58
1012.86	2672.60
1013.02	2633.69
1013.18	2613.21
1013.34	2611.16
1013.50	2645.98
1013.65	2721.75
1013.81	2568.15
1013.97	2557.91
1014.13	2652.12
1014.29	2570.20
1014.44	2693.08
1014.60	2557.91
1014.76	2553.82
1014.92	2547.67
1015.07	2594.78
1015.23	2641.88
1015.39	2527.19
1015.55	2545.63
1015.71	2529.24
1015.86	2478.04
1016.02	2447.32
1016.18	2523.10
1016.34	2500.57
1016.49	2439.13
1016.65	2553.82
1016.81	2400.22
1016.97	2514.91
1017.12	2531.29
1017.28	2412.51
1017.44	2367.45
1017.60	2418.65
1017.75	2459.61
1017.91	2478.04
1018.07	2451.42
1018.23	2459.61
1018.38	2400.22
1018.54	2410.46
1018.70	2461.66
1018.86	2361.31
1019.01	2373.60
1019.17	2349.02
1019.33	2478.04
1019.49	2359.26
1019.64	2402.27
1019.80	2359.26
1019.96	2443.23
1020.12	2455.51
1020.27	2256.86
1020.43	2492.38
1020.59	2351.07
1020.74	2410.46
1020.90	2416.60
1021.06	2320.35
1021.22	2338.78
1021.37	2342.88
1021.53	2330.59
1021.69	2263.01
1021.84	2310.11
1022.00	2373.60
1022.16	2273.25
1022.31	2260.96
1022.47	2412.51
1022.63	2340.83
1022.79	2275.29
1022.94	2238.43
1023.10	2455.51
1023.26	2254.81
1023.41	2191.33
1023.57	2265.05
1023.73	2389.98
1023.88	2242.53
1024.04	2185.18
1024.20	2228.19
1024.35	2269.15
1024.51	2260.96
1024.67	2160.61
1024.82	2404.32
1024.98	2211.81
1025.14	2228.19
1025.29	2181.09
1025.45	2236.38
1025.61	2183.13
1025.76	2150.37
1025.92	2263.01
1026.08	2258.91
1026.23	2238.43
1026.39	2164.70
1026.55	2193.37
1026.70	2176.99
1026.86	2195.42
1027.02	2232.29
1027.17	2211.81
1027.33	2136.03
1027.48	2189.28
1027.64	2045.92
1027.80	2127.84
1027.95	2199.52
1028.11	2054.11
1028.27	2254.81
1028.42	2174.94
1028.58	2203.61
1028.73	2162.66
1028.89	2050.02
1029.05	2166.75
1029.20	2183.13
>>>>>End Processed Spectral Data<<<<<
