SpectraSuite Data File
++++++++++++++++++++++++++++++++++++
Date: Fri Jun 02 14:57:23 CEST 2017
User: INFO_000
Dark Spectrum Present: No
Reference Spectrum Present: No
Number of Sampled Component Spectra: 1
Spectrometers: USB4H00879
Integration Time (usec): 80000 (USB4H00879)
Spectra Averaged: 1 (USB4H00879)
Boxcar Smoothing: 0 (USB4H00879)
Correct for Electrical Dark: No (USB4H00879)
Strobe/Lamp Enabled: No (USB4H00879)
Correct for Detector Non-linearity: No (USB4H00879)
Correct for Stray Light: No (USB4H00879)
Number of Pixels in Processed Spectrum: 3648
>>>>>Begin Processed Spectral Data<<<<<
345.13	1259.50
345.34	1259.50
345.56	1259.50
345.78	1255.40
345.99	1310.70
346.21	1710.05
346.42	1742.82
346.64	1687.53
346.86	1744.87
347.07	1744.87
347.29	1722.34
347.50	1665.00
347.72	1740.77
347.94	1710.05
348.15	1531.88
348.37	1644.52
348.59	1730.53
348.80	1619.94
349.02	1804.26
349.23	1845.22
349.45	1822.69
349.67	1814.50
349.88	1798.12
350.10	1984.48
350.31	1783.78
350.53	1810.40
350.75	1931.23
350.96	1755.11
351.18	1935.33
351.39	1898.47
351.61	1798.12
351.82	1925.09
352.04	1920.99
352.26	1925.09
352.47	1912.80
352.69	1875.94
352.90	1812.45
353.12	1804.26
353.34	1902.56
353.55	1869.80
353.77	1896.42
353.98	1900.52
354.20	1804.26
354.41	1945.57
354.63	2011.11
354.85	2052.06
355.06	1882.08
355.28	1761.25
355.49	1904.61
355.71	1847.27
355.92	1816.55
356.14	1961.95
356.35	1941.47
356.57	1867.75
356.79	1904.61
357.00	1923.04
357.22	1941.47
357.43	1814.50
357.65	1970.15
357.86	1820.64
358.08	1912.80
358.29	1937.38
358.51	2050.02
358.72	1992.67
358.94	1949.67
359.16	2072.54
359.37	1976.29
359.59	1951.71
359.80	2000.87
360.02	1892.32
360.23	2007.01
360.45	1984.48
360.66	1896.42
360.88	1900.52
361.09	1992.67
361.31	2019.30
361.52	1894.37
361.74	2099.17
361.95	2090.98
362.17	1986.53
362.38	2000.87
362.60	2017.25
362.81	1978.34
363.03	1937.38
363.24	2019.30
363.46	2060.26
363.67	2097.12
363.89	1955.81
364.10	2070.50
364.32	1947.62
364.53	2062.30
364.75	1945.57
364.96	2013.15
365.18	2039.78
365.39	2056.16
365.61	2002.91
365.82	2093.02
366.04	2047.97
366.25	1957.86
366.47	2033.63
366.68	2062.30
366.90	2054.11
367.11	2072.54
367.33	2045.92
367.54	2101.22
367.76	2084.83
367.97	2097.12
368.19	2007.01
368.40	2054.11
368.62	1947.62
368.83	2025.44
369.05	2019.30
369.26	2047.97
369.48	2002.91
369.69	1918.95
369.91	2021.35
370.12	2037.73
370.33	2064.35
370.55	2043.87
370.76	2015.20
370.98	2150.37
371.19	2107.36
371.41	2043.87
371.62	2097.12
371.84	2011.11
372.05	2082.78
372.27	2025.44
372.48	2047.97
372.69	2109.41
372.91	2142.18
373.12	2150.37
373.34	2072.54
373.55	2093.02
373.77	2138.08
373.98	2084.83
374.20	2072.54
374.41	2250.72
374.62	2117.60
374.84	2076.64
375.05	2195.42
375.27	2127.84
375.48	2205.66
375.70	2199.52
375.91	2166.75
376.12	2293.72
376.34	2156.51
376.55	2123.74
376.77	2224.09
376.98	2131.94
377.19	2211.81
377.41	2125.79
377.62	2170.85
377.84	2215.90
378.05	2367.45
378.27	2240.48
378.48	2318.30
378.69	2336.73
378.91	2371.55
379.12	2179.04
379.34	2230.24
379.55	2359.26
379.76	2170.85
379.98	2187.23
380.19	2240.48
380.41	2318.30
380.62	2338.78
380.83	2236.38
381.05	2197.47
381.26	2418.65
381.47	2213.85
381.69	2324.44
381.90	2338.78
382.12	2254.81
382.33	2279.39
382.54	2328.54
382.76	2195.42
382.97	2312.16
383.19	2328.54
383.40	2330.59
383.61	2199.52
383.83	2269.15
384.04	2263.01
384.25	2404.32
384.47	2334.68
384.68	2430.94
384.89	2320.35
385.11	2322.40
385.32	2324.44
385.54	2394.08
385.75	2328.54
385.96	2387.93
386.18	2420.70
386.39	2453.47
386.60	2412.51
386.82	2408.41
387.03	2414.56
387.24	2492.38
387.46	2412.51
387.67	2383.84
387.88	2543.58
388.10	2455.51
388.31	2410.46
388.52	2582.49
388.74	2609.11
388.95	2547.67
389.16	2480.09
389.38	2549.72
389.59	2580.44
389.80	2639.83
390.02	2435.03
390.23	2662.36
390.44	2523.10
390.66	2494.43
390.87	2541.53
391.08	2543.58
391.30	2648.02
391.51	2551.77
391.72	2719.70
391.94	2643.93
392.15	2668.50
392.36	2607.06
392.58	2609.11
392.79	2662.36
393.00	2643.93
393.22	2754.52
393.43	2789.33
393.64	2795.48
393.85	2801.62
394.07	2680.79
394.28	2639.83
394.49	2787.29
394.71	2826.20
394.92	2871.25
395.13	2652.12
395.35	2801.62
395.56	2658.26
395.77	2705.37
395.98	2811.86
396.20	2949.08
396.41	2811.86
396.62	2801.62
396.84	2787.29
397.05	2818.00
397.26	2949.08
397.47	3002.32
397.69	2822.10
397.90	3059.67
398.11	2883.54
398.32	2822.10
398.54	2918.36
398.75	2961.36
398.96	2953.17
399.18	3033.04
399.39	2922.45
399.60	2944.98
399.81	2963.41
400.03	2992.08
400.24	3262.41
400.45	2858.96
400.66	2969.55
400.88	3045.33
401.09	3176.40
401.30	3012.56
401.51	3117.01
401.73	3155.92
401.94	3043.28
402.15	3157.97
402.36	3147.73
402.58	3305.42
402.79	3100.62
403.00	3147.73
403.21	3055.57
403.43	3231.69
403.64	3305.42
403.85	3164.11
404.06	3237.84
404.27	3080.14
404.49	3149.78
404.70	3133.39
404.91	3246.03
405.12	3145.68
405.34	3246.03
405.55	3334.09
405.76	3219.41
405.97	3229.65
406.19	3387.34
406.40	3215.31
406.61	3309.52
406.82	3430.35
407.03	3313.61
407.25	3237.84
407.46	3393.48
407.67	3370.96
407.88	3426.25
408.09	3385.29
408.31	3299.28
408.52	3440.59
408.73	3366.86
408.94	3375.05
409.15	3401.68
409.37	3512.27
409.58	3504.07
409.79	3418.06
410.00	3538.89
410.21	3418.06
410.43	3370.96
410.64	3319.76
410.85	3416.01
411.06	3524.55
411.27	3567.56
411.48	3585.99
411.70	3452.88
411.91	3579.85
412.12	3674.06
412.33	3610.57
412.54	3555.27
412.76	3641.29
412.97	3737.54
413.18	3381.20
413.39	3608.52
413.60	3633.10
413.81	3633.10
414.03	3655.62
414.24	3571.66
414.45	3852.23
414.66	3536.84
414.87	3747.78
415.08	3649.48
415.30	3727.30
415.51	3610.57
415.72	3676.10
415.93	3692.49
416.14	3788.74
416.35	3788.74
416.56	3837.89
416.78	3880.90
416.99	3823.56
417.20	3833.80
417.41	3885.00
417.62	3885.00
417.83	3930.05
418.04	3835.85
418.26	3870.66
418.47	3862.47
418.68	4044.74
418.89	3862.47
419.10	4159.42
419.31	4100.03
419.52	4102.08
419.73	3932.10
419.95	4063.17
420.16	4014.02
420.37	3979.20
420.58	4059.07
420.79	3901.38
421.00	4063.17
421.21	4159.42
421.42	4087.75
421.63	4112.32
421.85	3807.17
422.06	4237.25
422.27	4140.99
422.48	4136.90
422.69	4241.34
422.90	4224.96
423.11	4083.65
423.32	4259.78
423.53	4341.69
423.75	4321.21
423.96	4423.61
424.17	4364.22
424.38	4665.27
424.59	4327.36
424.80	4546.49
425.01	4419.52
425.22	4388.80
425.43	4472.76
425.64	4638.65
425.85	4585.40
426.06	4663.22
426.28	4560.83
426.49	4335.55
426.70	4523.96
426.91	4620.22
427.12	4497.34
427.33	4614.07
427.54	4597.69
427.75	4796.34
427.96	4726.71
428.17	4683.70
428.38	4769.72
428.59	4849.59
428.80	4661.18
429.01	4855.73
429.23	4661.18
429.44	4863.93
429.65	4880.31
429.86	4923.32
430.07	4841.40
430.28	4857.78
430.49	4917.17
430.70	5025.72
430.91	5111.73
431.12	4882.36
431.33	5187.50
431.54	5246.90
431.75	5140.40
431.96	5181.36
432.17	5093.30
432.38	5117.87
432.59	5322.67
432.80	5146.55
433.01	5312.43
433.22	5324.72
433.43	5232.56
433.64	5375.92
433.85	5205.94
434.06	5263.28
434.27	5142.45
434.49	5310.38
434.70	5388.21
434.91	5380.01
435.12	5494.70
435.33	5435.31
435.54	5470.12
435.75	5392.30
435.96	5359.53
436.17	5304.24
436.38	5607.34
436.59	5656.49
436.80	5439.40
437.01	5674.92
437.22	5820.33
437.43	5656.49
437.64	5625.77
437.85	5648.30
438.06	5799.85
438.27	5783.46
438.48	5580.71
438.69	5799.85
438.90	5582.76
439.11	5593.00
439.32	5855.14
439.53	5783.46
439.74	5830.57
439.95	5748.65
440.16	5762.98
440.37	5967.78
440.57	5808.04
440.78	5904.29
440.99	5869.48
441.20	5855.14
441.41	5871.53
441.62	5887.91
441.83	5846.95
442.04	6033.32
442.25	5920.68
442.46	6039.46
442.67	6258.59
442.88	6569.88
443.09	5947.30
443.30	6121.38
443.51	6027.17
443.72	6379.42
443.93	6102.95
444.14	6426.53
444.35	6195.11
444.56	6262.69
444.77	6188.96
444.98	6166.43
445.19	6508.44
445.40	6266.78
445.61	6401.95
445.81	6596.51
446.02	6473.63
446.23	6248.35
446.44	6152.10
446.65	6320.03
446.86	6420.38
447.07	6496.16
447.28	6528.92
447.49	6727.58
447.70	6608.80
447.91	6606.75
448.12	6653.85
448.33	6727.58
448.54	6762.39
448.74	6666.14
448.95	6668.19
449.16	6655.90
449.37	6971.29
449.58	6698.91
449.79	6977.43
450.00	6713.24
450.21	6926.23
450.42	6983.57
450.63	7004.05
450.84	6825.88
451.05	7120.79
451.25	6944.66
451.46	6774.68
451.67	7122.84
451.88	7174.03
452.09	7116.69
452.30	7135.12
452.51	7114.64
452.72	7151.51
452.93	7514.00
453.13	7157.65
453.34	7167.89
453.55	7208.85
453.76	7112.60
453.97	7651.21
454.18	7286.67
454.39	7567.24
454.60	7434.13
454.81	7475.09
455.01	7659.40
455.22	7214.99
455.43	7626.64
455.64	7765.90
455.85	7997.32
456.06	7743.37
456.27	7675.79
456.48	7663.50
456.68	7772.04
456.89	7686.03
457.10	7890.82
457.31	7890.82
457.52	7929.74
457.73	8062.85
457.94	8222.59
458.14	7851.91
458.35	8329.09
458.56	8142.72
458.77	8064.90
458.98	8331.14
459.19	8419.20
459.39	8271.75
459.60	8388.48
459.81	8447.87
460.02	8294.27
460.23	8503.17
460.44	8695.68
460.65	8488.83
460.85	8699.77
461.06	8763.26
461.27	8687.48
461.48	8886.14
461.69	8941.43
461.89	8509.31
462.10	8941.43
462.31	8677.24
462.52	8861.56
462.73	8793.98
462.94	9090.93
463.14	9025.40
463.35	9092.98
463.56	9514.86
463.77	9283.44
463.98	9072.50
464.18	9471.86
464.39	9391.98
464.60	9547.63
464.81	9439.09
465.02	9275.25
465.23	9699.18
465.43	9617.26
465.64	9734.00
465.85	9725.80
466.06	9592.69
466.27	10149.73
466.47	9727.85
466.68	9852.78
466.89	9938.79
467.10	10055.53
467.30	9783.15
467.51	10067.81
467.72	10258.28
467.93	10112.87
468.14	10286.95
468.34	10518.37
468.55	10526.56
468.76	10383.20
468.97	10344.29
469.17	10555.23
469.38	10680.16
469.59	10807.13
469.80	10575.71
470.01	10602.33
470.21	10618.72
470.42	10997.59
470.63	11145.05
470.84	10848.09
471.04	11194.20
471.25	11306.84
471.46	11196.25
471.67	11429.71
471.87	11478.86
472.08	11579.22
472.29	11607.89
472.50	11454.29
472.70	11489.10
472.91	11505.49
473.12	11990.86
473.33	12009.29
473.53	11988.81
473.74	11915.08
473.95	12191.56
474.16	12304.20
474.36	12357.44
474.57	12222.28
474.78	12656.45
474.99	12437.31
475.19	12388.16
475.40	12789.56
475.61	12711.74
475.81	13078.33
476.02	13123.38
476.23	12891.96
476.44	12777.28
476.64	13268.79
476.85	13356.85
477.06	13238.07
477.27	13666.10
477.47	13672.24
477.68	13782.83
477.89	13817.65
478.09	13610.80
478.30	13985.58
478.51	13913.90
478.71	14079.79
478.92	14135.08
479.13	14116.65
479.34	14524.19
479.54	14237.48
479.75	14419.75
479.96	14554.91
480.16	14640.93
480.37	14753.57
480.58	14792.48
480.78	15064.86
480.99	15081.24
481.20	15324.95
481.41	15204.12
481.61	15367.96
481.82	15382.29
482.03	15439.64
482.23	15363.86
482.44	15638.29
482.65	15896.33
482.85	15845.13
483.06	15884.05
483.27	16236.30
483.47	15951.63
483.68	16135.95
483.89	16258.82
484.09	16244.49
484.30	16359.17
484.51	16672.51
484.71	16711.42
484.92	16461.57
485.13	16834.30
485.33	16854.78
485.54	16723.71
485.75	17092.35
485.95	17096.44
486.16	17147.64
486.37	17217.27
486.57	17268.47
486.78	17618.68
486.98	17596.15
487.19	17692.40
487.40	17886.96
487.60	17772.27
487.81	18171.63
488.02	17989.36
488.22	17950.45
488.43	18300.65
488.64	18460.39
488.84	18421.48
489.05	18792.16
489.25	18503.40
489.46	18595.56
489.67	18728.67
489.87	19101.40
490.08	18767.59
490.29	19103.45
490.49	19107.55
490.70	19322.59
490.90	19347.16
491.11	19314.39
491.32	19420.89
491.52	19795.67
491.73	19666.64
491.94	19785.43
492.14	19893.97
492.35	20131.53
492.55	20002.51
492.76	20152.01
492.97	20203.21
493.17	20178.64
493.38	20367.05
493.58	20594.37
493.79	20795.07
494.00	20508.36
494.20	20778.69
494.41	20901.57
494.61	20872.90
494.82	21100.22
495.02	20946.62
495.23	21016.26
495.44	20854.47
495.64	21356.22
495.85	21202.62
496.05	21558.97
496.26	21454.52
496.47	22009.52
496.67	21520.06
496.88	21862.07
497.08	21659.32
497.29	22107.82
497.49	21819.06
497.70	22228.65
497.91	22265.52
498.11	22271.66
498.32	22218.41
498.52	22189.74
498.73	22904.48
498.93	22431.40
499.14	22316.72
499.34	22924.96
499.55	22906.53
499.76	22585.00
499.96	22943.39
500.17	22818.47
500.37	23187.10
500.58	23006.88
500.78	23279.26
500.99	23164.57
501.19	23662.23
501.40	23465.63
501.60	23211.68
501.81	23598.74
502.02	23713.43
502.22	23242.40
502.43	23682.71
502.63	23840.40
502.84	23852.69
503.04	23948.95
503.25	23791.25
503.45	23832.21
503.66	24258.19
503.86	24008.34
504.07	24280.72
504.27	24143.50
504.48	24626.82
504.68	24405.64
504.89	25001.60
505.09	24827.53
505.30	24774.28
505.50	24649.35
505.71	24761.99
505.91	25013.89
506.12	24848.00
506.32	24839.81
506.53	25056.90
506.73	25153.15
506.94	25251.45
507.14	25114.24
507.35	25206.40
507.55	25439.87
507.76	25497.21
507.96	25325.18
508.17	25540.22
508.37	25413.24
508.58	25822.84
508.78	25466.49
508.99	26068.59
509.19	25857.65
509.40	26005.11
509.60	25917.04
509.81	25820.79
510.01	25910.90
510.22	26158.70
510.42	26254.96
510.63	26308.21
510.83	26240.62
511.04	26156.66
511.24	26402.41
511.44	26236.53
511.65	26494.57
511.85	26445.42
512.06	26652.27
512.26	26244.72
512.47	26881.64
512.67	27039.33
512.88	26484.33
513.08	26414.70
513.29	26967.65
513.49	26859.11
513.69	26973.80
513.90	27031.14
514.10	27229.79
514.31	27309.66
514.51	27115.11
514.72	27094.63
514.92	27149.92
515.13	27151.97
515.33	27219.55
515.53	27395.68
515.74	27498.08
515.94	27541.08
516.15	27547.23
516.35	27215.46
516.56	27739.74
516.76	27862.61
516.96	27829.85
517.17	28012.12
517.37	27688.54
517.58	27856.47
517.78	28120.66
517.99	27981.40
518.19	28229.20
518.39	28345.94
518.60	28565.07
518.80	28143.19
519.01	28749.39
519.21	28448.33
519.41	28603.98
519.62	28626.51
519.82	28796.49
520.03	28681.80
520.23	28749.39
520.43	28671.56
520.64	29011.53
520.84	29007.43
521.05	29228.61
521.25	29199.94
521.45	29474.37
521.66	29150.79
521.86	29197.89
522.07	29621.82
522.27	29554.24
522.47	29312.58
522.68	29908.54
522.88	29838.90
523.08	30154.29
523.29	29617.72
523.49	29863.48
523.70	30160.44
523.90	30408.24
524.10	29890.10
524.31	30363.18
524.51	30318.13
524.71	30717.48
524.92	30137.91
525.12	30459.44
525.33	30717.48
525.53	30615.08
525.73	31245.86
525.94	30893.61
526.14	30737.96
526.34	30942.76
526.55	31376.93
526.75	31082.02
526.95	31260.20
527.16	31135.27
527.36	31125.03
527.56	31548.96
527.77	31778.33
527.97	31743.52
528.17	31196.71
528.38	31698.46
528.58	31817.24
528.78	32114.20
528.99	31813.15
529.19	32538.13
529.39	31768.09
529.60	32003.61
529.80	32146.97
530.00	32605.71
530.21	32237.08
530.41	32421.39
530.61	32904.71
530.82	32744.97
531.02	32620.05
531.22	32878.09
531.43	32951.82
531.63	33039.88
531.83	33494.53
532.04	33846.78
532.24	33295.88
532.44	33515.01
532.64	33754.62
532.85	33678.85
533.05	33568.26
533.25	33578.50
533.46	33558.02
533.66	34309.62
533.86	33889.79
534.07	34239.99
534.27	34280.95
534.47	34958.83
534.67	34604.53
534.88	34369.01
535.08	34813.42
535.28	35118.57
535.49	35171.82
535.69	34889.20
535.89	35227.11
536.09	35163.62
536.30	35319.27
536.50	35415.52
536.70	35476.96
536.91	35425.76
537.11	35552.74
537.31	35710.43
537.51	35792.35
537.72	36353.49
537.92	35845.60
538.12	36320.73
538.32	36419.03
538.53	36322.77
538.73	36154.84
538.93	36230.62
539.13	36126.17
539.34	36201.94
539.54	36443.60
539.74	36515.28
539.94	36935.12
540.15	36576.72
540.35	36730.32
540.55	36851.15
540.75	37105.10
540.96	36875.73
541.16	36982.22
541.36	37139.91
541.56	37359.05
541.77	37707.20
541.97	37524.93
542.17	37563.84
542.37	37543.36
542.58	37502.40
542.78	37715.39
542.98	37905.85
543.18	37922.24
543.38	38393.27
543.59	38327.74
543.79	37676.48
543.99	37963.20
544.19	37957.05
544.40	38315.45
544.60	38804.91
544.80	38120.89
545.00	38581.68
545.20	39007.66
545.41	38272.44
545.61	38444.47
545.81	39024.04
546.01	38866.35
546.21	39101.87
546.42	38688.18
546.62	38960.56
546.82	38786.48
547.02	38786.48
547.22	39171.50
547.43	38997.42
547.63	39282.09
547.83	39794.08
548.03	38999.47
548.23	39482.79
548.44	39421.35
548.64	39746.98
548.84	39663.01
549.04	39855.52
549.24	39878.05
549.45	40416.66
549.65	39712.16
549.85	39906.72
550.05	39947.68
550.25	39914.91
550.45	40467.86
550.66	40371.61
550.86	40140.19
551.06	40514.97
551.26	40101.28
551.46	40492.44
551.66	40308.12
551.87	40304.02
552.07	40777.11
552.27	40738.19
552.47	40856.98
552.67	40936.85
552.87	40975.76
553.07	40662.42
553.28	41035.15
553.48	41416.07
553.68	40945.04
553.88	41149.84
554.08	41033.10
554.28	40945.04
554.48	40813.97
554.69	41207.18
554.89	41110.92
555.09	41133.45
555.29	41080.21
555.49	41495.94
555.69	41301.39
555.89	41264.52
556.10	41827.71
556.30	41309.58
556.50	41696.64
556.70	41393.54
556.90	41555.33
557.10	42108.29
557.30	41786.75
557.50	42050.94
557.70	41526.66
557.91	42270.08
558.11	41799.04
558.31	41942.40
558.51	42419.58
558.71	42073.47
558.91	42317.18
559.11	42405.24
559.31	42048.89
559.51	42130.81
559.72	42530.17
559.92	42513.78
560.12	42243.45
560.32	42474.87
560.52	42231.16
560.72	42636.66
560.92	42718.58
561.12	42685.81
561.32	42698.10
561.52	42358.14
561.72	43179.37
561.93	42558.84
562.13	42675.57
562.33	42528.12
562.53	43206.00
562.73	42706.29
562.93	42849.65
563.13	43451.75
563.33	43064.69
563.53	43568.49
563.73	43015.54
563.93	43099.50
564.13	43429.23
564.33	43029.87
564.53	43283.82
564.74	43562.34
564.94	43216.24
565.14	43283.82
565.34	43023.73
565.54	43330.92
565.74	43509.10
565.94	43808.10
566.14	43410.79
566.34	43431.27
566.54	44072.29
566.74	43550.06
566.94	43781.48
567.14	43832.68
567.34	43644.26
567.54	44207.45
567.74	43617.64
567.94	43691.37
568.14	44148.06
568.34	44402.01
568.54	43933.03
568.74	44141.92
568.94	44037.47
569.14	43953.51
569.34	44195.17
569.54	44455.26
569.75	44313.95
569.95	44180.83
570.15	44531.03
570.35	43922.79
570.55	44733.78
570.75	44594.52
570.95	44483.93
571.15	44479.83
571.35	44825.94
571.55	44791.12
571.75	44506.46
571.95	44582.23
572.15	44610.90
572.35	44975.44
572.55	44866.90
572.75	44615.00
572.95	44819.80
573.15	44791.12
573.35	44647.77
573.55	44457.31
573.75	45239.63
573.95	45208.91
574.15	45092.18
574.35	45172.05
574.55	45188.43
574.75	44766.55
574.95	45563.21
575.15	45114.70
575.34	45446.47
575.54	45700.42
575.74	45491.53
575.94	45630.79
576.14	45466.95
576.34	45763.91
576.54	45905.22
576.74	45833.54
576.94	45469.00
577.14	45774.15
577.34	46386.49
577.54	45593.93
577.74	45976.90
577.94	46159.17
578.14	45952.32
578.34	46476.60
578.54	45989.19
578.74	45925.70
578.94	46648.63
579.14	46142.78
579.34	46148.93
579.54	46269.76
579.74	46695.74
579.94	46351.68
580.13	46503.23
580.33	46429.50
580.53	46419.26
580.73	46456.12
580.93	46579.00
581.13	46759.22
581.33	47359.28
581.53	47062.32
581.73	47154.48
581.93	47308.08
582.13	47244.59
582.33	47093.04
582.53	47078.71
582.73	47338.80
582.92	47095.09
583.12	47478.06
583.32	47301.93
583.52	47136.05
583.72	47488.30
583.92	47125.81
584.12	47846.69
584.32	47883.56
584.52	47500.59
584.72	47645.99
584.92	47625.51
585.11	48420.13
585.31	47910.18
585.51	48129.31
585.71	47906.08
585.91	47922.47
586.11	47967.52
586.31	47996.20
586.51	48125.22
586.71	47938.85
586.91	48448.80
587.10	48454.94
587.30	48127.27
587.50	48479.52
587.70	48702.74
587.90	48274.72
588.10	48422.17
588.30	48653.59
588.50	48489.76
588.69	48549.15
588.89	48821.53
589.09	48641.31
589.29	48508.19
589.49	49141.01
589.69	48674.07
589.89	49057.04
590.08	49206.55
590.28	48862.49
590.48	48862.49
590.68	48831.77
590.88	49190.16
591.08	49100.05
591.28	49169.68
591.47	49540.36
591.67	49100.05
591.87	49184.02
592.07	49351.95
592.27	49194.26
592.47	49202.45
592.67	49460.49
592.86	49628.43
593.06	49691.91
593.26	49657.10
593.46	49888.52
593.66	49360.14
593.86	49521.93
594.05	49722.63
594.25	49872.14
594.45	49802.50
594.65	49718.54
594.85	49440.01
595.05	49804.55
595.24	50083.08
595.44	49757.45
595.64	50128.13
595.84	50121.99
596.04	50375.94
596.23	50406.65
596.43	50791.67
596.63	50408.70
596.83	50466.05
597.03	50754.81
597.22	50705.66
597.42	49855.75
597.62	50816.25
597.82	50906.36
598.02	50707.71
598.21	50975.99
598.41	50558.20
598.61	50846.97
598.81	50719.99
599.01	50984.18
599.20	50885.88
599.40	50681.08
599.60	51213.55
599.80	51199.22
600.00	51242.23
600.19	51510.51
600.39	50939.13
600.59	51352.82
600.79	51481.84
600.98	51057.91
601.18	51330.29
601.38	51893.48
601.58	51584.24
601.78	51698.92
601.97	51459.31
602.17	52468.96
602.37	51768.55
602.57	51928.30
602.76	51999.97
602.96	51752.17
603.16	52106.47
603.36	51877.10
603.55	52333.79
603.75	52425.95
603.95	52442.34
604.15	52200.68
604.34	52339.94
604.54	52217.06
604.74	52081.89
604.94	52327.65
605.13	52077.80
605.33	52440.29
605.53	52487.39
605.73	53073.11
605.92	52710.62
606.12	53077.21
606.32	52813.02
606.52	52520.16
606.71	52931.80
606.91	53064.92
607.11	52896.98
607.30	52718.81
607.50	52675.80
607.70	52995.29
607.90	53171.41
608.09	52917.46
608.29	52827.35
608.49	53429.46
608.68	53107.93
608.88	53202.13
609.08	53195.99
609.28	53310.67
609.47	52923.61
609.67	53896.39
609.87	53415.12
610.06	53472.46
610.26	53445.84
610.46	53593.29
610.66	53763.28
610.85	53345.49
611.05	53857.48
611.25	53761.23
611.44	53486.80
611.64	53761.23
611.84	53591.25
612.03	53515.47
612.23	53941.45
612.43	54162.63
612.62	53761.23
612.82	54027.46
613.02	54086.85
613.21	53632.21
613.41	53503.18
613.61	53769.42
613.80	53505.23
614.00	54140.10
614.20	53671.12
614.39	53675.21
614.59	54078.66
614.79	53720.27
614.98	54074.57
615.18	54285.51
615.38	53929.16
615.57	53900.49
615.77	53884.11
615.97	53904.59
616.16	53460.18
616.36	54142.15
616.56	54142.15
616.75	54033.61
616.95	54105.29
617.15	53902.54
617.34	54002.89
617.54	53931.21
617.74	54348.99
617.93	53902.54
618.13	53548.24
618.32	54285.51
618.52	54033.61
618.72	53906.63
618.91	54195.40
619.11	53912.78
619.31	53843.15
619.50	54027.46
619.70	53943.50
619.90	54179.01
620.09	53996.74
620.29	54246.60
620.48	53744.84
620.68	54547.65
620.88	53816.52
621.07	54072.52
621.27	53753.04
621.46	53716.17
621.66	54095.05
621.86	54203.59
622.05	54193.35
622.25	53953.74
622.44	53834.95
622.64	53804.24
622.84	54482.11
623.03	53957.83
623.23	54510.78
623.42	54162.63
623.62	53902.54
623.82	54387.91
624.01	54277.32
624.21	54002.89
624.40	53953.74
624.60	54258.88
624.80	53601.49
624.99	53951.69
625.19	53947.59
625.38	54174.92
625.58	53978.31
625.77	54150.34
625.97	54174.92
626.17	54006.98
626.36	54004.94
626.56	54170.82
626.75	53624.01
626.95	54404.29
627.14	53959.88
627.34	54484.16
627.54	54006.98
627.73	54238.40
627.93	54080.71
628.12	53966.02
628.32	54031.56
628.51	54021.32
628.71	53785.80
628.90	53810.38
629.10	53718.22
629.30	54002.89
629.49	54348.99
629.69	53886.15
629.88	53855.43
630.08	54312.13
630.27	54586.56
630.47	54359.23
630.66	54594.75
630.86	54451.39
631.05	53705.93
631.25	54621.37
631.44	54400.19
631.64	53804.24
631.84	54191.30
632.03	54572.22
632.23	54025.42
632.42	54664.38
632.62	54572.22
632.81	54037.70
633.01	54207.68
633.20	54453.44
633.40	54834.36
633.59	54629.57
633.79	54166.73
633.98	54906.04
634.18	54262.98
634.37	54305.99
634.57	54504.64
634.76	54643.90
634.96	54578.37
635.15	54596.80
635.35	54422.72
635.54	54074.57
635.74	54449.35
635.93	54043.85
636.13	54766.78
636.32	54942.91
636.52	54109.38
636.71	54498.50
636.91	54746.30
637.10	54996.15
637.30	54830.27
637.49	54627.52
637.69	54916.28
637.88	55227.57
638.08	54414.53
638.27	54717.63
638.46	54572.22
638.66	54379.71
638.85	54975.67
639.05	54596.80
639.24	54834.36
639.44	54664.38
639.63	54701.25
639.83	54645.95
640.02	54711.49
640.22	54508.74
640.41	54983.86
640.61	54369.47
640.80	54654.14
640.99	54580.42
641.19	55362.74
641.38	54850.75
641.58	54670.53
641.77	54688.96
641.97	54488.26
642.16	54723.77
642.36	55030.97
642.55	55645.36
642.74	55014.58
642.94	55436.47
643.13	55045.30
643.33	55348.40
643.52	55338.16
643.72	54807.74
643.91	55114.94
644.10	55338.16
644.30	55205.05
644.49	55080.12
644.69	55063.74
644.88	55356.60
645.08	55143.61
645.27	55086.26
645.46	54516.93
645.66	55784.62
645.85	55186.61
646.05	55489.71
646.24	55252.15
646.43	55784.62
646.63	55422.13
646.82	55628.98
647.02	55280.82
647.21	55671.98
647.40	55264.44
647.60	55661.74
647.79	55426.23
647.99	55545.01
648.18	55516.34
648.37	55645.36
648.57	56140.97
648.76	55780.52
648.96	55579.82
649.15	55432.37
649.34	56022.19
649.54	56026.28
649.73	55760.05
649.92	56083.62
650.12	55690.41
650.31	55934.12
650.51	56063.14
650.70	56175.78
650.89	55774.38
651.09	55952.55
651.28	56302.76
651.47	56315.04
651.67	55717.04
651.86	56272.04
652.06	55571.63
652.25	56120.49
652.44	56081.58
652.64	55692.46
652.83	55940.27
653.02	55620.78
653.22	55964.84
653.41	55899.31
653.60	55919.79
653.80	55831.72
653.99	56040.62
654.18	55766.19
654.38	55667.89
654.57	56181.93
654.76	56181.93
654.96	55604.40
655.15	55854.25
655.34	56165.54
655.54	55821.48
655.73	56140.97
655.92	56679.58
656.12	56057.00
656.31	56108.20
656.50	56267.94
656.70	56448.16
656.89	56304.80
657.08	56214.69
657.28	56100.01
657.47	56186.02
657.66	56626.34
657.86	56169.64
658.05	56640.67
658.24	56562.85
658.43	56024.23
658.63	56456.35
658.82	56732.83
659.01	56779.93
659.21	56521.89
659.40	56335.52
659.59	56474.79
659.79	56753.31
659.98	56267.94
660.17	56665.25
660.36	56466.59
660.56	56265.89
660.75	56304.80
660.94	56323.24
661.14	56370.34
661.33	56200.36
661.52	55923.88
661.71	56534.18
661.91	56399.01
662.10	56237.22
662.29	56568.99
662.49	56597.66
662.68	56724.64
662.87	56798.37
663.06	56435.87
663.26	56730.78
663.45	56546.47
663.64	56470.69
663.83	56816.80
664.03	57025.69
664.22	56243.37
664.41	56939.68
664.60	56626.34
664.80	56767.65
664.99	56300.71
665.18	56718.49
665.37	56851.61
665.57	56632.48
665.76	56673.44
665.95	56575.14
666.14	56497.31
666.34	56554.66
666.53	56517.79
666.72	55987.37
666.91	56261.80
667.11	56419.49
667.30	56405.16
667.49	56564.90
667.68	56157.35
667.87	56313.00
668.07	56620.19
668.26	56153.26
668.45	56194.21
668.64	56538.27
668.84	56583.33
669.03	56775.84
669.22	56442.02
669.41	56485.03
669.60	56341.67
669.80	56374.44
669.99	56788.13
670.18	56925.34
670.37	56362.15
670.57	57089.18
670.76	56634.53
670.95	56704.16
671.14	56886.43
671.33	56093.86
671.53	56663.20
671.72	56691.87
671.91	56769.69
672.10	56497.31
672.29	56366.24
672.48	56028.33
672.68	56618.14
672.87	55981.23
673.06	56081.58
673.25	55989.42
673.44	56337.57
673.64	56427.68
673.83	56335.52
674.02	55995.56
674.21	56022.19
674.40	56419.49
674.59	56067.24
674.79	55831.72
674.98	56048.81
675.17	56102.06
675.36	56382.63
675.55	56243.37
675.74	55794.86
675.94	56173.73
676.13	56353.96
676.32	56286.37
676.51	56319.14
676.70	56204.45
676.89	56331.43
677.08	56652.96
677.28	56202.41
677.47	56470.69
677.66	56394.92
677.85	55803.05
678.04	56468.64
678.23	56347.81
678.42	56401.06
678.62	56382.63
678.81	56315.04
679.00	55915.69
679.19	56812.70
679.38	56695.97
679.57	56132.78
679.76	56284.33
679.96	56138.92
680.15	56552.61
680.34	56069.29
680.53	55852.20
680.72	56128.68
680.91	56165.54
681.10	55911.59
681.29	56181.93
681.48	55973.03
681.68	55764.14
681.87	55923.88
682.06	55850.16
682.25	55706.80
682.44	55710.89
682.63	55540.91
682.82	55264.44
683.01	55514.29
683.20	55469.23
683.39	55934.12
683.59	55383.22
683.78	55413.94
683.97	55258.29
684.16	56057.00
684.35	55876.78
684.54	55678.13
684.73	55635.12
684.92	55620.78
685.11	55334.07
685.30	55524.53
685.49	55577.78
685.69	55512.24
685.88	55297.20
686.07	55547.06
686.26	55180.47
686.45	55567.54
686.64	55663.79
686.83	55383.22
687.02	55590.06
687.21	55604.40
687.40	55628.98
687.59	55364.79
687.78	55387.31
687.97	55598.26
688.16	55125.17
688.35	55377.08
688.54	54901.95
688.74	55262.39
688.93	55016.63
689.12	55235.77
689.31	55465.14
689.50	55047.35
689.69	54541.50
689.88	54082.76
690.07	54990.01
690.26	55121.08
690.45	55338.16
690.64	55217.33
690.83	54985.91
691.02	54547.65
691.21	54912.19
691.40	54400.19
691.59	54875.32
691.78	54815.93
691.97	55237.81
692.16	54809.79
692.35	54756.54
692.54	54473.92
692.73	54871.23
692.92	54967.48
693.11	54703.29
693.30	54244.55
693.49	54559.94
693.68	54408.39
693.87	54424.77
694.06	54244.55
694.25	54260.93
694.44	54418.63
694.63	54541.50
694.82	54400.19
695.01	54572.22
695.20	54133.96
695.39	54428.87
695.58	54475.97
695.77	54117.57
695.96	53908.68
696.15	54187.21
696.34	54205.64
696.53	54097.09
696.72	54293.70
696.91	54066.38
697.10	53984.46
697.29	53904.59
697.48	54432.96
697.67	53470.42
697.86	53923.02
698.05	53834.95
698.24	54355.14
698.43	53490.90
698.62	54023.37
698.81	53460.18
699.00	54064.33
699.19	53294.29
699.38	54131.91
699.57	53587.15
699.76	53959.88
699.95	53673.16
700.14	53382.35
700.32	53101.78
700.51	53429.46
700.70	53482.70
700.89	53916.87
701.08	53581.01
701.27	53400.79
701.46	53578.96
701.65	53241.04
701.84	53333.20
702.03	53013.72
702.22	52980.95
702.41	53376.21
702.60	53597.39
702.79	53316.82
702.98	52706.52
703.17	53142.74
703.35	53470.42
703.54	53269.72
703.73	53439.70
703.92	53140.69
704.11	53470.42
704.30	52698.33
704.49	52634.84
704.68	52698.33
704.87	52722.91
705.06	52915.42
705.25	52501.73
705.43	53003.48
705.62	52815.07
705.81	52618.46
706.00	52817.11
706.19	52249.83
706.38	52186.34
706.57	52661.47
706.76	52315.36
706.95	52774.11
707.14	52368.61
707.32	52575.45
707.51	52143.33
707.70	52305.12
707.89	52454.62
708.08	52088.04
708.27	52161.76
708.46	52286.69
708.65	51952.87
708.84	52049.13
709.02	52645.08
709.21	52335.84
709.40	51887.34
709.59	52276.45
709.78	51344.62
709.97	52129.00
710.16	51889.38
710.34	51588.33
710.53	51901.67
710.72	51981.54
710.91	52266.21
711.10	52331.75
711.29	51713.26
711.48	51610.86
711.66	51862.76
711.85	51481.84
712.04	51786.99
712.23	51746.03
712.42	51115.25
712.61	51231.99
712.80	51328.24
712.98	51703.02
713.17	51414.26
713.36	51379.44
713.55	51719.40
713.74	51334.38
713.93	51096.82
714.11	51318.00
714.30	51102.96
714.49	50978.04
714.68	51193.07
714.87	51492.08
715.06	51610.86
715.24	50717.95
715.43	51150.07
715.62	51315.95
715.81	50816.25
716.00	51289.33
716.18	50863.35
716.37	50758.91
716.56	50285.82
716.75	51070.20
716.94	50951.41
717.12	50384.13
717.31	51115.25
717.50	50758.91
717.69	50586.88
717.88	51088.63
718.06	50496.77
718.25	50687.23
718.44	50173.19
718.63	50244.87
718.82	49894.66
719.00	50461.95
719.19	50445.57
719.38	50353.41
719.57	49820.94
719.76	50023.68
719.94	49784.07
720.13	49804.55
720.32	49788.17
720.51	49962.25
720.69	49947.91
720.88	49784.07
721.07	49566.99
721.26	49108.24
721.44	49149.20
721.63	49345.81
721.82	49460.49
722.01	49003.80
722.20	49433.87
722.38	49034.52
722.57	48608.54
722.76	48776.47
722.95	48741.66
723.13	48698.65
723.32	49059.09
723.51	48362.78
723.70	48772.38
723.88	48690.46
724.07	48592.15
724.26	48727.32
724.44	48461.08
724.63	49165.59
724.82	48674.07
725.01	48442.65
725.19	48811.29
725.38	48512.28
725.57	48397.60
725.76	48733.46
725.94	48094.50
726.13	48233.76
726.32	48121.12
726.51	48053.54
726.69	48631.07
726.88	48637.21
727.07	48321.82
727.25	48047.39
727.44	48309.53
727.63	47828.26
727.82	48094.50
728.00	48069.92
728.19	48317.73
728.38	48391.45
728.56	47611.18
728.75	48176.42
728.94	47826.21
729.12	47826.21
729.31	48045.35
729.50	47650.09
729.69	48084.26
729.87	48301.34
730.06	48024.87
730.25	48307.49
730.43	48618.78
730.62	47721.77
730.81	47959.33
730.99	47779.11
731.18	47367.47
731.37	48174.37
731.55	48231.71
731.74	48010.53
731.93	47762.73
732.11	47772.97
732.30	47836.45
732.49	47617.32
732.67	47666.47
732.86	47885.61
733.05	47584.55
733.23	47625.51
733.42	47682.86
733.61	47848.74
733.79	47756.58
733.98	48086.31
734.17	47885.61
734.35	47740.20
734.54	48045.35
734.73	47879.46
734.91	47793.45
735.10	47433.00
735.29	48012.58
735.47	47490.35
735.66	47822.12
735.84	47826.21
736.03	47269.17
736.22	47572.27
736.40	46972.21
736.59	47611.18
736.78	47191.34
736.96	46974.26
737.15	47174.96
737.33	47531.31
737.52	47047.99
737.71	47473.96
737.89	47136.05
738.08	47242.54
738.27	46781.75
738.45	47279.41
738.64	46802.23
738.82	46826.81
739.01	47177.01
739.20	47027.51
739.38	46927.16
739.57	47281.45
739.75	47160.62
739.94	46736.69
740.13	46849.33
740.31	46914.87
740.50	46861.62
740.68	47138.10
740.87	47156.53
741.06	47142.19
741.24	46765.37
741.43	46738.74
741.61	47115.57
741.80	46626.10
741.99	46556.47
742.17	46785.85
742.36	46349.63
742.54	46675.26
742.73	46474.55
742.91	46716.22
743.10	46429.50
743.29	46613.82
743.47	46925.11
743.66	46185.79
743.84	46380.35
744.03	46484.79
744.21	46210.37
744.40	46687.54
744.59	46363.96
744.77	45999.43
744.96	45860.16
745.14	45874.50
745.33	46150.98
745.51	45808.96
745.70	46073.15
745.88	46355.77
746.07	46241.09
746.26	46003.52
746.44	46323.01
746.63	45708.61
746.81	45882.69
747.00	45690.18
747.18	46150.98
747.37	45665.61
747.55	45866.31
747.74	46200.13
747.92	45362.51
748.11	45376.84
748.29	45561.16
748.48	46036.29
748.66	45579.59
748.85	45471.05
749.03	45614.41
749.22	45577.54
749.41	45477.19
749.59	45804.87
749.78	45655.37
749.96	45245.77
750.15	45378.89
750.33	45700.42
750.52	45874.50
750.70	45614.41
750.89	44877.14
751.07	45120.85
751.26	45368.65
751.44	45165.90
751.63	44909.91
751.81	45018.45
752.00	44729.69
752.18	45294.92
752.37	44881.24
752.55	44799.32
752.74	44819.80
752.92	44539.22
753.10	44512.60
753.29	44674.39
753.47	44666.20
753.66	44676.44
753.84	45219.15
754.03	44453.21
754.21	44279.13
754.40	44604.76
754.58	45069.65
754.77	44186.97
754.95	44508.50
755.14	44105.06
755.32	44500.31
755.51	43988.32
755.69	44569.94
755.88	43935.07
756.06	44373.34
756.24	44023.14
756.43	44377.43
756.61	44105.06
756.80	43963.75
756.98	43922.79
757.17	43779.43
757.35	44262.75
757.54	43857.25
757.72	44012.90
757.90	44180.83
758.09	44109.15
758.27	44146.01
758.46	43758.95
758.64	43883.87
758.83	44330.33
759.01	43750.76
759.19	43586.92
759.38	43859.30
759.56	43562.34
759.75	43785.57
759.93	43636.07
760.12	43580.78
760.30	43697.51
760.48	43392.36
760.67	43375.98
760.85	43584.87
761.04	43218.28
761.22	43648.36
761.40	43287.92
761.59	43302.25
761.77	42806.64
761.96	43533.67
762.14	43111.79
762.32	43099.50
762.51	42792.31
762.69	43081.07
762.88	43058.54
763.06	42941.81
763.24	43040.11
763.43	43183.47
763.61	42739.06
763.80	42429.82
763.98	42583.41
764.16	42737.01
764.35	42261.88
764.53	42571.13
764.72	42737.01
764.90	42814.83
765.08	42575.22
765.27	42300.79
765.45	42102.14
765.63	41803.14
765.82	42485.11
766.00	42075.52
766.18	42005.89
766.37	42548.60
766.55	42294.65
766.74	42278.27
766.92	42188.16
767.10	42020.22
767.29	42159.48
767.47	41684.36
767.65	42104.19
767.84	41696.64
768.02	41833.86
768.20	41801.09
768.39	42065.28
768.57	42030.46
768.75	41813.38
768.94	42110.33
769.12	41706.88
769.30	41588.10
769.49	41282.95
769.67	41489.80
769.85	41201.04
770.04	41348.49
770.22	41481.61
770.40	41061.77
770.59	40961.42
770.77	41239.95
770.95	41328.01
771.14	40846.74
771.32	41033.10
771.50	40750.48
771.69	40779.15
771.87	40699.28
772.05	40920.46
772.24	40523.16
772.42	40904.08
772.60	40998.29
772.78	40674.71
772.97	40416.66
773.15	40869.26
773.33	40527.25
773.52	40549.78
773.70	40607.12
773.88	40813.97
774.07	40650.13
774.25	40580.50
774.43	40887.70
774.61	40308.12
774.80	41074.06
774.98	40721.81
775.16	40703.38
775.34	40734.10
775.53	40441.24
775.71	41180.56
775.89	40611.22
776.08	40908.18
776.26	41069.97
776.44	40779.15
776.62	40422.81
776.81	40275.35
776.99	40953.23
777.17	40629.65
777.35	40994.19
777.54	40977.81
777.72	40408.47
777.90	40756.63
778.08	40660.37
778.27	40940.94
778.45	41002.38
778.63	41373.06
778.81	40826.26
779.00	41416.07
779.18	41018.77
779.36	41358.73
779.54	41080.21
779.73	40977.81
779.91	41182.60
780.09	41219.47
780.27	41411.98
780.46	40981.90
780.64	41657.73
780.82	41559.43
781.00	41555.33
781.19	41426.31
781.37	41776.51
781.55	41774.47
781.73	41512.33
781.91	41047.44
782.10	41481.61
782.28	41571.72
782.46	41414.02
782.64	41962.88
782.82	41383.30
783.01	41541.00
783.19	41563.53
783.37	41788.80
783.55	41602.44
783.74	42016.13
783.92	41467.27
784.10	42188.16
784.28	41586.05
784.46	41624.96
784.64	41459.08
784.83	41635.20
785.01	41983.36
785.19	41358.73
785.37	41934.21
785.55	41917.82
785.74	41411.98
785.92	41530.76
786.10	41530.76
786.28	41534.85
786.46	41627.01
786.64	41467.27
786.83	41497.99
787.01	41708.93
787.19	41454.98
787.37	41342.35
787.55	41258.38
787.74	41280.91
787.92	41612.68
788.10	40891.79
788.28	40863.12
788.46	41174.41
788.64	40850.83
788.82	41198.99
789.01	41088.40
789.19	40738.19
789.37	40770.96
789.55	40865.17
789.73	40496.53
789.91	40803.73
790.09	40596.88
790.28	40811.92
790.46	40375.70
790.64	40433.05
790.82	40584.60
791.00	40207.77
791.18	40142.24
791.36	40062.36
791.55	40175.00
791.73	40175.00
791.91	39720.35
792.09	40195.48
792.27	40066.46
792.45	39890.34
792.63	39646.63
792.81	39816.61
793.00	39669.15
793.18	39486.89
793.36	39736.74
793.54	39015.85
793.72	39445.93
793.90	39157.16
794.08	38882.73
794.26	38991.28
794.44	38669.75
794.62	38679.99
794.81	39183.79
794.99	38935.98
795.17	38831.54
795.35	38706.61
795.53	38741.42
795.71	38591.92
795.89	38092.22
796.07	38333.88
796.25	37965.24
796.43	37852.61
796.61	38208.95
796.80	37680.58
796.98	37881.28
797.16	37723.58
797.34	37840.32
797.52	37379.53
797.70	37567.94
797.88	37658.05
798.06	37103.05
798.24	37365.19
798.42	37168.58
798.60	37297.61
798.78	37264.84
798.96	37359.05
799.14	36546.00
799.32	37047.75
799.51	36619.73
799.69	36779.47
799.87	36814.29
800.05	36611.54
800.23	36408.79
800.41	36464.08
800.59	36754.90
800.77	36210.14
800.95	36138.46
801.13	36335.06
801.31	36136.41
801.49	36212.18
801.67	35853.79
801.85	36048.35
802.03	35630.56
802.21	35444.20
802.39	35024.36
802.57	35755.49
802.75	35315.17
802.93	35460.58
803.11	35667.42
803.29	35352.04
803.47	35130.86
803.65	34960.87
803.83	35206.63
804.01	35192.30
804.19	34452.98
804.37	34518.51
804.55	34536.94
804.73	34471.41
804.91	34657.78
805.09	34541.04
805.27	34690.54
805.45	34467.31
805.63	34616.82
805.81	34205.17
805.99	34508.27
806.17	34395.64
806.35	34311.67
806.53	34078.20
806.71	33971.71
806.89	33879.55
807.07	33854.97
807.25	33975.80
807.43	33431.04
807.61	33897.98
807.79	33660.41
807.97	33299.97
808.15	33570.30
808.33	33109.51
808.51	33488.38
808.69	33220.10
808.87	33037.83
809.05	33379.84
809.23	32646.67
809.41	32656.91
809.59	33048.07
809.77	33127.94
809.95	32683.53
810.13	32966.15
810.31	32607.76
810.49	32620.05
810.67	32470.54
810.84	32618.00
811.02	32673.29
811.20	32316.95
811.38	32454.16
811.56	32007.70
811.74	32063.00
811.92	31882.78
812.10	32091.67
812.28	32030.23
812.46	32005.66
812.64	31753.76
812.82	31602.21
813.00	31921.69
813.18	31583.77
813.36	31671.84
813.53	31249.96
813.71	31389.22
813.89	31274.53
814.07	31614.49
814.25	31643.17
814.43	31383.07
814.61	31008.29
814.79	31012.39
814.97	31165.99
815.15	31313.44
815.33	30912.04
815.50	30561.84
815.68	31071.78
815.86	31024.68
816.04	30733.87
816.22	30600.75
816.40	30610.99
816.58	30391.86
816.76	30152.24
816.94	30359.09
817.11	30412.34
817.29	30156.34
817.47	30285.36
817.65	30160.44
817.83	30033.46
818.01	30135.86
818.19	29982.26
818.37	30058.04
818.54	29914.68
818.72	29920.82
818.90	30070.33
819.08	29546.05
819.26	29861.43
819.44	29896.25
819.62	29490.75
819.80	29646.40
819.97	29630.01
820.15	29433.41
820.33	29267.52
820.51	29681.21
820.69	29619.77
820.87	29435.45
821.05	29476.41
821.22	29806.14
821.40	29275.71
821.58	29288.00
821.76	28823.11
821.94	29369.92
822.12	28968.52
822.29	29052.48
822.47	29034.05
822.65	29242.95
822.83	29140.55
823.01	28859.98
823.19	29197.89
823.36	28507.72
823.54	28466.77
823.72	28778.06
823.90	28599.88
824.08	28646.99
824.25	28536.40
824.43	28735.05
824.61	28010.07
824.79	28524.11
824.97	27944.53
825.15	28239.44
825.32	28151.38
825.50	27905.62
825.68	28218.96
825.86	28165.71
826.04	28147.28
826.21	27981.40
826.39	27962.97
826.57	28108.37
826.75	27874.90
826.93	27934.29
827.10	27999.83
827.28	27717.21
827.46	28014.16
827.64	27919.96
827.81	27543.13
827.99	27696.73
828.17	27403.87
828.35	27633.24
828.53	27330.14
828.70	27631.19
828.88	27324.00
829.06	27430.49
829.24	27747.93
829.41	27375.20
829.59	27580.00
829.77	27063.91
829.95	27448.93
830.12	27375.20
830.30	27168.35
830.48	27371.10
830.66	26961.51
830.84	26990.18
831.01	26938.98
831.19	26893.93
831.37	26893.93
831.55	26691.18
831.72	26748.52
831.90	26963.56
832.08	26824.29
832.25	26746.47
832.43	26785.38
832.61	26453.61
832.79	26330.73
832.96	26543.72
833.14	26799.72
833.32	26590.83
833.50	26431.08
833.67	26650.22
833.85	26613.35
834.03	26177.14
834.20	26224.24
834.38	26570.35
834.56	26484.33
834.74	26021.49
834.91	26084.98
835.09	26084.98
835.27	25773.69
835.44	26007.16
835.62	25865.85
835.80	25849.46
835.98	26052.21
836.15	25941.62
836.33	25751.16
836.51	25759.35
836.68	25753.21
836.86	25468.54
837.04	25575.03
837.21	25601.66
837.39	25980.53
837.57	25980.53
837.75	25847.41
837.92	25433.72
838.10	25400.96
838.28	25392.76
838.45	25419.39
838.63	25224.83
838.81	25517.69
838.98	25407.10
839.16	25230.98
839.34	24983.17
839.51	25020.03
839.69	24841.86
839.87	25079.43
840.04	25190.02
840.22	25161.34
840.40	25065.09
840.57	24968.84
840.75	25017.99
840.93	24684.17
841.10	24886.92
841.28	25273.98
841.46	24876.68
841.63	25122.43
841.81	24780.42
841.98	24780.42
842.16	24718.98
842.34	24630.92
842.51	24338.06
842.69	24704.65
842.87	24469.13
843.04	24606.34
843.22	24639.11
843.40	24268.43
843.57	24524.43
843.75	24557.19
843.92	24518.28
844.10	24755.85
844.28	24366.73
844.45	24092.30
844.63	24305.29
844.81	24405.64
844.98	24403.60
845.16	24159.89
845.33	24399.50
845.51	24295.05
845.69	24094.35
845.86	23998.10
846.04	23987.86
846.21	24071.82
846.39	24004.24
846.57	23826.07
846.74	23975.57
846.92	23848.60
847.09	23791.25
847.27	23432.86
847.45	23772.82
847.62	23692.95
847.80	23801.49
847.97	23393.95
848.15	23649.94
848.32	23631.51
848.50	23785.11
848.68	23500.44
848.85	23537.30
849.03	23365.28
849.20	23828.12
849.38	23441.05
849.56	23559.83
849.73	23133.86
849.91	23295.64
850.08	23432.86
850.26	23285.40
850.43	23103.14
850.61	23232.16
850.78	23021.22
850.96	23164.57
851.14	22738.60
851.31	23049.89
851.49	22927.01
851.66	23152.29
851.84	22660.77
852.01	23340.70
852.19	23058.08
852.36	22906.53
852.54	22658.73
852.71	22982.31
852.89	22810.28
853.07	22757.03
853.24	22859.43
853.42	22687.40
853.59	22849.19
853.77	22945.44
853.94	22806.18
854.12	22843.04
854.29	22431.40
854.47	22503.08
854.64	22609.58
854.82	22478.50
854.99	22388.39
855.17	22486.70
855.34	22472.36
855.52	22724.26
855.69	22750.88
855.87	22304.43
856.04	22443.69
856.22	22343.34
856.39	22079.15
856.57	22081.20
856.74	21927.60
856.92	22085.30
857.09	22236.84
857.27	22036.14
857.44	22156.97
857.62	21948.08
857.79	21982.90
857.97	21755.57
858.14	22218.41
858.32	22083.25
858.49	21788.34
858.67	22015.66
858.84	21524.15
859.02	21810.87
859.19	21628.60
859.37	21558.97
859.54	21640.89
859.72	21407.42
859.89	21649.08
860.06	21655.22
860.24	21358.27
860.41	21550.78
860.59	21403.32
860.76	21335.74
860.94	21198.52
861.11	21483.19
861.29	21518.01
861.46	21229.24
861.64	21073.60
861.81	20956.86
861.98	21053.12
862.16	21100.22
862.33	20940.48
862.51	20823.75
862.68	21126.85
862.86	20932.29
863.03	20960.96
863.21	20891.33
863.38	20825.79
863.55	20737.73
863.73	21016.26
863.90	20938.43
864.08	20625.09
864.25	20666.05
864.43	20786.88
864.60	20596.42
864.77	20633.29
864.95	20905.66
865.12	20647.62
865.30	20541.13
865.47	20625.09
865.64	20551.37
865.82	20532.93
865.99	20766.40
866.17	20321.99
866.34	20408.01
866.51	20211.40
866.69	20588.23
866.86	20594.37
867.04	20453.06
867.21	20082.38
867.38	20084.43
867.56	20225.74
867.73	20254.41
867.91	19955.41
868.08	20104.91
868.25	19916.50
868.43	19916.50
868.60	19979.98
868.78	19971.79
868.95	20006.61
869.12	19637.97
869.30	19695.32
869.47	20016.85
869.64	19683.03
869.82	19803.86
869.99	19488.47
870.16	19668.69
870.34	19746.51
870.51	19816.15
870.69	19498.71
870.86	19500.76
871.03	19529.43
871.21	19379.93
871.38	19709.65
871.55	19209.95
871.73	19355.35
871.90	19605.20
872.07	19521.24
872.25	19179.23
872.42	19068.64
872.59	19341.02
872.77	19187.42
872.94	19171.04
873.11	19097.31
873.29	19277.53
873.46	19273.43
873.63	19246.81
873.81	18884.32
873.98	18523.88
874.15	18745.06
874.33	18704.10
874.50	18779.87
874.67	18837.22
874.85	18515.69
875.02	18626.28
875.19	18370.28
875.37	18478.82
875.54	18370.28
875.71	18378.47
875.88	18353.90
876.06	18458.34
876.23	18128.62
876.40	18259.69
876.58	18306.79
876.75	18128.62
876.92	18110.19
877.10	18380.52
877.27	18190.06
877.44	18044.65
877.61	17893.10
877.79	17987.31
877.96	17925.87
878.13	18128.62
878.31	17559.28
878.48	17690.35
878.65	17764.08
878.82	17796.85
879.00	17942.25
879.17	17749.75
879.34	17682.16
879.51	17655.54
879.69	17567.48
879.86	17391.35
880.03	17477.37
880.21	17352.44
880.38	17526.52
880.55	17590.00
880.72	17643.25
880.90	17555.19
881.07	17268.47
881.24	16948.99
881.41	17331.96
881.59	17180.41
881.76	17264.38
881.93	17190.65
882.10	17153.79
882.28	16930.56
882.45	17250.04
882.62	17131.26
882.79	17340.15
882.96	16914.17
883.14	16967.42
883.31	17321.72
883.48	16895.74
883.65	17010.43
883.83	17116.92
884.00	17035.00
884.17	16893.69
884.34	17141.50
884.51	16981.76
884.69	16883.45
884.86	16862.97
885.03	16916.22
885.20	16439.05
885.38	16932.61
885.55	16779.01
885.72	16623.36
885.89	16480.00
886.06	16590.59
886.24	16553.73
886.41	16326.41
886.58	16871.17
886.75	16551.68
886.92	16561.92
887.10	16662.27
887.27	16477.96
887.44	16699.14
887.61	16639.75
887.78	16283.40
887.95	16623.36
888.13	16570.12
888.30	16324.36
888.47	16283.40
888.64	16174.86
888.81	16174.86
888.99	16125.71
889.16	15947.53
889.33	16084.75
889.50	15955.72
889.67	16062.22
889.84	15970.06
890.01	16049.93
890.19	15875.85
890.36	15677.20
890.53	15968.01
890.70	15775.50
890.87	15781.65
891.04	15806.22
891.22	15890.19
891.39	15904.53
891.56	15691.54
891.73	15656.72
891.90	15851.28
892.07	15542.03
892.24	15726.35
892.42	15697.68
892.59	15709.97
892.76	15564.56
892.93	15433.49
893.10	15679.25
893.27	15550.23
893.44	15392.53
893.61	15314.71
893.79	15597.33
893.96	15476.50
894.13	15206.17
894.30	15535.89
894.47	15535.89
894.64	15466.26
894.81	15521.56
894.98	15220.50
895.15	15494.93
895.33	15367.96
895.50	15322.90
895.67	15472.40
895.84	15216.41
896.01	15415.06
896.18	15324.95
896.35	15392.53
896.52	15355.67
896.69	15275.80
896.86	15445.78
897.04	15247.13
897.21	15511.32
897.38	15257.37
897.55	15370.01
897.72	15333.14
897.89	15277.85
898.06	15128.35
898.23	15302.42
898.40	15361.81
898.57	15167.26
898.74	15359.77
898.91	15259.42
899.08	15482.64
899.26	15259.42
899.43	15447.83
899.60	15111.96
899.77	15181.59
899.94	15099.67
900.11	14927.64
900.28	15173.40
900.45	15210.26
900.62	15327.00
900.79	15363.86
900.96	15157.02
901.13	14995.23
901.30	14860.06
901.47	15179.54
901.64	15144.73
901.81	15316.76
901.98	15068.95
902.15	15367.96
902.32	14905.12
902.49	15091.48
902.66	15300.37
902.83	15240.98
903.01	15017.75
903.18	15048.47
903.35	15142.68
903.52	15025.95
903.69	15302.42
903.86	15077.15
904.03	14911.26
904.20	15228.70
904.37	15261.46
904.54	15040.28
904.71	15234.84
904.88	15085.34
905.05	14966.56
905.22	15019.80
905.39	14980.89
905.56	14860.06
905.73	14993.18
905.90	15177.50
906.07	14987.04
906.24	14980.89
906.41	15095.58
906.58	15036.19
906.75	15066.91
906.92	14901.02
907.09	14935.84
907.26	14837.53
907.43	15007.52
907.60	14968.60
907.77	15030.04
907.93	14700.32
908.10	14661.41
908.27	14890.78
908.44	14982.94
908.61	14733.09
908.78	15089.43
908.95	14929.69
909.12	14907.16
909.29	14954.27
909.46	14815.01
909.63	14987.04
909.80	15058.71
909.97	14997.28
910.14	14579.49
910.31	14599.97
910.48	14784.29
910.65	15005.47
910.82	14880.54
910.99	14753.57
911.16	14622.50
911.33	14714.66
911.50	14685.98
911.66	14655.26
911.83	14698.27
912.00	14475.04
912.17	14452.52
912.34	14397.22
912.51	14718.75
912.68	14454.56
912.85	14722.85
913.02	14724.90
913.19	14380.84
913.36	14454.56
913.53	14429.99
913.70	14282.53
913.86	14438.18
914.03	14505.76
914.20	14456.61
914.37	14305.06
914.54	14165.80
914.71	14364.45
914.88	14165.80
915.05	14096.17
915.22	14094.12
915.39	14155.56
915.55	13961.00
915.72	13901.61
915.89	14008.11
916.06	13946.67
916.23	14122.79
916.40	13825.84
916.57	13905.71
916.74	13805.36
916.91	13795.12
917.07	13803.31
917.24	13696.82
917.41	13502.26
917.58	13969.19
917.75	13598.51
917.92	13449.01
918.09	13420.34
918.26	13569.84
918.42	13397.81
918.59	13573.94
918.76	13516.59
918.93	13090.62
919.10	13215.54
919.27	13276.98
919.44	13317.94
919.60	13180.73
919.77	13240.12
919.94	13131.58
920.11	13199.16
920.28	13162.30
920.45	12934.97
920.61	13027.13
920.78	12988.22
920.95	12808.00
921.12	13068.09
921.29	12769.09
921.46	12764.99
921.62	12511.04
921.79	12721.98
921.96	12642.11
922.13	12818.24
922.30	12549.95
922.47	12613.44
922.63	12537.66
922.80	12502.85
922.97	12328.77
923.14	12107.59
923.31	12183.37
923.47	12191.56
923.64	12521.28
923.81	12169.03
923.98	12279.62
924.15	12162.89
924.32	12130.12
924.48	12205.89
924.65	12156.74
924.82	11956.04
924.99	11863.88
925.15	11628.37
925.32	11933.51
925.49	11722.57
925.66	11726.67
925.83	11695.95
925.99	11614.03
926.16	11579.22
926.33	11755.34
926.50	11435.86
926.67	11607.89
926.83	11476.82
927.00	11251.54
927.17	11292.50
927.34	11155.29
927.50	11276.12
927.67	11548.50
927.84	11556.69
928.01	11192.15
928.17	11124.57
928.34	10932.06
928.51	10948.44
928.68	10852.19
928.84	10850.14
929.01	10887.00
929.18	10747.74
929.35	10792.80
929.51	10786.65
929.68	10700.64
929.85	10588.00
930.02	10522.46
930.18	10532.70
930.35	10338.15
930.52	10485.60
930.69	10495.84
930.85	10323.81
931.02	10356.58
931.19	10227.56
931.36	10289.00
931.52	10301.28
931.69	10305.38
931.86	9989.99
932.02	10039.14
932.19	9977.70
932.36	9848.68
932.53	9965.42
932.69	9844.59
932.86	9893.74
933.03	9641.84
933.19	9525.10
933.36	9813.87
933.53	9774.95
933.70	9490.29
933.86	9637.74
934.03	9465.71
934.20	9496.43
934.36	9523.05
934.53	9170.80
934.70	9240.44
934.86	9365.36
935.03	8955.77
935.20	9058.17
935.36	9045.88
935.53	8890.23
935.70	8839.03
935.86	8882.04
936.03	8572.80
936.20	8552.32
936.36	8613.76
936.53	8435.58
936.70	8419.20
936.86	8648.57
937.03	8314.75
937.20	8402.82
937.36	8253.31
937.53	8138.63
937.70	8015.75
937.86	7837.58
938.03	8007.56
938.20	7882.63
938.36	7567.24
938.53	7827.34
938.70	7452.56
938.86	7516.05
939.03	7419.79
939.20	7268.24
939.36	7296.91
939.53	7184.27
939.70	7268.24
939.86	6965.14
940.03	6961.05
940.19	6836.12
940.36	6684.57
940.53	6739.87
940.69	6645.66
940.86	6598.56
941.03	6502.30
941.19	6369.18
941.36	6463.39
941.52	6270.88
941.69	6180.77
941.86	6203.30
942.02	6152.10
942.19	6092.71
942.35	6209.44
942.52	6096.80
942.69	6008.74
942.85	5947.30
943.02	6010.79
943.18	5951.40
943.35	5869.48
943.52	5803.94
943.68	5736.36
943.85	5728.17
944.01	5506.99
944.18	5560.24
944.35	5699.50
944.51	5687.21
944.68	5472.17
944.84	5412.78
945.01	5506.99
945.17	5537.71
945.34	5492.65
945.51	5570.48
945.67	5377.97
945.84	5496.75
946.00	5427.12
946.17	5470.12
946.33	5337.01
946.50	5461.93
946.67	5316.53
946.83	5410.73
947.00	5330.86
947.16	5337.01
947.33	5214.13
947.49	5267.38
947.66	5234.61
947.82	5377.97
947.99	5294.00
948.16	5359.53
948.32	5261.23
948.49	5441.45
948.65	5359.53
948.82	5330.86
948.98	5240.75
949.15	5091.25
949.31	5248.94
949.48	5230.51
949.64	5193.65
949.81	5248.94
949.97	5300.14
950.14	5371.82
950.30	5164.98
950.47	5466.03
950.63	5289.90
950.80	5406.64
950.96	5240.75
951.13	5320.62
951.30	5277.62
951.46	5443.50
951.63	5414.83
951.79	5402.54
951.96	5361.58
952.12	5320.62
952.29	5345.20
952.45	5326.77
952.62	5257.14
952.78	5533.61
952.94	5373.87
953.11	5353.39
953.27	5345.20
953.44	5474.22
953.60	5371.82
953.77	5541.80
953.93	5298.10
954.10	5361.58
954.26	5367.73
954.43	5334.96
954.59	5474.22
954.76	5529.52
954.92	5380.01
955.09	5539.76
955.25	5349.29
955.42	5377.97
955.58	5502.89
955.75	5576.62
955.91	5382.06
956.07	5431.21
956.24	5500.84
956.40	5574.57
956.57	5509.04
956.73	5482.41
956.90	5441.45
957.06	5517.23
957.23	5496.75
957.39	5351.34
957.56	5435.31
957.72	5320.62
957.88	5330.86
958.05	5451.69
958.21	5529.52
958.38	5433.26
958.54	5414.83
958.71	5633.96
958.87	5386.16
959.03	5457.84
959.20	5423.02
959.36	5410.73
959.53	5351.34
959.69	5371.82
959.85	5607.34
960.02	5371.82
960.18	5515.18
960.35	5488.56
960.51	5511.08
960.68	5578.67
960.84	5504.94
961.00	5576.62
961.17	5433.26
961.33	5435.31
961.50	5459.88
961.66	5539.76
961.82	5447.60
961.99	5488.56
962.15	5414.83
962.31	5451.69
962.48	5457.84
962.64	5361.58
962.81	5377.97
962.97	5330.86
963.13	5386.16
963.30	5418.93
963.46	5435.31
963.62	5388.21
963.79	5353.39
963.95	5371.82
964.12	5255.09
964.28	5214.13
964.44	5253.04
964.61	5437.36
964.77	5459.88
964.93	5531.56
965.10	5277.62
965.26	5330.86
965.42	5328.81
965.59	5347.25
965.75	5334.96
965.92	5347.25
966.08	5291.95
966.24	5220.27
966.41	5218.22
966.57	5304.24
966.73	5242.80
966.90	5402.54
967.06	5416.88
967.22	5105.59
967.39	5203.89
967.55	5173.17
967.71	5263.28
967.88	5048.24
968.04	5191.60
968.20	5162.93
968.37	5171.12
968.53	5117.87
968.69	5124.02
968.85	5328.81
969.02	5144.50
969.18	5201.84
969.34	5281.71
969.51	5242.80
969.67	5218.22
969.83	5068.72
970.00	5285.81
970.16	5040.05
970.32	5119.92
970.48	5132.21
970.65	5089.20
970.81	5115.83
970.97	5138.35
971.14	4970.42
971.30	5056.43
971.46	5015.48
971.63	5009.33
971.79	5199.79
971.95	4890.55
972.11	4861.88
972.28	4829.11
972.44	5144.50
972.60	4902.84
972.76	4949.94
972.93	4739.00
973.09	5042.10
973.25	4929.46
973.42	5001.14
973.58	5031.86
973.74	4960.18
973.90	5011.38
974.07	4818.87
974.23	4927.41
974.39	4876.21
974.55	4751.29
974.72	4947.89
974.88	4853.69
975.04	4829.11
975.20	4700.09
975.37	4847.54
975.53	4808.63
975.69	4755.38
975.85	4716.47
976.01	4757.43
976.18	4609.98
976.34	4673.46
976.50	4753.34
976.66	4839.35
976.83	4681.66
976.99	4751.29
977.15	4857.78
977.31	4646.84
977.47	4743.10
977.64	4640.70
977.80	4730.81
977.96	4691.90
978.12	4679.61
978.29	4566.97
978.45	4519.87
978.61	4609.98
978.77	4503.48
978.93	4542.39
979.10	4564.92
979.26	4523.96
979.42	4550.59
979.58	4411.32
979.74	4380.61
979.91	4425.66
980.07	4476.86
980.23	4440.00
980.39	4366.27
980.55	4480.96
980.71	4329.41
980.88	4415.42
981.04	4427.71
981.20	4380.61
981.36	4435.90
981.52	4382.65
981.68	4358.08
981.85	4466.62
982.01	4376.51
982.17	4345.79
982.33	4239.30
982.49	4472.76
982.65	4374.46
982.82	4358.08
982.98	4247.49
983.14	4206.53
983.30	4263.87
983.46	4331.45
983.62	4212.67
983.79	4200.38
983.95	4165.57
984.11	4161.47
984.27	4163.52
984.43	4243.39
984.59	4140.99
984.75	4124.61
984.91	4169.66
985.08	4337.60
985.24	3991.49
985.40	4073.41
985.56	4224.96
985.72	4149.18
985.88	4114.37
986.04	4048.83
986.20	4036.55
986.37	4130.75
986.53	4110.27
986.69	4042.69
986.85	3973.06
987.01	3989.44
987.17	4165.57
987.33	4032.45
987.49	4026.31
987.65	3950.53
987.82	3956.68
987.98	4014.02
988.14	4038.59
988.30	4024.26
988.46	3977.16
988.62	3940.29
988.78	4009.92
988.94	3989.44
989.10	4057.03
989.26	3960.77
989.42	3819.46
989.59	3737.54
989.75	3815.37
989.91	3907.52
990.07	3817.41
990.23	3825.61
990.39	3776.45
990.55	3803.08
990.71	3749.83
990.87	3868.61
991.03	3823.56
991.19	3821.51
991.35	3762.12
991.51	3803.08
991.67	3762.12
991.83	3866.56
992.00	3835.85
992.16	3796.93
992.32	3794.89
992.48	3747.78
992.64	3647.43
992.80	3899.33
992.96	3696.58
993.12	3737.54
993.28	3559.37
993.44	3710.92
993.60	3686.34
993.76	3653.58
993.92	3669.96
994.08	3721.16
994.24	3737.54
994.40	3608.52
994.56	3747.78
994.72	3557.32
994.88	3512.27
995.04	3635.14
995.20	3532.75
995.36	3614.66
995.52	3565.51
995.68	3463.12
995.84	3542.99
996.00	3653.58
996.16	3510.22
996.32	3491.79
996.48	3477.45
996.64	3559.37
996.80	3454.92
996.96	3547.08
997.12	3456.97
997.28	3416.01
997.44	3334.09
997.60	3499.98
997.76	3301.33
997.92	3422.16
998.08	3493.83
998.24	3360.72
998.40	3446.73
998.56	3366.86
998.72	3268.56
998.88	3297.23
999.04	3346.38
999.20	3432.40
999.36	3268.56
999.52	3370.96
999.68	3434.44
999.84	3303.37
1000.00	3403.72
1000.16	3297.23
1000.32	3174.35
1000.48	3387.34
1000.64	3160.02
1000.80	3211.22
1000.95	3207.12
1001.11	3313.61
1001.27	3162.06
1001.43	3260.37
1001.59	3162.06
1001.75	3139.54
1001.91	3276.75
1002.07	3110.86
1002.23	3117.01
1002.39	3164.11
1002.55	3162.06
1002.71	3196.88
1002.87	3125.20
1003.03	3051.47
1003.19	3145.68
1003.34	3268.56
1003.50	3121.10
1003.66	3237.84
1003.82	3047.38
1003.98	3114.96
1004.14	3112.91
1004.30	2949.08
1004.46	3061.71
1004.62	3059.67
1004.78	2975.70
1004.94	3078.10
1005.09	3051.47
1005.25	3076.05
1005.41	2979.79
1005.57	3002.32
1005.73	2985.94
1005.89	2975.70
1006.05	2922.45
1006.21	2996.18
1006.37	2822.10
1006.52	2920.40
1006.68	2955.22
1006.84	2838.48
1007.00	2879.44
1007.16	3030.99
1007.32	2861.01
1007.48	2949.08
1007.64	2838.48
1007.79	2873.30
1007.95	2885.59
1008.11	2918.36
1008.27	2899.92
1008.43	2844.63
1008.59	2822.10
1008.75	2797.53
1008.91	2922.45
1009.06	2791.38
1009.22	2861.01
1009.38	2867.16
1009.54	2899.92
1009.70	2762.71
1009.86	2846.68
1010.01	2846.68
1010.17	2781.14
1010.33	2793.43
1010.49	2754.52
1010.65	2760.66
1010.81	2797.53
1010.96	2760.66
1011.12	2721.75
1011.28	2660.31
1011.44	2742.23
1011.60	2754.52
1011.76	2703.32
1011.91	2768.85
1012.07	2754.52
1012.23	2623.45
1012.39	2564.06
1012.55	2717.65
1012.71	2727.89
1012.86	2736.09
1013.02	2691.03
1013.18	2533.34
1013.34	2570.20
1013.50	2658.26
1013.65	2617.30
1013.81	2682.84
1013.97	2615.26
1014.13	2654.17
1014.29	2568.15
1014.44	2691.03
1014.60	2547.67
1014.76	2564.06
1014.92	2662.36
1015.07	2654.17
1015.23	2525.15
1015.39	2500.57
1015.55	2492.38
1015.71	2523.10
1015.86	2584.54
1016.02	2656.22
1016.18	2408.41
1016.34	2519.00
1016.49	2549.72
1016.65	2584.54
1016.81	2443.23
1016.97	2516.95
1017.12	2576.34
1017.28	2498.52
1017.44	2437.08
1017.60	2459.61
1017.75	2432.99
1017.91	2396.12
1018.07	2510.81
1018.23	2559.96
1018.38	2443.23
1018.54	2428.89
1018.70	2467.80
1018.86	2461.66
1019.01	2387.93
1019.17	2344.92
1019.33	2453.47
1019.49	2351.07
1019.64	2480.09
1019.80	2402.27
1019.96	2330.59
1020.12	2430.94
1020.27	2383.84
1020.43	2297.82
1020.59	2379.74
1020.74	2332.64
1020.90	2367.45
1021.06	2248.67
1021.22	2371.55
1021.37	2420.70
1021.53	2293.72
1021.69	2273.25
1021.84	2306.01
1022.00	2342.88
1022.16	2383.84
1022.31	2275.29
1022.47	2359.26
1022.63	2346.97
1022.79	2228.19
1022.94	2260.96
1023.10	2367.45
1023.26	2287.58
1023.41	2236.38
1023.57	2166.75
1023.73	2377.69
1023.88	2318.30
1024.04	2236.38
1024.20	2179.04
1024.35	2232.29
1024.51	2248.67
1024.67	2256.86
1024.82	2357.21
1024.98	2174.94
1025.14	2279.39
1025.29	2256.86
1025.45	2234.33
1025.61	2080.74
1025.76	2236.38
1025.92	2168.80
1026.08	2256.86
1026.23	2236.38
1026.39	2238.43
1026.55	2271.20
1026.70	2123.74
1026.86	2099.17
1027.02	2205.66
1027.17	2166.75
1027.33	2281.44
1027.48	2099.17
1027.64	2144.22
1027.80	2093.02
1027.95	2166.75
1028.11	2031.58
1028.27	2211.81
1028.42	2267.10
1028.58	2066.40
1028.73	2097.12
1028.89	2097.12
1029.05	2215.90
1029.20	2127.84
>>>>>End Processed Spectral Data<<<<<
