SpectraSuite Data File
++++++++++++++++++++++++++++++++++++
Date: Fri Jun 02 14:57:20 CEST 2017
User: INFO_000
Dark Spectrum Present: No
Reference Spectrum Present: No
Number of Sampled Component Spectra: 1
Spectrometers: USB4H00879
Integration Time (usec): 80000 (USB4H00879)
Spectra Averaged: 1 (USB4H00879)
Boxcar Smoothing: 0 (USB4H00879)
Correct for Electrical Dark: No (USB4H00879)
Strobe/Lamp Enabled: No (USB4H00879)
Correct for Detector Non-linearity: No (USB4H00879)
Correct for Stray Light: No (USB4H00879)
Number of Pixels in Processed Spectrum: 3648
>>>>>Begin Processed Spectral Data<<<<<
345.13	1329.13
345.34	1329.13
345.56	1329.13
345.78	1230.83
345.99	1165.29
346.21	1716.20
346.42	1748.97
346.64	1677.29
346.86	1794.02
347.07	1599.46
347.29	1771.49
347.50	1624.04
347.72	1728.49
347.94	1738.73
348.15	1599.46
348.37	1658.85
348.59	1722.34
348.80	1746.92
349.02	1785.83
349.23	1771.49
349.45	1834.98
349.67	1847.27
349.88	1847.27
350.10	1920.99
350.31	1837.03
350.53	1824.74
350.75	1953.76
350.96	1761.25
351.18	1837.03
351.39	1884.13
351.61	1820.64
351.82	1941.47
352.04	1925.09
352.26	1798.12
352.47	1882.08
352.69	1898.47
352.90	1748.97
353.12	1869.80
353.34	1849.32
353.55	1937.38
353.77	1894.37
353.98	1851.36
354.20	1902.56
354.41	1898.47
354.63	1904.61
354.85	2025.44
355.06	1888.23
355.28	1732.58
355.49	1912.80
355.71	1908.71
355.92	1849.32
356.14	1949.67
356.35	1822.69
356.57	1880.04
356.79	1918.95
357.00	1861.60
357.22	1925.09
357.43	1859.56
357.65	1980.39
357.86	1925.09
358.08	1892.32
358.29	2039.78
358.51	1937.38
358.72	2050.02
358.94	1931.23
359.16	1916.90
359.37	1939.43
359.59	1992.67
359.80	2015.20
360.02	1982.43
360.23	2013.15
360.45	1984.48
360.66	1951.71
360.88	1894.37
361.09	1916.90
361.31	1927.14
361.52	1931.23
361.74	2093.02
361.95	2080.74
362.17	1908.71
362.38	2109.41
362.60	2082.78
362.81	1988.58
363.03	1933.28
363.24	2000.87
363.46	1998.82
363.67	2002.91
363.89	1943.52
364.10	2054.11
364.32	1953.76
364.53	2072.54
364.75	1935.33
364.96	2029.54
365.18	2009.06
365.39	1941.47
365.61	1873.89
365.82	2131.94
366.04	1968.10
366.25	1972.19
366.47	2047.97
366.68	1976.29
366.90	1920.99
367.11	2099.17
367.33	2131.94
367.54	2070.50
367.76	2099.17
367.97	2131.94
368.19	2037.73
368.40	2111.46
368.62	1982.43
368.83	1863.65
369.05	1996.77
369.26	1996.77
369.48	2011.11
369.69	2004.96
369.91	2017.25
370.12	2103.26
370.33	2019.30
370.55	1970.15
370.76	2133.98
370.98	2111.46
371.19	2066.40
371.41	2115.55
371.62	2105.31
371.84	1959.91
372.05	2160.61
372.27	2041.82
372.48	2064.35
372.69	2107.36
372.91	2097.12
373.12	2133.98
373.34	2031.58
373.55	2224.09
373.77	2181.09
373.98	2115.55
374.20	2201.57
374.41	2306.01
374.62	2111.46
374.84	2185.18
375.05	2189.28
375.27	2113.50
375.48	2176.99
375.70	2099.17
375.91	2230.24
376.12	2207.71
376.34	2129.89
376.55	2187.23
376.77	2256.86
376.98	2127.84
377.19	2205.66
377.41	2144.22
377.62	2207.71
377.84	2256.86
378.05	2316.25
378.27	2230.24
378.48	2291.68
378.69	2463.71
378.91	2260.96
379.12	2209.76
379.34	2379.74
379.55	2285.53
379.76	2215.90
379.98	2215.90
380.19	2279.39
380.41	2213.85
380.62	2340.83
380.83	2244.57
381.05	2267.10
381.26	2435.03
381.47	2291.68
381.69	2377.69
381.90	2383.84
382.12	2283.49
382.33	2244.57
382.54	2265.05
382.76	2316.25
382.97	2320.35
383.19	2267.10
383.40	2338.78
383.61	2346.97
383.83	2365.40
384.04	2314.20
384.25	2498.52
384.47	2369.50
384.68	2359.26
384.89	2316.25
385.11	2342.88
385.32	2346.97
385.54	2408.41
385.75	2346.97
385.96	2443.23
386.18	2449.37
386.39	2394.08
386.60	2295.77
386.82	2432.99
387.03	2387.93
387.24	2484.19
387.46	2506.71
387.67	2449.37
387.88	2525.15
388.10	2459.61
388.31	2469.85
388.52	2625.50
388.74	2516.95
388.95	2463.71
389.16	2475.99
389.38	2543.58
389.59	2615.26
389.80	2631.64
390.02	2498.52
390.23	2627.54
390.44	2586.58
390.66	2549.72
390.87	2523.10
391.08	2625.50
391.30	2672.60
391.51	2641.88
391.72	2719.70
391.94	2709.46
392.15	2584.54
392.36	2666.46
392.58	2680.79
392.79	2723.80
393.00	2676.70
393.22	2633.69
393.43	2832.34
393.64	2840.53
393.85	2781.14
394.07	2725.85
394.28	2707.41
394.49	2809.81
394.71	2803.67
394.92	2879.44
395.13	2736.09
395.35	2832.34
395.56	2725.85
395.77	2953.17
395.98	2824.15
396.20	2889.68
396.41	2869.20
396.62	2936.79
396.84	2787.29
397.05	2990.03
397.26	2920.40
397.47	2942.93
397.69	2836.44
397.90	2992.08
398.11	2895.83
398.32	2953.17
398.54	2875.35
398.75	2848.72
398.96	2967.51
399.18	3123.15
399.39	3033.04
399.60	3069.91
399.81	3002.32
400.03	2994.13
400.24	3250.13
400.45	3018.71
400.66	3123.15
400.88	3047.38
401.09	3194.83
401.30	2975.70
401.51	3143.63
401.73	3121.10
401.94	3137.49
402.15	3174.35
402.36	3108.82
402.58	3133.39
402.79	3160.02
403.00	3125.20
403.21	3274.70
403.43	3268.56
403.64	3334.09
403.85	3200.98
404.06	3190.74
404.27	3061.71
404.49	3227.60
404.70	3219.41
404.91	3354.57
405.12	3243.98
405.34	3254.22
405.55	3379.15
405.76	3170.26
405.97	3246.03
406.19	3334.09
406.40	3166.16
406.61	3289.04
406.82	3385.29
407.03	3334.09
407.25	3348.43
407.46	3448.78
407.67	3325.90
407.88	3440.59
408.09	3297.23
408.31	3391.44
408.52	3465.16
408.73	3362.76
408.94	3366.86
409.15	3420.11
409.37	3526.60
409.58	3530.70
409.79	3581.90
410.00	3559.37
410.21	3424.20
410.43	3508.17
410.64	3426.25
410.85	3512.27
411.06	3520.46
411.27	3522.51
411.48	3542.99
411.70	3596.23
411.91	3592.14
412.12	3563.47
412.33	3688.39
412.54	3606.47
412.76	3581.90
412.97	3516.36
413.18	3420.11
413.39	3626.95
413.60	3645.38
413.81	3667.91
414.03	3653.58
414.24	3672.01
414.45	3784.65
414.66	3663.82
414.87	3672.01
415.08	3614.66
415.30	3674.06
415.51	3729.35
415.72	3680.20
415.93	3723.21
416.14	3635.14
416.35	3839.94
416.56	3833.80
416.78	3762.12
416.99	3829.70
417.20	3766.21
417.41	3846.09
417.62	4030.40
417.83	3934.15
418.04	3852.23
418.26	4106.18
418.47	3743.69
418.68	3973.06
418.89	3897.28
419.10	4095.94
419.31	3975.11
419.52	4063.17
419.73	4030.40
419.95	4169.66
420.16	3903.43
420.37	3880.90
420.58	4054.98
420.79	3850.18
421.00	4075.46
421.21	4104.13
421.42	3991.49
421.63	4159.42
421.85	4124.61
422.06	4169.66
422.27	4220.86
422.48	4167.62
422.69	4110.27
422.90	4253.63
423.11	4204.48
423.32	4374.46
423.53	4343.74
423.75	4284.35
423.96	4485.05
424.17	4315.07
424.38	4431.80
424.59	4454.33
424.80	4566.97
425.01	4450.24
425.22	4374.46
425.43	4419.52
425.64	4652.98
425.85	4548.54
426.06	4566.97
426.28	4575.16
426.49	4495.29
426.70	4427.71
426.91	4523.96
427.12	4573.11
427.33	4562.87
427.54	4575.16
427.75	4581.31
427.96	4865.97
428.17	4732.86
428.38	4730.81
428.59	4931.51
428.80	4847.54
429.01	4708.28
429.23	4767.67
429.44	5044.15
429.65	4941.75
429.86	4990.90
430.07	4786.10
430.28	4861.88
430.49	5019.57
430.70	5097.39
430.91	4923.32
431.12	4984.76
431.33	4999.09
431.54	5124.02
431.75	5021.62
431.96	4933.56
432.17	5062.58
432.38	5099.44
432.59	5296.05
432.80	5195.70
433.01	5195.70
433.22	5203.89
433.43	5234.61
433.64	5349.29
433.85	5185.46
434.06	5277.62
434.27	5185.46
434.49	5388.21
434.70	5345.20
434.91	5371.82
435.12	5408.69
435.33	5433.26
435.54	5369.77
435.75	5222.32
435.96	5439.40
436.17	5316.53
436.38	5496.75
436.59	5564.33
436.80	5529.52
437.01	5715.88
437.22	5545.90
437.43	5607.34
437.64	5541.80
437.85	5803.94
438.06	5914.53
438.27	5576.62
438.48	5603.24
438.69	5867.43
438.90	5717.93
439.11	5713.83
439.32	5924.77
439.53	5699.50
439.74	5758.89
439.95	5855.14
440.16	5930.92
440.37	5892.01
440.57	5822.38
440.78	5840.81
440.99	5937.06
441.20	5959.59
441.41	5853.09
441.62	5830.57
441.83	5935.01
442.04	5920.68
442.25	6031.27
442.46	6170.53
442.67	6234.02
442.88	6442.91
443.09	6029.22
443.30	6197.15
443.51	6088.61
443.72	6360.99
443.93	6049.70
444.14	6541.21
444.35	6092.71
444.56	6258.59
444.77	6291.36
444.98	6254.50
445.19	6350.75
445.40	6252.45
445.61	6412.19
445.81	6598.56
446.02	6580.12
446.23	6303.65
446.44	6375.33
446.65	6541.21
446.86	6475.68
447.07	6616.99
447.28	6758.30
447.49	6786.97
447.70	6604.70
447.91	6789.02
448.12	6784.92
448.33	6827.93
448.54	6856.60
448.74	6647.71
448.95	6864.79
449.16	6709.15
449.37	7118.74
449.58	6858.65
449.79	7030.68
450.00	6809.50
450.21	7024.53
450.42	6979.48
450.63	7006.10
450.84	6963.09
451.05	7180.18
451.25	7122.84
451.46	6959.00
451.67	7260.05
451.88	7147.41
452.09	7104.40
452.30	7128.98
452.51	7264.15
452.72	7303.06
452.93	7696.27
453.13	7208.85
453.34	7427.98
453.55	7436.17
453.76	7290.77
453.97	7759.75
454.18	7514.00
454.39	7604.11
454.60	7528.33
454.81	7477.13
455.01	7810.95
455.22	7563.15
455.43	7776.14
455.64	7921.54
455.85	7925.64
456.06	8032.13
456.27	7794.57
456.48	7669.64
456.68	8138.63
456.89	7917.45
457.10	8138.63
457.31	8101.76
457.52	8083.33
457.73	8173.44
457.94	8284.03
458.14	8056.71
458.35	8429.44
458.56	8390.53
458.77	8472.45
458.98	8269.70
459.19	8306.56
459.39	8501.12
459.60	8689.53
459.81	8537.98
460.02	8624.00
460.23	8753.02
460.44	8753.02
460.65	8791.93
460.85	8624.00
461.06	8855.42
461.27	8488.83
461.48	8849.27
461.69	8828.79
461.89	8675.20
462.10	8949.62
462.31	8767.35
462.52	8879.99
462.73	8935.29
462.94	9324.40
463.14	9068.41
463.35	9004.92
463.56	9627.50
463.77	9492.34
463.98	9412.46
464.18	9500.53
464.39	9492.34
464.60	9564.01
464.81	9600.88
465.02	9553.77
465.23	9670.51
465.43	9557.87
465.64	9959.27
465.85	9752.43
466.06	9764.72
466.27	10141.54
466.47	9916.26
466.68	10078.05
466.89	10035.05
467.10	10276.71
467.30	10012.52
467.51	10393.44
467.72	10559.33
467.93	10172.26
468.14	10594.14
468.34	10387.30
468.55	10579.81
468.76	10561.37
468.97	10325.86
469.17	10815.32
469.38	10784.60
469.59	10809.18
469.80	10588.00
470.01	10868.57
470.21	10936.15
470.42	10841.95
470.63	11366.23
470.84	11063.13
471.04	11450.19
471.25	11161.43
471.46	11282.26
471.67	11607.89
471.87	11413.33
472.08	11665.23
472.29	11863.88
472.50	11319.12
472.70	11454.29
472.91	11702.09
473.12	11794.25
473.33	11786.06
473.53	12058.44
473.74	12001.10
473.95	12162.89
474.16	12482.37
474.36	12373.83
474.57	12478.27
474.78	12422.98
474.99	12310.34
475.19	12617.54
475.40	12851.00
475.61	12674.88
475.81	13004.60
476.02	13043.51
476.23	13104.95
476.44	12930.87
476.64	13186.87
476.85	13485.87
477.06	13360.95
477.27	13481.78
477.47	13575.98
477.68	13684.53
477.89	13723.44
478.09	13692.72
478.30	13836.08
478.51	13969.19
478.71	14116.65
478.92	14221.10
479.13	14102.31
479.34	14309.16
479.54	14358.31
479.75	14356.26
479.96	14628.64
480.16	14599.97
480.37	14632.74
480.58	14640.93
480.78	15073.05
480.99	15005.47
481.20	14997.28
481.41	15312.66
481.61	15169.30
481.82	15451.92
482.03	15195.93
482.23	15453.97
482.44	15828.75
482.65	15873.81
482.85	15900.43
483.06	16000.78
483.27	15976.20
483.47	15996.68
483.68	15945.48
483.89	16242.44
484.09	16299.78
484.30	16086.79
484.51	16168.71
484.71	16633.60
484.92	16717.57
485.13	16686.85
485.33	16754.43
485.54	16830.21
485.75	17176.31
485.95	17346.30
486.16	17346.30
486.37	17297.14
486.57	17381.11
486.78	17280.76
486.98	17792.75
487.19	17731.31
487.40	17682.16
487.60	17671.92
487.81	17878.77
488.02	17678.07
488.22	18061.04
488.43	17979.12
488.64	18284.26
488.84	18220.78
489.05	18624.23
489.25	18235.11
489.46	18497.25
489.67	18454.25
489.87	18831.07
490.08	18900.70
490.29	18675.43
490.49	19228.38
490.70	18892.51
490.90	19107.55
491.11	19033.82
491.32	19295.96
491.52	19476.18
491.73	19664.60
491.94	19586.77
492.14	19361.50
492.35	19951.31
492.55	19893.97
492.76	19867.34
492.97	19709.65
493.17	19941.07
493.38	20215.50
493.58	20342.47
493.79	20217.55
494.00	20553.41
494.20	20528.84
494.41	20709.06
494.61	20563.65
494.82	20838.08
495.02	20850.37
495.23	20745.92
495.44	21266.11
495.64	21270.20
495.85	21094.08
496.05	21159.61
496.26	21184.19
496.47	21393.08
496.67	21413.56
496.88	21722.80
497.08	21511.86
497.29	21829.30
497.49	21618.36
497.70	22011.57
497.91	22113.97
498.11	22234.80
498.32	22228.65
498.52	22433.45
498.73	22503.08
498.93	22503.08
499.14	22754.98
499.34	22484.65
499.55	22697.64
499.76	22771.36
499.96	22666.92
500.17	22929.06
500.37	23084.70
500.58	23269.02
500.78	23146.14
500.99	23316.12
501.19	23359.13
501.40	23285.40
501.60	23185.05
501.81	23092.90
502.02	23576.22
502.22	23146.14
502.43	23621.27
502.63	23676.57
502.84	23821.97
503.04	23621.27
503.25	23916.18
503.45	23789.20
503.66	24254.09
503.86	23946.90
504.07	24600.20
504.27	24166.03
504.48	24675.98
504.68	24370.83
504.89	24796.81
505.09	24712.84
505.30	24727.17
505.50	24649.35
505.71	25060.99
505.91	25171.58
506.12	25050.75
506.32	24895.11
506.53	24880.77
506.73	24886.92
506.94	25470.59
507.14	25181.82
507.35	25167.49
507.55	25519.74
507.76	25824.89
507.96	25450.11
508.17	25527.93
508.37	25808.50
508.58	25564.79
508.78	25912.95
508.99	25773.69
509.19	25853.56
509.40	25851.51
509.60	25960.05
509.81	26371.69
510.01	26195.57
510.22	26199.66
510.42	26125.94
510.63	26306.16
510.83	26275.44
511.04	26558.06
511.24	26654.31
511.44	26482.28
511.65	26824.29
511.85	26553.96
512.06	26924.65
512.26	26685.03
512.47	26916.45
512.67	26738.28
512.88	26953.32
513.08	26961.51
513.29	27045.48
513.49	27303.52
513.69	27082.34
513.90	26885.73
514.10	27801.18
514.31	27412.06
514.51	27723.35
514.72	27448.93
514.92	27559.52
515.13	27692.63
515.33	27565.66
515.53	27919.96
515.74	27954.77
515.94	27934.29
516.15	28020.31
516.35	28268.11
516.56	28223.06
516.76	28175.95
516.96	28241.49
517.17	28489.29
517.37	28409.42
517.58	28266.06
517.78	28646.99
517.99	28509.77
518.19	28620.36
518.39	28474.96
518.60	29017.67
518.80	28905.03
519.01	28735.05
519.21	28997.19
519.41	29126.21
519.62	28896.84
519.82	29144.64
520.03	29210.18
520.23	29466.17
520.43	29249.09
520.64	29783.61
520.84	29703.74
521.05	29331.01
521.25	29785.66
521.45	30207.54
521.66	30246.45
521.86	29957.69
522.07	29693.50
522.27	30080.56
522.47	30180.92
522.68	30350.90
522.88	30125.62
523.08	30787.11
523.29	30537.26
523.49	30363.18
523.70	30606.89
523.90	30688.81
524.10	30795.31
524.31	31039.01
524.51	30860.84
524.71	30969.38
524.92	31202.85
525.12	31401.50
525.33	31051.30
525.53	31421.98
525.73	31749.66
525.94	31708.70
526.14	31307.30
526.34	31870.49
526.55	31923.74
526.75	32009.75
526.95	32347.67
527.16	31833.63
527.36	32106.01
527.56	32486.93
527.77	32275.99
527.97	32306.71
528.17	32542.22
528.38	32663.05
528.58	32407.06
528.78	32794.12
528.99	32611.85
529.19	33361.41
529.39	32886.28
529.60	33390.08
529.80	33113.61
530.00	33332.74
530.21	33226.24
530.41	33328.64
530.61	33328.64
530.82	33666.56
531.02	33537.54
531.22	33285.64
531.43	33533.44
531.63	33730.05
531.83	34256.37
532.04	34354.68
532.24	34387.44
532.44	34600.43
532.64	34528.75
532.85	34688.49
533.05	34487.79
533.25	34575.86
533.46	34663.92
533.66	34999.79
533.86	34887.15
534.07	35272.17
534.27	35349.99
534.47	35532.26
534.67	35554.79
534.88	35220.97
535.08	35313.13
535.28	35720.67
535.49	35528.16
535.69	36138.46
535.89	36357.59
536.09	35978.72
536.30	36541.91
536.50	36134.36
536.70	36203.99
536.91	35884.51
537.11	36328.92
537.31	36644.30
537.51	36339.16
537.72	36597.20
537.92	36867.53
538.12	37254.60
538.32	37021.13
538.53	37158.34
538.73	36953.55
538.93	37078.47
539.13	37238.22
539.34	37066.19
539.54	37221.83
539.74	37451.20
539.94	37518.79
540.15	37443.01
540.35	37750.21
540.55	37512.64
540.75	37782.98
540.96	37760.45
541.16	37866.94
541.36	37670.34
541.56	37844.41
541.77	38075.84
541.97	38010.30
542.17	38129.08
542.37	38452.66
542.58	38534.58
542.78	38331.83
542.98	38448.57
543.18	38385.08
543.38	38700.47
543.59	38892.97
543.79	38604.21
543.99	38868.40
544.19	38639.03
544.40	38849.97
544.60	39204.27
544.80	38860.21
545.00	39251.37
545.20	39212.46
545.41	39290.28
545.61	38907.31
545.81	39669.15
546.01	39314.86
546.21	39335.34
546.42	39560.61
546.62	39611.81
546.82	39599.52
547.02	39454.12
547.22	39910.82
547.43	39771.55
547.63	39536.04
547.83	39593.38
548.03	39607.72
548.23	39851.42
548.44	39976.35
548.64	40080.80
548.84	39779.74
549.04	40064.41
549.24	40242.59
549.45	40568.21
549.65	40007.07
549.85	40371.61
550.05	40437.14
550.25	40224.15
550.45	41010.57
550.66	40707.47
550.86	40629.65
551.06	40467.86
551.26	40904.08
551.46	40953.23
551.66	40967.57
551.87	40682.90
552.07	40695.19
552.27	40379.80
552.47	41059.73
552.67	40981.90
552.87	40863.12
553.07	40951.18
553.28	41307.53
553.48	41471.37
553.68	40707.47
553.88	41057.68
554.08	41502.09
554.28	41414.02
554.48	40871.31
554.69	41655.68
554.89	41774.47
555.09	41442.70
555.29	41307.53
555.49	41753.99
555.69	41590.15
555.89	41346.44
556.10	41971.07
556.30	41665.92
556.50	41928.06
556.70	41371.02
556.90	41696.64
557.10	42173.82
557.30	41803.14
557.50	42024.32
557.70	42319.23
557.91	42050.94
558.11	41993.60
558.31	42026.37
558.51	41819.52
558.71	42096.00
558.91	42126.72
559.11	41897.34
559.31	42042.75
559.51	41993.60
559.72	42366.33
559.92	42120.57
560.12	42243.45
560.32	41938.30
560.52	42173.82
560.72	42399.10
560.92	42294.65
561.12	42632.57
561.32	42706.29
561.52	42347.90
561.72	42489.21
561.93	42638.71
562.13	42593.65
562.33	42540.41
562.53	43210.09
562.73	42390.91
562.93	42675.57
563.13	42769.78
563.33	42988.91
563.53	42763.64
563.73	42661.24
563.93	42831.22
564.13	43283.82
564.33	42909.04
564.53	42694.00
564.74	43177.33
564.94	42751.35
565.14	43140.46
565.34	42628.47
565.54	42902.90
565.74	43216.24
565.94	43230.57
566.14	43062.64
566.34	42708.34
566.54	43500.90
566.74	42937.71
566.94	43099.50
567.14	42962.29
567.34	43308.40
567.54	43664.74
567.74	43193.71
567.94	43623.78
568.14	43824.48
568.34	43588.97
568.54	43322.73
568.74	43468.14
568.94	43312.49
569.14	43705.70
569.34	43873.63
569.54	43687.27
569.75	43292.01
569.95	43750.76
570.15	44262.75
570.35	44215.65
570.55	43443.56
570.75	43597.16
570.95	44023.14
571.15	43851.11
571.35	43965.79
571.55	44283.23
571.75	44012.90
571.95	44025.18
572.15	44264.80
572.35	44289.37
572.55	43869.54
572.75	44129.63
572.95	44381.53
573.15	44442.97
573.35	44191.07
573.55	44225.89
573.75	44238.17
573.95	44686.68
574.15	44420.44
574.35	44631.38
574.55	44744.02
574.75	44363.10
574.95	44508.50
575.15	44053.86
575.34	44584.28
575.54	44852.56
575.74	44983.63
575.94	45139.28
576.14	44768.60
576.34	45196.62
576.54	45425.99
576.74	45266.25
576.94	44901.71
577.14	45432.14
577.34	45110.61
577.54	45227.34
577.74	45337.93
577.94	45505.87
578.14	45659.46
578.34	45524.30
578.54	44887.38
578.74	45374.80
578.94	45722.95
579.14	45593.93
579.34	45741.38
579.54	45921.60
579.74	46169.41
579.94	45872.45
580.13	45831.49
580.33	45825.35
580.53	45868.36
580.73	45897.03
580.93	46572.86
581.13	46370.11
581.33	46208.32
581.53	46595.38
581.73	46478.65
581.93	46671.16
582.13	46595.38
582.33	46540.09
582.53	46193.98
582.73	46912.82
582.92	46867.76
583.12	46791.99
583.32	46943.54
583.52	46791.99
583.72	47166.77
583.92	46908.72
584.12	47115.57
584.32	47377.71
584.52	47064.37
584.72	47371.57
584.92	47584.55
585.11	47574.31
585.31	47615.27
585.51	47398.19
585.71	47486.25
585.91	47578.41
586.11	47453.48
586.31	47504.68
586.51	47318.32
586.71	47619.37
586.91	48250.14
587.10	47818.02
587.30	48024.87
587.50	47842.60
587.70	47883.56
587.90	48403.74
588.10	48565.53
588.30	47740.20
588.50	48194.85
588.69	48280.86
588.89	48041.25
589.09	48307.49
589.29	47979.81
589.49	48780.57
589.69	48272.67
589.89	48395.55
590.08	48733.46
590.28	48827.67
590.48	48149.79
590.68	48452.89
590.88	48868.63
591.08	48938.26
591.28	48768.28
591.47	49327.38
591.67	48979.22
591.87	48932.12
592.07	49222.93
592.27	49214.74
592.47	49227.02
592.67	49194.26
592.86	49349.90
593.06	49329.42
593.26	49325.33
593.46	49380.62
593.66	49612.04
593.86	49259.79
594.05	49577.23
594.25	49829.13
594.45	49888.52
594.65	49480.97
594.85	49167.63
595.05	49927.43
595.24	50040.07
595.44	49290.51
595.64	49831.18
595.84	49886.47
596.04	50380.03
596.23	50357.50
596.43	50408.70
596.63	50255.11
596.83	50242.82
597.03	51033.33
597.22	50726.14
597.42	50263.30
597.62	50996.47
597.82	50441.47
598.02	50851.06
598.21	50738.43
598.41	50492.67
598.61	51025.14
598.81	50971.89
599.01	51291.38
599.20	50752.76
599.40	50795.77
599.60	51215.60
599.80	51277.04
600.00	51371.25
600.19	51633.39
600.39	51090.68
600.59	51723.50
600.79	51741.93
600.98	51625.20
601.18	51496.17
601.38	52069.61
601.58	51944.68
601.78	51901.67
601.97	51807.47
602.17	52188.39
602.37	52102.37
602.57	51973.35
602.76	52497.63
602.96	52167.91
603.16	52376.80
603.36	52282.59
603.55	52679.90
603.75	52241.63
603.95	52749.53
604.15	52425.95
604.34	52532.45
604.54	52581.60
604.74	52851.93
604.94	52790.49
605.13	53075.16
605.33	53363.92
605.53	52858.07
605.73	53462.22
605.92	53202.13
606.12	53368.02
606.32	53433.55
606.52	53234.90
606.71	53355.73
606.91	53712.08
607.11	53322.96
607.30	53695.69
607.50	53814.47
607.70	53476.56
607.90	53732.56
608.09	53841.10
608.29	53963.98
608.49	53648.59
608.68	53544.14
608.88	54228.16
609.08	54420.67
609.28	54324.42
609.47	53781.71
609.67	54416.58
609.87	54226.12
610.06	54428.87
610.26	53988.55
610.46	54525.12
610.66	54533.31
610.85	54531.26
611.05	54203.59
611.25	54355.14
611.44	54238.40
611.64	54316.23
611.84	54744.25
612.03	54351.04
612.23	54400.19
612.43	54447.30
612.62	54308.04
612.82	54566.08
613.02	54572.22
613.21	55233.72
613.41	54473.92
613.61	54721.72
613.80	54494.40
614.00	54916.28
614.20	55014.58
614.39	54621.37
614.59	54912.19
614.79	54828.22
614.98	55172.28
615.18	55139.51
615.38	55045.30
615.57	55147.70
615.77	55254.20
615.97	55319.73
616.16	55385.27
616.36	55123.13
616.56	54953.15
616.75	54971.58
616.95	54750.40
617.15	55270.58
617.34	55489.71
617.54	55106.74
617.74	55286.96
617.93	55268.53
618.13	54883.51
618.32	55055.54
618.52	54875.32
618.72	55620.78
618.91	55293.11
619.11	54815.93
619.31	55272.63
619.50	55172.28
619.70	54908.09
619.90	54777.02
620.09	55403.70
620.29	55231.67
620.48	55037.11
620.68	55391.41
620.88	54725.82
621.07	55430.32
621.27	55209.14
621.46	54985.91
621.66	55227.57
621.86	55452.85
622.05	55131.32
622.25	55334.07
622.44	55043.26
622.64	55049.40
622.84	55397.55
623.03	55186.61
623.23	55514.29
623.42	55194.81
623.62	55641.26
623.82	55368.88
624.01	55684.27
624.21	55770.28
624.40	55334.07
624.60	55104.70
624.80	55100.60
624.99	55063.74
625.19	55524.53
625.38	55227.57
625.58	55477.43
625.77	55385.27
625.97	55340.21
626.17	55235.77
626.36	55174.33
626.56	55278.77
626.75	55170.23
626.95	55727.28
627.14	55045.30
627.34	55733.42
627.54	55213.24
627.73	55633.07
627.93	55581.87
628.12	55100.60
628.32	55207.09
628.51	55618.74
628.71	55477.43
628.90	55686.32
629.10	55190.71
629.30	55338.16
629.49	55567.54
629.69	55440.56
629.88	55563.44
630.08	55684.27
630.27	55760.05
630.47	55852.20
630.66	55497.91
630.86	55549.10
631.05	55340.21
631.25	55997.61
631.44	55637.17
631.64	55776.43
631.84	55260.34
632.03	55905.45
632.23	56018.09
632.42	55960.75
632.62	55704.75
632.81	55403.70
633.01	55721.13
633.20	55733.42
633.40	55805.10
633.59	55651.50
633.79	55336.12
633.98	55530.67
634.18	56016.04
634.37	55596.21
634.57	56042.66
634.76	55891.12
634.96	55991.47
635.15	55686.32
635.35	55542.96
635.54	55952.55
635.74	56214.69
635.93	55418.03
636.13	56030.38
636.32	56132.78
636.52	55991.47
636.71	56057.00
636.91	56167.59
637.10	55917.74
637.30	56071.34
637.49	55921.83
637.69	55905.45
637.88	56126.63
638.08	55669.93
638.27	56222.89
638.46	55665.84
638.66	55678.13
638.85	55977.13
639.05	56226.98
639.24	55981.23
639.44	55801.00
639.63	56005.80
639.83	56276.13
640.02	55864.49
640.22	55948.46
640.41	56683.68
640.61	56087.72
640.80	56280.23
640.99	55661.74
641.19	56423.59
641.38	55925.93
641.58	56319.14
641.77	55813.29
641.97	55760.05
642.16	56235.17
642.36	56292.52
642.55	56757.41
642.74	56087.72
642.94	56556.70
643.13	56272.04
643.33	56620.19
643.52	56534.18
643.72	56374.44
643.91	56116.39
644.10	56386.72
644.30	57025.69
644.49	56044.71
644.69	56591.52
644.88	56456.35
645.08	56136.87
645.27	56323.24
645.46	56427.68
645.66	56542.37
645.85	55874.73
646.05	56134.82
646.24	56450.21
646.43	56462.50
646.63	56775.84
646.82	56788.13
647.02	56655.01
647.21	57046.17
647.40	56583.33
647.60	56970.39
647.79	56816.80
647.99	56693.92
648.18	56548.51
648.37	57160.86
648.57	56880.28
648.76	56095.91
648.96	56536.23
649.15	56554.66
649.34	56829.08
649.54	57128.09
649.73	56732.83
649.92	56771.74
650.12	56466.59
650.31	56612.00
650.51	57117.85
650.70	56980.63
650.89	56718.49
651.09	57371.80
651.28	56986.78
651.47	56943.77
651.67	56765.60
651.86	57631.89
652.06	56503.46
652.25	56751.26
652.44	57328.79
652.64	56620.19
652.83	56706.21
653.02	56599.71
653.22	57001.11
653.41	56886.43
653.60	56568.99
653.80	56824.99
653.99	56939.68
654.18	56468.64
654.38	56503.46
654.57	56984.73
654.76	56738.97
654.96	56331.43
655.15	56712.35
655.34	56413.35
655.54	56415.40
655.73	56661.15
655.92	56941.72
656.12	56970.39
656.31	56517.79
656.50	56673.44
656.70	56736.93
656.89	56325.28
657.08	56911.00
657.28	56558.75
657.47	56407.20
657.66	56734.88
657.86	56685.73
658.05	57007.26
658.24	57224.34
658.43	56657.06
658.63	56841.37
658.82	56960.15
659.01	56689.82
659.21	57042.07
659.40	57023.64
659.59	56589.47
659.79	56894.62
659.98	57074.84
660.17	57021.59
660.36	56804.51
660.56	56597.66
660.75	56685.73
660.94	56544.42
661.14	56802.46
661.33	56861.85
661.52	56603.81
661.71	57023.64
661.91	56458.40
662.10	56902.81
662.29	57085.08
662.49	56886.43
662.68	56886.43
662.87	56745.12
663.06	57087.13
663.26	56548.51
663.45	57001.11
663.64	56984.73
663.83	57156.76
664.03	56800.41
664.22	56949.92
664.41	56859.80
664.60	56677.54
664.80	56902.81
664.99	56671.39
665.18	56634.53
665.37	56495.27
665.57	56827.04
665.76	56288.42
665.95	56517.79
666.14	56640.67
666.34	56530.08
666.53	56550.56
666.72	56687.78
666.91	56698.01
667.11	56396.96
667.30	56876.19
667.49	56259.75
667.68	56315.04
667.87	55895.21
668.07	56503.46
668.26	56442.02
668.45	56472.74
668.64	56265.89
668.84	57255.06
669.03	56685.73
669.22	56628.38
669.41	56038.57
669.60	56837.28
669.80	56589.47
669.99	56630.43
670.18	56644.77
670.37	56487.07
670.57	57248.92
670.76	56351.91
670.95	56870.04
671.14	56390.82
671.33	56376.48
671.53	56689.82
671.72	56640.67
671.91	56478.88
672.10	56282.28
672.29	56399.01
672.48	56079.53
672.68	56542.37
672.87	55778.48
673.06	56063.14
673.25	56251.56
673.44	56370.34
673.64	56065.19
673.83	56028.33
674.02	56057.00
674.21	55901.36
674.40	56024.23
674.59	55565.49
674.79	56018.09
674.98	55841.96
675.17	56286.37
675.36	55884.97
675.55	56390.82
675.74	56192.17
675.94	56048.81
676.13	56308.90
676.32	56399.01
676.51	56591.52
676.70	55882.92
676.89	56196.26
677.08	55991.47
677.28	55667.89
677.47	55575.73
677.66	55970.99
677.85	55999.66
678.04	56310.95
678.23	56130.73
678.42	56038.57
678.62	55690.41
678.81	55966.89
679.00	55581.87
679.19	56005.80
679.38	55604.40
679.57	55983.27
679.76	55428.27
679.96	55923.88
680.15	55606.45
680.34	55751.85
680.53	55358.64
680.72	55794.86
680.91	55686.32
681.10	55678.13
681.29	55530.67
681.48	55358.64
681.68	55710.89
681.87	55530.67
682.06	55329.97
682.25	55127.22
682.44	55153.85
682.63	55594.16
682.82	55139.51
683.01	55270.58
683.20	54891.71
683.39	55297.20
683.59	55284.92
683.78	54856.89
683.97	54645.95
684.16	54996.15
684.35	55024.82
684.54	54838.46
684.73	55092.41
684.92	54574.27
685.11	55307.44
685.30	54648.00
685.49	55092.41
685.69	54963.39
685.88	54703.29
686.07	54846.65
686.26	55004.34
686.45	54664.38
686.64	54666.43
686.83	55172.28
687.02	54850.75
687.21	54795.45
687.40	54600.89
687.59	54713.53
687.78	54789.31
687.97	54973.63
688.16	54912.19
688.35	54740.16
688.54	54820.03
688.74	54625.47
688.93	54564.03
689.12	54475.97
689.31	54228.16
689.50	55018.68
689.69	54285.51
689.88	53490.90
690.07	54633.66
690.26	54537.41
690.45	54926.52
690.64	54254.79
690.83	54402.24
691.02	54334.66
691.21	53800.14
691.40	54082.76
691.59	54314.18
691.78	53867.72
691.97	54281.41
692.16	54015.18
692.35	53980.36
692.54	54478.02
692.73	54189.25
692.92	54084.81
693.11	53974.22
693.30	53843.15
693.49	53585.10
693.68	53566.67
693.87	53837.00
694.06	53501.14
694.25	53728.46
694.44	53644.49
694.63	53595.34
694.82	53689.55
695.01	53794.00
695.20	53177.56
695.39	53597.39
695.58	53845.19
695.77	53664.97
695.96	53394.64
696.15	53263.57
696.34	53408.98
696.53	53413.07
696.72	53732.56
696.91	53449.94
697.10	53181.65
697.29	53124.31
697.48	53476.56
697.67	53179.60
697.86	53255.38
698.05	53286.10
698.24	53634.25
698.43	52643.04
698.62	53206.23
698.81	53023.96
699.00	52993.24
699.19	52640.99
699.38	53318.87
699.57	52632.80
699.76	53593.29
699.95	52876.51
700.14	52614.37
700.32	52835.55
700.51	52477.15
700.70	53175.51
700.89	52718.81
701.08	52952.28
701.27	52733.15
701.46	53050.58
701.65	51971.30
701.84	52577.50
702.03	52968.66
702.22	52401.38
702.41	52376.80
702.60	52767.96
702.79	52473.06
702.98	52348.13
703.17	52401.38
703.35	52085.99
703.54	52407.52
703.73	52745.44
703.92	52337.89
704.11	52530.40
704.30	52114.66
704.49	52053.22
704.68	52446.43
704.87	52059.37
705.06	51926.25
705.25	52040.93
705.43	52042.98
705.62	52241.63
705.81	51975.40
706.00	51893.48
706.19	51500.27
706.38	51932.39
706.57	51944.68
706.76	51383.54
706.95	52157.67
707.14	51850.47
707.32	51899.62
707.51	51590.38
707.70	51758.31
707.89	51461.36
708.08	51791.08
708.27	51483.89
708.46	51660.01
708.65	51608.81
708.84	51606.76
709.02	51606.76
709.21	51610.86
709.40	51481.84
709.59	51088.63
709.78	51107.06
709.97	51942.63
710.16	51270.90
710.34	51743.98
710.53	51533.04
710.72	51145.97
710.91	51166.45
711.10	51434.74
711.29	51461.36
711.48	51305.71
711.66	50982.13
711.85	50930.93
712.04	51215.60
712.23	51131.64
712.42	51021.05
712.61	50853.11
712.80	51307.76
712.98	51082.48
713.17	51107.06
713.36	51418.35
713.55	50885.88
713.74	50707.71
713.93	50920.70
714.11	50525.44
714.30	50433.28
714.49	50515.20
714.68	50889.98
714.87	50713.85
715.06	50767.10
715.24	50844.92
715.43	50709.75
715.62	50607.36
715.81	50717.95
716.00	50326.78
716.18	50320.64
716.37	50271.49
716.56	50109.70
716.75	50953.46
716.94	50056.45
717.12	50330.88
717.31	50242.82
717.50	50308.35
717.69	50134.28
717.88	50099.46
718.06	50377.98
718.25	50650.36
718.44	49790.22
718.63	49730.83
718.82	49724.68
719.00	50214.15
719.19	49773.83
719.38	49847.56
719.57	49390.86
719.76	49622.28
719.94	49554.70
720.13	49509.64
720.32	49372.43
720.51	49798.41
720.69	49521.93
720.88	49128.72
721.07	49478.92
721.26	49427.73
721.44	48809.24
721.63	49028.37
721.82	49251.60
722.01	49138.96
722.20	49175.83
722.38	48921.88
722.57	48428.32
722.76	48968.98
722.95	48586.01
723.13	48432.41
723.32	48590.11
723.51	48246.05
723.70	48575.77
723.88	48743.70
724.07	48366.88
724.26	48426.27
724.44	47940.90
724.63	48672.03
724.82	48469.28
725.01	48028.96
725.19	48006.44
725.38	48375.07
725.57	47871.27
725.76	48422.17
725.94	48233.76
726.13	47594.79
726.32	48182.56
726.51	47885.61
726.69	48588.06
726.88	48360.73
727.07	48342.30
727.25	47961.38
727.44	47844.65
727.63	47738.15
727.82	47992.10
728.00	47539.50
728.19	47680.81
728.38	48219.42
728.56	47379.76
728.75	48178.46
728.94	47473.96
729.12	47588.65
729.31	47779.11
729.50	47789.35
729.69	48108.83
729.87	47912.23
730.06	47846.69
730.25	48018.72
730.43	48137.51
730.62	47953.19
730.81	47949.09
730.99	48071.97
731.18	47807.78
731.37	47732.01
731.55	48098.59
731.74	47957.28
731.93	47846.69
732.11	47920.42
732.30	47809.83
732.49	47732.01
732.67	48094.50
732.86	47689.00
733.05	47932.71
733.23	47564.07
733.42	47947.04
733.61	47336.75
733.79	47914.28
733.98	47883.56
734.17	47901.99
734.35	47707.43
734.54	47775.02
734.73	47697.19
734.91	47940.90
735.10	47355.18
735.29	47762.73
735.47	47177.01
735.66	47533.35
735.84	48035.11
736.03	47639.85
736.22	48182.56
736.40	47310.13
736.59	47402.28
736.78	47467.82
736.96	47559.98
737.15	47424.81
737.33	47275.31
737.52	47480.11
737.71	47078.71
737.89	47584.55
738.08	47064.37
738.27	47353.13
738.45	47881.51
738.64	47101.23
738.82	47371.57
739.01	47201.58
739.20	47426.86
739.38	47287.60
739.57	47760.68
739.75	47312.17
739.94	47142.19
740.13	47361.33
740.31	47043.89
740.50	47043.89
740.68	47158.58
740.87	47211.82
741.06	46986.55
741.24	46996.79
741.43	47117.62
741.61	46964.02
741.80	46931.25
741.99	47170.86
742.17	46665.02
742.36	47045.94
742.54	46867.76
742.73	46976.31
742.91	47324.46
743.10	46822.71
743.29	46912.82
743.47	47007.03
743.66	46554.43
743.84	46699.83
744.03	46730.55
744.21	46816.57
744.40	47074.61
744.59	46738.74
744.77	46800.18
744.96	46908.72
745.14	46460.22
745.33	46593.34
745.51	46607.67
745.70	46734.65
745.88	46523.71
746.07	46777.65
746.26	46331.20
746.44	46478.65
746.63	46423.36
746.81	46581.05
747.00	45743.43
747.18	46093.63
747.37	46323.01
747.55	46499.13
747.74	46560.57
747.92	46046.53
748.11	46331.20
748.29	46007.62
748.48	46280.00
748.66	45958.47
748.85	46345.53
749.03	46118.21
749.22	45978.95
749.41	46056.77
749.59	46290.24
749.78	46112.06
749.96	45890.88
750.15	46161.22
750.33	46034.24
750.52	46036.29
750.70	46017.86
750.89	45944.13
751.07	45737.29
751.26	45720.90
751.44	45505.87
751.63	45829.44
751.81	45446.47
752.00	45833.54
752.18	45573.45
752.37	45342.03
752.55	45442.38
752.74	45299.02
752.92	45258.06
753.10	45227.34
753.29	45567.30
753.47	45319.50
753.66	45188.43
753.84	45581.64
754.03	45282.64
754.21	45063.50
754.40	45434.19
754.58	45305.16
754.77	45503.82
754.95	44893.52
755.14	45200.72
755.32	44905.81
755.51	44838.23
755.69	45034.83
755.88	44957.01
756.06	44705.11
756.24	44420.44
756.43	44715.35
756.61	44911.95
756.80	44719.45
756.98	44361.05
757.17	44815.70
757.35	44780.88
757.54	44819.80
757.72	44576.09
757.90	44303.71
758.09	44668.25
758.27	44541.27
758.46	44877.14
758.64	44438.87
758.83	44893.52
759.01	44399.96
759.19	44244.32
759.38	44268.89
759.56	44598.62
759.75	44086.62
759.93	44463.45
760.12	44178.78
760.30	44232.03
760.48	44086.62
760.67	44160.35
760.85	44414.30
761.04	44209.50
761.22	44172.64
761.40	44129.63
761.59	44238.17
761.77	43744.61
761.96	43763.04
762.14	43742.56
762.32	43824.48
762.51	43523.43
762.69	43662.69
762.88	43449.70
763.06	43890.02
763.24	43722.08
763.43	43717.99
763.61	43111.79
763.80	43449.70
763.98	43191.66
764.16	43484.52
764.35	43226.48
764.53	43152.75
764.72	43285.87
764.90	43234.67
765.08	43314.54
765.27	43195.76
765.45	42964.34
765.63	43124.08
765.82	43175.28
766.00	42880.37
766.18	43134.32
766.37	42931.57
766.55	42868.08
766.74	43165.04
766.92	42866.03
767.10	42962.29
767.29	42950.00
767.47	42399.10
767.65	42732.92
767.84	42648.95
768.02	42769.78
768.20	42278.27
768.39	42526.07
768.57	42274.17
768.75	42550.65
768.94	42997.10
769.12	42366.33
769.30	42354.04
769.49	42280.31
769.67	42222.97
769.85	41817.47
770.04	42513.78
770.22	41883.01
770.40	42169.72
770.59	41989.50
770.77	42282.36
770.95	41940.35
771.14	42132.86
771.32	41760.13
771.50	41706.88
771.69	41862.53
771.87	42286.46
772.05	41825.67
772.24	41127.31
772.42	41864.58
772.60	41696.64
772.78	41420.17
772.97	41252.23
773.15	41708.93
773.33	41610.63
773.52	41047.44
773.70	41469.32
773.88	41608.58
774.07	41387.40
774.25	41434.50
774.43	41635.20
774.61	41772.42
774.80	41547.14
774.98	41377.16
775.16	41596.29
775.34	41553.29
775.53	41366.92
775.71	41645.44
775.89	41901.44
776.08	41780.61
776.26	41897.34
776.44	41874.82
776.62	41715.08
776.81	41483.66
776.99	41530.76
777.17	41733.51
777.35	41866.63
777.54	42132.86
777.72	41694.60
777.90	41538.95
778.08	42057.09
778.27	41760.13
778.45	41745.80
778.63	41989.50
778.81	41735.56
779.00	42325.37
779.18	41743.75
779.36	42239.36
779.54	42016.13
779.73	41936.26
779.91	42044.80
780.09	42071.42
780.27	42403.19
780.46	42173.82
780.64	42708.34
780.82	42251.64
781.00	42225.02
781.19	42528.12
781.37	42773.88
781.55	42360.19
781.73	43009.39
781.91	42579.32
782.10	42435.96
782.28	42513.78
782.46	42116.48
782.64	42577.27
782.82	42495.35
783.01	42675.57
783.19	42790.26
783.37	42468.73
783.55	42472.82
783.74	42593.65
783.92	42499.45
784.10	42947.95
784.28	42706.29
784.46	42204.54
784.64	42505.59
784.83	42165.63
785.01	42804.59
785.19	42499.45
785.37	42970.48
785.55	42761.59
785.74	42028.41
785.92	42194.30
786.10	42681.72
786.28	42438.01
786.46	42425.72
786.64	42030.46
786.83	42745.20
787.01	42452.34
787.19	42225.02
787.37	42431.86
787.55	42145.15
787.74	41913.73
787.92	42229.12
788.10	42139.00
788.28	41602.44
788.46	41944.45
788.64	41737.60
788.82	42081.66
789.01	41590.15
789.19	41901.44
789.37	41725.32
789.55	41776.51
789.73	41117.07
789.91	41438.60
790.09	41545.09
790.28	41096.59
790.46	41086.35
790.64	41364.87
790.82	41014.67
791.00	40994.19
791.18	41117.07
791.36	40859.02
791.55	41129.36
791.73	40916.37
791.91	40301.98
792.09	41424.26
792.27	40461.72
792.45	40383.90
792.63	40697.24
792.81	40275.35
793.00	40471.96
793.18	40250.78
793.36	40156.57
793.54	40281.50
793.72	40035.74
793.90	39775.65
794.08	39683.49
794.26	40232.35
794.44	39388.58
794.62	39552.42
794.81	39859.62
794.99	39314.86
795.17	39419.30
795.35	39439.78
795.53	39552.42
795.71	39654.82
795.89	39243.18
796.07	38946.22
796.25	38962.61
796.43	38829.49
796.61	38817.20
796.80	38987.18
796.98	38827.44
797.16	38438.33
797.34	38696.37
797.52	38221.24
797.70	38806.96
797.88	38337.98
798.06	37909.95
798.24	37877.18
798.42	38485.43
798.60	37483.97
798.78	37631.43
798.96	37948.86
799.14	37535.17
799.32	37725.63
799.51	37615.04
799.69	37746.11
799.87	37764.54
800.05	37295.56
800.23	37393.86
800.41	37123.53
800.59	37361.09
800.77	36883.92
800.95	36783.57
801.13	36660.69
801.31	36515.28
801.49	37000.65
801.67	36429.27
801.85	36462.04
802.03	36419.03
802.21	36181.46
802.39	36091.35
802.57	36197.85
802.75	36292.05
802.93	36234.71
803.11	35968.48
803.29	35663.33
803.47	35743.20
803.65	35859.93
803.83	35628.51
804.01	35755.49
804.19	35636.70
804.37	35309.03
804.55	35421.67
804.73	35192.30
804.91	35464.67
805.09	35327.46
805.27	34954.73
805.45	35218.92
805.63	34954.73
805.81	35020.27
805.99	34850.28
806.17	35112.42
806.35	34874.86
806.53	34330.10
806.71	34885.10
806.89	34469.36
807.07	34250.23
807.25	34727.41
807.43	34516.47
807.61	34455.03
807.79	34387.44
807.97	33977.85
808.15	33900.03
808.33	33736.19
808.51	33711.61
808.69	33822.20
808.87	33547.78
809.05	33224.20
809.23	33226.24
809.41	33203.72
809.59	33543.68
809.77	33191.43
809.95	33459.71
810.13	33697.28
810.31	32972.30
810.49	33254.92
810.67	33000.97
810.84	33009.16
811.02	33275.40
811.20	33037.83
811.38	32904.71
811.56	32529.94
811.74	32658.96
811.92	32523.79
812.10	32650.77
812.28	32769.55
812.46	32699.92
812.64	32450.06
812.82	32040.47
813.00	32452.11
813.18	32054.81
813.36	31956.50
813.53	32157.21
813.71	31929.88
813.89	31897.11
814.07	31864.35
814.25	32196.12
814.43	31649.31
814.61	31553.05
814.79	31364.64
814.97	31714.84
815.15	31667.74
815.33	31180.32
815.50	31018.53
815.68	30987.82
815.86	31667.74
816.04	30993.96
816.22	31235.62
816.40	31415.84
816.58	30858.79
816.76	30993.96
816.94	30852.65
817.11	30785.07
817.29	30606.89
817.47	30645.80
817.65	30334.51
817.83	30244.40
818.01	30582.32
818.19	30428.72
818.37	30502.45
818.54	30453.30
818.72	30475.82
818.90	30232.11
819.08	30381.62
819.26	30248.50
819.44	30043.70
819.62	29984.31
819.80	30039.61
819.97	30322.23
820.15	30049.85
820.33	29908.54
820.51	30170.68
820.69	29431.36
820.87	29834.81
821.05	29871.67
821.22	29505.09
821.40	29820.47
821.58	29312.58
821.76	29476.41
821.94	29462.08
822.12	29660.73
822.29	29541.95
822.47	29562.43
822.65	29574.72
822.83	29300.29
823.01	29361.73
823.19	29107.78
823.36	28984.90
823.54	28874.31
823.72	28835.40
823.90	28843.59
824.08	28692.04
824.25	28839.50
824.43	28687.95
824.61	28855.88
824.79	28995.14
824.97	28599.88
825.15	28970.57
825.32	28782.15
825.50	28446.29
825.68	28411.47
825.86	28487.25
826.04	28362.32
826.21	28347.98
826.39	28038.74
826.57	28159.57
826.75	28153.43
826.93	28118.61
827.10	28298.83
827.28	28048.98
827.46	28143.19
827.64	28051.03
827.81	27719.26
827.99	27960.92
828.17	27604.57
828.35	27543.13
828.53	27711.07
828.70	27459.16
828.88	27811.42
829.06	27549.28
829.24	27897.43
829.41	27352.67
829.59	27604.57
829.77	27584.09
829.95	27418.21
830.12	27346.53
830.30	27448.93
830.48	27643.48
830.66	27211.36
830.84	27590.24
831.01	26969.70
831.19	27461.21
831.37	27106.91
831.55	27166.31
831.72	26934.88
831.90	27139.68
832.08	27295.33
832.25	27283.04
832.43	26908.26
832.61	26838.63
832.79	26467.95
832.96	26777.19
833.14	26936.93
833.32	26928.74
833.50	26898.02
833.67	26844.77
833.85	26639.98
834.03	26416.75
834.20	26371.69
834.38	26596.97
834.56	26676.84
834.74	26455.66
834.91	26230.38
835.09	26572.39
835.27	26101.36
835.44	26297.97
835.62	25960.05
835.80	25695.86
835.98	26246.77
836.15	26383.98
836.33	26087.03
836.51	26056.31
836.68	25939.57
836.86	25761.40
837.04	25869.94
837.21	25869.94
837.39	25984.63
837.57	26300.01
837.75	26066.55
837.92	25654.90
838.10	25763.45
838.28	25583.23
838.45	25476.73
838.63	25409.15
838.81	25638.52
838.98	25570.94
839.16	25421.44
839.34	24950.40
839.51	25335.42
839.69	25106.05
839.87	25108.10
840.04	25429.63
840.22	25228.93
840.40	25261.69
840.57	24874.63
840.75	25187.97
840.93	24958.60
841.10	25050.75
841.28	25087.62
841.46	25124.48
841.63	25185.92
841.81	24733.32
841.98	24749.70
842.16	24874.63
842.34	24551.05
842.51	24645.26
842.69	24761.99
842.87	24503.95
843.04	25085.57
843.22	24669.83
843.40	24577.67
843.57	25003.65
843.75	24895.11
843.92	24495.75
844.10	24364.68
844.28	24419.98
844.45	24497.80
844.63	24600.20
844.81	24297.10
844.98	24387.21
845.16	24417.93
845.33	24493.71
845.51	24364.68
845.69	24045.20
845.86	24063.63
846.04	23746.20
846.21	23955.09
846.39	24090.26
846.57	23940.75
846.74	24092.30
846.92	23998.10
847.09	24047.25
847.27	23809.68
847.45	23719.57
847.62	23701.14
847.80	23731.86
847.97	23699.09
848.15	23858.84
848.32	23266.97
848.50	23676.57
848.68	23535.26
848.85	23697.05
849.03	23178.91
849.20	23699.09
849.38	23371.42
849.56	23418.52
849.73	23338.65
849.91	23443.10
850.08	23828.12
850.26	22787.75
850.43	23277.21
850.61	23207.58
850.78	23086.75
850.96	23140.00
851.14	22859.43
851.31	23283.36
851.49	22822.56
851.66	23037.60
851.84	22800.04
852.01	23383.71
852.19	22865.57
852.36	23000.74
852.54	22863.52
852.71	22841.00
852.89	22933.15
853.07	22705.83
853.24	22988.45
853.42	22750.88
853.59	22650.53
853.77	22693.54
853.94	22714.02
854.12	22959.78
854.29	22341.29
854.47	22599.34
854.64	22560.42
854.82	22490.79
854.99	22552.23
855.17	22214.32
855.34	22300.33
855.52	22668.97
855.69	22832.80
855.87	22415.02
856.04	22193.84
856.22	22312.62
856.39	22173.36
856.57	21986.99
856.74	22064.82
856.92	22173.36
857.09	22320.81
857.27	22068.91
857.44	21909.17
857.62	22023.86
857.79	21892.79
857.97	21958.32
858.14	21982.90
858.32	22046.38
858.49	22050.48
858.67	21659.32
858.84	21759.67
859.02	21855.92
859.19	21677.75
859.37	21505.72
859.54	21520.06
859.72	21792.44
859.89	21477.05
860.06	21843.63
860.24	21475.00
860.41	21620.41
860.59	21438.14
860.76	21571.25
860.94	21038.78
861.11	21683.89
861.29	21216.96
861.46	21268.16
861.64	21081.79
861.81	21102.27
861.98	21360.31
862.16	21118.65
862.33	20944.58
862.51	20741.83
862.68	21055.17
862.86	21051.07
863.03	21169.85
863.21	20850.37
863.38	20682.44
863.55	20981.44
863.73	20770.50
863.90	20938.43
864.08	20801.22
864.25	20666.05
864.43	20790.98
864.60	20530.89
864.77	20582.09
864.95	20635.33
865.12	20338.38
865.30	20244.17
865.47	20274.89
865.64	20575.94
865.82	20766.40
865.99	20629.19
866.17	20278.99
866.34	20481.74
866.51	20166.35
866.69	20242.12
866.86	20526.79
867.04	20248.27
867.21	20233.93
867.38	19963.60
867.56	20057.81
867.73	20377.29
867.91	19953.36
868.08	20004.56
868.25	20041.42
868.43	19758.80
868.60	19691.22
868.78	19975.89
868.95	20147.92
869.12	20195.02
869.30	19578.58
869.47	19640.02
869.64	19416.79
869.82	19674.84
869.99	19248.86
870.16	19588.82
870.34	19613.40
870.51	19697.36
870.69	19345.11
870.86	19259.10
871.03	19721.94
871.21	19222.23
871.38	19562.20
871.55	19371.74
871.73	19328.73
871.90	19398.36
872.07	19326.68
872.25	19113.69
872.42	18966.24
872.59	19267.29
872.77	19027.68
872.94	18906.85
873.11	19158.75
873.29	18986.72
873.46	18894.56
873.63	18898.66
873.81	18632.42
873.98	18816.74
874.15	18812.64
874.33	18401.00
874.50	18396.90
874.67	18532.07
874.85	18624.23
875.02	18325.22
875.19	18405.10
875.37	18589.41
875.54	18616.04
875.71	18552.55
875.88	18120.43
876.06	18570.98
876.23	18128.62
876.40	18190.06
876.58	18220.78
876.75	18235.11
876.92	18147.05
877.10	18091.76
877.27	17968.88
877.44	17784.56
877.61	17870.58
877.79	17817.33
877.96	17899.25
878.13	17753.84
878.31	17655.54
878.48	17383.16
878.65	17501.94
878.82	17583.86
879.00	17602.29
879.17	17622.77
879.34	17473.27
879.51	17616.63
879.69	17518.32
879.86	17364.73
880.03	17393.40
880.21	17354.49
880.38	17577.72
880.55	17471.22
880.72	17331.96
880.90	17174.27
881.07	17221.37
881.24	17270.52
881.41	17264.38
881.59	17151.74
881.76	17211.13
881.93	17213.18
882.10	17225.47
882.28	16969.47
882.45	17342.20
882.62	16895.74
882.79	17190.65
882.96	16836.35
883.14	16992.00
883.31	17026.81
883.48	16879.36
883.65	16809.73
883.83	16699.14
884.00	16748.29
884.17	16684.80
884.34	16750.34
884.51	17006.33
884.69	16690.95
884.86	16721.66
885.03	16686.85
885.20	16363.27
885.38	16647.94
885.55	16580.36
885.72	16654.08
885.89	16422.66
886.06	16692.99
886.24	16393.99
886.41	16383.75
886.58	16531.20
886.75	16815.87
886.92	16066.31
887.10	16672.51
887.27	16154.38
887.44	16457.48
887.61	16449.28
887.78	16387.85
887.95	16570.12
888.13	16256.78
888.30	16097.03
888.47	16228.10
888.64	16199.43
888.81	16074.51
888.99	15884.05
889.16	15906.57
889.33	15845.13
889.50	15861.52
889.67	16066.31
889.84	15916.81
890.01	16107.27
890.19	15879.95
890.36	15963.92
890.53	15845.13
890.70	15810.32
890.87	15804.17
891.04	15738.64
891.22	15806.22
891.39	15675.15
891.56	15685.39
891.73	15650.58
891.90	15408.92
892.07	15474.45
892.24	15595.28
892.42	15476.50
892.59	15570.71
892.76	15382.29
892.93	15365.91
893.10	15492.88
893.27	15433.49
893.44	15458.07
893.61	15490.84
893.79	15539.99
893.96	15261.46
894.13	15181.59
894.30	15550.23
894.47	15365.91
894.64	15271.70
894.81	15247.13
894.98	15253.27
895.15	15558.42
895.33	15308.57
895.50	15294.23
895.67	15554.32
895.84	15286.04
896.01	15165.21
896.18	14876.44
896.35	15392.53
896.52	15308.57
896.69	15279.89
896.86	15114.01
897.04	15230.74
897.21	15034.14
897.38	15189.78
897.55	14987.04
897.72	15255.32
897.89	15140.63
898.06	15058.71
898.23	14958.36
898.40	15062.81
898.57	14966.56
898.74	15187.74
898.91	15019.80
899.08	15050.52
899.26	15085.34
899.43	15103.77
899.60	14972.70
899.77	15187.74
899.94	15013.66
900.11	14978.84
900.28	14888.73
900.45	14894.88
900.62	14970.65
900.79	15189.78
900.96	15034.14
901.13	15191.83
901.30	14929.69
901.47	14880.54
901.64	14874.40
901.81	15138.58
901.98	15238.94
902.15	15118.11
902.32	15062.81
902.49	15240.98
902.66	14911.26
902.83	14825.25
903.01	14860.06
903.18	15159.06
903.35	14864.16
903.52	14952.22
903.69	14982.94
903.86	15136.54
904.03	15060.76
904.20	15222.55
904.37	14970.65
904.54	14833.44
904.71	15034.14
904.88	14886.68
905.05	14831.39
905.22	15087.39
905.39	15058.71
905.56	14948.12
905.73	14915.36
905.90	15068.95
906.07	14874.40
906.24	14735.14
906.41	15105.82
906.58	14937.88
906.75	14991.13
906.92	15011.61
907.09	14757.66
907.26	14825.25
907.43	14544.67
907.60	14716.70
907.77	15097.63
907.93	15025.95
908.10	14911.26
908.27	14843.68
908.44	14851.87
908.61	14884.64
908.78	14706.46
908.95	14880.54
909.12	14655.26
909.29	14604.07
909.46	14599.97
909.63	14772.00
909.80	14769.95
909.97	14749.47
910.14	14622.50
910.31	14731.04
910.48	14733.09
910.65	14470.95
910.82	14538.53
910.99	14669.60
911.16	14526.24
911.33	14788.38
911.50	14497.57
911.66	14567.20
911.83	14415.65
912.00	14348.07
912.17	14298.92
912.34	14591.78
912.51	14429.99
912.68	14483.24
912.85	14276.39
913.02	14364.45
913.19	14403.36
913.36	14286.63
913.53	14393.12
913.70	14360.36
913.86	14378.79
914.03	14163.75
914.20	14358.31
914.37	14200.62
914.54	14329.64
914.71	14194.47
914.88	14075.69
915.05	14016.30
915.22	14049.07
915.39	13807.41
915.55	13958.96
915.72	13692.72
915.89	13911.85
916.06	13774.64
916.23	13809.45
916.40	13829.93
916.57	13680.43
916.74	13664.05
916.91	13643.57
917.07	13723.44
917.24	13664.05
917.41	13614.90
917.58	13614.90
917.75	13549.36
917.92	13322.04
918.09	13440.82
918.26	13455.15
918.42	13446.96
918.59	13418.29
918.76	13268.79
918.93	13193.01
919.10	12861.24
919.27	12896.06
919.44	13266.74
919.60	13098.81
919.77	13100.86
919.94	12828.48
920.11	13057.85
920.28	13143.86
920.45	13000.51
920.61	12846.91
920.78	12816.19
920.95	12736.32
921.12	12904.25
921.29	12535.62
921.46	12650.30
921.62	12599.10
921.79	12625.73
921.96	12578.62
922.13	12566.34
922.30	12443.46
922.47	12476.23
922.63	12195.65
922.80	12377.92
922.97	12556.10
923.14	12154.69
923.31	12435.27
923.47	12369.73
923.64	12201.80
923.81	12001.10
923.98	12117.83
924.15	11947.85
924.32	11931.47
924.48	12017.48
924.65	11960.14
924.82	11773.77
924.99	11652.94
925.15	11607.89
925.32	11951.95
925.49	11528.02
925.66	11538.26
925.83	11519.82
925.99	11493.20
926.16	11577.17
926.33	11562.83
926.50	11292.50
926.67	11530.06
926.83	11405.14
927.00	11206.48
927.17	11210.58
927.34	11145.05
927.50	11167.57
927.67	11290.45
927.84	11159.38
928.01	11104.09
928.17	10856.28
928.34	11102.04
928.51	10956.63
928.68	10846.04
928.84	10694.49
929.01	10694.49
929.18	10708.83
929.35	10614.62
929.51	10579.81
929.68	10540.90
929.85	10706.78
930.02	10413.92
930.18	10510.18
930.35	10393.44
930.52	10268.52
930.69	10393.44
930.85	10076.01
931.02	10153.83
931.19	10297.19
931.36	10076.01
931.52	10061.67
931.69	10198.88
931.86	10258.28
932.02	9951.08
932.19	9930.60
932.36	9824.11
932.53	9906.02
932.69	9660.27
932.86	9881.45
933.03	9695.08
933.19	9682.80
933.36	9600.88
933.53	9885.55
933.70	9447.28
933.86	9297.78
934.03	9547.63
934.20	9590.64
934.36	9475.95
934.53	9148.28
934.70	8949.62
934.86	9224.05
935.03	9101.17
935.20	8914.81
935.36	8953.72
935.53	8951.67
935.70	8949.62
935.86	8759.16
936.03	8482.69
936.20	8544.13
936.36	8613.76
936.53	8466.30
936.70	8464.25
936.86	8535.93
937.03	8300.42
937.20	8136.58
937.36	8064.90
937.53	7923.59
937.70	8052.61
937.86	7675.79
938.03	7710.60
938.20	7894.92
938.36	7538.57
938.53	7579.53
938.70	7419.79
938.86	7511.95
939.03	7286.67
939.20	7274.38
939.36	7305.10
939.53	7051.16
939.70	7169.94
939.86	6883.22
940.03	6877.08
940.19	6780.82
940.36	6754.20
940.53	6672.28
940.69	6627.23
940.86	6588.32
941.03	6471.58
941.19	6373.28
941.36	6317.98
941.52	6311.84
941.69	6254.50
941.86	6174.63
942.02	5992.36
942.19	6109.09
942.35	6074.28
942.52	5902.25
942.69	6033.32
942.85	5771.18
943.02	5842.85
943.18	5844.90
943.35	5754.79
943.52	5496.75
943.68	5652.39
943.85	5664.68
944.01	5605.29
944.18	5550.00
944.35	5726.12
944.51	5539.76
944.68	5380.01
944.84	5490.60
945.01	5257.14
945.17	5509.04
945.34	5431.21
945.51	5418.93
945.67	5380.01
945.84	5435.31
946.00	5195.70
946.17	5253.04
946.33	5332.91
946.50	5502.89
946.67	5394.35
946.83	5257.14
947.00	5394.35
947.16	5341.10
947.33	5267.38
947.49	5232.56
947.66	5201.84
947.82	5222.32
947.99	5420.97
948.16	5146.55
948.32	5189.55
948.49	5294.00
948.65	5308.34
948.82	5289.90
948.98	5171.12
949.15	5197.74
949.31	5128.11
949.48	5189.55
949.64	5308.34
949.81	5115.83
949.97	5191.60
950.14	5164.98
950.30	5345.20
950.47	5328.81
950.63	5236.66
950.80	5087.15
950.96	5185.46
951.13	5164.98
951.30	5132.21
951.46	5400.49
951.63	5300.14
951.79	5341.10
951.96	5418.93
952.12	5355.44
952.29	5289.90
952.45	5220.27
952.62	5328.81
952.78	5375.92
952.94	5353.39
953.11	5441.45
953.27	5240.75
953.44	5418.93
953.60	5357.49
953.77	5586.86
953.93	5380.01
954.10	5382.06
954.26	5355.44
954.43	5482.41
954.59	5470.12
954.76	5511.08
954.92	5541.80
955.09	5386.16
955.25	5410.73
955.42	5316.53
955.58	5488.56
955.75	5255.09
955.91	5529.52
956.07	5545.90
956.24	5437.36
956.40	5394.35
956.57	5535.66
956.73	5388.21
956.90	5595.05
957.06	5459.88
957.23	5363.63
957.39	5449.64
957.56	5525.42
957.72	5207.98
957.88	5490.60
958.05	5554.09
958.21	5474.22
958.38	5418.93
958.54	5341.10
958.71	5496.75
958.87	5500.84
959.03	5408.69
959.20	5310.38
959.36	5525.42
959.53	5314.48
959.69	5418.93
959.85	5400.49
960.02	5404.59
960.18	5455.79
960.35	5330.86
960.51	5513.13
960.68	5468.08
960.84	5373.87
961.00	5384.11
961.17	5371.82
961.33	5433.26
961.50	5375.92
961.66	5470.12
961.82	5451.69
961.99	5504.94
962.15	5369.77
962.31	5337.01
962.48	5423.02
962.64	5416.88
962.81	5386.16
962.97	5404.59
963.13	5167.03
963.30	5509.04
963.46	5244.85
963.62	5382.06
963.79	5427.12
963.95	5255.09
964.12	5312.43
964.28	5363.63
964.44	5238.70
964.61	5388.21
964.77	5281.71
964.93	5400.49
965.10	5294.00
965.26	5261.23
965.42	5339.05
965.59	5320.62
965.75	5339.05
965.92	5461.93
966.08	5294.00
966.24	5300.14
966.41	5179.31
966.57	5343.15
966.73	5330.86
966.90	5353.39
967.06	5267.38
967.22	5320.62
967.39	5408.69
967.55	5162.93
967.71	5212.08
967.88	5128.11
968.04	5281.71
968.20	5207.98
968.37	5070.77
968.53	5130.16
968.69	4997.04
968.85	5146.55
969.02	5124.02
969.18	5142.45
969.34	5191.60
969.51	5160.88
969.67	5177.26
969.83	5064.63
970.00	5322.67
970.16	5089.20
970.32	5033.91
970.48	5136.31
970.65	4990.90
970.81	4853.69
970.97	5140.40
971.14	4972.47
971.30	5062.58
971.46	5060.53
971.63	5140.40
971.79	5083.06
971.95	5044.15
972.11	4874.17
972.28	5023.67
972.44	4976.56
972.60	4837.30
972.76	4997.04
972.93	4935.60
973.09	5021.62
973.25	4974.52
973.42	4825.01
973.58	4849.59
973.74	4917.17
973.90	4954.04
974.07	4839.35
974.23	4757.43
974.39	4818.87
974.55	4888.50
974.72	4818.87
974.88	4739.00
975.04	4837.30
975.20	4724.66
975.37	4851.64
975.53	4816.82
975.69	4818.87
975.85	4913.08
976.01	4634.55
976.18	4716.47
976.34	4718.52
976.50	4741.05
976.66	4808.63
976.83	4640.70
976.99	4757.43
977.15	4609.98
977.31	4616.12
977.47	4755.38
977.64	4544.44
977.80	4620.22
977.96	4757.43
978.12	4685.75
978.29	4552.63
978.45	4620.22
978.61	4673.46
978.77	4595.64
978.93	4591.55
979.10	4677.56
979.26	4632.51
979.42	4548.54
979.58	4407.23
979.74	4571.07
979.91	4499.39
980.07	4372.41
980.23	4388.80
980.39	4353.98
980.55	4579.26
980.71	4413.37
980.88	4276.16
981.04	4376.51
981.20	4337.60
981.36	4485.05
981.52	4480.96
981.68	4396.99
981.85	4325.31
982.01	4425.66
982.17	4335.55
982.33	4333.50
982.49	4347.84
982.65	4288.45
982.82	4333.50
982.98	4374.46
983.14	4249.54
983.30	4407.23
983.46	4409.28
983.62	4349.89
983.79	4270.01
983.95	4196.29
984.11	4233.15
984.27	4161.47
984.43	4124.61
984.59	4253.63
984.75	4202.43
984.91	4179.90
985.08	4134.85
985.24	4085.70
985.40	4118.47
985.56	4073.41
985.72	4204.48
985.88	4093.89
986.04	4042.69
986.20	4116.42
986.37	4138.94
986.53	3925.96
986.69	4186.05
986.85	4112.32
987.01	3995.59
987.17	4155.33
987.33	4032.45
987.49	3999.68
987.65	4050.88
987.82	3913.67
987.98	3973.06
988.14	4046.79
988.30	4044.74
988.46	4009.92
988.62	3907.52
988.78	3899.33
988.94	3854.28
989.10	3917.76
989.26	3903.43
989.42	3809.22
989.59	3811.27
989.75	3780.55
989.91	3794.89
990.07	3858.37
990.23	3782.60
990.39	3774.41
990.55	3889.09
990.71	3745.73
990.87	3825.61
991.03	3809.22
991.19	3796.93
991.35	3743.69
991.51	3786.69
991.67	3987.40
991.83	3753.93
992.00	3762.12
992.16	3811.27
992.32	3780.55
992.48	3719.11
992.64	3538.89
992.80	3690.44
992.96	3682.25
993.12	3688.39
993.28	3772.36
993.44	3688.39
993.60	3639.24
993.76	3626.95
993.92	3637.19
994.08	3680.20
994.24	3610.57
994.40	3567.56
994.56	3682.25
994.72	3534.79
994.88	3405.77
995.04	3563.47
995.20	3588.04
995.36	3467.21
995.52	3581.90
995.68	3530.70
995.84	3585.99
996.00	3594.19
996.16	3585.99
996.32	3547.08
996.48	3446.73
996.64	3594.19
996.80	3514.31
996.96	3524.55
997.12	3485.64
997.28	3465.16
997.44	3368.91
997.60	3444.68
997.76	3438.54
997.92	3459.02
998.08	3397.58
998.24	3332.05
998.40	3383.24
998.56	3401.68
998.72	3336.14
998.88	3493.83
999.04	3237.84
999.20	3313.61
999.36	3442.64
999.52	3395.53
999.68	3360.72
999.84	3360.72
1000.00	3270.61
1000.16	3430.35
1000.32	3303.37
1000.48	3424.20
1000.64	3127.25
1000.80	3164.11
1000.95	3100.62
1001.11	3260.37
1001.27	3182.54
1001.43	3332.05
1001.59	3143.63
1001.75	3203.02
1001.91	3192.78
1002.07	3190.74
1002.23	3125.20
1002.39	3164.11
1002.55	3141.58
1002.71	3174.35
1002.87	3149.78
1003.03	3145.68
1003.19	3041.23
1003.34	3325.90
1003.50	3129.30
1003.66	3164.11
1003.82	3205.07
1003.98	3108.82
1004.14	2963.41
1004.30	2973.65
1004.46	2992.08
1004.62	3026.90
1004.78	3063.76
1004.94	3074.00
1005.09	3069.91
1005.25	3069.91
1005.41	2867.16
1005.57	2875.35
1005.73	2936.79
1005.89	3002.32
1006.05	2953.17
1006.21	2969.55
1006.37	2942.93
1006.52	2981.84
1006.68	2834.39
1006.84	2985.94
1007.00	2908.12
1007.16	3018.71
1007.32	2916.31
1007.48	2867.16
1007.64	2867.16
1007.79	2897.88
1007.95	2854.87
1008.11	3035.09
1008.27	2822.10
1008.43	2852.82
1008.59	2965.46
1008.75	2934.74
1008.91	2901.97
1009.06	2842.58
1009.22	2727.89
1009.38	2764.76
1009.54	2858.96
1009.70	2828.24
1009.86	2861.01
1010.01	2858.96
1010.17	2772.95
1010.33	2836.44
1010.49	2822.10
1010.65	2924.50
1010.81	2756.57
1010.96	2793.43
1011.12	2815.96
1011.28	2551.77
1011.44	2752.47
1011.60	2723.80
1011.76	2791.38
1011.91	2756.57
1012.07	2711.51
1012.23	2592.73
1012.39	2682.84
1012.55	2799.57
1012.71	2662.36
1012.86	2688.98
1013.02	2656.22
1013.18	2607.06
1013.34	2666.46
1013.50	2701.27
1013.65	2697.17
1013.81	2609.11
1013.97	2584.54
1014.13	2670.55
1014.29	2623.45
1014.44	2629.59
1014.60	2531.29
1014.76	2572.25
1014.92	2508.76
1015.07	2584.54
1015.23	2545.63
1015.39	2514.91
1015.55	2541.53
1015.71	2574.30
1015.86	2510.81
1016.02	2484.19
1016.18	2475.99
1016.34	2486.23
1016.49	2469.85
1016.65	2545.63
1016.81	2426.84
1016.97	2535.39
1017.12	2519.00
1017.28	2488.28
1017.44	2475.99
1017.60	2486.23
1017.75	2531.29
1017.91	2478.04
1018.07	2508.76
1018.23	2521.05
1018.38	2455.51
1018.54	2488.28
1018.70	2461.66
1018.86	2475.99
1019.01	2404.32
1019.17	2437.08
1019.33	2541.53
1019.49	2410.46
1019.64	2486.23
1019.80	2377.69
1019.96	2404.32
1020.12	2392.03
1020.27	2346.97
1020.43	2349.02
1020.59	2426.84
1020.74	2428.89
1020.90	2398.17
1021.06	2326.49
1021.22	2330.59
1021.37	2338.78
1021.53	2293.72
1021.69	2377.69
1021.84	2250.72
1022.00	2293.72
1022.16	2283.49
1022.31	2363.36
1022.47	2312.16
1022.63	2344.92
1022.79	2199.52
1022.94	2338.78
1023.10	2332.64
1023.26	2320.35
1023.41	2297.82
1023.57	2324.44
1023.73	2275.29
1023.88	2330.59
1024.04	2183.13
1024.20	2248.67
1024.35	2275.29
1024.51	2281.44
1024.67	2203.61
1024.82	2344.92
1024.98	2172.89
1025.14	2187.23
1025.29	2140.13
1025.45	2295.77
1025.61	2162.66
1025.76	2215.90
1025.92	2168.80
1026.08	2228.19
1026.23	2252.77
1026.39	2269.15
1026.55	2203.61
1026.70	2232.29
1026.86	2185.18
1027.02	2119.65
1027.17	2263.01
1027.33	2207.71
1027.48	2156.51
1027.64	2138.08
1027.80	2099.17
1027.95	2179.04
1028.11	2058.21
1028.27	2183.13
1028.42	2187.23
1028.58	2156.51
1028.73	2086.88
1028.89	2138.08
1029.05	2287.58
1029.20	2181.09
>>>>>End Processed Spectral Data<<<<<
