SpectraSuite Data File
++++++++++++++++++++++++++++++++++++
Date: Fri Jun 02 14:57:17 CEST 2017
User: INFO_000
Dark Spectrum Present: No
Reference Spectrum Present: No
Number of Sampled Component Spectra: 1
Spectrometers: USB4H00879
Integration Time (usec): 80000 (USB4H00879)
Spectra Averaged: 1 (USB4H00879)
Boxcar Smoothing: 0 (USB4H00879)
Correct for Electrical Dark: No (USB4H00879)
Strobe/Lamp Enabled: No (USB4H00879)
Correct for Detector Non-linearity: No (USB4H00879)
Correct for Stray Light: No (USB4H00879)
Number of Pixels in Processed Spectrum: 3648
>>>>>Begin Processed Spectral Data<<<<<
345.13	1298.41
345.34	1298.41
345.56	1298.41
345.78	1210.35
345.99	1279.98
346.21	1691.62
346.42	1763.30
346.64	1689.57
346.86	1781.73
347.07	1718.25
347.29	1720.29
347.50	1675.24
347.72	1689.57
347.94	1818.60
348.15	1601.51
348.37	1589.22
348.59	1685.48
348.80	1677.29
349.02	1705.96
349.23	1818.60
349.45	1767.40
349.67	1839.08
349.88	1763.30
350.10	1929.19
350.31	1757.16
350.53	1828.84
350.75	1964.00
350.96	1724.39
351.18	1816.55
351.39	1816.55
351.61	1798.12
351.82	1888.23
352.04	1783.78
352.26	1753.06
352.47	1841.12
352.69	1880.04
352.90	1730.53
353.12	1814.50
353.34	1732.58
353.55	1867.75
353.77	1738.73
353.98	1830.88
354.20	1724.39
354.41	1802.21
354.63	1873.89
354.85	2017.25
355.06	1855.46
355.28	1714.15
355.49	1865.70
355.71	1843.17
355.92	1814.50
356.14	1867.75
356.35	1830.88
356.57	1767.40
356.79	1959.91
357.00	1841.12
357.22	1912.80
357.43	1746.92
357.65	1857.51
357.86	1828.84
358.08	1884.13
358.29	1906.66
358.51	1925.09
358.72	1982.43
358.94	1902.56
359.16	1867.75
359.37	1880.04
359.59	1974.24
359.80	1933.28
360.02	1910.75
360.23	1828.84
360.45	1976.29
360.66	1865.70
360.88	1746.92
361.09	1857.51
361.31	1961.95
361.52	1920.99
361.74	2088.93
361.95	1947.62
362.17	1884.13
362.38	1974.24
362.60	1974.24
362.81	1968.10
363.03	1861.60
363.24	1939.43
363.46	2093.02
363.67	1951.71
363.89	1898.47
364.10	1992.67
364.32	1851.36
364.53	1964.00
364.75	1875.94
364.96	1953.76
365.18	2047.97
365.39	2011.11
365.61	1994.72
365.82	2070.50
366.04	1949.67
366.25	1898.47
366.47	2027.49
366.68	1984.48
366.90	2009.06
367.11	2088.93
367.33	2037.73
367.54	2047.97
367.76	2041.82
367.97	2074.59
368.19	1949.67
368.40	2066.40
368.62	1980.39
368.83	2013.15
369.05	2039.78
369.26	1937.38
369.48	1978.34
369.69	1984.48
369.91	2109.41
370.12	1976.29
370.33	2080.74
370.55	1939.43
370.76	1974.24
370.98	2060.26
371.19	2060.26
371.41	1945.57
371.62	2066.40
371.84	1957.86
372.05	2125.79
372.27	2076.64
372.48	2074.59
372.69	2035.68
372.91	2060.26
373.12	2117.60
373.34	2009.06
373.55	2176.99
373.77	2187.23
373.98	2041.82
374.20	2187.23
374.41	2238.43
374.62	2150.37
374.84	2148.32
375.05	2121.70
375.27	2207.71
375.48	2164.70
375.70	2199.52
375.91	2256.86
376.12	2240.48
376.34	2074.59
376.55	2125.79
376.77	2191.33
376.98	2105.31
377.19	2170.85
377.41	2158.56
377.62	2150.37
377.84	2254.81
378.05	2289.63
378.27	2246.62
378.48	2250.72
378.69	2279.39
378.91	2287.58
379.12	2195.42
379.34	2267.10
379.55	2291.68
379.76	2316.25
379.98	2189.28
380.19	2230.24
380.41	2252.77
380.62	2267.10
380.83	2222.05
381.05	2207.71
381.26	2357.21
381.47	2306.01
381.69	2244.57
381.90	2449.37
382.12	2359.26
382.33	2310.11
382.54	2269.15
382.76	2279.39
382.97	2289.63
383.19	2291.68
383.40	2344.92
383.61	2289.63
383.83	2224.09
384.04	2361.31
384.25	2383.84
384.47	2269.15
384.68	2420.70
384.89	2273.25
385.11	2349.02
385.32	2338.78
385.54	2363.36
385.75	2289.63
385.96	2412.51
386.18	2379.74
386.39	2449.37
386.60	2357.21
386.82	2426.84
387.03	2412.51
387.24	2475.99
387.46	2523.10
387.67	2502.62
387.88	2508.76
388.10	2502.62
388.31	2492.38
388.52	2559.96
388.74	2566.10
388.95	2475.99
389.16	2478.04
389.38	2471.90
389.59	2582.49
389.80	2551.77
390.02	2592.73
390.23	2600.92
390.44	2557.91
390.66	2537.43
390.87	2557.91
391.08	2695.13
391.30	2731.99
391.51	2691.03
391.72	2717.65
391.94	2742.23
392.15	2602.97
392.36	2580.44
392.58	2662.36
392.79	2701.27
393.00	2721.75
393.22	2639.83
393.43	2805.72
393.64	2947.03
393.85	2705.37
394.07	2660.31
394.28	2688.98
394.49	2772.95
394.71	2740.18
394.92	2727.89
395.13	2736.09
395.35	2734.04
395.56	2711.51
395.77	2682.84
395.98	2813.91
396.20	2871.25
396.41	2805.72
396.62	2947.03
396.84	2813.91
397.05	2760.66
397.26	2901.97
397.47	3022.80
397.69	2944.98
397.90	2994.13
398.11	2820.05
398.32	2863.06
398.54	2783.19
398.75	2842.58
398.96	2949.08
399.18	3043.28
399.39	2985.94
399.60	3010.51
399.81	3012.56
400.03	2834.39
400.24	3309.52
400.45	3004.37
400.66	3049.43
400.88	3022.80
401.09	3190.74
401.30	3084.24
401.51	3256.27
401.73	3063.76
401.94	3162.06
402.15	3104.72
402.36	3078.10
402.58	3112.91
402.79	3170.26
403.00	3200.98
403.21	3291.09
403.43	3229.65
403.64	3364.81
403.85	3147.73
404.06	3153.87
404.27	3205.07
404.49	3182.54
404.70	3121.10
404.91	3305.42
405.12	3291.09
405.34	3252.17
405.55	3442.64
405.76	3172.30
405.97	3235.79
406.19	3403.72
406.40	3229.65
406.61	3313.61
406.82	3364.81
407.03	3286.99
407.25	3284.94
407.46	3491.79
407.67	3373.00
407.88	3495.88
408.09	3334.09
408.31	3452.88
408.52	3399.63
408.73	3381.20
408.94	3393.48
409.15	3444.68
409.37	3549.13
409.58	3493.83
409.79	3557.32
410.00	3485.64
410.21	3418.06
410.43	3502.03
410.64	3413.96
410.85	3383.24
411.06	3522.51
411.27	3657.67
411.48	3694.54
411.70	3456.97
411.91	3749.83
412.12	3725.26
412.33	3444.68
412.54	3684.30
412.76	3649.48
412.97	3616.71
413.18	3524.55
413.39	3551.18
413.60	3657.67
413.81	3676.10
414.03	3645.38
414.24	3653.58
414.45	3786.69
414.66	3604.42
414.87	3784.65
415.08	3717.06
415.30	3704.78
415.51	3798.98
415.72	3755.97
415.93	3682.25
416.14	3651.53
416.35	3911.62
416.56	3776.45
416.78	3893.19
416.99	3839.94
417.20	3768.26
417.41	3817.41
417.62	3932.10
417.83	3952.58
418.04	3850.18
418.26	4036.55
418.47	3893.19
418.68	4042.69
418.89	4011.97
419.10	4042.69
419.31	3981.25
419.52	4108.23
419.73	4089.79
419.95	4192.19
420.16	4038.59
420.37	4065.22
420.58	4097.99
420.79	3936.20
421.00	4147.14
421.21	4134.85
421.42	4032.45
421.63	4169.66
421.85	4317.12
422.06	4218.82
422.27	4233.15
422.48	4153.28
422.69	4167.62
422.90	4251.58
423.11	4231.10
423.32	4333.50
423.53	4521.92
423.75	4370.37
423.96	4521.92
424.17	4468.67
424.38	4446.14
424.59	4405.18
424.80	4440.00
425.01	4386.75
425.22	4409.28
425.43	4437.95
425.64	4751.29
425.85	4665.27
426.06	4566.97
426.28	4452.28
426.49	4544.44
426.70	4480.96
426.91	4583.35
427.12	4681.66
427.33	4599.74
427.54	4685.75
427.75	4759.48
427.96	4718.52
428.17	4677.56
428.38	4857.78
428.59	4806.58
428.80	4714.42
429.01	4779.96
429.23	4894.65
429.44	5064.63
429.65	5021.62
429.86	4923.32
430.07	4786.10
430.28	4822.97
430.49	4995.00
430.70	5156.79
430.91	5046.20
431.12	5033.91
431.33	4951.99
431.54	5167.03
431.75	5046.20
431.96	5021.62
432.17	5222.32
432.38	5220.27
432.59	5369.77
432.80	5230.51
433.01	5081.01
433.22	5193.65
433.43	5250.99
433.64	5310.38
433.85	5226.42
434.06	5337.01
434.27	5246.90
434.49	5281.71
434.70	5506.99
434.91	5486.51
435.12	5515.18
435.33	5425.07
435.54	5480.36
435.75	5396.40
435.96	5390.25
436.17	5558.19
436.38	5662.63
436.59	5656.49
436.80	5431.21
437.01	5844.90
437.22	5808.04
437.43	5705.64
437.64	5476.27
437.85	5762.98
438.06	5998.50
438.27	5758.89
438.48	5656.49
438.69	5808.04
438.90	5746.60
439.11	5851.05
439.32	5875.62
439.53	5912.49
439.74	5918.63
439.95	5967.78
440.16	6047.65
440.37	5828.52
440.57	5703.59
440.78	6002.60
440.99	5990.31
441.20	6006.69
441.41	5904.29
441.62	5990.31
441.83	5820.33
442.04	6008.74
442.25	6115.23
442.46	5990.31
442.67	6162.34
442.88	6537.12
443.09	6039.46
443.30	6074.28
443.51	6250.40
443.72	6539.16
443.93	6072.23
444.14	6305.70
444.35	6270.88
444.56	6305.70
444.77	6250.40
444.98	6401.95
445.19	6571.93
445.40	6293.41
445.61	6487.96
445.81	6614.94
446.02	6551.45
446.23	6385.57
446.44	6320.03
446.65	6477.73
446.86	6498.20
447.07	6715.29
447.28	6832.02
447.49	6719.39
447.70	6571.93
447.91	6715.29
448.12	6703.00
448.33	6762.39
448.54	6723.48
448.74	6672.28
448.95	6762.39
449.16	6768.54
449.37	7073.68
449.58	6713.24
449.79	7096.21
450.00	6872.98
450.21	6936.47
450.42	7137.17
450.63	7040.92
450.84	6991.77
451.05	7112.60
451.25	6934.42
451.46	6889.37
451.67	7260.05
451.88	7311.25
452.09	7262.10
452.30	7124.88
452.51	7176.08
452.72	7274.38
452.93	7397.26
453.13	7051.16
453.34	7489.42
453.55	7268.24
453.76	7401.36
453.97	7593.87
454.18	7382.93
454.39	7702.41
454.60	7626.64
454.81	7571.34
455.01	7726.99
455.22	7516.05
455.43	7718.79
455.64	7800.71
455.85	7917.45
456.06	7856.01
456.27	7860.10
456.48	7903.11
456.68	7782.28
456.89	7888.78
457.10	7964.55
457.31	8036.23
457.52	8038.28
457.73	8013.70
457.94	8288.13
458.14	8034.18
458.35	8394.62
458.56	8380.29
458.77	8134.53
458.98	8324.99
459.19	8349.57
459.39	8396.67
459.60	8390.53
459.81	8345.47
460.02	8630.14
460.23	8626.04
460.44	8591.23
460.65	8671.10
460.85	8839.03
461.06	8785.79
461.27	8630.14
461.48	8871.80
461.69	8986.49
461.89	8617.85
462.10	8980.34
462.31	8679.29
462.52	8832.89
462.73	8990.58
462.94	9092.98
463.14	9015.16
463.35	9291.63
463.56	9559.92
463.77	9457.52
463.98	9195.38
464.18	9406.32
464.39	9508.72
464.60	9578.35
464.81	9633.64
465.02	9359.22
465.23	9908.07
465.43	9756.52
465.64	9953.13
465.85	9779.05
466.06	9621.36
466.27	10028.90
466.47	9979.75
466.68	10045.29
466.89	10037.09
467.10	10139.49
467.30	9897.83
467.51	10084.20
467.72	10442.59
467.93	10340.19
468.14	10323.81
468.34	10461.02
468.55	10401.63
468.76	10479.46
468.97	10532.70
469.17	10700.64
469.38	10788.70
469.59	10897.24
469.80	10604.38
470.01	10786.65
470.21	10848.09
470.42	11218.77
470.63	11081.56
470.84	11046.74
471.04	11282.26
471.25	11370.32
471.46	11265.88
471.67	11390.80
471.87	11507.54
472.08	11442.00
472.29	11769.68
472.50	11392.85
472.70	11611.98
472.91	11681.61
473.12	11962.19
473.33	11968.33
473.53	12121.93
473.74	12007.24
473.95	12375.88
474.16	12363.59
474.36	12373.83
474.57	12373.83
474.78	12633.92
474.99	12595.01
475.19	12465.99
475.40	12683.07
475.61	13004.60
475.81	12820.28
476.02	13145.91
476.23	12977.98
476.44	13367.09
476.64	13397.81
476.85	13399.86
477.06	13483.83
477.27	13596.46
477.47	13741.87
477.68	13629.23
477.89	13881.13
478.09	14036.78
478.30	13864.75
478.51	14083.88
478.71	14395.17
478.92	14260.01
479.13	14221.10
479.34	14661.41
479.54	14622.50
479.75	14745.38
479.96	14667.55
480.16	14645.02
480.37	14765.85
480.58	14935.84
480.78	15128.35
480.99	15038.23
481.20	15378.20
481.41	15349.53
481.61	15353.62
481.82	15626.00
482.03	15652.63
482.23	15666.96
482.44	15830.80
482.65	16025.36
482.85	15978.25
483.06	15908.62
483.27	16230.15
483.47	16070.41
483.68	16271.11
483.89	16576.26
484.09	16523.01
484.30	16643.84
484.51	16832.26
484.71	17012.48
484.92	16836.35
485.13	17256.18
485.33	16930.56
485.54	16883.45
485.75	17395.45
485.95	17325.82
486.16	17438.45
486.37	17723.12
486.57	17565.43
486.78	17602.29
486.98	17542.90
487.19	17858.29
487.40	18216.68
487.60	17946.35
487.81	18130.67
488.02	18061.04
488.22	18112.24
488.43	18470.63
488.64	18317.03
488.84	18542.31
489.05	18630.37
489.25	18700.00
489.46	19154.65
489.67	18732.77
489.87	19320.54
490.08	19216.09
490.29	19236.57
490.49	19662.55
490.70	19715.80
490.90	19908.30
491.11	19390.17
491.32	19865.30
491.52	19764.95
491.73	19752.66
491.94	19941.07
492.14	20104.91
492.35	20031.18
492.55	20410.06
492.76	20414.15
492.97	20661.96
493.17	20340.43
493.38	20532.93
493.58	20707.01
493.79	20465.35
494.00	20610.76
494.20	21010.11
494.41	20920.00
494.61	21264.06
494.82	21372.60
495.02	20952.77
495.23	21280.44
495.44	21391.03
495.64	21446.33
495.85	21735.09
496.05	21900.98
496.26	21710.52
496.47	21759.67
496.67	21804.72
496.88	22228.65
497.08	21993.14
497.29	22511.27
497.49	22150.83
497.70	22490.79
497.91	22482.60
498.11	22621.86
498.32	22683.30
498.52	22681.25
498.73	22777.51
498.93	22855.33
499.14	23234.21
499.34	22744.74
499.55	23105.18
499.76	22927.01
499.96	23346.84
500.17	23025.31
500.37	23277.21
500.58	23424.67
500.78	23459.48
500.99	23547.54
501.19	23707.29
501.40	23826.07
501.60	23916.18
501.81	23760.53
502.02	23893.65
502.22	23922.32
502.43	24084.11
502.63	23979.67
502.84	24405.64
503.04	23981.71
503.25	24084.11
503.45	24479.37
503.66	24268.43
503.86	24544.91
504.07	24608.39
504.27	24424.08
504.48	24784.52
504.68	24798.85
504.89	25142.91
505.09	24972.93
505.30	24868.48
505.50	24954.50
505.71	25009.79
505.91	25224.83
506.12	25122.43
506.32	24899.20
506.53	25310.85
506.73	25425.53
506.94	25384.57
507.14	25251.45
507.35	25841.27
507.55	25622.14
507.76	25824.89
507.96	25790.07
508.17	25935.48
508.37	25882.23
508.58	25978.48
508.78	25962.10
508.99	26119.79
509.19	26146.42
509.40	26297.97
509.60	26265.20
509.81	26074.74
510.01	26363.50
510.22	26492.52
510.42	26543.72
510.63	26394.22
510.83	26369.65
511.04	26543.72
511.24	26924.65
511.44	26476.14
511.65	26777.19
511.85	26744.42
512.06	26560.11
512.26	26943.08
512.47	27233.89
512.67	26996.32
512.88	26912.36
513.08	26642.03
513.29	27203.17
513.49	26826.34
513.69	27186.79
513.90	27455.07
514.10	27385.44
514.31	27416.16
514.51	27565.66
514.72	27367.01
514.92	27487.84
515.13	27444.83
515.33	27924.05
515.53	27551.32
515.74	27833.94
515.94	27831.90
516.15	27981.40
516.35	27463.26
516.56	27995.73
516.76	28005.97
516.96	27676.25
517.17	28081.75
517.37	27840.09
517.58	28173.91
517.78	28108.37
517.99	28178.00
518.19	28548.68
518.39	28493.39
518.60	28728.91
518.80	28757.58
519.01	28931.65
519.21	28706.38
519.41	28962.37
519.62	28581.45
519.82	28894.79
520.03	28894.79
520.23	29019.72
520.43	28487.25
520.64	29247.04
520.84	29310.53
521.05	29185.60
521.25	29451.84
521.45	29597.24
521.66	29269.57
521.86	29664.83
522.07	29529.66
522.27	29644.35
522.47	29511.23
522.68	30004.79
522.88	29828.66
523.08	29963.83
523.29	29683.26
523.49	29871.67
523.70	30137.91
523.90	30502.45
524.10	30422.58
524.31	30484.01
524.51	30256.69
524.71	30490.16
524.92	30756.39
525.12	30785.07
525.33	30705.20
525.53	30981.67
525.73	31252.00
525.94	30916.14
526.14	30905.90
526.34	31567.39
526.55	31170.08
526.75	30983.72
526.95	31811.10
527.16	31329.83
527.36	31268.39
527.56	31598.11
527.77	31927.83
527.97	31575.58
528.17	31901.21
528.38	32355.86
528.58	32222.74
528.78	32206.36
528.99	31995.42
529.19	32503.31
529.39	32054.81
529.60	32577.04
529.80	32517.65
530.00	32452.11
530.21	32880.14
530.41	33099.27
530.61	32816.65
530.82	32794.12
531.02	33195.53
531.22	33191.43
531.43	33199.62
531.63	33330.69
531.83	33320.45
532.04	33996.28
532.24	33775.10
532.44	33697.28
532.64	33879.55
532.85	34160.12
533.05	33902.07
533.25	34385.40
533.46	34162.17
533.66	34391.54
533.86	34276.85
534.07	34592.24
534.27	34285.04
534.47	35098.09
534.67	35249.64
534.88	34731.50
535.08	34704.88
535.28	35466.72
535.49	35401.19
535.69	35632.61
535.89	35724.77
536.09	35608.03
536.30	35786.21
536.50	35632.61
536.70	35868.12
536.91	36046.30
537.11	35954.14
537.31	36396.50
537.51	35816.93
537.72	36666.83
537.92	36525.52
538.12	36670.93
538.32	36273.62
538.53	36885.97
538.73	36437.46
538.93	36773.33
539.13	36662.74
539.34	36967.88
539.54	36853.20
539.74	37049.80
539.94	37256.65
540.15	36584.91
540.35	37496.26
540.55	37152.20
540.75	37408.20
540.96	37524.93
541.16	37598.66
541.36	37914.05
541.56	37668.29
541.77	37811.65
541.97	38047.16
542.17	38227.38
542.37	37948.86
542.58	38335.93
542.78	38000.06
542.98	38266.30
543.18	38331.83
543.38	38618.55
543.59	38557.11
543.79	38417.85
543.99	38731.18
544.19	38768.05
544.40	38679.99
544.60	38655.41
544.80	39042.48
545.00	39132.59
545.20	38942.13
545.41	39204.27
545.61	39198.12
545.81	39142.83
546.01	39617.96
546.21	39445.93
546.42	39361.96
546.62	39540.13
546.82	39341.48
547.02	39390.63
547.22	39810.46
547.43	39421.35
547.63	40154.52
547.83	40060.32
548.03	39771.55
548.23	39970.21
548.44	39986.59
548.64	40031.65
548.84	40113.56
549.04	40484.25
549.24	40519.06
549.45	40779.15
549.65	40025.50
549.85	40242.59
550.05	40359.32
550.25	40541.59
550.45	41051.53
550.66	40760.72
550.86	40555.93
551.06	40945.04
551.26	41012.62
551.46	41051.53
551.66	40885.65
551.87	41026.96
552.07	41170.32
552.27	41192.84
552.47	41217.42
552.67	41350.54
552.87	41072.01
553.07	41190.80
553.28	41547.14
553.48	41545.09
553.68	41602.44
553.88	41700.74
554.08	41446.79
554.28	41188.75
554.48	41770.37
554.69	42014.08
554.89	41524.61
555.09	41840.00
555.29	41786.75
555.49	41999.74
555.69	42018.17
555.89	41850.24
556.10	42124.67
556.30	41641.35
556.50	42235.26
556.70	42065.28
556.90	42612.09
557.10	42567.03
557.30	42392.95
557.50	42661.24
557.70	42141.05
557.91	42657.14
558.11	42448.25
558.31	42581.37
558.51	42448.25
558.71	42773.88
558.91	42767.73
559.11	42200.44
559.31	42419.58
559.51	42845.55
559.72	42732.92
559.92	42796.40
560.12	43138.41
560.32	43058.54
560.52	42663.28
560.72	43148.65
560.92	43015.54
561.12	42993.01
561.32	43543.91
561.52	43095.41
561.72	43316.59
561.93	42837.36
562.13	43292.01
562.33	43124.08
562.53	44002.66
562.73	43048.30
562.93	43181.42
563.13	43431.27
563.33	43525.48
563.53	43996.51
563.73	43480.42
563.93	43511.14
564.13	43595.11
564.33	43648.36
564.53	43720.04
564.74	43472.23
564.94	43824.48
565.14	43441.51
565.34	43601.25
565.54	44064.10
565.74	43568.49
565.94	44068.19
566.14	44105.06
566.34	43494.76
566.54	44121.44
566.74	44055.90
566.94	43988.32
567.14	43971.94
567.34	44223.84
567.54	44004.70
567.74	43830.63
567.94	44162.40
568.14	44334.43
568.34	44504.41
568.54	44453.21
568.74	44772.69
568.94	44252.51
569.14	44504.41
569.34	44299.61
569.54	44795.22
569.75	44344.67
569.95	44244.32
570.15	45073.74
570.35	44731.73
570.55	44541.27
570.75	44447.07
570.95	45086.03
571.15	44541.27
571.35	44840.28
571.55	45024.59
571.75	45000.02
571.95	44975.44
572.15	44860.76
572.35	44907.86
572.55	45120.85
572.75	45004.11
572.95	45104.46
573.15	45131.09
573.35	45008.21
573.55	45137.23
573.75	45137.23
573.95	45528.39
574.15	45075.79
574.35	46003.52
574.55	45170.00
574.75	45532.49
574.95	45718.85
575.15	45327.69
575.34	45612.36
575.54	45876.55
575.74	45669.70
575.94	45944.13
576.14	45835.59
576.34	45946.18
576.54	45890.88
576.74	46189.89
576.94	46044.48
577.14	45985.09
577.34	46544.19
577.54	46048.58
577.74	46259.52
577.94	46323.01
578.14	46114.11
578.34	46349.63
578.54	45806.92
578.74	46253.37
578.94	46595.38
579.14	46167.36
579.34	46210.37
579.54	46675.26
579.74	46519.61
579.94	46527.80
580.13	46855.48
580.33	46855.48
580.53	47181.10
580.73	46984.50
580.93	46855.48
581.13	46849.33
581.33	47090.99
581.53	47076.66
581.73	47177.01
581.93	47228.21
582.13	47355.18
582.33	47107.38
582.53	47613.23
582.73	47414.57
582.92	47392.04
583.12	47557.93
583.32	47519.02
583.52	47246.64
583.72	47887.65
583.92	47482.16
584.12	47684.90
584.32	47799.59
584.52	47836.45
584.72	47871.27
584.92	47994.15
585.11	48012.58
585.31	48323.87
585.51	48104.74
585.71	48039.20
585.91	48200.99
586.11	48348.45
586.31	48317.73
586.51	48086.31
586.71	48340.25
586.91	48543.00
587.10	48674.07
587.30	48489.76
587.50	48436.51
587.70	48532.76
587.90	48620.83
588.10	48612.63
588.30	48477.47
588.50	48686.36
588.69	49095.95
588.89	48616.73
589.09	49184.02
589.29	48776.47
589.49	49356.05
589.69	49095.95
589.89	49063.19
590.08	49003.80
590.28	49161.49
590.48	49505.55
590.68	49349.90
590.88	49141.01
591.08	49687.82
591.28	49229.07
591.47	49612.04
591.67	49730.83
591.87	49831.18
592.07	49663.24
592.27	49906.95
592.47	49435.92
592.67	49579.28
592.86	49519.88
593.06	49638.67
593.26	50150.66
593.46	50124.04
593.66	49878.28
593.86	49765.64
594.05	50183.43
594.25	50275.58
594.45	49716.49
594.65	50398.46
594.85	49870.09
595.05	50386.18
595.24	50642.17
595.44	50449.66
595.64	50306.30
595.84	50294.02
596.04	50433.28
596.23	50621.69
596.43	50935.03
596.63	50326.78
596.83	50709.75
597.03	51025.14
597.22	51324.14
597.42	50795.77
597.62	51408.11
597.82	51019.00
598.02	51080.44
598.21	51545.33
598.41	50957.56
598.61	51700.97
598.81	51059.96
599.01	51344.62
599.20	51328.24
599.40	50994.42
599.60	51463.41
599.80	51770.60
600.00	51524.85
600.19	51623.15
600.39	51553.52
600.59	51696.88
600.79	51887.34
600.98	51713.26
601.18	51559.66
601.38	51629.29
601.58	52446.43
601.78	51950.82
601.97	51932.39
602.17	52288.74
602.37	52262.11
602.57	52161.76
602.76	52346.08
602.96	52081.89
603.16	52706.52
603.36	52804.83
603.55	52659.42
603.75	52686.04
603.95	52544.73
604.15	52755.68
604.34	52745.44
604.54	52688.09
604.74	53114.07
604.94	53124.31
605.13	53150.93
605.33	53249.24
605.53	53220.56
605.73	53134.55
605.92	53279.96
606.12	53308.63
606.32	53533.90
606.52	53331.15
606.71	53710.03
606.91	53589.20
607.11	53595.34
607.30	53433.55
607.50	53818.57
607.70	53806.28
607.90	53425.36
608.09	53468.37
608.29	53732.56
608.49	53718.22
608.68	53859.53
608.88	54254.79
609.08	54334.66
609.28	54297.80
609.47	53822.67
609.67	54389.95
609.87	54123.72
610.06	54463.68
610.26	53843.15
610.46	54432.96
610.66	54299.84
610.85	54549.70
611.05	54449.35
611.25	54131.91
611.44	54240.45
611.64	54574.27
611.84	54518.98
612.03	54031.56
612.23	54912.19
612.43	54310.08
612.62	54084.81
612.82	54817.98
613.02	54883.51
613.21	55162.04
613.41	54400.19
613.61	54777.02
613.80	54533.31
614.00	54936.76
614.20	54592.70
614.39	54981.82
614.59	55033.02
614.79	54555.84
614.98	54543.55
615.18	54979.77
615.38	54789.31
615.57	54641.85
615.77	55012.54
615.97	54885.56
616.16	55045.30
616.36	54805.69
616.56	54707.39
616.75	55235.77
616.95	54439.11
617.15	54774.97
617.34	54840.51
617.54	55047.35
617.74	55260.34
617.93	55334.07
618.13	54625.47
618.32	54846.65
618.52	54873.27
618.72	55022.78
618.91	55211.19
619.11	55057.59
619.31	54940.86
619.50	55086.26
619.70	54772.92
619.90	55016.63
620.09	54672.57
620.29	55233.72
620.48	54699.20
620.68	55080.12
620.88	54539.46
621.07	55024.82
621.27	55159.99
621.46	54533.31
621.66	55002.30
621.86	55332.02
622.05	54836.41
622.25	54998.20
622.44	55223.48
622.64	54654.14
622.84	55039.16
623.03	54674.62
623.23	55452.85
623.42	54731.96
623.62	54963.39
623.82	55141.56
624.01	54965.43
624.21	55432.37
624.40	55092.41
624.60	54990.01
624.80	54951.10
624.99	54613.18
625.19	55030.97
625.38	55014.58
625.58	55217.33
625.77	55084.22
625.97	55088.31
626.17	54604.99
626.36	54942.91
626.56	55227.57
626.75	54514.88
626.95	55348.40
627.14	54879.42
627.34	55221.43
627.54	54308.04
627.73	54645.95
627.93	54770.88
628.12	54576.32
628.32	54932.67
628.51	54815.93
628.71	54961.34
628.90	54860.99
629.10	54691.01
629.30	54811.84
629.49	55129.27
629.69	55366.84
629.88	54762.68
630.08	55043.26
630.27	55293.11
630.47	55153.85
630.66	54715.58
630.86	55506.10
631.05	54951.10
631.25	55262.39
631.44	54770.88
631.64	54762.68
631.84	54727.87
632.03	55557.30
632.23	55012.54
632.42	55315.64
632.62	55129.27
632.81	54387.91
633.01	55047.35
633.20	55329.97
633.40	55258.29
633.59	55076.02
633.79	54568.13
633.98	55256.24
634.18	55127.22
634.37	55293.11
634.57	55260.34
634.76	55424.18
634.96	54871.23
635.15	55516.34
635.35	55225.53
635.54	55039.16
635.74	55229.62
635.93	54596.80
636.13	54967.48
636.32	55329.97
636.52	54957.24
636.71	55280.82
636.91	55530.67
637.10	55364.79
637.30	55233.72
637.49	55379.12
637.69	55000.25
637.88	55645.36
638.08	54629.57
638.27	55194.81
638.46	55463.09
638.66	54971.58
638.85	55534.77
639.05	55323.83
639.24	55596.21
639.44	55063.74
639.63	55268.53
639.83	55485.62
640.02	55159.99
640.22	55307.44
640.41	55542.96
640.61	54637.76
640.80	55243.96
640.99	55336.12
641.19	55712.94
641.38	55157.94
641.58	55147.70
641.77	55264.44
641.97	55162.04
642.16	55532.72
642.36	55620.78
642.55	55567.54
642.74	55358.64
642.94	55854.25
643.13	55270.58
643.33	55377.08
643.52	55618.74
643.72	55399.60
643.91	55397.55
644.10	55676.08
644.30	55608.50
644.49	55407.79
644.69	55919.79
644.88	55583.92
645.08	55211.19
645.27	55538.86
645.46	55141.56
645.66	55710.89
645.85	55422.13
646.05	55499.95
646.24	55346.36
646.43	56028.33
646.63	55948.46
646.82	55585.97
647.02	55379.12
647.21	55665.84
647.40	55624.88
647.60	56145.06
647.79	55952.55
647.99	56050.86
648.18	55219.38
648.37	56095.91
648.57	55850.16
648.76	55854.25
648.96	55624.88
649.15	55841.96
649.34	56431.78
649.54	55977.13
649.73	55268.53
649.92	56292.52
650.12	56167.59
650.31	56069.29
650.51	56120.49
650.70	56364.20
650.89	56022.19
651.09	56652.96
651.28	56136.87
651.47	56046.76
651.67	56011.95
651.86	56497.31
652.06	55680.17
652.25	56054.95
652.44	56171.69
652.64	55440.56
652.83	55827.63
653.02	56038.57
653.22	56073.38
653.41	56063.14
653.60	55581.87
653.80	55835.82
653.99	56317.09
654.18	56269.99
654.38	56204.45
654.57	55807.15
654.76	56163.50
654.96	55960.75
655.15	55981.23
655.34	56143.02
655.54	55432.37
655.73	55932.07
655.92	55911.59
656.12	55985.32
656.31	55803.05
656.50	55950.51
656.70	55813.29
656.89	56095.91
657.08	56280.23
657.28	55884.97
657.47	56118.44
657.66	55956.65
657.86	55665.84
658.05	56310.95
658.24	56159.40
658.43	56022.19
658.63	56038.57
658.82	56360.10
659.01	56177.83
659.21	56382.63
659.40	55891.12
659.59	56100.01
659.79	56155.30
659.98	56194.21
660.17	56151.21
660.36	56284.33
660.56	56167.59
660.75	56294.56
660.94	55999.66
661.14	56468.64
661.33	56026.28
661.52	55993.51
661.71	56878.24
661.91	55991.47
662.10	56206.50
662.29	56323.24
662.49	56548.51
662.68	56525.99
662.87	56112.30
663.06	56544.42
663.26	56437.92
663.45	57123.99
663.64	56036.52
663.83	56202.41
664.03	56689.82
664.22	56075.43
664.41	56568.99
664.60	56224.93
664.80	56382.63
664.99	56448.16
665.18	55981.23
665.37	56411.30
665.57	56681.63
665.76	56202.41
665.95	56558.75
666.14	56454.31
666.34	56083.62
666.53	56267.94
666.72	56169.64
666.91	55940.27
667.11	56165.54
667.30	56100.01
667.49	56296.61
667.68	56151.21
667.87	55925.93
668.07	56597.66
668.26	56349.86
668.45	55864.49
668.64	56376.48
668.84	56841.37
669.03	56554.66
669.22	56104.10
669.41	56251.56
669.60	56499.36
669.80	56284.33
669.99	56177.83
670.18	56337.57
670.37	56089.77
670.57	56988.83
670.76	56136.87
670.95	56435.87
671.14	56908.96
671.33	56482.98
671.53	57109.66
671.72	56540.32
671.91	56052.90
672.10	56329.38
672.29	56341.67
672.48	56118.44
672.68	56734.88
672.87	56057.00
673.06	56288.42
673.25	55958.70
673.44	56087.72
673.64	55917.74
673.83	56024.23
674.02	56165.54
674.21	56126.63
674.40	56542.37
674.59	56071.34
674.79	55792.81
674.98	56020.14
675.17	56216.74
675.36	56290.47
675.55	56353.96
675.74	56298.66
675.94	55854.25
676.13	56140.97
676.32	56423.59
676.51	56595.62
676.70	55925.93
676.89	56042.66
677.08	56695.97
677.28	56102.06
677.47	56308.90
677.66	56226.98
677.85	56147.11
678.04	56472.74
678.23	56550.56
678.42	56280.23
678.62	55758.00
678.81	57064.60
679.00	56087.72
679.19	57099.42
679.38	56163.50
679.57	55993.51
679.76	56122.54
679.96	56632.48
680.15	56069.29
680.34	56335.52
680.53	55917.74
680.72	56415.40
680.91	56792.22
681.10	56317.09
681.29	56136.87
681.48	55964.84
681.68	56016.04
681.87	56120.49
682.06	56061.10
682.25	55831.72
682.44	56028.33
682.63	56038.57
682.82	56116.39
683.01	55999.66
683.20	55635.12
683.39	56177.83
683.59	55897.26
683.78	55162.04
683.97	55991.47
684.16	55989.42
684.35	55579.82
684.54	55491.76
684.73	55749.81
684.92	56214.69
685.11	55899.31
685.30	55743.66
685.49	56212.65
685.69	55780.52
685.88	55571.63
686.07	55571.63
686.26	55678.13
686.45	55321.78
686.64	55970.99
686.83	55731.37
687.02	55680.17
687.21	55577.78
687.40	55682.22
687.59	55807.15
687.78	55743.66
687.97	56110.25
688.16	55995.56
688.35	55596.21
688.54	55293.11
688.74	55727.28
688.93	55377.08
689.12	55297.20
689.31	55876.78
689.50	55686.32
689.69	55678.13
689.88	55006.39
690.07	55262.39
690.26	55805.10
690.45	55768.24
690.64	55653.55
690.83	54932.67
691.02	55395.51
691.21	55399.60
691.40	55137.46
691.59	55710.89
691.78	55229.62
691.97	55436.47
692.16	55411.89
692.35	55434.42
692.54	55057.59
692.73	55211.19
692.92	55145.65
693.11	55518.38
693.30	55399.60
693.49	55391.41
693.68	55194.81
693.87	54807.74
694.06	54809.79
694.25	55293.11
694.44	55340.21
694.63	55289.01
694.82	55534.77
695.01	55135.41
695.20	54666.43
695.39	54609.09
695.58	54965.43
695.77	54699.20
695.96	54961.34
696.15	54877.37
696.34	55211.19
696.53	54936.76
696.72	55063.74
696.91	54928.57
697.10	55088.31
697.29	54353.09
697.48	54965.43
697.67	54551.74
697.86	54662.33
698.05	54621.37
698.24	54736.06
698.43	54277.32
698.62	54674.62
698.81	54422.72
699.00	54607.04
699.19	54975.67
699.38	54447.30
699.57	54179.01
699.76	55024.82
699.95	54342.85
700.14	54252.74
700.32	54441.15
700.51	54293.70
700.70	54604.99
700.89	54836.41
701.08	54594.75
701.27	54275.27
701.46	54404.29
701.65	53806.28
701.84	53951.69
702.03	54131.91
702.22	54508.74
702.41	54148.29
702.60	54506.69
702.79	54422.72
702.98	54076.61
703.17	54256.84
703.35	53658.83
703.54	53617.87
703.73	54465.73
703.92	54494.40
704.11	53841.10
704.30	53408.98
704.49	54346.95
704.68	53519.57
704.87	53714.12
705.06	53333.20
705.25	54035.66
705.43	54267.08
705.62	53832.91
705.81	54140.10
706.00	53087.45
706.19	53296.34
706.38	53476.56
706.57	53521.62
706.76	53146.84
706.95	53482.70
707.14	53634.25
707.32	53001.43
707.51	53335.25
707.70	53550.29
707.89	53327.06
708.08	53116.12
708.27	53441.74
708.46	53458.13
708.65	53304.53
708.84	53697.74
709.02	52985.05
709.21	53026.01
709.40	52876.51
709.59	53548.24
709.78	52886.74
709.97	53116.12
710.16	53216.47
710.34	53306.58
710.53	53058.77
710.72	53105.88
710.91	52874.46
711.10	53312.72
711.29	52843.74
711.48	52452.58
711.66	52632.80
711.85	52876.51
712.04	52536.54
712.23	52638.94
712.42	52851.93
712.61	52397.28
712.80	52690.14
712.98	52530.40
713.17	52430.05
713.36	52391.14
713.55	52411.62
713.74	52681.95
713.93	52548.83
714.11	52327.65
714.30	52069.61
714.49	52194.53
714.68	52073.70
714.87	52423.90
715.06	52475.10
715.24	52104.42
715.43	52348.13
715.62	51678.44
715.81	51817.71
716.00	52098.28
716.18	51981.54
716.37	52217.06
716.56	51926.25
716.75	52172.00
716.94	52051.17
717.12	51809.51
717.31	52321.51
717.50	51721.45
717.69	51555.57
717.88	51690.73
718.06	51670.25
718.25	51760.36
718.44	51365.10
718.63	51211.51
718.82	51076.34
719.00	51363.06
719.19	50947.32
719.38	51070.20
719.57	50822.39
719.76	50623.74
719.94	50330.88
720.13	50654.46
720.32	51375.34
720.51	50717.95
720.69	50337.02
720.88	50484.48
721.07	50523.39
721.26	50377.98
721.44	50355.46
721.63	50136.32
721.82	50263.30
722.01	50193.67
722.20	49902.85
722.38	50005.25
722.57	49747.21
722.76	50140.42
722.95	50099.46
723.13	49882.37
723.32	49958.15
723.51	49632.52
723.70	49646.86
723.88	49863.94
724.07	49143.06
724.26	49851.66
724.44	48973.08
724.63	49587.47
724.82	49435.92
725.01	49657.10
725.19	49614.09
725.38	49380.62
725.57	49192.21
725.76	49442.06
725.94	49255.70
726.13	48723.22
726.32	49038.61
726.51	48930.07
726.69	49642.76
726.88	49071.38
727.07	48983.32
727.25	49028.37
727.44	49163.54
727.63	49110.29
727.82	48608.54
728.00	48799.00
728.19	48909.59
728.38	48749.85
728.56	48217.38
728.75	49464.59
728.94	48571.67
729.12	48876.82
729.31	49003.80
729.50	48553.24
729.69	48702.74
729.87	48846.10
730.06	48438.56
730.25	48465.18
730.43	49214.74
730.62	48624.92
730.81	48919.83
730.99	48575.77
731.18	48516.38
731.37	48502.04
731.55	48526.62
731.74	48897.30
731.93	48600.35
732.11	48844.05
732.30	48784.66
732.49	48530.72
732.67	48284.96
732.86	48629.02
733.05	48489.76
733.23	48149.79
733.42	48459.04
733.61	48274.72
733.79	48375.07
733.98	48618.78
734.17	48370.97
734.35	48379.17
734.54	48254.24
734.73	48870.68
734.91	48348.45
735.10	47609.13
735.29	48362.78
735.47	48071.97
735.66	48424.22
735.84	48198.94
736.03	47637.80
736.22	48387.36
736.40	47703.34
736.59	47947.04
736.78	48057.63
736.96	47885.61
737.15	47889.70
737.33	47392.04
737.52	47385.90
737.71	47510.83
737.89	47516.97
738.08	47158.58
738.27	47453.48
738.45	47971.62
738.64	47658.28
738.82	47492.40
739.01	47519.02
739.20	47215.92
739.38	47607.08
739.57	47756.58
739.75	47752.49
739.94	47297.84
740.13	47420.72
740.31	47203.63
740.50	47228.21
740.68	47254.83
740.87	47715.62
741.06	47351.09
741.24	47293.74
741.43	47131.95
741.61	47406.38
741.80	46730.55
741.99	46705.98
742.17	46896.44
742.36	46898.48
742.54	46824.76
742.73	46910.77
742.91	46966.07
743.10	46849.33
743.29	46738.74
743.47	46855.48
743.66	46652.73
743.84	46828.85
744.03	46593.34
744.21	46535.99
744.40	46744.89
744.59	46368.06
744.77	46142.78
744.96	46427.45
745.14	46187.84
745.33	46038.34
745.51	46073.15
745.70	46683.45
745.88	46273.85
746.07	46593.34
746.26	46048.58
746.44	46171.46
746.63	46241.09
746.81	46341.44
747.00	46046.53
747.18	46159.17
747.37	45794.63
747.55	45757.77
747.74	46196.03
747.92	45643.08
748.11	45413.71
748.29	46091.58
748.48	45552.97
748.66	45878.60
748.85	45505.87
749.03	45870.40
749.22	46052.67
749.41	45421.90
749.59	45899.08
749.78	45811.01
749.96	45118.80
750.15	45086.03
750.33	45370.70
750.52	45530.44
750.70	45794.63
750.89	45141.33
751.07	44963.15
751.26	45344.08
751.44	45290.83
751.63	45276.49
751.81	44838.23
752.00	45002.07
752.18	44973.39
752.37	44836.18
752.55	45047.12
752.74	44741.97
752.92	44414.30
753.10	44672.34
753.29	44672.34
753.47	44805.46
753.66	44469.59
753.84	44866.90
754.03	44473.69
754.21	44604.76
754.40	44787.03
754.58	44571.99
754.77	44569.94
754.95	44297.56
755.14	44293.47
755.32	44299.61
755.51	44088.67
755.69	43898.21
755.88	44109.15
756.06	44234.08
756.24	43978.08
756.43	44256.60
756.61	43631.97
756.80	43984.22
756.98	43742.56
757.17	43982.18
757.35	43529.58
757.54	43867.49
757.72	43947.36
757.90	43824.48
758.09	43289.96
758.27	43765.09
758.46	43705.70
758.64	43636.07
758.83	43980.13
759.01	43464.04
759.19	44043.62
759.38	43892.07
759.56	43918.69
759.75	43529.58
759.93	43736.42
760.12	43369.83
760.30	43314.54
760.48	43283.82
760.67	42972.53
760.85	43316.59
761.04	43724.13
761.22	43605.35
761.40	43443.56
761.59	42962.29
761.77	42644.85
761.96	43173.23
762.14	42667.38
762.32	42718.58
762.51	42780.02
762.69	42845.55
762.88	42669.43
763.06	42786.16
763.24	43085.17
763.43	42921.33
763.61	42599.80
763.80	42808.69
763.98	42573.17
764.16	42481.02
764.35	42483.06
764.53	42055.04
764.72	42472.82
764.90	42771.83
765.08	42202.49
765.27	42265.98
765.45	42130.81
765.63	41962.88
765.82	42331.51
766.00	41919.87
766.18	42333.56
766.37	42497.40
766.55	42124.67
766.74	41930.11
766.92	42057.09
767.10	41944.45
767.29	41770.37
767.47	41567.62
767.65	41727.36
767.84	41358.73
768.02	41624.96
768.20	41444.74
768.39	41354.63
768.57	41524.61
768.75	41514.37
768.94	41543.05
769.12	41848.19
769.30	41334.15
769.49	41244.04
769.67	41254.28
769.85	40836.50
770.04	40996.24
770.22	41129.36
770.40	40902.03
770.59	40218.01
770.77	41319.82
770.95	41031.05
771.14	40574.36
771.32	40582.55
771.50	40457.62
771.69	40637.84
771.87	41010.57
772.05	40752.53
772.24	40261.02
772.42	40897.94
772.60	40678.80
772.78	40404.38
772.97	40344.98
773.15	40875.41
773.33	40398.23
773.52	40050.08
773.70	40670.61
773.88	40531.35
774.07	40138.14
774.25	40445.33
774.43	40637.84
774.61	40469.91
774.80	40842.64
774.98	40865.17
775.16	40914.32
775.34	40304.02
775.53	40166.81
775.71	40768.91
775.89	40232.35
776.08	40502.68
776.26	40396.18
776.44	40451.48
776.62	40764.82
776.81	40437.14
776.99	40406.42
777.17	40527.25
777.35	40603.03
777.54	40916.37
777.72	40603.03
777.90	40600.98
778.08	41108.88
778.27	40883.60
778.45	41051.53
778.63	41176.46
778.81	40512.92
779.00	41268.62
779.18	40811.92
779.36	41221.52
779.54	41076.11
779.73	40861.07
779.91	41125.26
780.09	41133.45
780.27	41270.67
780.46	41502.09
780.64	41434.50
780.82	41018.77
781.00	41661.83
781.19	41561.48
781.37	41383.30
781.55	41471.37
781.73	41366.92
781.91	41131.40
782.10	41346.44
782.28	41358.73
782.46	41667.97
782.64	41538.95
782.82	41174.41
783.01	41725.32
783.19	41450.89
783.37	41203.08
783.55	41631.11
783.74	41776.51
783.92	41020.81
784.10	41571.72
784.28	41835.91
784.46	41235.85
784.64	41342.35
784.83	41719.17
785.01	41512.33
785.19	41670.02
785.37	41483.66
785.55	41479.56
785.74	41248.14
785.92	41241.99
786.10	41299.34
786.28	41670.02
786.46	41500.04
786.64	41256.33
786.83	41319.82
787.01	41590.15
787.19	41084.30
787.37	41377.16
787.55	41227.66
787.74	40895.89
787.92	41235.85
788.10	41016.72
788.28	41098.64
788.46	40789.39
788.64	40408.47
788.82	41127.31
789.01	40910.22
789.19	41223.56
789.37	40832.40
789.55	40705.43
789.73	40689.04
789.91	40566.16
790.09	40381.85
790.28	40420.76
790.46	40035.74
790.64	40695.19
790.82	40494.49
791.00	40015.26
791.18	40242.59
791.36	39984.54
791.55	40207.77
791.73	40109.47
791.91	40007.07
792.09	40058.27
792.27	40150.43
792.45	39990.69
792.63	39824.80
792.81	39493.03
793.00	39767.46
793.18	39351.72
793.36	39298.47
793.54	39234.99
793.72	39464.36
793.90	39087.53
794.08	38815.15
794.26	39185.83
794.44	38679.99
794.62	38614.45
794.81	39212.46
794.99	39097.77
795.17	38682.03
795.35	38913.45
795.53	38962.61
795.71	38954.41
795.89	38464.95
796.07	38239.67
796.25	38114.75
796.43	38213.05
796.61	37961.15
796.80	37807.55
796.98	38143.42
797.16	37547.46
797.34	37946.81
797.52	37430.72
797.70	38147.51
797.88	37600.71
798.06	37168.58
798.24	37459.40
798.42	37836.22
798.60	37287.37
798.78	37074.38
798.96	37383.62
799.14	36847.05
799.32	37443.01
799.51	37092.81
799.69	37410.25
799.87	37418.44
800.05	36689.36
800.23	36775.37
800.41	36681.17
800.59	36679.12
800.77	36222.42
800.95	36251.09
801.13	36505.04
801.31	36048.35
801.49	36509.14
801.67	36048.35
801.85	36156.89
802.03	35982.81
802.21	35487.20
802.39	36054.49
802.57	35790.30
802.75	35861.98
802.93	35530.21
803.11	35370.47
803.29	35423.72
803.47	35180.01
803.65	35415.52
803.83	35366.37
804.01	35370.47
804.19	34745.84
804.37	34928.11
804.55	34946.54
804.73	34856.43
804.91	34846.19
805.09	34706.93
805.27	34928.11
805.45	35235.30
805.63	34751.98
805.81	34686.45
805.99	34438.64
806.17	34608.62
806.35	34571.76
806.53	34098.68
806.71	34233.85
806.89	34446.83
807.07	34334.20
807.25	33951.23
807.43	33902.07
807.61	34434.55
807.79	33816.06
807.97	33732.09
808.15	33486.34
808.33	33646.08
808.51	33633.79
808.69	33521.15
808.87	33433.09
809.05	33263.11
809.23	33295.88
809.41	32927.24
809.59	33011.21
809.77	33097.22
809.95	32671.25
810.13	33316.36
810.31	33033.74
810.49	33211.91
810.67	32585.23
810.84	32732.68
811.02	32912.91
811.20	32521.74
811.38	32790.03
811.56	32423.44
811.74	32364.05
811.92	32316.95
812.10	32648.72
812.28	32661.01
812.46	32177.68
812.64	32149.01
812.82	31823.39
813.00	32038.42
813.18	31991.32
813.36	31893.02
813.53	31843.87
813.71	31772.19
813.89	31514.14
814.07	31817.24
814.25	31956.50
814.43	31786.52
814.61	31882.78
814.79	30993.96
814.97	31647.26
815.15	31671.84
815.33	30885.42
815.50	31065.64
815.68	31321.63
815.86	31233.57
816.04	30916.14
816.22	30907.94
816.40	31172.13
816.58	30946.86
816.76	30778.92
816.94	30866.98
817.11	30811.69
817.29	30707.24
817.47	30932.52
817.65	30617.13
817.83	30357.04
818.01	30387.76
818.19	30637.61
818.37	30529.07
818.54	29879.86
818.72	30246.45
818.90	30486.06
819.08	30289.46
819.26	30393.90
819.44	29736.51
819.62	30064.18
819.80	30271.03
819.97	30072.37
820.15	30252.59
820.33	29802.04
820.51	30107.19
820.69	29736.51
820.87	29791.80
821.05	30115.38
821.22	29892.15
821.40	29627.96
821.58	29435.45
821.76	29462.08
821.94	29666.88
822.12	29605.44
822.29	29597.24
822.47	29240.90
822.65	29916.73
822.83	29392.45
823.01	29371.97
823.19	29285.95
823.36	29201.99
823.54	28810.82
823.72	28939.85
823.90	28970.57
824.08	29126.21
824.25	28907.08
824.43	28814.92
824.61	29046.34
824.79	28733.00
824.97	28671.56
825.15	28747.34
825.32	28831.30
825.50	28515.92
825.68	28390.99
825.86	28765.77
826.04	28563.02
826.21	28558.92
826.39	28581.45
826.57	28272.21
826.75	27942.49
826.93	28380.75
827.10	28216.91
827.28	28356.18
827.46	28221.01
827.64	28210.77
827.81	28024.40
827.99	28290.64
828.17	28030.55
828.35	27813.46
828.53	27897.43
828.70	27668.06
828.88	27737.69
829.06	27909.72
829.24	28167.76
829.41	27690.59
829.59	28079.70
829.77	27684.44
829.95	27416.16
830.12	27547.23
830.30	27358.81
830.48	27471.45
830.66	27237.98
830.84	27637.34
831.01	27287.14
831.19	27223.65
831.37	27006.56
831.55	26836.58
831.72	27074.15
831.90	27125.35
832.08	27164.26
832.25	27031.14
832.43	27149.92
832.61	26938.98
832.79	27039.33
832.96	26951.27
833.14	27129.44
833.32	27192.93
833.50	27250.27
833.67	26781.29
833.85	26932.84
834.03	26656.36
834.20	26689.13
834.38	26812.01
834.56	26881.64
834.74	26334.83
834.91	26596.97
835.09	26572.39
835.27	26283.63
835.44	26506.86
835.62	26209.90
835.80	26318.45
835.98	26377.84
836.15	26304.11
836.33	26392.17
836.51	26316.40
836.68	26297.97
836.86	25810.55
837.04	26214.00
837.21	25800.31
837.39	25933.43
837.57	26150.51
837.75	26029.68
837.92	25618.04
838.10	25640.57
838.28	25607.80
838.45	25745.02
838.63	26064.50
838.81	25620.09
838.98	25673.34
839.16	25702.01
839.34	25517.69
839.51	25669.24
839.69	25167.49
839.87	25458.30
840.04	25259.65
840.22	25661.05
840.40	25396.86
840.57	25198.21
840.75	25513.59
840.93	25173.63
841.10	25570.94
841.28	25589.37
841.46	25579.13
841.63	25525.88
841.81	25241.21
841.98	25196.16
842.16	25136.77
842.34	25124.48
842.51	24800.90
842.69	25181.82
842.87	25235.07
843.04	25171.58
843.22	24956.55
843.40	24805.00
843.57	24682.12
843.75	25069.19
843.92	25026.18
844.10	24528.52
844.28	24694.41
844.45	24807.05
844.63	24784.52
844.81	24706.70
844.98	24907.40
845.16	24413.84
845.33	24602.25
845.51	24293.01
845.69	24583.82
845.86	24487.56
846.04	24391.31
846.21	24614.54
846.39	24096.40
846.57	24137.36
846.74	24172.18
846.92	24196.75
847.09	23961.23
847.27	23936.66
847.45	24168.08
847.62	24180.37
847.80	24211.09
847.97	24043.15
848.15	23807.64
848.32	23938.71
848.50	23783.06
848.68	23785.11
848.85	23832.21
849.03	23895.70
849.20	24034.96
849.38	23858.84
849.56	23617.18
849.73	23576.22
849.91	23604.89
850.08	23754.39
850.26	23379.61
850.43	23727.77
850.61	23535.26
850.78	23281.31
850.96	23381.66
851.14	23246.49
851.31	23551.64
851.49	22965.92
851.66	23420.57
851.84	23203.49
852.01	23201.44
852.19	23174.81
852.36	23191.20
852.54	23166.62
852.71	23140.00
852.89	23082.66
853.07	23015.07
853.24	23137.95
853.42	22986.40
853.59	23053.98
853.77	23058.08
853.94	22980.26
854.12	22853.28
854.29	22701.73
854.47	22724.26
854.64	22697.64
854.82	22933.15
854.99	22648.49
855.17	22431.40
855.34	22431.40
855.52	23051.94
855.69	22687.40
855.87	22607.53
856.04	22369.96
856.22	22251.18
856.39	22404.78
856.57	22472.36
856.74	22374.06
856.92	22566.57
857.09	22171.31
857.27	22066.86
857.44	22218.41
857.62	22312.62
857.79	22361.77
857.97	22079.15
858.14	22048.43
858.32	22396.59
858.49	21972.66
858.67	22060.72
858.84	22175.41
859.02	22005.42
859.19	21778.10
859.37	21749.43
859.54	21886.64
859.72	22265.52
859.89	21845.68
860.06	22128.30
860.24	21821.11
860.41	21900.98
860.59	21554.87
860.76	21630.65
860.94	21548.73
861.11	21495.48
861.29	21329.59
861.46	21548.73
861.64	21505.72
861.81	21380.79
861.98	21022.40
862.16	21388.99
862.33	21145.28
862.51	21368.51
862.68	21130.94
862.86	21065.41
863.03	21057.21
863.21	20930.24
863.38	21051.07
863.55	21028.54
863.73	21071.55
863.90	21114.56
864.08	21008.06
864.25	20899.52
864.43	20727.49
864.60	20817.60
864.77	20991.68
864.95	21106.37
865.12	20707.01
865.30	20510.41
865.47	20586.18
865.64	20692.68
865.82	20717.25
865.99	20733.64
866.17	20717.25
866.34	20547.27
866.51	20344.52
866.69	20465.35
866.86	20678.34
867.04	20219.60
867.21	20442.82
867.38	20223.69
867.56	20321.99
867.73	20207.31
867.91	20352.71
868.08	20539.08
868.25	20192.97
868.43	20125.39
868.60	19791.57
868.78	19930.83
868.95	20305.61
869.12	20014.80
869.30	19797.71
869.47	20158.16
869.64	19713.75
869.82	19711.70
869.99	19566.29
870.16	19934.93
870.34	19707.60
870.51	19853.01
870.69	19527.38
870.86	19822.29
871.03	19943.12
871.21	19467.99
871.38	19617.49
871.55	19637.97
871.73	19455.70
871.90	19388.12
872.07	19244.76
872.25	19195.61
872.42	19226.33
872.59	19269.34
872.77	19314.39
872.94	19134.17
873.11	19089.12
873.29	19236.57
873.46	19001.05
873.63	18763.49
873.81	18712.29
873.98	18810.59
874.15	19085.02
874.33	18781.92
874.50	18562.79
874.67	18728.67
874.85	18689.76
875.02	18630.37
875.19	18544.36
875.37	18450.15
875.54	18446.05
875.71	18642.66
875.88	18435.81
876.06	18497.25
876.23	18392.81
876.40	18261.74
876.58	18321.13
876.75	18210.54
876.92	18171.63
877.10	18136.81
877.27	18099.95
877.44	17958.64
877.61	17958.64
877.79	18104.04
877.96	18083.56
878.13	17839.86
878.31	17987.31
878.48	17993.45
878.65	17981.17
878.82	17745.65
879.00	17647.35
879.17	17950.45
879.34	17747.70
879.51	17551.09
879.69	17610.48
879.86	17438.45
880.03	17495.80
880.21	17385.21
880.38	17635.06
880.55	17575.67
880.72	17516.28
880.90	17784.56
881.07	17299.19
881.24	17221.37
881.41	17440.50
881.59	17153.79
881.76	17303.29
881.93	17196.79
882.10	17059.58
882.28	16959.23
882.45	17172.22
882.62	17110.78
882.79	17243.90
882.96	16899.84
883.14	17295.10
883.31	17170.17
883.48	16822.02
883.65	17032.96
883.83	17282.81
884.00	16910.08
884.17	17071.87
884.34	17061.63
884.51	16791.30
884.69	16852.73
884.86	16664.32
885.03	16936.70
885.20	16690.95
885.38	16838.40
885.55	16658.18
885.72	16803.58
885.89	16441.09
886.06	16654.08
886.24	16682.75
886.41	16613.12
886.58	16467.72
886.75	16926.46
886.92	16428.81
887.10	16744.19
887.27	16355.08
887.44	16467.72
887.61	16506.63
887.78	16701.19
887.95	16568.07
888.13	16344.84
888.30	16373.51
888.47	16480.00
888.64	16350.98
888.81	16252.68
888.99	16234.25
889.16	16101.13
889.33	15902.48
889.50	16023.31
889.67	16027.40
889.84	16025.36
890.01	16111.37
890.19	15824.65
890.36	15976.20
890.53	16011.02
890.70	15941.39
890.87	15933.20
891.04	15800.08
891.22	15984.40
891.39	15910.67
891.56	15677.20
891.73	15474.45
891.90	15634.19
892.07	15619.86
892.24	15470.36
892.42	15677.20
892.59	15632.15
892.76	15726.35
892.93	15474.45
893.10	15626.00
893.27	15546.13
893.44	15453.97
893.61	15382.29
893.79	15585.04
893.96	15613.71
894.13	15570.71
894.30	15609.62
894.47	15279.89
894.64	15462.16
894.81	15492.88
894.98	15249.18
895.15	15327.00
895.33	15349.53
895.50	15324.95
895.67	15429.40
895.84	15353.62
896.01	15324.95
896.18	15175.45
896.35	15533.84
896.52	15294.23
896.69	14993.18
896.86	15355.67
897.04	15476.50
897.21	15308.57
897.38	15175.45
897.55	15154.97
897.72	15417.11
897.89	14997.28
898.06	15189.78
898.23	15351.57
898.40	15036.19
898.57	15286.04
898.74	15275.80
898.91	14993.18
899.08	15255.32
899.26	15261.46
899.43	15288.09
899.60	15312.66
899.77	15142.68
899.94	15103.77
900.11	14954.27
900.28	15073.05
900.45	15066.91
900.62	15023.90
900.79	15200.02
900.96	15240.98
901.13	15007.52
901.30	15040.28
901.47	15021.85
901.64	15013.66
901.81	15126.30
901.98	15038.23
902.15	15333.14
902.32	14808.86
902.49	15208.22
902.66	15101.72
902.83	15089.43
903.01	15234.84
903.18	14968.60
903.35	15210.26
903.52	15138.58
903.69	15263.51
903.86	15042.33
904.03	15007.52
904.20	15159.06
904.37	15109.91
904.54	15054.62
904.71	15054.62
904.88	15040.28
905.05	15050.52
905.22	14905.12
905.39	14825.25
905.56	15181.59
905.73	14941.98
905.90	14978.84
906.07	15027.99
906.24	15218.46
906.41	14888.73
906.58	14987.04
906.75	15097.63
906.92	14845.73
907.09	14825.25
907.26	14788.38
907.43	14583.59
907.60	15021.85
907.77	15099.67
907.93	14962.46
908.10	15071.00
908.27	15243.03
908.44	14866.21
908.61	14784.29
908.78	14874.40
908.95	14903.07
909.12	14685.98
909.29	14946.08
909.46	14753.57
909.63	14888.73
909.80	14759.71
909.97	14747.42
910.14	14790.43
910.31	14698.27
910.48	14585.63
910.65	14802.72
910.82	14778.14
910.99	14792.48
911.16	14747.42
911.33	14616.35
911.50	14767.90
911.66	14524.19
911.83	14821.15
912.00	14542.63
912.17	14413.60
912.34	14542.63
912.51	14536.48
912.68	14544.67
912.85	14681.89
913.02	14524.19
913.19	14292.77
913.36	14479.14
913.53	14507.81
913.70	14231.33
913.86	14243.62
914.03	14581.54
914.20	14270.25
914.37	14448.42
914.54	14315.30
914.71	14182.18
914.88	14290.73
915.05	14208.81
915.22	14135.08
915.39	14305.06
915.55	14227.24
915.72	13948.72
915.89	13942.57
916.06	13836.08
916.23	13971.24
916.40	13815.60
916.57	13649.71
916.74	13702.96
916.91	13797.17
917.07	13682.48
917.24	13758.25
917.41	13688.62
917.58	13883.18
917.75	13594.42
917.92	13635.38
918.09	13567.79
918.26	13487.92
918.42	13621.04
918.59	13473.59
918.76	13432.63
918.93	13240.12
919.10	13377.33
919.27	13172.54
919.44	13436.72
919.60	13270.84
919.77	13246.26
919.94	13094.71
920.11	13176.63
920.28	13027.13
920.45	13037.37
920.61	12808.00
920.78	12918.59
920.95	12939.07
921.12	13063.99
921.29	12869.44
921.46	12877.63
921.62	12808.00
921.79	12724.03
921.96	12492.61
922.13	12640.06
922.30	12754.75
922.47	12496.71
922.63	12332.87
922.80	12435.27
922.97	12568.38
923.14	12253.00
923.31	12474.18
923.47	12087.11
923.64	12425.03
923.81	12089.16
923.98	12234.57
924.15	11941.71
924.32	12097.35
924.48	12113.74
924.65	12117.83
924.82	11820.88
924.99	11814.73
925.15	11894.60
925.32	11937.61
925.49	11671.37
925.66	11609.93
925.83	11671.37
925.99	11540.30
926.16	11851.60
926.33	11753.29
926.50	11448.15
926.67	11634.51
926.83	11423.57
927.00	11384.66
927.17	11300.69
927.34	11292.50
927.50	11390.80
927.67	11374.42
927.84	11325.27
928.01	11210.58
928.17	11024.22
928.34	11298.64
928.51	10766.17
928.68	10872.67
928.84	11054.94
929.01	10549.09
929.18	10690.40
929.35	10755.93
929.51	10731.36
929.68	10798.94
929.85	10581.85
930.02	10669.92
930.18	10557.28
930.35	10645.34
930.52	10432.35
930.69	10250.08
930.85	10348.39
931.02	10231.65
931.19	10282.85
931.36	10258.28
931.52	10252.13
931.69	10221.41
931.86	10090.34
932.02	10164.07
932.19	10033.00
932.36	10057.57
932.53	10055.53
932.69	9787.24
932.86	9996.14
933.03	9762.67
933.19	9584.49
933.36	9828.20
933.53	9727.85
933.70	9707.37
933.86	9617.26
934.03	9594.73
934.20	9561.97
934.36	9490.29
934.53	9269.11
934.70	9240.44
934.86	9359.22
935.03	9193.33
935.20	9047.93
935.36	9138.04
935.53	8818.55
935.70	8929.14
935.86	8947.58
936.03	8738.68
936.20	8615.80
936.36	8759.16
936.53	8529.79
936.70	8478.59
936.86	8523.65
937.03	8505.21
937.20	8380.29
937.36	8482.69
937.53	8112.00
937.70	7905.16
937.86	7907.21
938.03	8214.40
938.20	7923.59
938.36	7677.83
938.53	7651.21
938.70	7493.52
938.86	7425.93
939.03	7481.23
939.20	7376.78
939.36	7346.06
939.53	7051.16
939.70	7274.38
939.86	6965.14
940.03	6954.90
940.19	6782.87
940.36	6768.54
940.53	6895.51
940.69	6713.24
940.86	6768.54
941.03	6549.40
941.19	6449.05
941.36	6346.66
941.52	6406.05
941.69	6309.79
941.86	6197.15
942.02	6176.67
942.19	6164.39
942.35	6104.99
942.52	6088.61
942.69	6080.42
942.85	5932.97
943.02	5853.09
943.18	5863.33
943.35	5799.85
943.52	5855.14
943.68	5760.94
943.85	5767.08
944.01	5580.71
944.18	5666.73
944.35	5789.61
944.51	5664.68
944.68	5369.77
944.84	5529.52
945.01	5420.97
945.17	5488.56
945.34	5578.67
945.51	5486.51
945.67	5347.25
945.84	5431.21
946.00	5359.53
946.17	5396.40
946.33	5244.85
946.50	5431.21
946.67	5410.73
946.83	5322.67
947.00	5425.07
947.16	5324.72
947.33	5207.98
947.49	5343.15
947.66	5355.44
947.82	5418.93
947.99	5312.43
948.16	5347.25
948.32	5377.97
948.49	5324.72
948.65	5306.29
948.82	5427.12
948.98	5294.00
949.15	5386.16
949.31	5439.40
949.48	5330.86
949.64	5261.23
949.81	5294.00
949.97	5265.33
950.14	5347.25
950.30	5371.82
950.47	5468.08
950.63	5445.55
950.80	5324.72
950.96	5357.49
951.13	5525.42
951.30	5484.46
951.46	5468.08
951.63	5466.03
951.79	5351.34
951.96	5420.97
952.12	5339.05
952.29	5498.80
952.45	5466.03
952.62	5502.89
952.78	5359.53
952.94	5457.84
953.11	5382.06
953.27	5279.66
953.44	5484.46
953.60	5474.22
953.77	5449.64
953.93	5468.08
954.10	5386.16
954.26	5457.84
954.43	5570.48
954.59	5492.65
954.76	5474.22
954.92	5619.63
955.09	5541.80
955.25	5363.63
955.42	5517.23
955.58	5664.68
955.75	5734.31
955.91	5359.53
956.07	5486.51
956.24	5609.39
956.40	5498.80
956.57	5636.01
956.73	5363.63
956.90	5523.37
957.06	5414.83
957.23	5482.41
957.39	5554.09
957.56	5441.45
957.72	5439.40
957.88	5492.65
958.05	5582.76
958.21	5564.33
958.38	5390.25
958.54	5466.03
958.71	5599.15
958.87	5560.24
959.03	5547.95
959.20	5584.81
959.36	5488.56
959.53	5484.46
959.69	5406.64
959.85	5562.28
960.02	5304.24
960.18	5459.88
960.35	5459.88
960.51	5607.34
960.68	5386.16
960.84	5361.58
961.00	5490.60
961.17	5416.88
961.33	5590.95
961.50	5418.93
961.66	5547.95
961.82	5502.89
961.99	5558.19
962.15	5435.31
962.31	5345.20
962.48	5506.99
962.64	5558.19
962.81	5533.61
962.97	5529.52
963.13	5533.61
963.30	5547.95
963.46	5365.68
963.62	5494.70
963.79	5437.36
963.95	5392.30
964.12	5449.64
964.28	5599.15
964.44	5365.68
964.61	5347.25
964.77	5390.25
964.93	5556.14
965.10	5386.16
965.26	5269.42
965.42	5304.24
965.59	5408.69
965.75	5287.86
965.92	5390.25
966.08	5578.67
966.24	5384.11
966.41	5322.67
966.57	5332.91
966.73	5502.89
966.90	5326.77
967.06	5377.97
967.22	5228.46
967.39	5236.66
967.55	5326.77
967.71	5195.70
967.88	5177.26
968.04	5273.52
968.20	5189.55
968.37	5334.96
968.53	5160.88
968.69	5347.25
968.85	5283.76
969.02	5324.72
969.18	5402.54
969.34	5083.06
969.51	5232.56
969.67	5210.03
969.83	5148.59
970.00	5345.20
970.16	5134.26
970.32	5222.32
970.48	5175.22
970.65	5226.42
970.81	5132.21
970.97	5097.39
971.14	4945.84
971.30	5269.42
971.46	5052.34
971.63	5056.43
971.79	5150.64
971.95	5087.15
972.11	4970.42
972.28	5066.67
972.44	5214.13
972.60	4814.77
972.76	4960.18
972.93	4900.79
973.09	5072.82
973.25	4978.61
973.42	5089.20
973.58	5072.82
973.74	4947.89
973.90	5009.33
974.07	4849.59
974.23	4876.21
974.39	4917.17
974.55	4857.78
974.72	4898.74
974.88	4657.08
975.04	4960.18
975.20	4892.60
975.37	4874.17
975.53	4825.01
975.69	4908.98
975.85	4945.84
976.01	4597.69
976.18	4800.44
976.34	4902.84
976.50	4835.25
976.66	4894.65
976.83	4689.85
976.99	4800.44
977.15	4702.14
977.31	4755.38
977.47	4839.35
977.64	4872.12
977.80	4708.28
977.96	4743.10
978.12	4698.04
978.29	4667.32
978.45	4468.67
978.61	4595.64
978.77	4673.46
978.93	4638.65
979.10	4476.86
979.26	4612.03
979.42	4530.11
979.58	4431.80
979.74	4587.45
979.91	4642.75
980.07	4474.81
980.23	4573.11
980.39	4343.74
980.55	4468.67
980.71	4521.92
980.88	4448.19
981.04	4384.70
981.20	4399.04
981.36	4499.39
981.52	4462.52
981.68	4341.69
981.85	4464.57
982.01	4427.71
982.17	4370.37
982.33	4462.52
982.49	4501.44
982.65	4353.98
982.82	4468.67
982.98	4345.79
983.14	4345.79
983.30	4362.17
983.46	4497.34
983.62	4272.06
983.79	4229.06
983.95	4255.68
984.11	4104.13
984.27	4308.93
984.43	4218.82
984.59	4181.95
984.75	4161.47
984.91	4229.06
985.08	4335.55
985.24	4175.81
985.40	4110.27
985.56	4194.24
985.72	4147.14
985.88	4241.34
986.04	4175.81
986.20	4100.03
986.37	4122.56
986.53	4079.55
986.69	4046.79
986.85	4116.42
987.01	4040.64
987.17	4083.65
987.33	4067.27
987.49	4063.17
987.65	4110.27
987.82	4028.35
987.98	3999.68
988.14	4050.88
988.30	4089.79
988.46	3985.35
988.62	3885.00
988.78	3979.20
988.94	3979.20
989.10	3891.14
989.26	4001.73
989.42	3885.00
989.59	3921.86
989.75	3827.65
989.91	3962.82
990.07	3821.51
990.23	3813.32
990.39	3895.24
990.55	3921.86
990.71	3825.61
990.87	3874.76
991.03	3782.60
991.19	3739.59
991.35	3807.17
991.51	3755.97
991.67	3704.78
991.83	3825.61
992.00	3809.22
992.16	3872.71
992.32	3819.46
992.48	3692.49
992.64	3633.10
992.80	3649.48
992.96	3674.06
993.12	3637.19
993.28	3692.49
993.44	3719.11
993.60	3725.26
993.76	3731.40
993.92	3649.48
994.08	3717.06
994.24	3573.71
994.40	3600.33
994.56	3645.38
994.72	3573.71
994.88	3563.47
995.04	3508.17
995.20	3600.33
995.36	3532.75
995.52	3653.58
995.68	3618.76
995.84	3483.59
996.00	3590.09
996.16	3489.74
996.32	3538.89
996.48	3495.88
996.64	3547.08
996.80	3542.99
996.96	3551.18
997.12	3502.03
997.28	3405.77
997.44	3385.29
997.60	3430.35
997.76	3399.63
997.92	3430.35
998.08	3459.02
998.24	3428.30
998.40	3344.33
998.56	3473.36
998.72	3448.78
998.88	3383.24
999.04	3340.24
999.20	3317.71
999.36	3401.68
999.52	3428.30
999.68	3424.20
999.84	3401.68
1000.00	3391.44
1000.16	3373.00
1000.32	3323.85
1000.48	3362.76
1000.64	3233.74
1000.80	3135.44
1000.95	3254.22
1001.11	3393.48
1001.27	3096.53
1001.43	3256.27
1001.59	3121.10
1001.75	3248.08
1001.91	3188.69
1002.07	3192.78
1002.23	3114.96
1002.39	3131.34
1002.55	3188.69
1002.71	3149.78
1002.87	3139.54
1003.03	3145.68
1003.19	3055.57
1003.34	3229.65
1003.50	3190.74
1003.66	3182.54
1003.82	3133.39
1003.98	3065.81
1004.14	3028.95
1004.30	3108.82
1004.46	3026.90
1004.62	3018.71
1004.78	2985.94
1004.94	3018.71
1005.09	3047.38
1005.25	3088.34
1005.41	2936.79
1005.57	3080.14
1005.73	2969.55
1005.89	2934.74
1006.05	2985.94
1006.21	2967.51
1006.37	2887.64
1006.52	2912.21
1006.68	2899.92
1006.84	3043.28
1007.00	2908.12
1007.16	2928.60
1007.32	2854.87
1007.48	2871.25
1007.64	2904.02
1007.79	2979.79
1007.95	2887.64
1008.11	2942.93
1008.27	2801.62
1008.43	2889.68
1008.59	2920.40
1008.75	2916.31
1008.91	2863.06
1009.06	2832.34
1009.22	2881.49
1009.38	2805.72
1009.54	2877.40
1009.70	2820.05
1009.86	2809.81
1010.01	3037.14
1010.17	2672.60
1010.33	2826.20
1010.49	2736.09
1010.65	2828.24
1010.81	2664.41
1010.96	2744.28
1011.12	2656.22
1011.28	2717.65
1011.44	2850.77
1011.60	2740.18
1011.76	2654.17
1011.91	2789.33
1012.07	2672.60
1012.23	2592.73
1012.39	2613.21
1012.55	2623.45
1012.71	2588.63
1012.86	2691.03
1013.02	2627.54
1013.18	2639.83
1013.34	2682.84
1013.50	2650.07
1013.65	2695.13
1013.81	2598.87
1013.97	2645.98
1014.13	2668.50
1014.29	2568.15
1014.44	2699.22
1014.60	2574.30
1014.76	2543.58
1014.92	2568.15
1015.07	2600.92
1015.23	2580.44
1015.39	2461.66
1015.55	2615.26
1015.71	2502.62
1015.86	2486.23
1016.02	2635.74
1016.18	2475.99
1016.34	2527.19
1016.49	2498.52
1016.65	2598.87
1016.81	2482.14
1016.97	2514.91
1017.12	2598.87
1017.28	2400.22
1017.44	2375.64
1017.60	2447.32
1017.75	2443.23
1017.91	2426.84
1018.07	2498.52
1018.23	2377.69
1018.38	2426.84
1018.54	2420.70
1018.70	2414.56
1018.86	2408.41
1019.01	2402.27
1019.17	2371.55
1019.33	2525.15
1019.49	2459.61
1019.64	2426.84
1019.80	2453.47
1019.96	2459.61
1020.12	2451.42
1020.27	2346.97
1020.43	2402.27
1020.59	2332.64
1020.74	2410.46
1020.90	2375.64
1021.06	2293.72
1021.22	2443.23
1021.37	2379.74
1021.53	2420.70
1021.69	2353.12
1021.84	2256.86
1022.00	2344.92
1022.16	2244.57
1022.31	2336.73
1022.47	2312.16
1022.63	2424.80
1022.79	2242.53
1022.94	2308.06
1023.10	2299.87
1023.26	2314.20
1023.41	2306.01
1023.57	2234.33
1023.73	2256.86
1023.88	2363.36
1024.04	2256.86
1024.20	2185.18
1024.35	2299.87
1024.51	2361.31
1024.67	2236.38
1024.82	2275.29
1024.98	2154.46
1025.14	2215.90
1025.29	2144.22
1025.45	2226.14
1025.61	2189.28
1025.76	2088.93
1025.92	2232.29
1026.08	2234.33
1026.23	2236.38
1026.39	2267.10
1026.55	2185.18
1026.70	2193.37
1026.86	2119.65
1027.02	2199.52
1027.17	2215.90
1027.33	2226.14
1027.48	2119.65
1027.64	2123.74
1027.80	2158.56
1027.95	2191.33
1028.11	2056.16
1028.27	2203.61
1028.42	2260.96
1028.58	2086.88
1028.73	2240.48
1028.89	2011.11
1029.05	2267.10
1029.20	2166.75
>>>>>End Processed Spectral Data<<<<<
