SpectraSuite Data File
++++++++++++++++++++++++++++++++++++
Date: Fri Jun 02 14:57:21 CEST 2017
User: INFO_000
Dark Spectrum Present: No
Reference Spectrum Present: No
Number of Sampled Component Spectra: 1
Spectrometers: USB4H00879
Integration Time (usec): 80000 (USB4H00879)
Spectra Averaged: 1 (USB4H00879)
Boxcar Smoothing: 0 (USB4H00879)
Correct for Electrical Dark: No (USB4H00879)
Strobe/Lamp Enabled: No (USB4H00879)
Correct for Detector Non-linearity: No (USB4H00879)
Correct for Stray Light: No (USB4H00879)
Number of Pixels in Processed Spectrum: 3648
>>>>>Begin Processed Spectral Data<<<<<
345.13	1269.74
345.34	1269.74
345.56	1269.74
345.78	1263.60
345.99	1255.40
346.21	1695.72
346.42	1720.29
346.64	1640.42
346.86	1781.73
347.07	1654.76
347.29	1654.76
347.50	1599.46
347.72	1720.29
347.94	1783.78
348.15	1558.50
348.37	1648.61
348.59	1679.33
348.80	1658.85
349.02	1804.26
349.23	1867.75
349.45	1837.03
349.67	1923.04
349.88	1857.51
350.10	1978.34
350.31	1777.64
350.53	1789.92
350.75	1937.38
350.96	1822.69
351.18	1863.65
351.39	1910.75
351.61	1773.54
351.82	1943.52
352.04	1933.28
352.26	1845.22
352.47	1918.95
352.69	1904.61
352.90	1798.12
353.12	1853.41
353.34	1912.80
353.55	1945.57
353.77	1832.93
353.98	1804.26
354.20	1853.41
354.41	1949.67
354.63	1908.71
354.85	2068.45
355.06	1851.36
355.28	1802.21
355.49	1841.12
355.71	1951.71
355.92	1826.79
356.14	1871.84
356.35	1906.66
356.57	1834.98
356.79	1906.66
357.00	1841.12
357.22	1976.29
357.43	1884.13
357.65	1970.15
357.86	1904.61
358.08	1875.94
358.29	1904.61
358.51	1986.53
358.72	1923.04
358.94	1896.42
359.16	1945.57
359.37	1949.67
359.59	1873.89
359.80	2031.58
360.02	1961.95
360.23	1966.05
360.45	1986.53
360.66	1947.62
360.88	1933.28
361.09	1869.80
361.31	2074.59
361.52	1941.47
361.74	2072.54
361.95	1978.34
362.17	1896.42
362.38	2078.69
362.60	2002.91
362.81	1970.15
363.03	2015.20
363.24	1933.28
363.46	2072.54
363.67	2025.44
363.89	2037.73
364.10	1964.00
364.32	1925.09
364.53	2074.59
364.75	1904.61
364.96	1943.52
365.18	2029.54
365.39	1892.32
365.61	2007.01
365.82	2076.64
366.04	2066.40
366.25	2004.96
366.47	2025.44
366.68	2035.68
366.90	1992.67
367.11	2131.94
367.33	2101.22
367.54	2113.50
367.76	2060.26
367.97	2076.64
368.19	2072.54
368.40	2101.22
368.62	1964.00
368.83	1906.66
369.05	2080.74
369.26	2058.21
369.48	1998.82
369.69	2027.49
369.91	2023.39
370.12	2086.88
370.33	2191.33
370.55	1986.53
370.76	2043.87
370.98	2131.94
371.19	2109.41
371.41	2058.21
371.62	2101.22
371.84	1978.34
372.05	2125.79
372.27	2074.59
372.48	2095.07
372.69	2101.22
372.91	2240.48
373.12	2281.44
373.34	2037.73
373.55	2113.50
373.77	2138.08
373.98	2090.98
374.20	2162.66
374.41	2277.34
374.62	2183.13
374.84	2076.64
375.05	2205.66
375.27	2070.50
375.48	2195.42
375.70	2179.04
375.91	2285.53
376.12	2332.64
376.34	2144.22
376.55	2127.84
376.77	2211.81
376.98	2107.36
377.19	2066.40
377.41	2086.88
377.62	2217.95
377.84	2136.03
378.05	2369.50
378.27	2226.14
378.48	2312.16
378.69	2271.20
378.91	2346.97
379.12	2273.25
379.34	2217.95
379.55	2277.34
379.76	2306.01
379.98	2146.27
380.19	2238.43
380.41	2285.53
380.62	2340.83
380.83	2303.96
381.05	2271.20
381.26	2357.21
381.47	2295.77
381.69	2230.24
381.90	2514.91
382.12	2297.82
382.33	2240.48
382.54	2291.68
382.76	2357.21
382.97	2338.78
383.19	2242.53
383.40	2326.49
383.61	2303.96
383.83	2308.06
384.04	2363.36
384.25	2443.23
384.47	2486.23
384.68	2402.27
384.89	2295.77
385.11	2332.64
385.32	2365.40
385.54	2396.12
385.75	2396.12
385.96	2443.23
386.18	2437.08
386.39	2445.27
386.60	2351.07
386.82	2463.71
387.03	2349.02
387.24	2455.51
387.46	2502.62
387.67	2484.19
387.88	2533.34
388.10	2471.90
388.31	2484.19
388.52	2549.72
388.74	2541.53
388.95	2525.15
389.16	2613.21
389.38	2461.66
389.59	2617.30
389.80	2576.34
390.02	2586.58
390.23	2623.45
390.44	2605.02
390.66	2551.77
390.87	2621.40
391.08	2576.34
391.30	2715.61
391.51	2670.55
391.72	2697.17
391.94	2598.87
392.15	2600.92
392.36	2506.71
392.58	2549.72
392.79	2670.55
393.00	2678.74
393.22	2703.32
393.43	2723.80
393.64	2787.29
393.85	2797.53
394.07	2654.17
394.28	2611.16
394.49	2748.37
394.71	2809.81
394.92	2842.58
395.13	2789.33
395.35	2736.09
395.56	2717.65
395.77	2658.26
395.98	2910.16
396.20	2854.87
396.41	2785.24
396.62	2910.16
396.84	2770.90
397.05	2818.00
397.26	2920.40
397.47	2938.84
397.69	2895.83
397.90	2963.41
398.11	2992.08
398.32	2846.68
398.54	2848.72
398.75	2766.81
398.96	2881.49
399.18	3112.91
399.39	2934.74
399.60	3067.86
399.81	2893.78
400.03	2936.79
400.24	3239.89
400.45	3086.29
400.66	3129.30
400.88	2906.07
401.09	3215.31
401.30	2955.22
401.51	3192.78
401.73	3145.68
401.94	3100.62
402.15	3164.11
402.36	3071.95
402.58	3164.11
402.79	3198.93
403.00	3061.71
403.21	3168.21
403.43	3176.40
403.64	3237.84
403.85	3117.01
404.06	3129.30
404.27	3051.47
404.49	3264.46
404.70	3112.91
404.91	3297.23
405.12	3295.18
405.34	3250.13
405.55	3340.24
405.76	3207.12
405.97	3143.63
406.19	3317.71
406.40	3266.51
406.61	3340.24
406.82	3424.20
407.03	3354.57
407.25	3264.46
407.46	3354.57
407.67	3526.60
407.88	3348.43
408.09	3332.05
408.31	3440.59
408.52	3442.64
408.73	3411.92
408.94	3289.04
409.15	3387.34
409.37	3418.06
409.58	3461.07
409.79	3379.15
410.00	3502.03
410.21	3364.81
410.43	3510.22
410.64	3444.68
410.85	3512.27
411.06	3477.45
411.27	3626.95
411.48	3633.10
411.70	3577.80
411.91	3489.74
412.12	3764.17
412.33	3622.86
412.54	3616.71
412.76	3622.86
412.97	3616.71
413.18	3588.04
413.39	3649.48
413.60	3669.96
413.81	3704.78
414.03	3563.47
414.24	3606.47
414.45	3772.36
414.66	3641.29
414.87	3606.47
415.08	3665.86
415.30	3678.15
415.51	3776.45
415.72	3753.93
415.93	3678.15
416.14	3862.47
416.35	3887.04
416.56	3796.93
416.78	3837.89
416.99	3829.70
417.20	3878.85
417.41	3915.72
417.62	3930.05
417.83	3928.00
418.04	3950.53
418.26	3887.04
418.47	3952.58
418.68	4001.73
418.89	3960.77
419.10	4104.13
419.31	3950.53
419.52	4036.55
419.73	4016.07
419.95	4050.88
420.16	3956.68
420.37	3948.48
420.58	4097.99
420.79	3964.87
421.00	4188.10
421.21	4136.90
421.42	4120.51
421.63	4110.27
421.85	4208.58
422.06	4155.33
422.27	4208.58
422.48	4120.51
422.69	4313.02
422.90	4198.34
423.11	4325.31
423.32	4292.54
423.53	4399.04
423.75	4394.94
423.96	4560.83
424.17	4427.71
424.38	4440.00
424.59	4364.22
424.80	4601.79
425.01	4485.05
425.22	4440.00
425.43	4399.04
425.64	4644.79
425.85	4560.83
426.06	4622.27
426.28	4603.83
426.49	4384.70
426.70	4487.10
426.91	4632.51
427.12	4632.51
427.33	4571.07
427.54	4501.44
427.75	4718.52
427.96	4757.43
428.17	4736.95
428.38	4859.83
428.59	4865.97
428.80	4837.30
429.01	4937.65
429.23	4818.87
429.44	4908.98
429.65	4956.08
429.86	4972.47
430.07	4894.65
430.28	4997.04
430.49	5021.62
430.70	5105.59
430.91	4970.42
431.12	4990.90
431.33	5095.35
431.54	5203.89
431.75	5113.78
431.96	5220.27
432.17	5152.69
432.38	5205.94
432.59	5414.83
432.80	5253.04
433.01	5398.45
433.22	5427.12
433.43	5261.23
433.64	5320.62
433.85	5218.22
434.06	5388.21
434.27	5320.62
434.49	5312.43
434.70	5443.50
434.91	5386.16
435.12	5539.76
435.33	5392.30
435.54	5343.15
435.75	5318.57
435.96	5355.44
436.17	5398.45
436.38	5580.71
436.59	5537.71
436.80	5412.78
437.01	5859.24
437.22	5801.90
437.43	5613.48
437.64	5427.12
437.85	5738.41
438.06	5756.84
438.27	5656.49
438.48	5570.48
438.69	5719.98
438.90	5554.09
439.11	5654.44
439.32	5836.71
439.53	5824.42
439.74	5846.95
439.95	5799.85
440.16	5801.90
440.37	5894.05
440.57	5887.91
440.78	5924.77
440.99	6066.08
441.20	5887.91
441.41	5666.73
441.62	5971.88
441.83	5828.52
442.04	6102.95
442.25	6168.48
442.46	6148.00
442.67	6252.45
442.88	6492.06
443.09	6088.61
443.30	6182.82
443.51	6033.32
443.72	6371.23
443.93	6094.76
444.14	6383.52
444.35	6188.96
444.56	6209.44
444.77	6107.04
444.98	6211.49
445.19	6191.01
445.40	6274.98
445.61	6164.39
445.81	6379.42
446.02	6397.85
446.23	6416.29
446.44	6256.54
446.65	6528.92
446.86	6485.92
447.07	6455.20
447.28	6662.04
447.49	6655.90
447.70	6623.13
447.91	6752.15
448.12	6690.71
448.33	6690.71
448.54	6698.91
448.74	6641.56
448.95	6676.38
449.16	6453.15
449.37	6934.42
449.58	6692.76
449.79	6915.99
450.00	6756.25
450.21	6952.85
450.42	7012.24
450.63	6889.37
450.84	6967.19
451.05	6928.28
451.25	6954.90
451.46	6899.61
451.67	7118.74
451.88	7276.43
452.09	7126.93
452.30	7186.32
452.51	7100.31
452.72	7208.85
452.93	7329.68
453.13	7067.54
453.34	7190.42
453.55	7124.88
453.76	7163.79
453.97	7483.28
454.18	7440.27
454.39	7450.51
454.60	7358.35
454.81	7413.65
455.01	7591.82
455.22	7307.15
455.43	7593.87
455.64	7817.10
455.85	7778.19
456.06	7890.82
456.27	7659.40
456.48	7634.83
456.68	7767.95
456.89	7937.93
457.10	8015.75
457.31	7794.57
457.52	7778.19
457.73	8023.94
457.94	8324.99
458.14	7837.58
458.35	8312.71
458.56	8083.33
458.77	7905.16
458.98	8159.11
459.19	8155.01
459.39	8290.18
459.60	8480.64
459.81	8339.33
460.02	8368.00
460.23	8314.75
460.44	8572.80
460.65	8699.77
460.85	8648.57
461.06	8621.95
461.27	8533.89
461.48	8998.77
461.69	9019.25
461.89	8636.28
462.10	8810.36
462.31	8845.18
462.52	8656.76
462.73	8810.36
462.94	8980.34
463.14	8937.34
463.35	9084.79
463.56	9486.19
463.77	9162.61
463.98	9193.33
464.18	9254.77
464.39	9424.75
464.60	9580.40
464.81	9371.50
465.02	9535.34
465.23	9951.08
465.43	9416.56
465.64	9764.72
465.85	9596.78
466.06	9578.35
466.27	10065.77
466.47	9949.03
466.68	9983.85
466.89	9895.78
467.10	10127.21
467.30	9791.34
467.51	10280.80
467.72	10352.48
467.93	9981.80
468.14	10305.38
468.34	10485.60
468.55	10250.08
468.76	10526.56
468.97	10379.11
469.17	10524.51
469.38	10776.41
469.59	10874.71
469.80	10764.12
470.01	10745.69
470.21	10780.51
470.42	11177.81
470.63	11143.00
470.84	11108.18
471.04	11409.23
471.25	11409.23
471.46	11059.03
471.67	11540.30
471.87	11351.89
472.08	11439.95
472.29	11661.13
472.50	11388.75
472.70	11444.05
472.91	11636.56
473.12	11734.86
473.33	11970.38
473.53	12119.88
473.74	12095.30
473.95	12377.92
474.16	12199.75
474.36	12296.00
474.57	12427.07
474.78	12740.41
474.99	12396.35
475.19	12525.38
475.40	12810.04
475.61	12930.87
475.81	12859.20
476.02	13039.42
476.23	12918.59
476.44	13164.34
476.64	13360.95
476.85	13412.15
477.06	13469.49
477.27	13831.98
477.47	13872.94
477.68	13809.45
477.89	14038.83
478.09	13733.68
478.30	13952.81
478.51	13983.53
478.71	14329.64
478.92	14188.33
479.13	14612.26
479.34	14528.29
479.54	14685.98
479.75	14241.57
479.96	14835.49
480.16	14550.82
480.37	14790.43
480.58	14886.68
480.78	15169.30
480.99	15187.74
481.20	15222.55
481.41	15482.64
481.61	15419.16
481.82	15769.36
482.03	15331.09
482.23	15783.70
482.44	15761.17
482.65	16111.37
482.85	15818.51
483.06	16058.12
483.27	16078.60
483.47	16090.89
483.68	16181.00
483.89	16303.88
484.09	16508.68
484.30	16641.79
484.51	16621.31
484.71	16699.14
484.92	16803.58
485.13	16977.66
485.33	17039.10
485.54	17094.40
485.75	17313.53
485.95	17610.48
486.16	17547.00
486.37	17647.35
486.57	17460.98
486.78	17749.75
486.98	17551.09
487.19	17690.35
487.40	17897.20
487.60	17655.54
487.81	18257.64
488.02	18007.79
488.22	18274.03
488.43	18261.74
488.64	18552.55
488.84	18603.75
489.05	19027.68
489.25	18550.50
489.46	18853.60
489.67	18794.21
489.87	18962.14
490.08	19089.12
490.29	19275.48
490.49	19261.15
490.70	19453.66
490.90	19576.53
491.11	19363.54
491.32	19568.34
491.52	19748.56
491.73	19754.71
491.94	19996.37
492.14	19982.03
492.35	20029.13
492.55	20141.77
492.76	20442.82
492.97	20203.21
493.17	20389.58
493.38	20471.50
493.58	20756.16
493.79	20827.84
494.00	20784.83
494.20	20915.90
494.41	21110.46
494.61	21006.02
494.82	21059.26
495.02	21061.31
495.23	21196.48
495.44	21262.01
495.64	21206.72
495.85	21386.94
496.05	21522.10
496.26	21460.66
496.47	22030.00
496.67	21616.31
496.88	22042.29
497.08	21943.99
497.29	22318.76
497.49	22130.35
497.70	22128.30
497.91	22204.08
498.11	22273.71
498.32	22253.23
498.52	22648.49
498.73	22775.46
498.93	22621.86
499.14	22806.18
499.34	22654.63
499.55	23082.66
499.76	22886.05
499.96	22994.59
500.17	23283.36
500.37	23338.65
500.58	22810.28
500.78	23193.25
500.99	23549.59
501.19	23307.93
501.40	23385.76
501.60	23228.06
501.81	23500.44
502.02	23506.59
502.22	23606.94
502.43	23735.96
502.63	23971.47
502.84	23928.47
503.04	23887.51
503.25	24086.16
503.45	24110.74
503.66	24454.79
503.86	24415.88
504.07	24776.33
504.27	24510.09
504.48	24696.46
504.68	24448.65
504.89	25159.30
505.09	24575.62
505.30	24499.85
505.50	25009.79
505.71	25222.78
505.91	24848.00
506.12	25114.24
506.32	24970.88
506.53	25206.40
506.73	25255.55
506.94	25210.50
507.14	25243.26
507.35	25321.09
507.55	25421.44
507.76	25386.62
507.96	25503.35
508.17	25566.84
508.37	25493.12
508.58	25507.45
508.78	25673.34
508.99	26015.35
509.19	26127.99
509.40	25935.48
509.60	26037.87
509.81	26082.93
510.01	25888.37
510.22	26074.74
510.42	26259.06
510.63	26375.79
510.83	26474.09
511.04	26240.62
511.24	26467.95
511.44	26455.66
511.65	26732.14
511.85	26596.97
512.06	26478.19
512.26	26875.49
512.47	26685.03
512.67	26812.01
512.88	26805.86
513.08	26654.31
513.29	27104.87
513.49	27192.93
513.69	26979.94
513.90	27008.61
514.10	27078.24
514.31	26824.29
514.51	27074.15
514.72	27229.79
514.92	27387.49
515.13	27213.41
515.33	27733.59
515.53	27403.87
515.74	27371.10
515.94	27731.54
516.15	27694.68
516.35	27424.35
516.56	27821.66
516.76	27586.14
516.96	27827.80
517.17	28294.74
517.37	28114.52
517.58	28128.85
517.78	28202.58
517.99	28259.92
518.19	28364.37
518.39	28393.04
518.60	28464.72
518.80	28472.91
519.01	28634.70
519.21	28292.69
519.41	29034.05
519.62	28536.40
519.82	28751.43
520.03	29050.44
520.23	29001.29
520.43	28786.25
520.64	29167.17
520.84	29339.20
521.05	29013.57
521.25	29394.50
521.45	29173.31
521.66	29478.46
521.86	29550.14
522.07	29746.75
522.27	29451.84
522.47	29603.39
522.68	30246.45
522.88	29777.47
523.08	29812.28
523.29	30060.09
523.49	30385.71
523.70	29998.65
523.90	30262.83
524.10	30142.00
524.31	30193.20
524.51	29902.39
524.71	30697.00
524.92	30643.76
525.12	30879.27
525.33	30805.55
525.53	30834.22
525.73	30815.79
525.94	30717.48
526.14	30877.22
526.34	31274.53
526.55	31245.86
526.75	30948.90
526.95	31161.89
527.16	31301.15
527.36	31401.50
527.56	31909.40
527.77	31903.26
527.97	31512.10
528.17	31569.44
528.38	31749.66
528.58	31854.11
528.78	32405.01
528.99	31735.32
529.19	32253.46
529.39	32132.63
529.60	32507.41
529.80	32386.58
530.00	32165.40
530.21	32466.45
530.41	32722.44
530.61	32775.69
530.82	32865.80
531.02	32962.06
531.22	33183.24
531.43	33259.01
531.63	33428.99
531.83	33328.64
532.04	33650.17
532.24	33295.88
532.44	33807.87
532.64	33777.15
532.85	34027.00
533.05	33852.92
533.25	33955.32
533.46	33891.83
533.66	33957.37
533.86	34139.64
534.07	34530.80
534.27	34348.53
534.47	34592.24
534.67	34424.31
534.88	34559.47
535.08	34471.41
535.28	35112.42
535.49	35065.32
535.69	35360.23
535.89	35356.13
536.09	35501.54
536.30	35636.70
536.50	35384.80
536.70	35851.74
536.91	35640.80
537.11	35571.17
537.31	35626.46
537.51	35816.93
537.72	36398.55
537.92	36191.70
538.12	36638.16
538.32	36158.94
538.53	36599.25
538.73	36394.45
538.93	36247.00
539.13	36484.56
539.34	36697.55
539.54	36484.56
539.74	37279.18
539.94	36937.16
540.15	36533.71
540.35	37262.79
540.55	36537.81
540.75	36947.40
540.96	37240.26
541.16	37207.50
541.36	37580.23
541.56	37500.36
541.77	37891.52
541.97	37432.77
542.17	37594.56
542.37	37385.67
542.58	37553.60
542.78	38045.12
542.98	37883.33
543.18	37975.48
543.38	38550.96
543.59	38143.42
543.79	37709.25
543.99	38094.27
544.19	38260.15
544.40	38290.87
544.60	38520.24
544.80	38524.34
545.00	38690.23
545.20	39042.48
545.41	38448.57
545.61	38510.00
545.81	38815.15
546.01	38862.26
546.21	38725.04
546.42	39157.16
546.62	39194.03
546.82	39024.04
547.02	39251.37
547.22	39515.56
547.43	39204.27
547.63	39546.28
547.83	39370.15
548.03	39044.52
548.23	39599.52
548.44	39380.39
548.64	39421.35
548.84	39976.35
549.04	39873.95
549.24	39847.33
549.45	40244.63
549.65	39820.70
549.85	39716.26
550.05	39941.53
550.25	39996.83
550.45	40670.61
550.66	40490.39
550.86	39988.64
551.06	40564.12
551.26	40342.94
551.46	40660.37
551.66	40875.41
551.87	40172.96
552.07	40641.94
552.27	40889.74
552.47	40816.02
552.67	40770.96
552.87	40441.24
553.07	40818.07
553.28	40861.07
553.48	41049.49
553.68	40582.55
553.88	41614.72
554.08	41006.48
554.28	41194.89
554.48	41211.28
554.69	41325.96
554.89	40994.19
555.09	41446.79
555.29	41229.71
555.49	41530.76
555.69	41571.72
555.89	41285.00
556.10	41248.14
556.30	41303.43
556.50	41702.79
556.70	41592.20
556.90	41676.16
557.10	42403.19
557.30	41461.13
557.50	41903.49
557.70	41735.56
557.91	42255.74
558.11	41727.36
558.31	42098.05
558.51	41983.36
558.71	42100.09
558.91	42081.66
559.11	42503.54
559.31	41948.54
559.51	41919.87
559.72	42091.90
559.92	42261.88
560.12	42052.99
560.32	42401.14
560.52	42204.54
560.72	42941.81
560.92	42655.09
561.12	42685.81
561.32	42958.19
561.52	42481.02
561.72	42794.36
561.93	42933.62
562.13	42734.96
562.33	42610.04
562.53	43533.67
562.73	42306.94
562.93	42972.53
563.13	43038.06
563.33	42974.58
563.53	43195.76
563.73	42569.08
563.93	43257.20
564.13	43218.28
564.33	43062.64
564.53	43152.75
564.74	43378.03
564.94	43439.47
565.14	43218.28
565.34	43156.85
565.54	43507.05
565.74	43279.72
565.94	43695.46
566.14	43533.67
566.34	43418.99
566.54	43892.07
566.74	43312.49
566.94	43775.33
567.14	43881.83
567.34	43935.07
567.54	44076.38
567.74	43269.48
567.94	43582.82
568.14	44004.70
568.34	43912.55
568.54	44043.62
568.74	44553.56
568.94	44221.79
569.14	44320.09
569.34	44205.41
569.54	44660.05
569.75	44080.48
569.95	44361.05
570.15	44709.21
570.35	44377.43
570.55	44565.85
570.75	44528.98
570.95	44123.49
571.15	44129.63
571.35	44479.83
571.55	45106.51
571.75	44621.14
571.95	44565.85
572.15	44752.21
572.35	45323.60
572.55	44797.27
572.75	44842.32
572.95	44625.24
573.15	45055.31
573.35	45464.91
573.55	45190.48
573.75	45184.33
573.95	45272.40
574.15	45194.57
574.35	45368.65
574.55	45456.71
574.75	45309.26
574.95	45358.41
575.15	45501.77
575.34	45583.69
575.54	45458.76
575.74	45653.32
575.94	46073.15
576.14	45759.81
576.34	46128.45
576.54	45563.21
576.74	46167.36
576.94	45808.96
577.14	46136.64
577.34	46130.50
577.54	45942.08
577.74	46329.15
577.94	46105.92
578.14	46146.88
578.34	46325.05
578.54	45987.14
578.74	45745.48
578.94	46456.12
579.14	45989.19
579.34	46191.94
579.54	46404.92
579.74	46826.81
579.94	46773.56
580.13	46794.04
580.33	46800.18
580.53	46701.88
580.73	47189.30
580.93	47035.70
581.13	46740.79
581.33	47271.21
581.53	46964.02
581.73	47529.26
581.93	47394.09
582.13	47553.83
582.33	47658.28
582.53	47242.54
582.73	47750.44
582.92	47449.39
583.12	47705.38
583.32	47461.68
583.52	47320.37
583.72	48207.14
583.92	47527.21
584.12	47906.08
584.32	47981.86
584.52	47957.28
584.72	47467.82
584.92	48137.51
585.11	48608.54
585.31	48178.46
585.51	48145.70
585.71	48092.45
585.91	48174.37
586.11	48364.83
586.31	48065.83
586.51	47945.00
586.71	48102.69
586.91	48891.16
587.10	49165.59
587.30	48708.89
587.50	48755.99
587.70	48747.80
587.90	48600.35
588.10	48796.95
588.30	49016.08
588.50	48878.87
588.69	48516.38
588.89	48944.41
589.09	49190.16
589.29	48987.41
589.49	49128.72
589.69	48669.98
589.89	49573.13
590.08	49165.59
590.28	49546.51
590.48	49118.48
590.68	49636.62
590.88	49487.12
591.08	49024.28
591.28	49446.16
591.47	49984.77
591.67	49544.46
591.87	49628.43
592.07	49689.87
592.27	49874.18
592.47	49231.12
592.67	50029.83
592.86	49480.97
593.06	50144.51
593.26	49835.27
593.46	49968.39
593.66	49653.00
593.86	50119.94
594.05	50332.93
594.25	50640.12
594.45	49988.87
594.65	50062.60
594.85	50074.88
595.05	50609.40
595.24	50619.64
595.44	50312.45
595.64	50627.84
595.84	50277.63
596.04	50838.78
596.23	50834.68
596.43	50881.78
596.63	50404.61
596.83	51016.95
597.03	50959.61
597.22	51637.48
597.42	50855.16
597.62	50797.82
597.82	51311.86
598.02	51193.07
598.21	51076.34
598.41	51027.19
598.61	51246.32
598.81	50963.70
599.01	51447.02
599.20	51180.79
599.40	51027.19
599.60	51469.55
599.80	51698.92
600.00	51475.69
600.19	51934.44
600.39	51258.61
600.59	52186.34
600.79	51825.90
600.98	51533.04
601.18	52434.14
601.38	51846.38
601.58	52204.77
601.78	52264.16
601.97	51877.10
602.17	52684.00
602.37	52235.49
602.57	52217.06
602.76	52403.42
602.96	52391.14
603.16	52767.96
603.36	52597.98
603.55	53007.58
603.75	52585.69
603.95	52577.50
604.15	52526.30
604.34	52853.98
604.54	53044.44
604.74	52712.67
604.94	53040.34
605.13	52946.14
605.33	52767.96
605.53	53101.78
605.73	53255.38
605.92	53075.16
606.12	53204.18
606.32	53523.66
606.52	52810.97
606.71	53271.76
606.91	53916.87
607.11	53179.60
607.30	53738.70
607.50	53415.12
607.70	53724.36
607.90	53554.38
608.09	53783.76
608.29	53554.38
608.49	53765.32
608.68	53853.39
608.88	53943.50
609.08	54023.37
609.28	53941.45
609.47	53464.27
609.67	54342.85
609.87	53945.54
610.06	53963.98
610.26	53943.50
610.46	54097.09
610.66	54181.06
610.85	54275.27
611.05	54158.53
611.25	54203.59
611.44	54068.42
611.64	54473.92
611.84	54099.14
612.03	53761.23
612.23	54303.94
612.43	54301.89
612.62	53839.05
612.82	54555.84
613.02	54230.21
613.21	54437.06
613.41	54236.36
613.61	54809.79
613.80	54248.64
614.00	54181.06
614.20	54672.57
614.39	54559.94
614.59	54461.63
614.79	54512.83
614.98	54129.86
615.18	54834.36
615.38	54230.21
615.57	54623.42
615.77	54686.91
615.97	54774.97
616.16	54768.83
616.36	54262.98
616.56	54654.14
616.75	54942.91
616.95	54637.76
617.15	54426.82
617.34	54736.06
617.54	54658.24
617.74	54557.89
617.93	54482.11
618.13	54361.28
618.32	54639.81
618.52	54170.82
618.72	54475.97
618.91	54858.94
619.11	54181.06
619.31	54291.65
619.50	54600.89
619.70	54082.76
619.90	54478.02
620.09	54252.74
620.29	54686.91
620.48	54299.84
620.68	54725.82
620.88	53927.11
621.07	54361.28
621.27	54803.64
621.46	54359.23
621.66	54117.57
621.86	54416.58
622.05	54111.43
622.25	54729.92
622.44	54070.47
622.64	54340.80
622.84	54568.13
623.03	53920.97
623.23	54568.13
623.42	54662.33
623.62	54799.55
623.82	54486.21
624.01	54328.52
624.21	54842.56
624.40	54332.61
624.60	54432.96
624.80	54697.15
624.99	54478.02
625.19	53615.82
625.38	54607.04
625.58	54408.39
625.77	54490.30
625.97	54336.71
626.17	54228.16
626.36	54457.54
626.56	54381.76
626.75	53947.59
626.95	54527.17
627.14	54537.41
627.34	54729.92
627.54	54205.64
627.73	54615.23
627.93	54363.33
628.12	53898.44
628.32	54795.45
628.51	54402.24
628.71	54305.99
628.90	54457.54
629.10	54629.57
629.30	54568.13
629.49	54545.60
629.69	53972.17
629.88	54379.71
630.08	54574.27
630.27	54684.86
630.47	54490.30
630.66	54009.03
630.86	54734.01
631.05	53884.11
631.25	54881.47
631.44	54619.33
631.64	54400.19
631.84	54684.86
632.03	54865.08
632.23	54424.77
632.42	54719.68
632.62	54893.75
632.81	54131.91
633.01	54670.53
633.20	55022.78
633.40	54604.99
633.59	54453.44
633.79	54658.24
633.98	54484.16
634.18	54893.75
634.37	54619.33
634.57	55043.26
634.76	54834.36
634.96	54801.60
635.15	55088.31
635.35	54402.24
635.54	54428.87
635.74	54877.37
635.93	54619.33
636.13	54930.62
636.32	55024.82
636.52	54336.71
636.71	55006.39
636.91	54967.48
637.10	54543.55
637.30	54756.54
637.49	55194.81
637.69	54607.04
637.88	55043.26
638.08	54834.36
638.27	54852.80
638.46	54469.82
638.66	54211.78
638.85	54924.47
639.05	54838.46
639.24	55049.40
639.44	54881.47
639.63	55143.61
639.83	54932.67
640.02	55262.39
640.22	54590.66
640.41	55370.93
640.61	54621.37
640.80	55073.98
640.99	54496.45
641.19	55559.34
641.38	55045.30
641.58	54967.48
641.77	55137.46
641.97	54631.61
642.16	55131.32
642.36	54867.13
642.55	55260.34
642.74	54879.42
642.94	55043.26
643.13	54633.66
643.33	55162.04
643.52	55155.89
643.72	55272.63
643.91	55014.58
644.10	55168.18
644.30	55671.98
644.49	55256.24
644.69	55323.83
644.88	55221.43
645.08	54848.70
645.27	55366.84
645.46	55084.22
645.66	55352.50
645.85	54838.46
646.05	55407.79
646.24	55485.62
646.43	55641.26
646.63	55596.21
646.82	55600.30
647.02	55542.96
647.21	55180.47
647.40	55282.87
647.60	55401.65
647.79	55655.60
647.99	55991.47
648.18	55270.58
648.37	56169.64
648.57	55966.89
648.76	55293.11
648.96	55467.19
649.15	55315.64
649.34	56210.60
649.54	55481.52
649.73	55033.02
649.92	55729.33
650.12	55725.23
650.31	55637.17
650.51	55997.61
650.70	56073.38
650.89	56044.71
651.09	56329.38
651.28	56085.67
651.47	55981.23
651.67	55721.13
651.86	56321.19
652.06	55381.17
652.25	56132.78
652.44	55604.40
652.64	55751.85
652.83	55862.44
653.02	55538.86
653.22	55428.27
653.41	55483.57
653.60	55479.47
653.80	55762.09
653.99	56022.19
654.18	55823.53
654.38	55784.62
654.57	55686.32
654.76	55669.93
654.96	55686.32
655.15	55702.70
655.34	56011.95
655.54	55467.19
655.73	56122.54
655.92	56349.86
656.12	56040.62
656.31	55979.18
656.50	55960.75
656.70	55862.44
656.89	55708.85
657.08	55985.32
657.28	55956.65
657.47	55817.39
657.66	56075.43
657.86	55860.40
658.05	55725.23
658.24	56399.01
658.43	55764.14
658.63	56390.82
658.82	55874.73
659.01	56386.72
659.21	56108.20
659.40	56206.50
659.59	56087.72
659.79	56071.34
659.98	55895.21
660.17	56194.21
660.36	56208.55
660.56	56267.94
660.75	55964.84
660.94	56390.82
661.14	56253.61
661.33	56124.58
661.52	55616.69
661.71	56315.04
661.91	55794.86
662.10	56235.17
662.29	56493.22
662.49	56235.17
662.68	56102.06
662.87	56149.16
663.06	56427.68
663.26	56138.92
663.45	56644.77
663.64	56153.26
663.83	56661.15
664.03	56204.45
664.22	56231.08
664.41	56323.24
664.60	56104.10
664.80	56562.85
664.99	56208.55
665.18	56319.14
665.37	56505.51
665.57	56517.79
665.76	56290.47
665.95	56419.49
666.14	56290.47
666.34	56059.05
666.53	55995.56
666.72	55530.67
666.91	56165.54
667.11	56081.58
667.30	56603.81
667.49	56257.70
667.68	55807.15
667.87	56124.58
668.07	56009.90
668.26	56124.58
668.45	56120.49
668.64	55592.11
668.84	56470.69
669.03	56218.79
669.22	56145.06
669.41	56269.99
669.60	55907.50
669.80	55723.18
669.99	56558.75
670.18	55989.42
670.37	56388.77
670.57	56278.18
670.76	55942.31
670.95	56140.97
671.14	56366.24
671.33	55897.26
671.53	56353.96
671.72	56489.12
671.91	56171.69
672.10	56177.83
672.29	56104.10
672.48	56087.72
672.68	56495.27
672.87	55590.06
673.06	56020.14
673.25	55542.96
673.44	55604.40
673.64	55997.61
673.83	56173.73
674.02	55923.88
674.21	55573.68
674.40	56231.08
674.59	56155.30
674.79	55919.79
674.98	55776.43
675.17	55870.64
675.36	55448.75
675.55	56294.56
675.74	55680.17
675.94	55987.37
676.13	55905.45
676.32	56292.52
676.51	56186.02
676.70	55874.73
676.89	55932.07
677.08	55778.48
677.28	55977.13
677.47	56147.11
677.66	56036.52
677.85	55981.23
678.04	55856.30
678.23	56243.37
678.42	56216.74
678.62	55723.18
678.81	56034.47
679.00	55694.51
679.19	56976.54
679.38	56177.83
679.57	56177.83
679.76	55927.98
679.96	56439.97
680.15	55903.40
680.34	56302.76
680.53	55731.37
680.72	56132.78
680.91	55862.44
681.10	55600.30
681.29	55555.25
681.48	55497.91
681.68	55989.42
681.87	55516.34
682.06	55485.62
682.25	55153.85
682.44	55639.22
682.63	55837.87
682.82	55166.13
683.01	55565.49
683.20	55321.78
683.39	55200.95
683.59	55186.61
683.78	55260.34
683.97	55770.28
684.16	55606.45
684.35	55485.62
684.54	55493.81
684.73	55841.96
684.92	55264.44
685.11	55334.07
685.30	55344.31
685.49	55807.15
685.69	55207.09
685.88	55217.33
686.07	55295.16
686.26	55147.70
686.45	55338.16
686.64	55151.80
686.83	55211.19
687.02	55387.31
687.21	55590.06
687.40	55174.33
687.59	55067.83
687.78	55364.79
687.97	55444.66
688.16	55260.34
688.35	55092.41
688.54	55211.19
688.74	54848.70
688.93	55090.36
689.12	54910.14
689.31	54777.02
689.50	54973.63
689.69	54613.18
689.88	54711.49
690.07	54824.12
690.26	54748.35
690.45	55508.14
690.64	55196.85
690.83	54828.22
691.02	54815.93
691.21	54701.25
691.40	55084.22
691.59	54828.22
691.78	54686.91
691.97	54899.90
692.16	54351.04
692.35	54582.46
692.54	54951.10
692.73	54717.63
692.92	54475.97
693.11	54949.05
693.30	54252.74
693.49	55239.86
693.68	54346.95
693.87	54269.12
694.06	54523.07
694.25	54621.37
694.44	54211.78
694.63	54361.28
694.82	54555.84
695.01	54271.17
695.20	54455.49
695.39	54260.93
695.58	54203.59
695.77	54195.40
695.96	54363.33
696.15	54396.10
696.34	54099.14
696.53	54447.30
696.72	54252.74
696.91	54359.23
697.10	54052.04
697.29	54299.84
697.48	54287.56
697.67	54195.40
697.86	54203.59
698.05	53638.35
698.24	53998.79
698.43	53550.29
698.62	53445.84
698.81	53345.49
699.00	53916.87
699.19	53785.80
699.38	53724.36
699.57	53425.36
699.76	54379.71
699.95	53710.03
700.14	53243.09
700.32	53843.15
700.51	53658.83
700.70	53720.27
700.89	53480.66
701.08	53861.58
701.27	53540.05
701.46	53976.26
701.65	53370.07
701.84	54045.90
702.03	53320.91
702.22	53552.33
702.41	53427.41
702.60	53554.38
702.79	53224.66
702.98	53257.43
703.17	53052.63
703.35	53282.00
703.54	53032.15
703.73	53515.47
703.92	53355.73
704.11	53249.24
704.30	52796.63
704.49	53347.54
704.68	52724.96
704.87	53236.95
705.06	52806.87
705.25	52843.74
705.43	52810.97
705.62	53181.65
705.81	52913.37
706.00	52974.81
706.19	52372.70
706.38	53097.69
706.57	52819.16
706.76	52479.20
706.95	53044.44
707.14	52389.09
707.32	52419.81
707.51	52503.77
707.70	52255.97
707.89	52608.22
708.08	52487.39
708.27	52894.94
708.46	52606.17
708.65	52212.96
708.84	52219.11
709.02	52790.49
709.21	52288.74
709.40	52503.77
709.59	52339.94
709.78	51991.78
709.97	52448.48
710.16	52495.58
710.34	52139.24
710.53	52053.22
710.72	52098.28
710.91	52145.38
711.10	52141.28
711.29	52137.19
711.48	51995.88
711.66	52210.92
711.85	51932.39
712.04	52233.44
712.23	52022.50
712.42	51680.49
712.61	52155.62
712.80	51893.48
712.98	51809.51
713.17	51883.24
713.36	51655.92
713.55	51717.35
713.74	51717.35
713.93	51770.60
714.11	52008.17
714.30	51590.38
714.49	51508.46
714.68	51731.69
714.87	51729.64
715.06	51729.64
715.24	51598.57
715.43	51709.16
715.62	51356.91
715.81	51574.00
716.00	51688.68
716.18	51346.67
716.37	51090.68
716.56	51272.95
716.75	51246.32
716.94	51246.32
717.12	50844.92
717.31	51027.19
717.50	51346.67
717.69	50779.39
717.88	50939.13
718.06	50937.08
718.25	50973.94
718.44	50570.49
718.63	50701.56
718.82	50578.68
719.00	50664.70
719.19	50789.62
719.38	50656.51
719.57	49779.98
719.76	50302.21
719.94	49911.05
720.13	50015.49
720.32	50597.12
720.51	50339.07
720.69	50672.89
720.88	50468.09
721.07	49974.53
721.26	49419.53
721.44	50140.42
721.63	49429.77
721.82	49495.31
722.01	50009.35
722.20	49577.23
722.38	49624.33
722.57	49108.24
722.76	49616.14
722.95	49845.51
723.13	49224.98
723.32	49325.33
723.51	49014.04
723.70	49202.45
723.88	49569.04
724.07	49132.82
724.26	49476.88
724.44	48725.27
724.63	49292.56
724.82	49095.95
725.01	48930.07
725.19	48938.26
725.38	49411.34
725.57	49231.12
725.76	48852.25
725.94	48641.31
726.13	48911.64
726.32	48569.63
726.51	48454.94
726.69	48715.03
726.88	48868.63
727.07	49280.27
727.25	48936.21
727.44	48737.56
727.63	48678.17
727.82	48567.58
728.00	48610.59
728.19	48112.93
728.38	48655.64
728.56	48266.53
728.75	48733.46
728.94	48264.48
729.12	48354.59
729.31	48497.95
729.50	48346.40
729.69	48631.07
729.87	48213.28
730.06	48495.90
730.25	48418.08
730.43	48715.03
730.62	48336.16
730.81	48663.83
730.99	48577.82
731.18	47973.67
731.37	48430.36
731.55	48604.44
731.74	48336.16
731.93	48330.01
732.11	48293.15
732.30	48225.57
732.49	48448.80
732.67	48497.95
732.86	47738.15
733.05	48221.47
733.23	48080.16
733.42	48258.34
733.61	47725.86
733.79	48661.79
733.98	48567.58
734.17	48182.56
734.35	48411.93
734.54	48223.52
734.73	48254.24
734.91	48133.41
735.10	47936.80
735.29	48395.55
735.47	47756.58
735.66	48250.14
735.84	47486.25
736.03	48155.94
736.22	48117.03
736.40	47342.89
736.59	47654.18
736.78	47693.10
736.96	48100.64
737.15	47627.56
737.33	47938.85
737.52	47924.52
737.71	47662.38
737.89	47668.52
738.08	47775.02
738.27	47654.18
738.45	48137.51
738.64	47613.23
738.82	47564.07
739.01	47537.45
739.20	47713.58
739.38	47566.12
739.57	47904.04
739.75	47238.45
739.94	47428.91
740.13	47453.48
740.31	47555.88
740.50	47566.12
740.68	47582.51
740.87	47349.04
741.06	47650.09
741.24	46980.40
741.43	47359.28
741.61	47396.14
741.80	47080.75
741.99	47346.99
742.17	47217.97
742.36	47342.89
742.54	46910.77
742.73	47211.82
742.91	47373.61
743.10	46998.83
743.29	47306.03
743.47	47023.41
743.66	47197.49
743.84	47299.89
744.03	47103.28
744.21	46806.33
744.40	47525.16
744.59	46550.33
744.77	46859.57
744.96	46830.90
745.14	46931.25
745.33	46863.67
745.51	46495.03
745.70	46794.04
745.88	46501.18
746.07	46791.99
746.26	46214.46
746.44	46908.72
746.63	46404.92
746.81	46435.64
747.00	46032.19
747.18	46611.77
747.37	46200.13
747.55	46228.80
747.74	46662.97
747.92	46118.21
748.11	46026.05
748.29	46495.03
748.48	46286.14
748.66	45966.66
748.85	45747.53
749.03	46359.87
749.22	46056.77
749.41	45995.33
749.59	46445.88
749.78	45868.36
749.96	45671.75
750.15	46150.98
750.33	45815.11
750.52	45413.71
750.70	45806.92
750.89	45532.49
751.07	45415.76
751.26	45741.38
751.44	45528.39
751.63	45626.70
751.81	45600.07
752.00	45438.28
752.18	45614.41
752.37	45262.16
752.55	44832.08
752.74	45487.43
752.92	45292.88
753.10	45049.17
753.29	45286.73
753.47	45028.69
753.66	44770.64
753.84	45401.42
754.03	45339.98
754.21	44928.34
754.40	44969.30
754.58	44954.96
754.77	44918.10
754.95	44889.43
755.14	44848.47
755.32	44266.84
755.51	44692.82
755.69	44871.00
755.88	44639.57
756.06	44653.91
756.24	44569.94
756.43	44346.72
756.61	44678.49
756.80	44287.32
756.98	44285.28
757.17	44596.57
757.35	44508.50
757.54	44375.39
757.72	44674.39
757.90	44154.21
758.09	44578.14
758.27	44410.20
758.46	43877.73
758.64	44150.11
758.83	44336.48
759.01	44158.30
759.19	44270.94
759.38	44266.84
759.56	44346.72
759.75	43924.83
759.93	44535.13
760.12	43734.37
760.30	43801.96
760.48	43799.91
760.67	43756.90
760.85	44092.77
761.04	43711.84
761.22	43767.14
761.40	43887.97
761.59	43804.00
761.77	43251.05
761.96	43855.20
762.14	43263.34
762.32	43488.62
762.51	43638.12
762.69	43232.62
762.88	43480.42
763.06	43347.31
763.24	43390.31
763.43	43283.82
763.61	43091.31
763.80	42890.61
763.98	43206.00
764.16	43103.60
764.35	42775.92
764.53	42364.28
764.72	42952.05
764.90	43187.56
765.08	42761.59
765.27	42788.21
765.45	42984.82
765.63	41909.63
765.82	43083.12
766.00	42636.66
766.18	42657.14
766.37	42777.97
766.55	42640.76
766.74	42780.02
766.92	42507.64
767.10	42579.32
767.29	42677.62
767.47	42114.43
767.65	42206.59
767.84	42071.42
768.02	42167.68
768.20	42128.77
768.39	41944.45
768.57	42169.72
768.75	42122.62
768.94	42302.84
769.12	42257.79
769.30	42022.27
769.49	41604.49
769.67	42032.51
769.85	41295.24
770.04	41379.21
770.22	42026.37
770.40	40936.85
770.59	41186.70
770.77	41883.01
770.95	41371.02
771.14	41358.73
771.32	41205.13
771.50	41074.06
771.69	41256.33
771.87	41592.20
772.05	41090.44
772.24	40744.34
772.42	41205.13
772.60	41033.10
772.78	40807.83
772.97	40781.20
773.15	41106.83
773.33	40846.74
773.52	40168.86
773.70	40734.10
773.88	41358.73
774.07	40420.76
774.25	40887.70
774.43	41061.77
774.61	40711.57
774.80	41178.51
774.98	40883.60
775.16	41012.62
775.34	40687.00
775.53	40730.00
775.71	40965.52
775.89	41143.69
776.08	40920.46
776.26	41276.81
776.44	41065.87
776.62	41112.97
776.81	40965.52
776.99	41239.95
777.17	41084.30
777.35	41000.33
777.54	41317.77
777.72	40693.14
777.90	41033.10
778.08	40973.71
778.27	41065.87
778.45	41395.59
778.63	41432.46
778.81	40969.61
779.00	41674.12
779.18	41166.22
779.36	41645.44
779.54	41080.21
779.73	41026.96
779.91	41532.81
780.09	41717.12
780.27	41780.61
780.46	41397.64
780.64	41702.79
780.82	41360.78
781.00	41713.03
781.19	41424.26
781.37	41799.04
781.55	41590.15
781.73	41260.43
781.91	41592.20
782.10	41792.90
782.28	41850.24
782.46	41436.55
782.64	41829.76
782.82	41254.28
783.01	42112.38
783.19	41661.83
783.37	41584.01
783.55	41577.86
783.74	42296.70
783.92	41690.50
784.10	42296.70
784.28	41887.10
784.46	41667.97
784.64	41520.52
784.83	41747.84
785.01	42112.38
785.19	42005.89
785.37	41801.09
785.55	41821.57
785.74	41223.56
785.92	41500.04
786.10	41876.86
786.28	41796.99
786.46	41627.01
786.64	41280.91
786.83	41530.76
787.01	41414.02
787.19	41305.48
787.37	41528.71
787.55	40967.57
787.74	41330.06
787.92	41274.76
788.10	41149.84
788.28	40940.94
788.46	41213.32
788.64	40889.74
788.82	41063.82
789.01	41192.84
789.19	40934.80
789.37	40795.54
789.55	41076.11
789.73	40650.13
789.91	40533.40
790.09	40609.17
790.28	40674.71
790.46	40050.08
790.64	40592.79
790.82	40463.77
791.00	40387.99
791.18	40070.56
791.36	40052.12
791.55	40285.59
791.73	39865.76
791.91	39617.96
792.09	39968.16
792.27	39703.97
792.45	39572.90
792.63	39726.50
792.81	39118.25
793.00	39531.94
793.18	39361.96
793.36	39439.78
793.54	39423.40
793.72	39015.85
793.90	38784.43
794.08	38827.44
794.26	39185.83
794.44	38749.62
794.62	38878.64
794.81	39146.92
794.99	38868.40
795.17	38563.25
795.35	38438.33
795.53	38901.17
795.71	38679.99
795.89	38335.93
796.07	37860.80
796.25	37897.66
796.43	37635.52
796.61	37946.81
796.80	37651.91
796.98	37828.03
797.16	37486.02
797.34	37811.65
797.52	37641.67
797.70	37301.70
797.88	37410.25
798.06	37369.29
798.24	37307.85
798.42	37203.40
798.60	36902.35
798.78	36742.61
798.96	36953.55
799.14	36509.14
799.32	37080.52
799.51	36613.59
799.69	36912.59
799.87	36709.84
800.05	36355.54
800.23	36359.64
800.41	36199.90
800.59	36654.54
800.77	36115.93
800.95	35890.65
801.13	36259.29
801.31	35603.94
801.49	35915.23
801.67	35702.24
801.85	35763.68
802.03	35583.46
802.21	35751.39
802.39	35147.24
802.57	35409.38
802.75	35575.27
802.93	35337.70
803.11	35190.25
803.29	35063.27
803.47	35100.14
803.65	34928.11
803.83	34940.39
804.01	35149.29
804.19	34772.46
804.37	34821.61
804.55	34444.79
804.73	34751.98
804.91	34418.16
805.09	34414.07
805.27	34340.34
805.45	34332.15
805.63	34280.95
805.81	34117.11
805.99	34047.48
806.17	34252.28
806.35	34106.87
806.53	34004.47
806.71	34039.29
806.89	33730.05
807.07	33904.12
807.25	33943.03
807.43	33269.25
807.61	33576.45
807.79	33492.48
807.97	33224.20
808.15	33039.88
808.33	33265.16
808.51	33054.22
808.69	32906.76
808.87	33035.78
809.05	32955.91
809.23	33027.59
809.41	32611.85
809.59	32630.29
809.77	32925.19
809.95	32798.22
810.13	33043.98
810.31	32402.96
810.49	32433.68
810.67	32284.18
810.84	32413.20
811.02	32269.84
811.20	32472.59
811.38	32030.23
811.56	31911.45
811.74	31976.98
811.92	31831.58
812.10	31843.87
812.28	31872.54
812.46	31983.13
812.64	32151.06
812.82	31669.79
813.00	31673.88
813.18	31546.91
813.36	31602.21
813.53	31395.36
813.71	31108.65
813.89	31333.92
814.07	31417.89
814.25	31204.90
814.43	31317.54
814.61	31284.77
814.79	31233.57
814.97	30907.94
815.15	31213.09
815.33	30701.10
815.50	30354.99
815.68	30516.78
815.86	30981.67
816.04	30914.09
816.22	30481.97
816.40	30559.79
816.58	30594.61
816.76	30228.02
816.94	30193.20
817.11	30191.16
817.29	30168.63
817.47	30285.36
817.65	29736.51
817.83	30090.80
818.01	29949.50
818.19	29779.51
818.37	30162.48
818.54	29472.32
818.72	29734.46
818.90	29771.32
819.08	29607.48
819.26	29767.23
819.44	29888.06
819.62	29339.20
819.80	29689.40
819.97	29441.60
820.15	29324.86
820.33	29075.01
820.51	29318.72
820.69	29058.63
820.87	29617.72
821.05	29589.05
821.22	29376.06
821.40	28956.23
821.58	29062.72
821.76	29079.11
821.94	29019.72
822.12	29107.78
822.29	29118.02
822.47	29052.48
822.65	29210.18
822.83	28989.00
823.01	28884.55
823.19	28651.08
823.36	28687.95
823.54	28384.85
823.72	28644.94
823.90	28524.11
824.08	28233.30
824.25	28356.18
824.43	28040.79
824.61	27919.96
824.79	28558.92
824.97	28286.54
825.15	28100.18
825.32	28153.43
825.50	28032.60
825.68	27760.22
825.86	27778.65
826.04	27903.57
826.21	27580.00
826.39	27586.14
826.57	27670.11
826.75	27756.12
826.93	27491.93
827.10	27557.47
827.28	27749.98
827.46	28057.17
827.64	27782.74
827.81	27541.08
827.99	27780.70
828.17	27338.33
828.35	27078.24
828.53	27180.64
828.70	27229.79
828.88	27391.58
829.06	27143.78
829.24	27362.91
829.41	27190.88
829.59	27453.02
829.77	27131.49
829.95	26992.23
830.12	26906.21
830.30	27246.18
830.48	26953.32
830.66	27201.12
830.84	26912.36
831.01	27074.15
831.19	26703.46
831.37	26814.05
831.55	26846.82
831.72	26715.75
831.90	26582.63
832.08	26746.47
832.25	26781.29
832.43	26504.81
832.61	26574.44
832.79	26404.46
832.96	26451.56
833.14	26271.34
833.32	26603.11
833.50	26418.80
833.67	26160.75
833.85	26285.68
834.03	26078.83
834.20	26326.64
834.38	26381.93
834.56	26091.12
834.74	25925.24
834.91	26091.12
835.09	26089.07
835.27	25792.12
835.44	25910.90
835.62	25665.14
835.80	25685.62
835.98	25605.75
836.15	25775.73
836.33	25859.70
836.51	25935.48
836.68	25781.88
836.86	25669.24
837.04	25710.20
837.21	25667.19
837.39	25740.92
837.57	25718.39
837.75	25648.76
837.92	25343.61
838.10	25296.51
838.28	25165.44
838.45	25208.45
838.63	25034.37
838.81	24944.26
838.98	24977.03
839.16	25046.66
839.34	25104.00
839.51	25036.42
839.69	24905.35
839.87	24831.62
840.04	24829.57
840.22	24993.41
840.40	24831.62
840.57	24764.04
840.75	24870.53
840.93	24389.26
841.10	25163.39
841.28	25179.78
841.46	24927.88
841.63	25040.51
841.81	24737.41
841.98	24675.98
842.16	24852.10
842.34	24395.40
842.51	24147.60
842.69	24657.54
842.87	24417.93
843.04	24536.71
843.22	24473.23
843.40	24706.70
843.57	24071.82
843.75	24340.11
843.92	24336.01
844.10	24518.28
844.28	24194.70
844.45	24487.56
844.63	24485.51
844.81	24348.30
844.98	24358.54
845.16	24282.77
845.33	24258.19
845.51	23860.88
845.69	24129.17
845.86	24028.82
846.04	24182.42
846.21	23895.70
846.39	24008.34
846.57	23688.85
846.74	24188.56
846.92	23969.43
847.09	23770.77
847.27	23789.20
847.45	23785.11
847.62	23502.49
847.80	23688.85
847.97	23647.90
848.15	23494.30
848.32	23295.64
848.50	23580.31
848.68	23312.03
848.85	23434.91
849.03	23277.21
849.20	23381.66
849.38	23191.20
849.56	23498.39
849.73	23205.53
849.91	23324.32
850.08	23197.34
850.26	23008.93
850.43	23082.66
850.61	23320.22
850.78	22838.95
850.96	23017.12
851.14	22976.16
851.31	23326.36
851.49	22996.64
851.66	22875.81
851.84	22992.55
852.01	23064.22
852.19	22871.72
852.36	22812.32
852.54	22785.70
852.71	22728.36
852.89	22754.98
853.07	22810.28
853.24	22701.73
853.42	22697.64
853.59	22830.76
853.77	22525.61
853.94	22757.03
854.12	22705.83
854.29	22488.74
854.47	22398.63
854.64	22562.47
854.82	22345.39
854.99	22570.66
855.17	22331.05
855.34	22132.40
855.52	22165.17
855.69	22390.44
855.87	22095.53
856.04	22009.52
856.22	22011.57
856.39	22179.50
856.57	22275.76
856.74	22130.35
856.92	22412.97
857.09	21956.27
857.27	21968.56
857.44	22214.32
857.62	21989.04
857.79	21790.39
857.97	21843.63
858.14	21917.36
858.32	21970.61
858.49	21853.87
858.67	21716.66
858.84	21960.37
859.02	21728.95
859.19	21802.68
859.37	21409.47
859.54	21857.97
859.72	21696.18
859.89	21771.96
860.06	21493.43
860.24	21638.84
860.41	21696.18
860.59	21454.52
860.76	21532.34
860.94	21089.98
861.11	21401.27
861.29	21307.07
861.46	21157.57
861.64	21147.33
861.81	21249.72
861.98	21202.62
862.16	21051.07
862.33	20946.62
862.51	21104.32
862.68	21278.40
862.86	21184.19
863.03	21085.89
863.21	20960.96
863.38	20926.14
863.55	20844.23
863.73	20887.23
863.90	20655.81
864.08	20795.07
864.25	20930.24
864.43	20637.38
864.60	20698.82
864.77	20577.99
864.95	20612.81
865.12	20555.46
865.30	20760.26
865.47	20360.91
865.64	20483.78
865.82	20739.78
865.99	20729.54
866.17	20559.56
866.34	20498.12
866.51	19986.13
866.69	20285.13
866.86	20575.94
867.04	20227.79
867.21	20301.51
867.38	20221.64
867.56	20420.30
867.73	20227.79
867.91	19990.22
868.08	20160.20
868.25	19766.99
868.43	19941.07
868.60	19963.60
868.78	20041.42
868.95	20135.63
869.12	19912.40
869.30	19906.26
869.47	19963.60
869.64	19687.12
869.82	19640.02
869.99	19351.26
870.16	19771.09
870.34	19560.15
870.51	19508.95
870.69	19513.05
870.86	19623.64
871.03	19748.56
871.21	19388.12
871.38	19556.05
871.55	19685.08
871.73	19386.07
871.90	19566.29
872.07	19441.37
872.25	19334.87
872.42	19189.47
872.59	19146.46
872.77	19341.02
872.94	19046.11
873.11	19123.93
873.29	19021.53
873.46	19087.07
873.63	19062.49
873.81	18929.38
873.98	18669.28
874.15	18898.66
874.33	18888.42
874.50	18380.52
874.67	18736.87
874.85	18691.81
875.02	18630.37
875.19	18454.25
875.37	18728.67
875.54	18474.73
875.71	18532.07
875.88	18378.47
876.06	18183.91
876.23	18405.10
876.40	18239.21
876.58	18292.46
876.75	18323.18
876.92	18149.10
877.10	18378.47
877.27	18171.63
877.44	18030.32
877.61	18056.94
877.79	18052.84
877.96	18073.32
878.13	17905.39
878.31	17714.93
878.48	17762.03
878.65	17594.10
878.82	17547.00
879.00	17753.84
879.17	17628.92
879.34	17684.21
879.51	17608.44
879.69	17424.12
879.86	17467.13
880.03	17503.99
880.21	17463.03
880.38	17514.23
880.55	17489.65
880.72	17497.84
880.90	17538.80
881.07	17401.59
881.24	17370.87
881.41	17569.52
881.59	17485.56
881.76	17309.43
881.93	17233.66
882.10	17051.39
882.28	17080.06
882.45	17366.78
882.62	17194.75
882.79	17241.85
882.96	16793.34
883.14	17211.13
883.31	16989.95
883.48	16926.46
883.65	17088.25
883.83	17219.32
884.00	16934.65
884.17	16793.34
884.34	17184.51
884.51	17018.62
884.69	16953.09
884.86	16660.23
885.03	16883.45
885.20	16707.33
885.38	16781.06
885.55	16834.30
885.72	16723.71
885.89	16678.66
886.06	16865.02
886.24	16500.48
886.41	16504.58
886.58	16770.82
886.75	16611.07
886.92	16416.52
887.10	16520.96
887.27	16408.33
887.44	16742.14
887.61	16600.83
887.78	16752.38
887.95	16318.22
888.13	16555.78
888.30	16277.26
888.47	16129.80
888.64	16285.45
888.81	16107.27
888.99	16408.33
889.16	16123.66
889.33	16041.74
889.50	15826.70
889.67	16117.51
889.84	15892.24
890.01	16191.24
890.19	16295.69
890.36	15900.43
890.53	16107.27
890.70	15867.66
890.87	15986.44
891.04	15798.03
891.22	16023.31
891.39	15703.82
891.56	15847.18
891.73	15673.10
891.90	15669.01
892.07	15615.76
892.24	15736.59
892.42	15509.27
892.59	15650.58
892.76	15501.08
892.93	15566.61
893.10	15789.84
893.27	15439.64
893.44	15580.95
893.61	15558.42
893.79	15804.17
893.96	15347.48
894.13	15183.64
894.30	15560.47
894.47	15337.24
894.64	15587.09
894.81	15429.40
894.98	15288.09
895.15	15456.02
895.33	15238.94
895.50	15519.51
895.67	15681.30
895.84	15589.14
896.01	15370.01
896.18	15206.17
896.35	15640.34
896.52	15148.82
896.69	15269.66
896.86	15357.72
897.04	15363.86
897.21	15218.46
897.38	15494.93
897.55	15165.21
897.72	15157.02
897.89	15187.74
898.06	15552.27
898.23	15210.26
898.40	15445.78
898.57	15298.33
898.74	15304.47
898.91	15410.96
899.08	15443.73
899.26	15277.85
899.43	15208.22
899.60	15089.43
899.77	15367.96
899.94	15279.89
900.11	15320.85
900.28	15306.52
900.45	15169.30
900.62	15165.21
900.79	15472.40
900.96	15302.42
901.13	15128.35
901.30	15097.63
901.47	15140.63
901.64	15327.00
901.81	15494.93
901.98	15251.22
902.15	15195.93
902.32	15157.02
902.49	15263.51
902.66	15355.67
902.83	15226.65
903.01	15310.61
903.18	14941.98
903.35	15177.50
903.52	15361.81
903.69	15118.11
903.86	15349.53
904.03	15060.76
904.20	15283.99
904.37	15269.66
904.54	15187.74
904.71	15058.71
904.88	15265.56
905.05	15064.86
905.22	15335.19
905.39	14931.74
905.56	14976.80
905.73	14925.60
905.90	15044.38
906.07	14913.31
906.24	15200.02
906.41	15042.33
906.58	14960.41
906.75	14935.84
906.92	14917.40
907.09	15298.33
907.26	15023.90
907.43	14876.44
907.60	14956.32
907.77	15044.38
907.93	15075.10
908.10	14987.04
908.27	15079.19
908.44	14960.41
908.61	15052.57
908.78	14909.21
908.95	15052.57
909.12	14870.30
909.29	14962.46
909.46	15054.62
909.63	14962.46
909.80	15056.67
909.97	14970.65
910.14	14800.67
910.31	14870.30
910.48	14698.27
910.65	14815.01
910.82	14845.73
910.99	14669.60
911.16	14792.48
911.33	14581.54
911.50	14673.70
911.66	14604.07
911.83	14937.88
912.00	14518.05
912.17	14524.19
912.34	14634.78
912.51	14751.52
912.68	14698.27
912.85	14800.67
913.02	14501.67
913.19	14511.91
913.36	14575.39
913.53	14458.66
913.70	14354.21
913.86	14454.56
914.03	14366.50
914.20	14479.14
914.37	14346.02
914.54	14374.69
914.71	14280.49
914.88	14196.52
915.05	14274.34
915.22	14096.17
915.39	14241.57
915.55	14307.11
915.72	14012.20
915.89	14110.50
916.06	14010.15
916.23	13973.29
916.40	13754.16
916.57	13948.72
916.74	13821.74
916.91	13817.65
917.07	13442.87
917.24	13700.91
917.41	13758.25
917.58	13674.29
917.75	13815.60
917.92	13864.75
918.09	13655.86
918.26	13737.77
918.42	13535.03
918.59	13504.31
918.76	13426.48
918.93	13410.10
919.10	13147.96
919.27	13381.43
919.44	13342.52
919.60	13414.20
919.77	13311.80
919.94	13242.17
920.11	13184.82
920.28	13242.17
920.45	13039.42
920.61	13072.18
920.78	13004.60
920.95	12762.94
921.12	13008.70
921.29	12967.74
921.46	12803.90
921.62	12685.12
921.79	12963.64
921.96	13029.18
922.13	12799.80
922.30	12711.74
922.47	12586.82
922.63	12595.01
922.80	12603.20
922.97	12455.75
923.14	12054.34
923.31	12394.31
923.47	12228.42
923.64	12609.34
923.81	12377.92
923.98	12320.58
924.15	12080.97
924.32	12201.80
924.48	12089.16
924.65	11941.71
924.82	12171.08
924.99	11927.37
925.15	11951.95
925.32	11972.43
925.49	11855.69
925.66	11736.91
925.83	11751.24
925.99	11636.56
926.16	11585.36
926.33	11935.56
926.50	11437.91
926.67	11622.22
926.83	11558.74
927.00	11560.78
927.17	11491.15
927.34	11470.67
927.50	11315.03
927.67	11568.98
927.84	11390.80
928.01	11181.91
928.17	11167.57
928.34	11274.07
928.51	11040.60
928.68	10815.32
928.84	10987.35
929.01	11089.75
929.18	10624.86
929.35	10864.47
929.51	10772.32
929.68	10428.26
929.85	10610.53
930.02	10624.86
930.18	10475.36
930.35	10633.05
930.52	10504.03
930.69	10647.39
930.85	10612.57
931.02	10254.18
931.19	10436.45
931.36	10305.38
931.52	10209.12
931.69	10407.78
931.86	9883.50
932.02	10164.07
932.19	10061.67
932.36	10004.33
932.53	9981.80
932.69	9903.98
932.86	10135.40
933.03	9942.89
933.19	9670.51
933.36	9908.07
933.53	9783.15
933.70	9598.83
933.86	9588.59
934.03	9688.94
934.20	9508.72
934.36	9516.91
934.53	9471.86
934.70	9195.38
934.86	9168.76
935.03	9226.10
935.20	9107.32
935.36	9121.65
935.53	8855.42
935.70	9070.45
935.86	8968.06
936.03	8748.92
936.20	8593.28
936.36	8556.41
936.53	8648.57
936.70	8494.97
936.86	8537.98
937.03	8314.75
937.20	8134.53
937.36	8296.32
937.53	8054.66
937.70	7759.75
937.86	7946.12
938.03	7837.58
938.20	7909.26
938.36	7761.80
938.53	7888.78
938.70	7479.18
938.86	7632.78
939.03	7339.92
939.20	7485.33
939.36	7262.10
939.53	7135.12
939.70	7376.78
939.86	7030.68
940.03	6883.22
940.19	6975.38
940.36	6690.71
940.53	6891.41
940.69	6725.53
940.86	6676.38
941.03	6588.32
941.19	6483.87
941.36	6494.11
941.52	6473.63
941.69	6406.05
941.86	6236.06
942.02	6143.91
942.19	6047.65
942.35	6061.99
942.52	6135.71
942.69	5955.49
942.85	5955.49
943.02	5910.44
943.18	5867.43
943.35	5859.24
943.52	5777.32
943.68	5740.46
943.85	5687.21
944.01	5658.54
944.18	5588.91
944.35	5593.00
944.51	5728.17
944.68	5453.74
944.84	5447.60
945.01	5480.36
945.17	5439.40
945.34	5537.71
945.51	5509.04
945.67	5377.97
945.84	5447.60
946.00	5433.26
946.17	5349.29
946.33	5312.43
946.50	5480.36
946.67	5418.93
946.83	5275.57
947.00	5410.73
947.16	5461.93
947.33	5214.13
947.49	5197.74
947.66	5210.03
947.82	5291.95
947.99	5304.24
948.16	5318.57
948.32	5197.74
948.49	5320.62
948.65	5294.00
948.82	5345.20
948.98	5222.32
949.15	5279.66
949.31	5275.57
949.48	5398.45
949.64	5304.24
949.81	5267.38
949.97	5306.29
950.14	5300.14
950.30	5218.22
950.47	5343.15
950.63	5343.15
950.80	5310.38
950.96	5324.72
951.13	5181.36
951.30	5330.86
951.46	5339.05
951.63	5476.27
951.79	5445.55
951.96	5339.05
952.12	5398.45
952.29	5513.13
952.45	5234.61
952.62	5386.16
952.78	5572.52
952.94	5246.90
953.11	5398.45
953.27	5322.67
953.44	5515.18
953.60	5527.47
953.77	5664.68
953.93	5425.07
954.10	5406.64
954.26	5371.82
954.43	5455.79
954.59	5420.97
954.76	5590.95
954.92	5478.32
955.09	5586.86
955.25	5316.53
955.42	5525.42
955.58	5533.61
955.75	5425.07
955.91	5341.10
956.07	5416.88
956.24	5480.36
956.40	5466.03
956.57	5517.23
956.73	5377.97
956.90	5574.57
957.06	5367.73
957.23	5441.45
957.39	5396.40
957.56	5447.60
957.72	5287.86
957.88	5380.01
958.05	5478.32
958.21	5482.41
958.38	5466.03
958.54	5425.07
958.71	5558.19
958.87	5404.59
959.03	5554.09
959.20	5345.20
959.36	5390.25
959.53	5441.45
959.69	5476.27
959.85	5484.46
960.02	5355.44
960.18	5418.93
960.35	5547.95
960.51	5582.76
960.68	5339.05
960.84	5420.97
961.00	5511.08
961.17	5486.51
961.33	5414.83
961.50	5291.95
961.66	5382.06
961.82	5451.69
961.99	5361.58
962.15	5427.12
962.31	5255.09
962.48	5517.23
962.64	5494.70
962.81	5304.24
962.97	5420.97
963.13	5353.39
963.30	5418.93
963.46	5240.75
963.62	5392.30
963.79	5394.35
963.95	5304.24
964.12	5560.24
964.28	5337.01
964.44	5230.51
964.61	5394.35
964.77	5255.09
964.93	5418.93
965.10	5369.77
965.26	5406.64
965.42	5377.97
965.59	5394.35
965.75	5332.91
965.92	5263.28
966.08	5400.49
966.24	5287.86
966.41	5373.87
966.57	5312.43
966.73	5373.87
966.90	5320.62
967.06	5189.55
967.22	5226.42
967.39	5066.67
967.55	5216.18
967.71	5285.81
967.88	5253.04
968.04	5175.22
968.20	5167.03
968.37	5132.21
968.53	5242.80
968.69	5091.25
968.85	5337.01
969.02	5289.90
969.18	5273.52
969.34	5263.28
969.51	5109.68
969.67	5097.39
969.83	5275.57
970.00	5265.33
970.16	5183.41
970.32	5126.07
970.48	5291.95
970.65	5064.63
970.81	5101.49
970.97	5095.35
971.14	4958.13
971.30	5074.87
971.46	5103.54
971.63	5048.24
971.79	5021.62
971.95	5142.45
972.11	5021.62
972.28	5089.20
972.44	4966.32
972.60	4853.69
972.76	5025.72
972.93	4906.93
973.09	4898.74
973.25	4853.69
973.42	4835.25
973.58	4923.32
973.74	4962.23
973.90	4995.00
974.07	4796.34
974.23	4810.68
974.39	4927.41
974.55	4736.95
974.72	4734.90
974.88	4685.75
975.04	4947.89
975.20	4777.91
975.37	4822.97
975.53	4829.11
975.69	4851.64
975.85	4689.85
976.01	4605.88
976.18	4722.62
976.34	4816.82
976.50	4757.43
976.66	4810.68
976.83	4732.86
976.99	4689.85
977.15	4732.86
977.31	4499.39
977.47	4812.73
977.64	4736.95
977.80	4603.83
977.96	4667.32
978.12	4683.70
978.29	4573.11
978.45	4569.02
978.61	4562.87
978.77	4698.04
978.93	4544.44
979.10	4550.59
979.26	4544.44
979.42	4523.96
979.58	4466.62
979.74	4552.63
979.91	4452.28
980.07	4440.00
980.23	4513.72
980.39	4507.58
980.55	4386.75
980.71	4349.89
980.88	4421.56
981.04	4376.51
981.20	4310.97
981.36	4448.19
981.52	4442.04
981.68	4440.00
981.85	4540.35
982.01	4427.71
982.17	4302.78
982.33	4265.92
982.49	4564.92
982.65	4259.78
982.82	4333.50
982.98	4288.45
983.14	4310.97
983.30	4310.97
983.46	4331.45
983.62	4306.88
983.79	4255.68
983.95	4210.62
984.11	4173.76
984.27	4057.03
984.43	4298.69
984.59	4247.49
984.75	4227.01
984.91	4110.27
985.08	4335.55
985.24	4083.65
985.40	4077.51
985.56	3983.30
985.72	4227.01
985.88	4124.61
986.04	4075.46
986.20	3991.49
986.37	4020.16
986.53	4143.04
986.69	4007.87
986.85	4077.51
987.01	4057.03
987.17	4112.32
987.33	4069.31
987.49	3858.37
987.65	4048.83
987.82	3903.43
987.98	3930.05
988.14	3901.38
988.30	3983.30
988.46	3848.13
988.62	3964.87
988.78	3874.76
988.94	4052.93
989.10	3925.96
989.26	3897.28
989.42	3772.36
989.59	3811.27
989.75	3874.76
989.91	3860.42
990.07	3753.93
990.23	3860.42
990.39	3837.89
990.55	3862.47
990.71	3770.31
990.87	3858.37
991.03	3825.61
991.19	3848.13
991.35	3645.38
991.51	3794.89
991.67	3870.66
991.83	3702.73
992.00	3669.96
992.16	3819.46
992.32	3811.27
992.48	3715.02
992.64	3653.58
992.80	3676.10
992.96	3659.72
993.12	3698.63
993.28	3727.30
993.44	3696.58
993.60	3655.62
993.76	3633.10
993.92	3540.94
994.08	3688.39
994.24	3647.43
994.40	3493.83
994.56	3665.86
994.72	3530.70
994.88	3604.42
995.04	3573.71
995.20	3540.94
995.36	3409.87
995.52	3485.64
995.68	3497.93
995.84	3522.51
996.00	3712.97
996.16	3502.03
996.32	3397.58
996.48	3508.17
996.64	3516.36
996.80	3532.75
996.96	3481.55
997.12	3448.78
997.28	3485.64
997.44	3497.93
997.60	3459.02
997.76	3426.25
997.92	3442.64
998.08	3438.54
998.24	3338.19
998.40	3356.62
998.56	3395.53
998.72	3274.70
998.88	3282.89
999.04	3237.84
999.20	3375.05
999.36	3373.00
999.52	3459.02
999.68	3235.79
999.84	3370.96
1000.00	3266.51
1000.16	3342.28
1000.32	3325.90
1000.48	3442.64
1000.64	3180.50
1000.80	3266.51
1000.95	3178.45
1001.11	3237.84
1001.27	3168.21
1001.43	3231.69
1001.59	3192.78
1001.75	3123.15
1001.91	3180.50
1002.07	3086.29
1002.23	3168.21
1002.39	3188.69
1002.55	3114.96
1002.71	3051.47
1002.87	3186.64
1003.03	3035.09
1003.19	3098.58
1003.34	3121.10
1003.50	3065.81
1003.66	3270.61
1003.82	3155.92
1003.98	3121.10
1004.14	3106.77
1004.30	3016.66
1004.46	2992.08
1004.62	2928.60
1004.78	3035.09
1004.94	3018.71
1005.09	3049.43
1005.25	3014.61
1005.41	2936.79
1005.57	2951.12
1005.73	2959.31
1005.89	2940.88
1006.05	3024.85
1006.21	2963.41
1006.37	2879.44
1006.52	2879.44
1006.68	2834.39
1006.84	3012.56
1007.00	2930.64
1007.16	2928.60
1007.32	2881.49
1007.48	2953.17
1007.64	2924.50
1007.79	2885.59
1007.95	2830.29
1008.11	2887.64
1008.27	2887.64
1008.43	2985.94
1008.59	2824.15
1008.75	2832.34
1008.91	2813.91
1009.06	2846.68
1009.22	2803.67
1009.38	2873.30
1009.54	2795.48
1009.70	2877.40
1009.86	2781.14
1010.01	2746.33
1010.17	2736.09
1010.33	2672.60
1010.49	2746.33
1010.65	2742.23
1010.81	2688.98
1010.96	2727.89
1011.12	2840.53
1011.28	2637.78
1011.44	2721.75
1011.60	2781.14
1011.76	2682.84
1011.91	2844.63
1012.07	2662.36
1012.23	2641.88
1012.39	2674.65
1012.55	2691.03
1012.71	2768.85
1012.86	2637.78
1013.02	2691.03
1013.18	2617.30
1013.34	2670.55
1013.50	2648.02
1013.65	2615.26
1013.81	2631.64
1013.97	2467.80
1014.13	2574.30
1014.29	2533.34
1014.44	2645.98
1014.60	2605.02
1014.76	2584.54
1014.92	2631.64
1015.07	2641.88
1015.23	2609.11
1015.39	2523.10
1015.55	2535.39
1015.71	2564.06
1015.86	2631.64
1016.02	2447.32
1016.18	2416.60
1016.34	2469.85
1016.49	2383.84
1016.65	2602.97
1016.81	2486.23
1016.97	2537.43
1017.12	2564.06
1017.28	2435.03
1017.44	2396.12
1017.60	2471.90
1017.75	2437.08
1017.91	2459.61
1018.07	2531.29
1018.23	2519.00
1018.38	2414.56
1018.54	2428.89
1018.70	2494.43
1018.86	2346.97
1019.01	2369.50
1019.17	2465.75
1019.33	2514.91
1019.49	2418.65
1019.64	2510.81
1019.80	2449.37
1019.96	2457.56
1020.12	2482.14
1020.27	2346.97
1020.43	2375.64
1020.59	2387.93
1020.74	2435.03
1020.90	2471.90
1021.06	2308.06
1021.22	2410.46
1021.37	2295.77
1021.53	2324.44
1021.69	2459.61
1021.84	2295.77
1022.00	2373.60
1022.16	2281.44
1022.31	2336.73
1022.47	2367.45
1022.63	2361.31
1022.79	2238.43
1022.94	2207.71
1023.10	2299.87
1023.26	2238.43
1023.41	2306.01
1023.57	2250.72
1023.73	2201.57
1023.88	2265.05
1024.04	2213.85
1024.20	2189.28
1024.35	2314.20
1024.51	2263.01
1024.67	2191.33
1024.82	2295.77
1024.98	2203.61
1025.14	2248.67
1025.29	2162.66
1025.45	2297.82
1025.61	2166.75
1025.76	2226.14
1025.92	2144.22
1026.08	2168.80
1026.23	2277.34
1026.39	2293.72
1026.55	2168.80
1026.70	2138.08
1026.86	2236.38
1027.02	2172.89
1027.17	2240.48
1027.33	2332.64
1027.48	2129.89
1027.64	2144.22
1027.80	2125.79
1027.95	2265.05
1028.11	2111.46
1028.27	2166.75
1028.42	2109.41
1028.58	2103.26
1028.73	2103.26
1028.89	2099.17
1029.05	2187.23
1029.20	2162.66
>>>>>End Processed Spectral Data<<<<<
