SpectraSuite Data File
++++++++++++++++++++++++++++++++++++
Date: Fri Jun 02 14:57:20 CEST 2017
User: INFO_000
Dark Spectrum Present: No
Reference Spectrum Present: No
Number of Sampled Component Spectra: 1
Spectrometers: USB4H00879
Integration Time (usec): 80000 (USB4H00879)
Spectra Averaged: 1 (USB4H00879)
Boxcar Smoothing: 0 (USB4H00879)
Correct for Electrical Dark: No (USB4H00879)
Strobe/Lamp Enabled: No (USB4H00879)
Correct for Detector Non-linearity: No (USB4H00879)
Correct for Stray Light: No (USB4H00879)
Number of Pixels in Processed Spectrum: 3648
>>>>>Begin Processed Spectral Data<<<<<
345.13	1251.31
345.34	1251.31
345.56	1251.31
345.78	1239.02
345.99	1296.36
346.21	1701.86
346.42	1669.09
346.64	1632.23
346.86	1742.82
347.07	1677.29
347.29	1710.05
347.50	1628.14
347.72	1585.13
347.94	1732.58
348.15	1634.28
348.37	1591.27
348.59	1699.81
348.80	1671.14
349.02	1773.54
349.23	1857.51
349.45	1929.19
349.67	1910.75
349.88	1779.68
350.10	1945.57
350.31	1796.07
350.53	1847.27
350.75	1992.67
350.96	1773.54
351.18	1966.05
351.39	1812.45
351.61	1892.32
351.82	1920.99
352.04	1980.39
352.26	1851.36
352.47	1918.95
352.69	1953.76
352.90	1777.64
353.12	1822.69
353.34	1820.64
353.55	1978.34
353.77	1904.61
353.98	1845.22
354.20	1767.40
354.41	1875.94
354.63	1937.38
354.85	2041.82
355.06	1867.75
355.28	1783.78
355.49	1931.23
355.71	1880.04
355.92	1873.89
356.14	1927.14
356.35	1824.74
356.57	1898.47
356.79	1959.91
357.00	1886.18
357.22	2054.11
357.43	1861.60
357.65	1968.10
357.86	1841.12
358.08	1820.64
358.29	1974.24
358.51	1992.67
358.72	1978.34
358.94	1941.47
359.16	1923.04
359.37	1925.09
359.59	1955.81
359.80	1978.34
360.02	1904.61
360.23	1957.86
360.45	2045.92
360.66	1927.14
360.88	1900.52
361.09	1929.19
361.31	2013.15
361.52	2019.30
361.74	2027.49
361.95	2068.45
362.17	1929.19
362.38	2078.69
362.60	2011.11
362.81	1953.76
363.03	2047.97
363.24	2031.58
363.46	2000.87
363.67	2025.44
363.89	1945.57
364.10	1966.05
364.32	2011.11
364.53	2004.96
364.75	1888.23
364.96	2029.54
365.18	2000.87
365.39	2023.39
365.61	1978.34
365.82	2088.93
366.04	2064.35
366.25	2004.96
366.47	2047.97
366.68	1990.63
366.90	1931.23
367.11	2009.06
367.33	2082.78
367.54	2099.17
367.76	2027.49
367.97	2131.94
368.19	1994.72
368.40	2158.56
368.62	1974.24
368.83	1953.76
369.05	2056.16
369.26	1964.00
369.48	2054.11
369.69	2027.49
369.91	2056.16
370.12	2060.26
370.33	2064.35
370.55	2070.50
370.76	2027.49
370.98	2093.02
371.19	2070.50
371.41	2062.30
371.62	2072.54
371.84	1988.58
372.05	2195.42
372.27	2043.87
372.48	2076.64
372.69	2101.22
372.91	2101.22
373.12	2166.75
373.34	2066.40
373.55	2170.85
373.77	2174.94
373.98	2070.50
374.20	2211.81
374.41	2217.95
374.62	2205.66
374.84	2199.52
375.05	2176.99
375.27	2172.89
375.48	2064.35
375.70	2179.04
375.91	2207.71
376.12	2344.92
376.34	2174.94
376.55	2232.29
376.77	2254.81
376.98	2072.54
377.19	2203.61
377.41	2121.70
377.62	2258.91
377.84	2207.71
378.05	2260.96
378.27	2093.02
378.48	2326.49
378.69	2359.26
378.91	2287.58
379.12	2215.90
379.34	2275.29
379.55	2332.64
379.76	2324.44
379.98	2191.33
380.19	2240.48
380.41	2269.15
380.62	2306.01
380.83	2334.68
381.05	2203.61
381.26	2396.12
381.47	2209.76
381.69	2281.44
381.90	2437.08
382.12	2273.25
382.33	2277.34
382.54	2220.00
382.76	2359.26
382.97	2332.64
383.19	2140.13
383.40	2363.36
383.61	2263.01
383.83	2295.77
384.04	2267.10
384.25	2457.56
384.47	2424.80
384.68	2377.69
384.89	2389.98
385.11	2375.64
385.32	2338.78
385.54	2361.31
385.75	2265.05
385.96	2428.89
386.18	2478.04
386.39	2420.70
386.60	2349.02
386.82	2353.12
387.03	2416.60
387.24	2500.57
387.46	2383.84
387.67	2439.13
387.88	2469.85
388.10	2459.61
388.31	2471.90
388.52	2594.78
388.74	2492.38
388.95	2498.52
389.16	2596.82
389.38	2455.51
389.59	2557.91
389.80	2619.35
390.02	2451.42
390.23	2584.54
390.44	2531.29
390.66	2590.68
390.87	2490.33
391.08	2525.15
391.30	2600.92
391.51	2680.79
391.72	2723.80
391.94	2586.58
392.15	2539.48
392.36	2656.22
392.58	2609.11
392.79	2648.02
393.00	2727.89
393.22	2738.13
393.43	2686.94
393.64	2801.62
393.85	2740.18
394.07	2654.17
394.28	2682.84
394.49	2703.32
394.71	2748.37
394.92	2895.83
395.13	2725.85
395.35	2715.61
395.56	2762.71
395.77	2777.05
395.98	2852.82
396.20	2836.44
396.41	2805.72
396.62	2840.53
396.84	2803.67
397.05	2809.81
397.26	2869.20
397.47	2998.23
397.69	2813.91
397.90	3053.52
398.11	2932.69
398.32	2807.77
398.54	2824.15
398.75	2895.83
398.96	2936.79
399.18	3219.41
399.39	2967.51
399.60	3006.42
399.81	2906.07
400.03	2877.40
400.24	3233.74
400.45	2940.88
400.66	3022.80
400.88	3035.09
401.09	3299.28
401.30	3063.76
401.51	3076.05
401.73	3055.57
401.94	3108.82
402.15	3086.29
402.36	3231.69
402.58	3170.26
402.79	3157.97
403.00	3137.49
403.21	3139.54
403.43	3252.17
403.64	3213.26
403.85	3203.02
404.06	3188.69
404.27	3059.67
404.49	3170.26
404.70	3112.91
404.91	3258.32
405.12	3153.87
405.34	3317.71
405.55	3352.52
405.76	3164.11
405.97	3117.01
406.19	3317.71
406.40	3313.61
406.61	3258.32
406.82	3348.43
407.03	3420.11
407.25	3243.98
407.46	3383.24
407.67	3387.34
407.88	3495.88
408.09	3342.28
408.31	3362.76
408.52	3448.78
408.73	3399.63
408.94	3381.20
409.15	3418.06
409.37	3524.55
409.58	3559.37
409.79	3432.40
410.00	3661.77
410.21	3432.40
410.43	3459.02
410.64	3483.59
410.85	3502.03
411.06	3581.90
411.27	3549.13
411.48	3657.67
411.70	3596.23
411.91	3608.52
412.12	3747.78
412.33	3571.66
412.54	3567.56
412.76	3731.40
412.97	3663.82
413.18	3596.23
413.39	3710.92
413.60	3669.96
413.81	3653.58
414.03	3688.39
414.24	3629.00
414.45	3809.22
414.66	3532.75
414.87	3829.70
415.08	3790.79
415.30	3596.23
415.51	3852.23
415.72	3743.69
415.93	3762.12
416.14	3958.72
416.35	3852.23
416.56	3887.04
416.78	3807.17
416.99	3819.46
417.20	3889.09
417.41	3975.11
417.62	3827.65
417.83	3981.25
418.04	3983.30
418.26	3880.90
418.47	3928.00
418.68	4097.99
418.89	4067.27
419.10	4124.61
419.31	4034.50
419.52	3999.68
419.73	4059.07
419.95	4138.94
420.16	4003.78
420.37	3968.96
420.58	4046.79
420.79	4083.65
421.00	4040.64
421.21	4208.58
421.42	4114.37
421.63	4122.56
421.85	4134.85
422.06	4237.25
422.27	4251.58
422.48	4177.86
422.69	4339.65
422.90	4247.49
423.11	4251.58
423.32	4329.41
423.53	4294.59
423.75	4390.84
423.96	4501.44
424.17	4456.38
424.38	4464.57
424.59	4325.31
424.80	4501.44
425.01	4509.63
425.22	4452.28
425.43	4442.04
425.64	4659.13
425.85	4689.85
426.06	4603.83
426.28	4429.76
426.49	4421.56
426.70	4456.38
426.91	4683.70
427.12	4712.38
427.33	4706.23
427.54	4673.46
427.75	4679.61
427.96	4923.32
428.17	4759.48
428.38	4798.39
428.59	4974.52
428.80	4739.00
429.01	4911.03
429.23	4886.45
429.44	5031.86
429.65	4997.04
429.86	5001.14
430.07	4884.41
430.28	4777.91
430.49	4958.13
430.70	5128.11
430.91	5101.49
431.12	4945.84
431.33	5183.41
431.54	5197.74
431.75	5248.94
431.96	5095.35
432.17	5044.15
432.38	5134.26
432.59	5418.93
432.80	5431.21
433.01	5294.00
433.22	5384.11
433.43	5253.04
433.64	5558.19
433.85	5279.66
434.06	5492.65
434.27	5189.55
434.49	5337.01
434.70	5441.45
434.91	5420.97
435.12	5488.56
435.33	5304.24
435.54	5525.42
435.75	5308.34
435.96	5410.73
436.17	5433.26
436.38	5492.65
436.59	5595.05
436.80	5533.61
437.01	5719.98
437.22	5734.31
437.43	5646.25
437.64	5504.94
437.85	5810.09
438.06	5812.14
438.27	5656.49
438.48	5681.07
438.69	5726.12
438.90	5883.81
439.11	5762.98
439.32	5937.06
439.53	5865.38
439.74	5869.48
439.95	5935.01
440.16	5801.90
440.37	5941.16
440.57	5832.62
440.78	5939.11
440.99	5943.21
441.20	6037.41
441.41	5857.19
441.62	6047.65
441.83	5818.28
442.04	5990.31
442.25	5941.16
442.46	6082.47
442.67	6234.02
442.88	6563.74
443.09	5984.16
443.30	6021.03
443.51	6131.62
443.72	6444.96
443.93	6166.43
444.14	6412.19
444.35	5916.58
444.56	6365.09
444.77	6240.16
444.98	6256.54
445.19	6383.52
445.40	6307.74
445.61	6291.36
445.81	6492.06
446.02	6395.81
446.23	6449.05
446.44	6217.63
446.65	6416.29
446.86	6481.82
447.07	6610.84
447.28	6578.08
447.49	6762.39
447.70	6545.31
447.91	6664.09
448.12	6588.32
448.33	6680.47
448.54	6758.30
448.74	6682.52
448.95	6909.85
449.16	6668.19
449.37	7022.48
449.58	6893.46
449.79	7042.96
450.00	6760.34
450.21	6852.50
450.42	6866.84
450.63	6956.95
450.84	6920.09
451.05	7016.34
451.25	6956.95
451.46	6881.18
451.67	7098.26
451.88	7143.32
452.09	7069.59
452.30	7079.83
452.51	7114.64
452.72	7378.83
452.93	7387.02
453.13	7094.16
453.34	7178.13
453.55	7298.96
453.76	7253.91
453.97	7620.49
454.18	7378.83
454.39	7399.31
454.60	7329.68
454.81	7477.13
455.01	7653.26
455.22	7321.49
455.43	7489.42
455.64	7747.47
455.85	7980.93
456.06	7845.77
456.27	7710.60
456.48	7827.34
456.68	7815.05
456.89	7743.37
457.10	7976.84
457.31	7913.35
457.52	7890.82
457.73	8005.51
457.94	8079.24
458.14	7747.47
458.35	8288.13
458.56	8249.22
458.77	8048.52
458.98	8236.93
459.19	8222.59
459.39	8374.14
459.60	8322.94
459.81	8392.58
460.02	8433.54
460.23	8507.26
460.44	8765.31
460.65	8654.72
460.85	8605.56
461.06	8718.20
461.27	8372.10
461.48	8730.49
461.69	8990.58
461.89	8527.74
462.10	8884.09
462.31	8632.19
462.52	8720.25
462.73	8808.31
462.94	9021.30
463.14	9017.21
463.35	9064.31
463.56	9449.33
463.77	9336.69
463.98	9285.49
464.18	9361.27
464.39	9443.18
464.60	9455.47
464.81	9713.52
465.02	9629.55
465.23	9779.05
465.43	9641.84
465.64	9727.85
465.85	9705.32
466.06	9707.37
466.27	10020.71
466.47	9908.07
466.68	9887.59
466.89	9942.89
467.10	9908.07
467.30	9877.35
467.51	10024.81
467.72	10213.22
467.93	10024.81
468.14	10344.29
468.34	10372.96
468.55	10430.30
468.76	10489.70
468.97	10461.02
469.17	10663.77
469.38	10901.34
469.59	10792.80
469.80	10686.30
470.01	10790.75
470.21	10964.82
470.42	11069.27
470.63	11370.32
470.84	11007.83
471.04	11132.76
471.25	11190.10
471.46	11159.38
471.67	11534.16
471.87	11513.68
472.08	11538.26
472.29	11800.40
472.50	11534.16
472.70	11546.45
472.91	11702.09
473.12	11980.62
473.33	11974.47
473.53	12212.04
473.74	11915.08
473.95	12228.42
474.16	12326.72
474.36	12375.88
474.57	12388.16
474.78	12590.91
474.99	12375.88
475.19	12498.75
475.40	12824.38
475.61	12783.42
475.81	12949.31
476.02	13432.63
476.23	13029.18
476.44	13129.53
476.64	13403.96
476.85	13662.00
477.06	13295.41
477.27	13651.76
477.47	13967.15
477.68	13707.05
477.89	13963.05
478.09	14053.16
478.30	14063.40
478.51	14229.29
478.71	14223.14
478.92	14184.23
479.13	14405.41
479.34	14745.38
479.54	14706.46
479.75	14794.53
479.96	14798.62
480.16	14720.80
480.37	14948.12
480.58	15050.52
480.78	15519.51
480.99	15273.75
481.20	15322.90
481.41	15494.93
481.61	15685.39
481.82	15695.63
482.03	15798.03
482.23	15519.51
482.44	16230.15
482.65	15978.25
482.85	16086.79
483.06	16031.50
483.27	16111.37
483.47	16414.47
483.68	16398.09
483.89	16604.93
484.09	16582.40
484.30	16619.27
484.51	16819.97
484.71	16871.17
484.92	16856.83
485.13	17245.94
485.33	17164.03
485.54	17131.26
485.75	17391.35
485.95	17598.20
486.16	17395.45
486.37	17624.82
486.57	17676.02
486.78	17749.75
486.98	17774.32
487.19	18265.83
487.40	18036.46
487.60	18212.59
487.81	18409.19
488.02	18253.55
488.22	18280.17
488.43	18478.82
488.64	18536.17
488.84	18792.16
489.05	18839.26
489.25	18833.12
489.46	19078.88
489.67	18740.96
489.87	19027.68
490.08	19197.66
490.29	19341.02
490.49	19523.29
490.70	19285.72
490.90	19752.66
491.11	19511.00
491.32	19869.39
491.52	19879.63
491.73	20074.19
491.94	19959.50
492.14	19961.55
492.35	20309.71
492.55	20289.23
492.76	20577.99
492.97	20727.49
493.17	20244.17
493.38	20436.68
493.58	20811.46
493.79	20905.66
494.00	20831.94
494.20	21257.92
494.41	21094.08
494.61	21130.94
494.82	21358.27
495.02	21352.12
495.23	21284.54
495.44	21436.09
495.64	21827.25
495.85	21425.85
496.05	21726.90
496.26	21847.73
496.47	22058.67
496.67	21880.50
496.88	22406.83
497.08	21956.27
497.29	22386.35
497.49	21970.61
497.70	22423.21
497.91	22298.28
498.11	22357.67
498.32	22441.64
498.52	22591.14
498.73	23144.09
498.93	22752.93
499.14	23010.98
499.34	23123.62
499.55	23060.13
499.76	23006.88
499.96	23305.88
500.17	22941.35
500.37	23504.54
500.58	23178.91
500.78	23471.77
500.99	23285.40
501.19	23852.69
501.40	23758.49
501.60	23643.80
501.81	23871.12
502.02	23910.04
502.22	23692.95
502.43	23934.61
502.63	24288.91
502.84	23973.52
503.04	24188.56
503.25	24260.24
503.45	24286.86
503.66	24442.51
503.86	24424.08
504.07	24809.09
504.27	24301.20
504.48	24659.59
504.68	24710.79
504.89	24581.77
505.09	24841.86
505.30	25104.00
505.50	24972.93
505.71	25114.24
505.91	25230.98
506.12	24886.92
506.32	25077.38
506.53	24884.87
506.73	25259.65
506.94	25087.62
507.14	25106.05
507.35	25636.47
507.55	25620.09
507.76	25597.56
507.96	25525.88
508.17	25945.72
508.37	25652.86
508.58	25675.38
508.78	25937.52
508.99	26252.91
509.19	26203.76
509.40	25978.48
509.60	25771.64
509.81	26322.54
510.01	26062.45
510.22	26435.18
510.42	26201.71
510.63	26658.41
510.83	26105.46
511.04	26426.99
511.24	26625.64
511.44	26635.88
511.65	26535.53
511.85	26416.75
512.06	26783.34
512.26	26900.07
512.47	27002.47
512.67	26674.79
512.88	26375.79
513.08	26715.75
513.29	27151.97
513.49	26812.01
513.69	27135.59
513.90	26938.98
514.10	27334.24
514.31	27172.45
514.51	27623.00
514.72	27205.22
514.92	27397.73
515.13	27459.16
515.33	27385.44
515.53	27440.73
515.74	27524.70
515.94	27778.65
516.15	27328.10
516.35	27545.18
516.56	27926.10
516.76	28044.88
516.96	27725.40
517.17	27983.44
517.37	27815.51
517.58	27651.67
517.78	28094.04
517.99	28018.26
518.19	28532.30
518.39	28483.15
518.60	28343.89
518.80	28270.16
519.01	28767.82
519.21	28567.12
519.41	28761.67
519.62	28597.84
519.82	28679.75
520.03	29292.10
520.23	28544.59
520.43	28786.25
520.64	29275.71
520.84	29392.45
521.05	29331.01
521.25	29263.43
521.45	29251.14
521.66	29273.67
521.86	29208.13
522.07	29324.86
522.27	29685.31
522.47	29414.98
522.68	29619.77
522.88	29718.07
523.08	29972.02
523.29	29812.28
523.49	30078.52
523.70	30096.95
523.90	30111.28
524.10	29910.58
524.31	30426.67
524.51	30246.45
524.71	30686.76
524.92	30307.89
525.12	30907.94
525.33	30283.31
525.53	30608.94
525.73	31479.33
525.94	30742.06
526.14	30899.75
526.34	31170.08
526.55	31182.37
526.75	31049.25
526.95	31673.88
527.16	31307.30
527.36	31409.70
527.56	31608.35
527.77	31710.75
527.97	31598.11
528.17	31745.56
528.38	32128.53
528.58	31946.26
528.78	31751.71
528.99	31938.07
529.19	32544.27
529.39	32034.33
529.60	32661.01
529.80	32488.98
530.00	32386.58
530.21	32568.85
530.41	33168.90
530.61	32466.45
530.82	32648.72
531.02	32865.80
531.22	33453.57
531.43	32904.71
531.63	33273.35
531.83	33480.19
532.04	33775.10
532.24	33134.09
532.44	34022.90
532.64	33889.79
532.85	33969.66
533.05	33682.94
533.25	33895.93
533.46	33918.46
533.66	34360.82
533.86	34190.84
534.07	34563.57
534.27	34354.68
534.47	34735.60
534.67	34688.49
534.88	34831.85
535.08	34797.04
535.28	35093.99
535.49	34805.23
535.69	35143.14
535.89	35198.44
536.09	35218.92
536.30	35487.20
536.50	35302.89
536.70	35421.67
536.91	35546.59
537.11	35681.76
537.31	35501.54
537.51	36005.34
537.72	36230.62
537.92	36339.16
538.12	36650.45
538.32	35786.21
538.53	36672.98
538.73	36333.01
538.93	36449.75
539.13	36541.91
539.34	36312.53
539.54	36521.43
539.74	36910.54
539.94	36589.01
540.15	36292.05
540.35	37004.75
540.55	37049.80
540.75	36931.02
540.96	37031.37
541.16	37336.52
541.36	37426.63
541.56	37221.83
541.77	37838.27
541.97	37553.60
542.17	37666.24
542.37	37522.88
542.58	37895.61
542.78	37531.08
542.98	37494.21
543.18	38110.65
543.38	38503.86
543.59	38151.61
543.79	38161.85
543.99	37991.87
544.19	38585.78
544.40	37985.72
544.60	38645.17
544.80	38596.02
545.00	38725.04
545.20	38806.96
545.41	38911.41
545.61	38571.44
545.81	38919.60
546.01	39011.76
546.21	39554.47
546.42	39083.44
546.62	39132.59
546.82	39237.03
547.02	39318.95
547.22	39429.54
547.43	39040.43
547.63	39249.32
547.83	39722.40
548.03	39525.80
548.23	39931.29
548.44	39703.97
548.64	39894.43
548.84	39681.44
549.04	40207.77
549.24	40439.19
549.45	40625.56
549.65	40377.75
549.85	39945.63
550.05	40086.94
550.25	39949.73
550.45	40869.26
550.66	40353.18
550.86	40039.84
551.06	40678.80
551.26	40480.15
551.46	40306.07
551.66	40211.87
551.87	40822.16
552.07	40611.22
552.27	40850.83
552.47	40633.75
552.67	40930.70
552.87	40924.56
553.07	41047.44
553.28	40996.24
553.48	41360.78
553.68	40945.04
553.88	41543.05
554.08	41502.09
554.28	41424.26
554.48	41123.21
554.69	41155.98
554.89	41235.85
555.09	41506.18
555.29	41352.58
555.49	41377.16
555.69	41651.59
555.89	41602.44
556.10	41620.87
556.30	41620.87
556.50	41799.04
556.70	41799.04
556.90	41870.72
557.10	42077.57
557.30	42139.00
557.50	42153.34
557.70	42268.03
557.91	42558.84
558.11	41975.17
558.31	42329.47
558.51	42126.72
558.71	42407.29
558.91	42706.29
559.11	42274.17
559.31	42313.08
559.51	42372.47
559.72	42521.98
559.92	42638.71
560.12	42495.35
560.32	42923.38
560.52	42358.14
560.72	42550.65
560.92	42728.82
561.12	42880.37
561.32	43119.98
561.52	42751.35
561.72	43017.58
561.93	42802.55
562.13	42745.20
562.33	42694.00
562.53	43240.81
562.73	42814.83
562.93	42661.24
563.13	43212.14
563.33	43335.02
563.53	43369.83
563.73	43251.05
563.93	43183.47
564.13	43713.89
564.33	43705.70
564.53	43523.43
564.74	43781.48
564.94	43275.63
565.14	43519.34
565.34	43707.75
565.54	43664.74
565.74	43808.10
565.94	44055.90
566.14	43887.97
566.34	43535.72
566.54	44066.14
566.74	43781.48
566.94	44021.09
567.14	43826.53
567.34	43810.15
567.54	44111.20
567.74	44109.15
567.94	43984.22
568.14	44213.60
568.34	44707.16
568.54	44264.80
568.74	44631.38
568.94	44336.48
569.14	44621.14
569.34	44524.89
569.54	44584.28
569.75	44385.63
569.95	44619.10
570.15	44916.05
570.35	44838.23
570.55	44862.80
570.75	44539.22
570.95	44606.81
571.15	44582.23
571.35	44678.49
571.55	44866.90
571.75	44485.98
571.95	45075.79
572.15	44961.11
572.35	45139.28
572.55	45213.01
572.75	45333.84
572.95	45008.21
573.15	45352.27
573.35	44909.91
573.55	45311.31
573.75	45237.58
573.95	45667.66
574.15	45368.65
574.35	45512.01
574.55	45348.17
574.75	45366.60
574.95	45692.23
575.15	45425.99
575.34	45749.57
575.54	46093.63
575.74	46105.92
575.94	45690.18
576.14	45905.22
576.34	46370.11
576.54	46280.00
576.74	46404.92
576.94	46314.81
577.14	46533.95
577.34	46591.29
577.54	46191.94
577.74	46280.00
577.94	46538.04
578.14	46331.20
578.34	46732.60
578.54	46472.51
578.74	46501.18
578.94	46914.87
579.14	46474.55
579.34	46693.69
579.54	46810.42
579.74	46986.55
579.94	46972.21
580.13	47138.10
580.33	46841.14
580.53	47396.14
580.73	46734.65
580.93	47158.58
581.13	47058.23
581.33	47637.80
581.53	47459.63
581.73	47494.44
581.93	47447.34
582.13	47922.47
582.33	47785.25
582.53	47172.91
582.73	47625.51
582.92	47609.13
583.12	48309.53
583.32	47621.42
583.52	47666.47
583.72	48031.01
583.92	47885.61
584.12	48129.31
584.32	48248.10
584.52	48301.34
584.72	48319.77
584.92	48452.89
585.11	48686.36
585.31	48229.66
585.51	48530.72
585.71	48321.82
585.91	48684.31
586.11	48381.21
586.31	48543.00
586.51	48287.01
586.71	49044.76
586.91	49394.96
587.10	49186.07
587.30	48971.03
587.50	49190.16
587.70	48966.93
587.90	49032.47
588.10	49354.00
588.30	49157.39
588.50	49208.59
588.69	49075.48
588.89	49214.74
589.09	49671.43
589.29	49407.25
589.49	49446.16
589.69	49440.01
589.89	49732.87
590.08	49399.05
590.28	49448.21
590.48	49642.76
590.68	49960.20
590.88	49634.57
591.08	49808.65
591.28	49900.81
591.47	50181.38
591.67	50132.23
591.87	49794.31
592.07	49865.99
592.27	49825.03
592.47	50199.81
592.67	49925.38
592.86	49751.30
593.06	50115.84
593.26	50302.21
593.46	50459.90
593.66	50429.18
593.86	50384.13
594.05	49847.56
594.25	50603.26
594.45	50257.15
594.65	50496.77
594.85	50193.67
595.05	50515.20
595.24	50771.19
595.44	50566.40
595.64	50941.17
595.84	50851.06
596.04	50713.85
596.23	50912.50
596.43	50988.28
596.63	50875.64
596.83	50994.42
597.03	51297.52
597.22	51539.18
597.42	51610.86
597.62	51330.29
597.82	51281.14
598.02	51348.72
598.21	51674.35
598.41	50799.86
598.61	51639.53
598.81	51580.14
599.01	51844.33
599.20	51559.66
599.40	51610.86
599.60	51885.29
599.80	51879.14
600.00	51969.26
600.19	52057.32
600.39	51537.13
600.59	51901.67
600.79	52034.79
600.98	51854.57
601.18	52622.56
601.38	52313.31
601.58	52681.95
601.78	52487.39
601.97	51836.14
602.17	52888.79
602.37	52632.80
602.57	52577.50
602.76	52813.02
602.96	52389.09
603.16	52753.63
603.36	52532.45
603.55	53200.08
603.75	53064.92
603.95	53083.35
604.15	52546.78
604.34	52524.25
604.54	53023.96
604.74	53335.25
604.94	53167.32
605.13	52888.79
605.33	53230.80
605.53	52839.64
605.73	53722.32
605.92	53802.19
606.12	53480.66
606.32	53779.66
606.52	53562.57
606.71	53609.68
606.91	53777.61
607.11	53386.45
607.30	53318.87
607.50	53531.86
607.70	54021.32
607.90	53572.81
608.09	53775.56
608.29	53818.57
608.49	54017.22
608.68	53859.53
608.88	54025.42
609.08	53837.00
609.28	53863.63
609.47	53697.74
609.67	54547.65
609.87	54138.05
610.06	54402.24
610.26	54490.30
610.46	54133.96
610.66	54060.23
610.85	54084.81
611.05	53847.24
611.25	54303.94
611.44	54093.00
611.64	54639.81
611.84	54244.55
612.03	54473.92
612.23	54795.45
612.43	54373.57
612.62	54785.21
612.82	54553.79
613.02	54127.81
613.21	54549.70
613.41	54162.63
613.61	54916.28
613.80	54080.71
614.00	54893.75
614.20	54424.77
614.39	54740.16
614.59	54680.77
614.79	54564.03
614.98	54623.42
615.18	54760.64
615.38	54727.87
615.57	54136.01
615.77	55024.82
615.97	54359.23
616.16	54697.15
616.36	54756.54
616.56	54920.38
616.75	54731.96
616.95	54127.81
617.15	54858.94
617.34	54498.50
617.54	55022.78
617.74	55456.95
617.93	54953.15
618.13	54404.29
618.32	54652.09
618.52	54189.25
618.72	54836.41
618.91	55078.07
619.11	54592.70
619.31	54842.56
619.50	54650.05
619.70	54621.37
619.90	54318.28
620.09	54426.82
620.29	54514.88
620.48	54410.43
620.68	54486.21
620.88	54449.35
621.07	55170.23
621.27	55047.35
621.46	54529.22
621.66	54369.47
621.86	54424.77
622.05	54465.73
622.25	54848.70
622.44	54379.71
622.64	54344.90
622.84	54238.40
623.03	54183.11
623.23	55090.36
623.42	54844.60
623.62	54748.35
623.82	54654.14
624.01	54455.49
624.21	54746.30
624.40	53966.02
624.60	54371.52
624.80	54537.41
624.99	54406.34
625.19	54273.22
625.38	54889.66
625.58	54469.82
625.77	54410.43
625.97	54795.45
626.17	54125.77
626.36	54553.79
626.56	54903.99
626.75	54045.90
626.95	54701.25
627.14	54473.92
627.34	54912.19
627.54	54136.01
627.73	54508.74
627.93	54572.22
628.12	53990.60
628.32	54711.49
628.51	54572.22
628.71	54639.81
628.90	54475.97
629.10	54697.15
629.30	54357.19
629.49	54453.44
629.69	54639.81
629.88	54475.97
630.08	55145.65
630.27	54779.07
630.47	54682.81
630.66	54281.41
630.86	54836.41
631.05	54813.88
631.25	54674.62
631.44	54492.35
631.64	54576.32
631.84	54893.75
632.03	55104.70
632.23	54172.87
632.42	55057.59
632.62	54717.63
632.81	54158.53
633.01	54721.72
633.20	54502.59
633.40	54869.18
633.59	54586.56
633.79	54590.66
633.98	54987.96
634.18	54918.33
634.37	55098.55
634.57	54760.64
634.76	55002.30
634.96	54711.49
635.15	55010.49
635.35	54807.74
635.54	54265.03
635.74	54881.47
635.93	54805.69
636.13	55053.50
636.32	54555.84
636.52	54060.23
636.71	54822.08
636.91	54863.03
637.10	54940.86
637.30	54893.75
637.49	54817.98
637.69	54688.96
637.88	55538.86
638.08	54564.03
638.27	55178.42
638.46	54699.20
638.66	54688.96
638.85	55026.87
639.05	54840.51
639.24	55033.02
639.44	54854.84
639.63	54912.19
639.83	55096.50
640.02	55090.36
640.22	54799.55
640.41	54983.86
640.61	54510.78
640.80	54650.05
640.99	54742.20
641.19	55712.94
641.38	55018.68
641.58	55012.54
641.77	54838.46
641.97	54762.68
642.16	54916.28
642.36	55131.32
642.55	55561.39
642.74	54830.27
642.94	55268.53
643.13	54955.19
643.33	55399.60
643.52	55289.01
643.72	55391.41
643.91	55153.85
644.10	55704.75
644.30	55727.28
644.49	55047.35
644.69	55616.69
644.88	55020.73
645.08	55086.26
645.27	55284.92
645.46	55121.08
645.66	55434.42
645.85	55203.00
646.05	55766.19
646.24	55442.61
646.43	55616.69
646.63	55678.13
646.82	55549.10
647.02	55600.30
647.21	55481.52
647.40	55293.11
647.60	55413.94
647.79	55801.00
647.99	55571.63
648.18	55743.66
648.37	56048.81
648.57	55831.72
648.76	55710.89
648.96	55327.92
649.15	56163.50
649.34	55530.67
649.54	55606.45
649.73	55014.58
649.92	55360.69
650.12	55542.96
650.31	56108.20
650.51	55827.63
650.70	55874.73
650.89	55680.17
651.09	56652.96
651.28	55989.42
651.47	55866.54
651.67	55790.76
651.86	55909.55
652.06	55442.61
652.25	55952.55
652.44	55870.64
652.64	55649.45
652.83	55354.55
653.02	55536.82
653.22	55639.22
653.41	55510.19
653.60	55440.56
653.80	55780.52
653.99	55829.68
654.18	55950.51
654.38	55895.21
654.57	55801.00
654.76	55844.01
654.96	55964.84
655.15	55463.09
655.34	55741.61
655.54	55178.42
655.73	55755.95
655.92	55932.07
656.12	56337.57
656.31	55596.21
656.50	55942.31
656.70	55639.22
656.89	55661.74
657.08	56134.82
657.28	56136.87
657.47	55905.45
657.66	55893.16
657.86	55235.77
658.05	55901.36
658.24	56186.02
658.43	55547.06
658.63	56259.75
658.82	56007.85
659.01	56575.14
659.21	55676.08
659.40	55923.88
659.59	55985.32
659.79	56263.85
659.98	56192.17
660.17	56005.80
660.36	55807.15
660.56	56413.35
660.75	55882.92
660.94	56186.02
661.14	55762.09
661.33	55913.64
661.52	55760.05
661.71	56558.75
661.91	56263.85
662.10	56061.10
662.29	56448.16
662.49	56057.00
662.68	56439.97
662.87	55981.23
663.06	56390.82
663.26	56147.11
663.45	56382.63
663.64	56235.17
663.83	56454.31
664.03	56286.37
664.22	56364.20
664.41	56319.14
664.60	56259.75
664.80	56583.33
664.99	55665.84
665.18	55786.67
665.37	56042.66
665.57	56063.14
665.76	56050.86
665.95	56259.75
666.14	56100.01
666.34	55766.19
666.53	56224.93
666.72	55844.01
666.91	56229.03
667.11	55624.88
667.30	56022.19
667.49	56063.14
667.68	56222.89
667.87	56259.75
668.07	56362.15
668.26	55741.61
668.45	55997.61
668.64	55866.54
668.84	56485.03
669.03	56376.48
669.22	56218.79
669.41	56308.90
669.60	56333.48
669.80	56079.53
669.99	56622.24
670.18	55925.93
670.37	56081.58
670.57	56798.37
670.76	56276.13
670.95	56188.07
671.14	55995.56
671.33	56009.90
671.53	56421.54
671.72	55909.55
671.91	56308.90
672.10	55977.13
672.29	56243.37
672.48	56001.71
672.68	56218.79
672.87	55893.16
673.06	56040.62
673.25	55700.65
673.44	56003.75
673.64	56030.38
673.83	56038.57
674.02	55696.56
674.21	55874.73
674.40	55999.66
674.59	55907.50
674.79	55696.56
674.98	55882.92
675.17	56358.05
675.36	56145.06
675.55	56034.47
675.74	55614.64
675.94	55876.78
676.13	55831.72
676.32	55661.74
676.51	56048.81
676.70	56069.29
676.89	55897.26
677.08	56251.56
677.28	55903.40
677.47	55645.36
677.66	56444.07
677.85	55395.51
678.04	56044.71
678.23	55981.23
678.42	55745.71
678.62	56046.76
678.81	56321.19
679.00	55669.93
679.19	56317.09
679.38	56454.31
679.57	55774.38
679.76	56067.24
679.96	56046.76
680.15	56046.76
680.34	55657.65
680.53	55559.34
680.72	55612.59
680.91	56370.34
681.10	55792.81
681.29	55573.68
681.48	55751.85
681.68	55878.83
681.87	55901.36
682.06	55710.89
682.25	55127.22
682.44	55432.37
682.63	55792.81
682.82	55270.58
683.01	55348.40
683.20	54983.86
683.39	55671.98
683.59	55305.40
683.78	55532.72
683.97	55133.37
684.16	55862.44
684.35	55010.49
684.54	55055.54
684.73	55485.62
684.92	55547.06
685.11	55174.33
685.30	55346.36
685.49	55577.78
685.69	55227.57
685.88	55588.02
686.07	54846.65
686.26	55176.37
686.45	55477.43
686.64	54981.82
686.83	55692.46
687.02	55377.08
687.21	55276.72
687.40	55276.72
687.59	55153.85
687.78	54889.66
687.97	55452.85
688.16	55686.32
688.35	55094.46
688.54	55168.18
688.74	55096.50
688.93	54781.12
689.12	55237.81
689.31	55387.31
689.50	54830.27
689.69	54455.49
689.88	54826.17
690.07	54602.94
690.26	54903.99
690.45	55092.41
690.64	54701.25
690.83	54959.29
691.02	54611.13
691.21	54738.11
691.40	54613.18
691.59	54863.03
691.78	54873.27
691.97	55063.74
692.16	54781.12
692.35	55053.50
692.54	55076.02
692.73	54875.32
692.92	54643.90
693.11	55178.42
693.30	54441.15
693.49	54498.50
693.68	55006.39
693.87	54768.83
694.06	54234.31
694.25	54340.80
694.44	54293.70
694.63	54772.92
694.82	54629.57
695.01	54273.22
695.20	54328.52
695.39	54078.66
695.58	54445.25
695.77	54088.90
695.96	53966.02
696.15	54670.53
696.34	54109.38
696.53	54064.33
696.72	54457.54
696.91	53740.75
697.10	54332.61
697.29	54101.19
697.48	54004.94
697.67	54367.43
697.86	53738.70
698.05	54037.70
698.24	54547.65
698.43	53617.87
698.62	53628.11
698.81	53748.94
699.00	53863.63
699.19	53546.19
699.38	53820.62
699.57	53128.41
699.76	54181.06
699.95	53890.25
700.14	53669.07
700.32	54029.51
700.51	53581.01
700.70	54068.42
700.89	53769.42
701.08	53769.42
701.27	53632.21
701.46	53998.79
701.65	53314.77
701.84	53820.62
702.03	54019.27
702.22	53785.80
702.41	53566.67
702.60	53277.91
702.79	53540.05
702.98	53152.98
703.17	53433.55
703.35	53304.53
703.54	53492.94
703.73	53753.04
703.92	53664.97
704.11	53494.99
704.30	53320.91
704.49	52835.55
704.68	53195.99
704.87	52802.78
705.06	52851.93
705.25	52546.78
705.43	53273.81
705.62	53089.49
705.81	52937.94
706.00	52884.70
706.19	52583.65
706.38	52522.21
706.57	52833.50
706.76	52896.98
706.95	52905.18
707.14	52485.34
707.32	52696.28
707.51	52798.68
707.70	52481.25
707.89	53003.48
708.08	52733.15
708.27	52432.10
708.46	52770.01
708.65	52661.47
708.84	52696.28
709.02	53155.03
709.21	52503.77
709.40	52362.46
709.59	52741.34
709.78	52282.59
709.97	52735.20
710.16	52301.03
710.34	52516.06
710.53	52770.01
710.72	52063.46
710.91	52241.63
711.10	52274.40
711.29	52387.04
711.48	51983.59
711.66	52008.17
711.85	52116.71
712.04	52253.92
712.23	51893.48
712.42	51684.59
712.61	52202.72
712.80	51664.11
712.98	52253.92
713.17	51907.82
713.36	52157.67
713.55	52163.81
713.74	51725.55
713.93	51825.90
714.11	52174.05
714.30	51584.24
714.49	51639.53
714.68	52262.11
714.87	51680.49
715.06	52131.04
715.24	51860.71
715.43	51473.65
715.62	51496.17
715.81	51334.38
716.00	51664.11
716.18	51324.14
716.37	51289.33
716.56	51256.56
716.75	51979.49
716.94	51182.84
717.12	50783.48
717.31	51459.31
717.50	51135.73
717.69	51397.87
717.88	51690.73
718.06	51125.49
718.25	51520.75
718.44	50844.92
718.63	50967.80
718.82	50636.03
719.00	51035.38
719.19	51131.64
719.38	50578.68
719.57	50773.24
719.76	50849.02
719.94	50177.28
720.13	50758.91
720.32	50504.96
720.51	50789.62
720.69	50308.35
720.88	50183.43
721.07	50439.42
721.26	49603.85
721.44	49808.65
721.63	49851.66
721.82	49962.25
722.01	49964.29
722.20	49929.48
722.38	49855.75
722.57	50046.21
722.76	50021.64
722.95	50105.60
723.13	49546.51
723.32	49921.29
723.51	49448.21
723.70	49401.10
723.88	49620.23
724.07	49472.78
724.26	49691.91
724.44	48864.53
724.63	49354.00
724.82	49345.81
725.01	49466.64
725.19	48962.84
725.38	49280.27
725.57	49018.13
725.76	49593.61
725.94	49134.87
726.13	48778.52
726.32	48889.11
726.51	48629.02
726.69	49014.04
726.88	48977.17
727.07	49069.33
727.25	48799.00
727.44	49001.75
727.63	48667.93
727.82	49050.90
728.00	48645.40
728.19	48616.73
728.38	49065.24
728.56	48755.99
728.75	49388.81
728.94	48872.73
729.12	48968.98
729.31	48925.97
729.50	48729.37
729.69	49214.74
729.87	48577.82
730.06	48833.81
730.25	48876.82
730.43	49224.98
730.62	48532.76
730.81	48997.65
730.99	48876.82
731.18	48610.59
731.37	48975.12
731.55	48852.25
731.74	48964.88
731.93	48559.39
732.11	48706.84
732.30	48743.70
732.49	48551.20
732.67	48594.20
732.86	48639.26
733.05	48295.20
733.23	48280.86
733.42	48467.23
733.61	48289.06
733.79	48821.53
733.98	48543.00
734.17	48698.65
734.35	48530.72
734.54	48534.81
734.73	48725.27
734.91	48762.14
735.10	48647.45
735.29	48643.35
735.47	48305.44
735.66	48309.53
735.84	48442.65
736.03	48192.80
736.22	48635.16
736.40	48461.08
736.59	48198.94
736.78	48104.74
736.96	48051.49
737.15	48588.06
737.33	48133.41
737.52	48096.55
737.71	47787.30
737.89	47838.50
738.08	47457.58
738.27	47764.78
738.45	48051.49
738.64	48108.83
738.82	48020.77
739.01	47985.96
739.20	47756.58
739.38	48114.98
739.57	48325.92
739.75	48180.51
739.94	47555.88
740.13	47445.29
740.31	47914.28
740.50	47908.13
740.68	47940.90
740.87	47676.71
741.06	47732.01
741.24	47850.79
741.43	47455.53
741.61	47697.19
741.80	47058.23
741.99	47291.69
742.17	47236.40
742.36	47422.76
742.54	47031.60
742.73	47512.88
742.91	48045.35
743.10	47193.39
743.29	47576.36
743.47	47889.70
743.66	47426.86
743.84	47758.63
744.03	47625.51
744.21	47373.61
744.40	47641.90
744.59	46906.68
744.77	46923.06
744.96	47187.25
745.14	47142.19
745.33	47090.99
745.51	46914.87
745.70	47097.14
745.88	46943.54
746.07	47369.52
746.26	46826.81
746.44	47179.06
746.63	46849.33
746.81	46765.37
747.00	46847.29
747.18	47119.66
747.37	46828.85
747.55	46732.60
747.74	46855.48
747.92	46591.29
748.11	46519.61
748.29	46617.91
748.48	46781.75
748.66	46521.66
748.85	46679.35
749.03	46624.06
749.22	46525.75
749.41	46464.32
749.59	46691.64
749.78	46361.92
749.96	46157.12
750.15	46206.27
750.33	46318.91
750.52	46263.61
750.70	46370.11
750.89	46064.96
751.07	45960.51
751.26	46249.28
751.44	45929.80
751.63	46040.39
751.81	45718.85
752.00	46103.87
752.18	45966.66
752.37	46118.21
752.55	45573.45
752.74	45585.74
752.92	45733.19
753.10	45563.21
753.29	45749.57
753.47	45634.89
753.66	45563.21
753.84	45688.13
754.03	45632.84
754.21	45407.56
754.40	45696.33
754.58	45772.10
754.77	45301.07
754.95	45196.62
755.14	45403.47
755.32	45204.81
755.51	45245.77
755.69	45196.62
755.88	44885.33
756.06	45057.36
756.24	44715.35
756.43	45000.02
756.61	45063.50
756.80	44586.33
756.98	44602.71
757.17	44817.75
757.35	44948.82
757.54	44717.40
757.72	45339.98
757.90	44676.44
758.09	44422.49
758.27	44696.92
758.46	44741.97
758.64	44293.47
758.83	44864.85
759.01	44655.96
759.19	44639.57
759.38	44522.84
759.56	44701.01
759.75	44545.37
759.93	44438.87
760.12	44008.80
760.30	44420.44
760.48	44186.97
760.67	44240.22
760.85	44289.37
761.04	44135.77
761.22	44191.07
761.40	44098.91
761.59	44199.26
761.77	43775.33
761.96	44121.44
762.14	43414.89
762.32	43412.84
762.51	43787.62
762.69	43666.79
762.88	43797.86
763.06	43881.83
763.24	43582.82
763.43	43455.85
763.61	43363.69
763.80	43322.73
763.98	43173.23
764.16	43330.92
764.35	43474.28
764.53	42757.49
764.72	43404.65
764.90	43162.99
765.08	43177.33
765.27	43609.45
765.45	43072.88
765.63	42771.83
765.82	42986.86
766.00	42900.85
766.18	43312.49
766.37	43275.63
766.55	42800.50
766.74	43169.13
766.92	42286.46
767.10	42628.47
767.29	42534.26
767.47	42360.19
767.65	42585.46
767.84	42308.99
768.02	42495.35
768.20	42732.92
768.39	42618.23
768.57	42263.93
768.75	42562.93
768.94	42380.67
769.12	42507.64
769.30	42042.75
769.49	42249.60
769.67	41663.88
769.85	41821.57
770.04	42018.17
770.22	41817.47
770.40	41672.07
770.59	41756.03
770.77	42399.10
770.95	41762.18
771.14	41305.48
771.32	41424.26
771.50	41348.49
771.69	41424.26
771.87	41584.01
772.05	41661.83
772.24	41256.33
772.42	41188.75
772.60	41098.64
772.78	40967.57
772.97	41164.17
773.15	41547.14
773.33	41205.13
773.52	40986.00
773.70	40883.60
773.88	41008.53
774.07	40738.19
774.25	40908.18
774.43	40998.29
774.61	41043.34
774.80	41004.43
774.98	41221.52
775.16	41323.91
775.34	41217.42
775.53	40838.54
775.71	41330.06
775.89	41397.64
776.08	41160.08
776.26	41268.62
776.44	41366.92
776.62	41295.24
776.81	40861.07
776.99	41528.71
777.17	41084.30
777.35	40867.22
777.54	41297.29
777.72	40992.14
777.90	41024.91
778.08	41276.81
778.27	41463.18
778.45	41373.06
778.63	41495.94
778.81	41305.48
779.00	41860.48
779.18	41377.16
779.36	41645.44
779.54	41391.50
779.73	41567.62
779.91	41844.10
780.09	41491.85
780.27	41854.34
780.46	41547.14
780.64	41807.23
780.82	41815.43
781.00	41506.18
781.19	41764.23
781.37	42216.83
781.55	41858.43
781.73	42132.86
781.91	42055.04
782.10	41835.91
782.28	41827.71
782.46	41743.75
782.64	41891.20
782.82	41721.22
783.01	42059.13
783.19	41905.54
783.37	41788.80
783.55	41868.67
783.74	41995.65
783.92	41567.62
784.10	42313.08
784.28	41579.91
784.46	41821.57
784.64	41497.99
784.83	42046.85
785.01	42171.77
785.19	41567.62
785.37	42016.13
785.55	41874.82
785.74	41391.50
785.92	41811.33
786.10	41670.02
786.28	41993.60
786.46	41778.56
786.64	41827.71
786.83	41661.83
787.01	41395.59
787.19	41332.11
787.37	41715.08
787.55	41670.02
787.74	41661.83
787.92	41530.76
788.10	41287.05
788.28	40983.95
788.46	41536.90
788.64	40859.02
788.82	41391.50
789.01	41162.12
789.19	41176.46
789.37	40803.73
789.55	40965.52
789.73	40564.12
789.91	40568.21
790.09	40818.07
790.28	40097.18
790.46	40586.64
790.64	40699.28
790.82	40668.56
791.00	40568.21
791.18	40377.75
791.36	40064.41
791.55	40431.00
791.73	40140.19
791.91	39927.20
792.09	39906.72
792.27	39845.28
792.45	39988.64
792.63	39273.90
792.81	39572.90
793.00	39851.42
793.18	39466.41
793.36	39564.71
793.54	39284.14
793.72	39161.26
793.90	39513.51
794.08	39292.33
794.26	39284.14
794.44	38823.34
794.62	38573.49
794.81	39095.72
794.99	38704.56
795.17	38694.32
795.35	38923.69
795.53	38581.68
795.71	38739.38
795.89	38374.84
796.07	38133.18
796.25	38153.66
796.43	38266.30
796.61	37692.86
796.80	37739.97
796.98	38116.79
797.16	37854.65
797.34	37449.16
797.52	37453.25
797.70	37770.69
797.88	37981.63
798.06	37479.88
798.24	37074.38
798.42	37348.81
798.60	37275.08
798.78	37615.04
798.96	36840.91
799.14	36824.53
799.32	37049.80
799.51	36531.67
799.69	36783.57
799.87	36974.03
800.05	36445.65
800.23	36685.26
800.41	36640.21
800.59	36427.22
800.77	36369.88
800.95	36136.41
801.13	36052.44
801.31	35767.77
801.49	35876.32
801.67	35984.86
801.85	35661.28
802.03	35612.13
802.21	35530.21
802.39	35378.66
802.57	35730.91
802.75	35366.37
802.93	35429.86
803.11	35108.33
803.29	34751.98
803.47	35190.25
803.65	34956.78
803.83	34919.92
804.01	35038.70
804.19	34754.03
804.37	34211.32
804.55	34559.47
804.73	34829.80
804.91	34719.21
805.09	34217.46
805.27	34399.73
805.45	34201.08
805.63	34668.02
805.81	33934.84
805.99	34602.48
806.17	34196.98
806.35	33762.81
806.53	33865.21
806.71	33916.41
806.89	33871.36
807.07	33633.79
807.25	34151.93
807.43	33461.76
807.61	33764.86
807.79	33619.46
807.97	33463.81
808.15	33207.81
808.33	33226.24
808.51	32953.87
808.69	33199.62
808.87	33009.16
809.05	32773.64
809.23	32994.82
809.41	32497.17
809.59	32699.92
809.77	32855.56
809.95	32560.66
810.13	32722.44
810.31	32286.23
810.49	32413.20
810.67	32202.26
810.84	32609.81
811.02	32235.03
811.20	32235.03
811.38	32001.56
811.56	31645.21
811.74	31745.56
811.92	31962.65
812.10	31938.07
812.28	32302.61
812.46	31692.32
812.64	32052.76
812.82	31477.28
813.00	31516.19
813.18	31458.85
813.36	31503.90
813.53	31180.32
813.71	31237.67
813.89	31125.03
814.07	31284.77
814.25	31127.08
814.43	31008.29
814.61	31000.10
814.79	30733.87
814.97	31000.10
815.15	30731.82
815.33	30934.57
815.50	30512.69
815.68	31063.59
815.86	30600.75
816.04	30207.54
816.22	30416.43
816.40	30821.93
816.58	30477.87
816.76	30209.59
816.94	29990.45
817.11	30055.99
817.29	30393.90
817.47	29853.24
817.65	30307.89
817.83	30322.23
818.01	29660.73
818.19	29781.56
818.37	29716.03
818.54	29947.45
818.72	29662.78
818.90	29789.75
819.08	29689.40
819.26	29544.00
819.44	29781.56
819.62	29425.22
819.80	29523.52
819.97	29505.09
820.15	29621.82
820.33	29388.35
820.51	29337.15
820.69	28837.45
820.87	28757.58
821.05	29185.60
821.22	28862.02
821.40	28923.46
821.58	28913.22
821.76	28835.40
821.94	28726.86
822.12	29089.35
822.29	28841.54
822.47	28841.54
822.65	28986.95
822.83	29105.73
823.01	29003.33
823.19	28589.64
823.36	28589.64
823.54	28530.25
823.72	28489.29
823.90	28606.03
824.08	28042.84
824.25	28313.17
824.43	28235.35
824.61	28325.46
824.79	28358.22
824.97	27987.54
825.15	28247.63
825.32	28014.16
825.50	28048.98
825.68	27670.11
825.86	27690.59
826.04	27942.49
826.21	27682.39
826.39	27676.25
826.57	27698.78
826.75	27627.10
826.93	27428.45
827.10	27854.42
827.28	27498.08
827.46	27833.94
827.64	27694.68
827.81	27317.86
827.99	27360.86
828.17	27360.86
828.35	27178.59
828.53	27115.11
828.70	27063.91
828.88	27293.28
829.06	27014.76
829.24	27231.84
829.41	26969.70
829.59	27084.39
829.77	26793.58
829.95	26949.22
830.12	26545.77
830.30	26781.29
830.48	27094.63
830.66	26834.53
830.84	26797.67
831.01	26613.35
831.19	26748.52
831.37	26543.72
831.55	26707.56
831.72	26398.32
831.90	26320.49
832.08	26504.81
832.25	26140.27
832.43	26631.79
832.61	26558.06
832.79	26295.92
832.96	26580.59
833.14	26326.64
833.32	26721.90
833.50	26426.99
833.67	26191.47
833.85	26369.65
834.03	25970.29
834.20	26170.99
834.38	25953.91
834.56	26179.18
834.74	26005.11
834.91	25990.77
835.09	25986.68
835.27	25466.49
835.44	25718.39
835.62	25280.13
835.80	25558.65
835.98	25798.26
836.15	25695.86
836.33	25697.91
836.51	25583.23
836.68	25355.90
836.86	25208.45
837.04	25460.35
837.21	25538.17
837.39	25452.16
837.57	25509.50
837.75	25638.52
837.92	25136.77
838.10	25310.85
838.28	25110.14
838.45	25429.63
838.63	24839.81
838.81	24911.49
838.98	24784.52
839.16	24956.55
839.34	24807.05
839.51	24733.32
839.69	24669.83
839.87	25054.85
840.04	24731.27
840.22	24942.21
840.40	24716.93
840.57	24579.72
840.75	24985.22
840.93	24297.10
841.10	24718.98
841.28	25085.57
841.46	24592.01
841.63	24753.80
841.81	24809.09
841.98	24475.27
842.16	24524.43
842.34	24649.35
842.51	24192.65
842.69	24467.08
842.87	24323.72
843.04	24483.47
843.22	24225.42
843.40	24268.43
843.57	24235.66
843.75	24383.12
843.92	24370.83
844.10	24139.41
844.28	24659.59
844.45	24352.40
844.63	24063.63
844.81	23836.31
844.98	24196.75
845.16	23955.09
845.33	24090.26
845.51	23901.84
845.69	23948.95
845.86	23660.18
846.04	23916.18
846.21	23838.36
846.39	23781.01
846.57	23895.70
846.74	23647.90
846.92	23893.65
847.09	23877.27
847.27	23451.29
847.45	23479.96
847.62	23787.16
847.80	23486.11
847.97	23570.07
848.15	23428.76
848.32	23127.71
848.50	23297.69
848.68	23533.21
848.85	23322.27
849.03	22986.40
849.20	23357.08
849.38	23146.14
849.56	23228.06
849.73	23109.28
849.91	23064.22
850.08	23350.94
850.26	22656.68
850.43	23019.17
850.61	22984.35
850.78	22734.50
850.96	22959.78
851.14	22617.77
851.31	23013.02
851.49	22912.67
851.66	23035.55
851.84	22771.36
852.01	22638.25
852.19	22992.55
852.36	22734.50
852.54	22486.70
852.71	22529.70
852.89	22490.79
853.07	22845.09
853.24	22496.94
853.42	22599.34
853.59	22517.42
853.77	22611.62
853.94	22601.38
854.12	22738.60
854.29	22290.09
854.47	22619.81
854.64	22341.29
854.82	22169.26
854.99	22267.56
855.17	22040.24
855.34	21948.08
855.52	22341.29
855.69	22316.72
855.87	22091.44
856.04	22150.83
856.22	22171.31
856.39	21905.07
856.57	22068.91
856.74	22011.57
856.92	22083.25
857.09	21817.01
857.27	21907.12
857.44	22062.77
857.62	22173.36
857.79	21872.31
857.97	21819.06
858.14	21913.27
858.32	21837.49
858.49	21677.75
858.67	21724.85
858.84	21923.51
859.02	21780.15
859.19	21520.06
859.37	21462.71
859.54	21407.42
859.72	21569.21
859.89	21634.74
860.06	21644.98
860.24	21202.62
860.41	21618.36
860.59	21475.00
860.76	21518.01
860.94	20967.10
861.11	21370.55
861.29	20936.38
861.46	21132.99
861.64	20840.13
861.81	21241.53
861.98	20756.16
862.16	20958.91
862.33	20977.34
862.51	21022.40
862.68	20915.90
862.86	20750.02
863.03	20866.75
863.21	20715.20
863.38	21141.18
863.55	20670.15
863.73	20735.68
863.90	20569.80
864.08	20778.69
864.25	20635.33
864.43	20731.59
864.60	20688.58
864.77	20709.06
864.95	20833.99
865.12	20379.34
865.30	20438.73
865.47	20377.29
865.64	20416.20
865.82	20522.69
865.99	20741.83
866.17	20244.17
866.34	20209.36
866.51	20418.25
866.69	20496.07
866.86	20434.63
867.04	20356.81
867.21	20164.30
867.38	20076.24
867.56	20178.64
867.73	20111.05
867.91	19857.10
868.08	20244.17
868.25	19748.56
868.43	19943.12
868.60	19902.16
868.78	19775.19
868.95	19869.39
869.12	19979.98
869.30	19926.74
869.47	19762.90
869.64	19416.79
869.82	19699.41
869.99	19439.32
870.16	19697.36
870.34	19644.12
870.51	19787.47
870.69	19502.81
870.86	19494.61
871.03	19433.18
871.21	19183.32
871.38	19637.97
871.55	19308.25
871.73	19404.50
871.90	19404.50
872.07	19132.12
872.25	19187.42
872.42	18681.57
872.59	19410.65
872.77	19062.49
872.94	18996.96
873.11	19156.70
873.29	18976.48
873.46	19039.97
873.63	18939.62
873.81	18833.12
873.98	18759.39
874.15	18671.33
874.33	18558.69
874.50	18452.20
874.67	18532.07
874.85	18773.73
875.02	18550.50
875.19	18403.05
875.37	18550.50
875.54	18339.56
875.71	18208.49
875.88	18261.74
876.06	18331.37
876.23	18413.29
876.40	18265.83
876.58	18329.32
876.75	18177.77
876.92	18050.80
877.10	18011.89
877.27	17907.44
877.44	18132.72
877.61	17911.53
877.79	17997.55
877.96	17927.92
878.13	17956.59
878.31	17739.51
878.48	17825.52
878.65	17659.63
878.82	17788.66
879.00	17831.66
879.17	17663.73
879.34	17633.01
879.51	17561.33
879.69	17448.69
879.86	17366.78
880.03	17420.02
880.21	17508.08
880.38	17573.62
880.55	17649.39
880.72	17508.08
880.90	17360.63
881.07	17354.49
881.24	17315.58
881.41	17501.94
881.59	17458.93
881.76	17088.25
881.93	17139.45
882.10	17139.45
882.28	17039.10
882.45	17215.23
882.62	17114.87
882.79	17131.26
882.96	16889.60
883.14	17116.92
883.31	17319.67
883.48	17116.92
883.65	17004.28
883.83	17035.00
884.00	17084.16
884.17	17016.57
884.34	17053.44
884.51	16969.47
884.69	16711.42
884.86	16953.09
885.03	16838.40
885.20	16901.89
885.38	16789.25
885.55	16695.04
885.72	16645.89
885.89	16674.56
886.06	16930.56
886.24	16492.29
886.41	16449.28
886.58	16600.83
886.75	16543.49
886.92	16396.04
887.10	16631.55
887.27	16348.93
887.44	16664.32
887.61	16563.97
887.78	16594.69
887.95	16555.78
888.13	16453.38
888.30	16287.50
888.47	16238.34
888.64	16441.09
888.81	16152.33
888.99	16219.91
889.16	16013.07
889.33	15992.59
889.50	16066.31
889.67	16019.21
889.84	16279.30
890.01	16219.91
890.19	16307.98
890.36	16244.49
890.53	15998.73
890.70	15752.98
890.87	15732.50
891.04	15763.22
891.22	15818.51
891.39	15777.55
891.56	15646.48
891.73	15761.17
891.90	15630.10
892.07	15482.64
892.24	15806.22
892.42	15605.52
892.59	15861.52
892.76	15398.68
892.93	15431.44
893.10	15767.31
893.27	15472.40
893.44	15576.85
893.61	15447.83
893.79	15589.14
893.96	15470.36
894.13	15681.30
894.30	15410.96
894.47	15683.34
894.64	15671.06
894.81	15525.65
894.98	15425.30
895.15	15361.81
895.33	15372.05
895.50	15576.85
895.67	15617.81
895.84	15529.75
896.01	15468.31
896.18	15298.33
896.35	15658.77
896.52	15470.36
896.69	15341.33
896.86	15501.08
897.04	15484.69
897.21	15396.63
897.38	15253.27
897.55	15298.33
897.72	15243.03
897.89	15464.21
898.06	15195.93
898.23	15267.61
898.40	15611.67
898.57	15470.36
898.74	15613.71
898.91	15130.39
899.08	15460.12
899.26	15464.21
899.43	15181.59
899.60	15044.38
899.77	15394.58
899.94	15238.94
900.11	15238.94
900.28	15296.28
900.45	15101.72
900.62	15378.20
900.79	15496.98
900.96	15415.06
901.13	15298.33
901.30	15302.42
901.47	15152.92
901.64	15208.22
901.81	15294.23
901.98	15173.40
902.15	15349.53
902.32	15136.54
902.49	15265.56
902.66	15077.15
902.83	15114.01
903.01	15116.06
903.18	15298.33
903.35	15415.06
903.52	15353.62
903.69	15519.51
903.86	15259.42
904.03	15073.05
904.20	15247.13
904.37	15240.98
904.54	15159.06
904.71	15449.88
904.88	15142.68
905.05	14982.94
905.22	15208.22
905.39	15253.27
905.56	14993.18
905.73	15075.10
905.90	15165.21
906.07	15257.37
906.24	15124.25
906.41	15257.37
906.58	15382.29
906.75	15060.76
906.92	15025.95
907.09	15118.11
907.26	14960.41
907.43	14927.64
907.60	14868.25
907.77	15261.46
907.93	15058.71
908.10	15034.14
908.27	15120.15
908.44	14995.23
908.61	15056.67
908.78	15245.08
908.95	15220.50
909.12	14978.84
909.29	15003.42
909.46	14966.56
909.63	14978.84
909.80	15023.90
909.97	14917.40
910.14	14978.84
910.31	15017.75
910.48	14671.65
910.65	15032.09
910.82	14825.25
910.99	15001.37
911.16	14800.67
911.33	15071.00
911.50	14602.02
911.66	14825.25
911.83	14839.58
912.00	14946.08
912.17	14796.57
912.34	14608.16
912.51	14962.46
912.68	14608.16
912.85	14550.82
913.02	14794.53
913.19	14485.28
913.36	14606.11
913.53	14559.01
913.70	14511.91
913.86	14638.88
914.03	14466.85
914.20	14462.76
914.37	14446.37
914.54	14337.83
914.71	14604.07
914.88	14257.96
915.05	14173.99
915.22	14237.48
915.39	14159.66
915.55	14077.74
915.72	14333.73
915.89	14126.89
916.06	14004.01
916.23	14128.94
916.40	14169.90
916.57	13864.75
916.74	13854.51
916.91	14018.35
917.07	13600.56
917.24	13748.01
917.41	13791.02
917.58	13936.43
917.75	13668.14
917.92	13590.32
918.09	13502.26
918.26	13623.09
918.42	13729.58
918.59	13756.21
918.76	13473.59
918.93	13639.47
919.10	13522.74
919.27	13369.14
919.44	13276.98
919.60	13686.58
919.77	13371.19
919.94	13328.18
920.11	13219.64
920.28	13215.54
920.45	13047.61
920.61	13283.13
920.78	13190.97
920.95	13096.76
921.12	13018.94
921.29	13088.57
921.46	12857.15
921.62	12883.77
921.79	12767.04
921.96	12980.03
922.13	12758.85
922.30	12625.73
922.47	12947.26
922.63	12545.86
922.80	12668.73
922.97	12642.11
923.14	12433.22
923.31	12447.55
923.47	12392.26
923.64	12433.22
923.81	12369.73
923.98	12277.57
924.15	12361.54
924.32	12164.93
924.48	12400.45
924.65	12181.32
924.82	12019.53
924.99	11814.73
925.15	12013.38
925.32	12164.93
925.49	11874.12
925.66	11773.77
925.83	11863.88
925.99	11763.53
926.16	11581.26
926.33	11773.77
926.50	11454.29
926.67	11644.75
926.83	11671.37
927.00	11407.19
927.17	11466.58
927.34	11173.72
927.50	11429.71
927.67	11364.18
927.84	11288.40
928.01	11353.94
928.17	11298.64
928.34	11259.73
928.51	11079.51
928.68	11059.03
928.84	10940.25
929.01	10825.56
929.18	10891.10
929.35	10635.10
929.51	10790.75
929.68	10710.88
929.85	10770.27
930.02	10612.57
930.18	10770.27
930.35	10753.88
930.52	10483.55
930.69	10454.88
930.85	10497.89
931.02	10383.20
931.19	10461.02
931.36	10383.20
931.52	10489.70
931.69	10250.08
931.86	10352.48
932.02	9981.80
932.19	10254.18
932.36	9850.73
932.53	10063.72
932.69	9832.30
932.86	10114.92
933.03	9916.26
933.19	9813.87
933.36	9877.35
933.53	9967.46
933.70	9611.12
933.86	9832.30
934.03	9674.60
934.20	9357.17
934.36	9557.87
934.53	9305.97
934.70	9275.25
934.86	9287.54
935.03	9131.89
935.20	9060.21
935.36	9068.41
935.53	8955.77
935.70	9115.51
935.86	8998.77
936.03	8789.88
936.20	8779.64
936.36	8699.77
936.53	8605.56
936.70	8507.26
936.86	8652.67
937.03	8501.12
937.20	8177.54
937.36	8281.99
937.53	7856.01
937.70	7989.13
937.86	7843.72
938.03	7899.02
938.20	8011.65
938.36	7837.58
938.53	7884.68
938.70	7440.27
938.86	7503.76
939.03	7587.72
939.20	7258.00
939.36	7098.26
939.53	7258.00
939.70	7317.39
939.86	6971.29
940.03	6950.81
940.19	6858.65
940.36	6789.02
940.53	6905.75
940.69	6766.49
940.86	6823.83
941.03	6590.36
941.19	6520.73
941.36	6545.31
941.52	6418.33
941.69	6281.12
941.86	6274.98
942.02	6305.70
942.19	6098.85
942.35	6182.82
942.52	6088.61
942.69	5949.35
942.85	5975.97
943.02	6010.79
943.18	5855.14
943.35	5834.66
943.52	5773.22
943.68	5805.99
943.85	5769.13
944.01	5644.20
944.18	5562.28
944.35	5724.07
944.51	5601.19
944.68	5412.78
944.84	5463.98
945.01	5369.77
945.17	5545.90
945.34	5556.14
945.51	5650.35
945.67	5343.15
945.84	5455.79
946.00	5343.15
946.17	5472.17
946.33	5418.93
946.50	5384.11
946.67	5353.39
946.83	5369.77
947.00	5509.04
947.16	5388.21
947.33	5363.63
947.49	5287.86
947.66	5210.03
947.82	5459.88
947.99	5506.99
948.16	5459.88
948.32	5320.62
948.49	5369.77
948.65	5449.64
948.82	5345.20
948.98	5300.14
949.15	5195.70
949.31	5373.87
949.48	5359.53
949.64	5287.86
949.81	5234.61
949.97	5259.18
950.14	5365.68
950.30	5226.42
950.47	5367.73
950.63	5265.33
950.80	5427.12
950.96	5353.39
951.13	5300.14
951.30	5406.64
951.46	5296.05
951.63	5484.46
951.79	5451.69
951.96	5504.94
952.12	5457.84
952.29	5453.74
952.45	5394.35
952.62	5365.68
952.78	5275.57
952.94	5574.57
953.11	5433.26
953.27	5369.77
953.44	5502.89
953.60	5439.40
953.77	5506.99
953.93	5529.52
954.10	5500.84
954.26	5459.88
954.43	5353.39
954.59	5672.87
954.76	5492.65
954.92	5529.52
955.09	5603.24
955.25	5470.12
955.42	5470.12
955.58	5681.07
955.75	5613.48
955.91	5609.39
956.07	5453.74
956.24	5619.63
956.40	5648.30
956.57	5615.53
956.73	5492.65
956.90	5523.37
957.06	5488.56
957.23	5652.39
957.39	5433.26
957.56	5603.24
957.72	5500.84
957.88	5457.84
958.05	5582.76
958.21	5500.84
958.38	5593.00
958.54	5509.04
958.71	5619.63
958.87	5472.17
959.03	5556.14
959.20	5490.60
959.36	5470.12
959.53	5509.04
959.69	5468.08
959.85	5539.76
960.02	5588.91
960.18	5459.88
960.35	5629.87
960.51	5564.33
960.68	5334.96
960.84	5476.27
961.00	5427.12
961.17	5509.04
961.33	5519.28
961.50	5498.80
961.66	5670.83
961.82	5412.78
961.99	5494.70
962.15	5341.10
962.31	5457.84
962.48	5504.94
962.64	5455.79
962.81	5375.92
962.97	5519.28
963.13	5425.07
963.30	5441.45
963.46	5525.42
963.62	5427.12
963.79	5400.49
963.95	5423.02
964.12	5441.45
964.28	5423.02
964.44	5369.77
964.61	5414.83
964.77	5308.34
964.93	5543.85
965.10	5388.21
965.26	5300.14
965.42	5257.14
965.59	5382.06
965.75	5255.09
965.92	5396.40
966.08	5384.11
966.24	5240.75
966.41	5296.05
966.57	5408.69
966.73	5447.60
966.90	5367.73
967.06	5228.46
967.22	5269.42
967.39	5250.99
967.55	5140.40
967.71	5193.65
967.88	5273.52
968.04	5236.66
968.20	5320.62
968.37	5253.04
968.53	5271.47
968.69	5244.85
968.85	5214.13
969.02	5238.70
969.18	5156.79
969.34	5191.60
969.51	5304.24
969.67	5326.77
969.83	5164.98
970.00	5300.14
970.16	5140.40
970.32	5244.85
970.48	5248.94
970.65	5031.86
970.81	5081.01
970.97	5105.59
971.14	4964.28
971.30	5078.96
971.46	5148.59
971.63	5081.01
971.79	5164.98
971.95	5099.44
972.11	5011.38
972.28	5105.59
972.44	5081.01
972.60	5017.52
972.76	5013.43
972.93	5017.52
973.09	4915.12
973.25	5142.45
973.42	4804.53
973.58	4923.32
973.74	5009.33
973.90	4939.70
974.07	4878.26
974.23	4927.41
974.39	4829.11
974.55	4775.86
974.72	4861.88
974.88	4636.60
975.04	4702.14
975.20	4759.48
975.37	4835.25
975.53	4796.34
975.69	4876.21
975.85	4773.82
976.01	4816.82
976.18	4788.15
976.34	4745.14
976.50	4870.07
976.66	4968.37
976.83	4700.09
976.99	4777.91
977.15	4718.52
977.31	4560.83
977.47	4941.75
977.64	4614.07
977.80	4665.27
977.96	4691.90
978.12	4655.03
978.29	4704.18
978.45	4536.25
978.61	4614.07
978.77	4728.76
978.93	4673.46
979.10	4489.15
979.26	4661.18
979.42	4542.39
979.58	4415.42
979.74	4401.08
979.91	4499.39
980.07	4435.90
980.23	4415.42
980.39	4593.59
980.55	4456.38
980.71	4521.92
980.88	4343.74
981.04	4435.90
981.20	4489.15
981.36	4601.79
981.52	4368.32
981.68	4396.99
981.85	4446.14
982.01	4376.51
982.17	4403.13
982.33	4370.37
982.49	4376.51
982.65	4427.71
982.82	4396.99
982.98	4339.65
983.14	4173.76
983.30	4292.54
983.46	4458.43
983.62	4310.97
983.79	4278.21
983.95	4317.12
984.11	4130.75
984.27	4208.58
984.43	4255.68
984.59	4192.19
984.75	4351.93
984.91	4149.18
985.08	4370.37
985.24	4208.58
985.40	4040.64
985.56	4235.20
985.72	4165.57
985.88	4239.30
986.04	4192.19
986.20	4202.43
986.37	4220.86
986.53	4048.83
986.69	4161.47
986.85	3936.20
987.01	4169.66
987.17	4063.17
987.33	4089.79
987.49	3923.91
987.65	4136.90
987.82	3981.25
987.98	3991.49
988.14	3991.49
988.30	4065.22
988.46	3901.38
988.62	4016.07
988.78	3983.30
988.94	3960.77
989.10	4028.35
989.26	3930.05
989.42	3803.08
989.59	3827.65
989.75	3733.45
989.91	4038.59
990.07	3809.22
990.23	3784.65
990.39	3885.00
990.55	3940.29
990.71	3725.26
990.87	3776.45
991.03	3893.19
991.19	3770.31
991.35	3768.26
991.51	3770.31
991.67	3950.53
991.83	3702.73
992.00	3772.36
992.16	3649.48
992.32	3833.80
992.48	3839.94
992.64	3723.21
992.80	3745.73
992.96	3721.16
993.12	3758.02
993.28	3721.16
993.44	3663.82
993.60	3610.57
993.76	3696.58
993.92	3655.62
994.08	3618.76
994.24	3778.50
994.40	3608.52
994.56	3665.86
994.72	3555.27
994.88	3545.03
995.04	3657.67
995.20	3530.70
995.36	3575.75
995.52	3477.45
995.68	3520.46
995.84	3442.64
996.00	3567.56
996.16	3530.70
996.32	3485.64
996.48	3422.16
996.64	3626.95
996.80	3411.92
996.96	3411.92
997.12	3514.31
997.28	3530.70
997.44	3352.52
997.60	3395.53
997.76	3352.52
997.92	3379.15
998.08	3420.11
998.24	3407.82
998.40	3403.72
998.56	3499.98
998.72	3278.80
998.88	3342.28
999.04	3323.85
999.20	3542.99
999.36	3264.46
999.52	3422.16
999.68	3385.29
999.84	3340.24
1000.00	3254.22
1000.16	3381.20
1000.32	3182.54
1000.48	3313.61
1000.64	3174.35
1000.80	3258.32
1000.95	3231.69
1001.11	3272.65
1001.27	3258.32
1001.43	3286.99
1001.59	3209.17
1001.75	3149.78
1001.91	3176.40
1002.07	3112.91
1002.23	3100.62
1002.39	3215.31
1002.55	3256.27
1002.71	3192.78
1002.87	3104.72
1003.03	3037.14
1003.19	3084.24
1003.34	3209.17
1003.50	3117.01
1003.66	3217.36
1003.82	3192.78
1003.98	3016.66
1004.14	3149.78
1004.30	3055.57
1004.46	3049.43
1004.62	3112.91
1004.78	3000.27
1004.94	2957.27
1005.09	3035.09
1005.25	3100.62
1005.41	3012.56
1005.57	2961.36
1005.73	3143.63
1005.89	2951.12
1006.05	3078.10
1006.21	2985.94
1006.37	3014.61
1006.52	2844.63
1006.68	2992.08
1006.84	3076.05
1007.00	2801.62
1007.16	2977.75
1007.32	2949.08
1007.48	2971.60
1007.64	2879.44
1007.79	2873.30
1007.95	2883.54
1008.11	2912.21
1008.27	2936.79
1008.43	2826.20
1008.59	2846.68
1008.75	2987.99
1008.91	2809.81
1009.06	2793.43
1009.22	2824.15
1009.38	2877.40
1009.54	2863.06
1009.70	2848.72
1009.86	2820.05
1010.01	2783.19
1010.17	2637.78
1010.33	2787.29
1010.49	2764.76
1010.65	2897.88
1010.81	2668.50
1010.96	2744.28
1011.12	2752.47
1011.28	2729.94
1011.44	2744.28
1011.60	2750.42
1011.76	2670.55
1011.91	2836.44
1012.07	2736.09
1012.23	2652.12
1012.39	2656.22
1012.55	2684.89
1012.71	2715.61
1012.86	2695.13
1013.02	2650.07
1013.18	2723.80
1013.34	2748.37
1013.50	2623.45
1013.65	2721.75
1013.81	2531.29
1013.97	2566.10
1014.13	2625.50
1014.29	2670.55
1014.44	2621.40
1014.60	2566.10
1014.76	2648.02
1014.92	2607.06
1015.07	2625.50
1015.23	2576.34
1015.39	2574.30
1015.55	2559.96
1015.71	2635.74
1015.86	2498.52
1016.02	2564.06
1016.18	2475.99
1016.34	2576.34
1016.49	2564.06
1016.65	2582.49
1016.81	2465.75
1016.97	2467.80
1017.12	2449.37
1017.28	2402.27
1017.44	2486.23
1017.60	2408.41
1017.75	2527.19
1017.91	2488.28
1018.07	2379.74
1018.23	2461.66
1018.38	2435.03
1018.54	2377.69
1018.70	2453.47
1018.86	2471.90
1019.01	2439.13
1019.17	2392.03
1019.33	2541.53
1019.49	2459.61
1019.64	2463.71
1019.80	2435.03
1019.96	2439.13
1020.12	2455.51
1020.27	2351.07
1020.43	2344.92
1020.59	2420.70
1020.74	2383.84
1020.90	2387.93
1021.06	2279.39
1021.22	2414.56
1021.37	2281.44
1021.53	2316.25
1021.69	2332.64
1021.84	2250.72
1022.00	2310.11
1022.16	2310.11
1022.31	2312.16
1022.47	2383.84
1022.63	2371.55
1022.79	2220.00
1022.94	2289.63
1023.10	2334.68
1023.26	2355.16
1023.41	2322.40
1023.57	2314.20
1023.73	2306.01
1023.88	2377.69
1024.04	2215.90
1024.20	2271.20
1024.35	2277.34
1024.51	2334.68
1024.67	2265.05
1024.82	2256.86
1024.98	2179.04
1025.14	2234.33
1025.29	2172.89
1025.45	2256.86
1025.61	2236.38
1025.76	2166.75
1025.92	2168.80
1026.08	2197.47
1026.23	2236.38
1026.39	2283.49
1026.55	2191.33
1026.70	2140.13
1026.86	2220.00
1027.02	2199.52
1027.17	2240.48
1027.33	2246.62
1027.48	2136.03
1027.64	2201.57
1027.80	2172.89
1027.95	2256.86
1028.11	2066.40
1028.27	2078.69
1028.42	2213.85
1028.58	2133.98
1028.73	2138.08
1028.89	2099.17
1029.05	2328.54
1029.20	2158.56
>>>>>End Processed Spectral Data<<<<<
