SpectraSuite Data File
++++++++++++++++++++++++++++++++++++
Date: Fri Jun 02 14:57:17 CEST 2017
User: INFO_000
Dark Spectrum Present: No
Reference Spectrum Present: No
Number of Sampled Component Spectra: 1
Spectrometers: USB4H00879
Integration Time (usec): 80000 (USB4H00879)
Spectra Averaged: 1 (USB4H00879)
Boxcar Smoothing: 0 (USB4H00879)
Correct for Electrical Dark: No (USB4H00879)
Strobe/Lamp Enabled: No (USB4H00879)
Correct for Detector Non-linearity: No (USB4H00879)
Correct for Stray Light: No (USB4H00879)
Number of Pixels in Processed Spectrum: 3648
>>>>>Begin Processed Spectral Data<<<<<
345.13	1306.60
345.34	1306.60
345.56	1306.60
345.78	1322.99
345.99	1306.60
346.21	1673.19
346.42	1656.81
346.64	1675.24
346.86	1767.40
347.07	1648.61
347.29	1697.77
347.50	1587.18
347.72	1667.05
347.94	1771.49
348.15	1648.61
348.37	1626.09
348.59	1748.97
348.80	1675.24
349.02	1753.06
349.23	1794.02
349.45	1781.73
349.67	1853.41
349.88	1720.29
350.10	1929.19
350.31	1802.21
350.53	1791.97
350.75	1800.16
350.96	1691.62
351.18	1794.02
351.39	1794.02
351.61	1837.03
351.82	1853.41
352.04	1880.04
352.26	1763.30
352.47	1894.37
352.69	1834.98
352.90	1646.57
353.12	1847.27
353.34	1818.60
353.55	1796.07
353.77	1859.56
353.98	1736.68
354.20	1724.39
354.41	1896.42
354.63	1789.92
354.85	1959.91
355.06	1816.55
355.28	1718.25
355.49	1722.34
355.71	1824.74
355.92	1806.31
356.14	1751.01
356.35	1765.35
356.57	1732.58
356.79	1859.56
357.00	1748.97
357.22	1884.13
357.43	1777.64
357.65	1800.16
357.86	1726.44
358.08	1822.69
358.29	1847.27
358.51	1959.91
358.72	1851.36
358.94	1851.36
359.16	1843.17
359.37	1875.94
359.59	1824.74
359.80	1961.95
360.02	1796.07
360.23	1877.99
360.45	1978.34
360.66	1837.03
360.88	1728.49
361.09	1828.84
361.31	1923.04
361.52	1820.64
361.74	1996.77
361.95	2009.06
362.17	1902.56
362.38	1943.52
362.60	1968.10
362.81	1888.23
363.03	1888.23
363.24	1914.85
363.46	2041.82
363.67	1949.67
363.89	1880.04
364.10	1943.52
364.32	1753.06
364.53	1951.71
364.75	1773.54
364.96	1847.27
365.18	2082.78
365.39	1945.57
365.61	1908.71
365.82	2050.02
366.04	1964.00
366.25	1798.12
366.47	1855.46
366.68	1884.13
366.90	1980.39
367.11	1927.14
367.33	2068.45
367.54	1966.05
367.76	1957.86
367.97	1992.67
368.19	1783.78
368.40	1996.77
368.62	1929.19
368.83	1892.32
369.05	1877.99
369.26	1910.75
369.48	1925.09
369.69	1943.52
369.91	1961.95
370.12	1955.81
370.33	1982.43
370.55	1920.99
370.76	1978.34
370.98	1968.10
371.19	1970.15
371.41	1996.77
371.62	1968.10
371.84	1935.33
372.05	2086.88
372.27	2009.06
372.48	2043.87
372.69	2052.06
372.91	2093.02
373.12	2064.35
373.34	1931.23
373.55	2052.06
373.77	2076.64
373.98	2043.87
374.20	2131.94
374.41	2160.61
374.62	2037.73
374.84	2172.89
375.05	2084.83
375.27	2166.75
375.48	2181.09
375.70	2119.65
375.91	2183.13
376.12	2293.72
376.34	2088.93
376.55	2093.02
376.77	2142.18
376.98	2056.16
377.19	2000.87
377.41	2138.08
377.62	2203.61
377.84	2230.24
378.05	2338.78
378.27	2195.42
378.48	2303.96
378.69	2301.92
378.91	2248.67
379.12	2312.16
379.34	2185.18
379.55	2263.01
379.76	2254.81
379.98	2195.42
380.19	2236.38
380.41	2271.20
380.62	2234.33
380.83	2183.13
381.05	2105.31
381.26	2418.65
381.47	2140.13
381.69	2324.44
381.90	2363.36
382.12	2107.36
382.33	2254.81
382.54	2258.91
382.76	2285.53
382.97	2338.78
383.19	2222.05
383.40	2301.92
383.61	2312.16
383.83	2242.53
384.04	2314.20
384.25	2398.17
384.47	2340.83
384.68	2244.57
384.89	2195.42
385.11	2312.16
385.32	2279.39
385.54	2369.50
385.75	2222.05
385.96	2408.41
386.18	2418.65
386.39	2373.60
386.60	2428.89
386.82	2451.42
387.03	2353.12
387.24	2492.38
387.46	2383.84
387.67	2422.75
387.88	2580.44
388.10	2430.94
388.31	2394.08
388.52	2557.91
388.74	2549.72
388.95	2455.51
389.16	2484.19
389.38	2467.80
389.59	2623.45
389.80	2584.54
390.02	2529.24
390.23	2613.21
390.44	2519.00
390.66	2510.81
390.87	2521.05
391.08	2666.46
391.30	2731.99
391.51	2590.68
391.72	2707.41
391.94	2654.17
392.15	2695.13
392.36	2547.67
392.58	2600.92
392.79	2664.41
393.00	2629.59
393.22	2703.32
393.43	2729.94
393.64	2863.06
393.85	2813.91
394.07	2713.56
394.28	2742.23
394.49	2787.29
394.71	2775.00
394.92	2895.83
395.13	2766.81
395.35	2697.17
395.56	2678.74
395.77	2740.18
395.98	2799.57
396.20	2863.06
396.41	2758.61
396.62	2936.79
396.84	2832.34
397.05	2838.48
397.26	2885.59
397.47	3043.28
397.69	2844.63
397.90	2981.84
398.11	2963.41
398.32	2928.60
398.54	2879.44
398.75	2846.68
398.96	2961.36
399.18	3067.86
399.39	2977.75
399.60	3051.47
399.81	2949.08
400.03	2998.23
400.24	3270.61
400.45	2983.89
400.66	3143.63
400.88	2996.18
401.09	3184.59
401.30	3194.83
401.51	3090.38
401.73	3182.54
401.94	3125.20
402.15	3157.97
402.36	3090.38
402.58	3153.87
402.79	3123.15
403.00	3198.93
403.21	3188.69
403.43	3219.41
403.64	3243.98
403.85	3119.06
404.06	3280.85
404.27	3096.53
404.49	3129.30
404.70	3229.65
404.91	3182.54
405.12	3198.93
405.34	3223.50
405.55	3375.05
405.76	3182.54
405.97	3268.56
406.19	3291.09
406.40	3284.94
406.61	3305.42
406.82	3338.19
407.03	3340.24
407.25	3330.00
407.46	3518.41
407.67	3508.17
407.88	3567.56
408.09	3391.44
408.31	3362.76
408.52	3397.58
408.73	3346.38
408.94	3317.71
409.15	3422.16
409.37	3471.31
409.58	3469.26
409.79	3499.98
410.00	3459.02
410.21	3448.78
410.43	3569.61
410.64	3409.87
410.85	3499.98
411.06	3526.60
411.27	3612.62
411.48	3659.72
411.70	3542.99
411.91	3592.14
412.12	3674.06
412.33	3672.01
412.54	3577.80
412.76	3715.02
412.97	3768.26
413.18	3524.55
413.39	3583.95
413.60	3704.78
413.81	3788.74
414.03	3602.38
414.24	3659.72
414.45	3817.41
414.66	3569.61
414.87	3807.17
415.08	3731.40
415.30	3645.38
415.51	3778.50
415.72	3751.88
415.93	3755.97
416.14	3893.19
416.35	3811.27
416.56	3878.85
416.78	3807.17
416.99	3923.91
417.20	3960.77
417.41	3889.09
417.62	3973.06
417.83	4007.87
418.04	3954.63
418.26	3946.44
418.47	3983.30
418.68	4067.27
418.89	3950.53
419.10	4132.80
419.31	4095.94
419.52	4061.12
419.73	3977.16
419.95	4067.27
420.16	3985.35
420.37	4091.84
420.58	4188.10
420.79	3954.63
421.00	4104.13
421.21	4138.94
421.42	4100.03
421.63	4186.05
421.85	4075.46
422.06	4239.30
422.27	4202.43
422.48	4202.43
422.69	4181.95
422.90	4216.77
423.11	4257.73
423.32	4206.53
423.53	4364.22
423.75	4429.76
423.96	4388.80
424.17	4349.89
424.38	4474.81
424.59	4468.67
424.80	4554.68
425.01	4435.90
425.22	4437.95
425.43	4519.87
425.64	4687.80
425.85	4730.81
426.06	4546.49
426.28	4515.77
426.49	4476.86
426.70	4591.55
426.91	4497.34
427.12	4665.27
427.33	4648.89
427.54	4736.95
427.75	4710.33
427.96	4855.73
428.17	4636.60
428.38	4777.91
428.59	4810.68
428.80	4767.67
429.01	4892.60
429.23	4972.47
429.44	4966.32
429.65	4954.04
429.86	4841.40
430.07	4888.50
430.28	4796.34
430.49	4986.80
430.70	5111.73
430.91	5119.92
431.12	4970.42
431.33	5062.58
431.54	5226.42
431.75	5228.46
431.96	4962.23
432.17	5091.25
432.38	5154.74
432.59	5294.00
432.80	5210.03
433.01	5289.90
433.22	5353.39
433.43	5400.49
433.64	5285.81
433.85	5285.81
434.06	5484.46
434.27	5187.50
434.49	5373.87
434.70	5418.93
434.91	5363.63
435.12	5576.62
435.33	5449.64
435.54	5355.44
435.75	5394.35
435.96	5373.87
436.17	5470.12
436.38	5717.93
436.59	5648.30
436.80	5613.48
437.01	5805.99
437.22	5851.05
437.43	5797.80
437.64	5402.54
437.85	5750.70
438.06	5724.07
438.27	5621.67
438.48	5771.18
438.69	5762.98
438.90	5705.64
439.11	5805.99
439.32	5863.33
439.53	5814.18
439.74	5861.29
439.95	5910.44
440.16	5898.15
440.37	5943.21
440.57	5746.60
440.78	6018.98
440.99	6135.71
441.20	5885.86
441.41	5787.56
441.62	6066.08
441.83	5863.33
442.04	6109.09
442.25	6141.86
442.46	6004.64
442.67	6115.23
442.88	6436.77
443.09	5982.12
443.30	6254.50
443.51	6139.81
443.72	6551.45
443.93	6324.13
444.14	6485.92
444.35	6115.23
444.56	6270.88
444.77	6197.15
444.98	6395.81
445.19	6279.07
445.40	6285.22
445.61	6391.71
445.81	6717.34
446.02	6533.02
446.23	6344.61
446.44	6234.02
446.65	6623.13
446.86	6533.02
447.07	6651.80
447.28	6680.47
447.49	6731.67
447.70	6616.99
447.91	6723.48
448.12	6674.33
448.33	6885.27
448.54	6961.05
448.74	6723.48
448.95	6827.93
449.16	6590.36
449.37	7059.35
449.58	6705.05
449.79	7161.75
450.00	6795.16
450.21	7016.34
450.42	7047.06
450.63	6983.57
450.84	6936.47
451.05	7012.24
451.25	7120.79
451.46	7016.34
451.67	7327.63
451.88	7059.35
452.09	7176.08
452.30	7120.79
452.51	7169.94
452.72	7339.92
452.93	7622.54
453.13	7034.77
453.34	7376.78
453.55	7247.76
453.76	7454.61
453.97	7622.54
454.18	7487.37
454.39	7661.45
454.60	7622.54
454.81	7507.85
455.01	7577.48
455.22	7434.13
455.43	7653.26
455.64	7837.58
455.85	8071.04
456.06	7886.73
456.27	7849.86
456.48	7874.44
456.68	7769.99
456.89	7864.20
457.10	7980.93
457.31	7989.13
457.52	8038.28
457.73	8155.01
457.94	8341.38
458.14	8204.16
458.35	8302.47
458.56	8228.74
458.77	8028.04
458.98	8327.04
459.19	8478.59
459.39	8357.76
459.60	8689.53
459.81	8413.06
460.02	8503.17
460.23	8607.61
460.44	8728.44
460.65	8736.63
460.85	8687.48
461.06	8839.03
461.27	8474.49
461.48	8875.90
461.69	8949.62
461.89	8560.51
462.10	8882.04
462.31	8726.39
462.52	8968.06
462.73	8871.80
462.94	9234.29
463.14	8963.96
463.35	9062.26
463.56	9418.61
463.77	9414.51
463.98	9283.44
464.18	9281.39
464.39	9475.95
464.60	9572.21
464.81	9480.05
465.02	9639.79
465.23	9568.11
465.43	9604.97
465.64	9891.69
465.85	9854.83
466.06	9596.78
466.27	9981.80
466.47	9994.09
466.68	9854.83
466.89	9895.78
467.10	10207.08
467.30	9922.41
467.51	10018.66
467.72	10348.39
467.93	10028.90
468.14	10499.94
468.34	10475.36
468.55	10497.89
468.76	10407.78
468.97	10438.50
469.17	10657.63
469.38	10628.96
469.59	10903.39
469.80	10745.69
470.01	10921.82
470.21	10751.84
470.42	11036.50
470.63	11132.76
470.84	10966.87
471.04	11274.07
471.25	11263.83
471.46	11226.96
471.67	11456.34
471.87	11482.96
472.08	11669.33
472.29	11896.65
472.50	11300.69
472.70	11503.44
472.91	11595.60
473.12	11896.65
473.33	11968.33
473.53	12281.67
473.74	12156.74
473.95	12187.46
474.16	12248.90
474.36	12304.20
474.57	12431.17
474.78	12699.45
474.99	12427.07
475.19	12414.79
475.40	12871.48
475.61	13078.33
475.81	12994.36
476.02	13223.73
476.23	12990.27
476.44	13279.03
476.64	13637.42
476.85	13483.83
477.06	13287.22
477.27	13705.01
477.47	13793.07
477.68	13647.66
477.89	13782.83
478.09	13891.37
478.30	14106.41
478.51	13844.27
478.71	14186.28
478.92	14423.84
479.13	14669.60
479.34	14550.82
479.54	14599.97
479.75	14534.43
479.96	14714.66
480.16	14759.71
480.37	14880.54
480.58	14812.96
480.78	15367.96
480.99	15015.71
481.20	15460.12
481.41	15433.49
481.61	15593.23
481.82	15959.82
482.03	15435.54
482.23	15574.80
482.44	15941.39
482.65	16142.09
482.85	15949.58
483.06	16131.85
483.27	15830.80
483.47	16211.72
483.68	16389.89
483.89	16574.21
484.09	16428.81
484.30	16512.77
484.51	16723.71
484.71	16883.45
484.92	16619.27
485.13	16920.32
485.33	17237.75
485.54	17247.99
485.75	17299.19
485.95	17618.68
486.16	17563.38
486.37	17473.27
486.57	17553.14
486.78	17428.21
486.98	17665.78
487.19	17952.49
487.40	18233.07
487.60	18122.48
487.81	18470.63
488.02	18429.67
488.22	18267.88
488.43	18689.76
488.64	18618.08
488.84	18493.16
489.05	18808.54
489.25	18970.33
489.46	19214.04
489.67	18867.94
489.87	19345.11
490.08	19164.89
490.29	19443.42
490.49	19588.82
490.70	19568.34
490.90	19476.18
491.11	19396.31
491.32	19762.90
491.52	19918.54
491.73	19975.89
491.94	20055.76
492.14	20012.75
492.35	20043.47
492.55	20197.07
492.76	20457.16
492.97	20598.47
493.17	20580.04
493.38	20625.09
493.58	20788.93
493.79	20621.00
494.00	21040.83
494.20	20932.29
494.41	20905.66
494.61	21237.44
494.82	21079.74
495.02	20881.09
495.23	21565.11
495.44	21823.16
495.64	21481.14
495.85	21546.68
496.05	21817.01
496.26	21651.13
496.47	21804.72
496.67	21798.58
496.88	22185.65
497.08	21880.50
497.29	22197.93
497.49	22335.15
497.70	22296.24
497.91	22619.81
498.11	22249.13
498.32	22953.63
498.52	22582.95
498.73	23002.78
498.93	23039.65
499.14	22875.81
499.34	23090.85
499.55	23035.55
499.76	22763.17
499.96	23398.04
500.17	23060.13
500.37	23168.67
500.58	23459.48
500.78	23594.65
500.99	23443.10
501.19	23760.53
501.40	23703.19
501.60	23647.90
501.81	23680.66
502.02	23760.53
502.22	23666.33
502.43	23973.52
502.63	24268.43
502.84	23858.84
503.04	24157.84
503.25	24348.30
503.45	24155.79
503.66	24307.34
503.86	24039.06
504.07	24772.23
504.27	24473.23
504.48	24694.41
504.68	24532.62
504.89	25147.01
505.09	24876.68
505.30	25222.78
505.50	25060.99
505.71	25210.50
505.91	25179.78
506.12	25331.33
506.32	25130.62
506.53	25302.65
506.73	25024.13
506.94	25339.52
507.14	25271.93
507.35	25443.96
507.55	25591.42
507.76	25900.66
507.96	25321.09
508.17	25665.14
508.37	25706.10
508.58	25732.73
508.78	25867.89
508.99	25915.00
509.19	26130.03
509.40	25882.23
509.60	25919.09
509.81	26300.01
510.01	25982.58
510.22	26078.83
510.42	26185.33
510.63	26680.94
510.83	26437.23
511.04	26420.84
511.24	26556.01
511.44	26267.25
511.65	26414.70
511.85	26670.70
512.06	26654.31
512.26	26682.98
512.47	27158.11
512.67	26639.98
512.88	27068.00
513.08	26795.62
513.29	26912.36
513.49	26914.41
513.69	27141.73
513.90	27223.65
514.10	27174.50
514.31	27117.15
514.51	27248.22
514.72	27403.87
514.92	27151.97
515.13	27395.68
515.33	27702.87
515.53	27502.17
515.74	27754.07
515.94	27692.63
516.15	27481.69
516.35	27684.44
516.56	27913.81
516.76	27747.93
516.96	27813.46
517.17	28096.08
517.37	28120.66
517.58	28178.00
517.78	27903.57
517.99	28434.00
518.19	28485.20
518.39	28053.08
518.60	28560.97
518.80	28468.81
519.01	28532.30
519.21	28888.65
519.41	28450.38
519.62	28548.68
519.82	28878.41
520.03	28831.30
520.23	28780.10
520.43	29036.10
520.64	29343.30
520.84	29326.91
521.05	29077.06
521.25	29251.14
521.45	29201.99
521.66	29746.75
521.86	29455.93
522.07	29406.78
522.27	29742.65
522.47	29892.15
522.68	29832.76
522.88	30010.93
523.08	30207.54
523.29	30168.63
523.49	30512.69
523.70	30406.19
523.90	30428.72
524.10	30252.59
524.31	30629.42
524.51	30273.07
524.71	30957.10
524.92	30316.08
525.12	30987.82
525.33	31057.45
525.53	31319.59
525.73	31329.83
525.94	31073.83
526.14	31100.45
526.34	31391.26
526.55	31405.60
526.75	31249.96
526.95	31981.08
527.16	31911.45
527.36	32032.28
527.56	32112.15
527.77	32081.43
527.97	32194.07
528.17	32392.72
528.38	32366.10
528.58	32263.70
528.78	32335.38
528.99	32314.90
529.19	32554.51
529.39	32296.47
529.60	32857.61
529.80	32818.70
530.00	32615.95
530.21	33332.74
530.41	33105.41
530.61	33132.04
530.82	33334.79
531.02	33299.97
531.22	33299.97
531.43	33488.38
531.63	33924.60
531.83	33816.06
532.04	34219.51
532.24	33760.76
532.44	34250.23
532.64	34235.89
532.85	34328.05
533.05	34465.27
533.25	34663.92
533.46	34080.25
533.66	34565.62
533.86	34541.04
534.07	34997.74
534.27	34618.86
534.47	35030.51
534.67	34987.50
534.88	35280.36
535.08	35263.97
535.28	35374.56
535.49	35538.40
535.69	35659.23
535.89	36048.35
536.09	35849.69
536.30	35986.91
536.50	35999.19
536.70	36408.79
536.91	36167.13
537.11	35898.84
537.31	36455.89
537.51	36683.22
537.72	36894.16
537.92	36861.39
538.12	36769.23
538.32	36656.59
538.53	36890.06
538.73	36484.56
538.93	36849.10
539.13	36896.20
539.34	36916.68
539.54	37113.29
539.74	37684.67
539.94	37168.58
540.15	37264.84
540.35	37402.05
540.55	37440.96
540.75	37488.07
540.96	37567.94
541.16	37936.57
541.36	37901.76
541.56	37836.22
541.77	38333.88
541.97	38208.95
542.17	38337.98
542.37	38292.92
542.58	38114.75
542.78	38528.44
542.98	38514.10
543.18	38583.73
543.38	39017.90
543.59	39171.50
543.79	39046.57
543.99	38385.08
544.19	38845.87
544.40	38387.13
544.60	38933.93
544.80	39316.90
545.00	39224.75
545.20	39429.54
545.41	38974.89
545.61	39163.31
545.81	39587.24
546.01	39546.28
546.21	39447.97
546.42	39011.76
546.62	39675.30
546.82	39611.81
547.02	39419.30
547.22	39935.39
547.43	39802.27
547.63	39755.17
547.83	39558.56
548.03	39691.68
548.23	40185.24
548.44	40408.47
548.64	39886.24
548.84	40531.35
549.04	40367.51
549.24	40463.77
549.45	40932.75
549.65	39974.30
549.85	40177.05
550.05	40773.01
550.25	40246.68
550.45	41102.73
550.66	40568.21
550.86	40160.67
551.06	40865.17
551.26	40447.38
551.46	41026.96
551.66	40824.21
551.87	40844.69
552.07	40920.46
552.27	41088.40
552.47	41031.05
552.67	40836.50
552.87	40920.46
553.07	41268.62
553.28	41112.97
553.48	41328.01
553.68	41057.68
553.88	41651.59
554.08	41244.04
554.28	41446.79
554.48	40953.23
554.69	41446.79
554.89	41751.94
555.09	41389.45
555.29	41428.36
555.49	41911.68
555.69	41694.60
555.89	41760.13
556.10	41989.50
556.30	41483.66
556.50	41774.47
556.70	41530.76
556.90	42333.56
557.10	42102.14
557.30	41817.47
557.50	42351.99
557.70	42052.99
557.91	42603.89
558.11	42388.86
558.31	42212.73
558.51	42098.05
558.71	42558.84
558.91	42392.95
559.11	42007.94
559.31	42401.14
559.51	41840.00
559.72	42311.03
559.92	42503.54
560.12	42450.30
560.32	42562.93
560.52	42540.41
560.72	42763.64
560.92	42577.27
561.12	42694.00
561.32	42970.48
561.52	42669.43
561.72	43136.37
561.93	42620.28
562.13	42780.02
562.33	42239.36
562.53	43087.21
562.73	42532.22
562.93	42808.69
563.13	43171.18
563.33	42929.52
563.53	43117.93
563.73	42823.03
563.93	42972.53
564.13	43740.52
564.33	43375.98
564.53	43263.34
564.74	43767.14
564.94	43189.61
565.14	43382.12
565.34	43144.56
565.54	43310.44
565.74	43402.60
565.94	43924.83
566.14	43711.84
566.34	43689.32
566.54	44078.43
566.74	43308.40
566.94	43550.06
567.14	43797.86
567.34	43502.95
567.54	43703.65
567.74	43578.73
567.94	43674.98
568.14	43748.71
568.34	43677.03
568.54	44014.94
568.74	44332.38
568.94	43900.26
569.14	44234.08
569.34	44260.70
569.54	44189.02
569.75	44324.19
569.95	44426.59
570.15	44285.28
570.35	44258.65
570.55	44229.98
570.75	44434.78
570.95	44422.49
571.15	44109.15
571.35	44623.19
571.55	45217.10
571.75	44606.81
571.95	44655.96
572.15	44578.14
572.35	45028.69
572.55	44688.73
572.75	45065.55
572.95	44991.83
573.15	45200.72
573.35	45083.98
573.55	44911.95
573.75	45196.62
573.95	45223.25
574.15	45413.71
574.35	45610.31
574.55	45397.32
574.75	44946.77
574.95	45417.80
575.15	45403.47
575.34	45563.21
575.54	45843.78
575.74	45573.45
575.94	45899.08
576.14	45282.64
576.34	45753.67
576.54	46077.25
576.74	46052.67
576.94	45751.62
577.14	46224.70
577.34	46343.48
577.54	46097.73
577.74	46048.58
577.94	46495.03
578.14	46507.32
578.34	46691.64
578.54	46062.91
578.74	46400.83
578.94	46601.53
579.14	46363.96
579.34	46253.37
579.54	46239.04
579.74	47127.86
579.94	47119.66
580.13	46902.58
580.33	46875.96
580.53	46976.31
580.73	47240.50
580.93	47033.65
581.13	47004.98
581.33	47232.30
581.53	47326.51
581.73	47406.38
581.93	47324.46
582.13	47586.60
582.33	47486.25
582.53	47387.95
582.73	47824.17
582.92	48037.16
583.12	47777.06
583.32	47508.78
583.52	47486.25
583.72	47805.73
583.92	48651.55
584.12	48205.09
584.32	48633.11
584.52	48211.23
584.72	48022.82
584.92	48715.03
585.11	48708.89
585.31	48106.79
585.51	49050.90
585.71	48217.38
585.91	48317.73
586.11	48153.89
586.31	48663.83
586.51	48626.97
586.71	49028.37
586.91	49095.95
587.10	49184.02
587.30	48874.77
587.50	49124.63
587.70	49378.57
587.90	49292.56
588.10	49319.18
588.30	49290.51
588.50	49057.04
588.69	49624.33
588.89	49513.74
589.09	49511.69
589.29	49747.21
589.49	49415.44
589.69	49005.84
589.89	49708.30
590.08	49394.96
590.28	50087.17
590.48	49728.78
590.68	49554.70
590.88	50115.84
591.08	49657.10
591.28	49829.13
591.47	50322.69
591.67	49685.77
591.87	50545.92
592.07	50482.43
592.27	50339.07
592.47	50580.73
592.67	50337.02
592.86	50287.87
593.06	50451.71
593.26	50812.15
593.46	50760.95
593.66	50615.55
593.86	50509.05
594.05	50386.18
594.25	50576.64
594.45	50611.45
594.65	50529.53
594.85	50984.18
595.05	51207.41
595.24	51203.31
595.44	51193.07
595.64	50965.75
595.84	51000.57
596.04	51207.41
596.23	51404.02
596.43	51369.20
596.63	51105.01
596.83	50982.13
597.03	51414.26
597.22	51885.29
597.42	51791.08
597.62	52200.68
597.82	51881.19
598.02	51668.20
598.21	51956.97
598.41	51584.24
598.61	51811.56
598.81	51653.87
599.01	51840.23
599.20	51895.53
599.40	51938.54
599.60	52313.31
599.80	51987.69
600.00	52225.25
600.19	52391.14
600.39	51731.69
600.59	52358.37
600.79	52442.34
600.98	52294.88
601.18	52659.42
601.38	52577.50
601.58	52514.01
601.78	52944.09
601.97	52729.05
602.17	52788.44
602.37	53032.15
602.57	52923.61
602.76	53032.15
602.96	52442.34
603.16	53083.35
603.36	52784.35
603.55	52874.46
603.75	53140.69
603.95	52919.51
604.15	53064.92
604.34	53298.39
604.54	53322.96
604.74	53720.27
604.94	53617.87
605.13	53513.42
605.33	53738.70
605.53	53650.64
605.73	53589.20
605.92	53589.20
606.12	53634.25
606.32	53675.21
606.52	53884.11
606.71	53703.88
606.91	54097.09
607.11	53302.48
607.30	53613.77
607.50	53529.81
607.70	54166.73
607.90	53982.41
608.09	53800.14
608.29	54305.99
608.49	54093.00
608.68	54168.77
608.88	53802.19
609.08	53941.45
609.28	54490.30
609.47	53890.25
609.67	54351.04
609.87	53998.79
610.06	54553.79
610.26	54156.49
610.46	54265.03
610.66	54183.11
610.85	54271.17
611.05	54170.82
611.25	54678.72
611.44	53826.76
611.64	54822.08
611.84	54215.88
612.03	53916.87
612.23	54187.21
612.43	54596.80
612.62	54435.01
612.82	54375.62
613.02	54492.35
613.21	54318.28
613.41	54418.63
613.61	54396.10
613.80	54209.73
614.00	54916.28
614.20	54441.15
614.39	54656.19
614.59	54654.14
614.79	54615.23
614.98	54064.33
615.18	54715.58
615.38	54459.58
615.57	54439.11
615.77	54643.90
615.97	54367.43
616.16	54598.85
616.36	54635.71
616.56	54301.89
616.75	54551.74
616.95	54148.29
617.15	54174.92
617.34	54299.84
617.54	54717.63
617.74	54758.59
617.93	54566.08
618.13	54308.04
618.32	54447.30
618.52	54330.56
618.72	54457.54
618.91	54609.09
619.11	54170.82
619.31	54531.26
619.50	54627.52
619.70	54291.65
619.90	54441.15
620.09	54478.02
620.29	54049.99
620.48	54293.70
620.68	54920.38
620.88	53791.95
621.07	54394.05
621.27	54279.36
621.46	54265.03
621.66	54234.31
621.86	53935.30
622.05	54033.61
622.25	54627.52
622.44	54443.20
622.64	54084.81
622.84	54129.86
623.03	54303.94
623.23	54351.04
623.42	54553.79
623.62	54183.11
623.82	54502.59
624.01	54305.99
624.21	54490.30
624.40	54115.53
624.60	54408.39
624.80	54531.26
624.99	53984.46
625.19	53742.80
625.38	54310.08
625.58	53966.02
625.77	54015.18
625.97	54580.42
626.17	54080.71
626.36	53867.72
626.56	54320.32
626.75	53890.25
626.95	54729.92
627.14	54187.21
627.34	54404.29
627.54	53812.43
627.73	53820.62
627.93	53890.25
628.12	54310.08
628.32	54602.94
628.51	54105.29
628.71	54166.73
628.90	53980.36
629.10	54293.70
629.30	54140.10
629.49	54312.13
629.69	54183.11
629.88	53939.40
630.08	54588.61
630.27	54338.75
630.47	54009.03
630.66	53945.54
630.86	54396.10
631.05	53597.39
631.25	54748.35
631.44	54316.23
631.64	53837.00
631.84	54064.33
632.03	54731.96
632.23	54017.22
632.42	54588.61
632.62	54586.56
632.81	53781.71
633.01	54039.75
633.20	54607.04
633.40	54469.82
633.59	54121.67
633.79	54285.51
633.98	54439.11
634.18	54613.18
634.37	54865.08
634.57	54613.18
634.76	54729.92
634.96	54539.46
635.15	54955.19
635.35	54283.46
635.54	54383.81
635.74	55026.87
635.93	53996.74
636.13	54471.87
636.32	55004.34
636.52	54645.95
636.71	54189.25
636.91	54699.20
637.10	54803.64
637.30	54181.06
637.49	54475.97
637.69	54252.74
637.88	55692.46
638.08	54392.00
638.27	54680.77
638.46	54826.17
638.66	54396.10
638.85	54844.60
639.05	54922.43
639.24	55342.26
639.44	54803.64
639.63	54588.61
639.83	54836.41
640.02	55088.31
640.22	54922.43
640.41	55393.46
640.61	54467.78
640.80	55010.49
640.99	54527.17
641.19	55399.60
641.38	55053.50
641.58	54793.40
641.77	54830.27
641.97	54535.36
642.16	54893.75
642.36	55166.13
642.55	55407.79
642.74	54684.86
642.94	55596.21
643.13	55270.58
643.33	55438.51
643.52	55291.06
643.72	55338.16
643.91	55055.54
644.10	55325.88
644.30	55657.65
644.49	55231.67
644.69	55669.93
644.88	55622.83
645.08	55246.00
645.27	55370.93
645.46	55162.04
645.66	55596.21
645.85	55243.96
646.05	55506.10
646.24	55579.82
646.43	55927.98
646.63	55905.45
646.82	56026.28
647.02	55839.92
647.21	55801.00
647.40	55696.56
647.60	55686.32
647.79	56272.04
647.99	55997.61
648.18	55948.46
648.37	56235.17
648.57	56114.34
648.76	55948.46
648.96	55784.62
649.15	56558.75
649.34	56425.64
649.54	56216.74
649.73	55956.65
649.92	56140.97
650.12	56280.23
650.31	56513.70
650.51	56177.83
650.70	56251.56
650.89	56341.67
651.09	56591.52
651.28	56325.28
651.47	56497.31
651.67	56100.01
651.86	56720.54
652.06	56077.48
652.25	56501.41
652.44	56235.17
652.64	56022.19
652.83	56282.28
653.02	56249.51
653.22	56351.91
653.41	56224.93
653.60	56276.13
653.80	56212.65
653.99	57164.95
654.18	56564.90
654.38	56626.34
654.57	56675.49
654.76	56568.99
654.96	56624.29
655.15	56509.60
655.34	56718.49
655.54	56843.42
655.73	56693.92
655.92	56888.48
656.12	56712.35
656.31	56712.35
656.50	56806.56
656.70	56771.74
656.89	56829.08
657.08	56784.03
657.28	56730.78
657.47	56884.38
657.66	56904.86
657.86	56642.72
658.05	56900.76
658.24	56659.10
658.43	56685.73
658.63	56986.78
658.82	56886.43
659.01	57326.74
659.21	57394.32
659.40	56829.08
659.59	56779.93
659.79	57085.08
659.98	56931.48
660.17	57359.51
660.36	56990.87
660.56	56947.87
660.75	57148.57
660.94	57160.86
661.14	56769.69
661.33	56722.59
661.52	56644.77
661.71	57230.49
661.91	56865.95
662.10	57406.61
662.29	57361.56
662.49	57484.43
662.68	57152.66
662.87	57167.00
663.06	57525.39
663.26	57263.25
663.45	57588.88
663.64	57185.43
663.83	57625.74
664.03	57564.31
664.22	57724.05
664.41	57562.26
664.60	57289.88
664.80	57488.53
664.99	57617.55
665.18	57488.53
665.37	57775.25
665.57	57349.27
665.76	56898.72
665.95	57375.89
666.14	57236.63
666.34	57756.81
666.53	57320.60
666.72	57283.73
666.91	57085.08
667.11	56712.35
667.30	57228.44
667.49	57296.02
667.68	57541.78
667.87	57138.33
668.07	57353.36
668.26	57568.40
668.45	57533.59
668.64	57205.91
668.84	57418.90
669.03	57648.27
669.22	57435.28
669.41	57185.43
669.60	57623.70
669.80	57595.03
669.99	57697.42
670.18	57472.15
670.37	57250.97
670.57	57746.57
670.76	57539.73
670.95	58012.81
671.14	57162.90
671.33	57140.38
671.53	57418.90
671.72	57416.85
671.91	57298.07
672.10	57115.80
672.29	57058.46
672.48	57091.22
672.68	57377.94
672.87	57345.17
673.06	56941.72
673.25	56904.86
673.44	57007.26
673.64	57064.60
673.83	57066.65
674.02	57164.95
674.21	56890.52
674.40	57216.15
674.59	57123.99
674.79	57296.02
674.98	57070.75
675.17	57404.56
675.36	56896.67
675.55	57220.25
675.74	56859.80
675.94	56915.10
676.13	57078.94
676.32	56923.29
676.51	57339.03
676.70	56896.67
676.89	57033.88
677.08	57547.92
677.28	56679.58
677.47	57201.82
677.66	57334.93
677.85	56798.37
678.04	57197.72
678.23	57431.19
678.42	57490.58
678.62	56640.67
678.81	57504.91
679.00	56919.20
679.19	57781.39
679.38	57142.42
679.57	57296.02
679.76	56630.43
679.96	57291.93
680.15	57066.65
680.34	57183.38
680.53	56616.10
680.72	57160.86
680.91	56800.41
681.10	56183.97
681.29	56366.24
681.48	56853.66
681.68	56865.95
681.87	56456.35
682.06	56693.92
682.25	56341.67
682.44	56411.30
682.63	56710.30
682.82	56485.03
683.01	56396.96
683.20	56046.76
683.39	56325.28
683.59	55985.32
683.78	55792.81
683.97	55995.56
684.16	56411.30
684.35	56020.14
684.54	56192.17
684.73	55981.23
684.92	56163.50
685.11	56022.19
685.30	56341.67
685.49	56159.40
685.69	55921.83
685.88	56138.92
686.07	55532.72
686.26	55878.83
686.45	55973.03
686.64	56022.19
686.83	55755.95
687.02	55794.86
687.21	56040.62
687.40	56194.21
687.59	55747.76
687.78	55686.32
687.97	56259.75
688.16	55612.59
688.35	55911.59
688.54	55131.32
688.74	55401.65
688.93	55489.71
689.12	55483.57
689.31	55493.81
689.50	55624.88
689.69	55350.45
689.88	54875.32
690.07	55858.35
690.26	55051.45
690.45	55598.26
690.64	55131.32
690.83	55026.87
691.02	55157.94
691.21	55084.22
691.40	54826.17
691.59	55342.26
691.78	54912.19
691.97	55108.79
692.16	55192.76
692.35	55401.65
692.54	54932.67
692.73	54965.43
692.92	54973.63
693.11	55112.89
693.30	54604.99
693.49	54940.86
693.68	54789.31
693.87	54465.73
694.06	54719.68
694.25	54514.88
694.44	54834.36
694.63	54830.27
694.82	54310.08
695.01	54203.59
695.20	54719.68
695.39	54609.09
695.58	54809.79
695.77	54650.05
695.96	54195.40
696.15	54580.42
696.34	54293.70
696.53	54361.28
696.72	54121.67
696.91	54246.60
697.10	54203.59
697.29	54113.48
697.48	54088.90
697.67	54191.30
697.86	53810.38
698.05	53703.88
698.24	54299.84
698.43	53232.85
698.62	54379.71
698.81	53576.91
699.00	54027.46
699.19	53634.25
699.38	53806.28
699.57	53880.01
699.76	54199.49
699.95	53232.85
700.14	53458.13
700.32	53712.08
700.51	53693.64
700.70	53884.11
700.89	53540.05
701.08	53794.00
701.27	53697.74
701.46	54025.42
701.65	53155.03
701.84	53593.29
702.03	53697.74
702.22	53003.48
702.41	53406.93
702.60	53320.91
702.79	53693.64
702.98	52970.71
703.17	53255.38
703.35	52851.93
703.54	53263.57
703.73	52993.24
703.92	52960.47
704.11	53028.05
704.30	52888.79
704.49	53056.73
704.68	52896.98
704.87	52896.98
705.06	52430.05
705.25	52485.34
705.43	52628.70
705.62	52872.41
705.81	52526.30
706.00	52876.51
706.19	52348.13
706.38	52098.28
706.57	52499.68
706.76	52530.40
706.95	52559.07
707.14	52425.95
707.32	52036.84
707.51	51995.88
707.70	51885.29
707.89	52348.13
708.08	52100.32
708.27	52618.46
708.46	52860.12
708.65	51901.67
708.84	52266.21
709.02	52264.16
709.21	52514.01
709.40	52024.55
709.59	51983.59
709.78	51559.66
709.97	52204.77
710.16	52114.66
710.34	51569.90
710.53	52270.31
710.72	51539.18
710.91	51582.19
711.10	52159.72
711.29	51598.57
711.48	52024.55
711.66	51473.65
711.85	51291.38
712.04	51500.27
712.23	51887.34
712.42	51533.04
712.61	51393.78
712.80	51025.14
712.98	51031.29
713.17	51696.88
713.36	51346.67
713.55	51002.61
713.74	51176.69
713.93	51336.43
714.11	51524.85
714.30	50996.47
714.49	50722.04
714.68	51272.95
714.87	51082.48
715.06	51463.41
715.24	50918.65
715.43	50926.84
715.62	50873.59
715.81	50908.41
716.00	51062.00
716.18	50763.00
716.37	50910.46
716.56	50750.71
716.75	51610.86
716.94	50939.13
717.12	50246.91
717.31	50984.18
717.50	50433.28
717.69	50296.06
717.88	50474.24
718.06	50668.79
718.25	50889.98
718.44	50865.40
718.63	50420.99
718.82	49878.28
719.00	50009.35
719.19	50167.04
719.38	50173.19
719.57	49972.49
719.76	50009.35
719.94	49597.71
720.13	49431.82
720.32	50091.27
720.51	50083.08
720.69	49370.38
720.88	49603.85
721.07	49661.19
721.26	49177.87
721.44	49362.19
721.63	49235.22
721.82	48987.41
722.01	48807.19
722.20	49399.05
722.38	49206.55
722.57	49052.95
722.76	49339.66
722.95	49335.57
723.13	48567.58
723.32	48792.86
723.51	48903.45
723.70	48821.53
723.88	48760.09
724.07	48663.83
724.26	48774.42
724.44	48203.04
724.63	49370.38
724.82	48762.14
725.01	48563.48
725.19	48608.54
725.38	48612.63
725.57	48379.17
725.76	48712.98
725.94	48547.10
726.13	48119.07
726.32	48413.98
726.51	48153.89
726.69	48616.73
726.88	48534.81
727.07	48301.34
727.25	48678.17
727.44	48440.60
727.63	48315.68
727.82	47918.37
728.00	48373.02
728.19	48127.27
728.38	48471.32
728.56	47805.73
728.75	48383.26
728.94	48495.90
729.12	48332.06
729.31	48176.42
729.50	47961.38
729.69	48340.25
729.87	48436.51
730.06	48287.01
730.25	47871.27
730.43	48397.60
730.62	48293.15
730.81	48629.02
730.99	48215.33
731.18	48186.66
731.37	48522.52
731.55	48307.49
731.74	48540.96
731.93	48342.30
732.11	48131.36
732.30	48121.12
732.49	48035.11
732.67	48020.77
732.86	48037.16
733.05	47887.65
733.23	47703.34
733.42	47889.70
733.61	48323.87
733.79	47856.93
733.98	48272.67
734.17	47713.58
734.35	48016.68
734.54	48049.44
734.73	48426.27
734.91	47994.15
735.10	47998.24
735.29	48477.47
735.47	47889.70
735.66	48104.74
735.84	48225.57
736.03	47772.97
736.22	47895.85
736.40	47684.90
736.59	47932.71
736.78	47766.82
736.96	48033.06
737.15	48112.93
737.33	47895.85
737.52	47455.53
737.71	47637.80
737.89	47453.48
738.08	47318.32
738.27	47758.63
738.45	48301.34
738.64	47267.12
738.82	47430.96
739.01	47308.08
739.20	47346.99
739.38	48026.92
739.57	47748.39
739.75	48008.48
739.94	47549.74
740.13	47467.82
740.31	47033.65
740.50	47715.62
740.68	47486.25
740.87	47713.58
741.06	47512.88
741.24	47154.48
741.43	47306.03
741.61	47777.06
741.80	47346.99
741.99	47445.29
742.17	47183.15
742.36	47252.78
742.54	47717.67
742.73	47146.29
742.91	47203.63
743.10	47666.47
743.29	47181.10
743.47	47240.50
743.66	47185.20
743.84	47496.49
744.03	47127.86
744.21	47093.04
744.40	47476.01
744.59	46861.62
744.77	47031.60
744.96	47254.83
745.14	47097.14
745.33	47037.75
745.51	46978.36
745.70	47224.11
745.88	46658.87
746.07	46894.39
746.26	46859.57
746.44	46675.26
746.63	46898.48
746.81	46634.30
747.00	46703.93
747.18	47084.85
747.37	46546.23
747.55	46816.57
747.74	46935.35
747.92	46650.68
748.11	46230.85
748.29	46679.35
748.48	46765.37
748.66	46236.99
748.85	46468.41
749.03	46521.66
749.22	46654.78
749.41	46386.49
749.59	46579.00
749.78	46118.21
749.96	46058.82
750.15	45927.75
750.33	46406.97
750.52	46325.05
750.70	46454.08
750.89	46712.12
751.07	45679.94
751.26	46538.04
751.44	45821.25
751.63	46120.26
751.81	45708.61
752.00	45933.89
752.18	46124.35
752.37	46021.95
752.55	45655.37
752.74	45817.16
752.92	45606.22
753.10	45868.36
753.29	46060.87
753.47	45469.00
753.66	45636.94
753.84	45917.51
754.03	45745.48
754.21	45497.67
754.40	45819.20
754.58	46126.40
754.77	46017.86
754.95	45290.83
755.14	45469.00
755.32	45581.64
755.51	44840.28
755.69	45012.31
755.88	44991.83
756.06	45339.98
756.24	45352.27
756.43	45192.53
756.61	45239.63
756.80	45225.29
756.98	44602.71
757.17	45081.94
757.35	45102.42
757.54	45253.97
757.72	45378.89
757.90	45008.21
758.09	44997.97
758.27	45094.22
758.46	44729.69
758.64	45139.28
758.83	44655.96
759.01	44938.58
759.19	44793.17
759.38	44852.56
759.56	45112.66
759.75	44524.89
759.93	44676.44
760.12	44406.11
760.30	44242.27
760.48	44322.14
760.67	44563.80
760.85	44262.75
761.04	44328.28
761.22	44287.32
761.40	44553.56
761.59	44340.57
761.77	44277.08
761.96	44293.47
762.14	43933.03
762.32	44219.74
762.51	44062.05
762.69	44019.04
762.88	43779.43
763.06	44027.23
763.24	44068.19
763.43	43834.72
763.61	43752.80
763.80	43713.89
763.98	43791.72
764.16	43586.92
764.35	43494.76
764.53	43363.69
764.72	43513.19
764.90	43830.63
765.08	43412.84
765.27	43390.31
765.45	43216.24
765.63	42980.72
765.82	43824.48
766.00	43027.82
766.18	43500.90
766.37	43087.21
766.55	42988.91
766.74	43246.96
766.92	42988.91
767.10	43179.37
767.29	42868.08
767.47	42640.76
767.65	43351.40
767.84	42931.57
768.02	42972.53
768.20	42116.48
768.39	42823.03
768.57	43001.20
768.75	42595.70
768.94	42825.07
769.12	42552.69
769.30	42315.13
769.49	42397.05
769.67	41946.50
769.85	42163.58
770.04	42108.29
770.22	42089.85
770.40	42042.75
770.59	42001.79
770.77	41813.38
770.95	41850.24
771.14	41624.96
771.32	42149.24
771.50	41571.72
771.69	42052.99
771.87	42208.64
772.05	41608.58
772.24	41547.14
772.42	41731.46
772.60	41440.65
772.78	41227.66
772.97	41233.80
773.15	41758.08
773.33	41280.91
773.52	41311.63
773.70	41344.39
773.88	41551.24
774.07	41014.67
774.25	41342.35
774.43	41121.16
774.61	41332.11
774.80	41467.27
774.98	41538.95
775.16	41356.68
775.34	41495.94
775.53	40711.57
775.71	41602.44
775.89	41487.75
776.08	41317.77
776.26	41518.47
776.44	41459.08
776.62	41723.27
776.81	40869.26
776.99	41657.73
777.17	41297.29
777.35	41520.52
777.54	41653.64
777.72	41047.44
777.90	41457.03
778.08	41725.32
778.27	41289.10
778.45	41581.96
778.63	41457.03
778.81	41258.38
779.00	42257.79
779.18	41596.29
779.36	42093.95
779.54	41516.42
779.73	41745.80
779.91	41952.64
780.09	41602.44
780.27	41862.53
780.46	41954.69
780.64	42034.56
780.82	42022.27
781.00	41885.06
781.19	42052.99
781.37	42294.65
781.55	42161.53
781.73	42370.43
781.91	41811.33
782.10	41973.12
782.28	41938.30
782.46	41946.50
782.64	42319.23
782.82	41770.37
783.01	41942.40
783.19	42136.96
783.37	42343.80
783.55	42116.48
783.74	42179.96
783.92	42153.34
784.10	42831.22
784.28	42194.30
784.46	41782.66
784.64	42046.85
784.83	42308.99
785.01	41991.55
785.19	41930.11
785.37	42081.66
785.55	41596.29
785.74	41633.16
785.92	41729.41
786.10	42106.24
786.28	41883.01
786.46	41596.29
786.64	41612.68
786.83	41416.07
787.01	41680.26
787.19	41887.10
787.37	41753.99
787.55	41500.04
787.74	41235.85
787.92	41559.43
788.10	41385.35
788.28	41266.57
788.46	41235.85
788.64	40512.92
788.82	41440.65
789.01	41282.95
789.19	41100.68
789.37	41010.57
789.55	41485.70
789.73	40797.59
789.91	40818.07
790.09	40891.79
790.28	40390.04
790.46	40498.58
790.64	40592.79
790.82	40594.84
791.00	40344.98
791.18	39837.09
791.36	40496.53
791.55	40252.83
791.73	40226.20
791.91	39863.71
792.09	39759.27
792.27	40177.05
792.45	39814.56
792.63	39779.74
792.81	39726.50
793.00	39435.69
793.18	39673.25
793.36	39357.86
793.54	39091.63
793.72	39144.87
793.90	39374.25
794.08	38766.00
794.26	38938.03
794.44	38616.50
794.62	38669.75
794.81	38852.02
794.99	38624.69
795.17	38442.42
795.35	38733.23
795.53	38426.04
795.71	38663.60
795.89	38614.45
796.07	38294.97
796.25	37776.83
796.43	37914.05
796.61	37776.83
796.80	37580.23
796.98	37764.54
797.16	37602.75
797.34	37782.98
797.52	37172.68
797.70	37662.15
797.88	37516.74
798.06	36955.60
798.24	37082.57
798.42	37111.24
798.60	37092.81
798.78	37062.09
798.96	37178.82
799.14	36546.00
799.32	37107.15
799.51	36355.54
799.69	36763.09
799.87	36363.73
800.05	36490.71
800.23	36089.31
800.41	36150.74
800.59	36292.05
800.77	36279.77
800.95	35558.88
801.13	35950.04
801.31	35614.18
801.49	35888.60
801.67	35489.25
801.85	35646.94
802.03	35143.14
802.21	35378.66
802.39	35245.54
802.57	35042.79
802.75	35274.21
802.93	35188.20
803.11	34739.69
803.29	35184.10
803.47	34606.58
803.65	34858.48
803.83	35022.31
804.01	34407.92
804.19	34547.18
804.37	34174.45
804.55	34409.97
804.73	34469.36
804.91	34213.37
805.09	34401.78
805.27	34133.50
805.45	34047.48
805.63	34139.64
805.81	33680.89
805.99	33983.99
806.17	34168.31
806.35	33582.59
806.53	33510.91
806.71	33641.98
806.89	33572.35
807.07	33525.25
807.25	33609.22
807.43	33043.98
807.61	33267.20
807.79	33183.24
807.97	32767.50
808.15	32884.23
808.33	33009.16
808.51	33043.98
808.69	32787.98
808.87	33021.45
809.05	32151.06
809.23	32323.09
809.41	32388.63
809.59	32095.77
809.77	32239.12
809.95	32044.57
810.13	32228.88
810.31	32304.66
810.49	32187.92
810.67	31786.52
810.84	32155.16
811.02	32120.34
811.20	31637.02
811.38	31944.22
811.56	31706.65
811.74	31612.45
811.92	31352.35
812.10	31424.03
812.28	31880.73
812.46	31655.45
812.64	31481.38
812.82	31200.80
813.00	31010.34
813.18	30987.82
813.36	30774.83
813.53	30760.49
813.71	31022.63
813.89	30606.89
814.07	31036.97
814.25	31018.53
814.43	30895.66
814.61	30797.35
814.79	30197.30
814.97	30424.62
815.15	30826.03
815.33	30465.58
815.50	30197.30
815.68	30422.58
815.86	30621.23
816.04	30197.30
816.22	30119.48
816.40	30117.43
816.58	29896.25
816.76	29843.00
816.94	30049.85
817.11	30068.28
817.29	29918.78
817.47	29939.26
817.65	29666.88
817.83	29732.41
818.01	29138.50
818.19	29220.42
818.37	29505.09
818.54	29193.79
818.72	29097.54
818.90	29316.67
819.08	29523.52
819.26	29408.83
819.44	29187.65
819.62	29136.45
819.80	29343.30
819.97	29111.88
820.15	29046.34
820.33	28931.65
820.51	29292.10
820.69	28708.43
820.87	28755.53
821.05	28882.50
821.22	29001.29
821.40	28773.96
821.58	28528.20
821.76	28569.16
821.94	28577.36
822.12	28786.25
822.29	28649.03
822.47	28325.46
822.65	28569.16
822.83	28765.77
823.01	28468.81
823.19	28276.30
823.36	28390.99
823.54	27790.94
823.72	27932.25
823.90	28194.39
824.08	27743.83
824.25	27975.25
824.43	27932.25
824.61	27776.60
824.79	27965.01
824.97	27825.75
825.15	27981.40
825.32	27700.83
825.50	27635.29
825.68	27774.55
825.86	27795.03
826.04	27803.22
826.21	27500.12
826.39	27567.71
826.57	27389.53
826.75	27680.35
826.93	27356.77
827.10	27381.34
827.28	27524.70
827.46	27512.41
827.64	27313.76
827.81	27088.48
827.99	27338.33
828.17	26994.28
828.35	27242.08
828.53	26986.08
828.70	27039.33
828.88	27039.33
829.06	26893.93
829.24	27170.40
829.41	26973.80
829.59	27338.33
829.77	26637.93
829.95	27010.66
830.12	26711.66
830.30	26871.40
830.48	26908.26
830.66	26734.18
830.84	26793.58
831.01	26580.59
831.19	26801.77
831.37	26406.51
831.55	26601.07
831.72	26332.78
831.90	26328.69
832.08	26351.21
832.25	26525.29
832.43	26310.25
832.61	26039.92
832.79	26099.31
832.96	26277.49
833.14	26023.54
833.32	26474.09
833.50	26183.28
833.67	26371.69
833.85	26234.48
834.03	25976.44
834.20	26322.54
834.38	26117.75
834.56	26160.75
834.74	25704.06
834.91	26283.63
835.09	25618.04
835.27	25749.11
835.44	25726.58
835.62	25706.10
835.80	25716.34
835.98	25505.40
836.15	25613.95
836.33	25611.90
836.51	25495.16
836.68	25263.74
836.86	25689.72
837.04	25405.05
837.21	25327.23
837.39	25587.32
837.57	25441.92
837.75	25482.88
837.92	25222.78
838.10	25349.76
838.28	25005.70
838.45	25114.24
838.63	25224.83
838.81	25142.91
838.98	25220.74
839.16	25089.67
839.34	24979.07
839.51	24802.95
839.69	24807.05
839.87	24735.37
840.04	24833.67
840.22	24968.84
840.40	24800.90
840.57	24587.91
840.75	24659.59
840.93	24553.10
841.10	24659.59
841.28	24888.96
841.46	24782.47
841.63	24766.09
841.81	24731.27
841.98	24655.50
842.16	24839.81
842.34	24786.57
842.51	24415.88
842.69	24616.58
842.87	24688.26
843.04	24682.12
843.22	24149.65
843.40	24553.10
843.57	24219.28
843.75	24409.74
843.92	24534.67
844.10	24614.54
844.28	24481.42
844.45	24405.64
844.63	24376.97
844.81	24041.11
844.98	24262.29
845.16	24475.27
845.33	24227.47
845.51	24385.16
845.69	24059.54
845.86	23944.85
846.04	23996.05
846.21	24200.85
846.39	23973.52
846.57	23647.90
846.74	24112.78
846.92	23895.70
847.09	23699.09
847.27	23496.35
847.45	23805.59
847.62	23916.18
847.80	24032.91
847.97	23789.20
848.15	23709.33
848.32	23660.18
848.50	23688.85
848.68	23457.43
848.85	23762.58
849.03	23396.00
849.20	23613.08
849.38	23424.67
849.56	23705.24
849.73	23627.42
849.91	23260.83
850.08	23590.55
850.26	23314.08
850.43	23189.15
850.61	23307.93
850.78	23088.80
850.96	23060.13
851.14	23332.51
851.31	23226.01
851.49	22988.45
851.66	23443.10
851.84	23160.48
852.01	23211.68
852.19	23129.76
852.36	23203.49
852.54	23189.15
852.71	22826.66
852.89	22664.87
853.07	22888.10
853.24	22871.72
853.42	23092.90
853.59	22836.90
853.77	22935.20
853.94	22935.20
854.12	22922.91
854.29	22714.02
854.47	22904.48
854.64	22744.74
854.82	22570.66
854.99	22722.21
855.17	22689.45
855.34	22722.21
855.52	22752.93
855.69	22671.01
855.87	22472.36
856.04	22634.15
856.22	22519.46
856.39	22337.20
856.57	22240.94
856.74	22537.90
856.92	22398.63
857.09	22496.94
857.27	22533.80
857.44	22392.49
857.62	22275.76
857.79	22249.13
857.97	22152.88
858.14	22304.43
858.32	22017.71
858.49	22138.54
858.67	22003.38
858.84	21929.65
859.02	22339.24
859.19	21960.37
859.37	21993.14
859.54	21561.02
859.72	22214.32
859.89	21878.45
860.06	21860.02
860.24	22195.89
860.41	21923.51
860.59	21847.73
860.76	21931.70
860.94	21200.57
861.11	21702.32
861.29	21610.17
861.46	21511.86
861.64	21348.03
861.81	21726.90
861.98	21352.12
862.16	21542.58
862.33	21307.07
862.51	21239.48
862.68	21458.62
862.86	21376.70
863.03	21577.40
863.21	21032.64
863.38	21264.06
863.55	21427.90
863.73	21192.38
863.90	21032.64
864.08	21079.74
864.25	21331.64
864.43	21165.76
864.60	20985.54
864.77	20885.19
864.95	21094.08
865.12	20956.86
865.30	21241.53
865.47	20942.53
865.64	20653.76
865.82	21161.66
865.99	20852.42
866.17	20981.44
866.34	20913.86
866.51	20776.64
866.69	20889.28
866.86	20932.29
867.04	20618.95
867.21	20735.68
867.38	20563.65
867.56	20610.76
867.73	20596.42
867.91	20416.20
868.08	20661.96
868.25	20248.27
868.43	20346.57
868.60	20285.13
868.78	20264.65
868.95	20440.78
869.12	20082.38
869.30	20158.16
869.47	20307.66
869.64	20455.11
869.82	20203.21
869.99	20047.57
870.16	20387.53
870.34	19934.93
870.51	20102.86
870.69	20094.67
870.86	20076.24
871.03	20037.33
871.21	20031.18
871.38	20256.46
871.55	19861.20
871.73	19721.94
871.90	19642.07
872.07	19654.36
872.25	19588.82
872.42	19537.62
872.59	19609.30
872.77	19762.90
872.94	19586.77
873.11	19414.74
873.29	19666.64
873.46	19304.15
873.63	19269.34
873.81	19611.35
873.98	19361.50
874.15	19431.13
874.33	19144.41
874.50	19173.08
874.67	19029.73
874.85	19091.16
875.02	19142.36
875.19	19087.07
875.37	18939.62
875.54	18951.90
875.71	19168.99
875.88	18644.71
876.06	18718.43
876.23	18976.48
876.40	18929.38
876.58	18718.43
876.75	19042.01
876.92	18749.15
877.10	18525.93
877.27	18622.18
877.44	18458.34
877.61	18839.26
877.79	18644.71
877.96	18507.49
878.13	18370.28
878.31	18407.14
878.48	18339.56
878.65	18167.53
878.82	18136.81
879.00	18333.42
879.17	18153.20
879.34	18216.68
879.51	18065.13
879.69	18159.34
879.86	17852.14
880.03	18130.67
880.21	18026.22
880.38	18097.90
880.55	18013.93
880.72	17975.02
880.90	18122.48
881.07	17819.38
881.24	18079.47
881.41	17940.21
881.59	17860.34
881.76	17848.05
881.93	17940.21
882.10	17655.54
882.28	17483.51
882.45	17737.46
882.62	17436.41
882.79	17635.06
882.96	17186.55
883.14	17579.76
883.31	17585.91
883.48	17510.13
883.65	17440.50
883.83	17553.14
884.00	17440.50
884.17	17524.47
884.34	17450.74
884.51	17432.31
884.69	17438.45
884.86	17368.82
885.03	17229.56
885.20	17061.63
885.38	17516.28
885.55	17065.72
885.72	17417.97
885.89	17225.47
886.06	17364.73
886.24	17133.31
886.41	17022.72
886.58	17424.12
886.75	17307.38
886.92	16965.37
887.10	17121.02
887.27	17006.33
887.44	16854.78
887.61	17104.64
887.78	17198.84
887.95	17139.45
888.13	17049.34
888.30	17012.48
888.47	16858.88
888.64	16703.23
888.81	16926.46
888.99	16824.06
889.16	16766.72
889.33	16779.01
889.50	16545.54
889.67	16594.69
889.84	16371.46
890.01	16535.30
890.19	16441.09
890.36	16523.01
890.53	16328.45
890.70	16377.61
890.87	16494.34
891.04	16561.92
891.22	16199.43
891.39	16205.58
891.56	16318.22
891.73	16312.07
891.90	16172.81
892.07	15992.59
892.24	16267.02
892.42	16183.05
892.59	16158.47
892.76	16064.27
892.93	16043.79
893.10	16027.40
893.27	15935.24
893.44	16168.71
893.61	15742.74
893.79	15890.19
893.96	15972.11
894.13	15910.67
894.30	15972.11
894.47	15818.51
894.64	16058.12
894.81	15761.17
894.98	15863.57
895.15	16029.45
895.33	15709.97
895.50	15869.71
895.67	16168.71
895.84	15767.31
896.01	15832.85
896.18	15632.15
896.35	16170.76
896.52	15726.35
896.69	15531.80
896.86	15787.79
897.04	15884.05
897.21	15650.58
897.38	15687.44
897.55	15519.51
897.72	15841.04
897.89	15699.73
898.06	15765.26
898.23	15740.69
898.40	15562.51
898.57	15675.15
898.74	15941.39
898.91	15744.78
899.08	15580.95
899.26	15603.47
899.43	15660.82
899.60	15775.50
899.77	15773.46
899.94	15654.67
900.11	15755.02
900.28	15585.04
900.45	15492.88
900.62	15515.41
900.79	15953.68
900.96	15453.97
901.13	15673.10
901.30	15558.42
901.47	15306.52
901.64	15675.15
901.81	15695.63
901.98	15632.15
902.15	15669.01
902.32	15257.37
902.49	15640.34
902.66	15476.50
902.83	15400.72
903.01	15464.21
903.18	15587.09
903.35	15697.68
903.52	15501.08
903.69	15646.48
903.86	15601.43
904.03	15748.88
904.20	15859.47
904.37	15566.61
904.54	15492.88
904.71	15509.27
904.88	15490.84
905.05	15501.08
905.22	15519.51
905.39	15517.46
905.56	15247.13
905.73	15343.38
905.90	15398.68
906.07	15558.42
906.24	15709.97
906.41	15425.30
906.58	15542.03
906.75	15587.09
906.92	15505.17
907.09	15398.68
907.26	15337.24
907.43	15404.82
907.60	15351.57
907.77	15712.02
907.93	15447.83
908.10	15466.26
908.27	15183.64
908.44	15206.17
908.61	15126.30
908.78	15380.25
908.95	15388.44
909.12	15114.01
909.29	15320.85
909.46	15378.20
909.63	15525.65
909.80	15460.12
909.97	15236.89
910.14	15040.28
910.31	15204.12
910.48	15181.59
910.65	15007.52
910.82	15126.30
910.99	14882.59
911.16	15042.33
911.33	15167.26
911.50	15179.54
911.66	14937.88
911.83	14939.93
912.00	15038.23
912.17	14823.20
912.34	14946.08
912.51	14978.84
912.68	14909.21
912.85	14829.34
913.02	14903.07
913.19	14776.09
913.36	14917.40
913.53	14724.90
913.70	14632.74
913.86	14862.11
914.03	14808.86
914.20	14700.32
914.37	14710.56
914.54	14647.07
914.71	14425.89
914.88	14706.46
915.05	14321.45
915.22	14358.31
915.39	14329.64
915.55	14432.04
915.72	14554.91
915.89	14243.62
916.06	14055.21
916.23	14233.38
916.40	14018.35
916.57	14122.79
916.74	14057.26
916.91	14309.16
917.07	13981.48
917.24	13920.04
917.41	14044.97
917.58	13981.48
917.75	13639.47
917.92	13723.44
918.09	13854.51
918.26	13580.08
918.42	13829.93
918.59	13643.57
918.76	13731.63
918.93	13602.61
919.10	13510.45
919.27	13436.72
919.44	13567.79
919.60	13381.43
919.77	13555.51
919.94	13383.48
920.11	13297.46
920.28	13401.91
920.45	13109.05
920.61	13076.28
920.78	12998.46
920.95	13096.76
921.12	13403.96
921.29	13049.66
921.46	13057.85
921.62	12834.62
921.79	13168.44
921.96	12894.01
922.13	12799.80
922.30	12717.89
922.47	12638.02
922.63	12670.78
922.80	12713.79
922.97	12515.14
923.14	12435.27
923.31	12695.36
923.47	12379.97
923.64	12644.16
923.81	12275.52
923.98	12515.14
924.15	12367.68
924.32	12140.36
924.48	12341.06
924.65	12334.92
924.82	12136.26
924.99	12037.96
925.15	11876.17
925.32	12201.80
925.49	11839.31
925.66	11972.43
925.83	11683.66
925.99	11689.81
926.16	11888.46
926.33	11814.73
926.50	11495.25
926.67	11691.85
926.83	11685.71
927.00	11464.53
927.17	11421.52
927.34	11353.94
927.50	11390.80
927.67	11583.31
927.84	11333.46
928.01	11290.45
928.17	11257.68
928.34	11079.51
928.51	10940.25
928.68	10954.58
928.84	11198.29
929.01	10987.35
929.18	10897.24
929.35	10776.41
929.51	10784.60
929.68	10714.97
929.85	10655.58
930.02	10729.31
930.18	10563.42
930.35	10635.10
930.52	10616.67
930.69	10663.77
930.85	10475.36
931.02	10301.28
931.19	10372.96
931.36	10368.87
931.52	10225.51
931.69	10446.69
931.86	10076.01
932.02	9957.22
932.19	10133.35
932.36	10020.71
932.53	9967.46
932.69	9686.89
932.86	9979.75
933.03	9811.82
933.19	9879.40
933.36	9938.79
933.53	9983.85
933.70	9699.18
933.86	9547.63
934.03	9672.56
934.20	9348.98
934.36	9578.35
934.53	9326.45
934.70	9316.21
934.86	9361.27
935.03	9138.04
935.20	8896.38
935.36	9015.16
935.53	8896.38
935.70	8841.08
935.86	8904.57
936.03	8732.54
936.20	8656.76
936.36	8617.85
936.53	8529.79
936.70	8515.45
936.86	8667.00
937.03	8173.44
937.20	8380.29
937.36	8281.99
937.53	8146.82
937.70	8112.00
937.86	7909.26
938.03	7759.75
938.20	7872.39
938.36	7616.40
938.53	7763.85
938.70	7464.85
938.86	7417.74
939.03	7507.85
939.20	7321.49
939.36	7223.19
939.53	7065.49
939.70	7253.91
939.86	6948.76
940.03	6852.50
940.19	6887.32
940.36	6915.99
940.53	6789.02
940.69	6668.19
940.86	6694.81
941.03	6520.73
941.19	6428.57
941.36	6455.20
941.52	6356.90
941.69	6238.11
941.86	6293.41
942.02	6268.83
942.19	6141.86
942.35	6061.99
942.52	6086.56
942.69	5949.35
942.85	5838.76
943.02	5842.85
943.18	5758.89
943.35	5754.79
943.52	5590.95
943.68	5588.91
943.85	5683.11
944.01	5531.56
944.18	5582.76
944.35	5568.43
944.51	5453.74
944.68	5494.70
944.84	5347.25
945.01	5439.40
945.17	5480.36
945.34	5443.50
945.51	5412.78
945.67	5386.16
945.84	5318.57
946.00	5328.81
946.17	5423.02
946.33	5253.04
946.50	5359.53
946.67	5463.98
946.83	5189.55
947.00	5361.58
947.16	5185.46
947.33	5306.29
947.49	5271.47
947.66	5341.10
947.82	5304.24
947.99	5207.98
948.16	5316.53
948.32	5310.38
948.49	5326.77
948.65	5330.86
948.82	5314.48
948.98	5214.13
949.15	5156.79
949.31	5175.22
949.48	5183.41
949.64	5300.14
949.81	5283.76
949.97	5126.07
950.14	5347.25
950.30	5265.33
950.47	5291.95
950.63	5347.25
950.80	5226.42
950.96	5189.55
951.13	5294.00
951.30	5386.16
951.46	5232.56
951.63	5361.58
951.79	5367.73
951.96	5240.75
952.12	5302.19
952.29	5380.01
952.45	5255.09
952.62	5394.35
952.78	5437.36
952.94	5214.13
953.11	5257.14
953.27	5312.43
953.44	5492.65
953.60	5363.63
953.77	5441.45
953.93	5500.84
954.10	5384.11
954.26	5349.29
954.43	5425.07
954.59	5468.08
954.76	5517.23
954.92	5373.87
955.09	5418.93
955.25	5312.43
955.42	5425.07
955.58	5545.90
955.75	5396.40
955.91	5355.44
956.07	5435.31
956.24	5353.39
956.40	5367.73
956.57	5451.69
956.73	5343.15
956.90	5427.12
957.06	5410.73
957.23	5357.49
957.39	5461.93
957.56	5435.31
957.72	5304.24
957.88	5312.43
958.05	5457.84
958.21	5392.30
958.38	5443.50
958.54	5412.78
958.71	5527.47
958.87	5242.80
959.03	5402.54
959.20	5427.12
959.36	5281.71
959.53	5390.25
959.69	5341.10
959.85	5416.88
960.02	5355.44
960.18	5377.97
960.35	5402.54
960.51	5427.12
960.68	5240.75
960.84	5418.93
961.00	5353.39
961.17	5396.40
961.33	5412.78
961.50	5404.59
961.66	5457.84
961.82	5345.20
961.99	5285.81
962.15	5343.15
962.31	5369.77
962.48	5353.39
962.64	5414.83
962.81	5326.77
962.97	5361.58
963.13	5523.37
963.30	5423.02
963.46	5220.27
963.62	5320.62
963.79	5320.62
963.95	5377.97
964.12	5296.05
964.28	5236.66
964.44	5193.65
964.61	5253.04
964.77	5287.86
964.93	5339.05
965.10	5273.52
965.26	5283.76
965.42	5230.51
965.59	5111.73
965.75	5277.62
965.92	5443.50
966.08	5203.89
966.24	5257.14
966.41	5203.89
966.57	5345.20
966.73	5212.08
966.90	5228.46
967.06	5128.11
967.22	5246.90
967.39	5199.79
967.55	5113.78
967.71	5224.37
967.88	5140.40
968.04	5173.17
968.20	5187.50
968.37	5038.00
968.53	5083.06
968.69	5148.59
968.85	5255.09
969.02	5154.74
969.18	5187.50
969.34	5138.35
969.51	5107.63
969.67	5035.96
969.83	4970.42
970.00	5097.39
970.16	5099.44
970.32	5027.76
970.48	5187.50
970.65	4943.80
970.81	4966.32
970.97	5017.52
971.14	4972.47
971.30	5031.86
971.46	5066.67
971.63	4919.22
971.79	5201.84
971.95	4898.74
972.11	4800.44
972.28	4927.41
972.44	5064.63
972.60	4900.79
972.76	4839.35
972.93	4843.45
973.09	4970.42
973.25	4896.69
973.42	4720.57
973.58	4870.07
973.74	4861.88
973.90	4751.29
974.07	4911.03
974.23	4820.92
974.39	4917.17
974.55	4835.25
974.72	4775.86
974.88	4736.95
975.04	4775.86
975.20	4827.06
975.37	4806.58
975.53	4628.41
975.69	4743.10
975.85	4814.77
976.01	4677.56
976.18	4603.83
976.34	4452.28
976.50	4724.66
976.66	4835.25
976.83	4698.04
976.99	4702.14
977.15	4601.79
977.31	4532.15
977.47	4693.94
977.64	4683.70
977.80	4560.83
977.96	4638.65
978.12	4628.41
978.29	4605.88
978.45	4405.18
978.61	4464.57
978.77	4564.92
978.93	4579.26
979.10	4577.21
979.26	4411.32
979.42	4431.80
979.58	4425.66
979.74	4429.76
979.91	4497.34
980.07	4452.28
980.23	4435.90
980.39	4313.02
980.55	4415.42
980.71	4417.47
980.88	4323.26
981.04	4304.83
981.20	4343.74
981.36	4378.56
981.52	4267.97
981.68	4267.97
981.85	4278.21
982.01	4227.01
982.17	4220.86
982.33	4272.06
982.49	4243.39
982.65	4218.82
982.82	4337.60
982.98	4302.78
983.14	4157.38
983.30	4304.83
983.46	4224.96
983.62	4169.66
983.79	4214.72
983.95	4220.86
984.11	4048.83
984.27	4165.57
984.43	4083.65
984.59	4169.66
984.75	4118.47
984.91	4122.56
985.08	4118.47
985.24	4083.65
985.40	4028.35
985.56	3999.68
985.72	4124.61
985.88	4222.91
986.04	4112.32
986.20	3960.77
986.37	4067.27
986.53	4118.47
986.69	4110.27
986.85	3899.33
987.01	3981.25
987.17	4026.31
987.33	4016.07
987.49	4007.87
987.65	3977.16
987.82	3950.53
987.98	3966.92
988.14	3968.96
988.30	3944.39
988.46	3837.89
988.62	4005.83
988.78	3878.85
988.94	3809.22
989.10	3796.93
989.26	3792.84
989.42	3788.74
989.59	3680.20
989.75	3731.40
989.91	3866.56
990.07	3692.49
990.23	3614.66
990.39	3743.69
990.55	3764.17
990.71	3807.17
990.87	3790.79
991.03	3796.93
991.19	3766.21
991.35	3717.06
991.51	3598.28
991.67	3866.56
991.83	3743.69
992.00	3741.64
992.16	3686.34
992.32	3663.82
992.48	3788.74
992.64	3629.00
992.80	3610.57
992.96	3655.62
993.12	3604.42
993.28	3594.19
993.44	3649.48
993.60	3624.90
993.76	3665.86
993.92	3686.34
994.08	3655.62
994.24	3532.75
994.40	3528.65
994.56	3655.62
994.72	3590.09
994.88	3561.42
995.04	3469.26
995.20	3522.51
995.36	3555.27
995.52	3542.99
995.68	3510.22
995.84	3405.77
996.00	3559.37
996.16	3405.77
996.32	3444.68
996.48	3491.79
996.64	3430.35
996.80	3383.24
996.96	3446.73
997.12	3401.68
997.28	3426.25
997.44	3330.00
997.60	3393.48
997.76	3373.00
997.92	3430.35
998.08	3432.40
998.24	3291.09
998.40	3403.72
998.56	3389.39
998.72	3352.52
998.88	3332.05
999.04	3256.27
999.20	3467.21
999.36	3311.57
999.52	3436.49
999.68	3223.50
999.84	3289.04
1000.00	3297.23
1000.16	3315.66
1000.32	3166.16
1000.48	3358.67
1000.64	3151.82
1000.80	3153.87
1000.95	3139.54
1001.11	3229.65
1001.27	3055.57
1001.43	3205.07
1001.59	3157.97
1001.75	3266.51
1001.91	3176.40
1002.07	3076.05
1002.23	3170.26
1002.39	3123.15
1002.55	3071.95
1002.71	2944.98
1002.87	3090.38
1003.03	3041.23
1003.19	2985.94
1003.34	3174.35
1003.50	3039.19
1003.66	3194.83
1003.82	3117.01
1003.98	3026.90
1004.14	2973.65
1004.30	2930.64
1004.46	2914.26
1004.62	3026.90
1004.78	3153.87
1004.94	2940.88
1005.09	3090.38
1005.25	2965.46
1005.41	3000.27
1005.57	3035.09
1005.73	2983.89
1005.89	2934.74
1006.05	2977.75
1006.21	3035.09
1006.37	2953.17
1006.52	2924.50
1006.68	2820.05
1006.84	3004.37
1007.00	2783.19
1007.16	2893.78
1007.32	2936.79
1007.48	2875.35
1007.64	2863.06
1007.79	2813.91
1007.95	2879.44
1008.11	2920.40
1008.27	2836.44
1008.43	2916.31
1008.59	2793.43
1008.75	2842.58
1008.91	2869.20
1009.06	2861.01
1009.22	2869.20
1009.38	2762.71
1009.54	2848.72
1009.70	2701.27
1009.86	2748.37
1010.01	2781.14
1010.17	2674.65
1010.33	2826.20
1010.49	2779.09
1010.65	2858.96
1010.81	2727.89
1010.96	2801.62
1011.12	2676.70
1011.28	2652.12
1011.44	2715.61
1011.60	2650.07
1011.76	2637.78
1011.91	2762.71
1012.07	2514.91
1012.23	2555.86
1012.39	2613.21
1012.55	2631.64
1012.71	2598.87
1012.86	2613.21
1013.02	2580.44
1013.18	2633.69
1013.34	2697.17
1013.50	2678.74
1013.65	2629.59
1013.81	2566.10
1013.97	2564.06
1014.13	2625.50
1014.29	2590.68
1014.44	2629.59
1014.60	2475.99
1014.76	2486.23
1014.92	2594.78
1015.07	2533.34
1015.23	2541.53
1015.39	2602.97
1015.55	2543.58
1015.71	2551.77
1015.86	2678.74
1016.02	2514.91
1016.18	2588.63
1016.34	2473.95
1016.49	2459.61
1016.65	2576.34
1016.81	2469.85
1016.97	2541.53
1017.12	2500.57
1017.28	2449.37
1017.44	2439.13
1017.60	2510.81
1017.75	2490.33
1017.91	2445.27
1018.07	2426.84
1018.23	2482.14
1018.38	2400.22
1018.54	2387.93
1018.70	2320.35
1018.86	2326.49
1019.01	2361.31
1019.17	2385.88
1019.33	2484.19
1019.49	2461.66
1019.64	2398.17
1019.80	2480.09
1019.96	2447.32
1020.12	2445.27
1020.27	2295.77
1020.43	2369.50
1020.59	2318.30
1020.74	2394.08
1020.90	2406.36
1021.06	2310.11
1021.22	2303.96
1021.37	2373.60
1021.53	2271.20
1021.69	2379.74
1021.84	2172.89
1022.00	2357.21
1022.16	2246.62
1022.31	2297.82
1022.47	2338.78
1022.63	2320.35
1022.79	2160.61
1022.94	2217.95
1023.10	2363.36
1023.26	2232.29
1023.41	2318.30
1023.57	2205.66
1023.73	2263.01
1023.88	2152.42
1024.04	2148.32
1024.20	2174.94
1024.35	2281.44
1024.51	2244.57
1024.67	2181.09
1024.82	2181.09
1024.98	2093.02
1025.14	2185.18
1025.29	2080.74
1025.45	2133.98
1025.61	2080.74
1025.76	2201.57
1025.92	2213.85
1026.08	2168.80
1026.23	2191.33
1026.39	2158.56
1026.55	2127.84
1026.70	2121.70
1026.86	2121.70
1027.02	2062.30
1027.17	2133.98
1027.33	2146.27
1027.48	2033.63
1027.64	2123.74
1027.80	2078.69
1027.95	2201.57
1028.11	2035.68
1028.27	2058.21
1028.42	2123.74
1028.58	2037.73
1028.73	1992.67
1028.89	2013.15
1029.05	2160.61
1029.20	2019.30
>>>>>End Processed Spectral Data<<<<<
