SpectraSuite Data File
++++++++++++++++++++++++++++++++++++
Date: Fri Jun 02 14:57:20 CEST 2017
User: INFO_000
Dark Spectrum Present: No
Reference Spectrum Present: No
Number of Sampled Component Spectra: 1
Spectrometers: USB4H00879
Integration Time (usec): 80000 (USB4H00879)
Spectra Averaged: 1 (USB4H00879)
Boxcar Smoothing: 0 (USB4H00879)
Correct for Electrical Dark: No (USB4H00879)
Strobe/Lamp Enabled: No (USB4H00879)
Correct for Detector Non-linearity: No (USB4H00879)
Correct for Stray Light: No (USB4H00879)
Number of Pixels in Processed Spectrum: 3648
>>>>>Begin Processed Spectral Data<<<<<
345.13	1257.45
345.34	1257.45
345.56	1257.45
345.78	1329.13
345.99	1284.08
346.21	1748.97
346.42	1697.77
346.64	1675.24
346.86	1740.77
347.07	1671.14
347.29	1710.05
347.50	1646.57
347.72	1687.53
347.94	1732.58
348.15	1566.70
348.37	1652.71
348.59	1787.88
348.80	1656.81
349.02	1734.63
349.23	1871.84
349.45	1771.49
349.67	1959.91
349.88	1828.84
350.10	1939.43
350.31	1839.08
350.53	1810.40
350.75	2000.87
350.96	1880.04
351.18	1849.32
351.39	1880.04
351.61	1771.49
351.82	1853.41
352.04	1945.57
352.26	1839.08
352.47	1867.75
352.69	1869.80
352.90	1732.58
353.12	1925.09
353.34	1865.70
353.55	1959.91
353.77	1869.80
353.98	1865.70
354.20	1824.74
354.41	1904.61
354.63	2013.15
354.85	2000.87
355.06	1886.18
355.28	1806.31
355.49	1910.75
355.71	1875.94
355.92	1863.65
356.14	1947.62
356.35	1810.40
356.57	1863.65
356.79	1953.76
357.00	1918.95
357.22	1968.10
357.43	1859.56
357.65	1912.80
357.86	1894.37
358.08	1912.80
358.29	1933.28
358.51	1984.48
358.72	2088.93
358.94	1982.43
359.16	1927.14
359.37	1908.71
359.59	1900.52
359.80	2041.82
360.02	1918.95
360.23	1980.39
360.45	2015.20
360.66	1918.95
360.88	1867.75
361.09	1923.04
361.31	1998.82
361.52	2017.25
361.74	2056.16
361.95	2043.87
362.17	1890.28
362.38	2121.70
362.60	1943.52
362.81	2000.87
363.03	1912.80
363.24	1968.10
363.46	2138.08
363.67	1996.77
363.89	1984.48
364.10	2035.68
364.32	1904.61
364.53	2027.49
364.75	1898.47
364.96	2013.15
365.18	1959.91
365.39	1959.91
365.61	2009.06
365.82	2078.69
366.04	1978.34
366.25	2017.25
366.47	2066.40
366.68	2019.30
366.90	2115.55
367.11	2121.70
367.33	2107.36
367.54	2074.59
367.76	2025.44
367.97	2078.69
368.19	2080.74
368.40	2072.54
368.62	1992.67
368.83	2021.35
369.05	2047.97
369.26	1941.47
369.48	1998.82
369.69	2025.44
369.91	2039.78
370.12	2039.78
370.33	2125.79
370.55	1996.77
370.76	2070.50
370.98	2111.46
371.19	2099.17
371.41	2017.25
371.62	2002.91
371.84	2017.25
372.05	2211.81
372.27	2093.02
372.48	2064.35
372.69	2123.74
372.91	2150.37
373.12	2228.19
373.34	2037.73
373.55	2154.46
373.77	2238.43
373.98	2140.13
374.20	2148.32
374.41	2297.82
374.62	2172.89
374.84	2111.46
375.05	2152.42
375.27	2119.65
375.48	2093.02
375.70	2224.09
375.91	2244.57
376.12	2334.68
376.34	2224.09
376.55	2176.99
376.77	2234.33
376.98	2105.31
377.19	2172.89
377.41	2101.22
377.62	2131.94
377.84	2328.54
378.05	2258.91
378.27	2179.04
378.48	2379.74
378.69	2310.11
378.91	2256.86
379.12	2236.38
379.34	2260.96
379.55	2279.39
379.76	2285.53
379.98	2213.85
380.19	2215.90
380.41	2320.35
380.62	2316.25
380.83	2254.81
381.05	2201.57
381.26	2400.22
381.47	2283.49
381.69	2258.91
381.90	2351.07
382.12	2312.16
382.33	2215.90
382.54	2242.53
382.76	2318.30
382.97	2297.82
383.19	2197.47
383.40	2449.37
383.61	2338.78
383.83	2197.47
384.04	2320.35
384.25	2424.80
384.47	2457.56
384.68	2357.21
384.89	2324.44
385.11	2396.12
385.32	2369.50
385.54	2428.89
385.75	2310.11
385.96	2389.98
386.18	2392.03
386.39	2449.37
386.60	2389.98
386.82	2408.41
387.03	2439.13
387.24	2525.15
387.46	2422.75
387.67	2437.08
387.88	2543.58
388.10	2496.47
388.31	2559.96
388.52	2590.68
388.74	2545.63
388.95	2488.28
389.16	2559.96
389.38	2496.47
389.59	2531.29
389.80	2490.33
390.02	2602.97
390.23	2639.83
390.44	2521.05
390.66	2539.48
390.87	2488.28
391.08	2596.82
391.30	2613.21
391.51	2596.82
391.72	2633.69
391.94	2527.19
392.15	2617.30
392.36	2514.91
392.58	2502.62
392.79	2762.71
393.00	2654.17
393.22	2775.00
393.43	2822.10
393.64	2721.75
393.85	2744.28
394.07	2650.07
394.28	2686.94
394.49	2854.87
394.71	2686.94
394.92	2920.40
395.13	2707.41
395.35	2789.33
395.56	2652.12
395.77	2881.49
395.98	2744.28
396.20	2877.40
396.41	2766.81
396.62	2834.39
396.84	2785.24
397.05	2906.07
397.26	2920.40
397.47	2971.60
397.69	2824.15
397.90	2992.08
398.11	2877.40
398.32	2856.92
398.54	2887.64
398.75	2963.41
398.96	2930.64
399.18	3145.68
399.39	2951.12
399.60	3012.56
399.81	2936.79
400.03	2928.60
400.24	3219.41
400.45	2932.69
400.66	3137.49
400.88	2955.22
401.09	3176.40
401.30	3090.38
401.51	3188.69
401.73	3184.59
401.94	3123.15
402.15	3243.98
402.36	3096.53
402.58	3174.35
402.79	3223.50
403.00	3266.51
403.21	3266.51
403.43	3227.60
403.64	3270.61
403.85	3153.87
404.06	3184.59
404.27	3160.02
404.49	3157.97
404.70	3186.64
404.91	3330.00
405.12	3231.69
405.34	3252.17
405.55	3325.90
405.76	3162.06
405.97	3336.14
406.19	3545.03
406.40	3129.30
406.61	3348.43
406.82	3379.15
407.03	3383.24
407.25	3239.89
407.46	3424.20
407.67	3436.49
407.88	3538.89
408.09	3450.83
408.31	3340.24
408.52	3387.34
408.73	3260.37
408.94	3399.63
409.15	3434.44
409.37	3540.94
409.58	3395.53
409.79	3432.40
410.00	3538.89
410.21	3547.08
410.43	3416.01
410.64	3442.64
410.85	3456.97
411.06	3573.71
411.27	3506.12
411.48	3565.51
411.70	3622.86
411.91	3624.90
412.12	3649.48
412.33	3657.67
412.54	3594.19
412.76	3690.44
412.97	3600.33
413.18	3452.88
413.39	3637.19
413.60	3524.55
413.81	3688.39
414.03	3649.48
414.24	3639.24
414.45	3837.89
414.66	3516.36
414.87	3815.37
415.08	3710.92
415.30	3864.52
415.51	3868.61
415.72	3684.30
415.93	3788.74
416.14	3817.41
416.35	3839.94
416.56	3758.02
416.78	3934.15
416.99	3798.98
417.20	3704.78
417.41	3901.38
417.62	3942.34
417.83	4048.83
418.04	3880.90
418.26	3930.05
418.47	3893.19
418.68	4022.21
418.89	3962.82
419.10	4079.55
419.31	4009.92
419.52	3946.44
419.73	3999.68
419.95	4235.20
420.16	3909.57
420.37	4151.23
420.58	3921.86
420.79	3887.04
421.00	4095.94
421.21	4048.83
421.42	4059.07
421.63	4122.56
421.85	4102.08
422.06	4118.47
422.27	4165.57
422.48	4179.90
422.69	4190.14
422.90	4163.52
423.11	4128.70
423.32	4245.44
423.53	4401.08
423.75	4292.54
423.96	4364.22
424.17	4335.55
424.38	4526.01
424.59	4319.17
424.80	4548.54
425.01	4319.17
425.22	4370.37
425.43	4317.12
425.64	4644.79
425.85	4583.35
426.06	4562.87
426.28	4421.56
426.49	4419.52
426.70	4483.00
426.91	4388.80
427.12	4585.40
427.33	4485.05
427.54	4564.92
427.75	4681.66
427.96	4767.67
428.17	4591.55
428.38	4724.66
428.59	4747.19
428.80	4722.62
429.01	4779.96
429.23	4792.25
429.44	4843.45
429.65	4886.45
429.86	4902.84
430.07	4804.53
430.28	4755.38
430.49	4849.59
430.70	5162.93
430.91	5038.00
431.12	4892.60
431.33	4982.71
431.54	5046.20
431.75	5058.48
431.96	5117.87
432.17	5058.48
432.38	5150.64
432.59	5144.50
432.80	5236.66
433.01	5255.09
433.22	5185.46
433.43	5158.83
433.64	5257.14
433.85	5064.63
434.06	5363.63
434.27	5273.52
434.49	5302.19
434.70	5269.42
434.91	5484.46
435.12	5590.95
435.33	5373.87
435.54	5359.53
435.75	5244.85
435.96	5359.53
436.17	5484.46
436.38	5476.27
436.59	5550.00
436.80	5298.10
437.01	5693.35
437.22	5709.74
437.43	5531.56
437.64	5418.93
437.85	5738.41
438.06	5767.08
438.27	5590.95
438.48	5695.40
438.69	5910.44
438.90	5719.98
439.11	5681.07
439.32	5838.76
439.53	5805.99
439.74	5955.49
439.95	5830.57
440.16	5795.75
440.37	5787.56
440.57	5599.15
440.78	5875.62
440.99	5941.16
441.20	5935.01
441.41	5838.76
441.62	6018.98
441.83	5906.34
442.04	6115.23
442.25	5969.83
442.46	6123.43
442.67	6148.00
442.88	6449.05
443.09	6057.89
443.30	6213.54
443.51	6006.69
443.72	6397.85
443.93	6148.00
444.14	6473.63
444.35	6014.88
444.56	6154.15
444.77	6363.04
444.98	6328.22
445.19	6279.07
445.40	6375.33
445.61	6375.33
445.81	6432.67
446.02	6373.28
446.23	6473.63
446.44	6387.61
446.65	6420.38
446.86	6543.26
447.07	6608.80
447.28	6746.01
447.49	6637.47
447.70	6543.26
447.91	6748.06
448.12	6629.27
448.33	6768.54
448.54	6807.45
448.74	6641.56
448.95	6856.60
449.16	6922.13
449.37	6967.19
449.58	6901.65
449.79	7098.26
450.00	6776.73
450.21	7004.05
450.42	7045.01
450.63	7376.78
450.84	6844.31
451.05	7053.20
451.25	7051.16
451.46	6913.94
451.67	7229.33
451.88	7292.82
452.09	7190.42
452.30	7192.47
452.51	7258.00
452.72	7495.57
452.93	7452.56
453.13	7251.86
453.34	7212.95
453.55	7432.08
453.76	7268.24
453.97	7610.25
454.18	7450.51
454.39	7511.95
454.60	7430.03
454.81	7557.00
455.01	7776.14
455.22	7483.28
455.43	7647.12
455.64	7833.48
455.85	7989.13
456.06	8087.43
456.27	7913.35
456.48	7780.23
456.68	7892.87
456.89	7972.74
457.10	7929.74
457.31	7966.60
457.52	7808.90
457.73	8146.82
457.94	8419.20
458.14	8077.19
458.35	8523.65
458.56	8265.60
458.77	8097.67
458.98	8275.84
459.19	8324.99
459.39	8472.45
459.60	8662.91
459.81	8439.68
460.02	8634.24
460.23	8613.76
460.44	8738.68
460.65	8851.32
460.85	8710.01
461.06	8920.95
461.27	8591.23
461.48	8906.62
461.69	9006.97
461.89	8781.69
462.10	8931.19
462.31	8726.39
462.52	9037.69
462.73	9043.83
462.94	9281.39
463.14	9297.78
463.35	9191.28
463.56	9580.40
463.77	9539.44
463.98	9391.98
464.18	9346.93
464.39	9531.25
464.60	9725.80
464.81	9643.88
465.02	9568.11
465.23	9781.10
465.43	9449.33
465.64	9953.13
465.85	9879.40
466.06	9826.15
466.27	10159.97
466.47	9996.14
466.68	10176.36
466.89	10116.97
467.10	10194.79
467.30	10278.76
467.51	10301.28
467.72	10422.11
467.93	10254.18
468.14	10579.81
468.34	10504.03
468.55	10620.77
468.76	10575.71
468.97	10493.79
469.17	10684.25
469.38	10870.62
469.59	10952.54
469.80	10866.52
470.01	11038.55
470.21	10962.78
470.42	11124.57
470.63	11128.66
470.84	11202.39
471.04	11390.80
471.25	11349.84
471.46	11476.82
471.67	11476.82
471.87	11503.44
472.08	11581.26
472.29	11994.95
472.50	11372.37
472.70	11544.40
472.91	11603.79
473.12	12001.10
473.33	11835.21
473.53	12119.88
473.74	12179.27
473.95	12128.07
474.16	12371.78
474.36	12300.10
474.57	12552.00
474.78	12568.38
474.99	12619.58
475.19	12332.87
475.40	12834.62
475.61	12865.34
475.81	13074.23
476.02	13170.49
476.23	12945.21
476.44	13137.72
476.64	13346.61
476.85	13453.11
477.06	13424.44
477.27	13604.66
477.47	13831.98
477.68	13786.93
477.89	13915.95
478.09	13682.48
478.30	14087.98
478.51	13940.52
478.71	14178.09
478.92	14010.15
479.13	14079.79
479.34	14657.31
479.54	14556.96
479.75	14497.57
479.96	14554.91
480.16	14475.04
480.37	14737.18
480.58	14915.36
480.78	14876.44
480.99	14970.65
481.20	15286.04
481.41	15308.57
481.61	15355.67
481.82	15709.97
482.03	15593.23
482.23	15273.75
482.44	15650.58
482.65	15953.68
482.85	15933.20
483.06	16058.12
483.27	15896.33
483.47	15968.01
483.68	16301.83
483.89	16224.01
484.09	16273.16
484.30	16256.78
484.51	16568.07
484.71	16606.98
484.92	16551.68
485.13	16600.83
485.33	16813.82
485.54	16615.17
485.75	17141.50
485.95	17069.82
486.16	17104.64
486.37	16957.18
486.57	17379.06
486.78	17379.06
486.98	17225.47
487.19	17661.68
487.40	17712.88
487.60	17686.26
487.81	17942.25
488.02	17796.85
488.22	17905.39
488.43	18116.33
488.64	18181.87
488.84	18437.86
489.05	18294.50
489.25	18368.23
489.46	18775.78
489.67	18781.92
489.87	18917.09
490.08	18970.33
490.29	18605.80
490.49	18919.14
490.70	19115.74
490.90	19015.39
491.11	19377.88
491.32	19259.10
491.52	19289.82
491.73	19500.76
491.94	19424.98
492.14	19457.75
492.35	19736.27
492.55	19922.64
492.76	19828.43
492.97	19910.35
493.17	19996.37
493.38	19863.25
493.58	20610.76
493.79	20299.47
494.00	20213.45
494.20	20395.72
494.41	20727.49
494.61	20610.76
494.82	20604.61
495.02	20842.18
495.23	20805.31
495.44	21155.52
495.64	21089.98
495.85	21208.76
496.05	21259.96
496.26	21229.24
496.47	21606.07
496.67	21329.59
496.88	21714.61
497.08	21276.35
497.29	21941.94
497.49	21483.19
497.70	21661.37
497.91	21890.74
498.11	22052.53
498.32	22347.44
498.52	22009.52
498.73	22404.78
498.93	22482.60
499.14	22523.56
499.34	22292.14
499.55	22494.89
499.76	22537.90
499.96	22494.89
500.17	22967.97
500.37	22679.21
500.58	22931.11
500.78	22867.62
500.99	23273.12
501.19	23324.32
501.40	23174.81
501.60	23082.66
501.81	23115.42
502.02	23371.42
502.22	23269.02
502.43	23633.56
502.63	23738.01
502.84	23674.52
503.04	23785.11
503.25	23809.68
503.45	23602.84
503.66	23801.49
503.86	24004.24
504.07	24247.95
504.27	23994.00
504.48	24198.80
504.68	24182.42
504.89	24622.73
505.09	24682.12
505.30	24909.44
505.50	24491.66
505.71	24790.66
505.91	24741.51
506.12	24825.48
506.32	24755.85
506.53	24938.12
506.73	24718.98
506.94	24950.40
507.14	25085.57
507.35	25357.95
507.55	24954.50
507.76	25087.62
507.96	25089.67
508.17	25419.39
508.37	25429.63
508.58	25523.83
508.78	25718.39
508.99	25802.36
509.19	25691.77
509.40	26058.35
509.60	25525.88
509.81	25804.41
510.01	25929.33
510.22	25722.49
510.42	25847.41
510.63	26439.28
510.83	25998.96
511.04	26277.49
511.24	26412.65
511.44	26273.39
511.65	26500.72
511.85	26281.58
512.06	26607.21
512.26	26535.53
512.47	27139.68
512.67	26515.05
512.88	27078.24
513.08	26650.22
513.29	26908.26
513.49	26932.84
513.69	26957.41
513.90	27106.91
514.10	27162.21
514.31	27375.20
514.51	27356.77
514.72	27205.22
514.92	27620.95
515.13	27450.97
515.33	27627.10
515.53	27741.78
515.74	27807.32
515.94	27641.43
516.15	27782.74
516.35	27743.83
516.56	28012.12
516.76	27807.32
516.96	27907.67
517.17	28016.21
517.37	28331.60
517.58	28323.41
517.78	28530.25
517.99	28384.85
518.19	28663.37
518.39	28900.94
518.60	28849.74
518.80	28710.47
519.01	28776.01
519.21	28993.09
519.41	28964.42
519.62	28933.70
519.82	28798.54
520.03	29365.82
520.23	29322.82
520.43	29234.75
520.64	29627.96
520.84	29498.94
521.05	29298.24
521.25	29937.21
521.45	29537.85
521.66	29595.20
521.86	29546.05
522.07	29619.77
522.27	29781.56
522.47	29767.23
522.68	30340.66
522.88	30152.24
523.08	30344.75
523.29	30225.97
523.49	30639.66
523.70	30455.34
523.90	30694.96
524.10	30676.52
524.31	30948.90
524.51	30330.42
524.71	31161.89
524.92	30860.84
525.12	31084.07
525.33	31325.73
525.53	31628.83
525.73	31528.48
525.94	31725.08
526.14	31510.05
526.34	31784.48
526.55	31948.31
526.75	31780.38
526.95	32149.01
527.16	32194.07
527.36	31495.71
527.56	32054.81
527.77	32593.42
527.97	32343.57
528.17	32030.23
528.38	32732.68
528.58	32607.76
528.78	32759.31
528.99	32646.67
529.19	33084.94
529.39	32736.78
529.60	33287.68
529.80	32808.46
530.00	33019.40
530.21	33338.88
530.41	33549.82
530.61	33752.57
530.82	33566.21
531.02	33736.19
531.22	34201.08
531.43	33768.96
531.63	33914.36
531.83	34196.98
532.04	34385.40
532.24	34289.14
532.44	34762.22
532.64	34794.99
532.85	34559.47
533.05	34553.33
533.25	34821.61
533.46	34889.20
533.66	34901.48
533.86	35128.81
534.07	35198.44
534.27	35319.27
534.47	35694.05
534.67	35460.58
534.88	35644.90
535.08	35605.98
535.28	35880.41
535.49	35870.17
535.69	35900.89
535.89	36277.72
536.09	36181.46
536.30	36113.88
536.50	36048.35
536.70	36357.59
536.91	36507.09
537.11	36554.19
537.31	36724.18
537.51	36593.11
537.72	36863.44
537.92	36896.20
538.12	37172.68
538.32	37006.80
538.53	37123.53
538.73	37463.49
538.93	37166.54
539.13	37150.15
539.34	37422.53
539.54	37316.04
539.74	37844.41
539.94	37627.33
540.15	37883.33
540.35	37889.47
540.55	37864.89
540.75	37586.37
540.96	38073.79
541.16	37737.92
541.36	38348.21
541.56	38221.24
541.77	38616.50
541.97	38434.23
542.17	38284.73
542.37	38528.44
542.58	38536.63
542.78	38919.60
542.98	38546.87
543.18	38712.75
543.38	38854.06
543.59	38823.34
543.79	38778.29
543.99	38940.08
544.19	39261.61
544.40	39183.79
544.60	39175.59
544.80	39396.77
545.00	38921.65
545.20	39566.76
545.41	39183.79
545.61	39611.81
545.81	39624.10
546.01	39667.11
546.21	39445.93
546.42	39849.38
546.62	39855.52
546.82	39646.63
547.02	39708.07
547.22	39919.01
547.43	39953.82
547.63	40054.17
547.83	40191.39
548.03	39904.67
548.23	40142.24
548.44	40105.37
548.64	40156.57
548.84	40189.34
549.04	40322.46
549.24	40613.27
549.45	40811.92
549.65	40514.97
549.85	40770.96
550.05	41006.48
550.25	40707.47
550.45	41401.74
550.66	40768.91
550.86	40662.42
551.06	41059.73
551.26	40912.27
551.46	41117.07
551.66	41076.11
551.87	40689.04
552.07	41153.93
552.27	41416.07
552.47	40998.29
552.67	40992.14
552.87	41137.55
553.07	41461.13
553.28	41743.75
553.48	41315.72
553.68	41330.06
553.88	41903.49
554.08	41334.15
554.28	41907.58
554.48	41115.02
554.69	41629.06
554.89	41575.81
555.09	41321.87
555.29	41633.16
555.49	41741.70
555.69	41676.16
555.89	41401.74
556.10	41526.66
556.30	41780.61
556.50	42184.06
556.70	41825.67
556.90	42177.92
557.10	41885.06
557.30	42376.57
557.50	42161.53
557.70	42319.23
557.91	42300.79
558.11	42311.03
558.31	42491.26
558.51	42251.64
558.71	42438.01
558.91	42440.06
559.11	41809.28
559.31	42472.82
559.51	42114.43
559.72	42718.58
559.92	42853.75
560.12	42481.02
560.32	42296.70
560.52	42468.73
560.72	42417.53
560.92	42790.26
561.12	42575.22
561.32	42950.00
561.52	42311.03
561.72	42853.75
561.93	42507.64
562.13	42773.88
562.33	42521.98
562.53	43152.75
562.73	42599.80
562.93	42364.28
563.13	42845.55
563.33	42999.15
563.53	42923.38
563.73	42407.29
563.93	42814.83
564.13	43132.27
564.33	43101.55
564.53	43203.95
564.74	43296.11
564.94	42616.18
565.14	43197.80
565.34	42863.99
565.54	42941.81
565.74	43128.17
565.94	43267.44
566.14	43132.27
566.34	43134.32
566.54	43832.68
566.74	43330.92
566.94	43468.14
567.14	43722.08
567.34	43443.56
567.54	43640.17
567.74	43392.36
567.94	43384.17
568.14	43908.45
568.34	43949.41
568.54	43392.36
568.74	43799.91
568.94	43736.42
569.14	43840.87
569.34	43619.69
569.54	43937.12
569.75	43332.97
569.95	44060.00
570.15	44371.29
570.35	44096.86
570.55	43791.72
570.75	43861.35
570.95	44182.88
571.15	44205.41
571.35	44090.72
571.55	44510.55
571.75	44498.26
571.95	44111.20
572.15	43976.03
572.35	44164.45
572.55	44391.77
572.75	43896.16
572.95	44334.43
573.15	44617.05
573.35	44094.82
573.55	44186.97
573.75	44322.14
573.95	44567.90
574.15	44627.29
574.35	44492.12
574.55	44533.08
574.75	44408.15
574.95	44512.60
575.15	44223.84
575.34	44795.22
575.54	44694.87
575.74	45012.31
575.94	45309.26
576.14	44787.03
576.34	45260.11
576.54	45241.68
576.74	45270.35
576.94	45147.47
577.14	45485.39
577.34	45200.72
577.54	45145.42
577.74	44969.30
577.94	45036.88
578.14	45305.16
578.34	45897.03
578.54	44901.71
578.74	45432.14
578.94	45610.31
579.14	45450.57
579.34	45628.74
579.54	45708.61
579.74	45888.84
579.94	45714.76
580.13	45667.66
580.33	45860.16
580.53	45790.53
580.73	45856.07
580.93	46044.48
581.13	45841.73
581.33	46372.16
581.53	46517.56
581.73	46191.94
581.93	46183.74
582.13	46576.95
582.33	46597.43
582.53	46353.72
582.73	46411.07
582.92	46511.42
583.12	46671.16
583.32	46406.97
583.52	46583.10
583.72	46863.67
583.92	46566.71
584.12	46619.96
584.32	47469.87
584.52	46972.21
584.72	47041.84
584.92	47283.50
585.11	47527.21
585.31	46839.09
585.51	47068.47
585.71	46671.16
585.91	47777.06
586.11	47244.59
586.31	47316.27
586.51	47506.73
586.71	47174.96
586.91	48092.45
587.10	48035.11
587.30	47736.10
587.50	47768.87
587.70	47881.51
587.90	47658.28
588.10	47660.33
588.30	47985.96
588.50	48217.38
588.69	47947.04
588.89	47748.39
589.09	47963.43
589.29	47951.14
589.49	48248.10
589.69	47967.52
589.89	48514.33
590.08	48512.28
590.28	48071.97
590.48	48282.91
590.68	48698.65
590.88	48479.52
591.08	48385.31
591.28	48614.68
591.47	49022.23
591.67	48700.70
591.87	49237.26
592.07	48856.34
592.27	48944.41
592.47	49067.28
592.67	48942.36
592.86	49098.00
593.06	48809.24
593.26	49310.99
593.46	49356.05
593.66	49429.77
593.86	49153.30
594.05	49038.61
594.25	49536.27
594.45	49122.58
594.65	49380.62
594.85	49317.14
595.05	49540.36
595.24	49968.39
595.44	49726.73
595.64	49573.13
595.84	50083.08
596.04	49939.72
596.23	50040.07
596.43	50031.88
596.63	50136.32
596.83	50042.12
597.03	50259.20
597.22	50500.86
597.42	49683.72
597.62	50394.37
597.82	50109.70
598.02	50425.09
598.21	50722.04
598.41	50517.25
598.61	50953.46
598.81	50527.48
599.01	50842.87
599.20	50631.93
599.40	50826.49
599.60	50920.70
599.80	51041.53
600.00	51340.53
600.19	51076.34
600.39	50605.31
600.59	51094.77
600.79	51154.16
600.98	51238.13
601.18	51369.20
601.38	51487.98
601.58	51115.25
601.78	51404.02
601.97	51684.59
602.17	52016.36
602.37	51471.60
602.57	51588.33
602.76	52319.46
602.96	51985.64
603.16	51852.52
603.36	52092.13
603.55	52554.97
603.75	51963.11
603.95	52237.54
604.15	52307.17
604.34	52200.68
604.54	52524.25
604.74	52522.21
604.94	52071.65
605.13	52663.52
605.33	52540.64
605.53	52845.79
605.73	52942.04
605.92	52847.83
606.12	52802.78
606.32	53183.70
606.52	52784.35
606.71	53091.54
606.91	53292.24
607.11	53026.01
607.30	53253.33
607.50	53220.56
607.70	53140.69
607.90	53277.91
608.09	53619.92
608.29	53462.22
608.49	53509.33
608.68	53601.49
608.88	53771.47
609.08	53593.29
609.28	53826.76
609.47	53357.78
609.67	54240.45
609.87	53583.05
610.06	54084.81
610.26	53949.64
610.46	54164.68
610.66	54242.50
610.85	54236.36
611.05	53750.99
611.25	54416.58
611.44	53673.16
611.64	54453.44
611.84	53875.91
612.03	53744.84
612.23	54320.32
612.43	54484.16
612.62	54318.28
612.82	54299.84
613.02	54656.19
613.21	54514.88
613.41	54328.52
613.61	54146.25
613.80	54305.99
614.00	54760.64
614.20	54801.60
614.39	54230.21
614.59	54873.27
614.79	54615.23
614.98	54727.87
615.18	54682.81
615.38	54719.68
615.57	54525.12
615.77	55108.79
615.97	54475.97
616.16	54453.44
616.36	54265.03
616.56	54856.89
616.75	54916.28
616.95	54592.70
617.15	55133.37
617.34	54951.10
617.54	54844.60
617.74	55635.12
617.93	55092.41
618.13	54779.07
618.32	54768.83
618.52	55317.68
618.72	55004.34
618.91	54942.91
619.11	54920.38
619.31	55358.64
619.50	55338.16
619.70	54779.07
619.90	55434.42
620.09	55030.97
620.29	55131.32
620.48	54998.20
620.68	55180.47
620.88	54494.40
621.07	54789.31
621.27	55006.39
621.46	54584.51
621.66	54787.26
621.86	54975.67
622.05	54752.44
622.25	55553.20
622.44	54932.67
622.64	54924.47
622.84	55325.88
623.03	54742.20
623.23	55338.16
623.42	55301.30
623.62	55024.82
623.82	55219.38
624.01	55571.63
624.21	55491.76
624.40	55239.86
624.60	55022.78
624.80	55100.60
624.99	55456.95
625.19	54871.23
625.38	55522.48
625.58	55209.14
625.77	55248.05
625.97	55637.17
626.17	55186.61
626.36	55149.75
626.56	55538.86
626.75	54697.15
626.95	55534.77
627.14	55203.00
627.34	55848.11
627.54	54951.10
627.73	55280.82
627.93	55426.23
628.12	55383.22
628.32	55682.22
628.51	55590.06
628.71	55473.33
628.90	55260.34
629.10	55155.89
629.30	55168.18
629.49	55350.45
629.69	55246.00
629.88	55516.34
630.08	55581.87
630.27	55622.83
630.47	56077.48
630.66	55659.69
630.86	56333.48
631.05	55229.62
631.25	55704.75
631.44	55438.51
631.64	55610.54
631.84	55753.90
632.03	55905.45
632.23	55743.66
632.42	56018.09
632.62	55444.66
632.81	55483.57
633.01	55409.84
633.20	55850.16
633.40	55876.78
633.59	55684.27
633.79	55626.93
633.98	55770.28
634.18	55923.88
634.37	55657.65
634.57	55858.35
634.76	56296.61
634.96	55846.06
635.15	56138.92
635.35	55936.17
635.54	55708.85
635.74	56136.87
635.93	55676.08
636.13	55909.55
636.32	56435.87
636.52	55690.41
636.71	56028.33
636.91	55899.31
637.10	56106.15
637.30	55721.13
637.49	55975.08
637.69	55364.79
637.88	56333.48
638.08	56140.97
638.27	56251.56
638.46	55940.27
638.66	55645.36
638.85	55749.81
639.05	56382.63
639.24	56485.03
639.44	56276.13
639.63	56423.59
639.83	56169.64
640.02	55854.25
640.22	56075.43
640.41	56738.97
640.61	55798.96
640.80	56607.90
640.99	56165.54
641.19	56380.58
641.38	55932.07
641.58	56339.62
641.77	56532.13
641.97	56050.86
642.16	56272.04
642.36	56202.41
642.55	56816.80
642.74	56296.61
642.94	57312.41
643.13	56296.61
643.33	56509.60
643.52	56675.49
643.72	56382.63
643.91	56208.55
644.10	56411.30
644.30	56231.08
644.49	56597.66
644.69	56644.77
644.88	56964.25
645.08	55876.78
645.27	56540.32
645.46	56310.95
645.66	56990.87
645.85	56497.31
646.05	56841.37
646.24	56726.69
646.43	56718.49
646.63	57205.91
646.82	57113.75
647.02	57080.98
647.21	56892.57
647.40	56759.45
647.60	56618.14
647.79	56954.01
647.99	56898.72
648.18	56415.40
648.37	57537.68
648.57	57248.92
648.76	56677.54
648.96	56956.06
649.15	57050.27
649.34	57119.90
649.54	57181.34
649.73	56972.44
649.92	56941.72
650.12	56888.48
650.31	56800.41
650.51	56931.48
650.70	57291.93
650.89	56575.14
651.09	57349.27
651.28	57423.00
651.47	57083.03
651.67	57193.62
651.86	57218.20
652.06	56593.57
652.25	57427.09
652.44	57044.12
652.64	56919.20
652.83	56943.77
653.02	56908.96
653.22	56984.73
653.41	56988.83
653.60	57029.79
653.80	56773.79
653.99	57732.24
654.18	56941.72
654.38	57152.66
654.57	56937.63
654.76	57062.55
654.96	56628.38
655.15	56882.33
655.34	56464.55
655.54	56888.48
655.73	57373.84
655.92	57500.82
656.12	57107.61
656.31	56962.20
656.50	56816.80
656.70	57136.28
656.89	57207.96
657.08	56919.20
657.28	57107.61
657.47	57107.61
657.66	57314.45
657.86	57283.73
658.05	56949.92
658.24	57279.64
658.43	56605.86
658.63	57435.28
658.82	57128.09
659.01	57164.95
659.21	57552.02
659.40	57244.82
659.59	57029.79
659.79	56734.88
659.98	57205.91
660.17	57246.87
660.36	56843.42
660.56	56824.99
660.75	57070.75
660.94	56986.78
661.14	57095.32
661.33	57283.73
661.52	56812.70
661.71	57384.08
661.91	56927.39
662.10	57259.16
662.29	57347.22
662.49	56933.53
662.68	57056.41
662.87	57611.41
663.06	57244.82
663.26	57062.55
663.45	57269.40
663.64	56771.74
663.83	57678.99
664.03	57484.43
664.22	57117.85
664.41	57443.48
664.60	56802.46
664.80	57210.01
664.99	57076.89
665.18	56874.14
665.37	57181.34
665.57	57511.06
665.76	57160.86
665.95	57134.23
666.14	56745.12
666.34	56779.93
666.53	56874.14
666.72	56618.14
666.91	56732.83
667.11	56382.63
667.30	56399.01
667.49	56583.33
667.68	56618.14
667.87	56581.28
668.07	56894.62
668.26	56466.59
668.45	56857.76
668.64	56472.74
668.84	57332.89
669.03	56743.07
669.22	56771.74
669.41	56757.41
669.60	57023.64
669.80	56552.61
669.99	56847.52
670.18	56939.68
670.37	56781.98
670.57	57185.43
670.76	57044.12
670.95	56886.43
671.14	56521.89
671.33	56556.70
671.53	57097.37
671.72	56960.15
671.91	56194.21
672.10	56284.33
672.29	56212.65
672.48	56153.26
672.68	56714.40
672.87	55954.60
673.06	56497.31
673.25	56063.14
673.44	56112.30
673.64	56470.69
673.83	56181.93
674.02	56202.41
674.21	56265.89
674.40	56558.75
674.59	56214.69
674.79	56124.58
674.98	56435.87
675.17	56280.23
675.36	56218.79
675.55	56212.65
675.74	56362.15
675.94	56106.15
676.13	56222.89
676.32	56226.98
676.51	56079.53
676.70	56472.74
676.89	56612.00
677.08	56245.41
677.28	55485.62
677.47	56392.87
677.66	56278.18
677.85	55887.02
678.04	56583.33
678.23	56439.97
678.42	56321.19
678.62	55663.79
678.81	56368.29
679.00	56009.90
679.19	56290.47
679.38	56247.46
679.57	55700.65
679.76	55954.60
679.96	55991.47
680.15	55532.72
680.34	55600.30
680.53	55338.16
680.72	56079.53
680.91	55925.93
681.10	55069.88
681.29	55227.57
681.48	55418.03
681.68	55590.06
681.87	55635.12
682.06	55827.63
682.25	55377.08
682.44	55215.29
682.63	55542.96
682.82	55147.70
683.01	55313.59
683.20	55094.46
683.39	55401.65
683.59	54940.86
683.78	54641.85
683.97	54897.85
684.16	55114.94
684.35	55528.62
684.54	55270.58
684.73	54367.43
684.92	54918.33
685.11	54754.49
685.30	54772.92
685.49	55143.61
685.69	55203.00
685.88	55243.96
686.07	54512.83
686.26	55096.50
686.45	54768.83
686.64	55194.81
686.83	55131.32
687.02	54715.58
687.21	54910.14
687.40	54594.75
687.59	54621.37
687.78	54414.53
687.97	54815.93
688.16	54815.93
688.35	54891.71
688.54	54398.15
688.74	54729.92
688.93	54676.67
689.12	54492.35
689.31	54164.68
689.50	54525.12
689.69	54240.45
689.88	53961.93
690.07	54582.46
690.26	54156.49
690.45	54867.13
690.64	54179.01
690.83	54127.81
691.02	53882.06
691.21	53959.88
691.40	54052.04
691.59	54090.95
691.78	53884.11
691.97	54588.61
692.16	53957.83
692.35	54064.33
692.54	54271.17
692.73	53871.82
692.92	53691.60
693.11	53877.96
693.30	54027.46
693.49	54310.08
693.68	53646.54
693.87	53695.69
694.06	53730.51
694.25	53400.79
694.44	53763.28
694.63	53515.47
694.82	53832.91
695.01	53507.28
695.20	53769.42
695.39	53300.43
695.58	53597.39
695.77	53564.62
695.96	53339.35
696.15	52946.14
696.34	52991.19
696.53	53261.52
696.72	53132.50
696.91	53753.04
697.10	52976.86
697.29	53392.59
697.48	53355.73
697.67	53116.12
697.86	53003.48
698.05	52657.37
698.24	53640.40
698.43	52382.94
698.62	53331.15
698.81	52473.06
699.00	53155.03
699.19	52516.06
699.38	52880.60
699.57	52647.13
699.76	53341.39
699.95	53089.49
700.14	52829.40
700.32	52561.12
700.51	52485.34
700.70	53161.17
700.89	52477.15
701.08	52671.71
701.27	52636.89
701.46	52653.28
701.65	52053.22
701.84	52634.84
702.03	52286.69
702.22	52460.77
702.41	52534.49
702.60	52532.45
702.79	51879.14
702.98	51916.01
703.17	52663.52
703.35	51946.73
703.54	52100.32
703.73	52489.44
703.92	52092.13
704.11	52368.61
704.30	51778.79
704.49	51993.83
704.68	52034.79
704.87	51537.13
705.06	52100.32
705.25	51676.40
705.43	51700.97
705.62	52016.36
705.81	51846.38
706.00	51932.39
706.19	51287.28
706.38	51397.87
706.57	51733.74
706.76	51453.17
706.95	51997.93
707.14	51459.31
707.32	51606.76
707.51	51375.34
707.70	51668.20
707.89	51688.68
708.08	51811.56
708.27	51354.86
708.46	51799.27
708.65	51414.26
708.84	50947.32
709.02	51479.79
709.21	51516.65
709.40	51332.34
709.59	51234.03
709.78	51135.73
709.97	51463.41
710.16	50975.99
710.34	51113.20
710.53	51102.96
710.72	51213.55
710.91	51170.55
711.10	51412.21
711.29	50863.35
711.48	50867.45
711.66	50767.10
711.85	50791.67
712.04	50869.50
712.23	50877.69
712.42	50500.86
712.61	50679.03
712.80	50980.09
712.98	50830.58
713.17	50738.43
713.36	50337.02
713.55	50375.94
713.74	50619.64
713.93	50715.90
714.11	50717.95
714.30	49997.06
714.49	50359.55
714.68	50855.16
714.87	50074.88
715.06	50842.87
715.24	50154.75
715.43	50437.37
715.62	50124.04
715.81	50312.45
716.00	50414.85
716.18	50291.97
716.37	49794.31
716.56	49812.74
716.75	50238.72
716.94	49812.74
717.12	49802.50
717.31	50091.27
717.50	49909.00
717.69	49751.30
717.88	49517.84
718.06	49523.98
718.25	50296.06
718.44	49677.58
718.63	49722.63
718.82	49755.40
719.00	49978.63
719.19	49507.60
719.38	49618.19
719.57	49329.42
719.76	49188.11
719.94	48940.31
720.13	49286.42
720.32	49196.31
720.51	48995.60
720.69	49319.18
720.88	49179.92
721.07	49124.63
721.26	48235.81
721.44	49261.84
721.63	48606.49
721.82	48809.24
722.01	48815.38
722.20	48971.03
722.38	48293.15
722.57	48590.11
722.76	48264.48
722.95	48485.66
723.13	48172.32
723.32	48534.81
723.51	48649.50
723.70	48012.58
723.88	48270.62
724.07	47926.56
724.26	48330.01
724.44	47607.08
724.63	47979.81
724.82	48274.72
725.01	47707.43
725.19	48020.77
725.38	47768.87
725.57	47998.24
725.76	48078.11
725.94	47609.13
726.13	47897.89
726.32	47547.69
726.51	47701.29
726.69	47977.76
726.88	47940.90
727.07	47699.24
727.25	47457.58
727.44	47576.36
727.63	47539.50
727.82	47467.82
728.00	47678.76
728.19	47570.22
728.38	47615.27
728.56	47252.78
728.75	47945.00
728.94	47289.65
729.12	47932.71
729.31	47523.11
729.50	47756.58
729.69	47308.08
729.87	47564.07
730.06	47484.20
730.25	47480.11
730.43	48002.34
730.62	47748.39
730.81	47455.53
730.99	47414.57
731.18	47414.57
731.37	47772.97
731.55	47602.99
731.74	47637.80
731.93	47764.78
732.11	47484.20
732.30	47652.14
732.49	47549.74
732.67	47387.95
732.86	47414.57
733.05	47447.34
733.23	47166.77
733.42	47754.54
733.61	47217.97
733.79	47260.97
733.98	47885.61
734.17	47332.65
734.35	47676.71
734.54	47396.14
734.73	47635.75
734.91	47674.66
735.10	47195.44
735.29	47732.01
735.47	47093.04
735.66	47269.17
735.84	47693.10
736.03	47095.09
736.22	47572.27
736.40	47293.74
736.59	47621.42
736.78	47230.26
736.96	47242.54
737.15	46966.07
737.33	47170.86
737.52	46961.97
737.71	47228.21
737.89	46961.97
738.08	46662.97
738.27	46933.30
738.45	47433.00
738.64	47394.09
738.82	46755.13
739.01	47326.51
739.20	47138.10
739.38	46886.20
739.57	47408.43
739.75	47064.37
739.94	46728.50
740.13	47258.93
740.31	46683.45
740.50	46648.63
740.68	47000.88
740.87	46611.77
741.06	47338.80
741.24	47031.60
741.43	46613.82
741.61	46783.80
741.80	46542.14
741.99	46267.71
742.17	46333.24
742.36	46787.89
742.54	46564.67
742.73	46708.02
742.91	46964.02
743.10	46165.31
743.29	46714.17
743.47	46640.44
743.66	46648.63
743.84	46728.50
744.03	46740.79
744.21	46546.23
744.40	46751.03
744.59	46413.12
744.77	46228.80
744.96	46628.15
745.14	46171.46
745.33	46363.96
745.51	46257.47
745.70	46630.20
745.88	46038.34
746.07	46265.66
746.26	45817.16
746.44	46355.77
746.63	46277.95
746.81	46191.94
747.00	45940.04
747.18	46138.69
747.37	45897.03
747.55	45983.04
747.74	46574.91
747.92	46257.47
748.11	46193.98
748.29	45464.91
748.48	45725.00
748.66	45718.85
748.85	45983.04
749.03	45933.89
749.22	45970.75
749.41	45659.46
749.59	45964.61
749.78	45776.20
749.96	45276.49
750.15	45856.07
750.33	45827.40
750.52	45737.29
750.70	45589.83
750.89	45698.37
751.07	45630.79
751.26	45352.27
751.44	45331.79
751.63	45753.67
751.81	45432.14
752.00	45059.41
752.18	45616.46
752.37	45499.72
752.55	45186.38
752.74	45221.20
752.92	45299.02
753.10	45131.09
753.29	45368.65
753.47	44977.49
753.66	45004.11
753.84	45149.52
754.03	45315.40
754.21	44674.39
754.40	45143.38
754.58	44991.83
754.77	45276.49
754.95	44582.23
755.14	44977.49
755.32	45215.05
755.51	44524.89
755.69	44447.07
755.88	44561.75
756.06	44866.90
756.24	44606.81
756.43	44629.34
756.61	44948.82
756.80	44385.63
756.98	44258.65
757.17	44946.77
757.35	44420.44
757.54	44719.45
757.72	44868.95
757.90	44504.41
758.09	44449.11
758.27	44653.91
758.46	44295.52
758.64	44496.22
758.83	44629.34
759.01	44324.19
759.19	44133.73
759.38	44356.96
759.56	44653.91
759.75	44537.18
759.93	43928.93
760.12	43984.22
760.30	44098.91
760.48	43978.08
760.67	43851.11
760.85	44125.53
761.04	44373.34
761.22	44383.58
761.40	43771.24
761.59	43957.60
761.77	43904.35
761.96	43830.63
762.14	43867.49
762.32	43476.33
762.51	43418.99
762.69	43660.65
762.88	43552.10
763.06	43513.19
763.24	43908.45
763.43	43744.61
763.61	44004.70
763.80	43552.10
763.98	43105.65
764.16	43257.20
764.35	43232.62
764.53	43459.94
764.72	43099.50
764.90	42909.04
765.08	43115.89
765.27	43099.50
765.45	42620.28
765.63	42851.70
765.82	43165.04
766.00	42964.34
766.18	42655.09
766.37	43423.08
766.55	42818.93
766.74	43175.28
766.92	42898.80
767.10	42753.40
767.29	42687.86
767.47	42759.54
767.65	42534.26
767.84	42521.98
768.02	42960.24
768.20	42278.27
768.39	42700.15
768.57	42732.92
768.75	42540.41
768.94	42431.86
769.12	42714.48
769.30	42163.58
769.49	42182.01
769.67	42388.86
769.85	42415.48
770.04	42460.54
770.22	42085.76
770.40	41946.50
770.59	41710.98
770.77	42139.00
770.95	41997.70
771.14	41729.41
771.32	41594.25
771.50	41588.10
771.69	41579.91
771.87	41684.36
772.05	41155.98
772.24	41403.78
772.42	41926.02
772.60	41696.64
772.78	41555.33
772.97	41268.62
773.15	41919.87
773.33	41483.66
773.52	40809.87
773.70	41174.41
773.88	41698.69
774.07	41592.20
774.25	41489.80
774.43	41520.52
774.61	41493.89
774.80	41467.27
774.98	41108.88
775.16	41465.22
775.34	41581.96
775.53	41145.74
775.71	42079.61
775.89	41336.20
776.08	41483.66
776.26	41723.27
776.44	41565.57
776.62	41760.13
776.81	41325.96
776.99	41792.90
777.17	41772.42
777.35	41491.85
777.54	41700.74
777.72	41414.02
777.90	41442.70
778.08	42294.65
778.27	41809.28
778.45	41950.59
778.63	42136.96
778.81	41502.09
779.00	42294.65
779.18	41938.30
779.36	42315.13
779.54	42003.84
779.73	41915.78
779.91	42370.43
780.09	42552.69
780.27	42495.35
780.46	42612.09
780.64	42270.08
780.82	42022.27
781.00	42341.75
781.19	42481.02
781.37	42366.33
781.55	42487.16
781.73	42462.58
781.91	42028.41
782.10	42634.61
782.28	42505.59
782.46	42663.28
782.64	42906.99
782.82	42421.62
783.01	43111.79
783.19	42958.19
783.37	43115.89
783.55	42239.36
783.74	42968.43
783.92	42188.16
784.10	43181.42
784.28	42569.08
784.46	42464.63
784.64	42259.84
784.83	42829.17
785.01	42906.99
785.19	42614.13
785.37	42581.37
785.55	42550.65
785.74	42351.99
785.92	42413.43
786.10	42540.41
786.28	42716.53
786.46	42528.12
786.64	42050.94
786.83	42347.90
787.01	42747.25
787.19	42126.72
787.37	42812.79
787.55	42259.84
787.74	42247.55
787.92	42210.68
788.10	41932.16
788.28	42028.41
788.46	42118.53
788.64	41856.39
788.82	42280.31
789.01	41794.95
789.19	41758.08
789.37	41780.61
789.55	41842.05
789.73	41670.02
789.91	41526.66
790.09	41256.33
790.28	41512.33
790.46	41276.81
790.64	41424.26
790.82	41571.72
791.00	41461.13
791.18	41049.49
791.36	41002.38
791.55	41035.15
791.73	41112.97
791.91	41207.18
792.09	41153.93
792.27	40830.35
792.45	41080.21
792.63	40711.57
792.81	40637.84
793.00	40629.65
793.18	40119.71
793.36	40244.63
793.54	39978.40
793.72	40228.25
793.90	39826.85
794.08	39763.36
794.26	40115.61
794.44	39493.03
794.62	39599.52
794.81	40086.94
794.99	39763.36
795.17	39564.71
795.35	39396.77
795.53	39871.90
795.71	39845.28
795.89	39191.98
796.07	39484.84
796.25	39044.52
796.43	38940.08
796.61	38927.79
796.80	38655.41
796.98	38782.38
797.16	38407.61
797.34	38700.47
797.52	38405.56
797.70	38892.97
797.88	38704.56
798.06	38436.28
798.24	38245.82
798.42	38319.54
798.60	38002.11
798.78	37936.57
798.96	38256.06
799.14	37600.71
799.32	37791.17
799.51	37490.12
799.69	37955.00
799.87	37625.28
800.05	37500.36
800.23	37582.27
800.41	37090.76
800.59	37254.60
800.77	37252.55
800.95	36926.92
801.13	36898.25
801.31	36597.20
801.49	36947.40
801.67	36732.37
801.85	36847.05
802.03	36580.82
802.21	36558.29
802.39	36269.53
802.57	36525.52
802.75	36394.45
802.93	35952.09
803.11	35988.95
803.29	35984.86
803.47	36019.67
803.65	35620.32
803.83	35712.48
804.01	35954.14
804.19	35421.67
804.37	35522.02
804.55	35323.36
804.73	35100.14
804.91	35276.26
805.09	35245.54
805.27	35374.56
805.45	35687.90
805.63	35106.28
805.81	35134.95
805.99	35306.98
806.17	35161.58
806.35	34969.07
806.53	34543.09
806.71	35202.53
806.89	34758.13
807.07	34575.86
807.25	34684.40
807.43	34321.91
807.61	34469.36
807.79	34123.26
807.97	33771.00
808.15	34104.82
808.33	33869.31
808.51	34180.60
808.69	34135.54
808.87	33791.48
809.05	33664.51
809.23	33566.21
809.41	33431.04
809.59	33654.27
809.77	33336.84
809.95	32933.39
810.13	33787.39
810.31	33185.29
810.49	32953.87
810.67	33093.13
810.84	33224.20
811.02	33238.53
811.20	32888.33
811.38	33271.30
811.56	33025.54
811.74	32738.83
811.92	32695.82
812.10	32597.52
812.28	32841.23
812.46	32622.09
812.64	32513.55
812.82	32468.50
813.00	32036.38
813.18	32331.28
813.36	31983.13
813.53	32085.53
813.71	32304.66
813.89	31852.06
814.07	32101.91
814.25	31761.95
814.43	31886.87
814.61	31901.21
814.79	31659.55
814.97	31446.56
815.15	31700.51
815.33	31297.06
815.50	31102.50
815.68	31510.05
815.86	31825.43
816.04	31415.84
816.22	31069.73
816.40	30920.23
816.58	31118.89
816.76	30688.81
816.94	30969.38
817.11	31096.36
817.29	30942.76
817.47	30807.59
817.65	30950.95
817.83	30756.39
818.01	30567.98
818.19	30428.72
818.37	30711.34
818.54	30414.38
818.72	30418.48
818.90	30463.54
819.08	30275.12
819.26	30334.51
819.44	30203.44
819.62	29910.58
819.80	30215.73
819.97	30219.83
820.15	30002.74
820.33	30244.40
820.51	30164.53
820.69	29724.22
820.87	30152.24
821.05	30244.40
821.22	29691.45
821.40	29595.20
821.58	29556.28
821.76	29435.45
821.94	29652.54
822.12	29544.00
822.29	29881.91
822.47	29371.97
822.65	29926.97
822.83	29648.44
823.01	29355.58
823.19	29132.36
823.36	28968.52
823.54	29077.06
823.72	29167.17
823.90	28982.85
824.08	28714.57
824.25	28917.32
824.43	28634.70
824.61	28513.87
824.79	28773.96
824.97	28446.29
825.15	28862.02
825.32	28464.72
825.50	28671.56
825.68	28239.44
825.86	28601.93
826.04	28583.50
826.21	28231.25
826.39	28464.72
826.57	28003.92
826.75	28356.18
826.93	28161.62
827.10	28077.65
827.28	28098.13
827.46	28442.19
827.64	28067.41
827.81	28245.58
827.99	28067.41
828.17	27954.77
828.35	27733.59
828.53	28022.36
828.70	27819.61
828.88	27762.26
829.06	27749.98
829.24	27967.06
829.41	27559.52
829.59	27938.39
829.77	27528.80
829.95	27745.88
830.12	27469.40
830.30	27598.43
830.48	27512.41
830.66	27526.75
830.84	27600.47
831.01	27317.86
831.19	27528.80
831.37	27199.07
831.55	27242.08
831.72	26738.28
831.90	27080.29
832.08	26992.23
832.25	27174.50
832.43	26873.45
832.61	26758.76
832.79	26609.26
832.96	26785.38
833.14	26977.89
833.32	26588.78
833.50	26879.59
833.67	26891.88
833.85	26941.03
834.03	26541.68
834.20	26695.27
834.38	26426.99
834.56	26728.04
834.74	26330.73
834.91	26431.08
835.09	26556.01
835.27	26363.50
835.44	26330.73
835.62	26130.03
835.80	26056.31
835.98	26134.13
836.15	26056.31
836.33	25839.22
836.51	26324.59
836.68	25880.18
836.86	25792.12
837.04	26105.46
837.21	25931.38
837.39	26234.48
837.57	26095.22
837.75	26046.07
837.92	25607.80
838.10	25607.80
838.28	25775.73
838.45	25736.82
838.63	25360.00
838.81	25679.48
838.98	25693.82
839.16	25335.42
839.34	25337.47
839.51	25622.14
839.69	25278.08
839.87	25149.06
840.04	25187.97
840.22	25249.41
840.40	25130.62
840.57	25159.30
840.75	25099.90
840.93	25020.03
841.10	25253.50
841.28	25638.52
841.46	25280.13
841.63	25339.52
841.81	24868.48
841.98	25140.86
842.16	24938.12
842.34	24901.25
842.51	24739.46
842.69	24993.41
842.87	24587.91
843.04	24723.08
843.22	24819.33
843.40	24708.74
843.57	24393.36
843.75	24567.43
843.92	24874.63
844.10	24581.77
844.28	24608.39
844.45	24505.99
844.63	24387.21
844.81	24213.13
844.98	24485.51
845.16	24381.07
845.33	24270.48
845.51	24376.97
845.69	24358.54
845.86	24055.44
846.04	24112.78
846.21	24262.29
846.39	23991.95
846.57	24010.39
846.74	24116.88
846.92	23920.28
847.09	23957.14
847.27	23705.24
847.45	23772.82
847.62	23559.83
847.80	23766.68
847.97	23545.50
848.15	23643.80
848.32	23633.56
848.50	23760.53
848.68	23627.42
848.85	23492.25
849.03	23484.06
849.20	23682.71
849.38	23717.53
849.56	23701.14
849.73	23334.56
849.91	23420.57
850.08	23432.86
850.26	23211.68
850.43	23428.76
850.61	23496.35
850.78	22892.19
850.96	23189.15
851.14	22924.96
851.31	23477.91
851.49	23088.80
851.66	23166.62
851.84	23119.52
852.01	23129.76
852.19	23146.14
852.36	22884.00
852.54	22834.85
852.71	22638.25
852.89	22675.11
853.07	22785.70
853.24	22996.64
853.42	23045.79
853.59	22832.80
853.77	22818.47
853.94	22849.19
854.12	23019.17
854.29	22552.23
854.47	22468.27
854.64	22267.56
854.82	22541.99
854.99	22623.91
855.17	22572.71
855.34	22455.98
855.52	22556.33
855.69	22642.34
855.87	22150.83
856.04	22257.32
856.22	22081.20
856.39	22042.29
856.57	22318.76
856.74	22263.47
856.92	22455.98
857.09	22005.42
857.27	22013.62
857.44	22531.75
857.62	22032.05
857.79	22199.98
857.97	22103.73
858.14	22048.43
858.32	21706.42
858.49	22132.40
858.67	21677.75
858.84	21829.30
859.02	21913.27
859.19	21860.02
859.37	21698.23
859.54	21706.42
859.72	21579.45
859.89	21657.27
860.06	21814.96
860.24	21311.16
860.41	21923.51
860.59	21321.40
860.76	21608.12
860.94	21216.96
861.11	21280.44
861.29	21229.24
861.46	21128.89
861.64	21042.88
861.81	20911.81
861.98	21010.11
862.16	21108.41
862.33	20977.34
862.51	21028.54
862.68	21135.04
862.86	21089.98
863.03	20883.14
863.21	20694.72
863.38	20836.03
863.55	20645.57
863.73	20782.79
863.90	20831.94
864.08	20872.90
864.25	20858.56
864.43	20717.25
864.60	20752.07
864.77	20514.50
864.95	20580.04
865.12	20463.30
865.30	20532.93
865.47	20514.50
865.64	20704.96
865.82	20713.16
865.99	20389.58
866.17	20377.29
866.34	20408.01
866.51	20350.67
866.69	20528.84
866.86	20399.82
867.04	20190.92
867.21	20119.24
867.38	19662.55
867.56	20203.21
867.73	19955.41
867.91	20127.44
868.08	20084.43
868.25	19769.04
868.43	19910.35
868.60	19869.39
868.78	19877.58
868.95	20049.61
869.12	19990.22
869.30	19777.23
869.47	19889.87
869.64	19687.12
869.82	19703.51
869.99	19625.68
870.16	19658.45
870.34	19760.85
870.51	19529.43
870.69	19164.89
870.86	19558.10
871.03	19474.13
871.21	19289.82
871.38	19308.25
871.55	19238.62
871.73	19220.19
871.90	19195.61
872.07	19046.11
872.25	19025.63
872.42	18874.08
872.59	19164.89
872.77	19044.06
872.94	18783.97
873.11	18831.07
873.29	18951.90
873.46	18831.07
873.63	19064.54
873.81	18990.81
873.98	18691.81
874.15	18892.51
874.33	18525.93
874.50	18654.95
874.67	18851.55
874.85	18593.51
875.02	18513.64
875.19	18560.74
875.37	18448.10
875.54	18185.96
875.71	18331.37
875.88	18513.64
876.06	18083.56
876.23	18284.26
876.40	18327.27
876.58	18114.28
876.75	18284.26
876.92	17925.87
877.10	18243.31
877.27	18067.18
877.44	17972.97
877.61	17983.21
877.79	17821.42
877.96	17985.26
878.13	18093.80
878.31	17542.90
878.48	17778.42
878.65	17833.71
878.82	17653.49
879.00	17635.06
879.17	17422.07
879.34	17731.31
879.51	17475.32
879.69	17524.47
879.86	17368.82
880.03	17463.03
880.21	17340.15
880.38	17448.69
880.55	17442.55
880.72	17153.79
880.90	17354.49
881.07	17096.44
881.24	17346.30
881.41	17364.73
881.59	17186.55
881.76	17307.38
881.93	16963.33
882.10	16981.76
882.28	17084.16
882.45	17006.33
882.62	17014.52
882.79	17196.79
882.96	16932.61
883.14	17047.29
883.31	17092.35
883.48	16920.32
883.65	16758.53
883.83	16953.09
884.00	16912.13
884.17	16832.26
884.34	16842.50
884.51	16733.95
884.69	16817.92
884.86	16748.29
885.03	16901.89
885.20	16420.61
885.38	16850.69
885.55	16486.15
885.72	16363.27
885.89	16406.28
886.06	16459.52
886.24	16312.07
886.41	16383.75
886.58	16443.14
886.75	16498.44
886.92	16326.41
887.10	16672.51
887.27	16457.48
887.44	16340.74
887.61	16490.24
887.78	16365.32
887.95	16232.20
888.13	16346.89
888.30	16031.50
888.47	15951.63
888.64	16213.77
888.81	16113.42
888.99	16213.77
889.16	15974.16
889.33	15957.77
889.50	15863.57
889.67	15974.16
889.84	15922.96
890.01	16097.03
890.19	15998.73
890.36	15765.26
890.53	15963.92
890.70	15617.81
890.87	15795.98
891.04	15789.84
891.22	15535.89
891.39	15599.38
891.56	15511.32
891.73	15507.22
891.90	15632.15
892.07	15294.23
892.24	15562.51
892.42	15421.20
892.59	15619.86
892.76	15165.21
892.93	15499.03
893.10	15335.19
893.27	15677.20
893.44	15363.86
893.61	15157.02
893.79	15525.65
893.96	15370.01
894.13	15367.96
894.30	15431.44
894.47	15165.21
894.64	15363.86
894.81	15128.35
894.98	15378.20
895.15	15478.55
895.33	15261.46
895.50	15261.46
895.67	15441.68
895.84	15091.48
896.01	15052.57
896.18	15234.84
896.35	15415.06
896.52	15089.43
896.69	15408.92
896.86	15044.38
897.04	15056.67
897.21	15263.51
897.38	15259.42
897.55	15273.75
897.72	14837.53
897.89	15261.46
898.06	14982.94
898.23	15183.64
898.40	15310.61
898.57	15077.15
898.74	14982.94
898.91	15111.96
899.08	15027.99
899.26	15163.16
899.43	14968.60
899.60	15011.61
899.77	15159.06
899.94	15027.99
900.11	15181.59
900.28	14866.21
900.45	14761.76
900.62	15001.37
900.79	14991.13
900.96	15095.58
901.13	15087.39
901.30	14898.97
901.47	15019.80
901.64	15136.54
901.81	14898.97
901.98	14614.30
902.15	15197.98
902.32	14946.08
902.49	14829.34
902.66	15060.76
902.83	14915.36
903.01	14948.12
903.18	14843.68
903.35	15157.02
903.52	14995.23
903.69	14829.34
903.86	15093.53
904.03	14782.24
904.20	15036.19
904.37	14937.88
904.54	14776.09
904.71	14925.60
904.88	14831.39
905.05	14812.96
905.22	14984.99
905.39	14823.20
905.56	14853.92
905.73	14892.83
905.90	15046.43
906.07	14772.00
906.24	15034.14
906.41	14747.42
906.58	14782.24
906.75	14755.61
906.92	14913.31
907.09	14982.94
907.26	14718.75
907.43	14759.71
907.60	14704.42
907.77	14769.95
907.93	14761.76
908.10	14794.53
908.27	14923.55
908.44	14681.89
908.61	14817.05
908.78	14630.69
908.95	14921.50
909.12	14538.53
909.29	14610.21
909.46	14700.32
909.63	14849.82
909.80	14761.76
909.97	14817.05
910.14	14763.81
910.31	14612.26
910.48	14774.05
910.65	14659.36
910.82	14452.52
910.99	14561.06
911.16	14587.68
911.33	14448.42
911.50	14468.90
911.66	14292.77
911.83	14651.17
912.00	14288.68
912.17	14616.35
912.34	14544.67
912.51	14352.16
912.68	14274.34
912.85	14343.97
913.02	14329.64
913.19	14104.36
913.36	14305.06
913.53	14352.16
913.70	14161.70
913.86	14497.57
914.03	14055.21
914.20	14249.77
914.37	14018.35
914.54	13958.96
914.71	14130.98
914.88	13913.90
915.05	14006.06
915.22	13983.53
915.39	13764.40
915.55	13958.96
915.72	13883.18
915.89	13961.00
916.06	13743.92
916.23	13684.53
916.40	13696.82
916.57	13659.95
916.74	13547.31
916.91	13594.42
917.07	13471.54
917.24	13301.56
917.41	13514.55
917.58	13563.70
917.75	13504.31
917.92	13272.89
918.09	13295.41
918.26	13481.78
918.42	13199.16
918.59	13250.36
918.76	13197.11
918.93	13309.75
919.10	13082.42
919.27	13143.86
919.44	13319.99
919.60	13369.14
919.77	12971.83
919.94	13018.94
920.11	12857.15
920.28	13154.10
920.45	12904.25
920.61	12900.16
920.78	12793.66
920.95	12562.24
921.12	12650.30
921.29	12603.20
921.46	12541.76
921.62	12189.51
921.79	12500.80
921.96	12578.62
922.13	12511.04
922.30	12275.52
922.47	12435.27
922.63	12302.15
922.80	12390.21
922.97	12257.09
923.14	12093.26
923.31	12425.03
923.47	12052.30
923.64	12427.07
923.81	11945.80
923.98	12107.59
924.15	11908.94
924.32	11958.09
924.48	11968.33
924.65	12089.16
924.82	12033.86
924.99	11716.43
925.15	11730.76
925.32	11929.42
925.49	11372.37
925.66	11530.06
925.83	11509.58
925.99	11630.41
926.16	11550.54
926.33	11331.41
926.50	11274.07
926.67	11308.88
926.83	11323.22
927.00	11360.08
927.17	11087.70
927.34	11147.09
927.50	11028.31
927.67	11534.16
927.84	10981.21
928.01	10989.40
928.17	11046.74
928.34	10915.67
928.51	11038.55
928.68	10717.02
928.84	10948.44
929.01	10772.32
929.18	10350.43
929.35	10534.75
929.51	10741.60
929.68	10532.70
929.85	10434.40
930.02	10434.40
930.18	10317.67
930.35	10264.42
930.52	10225.51
930.69	10262.37
930.85	10461.02
931.02	10112.87
931.19	9961.32
931.36	9996.14
931.52	10098.53
931.69	10188.64
931.86	9854.83
932.02	9973.61
932.19	10035.05
932.36	9942.89
932.53	9854.83
932.69	9777.00
932.86	9758.57
933.03	9549.68
933.19	9455.47
933.36	9488.24
933.53	9521.01
933.70	9629.55
933.86	9400.18
934.03	9238.39
934.20	9234.29
934.36	9394.03
934.53	9138.04
934.70	9166.71
934.86	9142.13
935.03	8916.86
935.20	8982.39
935.36	8945.53
935.53	8814.46
935.70	8777.59
935.86	8720.25
936.03	8669.05
936.20	8525.69
936.36	8499.07
936.53	8449.92
936.70	8273.79
936.86	8341.38
937.03	8331.14
937.20	8179.59
937.36	8138.63
937.53	7927.69
937.70	7792.52
937.86	7813.00
938.03	7700.36
938.20	8015.75
938.36	7415.69
938.53	7665.55
938.70	7331.73
938.86	7362.45
939.03	7309.20
939.20	7192.47
939.36	7192.47
939.53	7045.01
939.70	7012.24
939.86	6836.12
940.03	6705.05
940.19	6743.96
940.36	6832.02
940.53	6713.24
940.69	6377.37
940.86	6596.51
941.03	6563.74
941.19	6311.84
941.36	6381.47
941.52	6309.79
941.69	6143.91
941.86	6221.73
942.02	6107.04
942.19	6127.52
942.35	5961.64
942.52	5953.45
942.69	5937.06
942.85	5836.71
943.02	5709.74
943.18	5799.85
943.35	5722.02
943.52	5722.02
943.68	5623.72
943.85	5916.58
944.01	5578.67
944.18	5523.37
944.35	5590.95
944.51	5468.08
944.68	5377.97
944.84	5468.08
945.01	5318.57
945.17	5359.53
945.34	5332.91
945.51	5482.41
945.67	5298.10
945.84	5345.20
946.00	5253.04
946.17	5369.77
946.33	5199.79
946.50	5427.12
946.67	5253.04
946.83	5416.88
947.00	5283.76
947.16	5324.72
947.33	5246.90
947.49	5351.34
947.66	5210.03
947.82	5294.00
947.99	5181.36
948.16	5382.06
948.32	5257.14
948.49	5406.64
948.65	5234.61
948.82	5263.28
948.98	5162.93
949.15	5099.44
949.31	5347.25
949.48	5304.24
949.64	5197.74
949.81	5220.27
949.97	5138.35
950.14	5324.72
950.30	5138.35
950.47	5392.30
950.63	5195.70
950.80	5244.85
950.96	5197.74
951.13	5283.76
951.30	5320.62
951.46	5263.28
951.63	5451.69
951.79	5283.76
951.96	5316.53
952.12	5220.27
952.29	5318.57
952.45	5289.90
952.62	5423.02
952.78	5382.06
952.94	5343.15
953.11	5304.24
953.27	5330.86
953.44	5351.34
953.60	5312.43
953.77	5502.89
953.93	5302.19
954.10	5220.27
954.26	5386.16
954.43	5502.89
954.59	5492.65
954.76	5656.49
954.92	5369.77
955.09	5388.21
955.25	5490.60
955.42	5343.15
955.58	5431.21
955.75	5459.88
955.91	5447.60
956.07	5494.70
956.24	5398.45
956.40	5539.76
956.57	5480.36
956.73	5461.93
956.90	5388.21
957.06	5337.01
957.23	5240.75
957.39	5322.67
957.56	5451.69
957.72	5351.34
957.88	5181.36
958.05	5468.08
958.21	5451.69
958.38	5480.36
958.54	5353.39
958.71	5605.29
958.87	5582.76
959.03	5359.53
959.20	5412.78
959.36	5332.91
959.53	5445.55
959.69	5308.34
959.85	5476.27
960.02	5367.73
960.18	5533.61
960.35	5461.93
960.51	5486.51
960.68	5318.57
960.84	5365.68
961.00	5457.84
961.17	5359.53
961.33	5441.45
961.50	5408.69
961.66	5369.77
961.82	5349.29
961.99	5437.36
962.15	5330.86
962.31	5377.97
962.48	5384.11
962.64	5439.40
962.81	5418.93
962.97	5468.08
963.13	5468.08
963.30	5492.65
963.46	5224.37
963.62	5357.49
963.79	5410.73
963.95	5363.63
964.12	5396.40
964.28	5455.79
964.44	5230.51
964.61	5255.09
964.77	5248.94
964.93	5470.12
965.10	5263.28
965.26	5246.90
965.42	5232.56
965.59	5226.42
965.75	5195.70
965.92	5234.61
966.08	5302.19
966.24	5228.46
966.41	5214.13
966.57	5339.05
966.73	5234.61
966.90	5328.81
967.06	5343.15
967.22	5095.35
967.39	5296.05
967.55	5181.36
967.71	5234.61
967.88	5134.26
968.04	5121.97
968.20	5189.55
968.37	5105.59
968.53	5175.22
968.69	5167.03
968.85	5320.62
969.02	5259.18
969.18	5033.91
969.34	5103.54
969.51	5183.41
969.67	5162.93
969.83	5134.26
970.00	5134.26
970.16	5132.21
970.32	5097.39
970.48	5238.70
970.65	5066.67
970.81	5111.73
970.97	4990.90
971.14	5003.19
971.30	5193.65
971.46	5005.24
971.63	4970.42
971.79	5076.91
971.95	4911.03
972.11	4966.32
972.28	4970.42
972.44	5005.24
972.60	4913.08
972.76	5054.39
972.93	4943.80
973.09	4972.47
973.25	4919.22
973.42	4767.67
973.58	4919.22
973.74	5009.33
973.90	5070.77
974.07	4847.54
974.23	4906.93
974.39	4868.02
974.55	4833.21
974.72	4798.39
974.88	4612.03
975.04	4835.25
975.20	4810.68
975.37	4784.06
975.53	4665.27
975.69	4782.01
975.85	4693.94
976.01	4591.55
976.18	4698.04
976.34	4765.62
976.50	4835.25
976.66	4786.10
976.83	4698.04
976.99	4800.44
977.15	4691.90
977.31	4587.45
977.47	4730.81
977.64	4622.27
977.80	4652.98
977.96	4786.10
978.12	4620.22
978.29	4472.76
978.45	4493.24
978.61	4538.30
978.77	4566.97
978.93	4474.81
979.10	4579.26
979.26	4528.06
979.42	4587.45
979.58	4566.97
979.74	4390.84
979.91	4478.91
980.07	4431.80
980.23	4382.65
980.39	4419.52
980.55	4351.93
980.71	4556.73
980.88	4298.69
981.04	4425.66
981.20	4368.32
981.36	4478.91
981.52	4337.60
981.68	4270.01
981.85	4333.50
982.01	4368.32
982.17	4343.74
982.33	4282.30
982.49	4540.35
982.65	4294.59
982.82	4464.57
982.98	4220.86
983.14	4181.95
983.30	4323.26
983.46	4247.49
983.62	4282.30
983.79	4181.95
983.95	4220.86
984.11	4222.91
984.27	4222.91
984.43	4087.75
984.59	4104.13
984.75	4302.78
984.91	4057.03
985.08	4214.72
985.24	4198.34
985.40	4120.51
985.56	4218.82
985.72	4149.18
985.88	4087.75
986.04	4126.66
986.20	4145.09
986.37	4100.03
986.53	4009.92
986.69	4030.40
986.85	4118.47
987.01	3966.92
987.17	4177.86
987.33	3831.75
987.49	3932.10
987.65	4052.93
987.82	3999.68
987.98	3928.00
988.14	4104.13
988.30	3966.92
988.46	4036.55
988.62	3930.05
988.78	3934.15
988.94	3887.04
989.10	3796.93
989.26	3815.37
989.42	3764.17
989.59	3950.53
989.75	3823.56
989.91	3885.00
990.07	3835.85
990.23	3684.30
990.39	3786.69
990.55	3839.94
990.71	3680.20
990.87	3891.14
991.03	3794.89
991.19	3794.89
991.35	3737.54
991.51	3704.78
991.67	3841.99
991.83	3796.93
992.00	3792.84
992.16	3850.18
992.32	3715.02
992.48	3717.06
992.64	3610.57
992.80	3616.71
992.96	3741.64
993.12	3606.47
993.28	3651.53
993.44	3690.44
993.60	3626.95
993.76	3739.59
993.92	3696.58
994.08	3610.57
994.24	3663.82
994.40	3622.86
994.56	3622.86
994.72	3555.27
994.88	3530.70
995.04	3581.90
995.20	3542.99
995.36	3518.41
995.52	3649.48
995.68	3581.90
995.84	3461.07
996.00	3698.63
996.16	3520.46
996.32	3418.06
996.48	3446.73
996.64	3481.55
996.80	3512.27
996.96	3551.18
997.12	3440.59
997.28	3395.53
997.44	3426.25
997.60	3387.34
997.76	3489.74
997.92	3514.31
998.08	3432.40
998.24	3348.43
998.40	3424.20
998.56	3444.68
998.72	3293.13
998.88	3348.43
999.04	3416.01
999.20	3278.80
999.36	3264.46
999.52	3379.15
999.68	3383.24
999.84	3393.48
1000.00	3426.25
1000.16	3350.48
1000.32	3258.32
1000.48	3319.76
1000.64	3213.26
1000.80	3190.74
1000.95	3155.92
1001.11	3256.27
1001.27	3131.34
1001.43	3250.13
1001.59	3074.00
1001.75	3270.61
1001.91	3227.60
1002.07	3241.93
1002.23	3141.58
1002.39	3176.40
1002.55	3205.07
1002.71	3192.78
1002.87	3080.14
1003.03	3080.14
1003.19	3100.62
1003.34	3262.41
1003.50	3090.38
1003.66	3112.91
1003.82	3166.16
1003.98	3082.19
1004.14	3071.95
1004.30	3055.57
1004.46	2959.31
1004.62	2936.79
1004.78	2938.84
1004.94	3065.81
1005.09	3035.09
1005.25	2977.75
1005.41	2963.41
1005.57	3067.86
1005.73	3063.76
1005.89	2918.36
1006.05	3039.19
1006.21	3067.86
1006.37	2953.17
1006.52	2981.84
1006.68	2807.77
1006.84	3020.75
1007.00	2873.30
1007.16	2936.79
1007.32	2873.30
1007.48	2877.40
1007.64	3000.27
1007.79	2934.74
1007.95	2760.66
1008.11	2850.77
1008.27	2895.83
1008.43	2940.88
1008.59	2834.39
1008.75	2940.88
1008.91	2875.35
1009.06	2867.16
1009.22	2840.53
1009.38	2869.20
1009.54	2879.44
1009.70	2842.58
1009.86	2756.57
1010.01	2770.90
1010.17	2830.29
1010.33	2916.31
1010.49	2895.83
1010.65	2834.39
1010.81	2742.23
1010.96	2793.43
1011.12	2762.71
1011.28	2705.37
1011.44	2762.71
1011.60	2707.41
1011.76	2711.51
1011.91	2756.57
1012.07	2697.17
1012.23	2566.10
1012.39	2658.26
1012.55	2736.09
1012.71	2625.50
1012.86	2695.13
1013.02	2654.17
1013.18	2676.70
1013.34	2602.97
1013.50	2672.60
1013.65	2600.92
1013.81	2562.01
1013.97	2639.83
1014.13	2617.30
1014.29	2557.91
1014.44	2682.84
1014.60	2635.74
1014.76	2549.72
1014.92	2582.49
1015.07	2605.02
1015.23	2658.26
1015.39	2494.43
1015.55	2559.96
1015.71	2533.34
1015.86	2494.43
1016.02	2596.82
1016.18	2475.99
1016.34	2648.02
1016.49	2574.30
1016.65	2562.01
1016.81	2490.33
1016.97	2480.09
1017.12	2668.50
1017.28	2461.66
1017.44	2273.25
1017.60	2514.91
1017.75	2521.05
1017.91	2506.71
1018.07	2455.51
1018.23	2467.80
1018.38	2496.47
1018.54	2412.51
1018.70	2441.18
1018.86	2371.55
1019.01	2365.40
1019.17	2396.12
1019.33	2508.76
1019.49	2506.71
1019.64	2422.75
1019.80	2486.23
1019.96	2475.99
1020.12	2400.22
1020.27	2379.74
1020.43	2312.16
1020.59	2418.65
1020.74	2363.36
1020.90	2361.31
1021.06	2322.40
1021.22	2289.63
1021.37	2344.92
1021.53	2318.30
1021.69	2361.31
1021.84	2342.88
1022.00	2306.01
1022.16	2238.43
1022.31	2318.30
1022.47	2355.16
1022.63	2224.09
1022.79	2273.25
1022.94	2320.35
1023.10	2373.60
1023.26	2299.87
1023.41	2246.62
1023.57	2279.39
1023.73	2342.88
1023.88	2299.87
1024.04	2205.66
1024.20	2314.20
1024.35	2289.63
1024.51	2246.62
1024.67	2301.92
1024.82	2244.57
1024.98	2215.90
1025.14	2269.15
1025.29	2271.20
1025.45	2297.82
1025.61	2183.13
1025.76	2181.09
1025.92	2240.48
1026.08	2314.20
1026.23	2199.52
1026.39	2256.86
1026.55	2265.05
1026.70	2187.23
1026.86	2146.27
1027.02	2318.30
1027.17	2203.61
1027.33	2211.81
1027.48	2205.66
1027.64	2181.09
1027.80	2158.56
1027.95	2158.56
1028.11	2107.36
1028.27	2174.94
1028.42	2285.53
1028.58	2058.21
1028.73	2103.26
1028.89	2002.91
1029.05	2150.37
1029.20	2197.47
>>>>>End Processed Spectral Data<<<<<
