SpectraSuite Data File
++++++++++++++++++++++++++++++++++++
Date: Fri Jun 02 14:47:57 CEST 2017
User: INFO_000
Dark Spectrum Present: No
Reference Spectrum Present: No
Number of Sampled Component Spectra: 1
Spectrometers: USB4H00879
Integration Time (usec): 80000 (USB4H00879)
Spectra Averaged: 1 (USB4H00879)
Boxcar Smoothing: 0 (USB4H00879)
Correct for Electrical Dark: No (USB4H00879)
Strobe/Lamp Enabled: No (USB4H00879)
Correct for Detector Non-linearity: No (USB4H00879)
Correct for Stray Light: No (USB4H00879)
Number of Pixels in Processed Spectrum: 3648
>>>>>Begin Processed Spectral Data<<<<<
345.13	1316.84
345.34	1316.84
345.56	1316.84
345.78	1279.98
345.99	1322.99
346.21	1669.09
346.42	1705.96
346.64	1634.28
346.86	1763.30
347.07	1691.62
347.29	1761.25
347.50	1683.43
347.72	1683.43
347.94	1736.68
348.15	1533.93
348.37	1650.66
348.59	1712.10
348.80	1738.73
349.02	1853.41
349.23	1777.64
349.45	1806.31
349.67	1964.00
349.88	1845.22
350.10	1953.76
350.31	1851.36
350.53	1820.64
350.75	1957.86
350.96	1787.88
351.18	1861.60
351.39	1800.16
351.61	1785.83
351.82	1873.89
352.04	1851.36
352.26	1820.64
352.47	1925.09
352.69	1847.27
352.90	1769.44
353.12	1843.17
353.34	1839.08
353.55	1931.23
353.77	1841.12
353.98	1861.60
354.20	1791.97
354.41	1916.90
354.63	1968.10
354.85	2070.50
355.06	1908.71
355.28	1763.30
355.49	1927.14
355.71	1888.23
355.92	1927.14
356.14	1994.72
356.35	1892.32
356.57	1779.68
356.79	1941.47
357.00	1894.37
357.22	1947.62
357.43	1787.88
357.65	1953.76
357.86	1884.13
358.08	1857.51
358.29	1945.57
358.51	1990.63
358.72	2064.35
358.94	1880.04
359.16	1843.17
359.37	1974.24
359.59	1951.71
359.80	2064.35
360.02	1912.80
360.23	1978.34
360.45	1992.67
360.66	1910.75
360.88	1777.64
361.09	1869.80
361.31	1998.82
361.52	1951.71
361.74	2033.63
361.95	2088.93
362.17	1945.57
362.38	2117.60
362.60	1968.10
362.81	2013.15
363.03	1951.71
363.24	1945.57
363.46	2088.93
363.67	2031.58
363.89	1992.67
364.10	1914.85
364.32	2011.11
364.53	1996.77
364.75	1941.47
364.96	2025.44
365.18	2039.78
365.39	2000.87
365.61	1955.81
365.82	2090.98
366.04	1992.67
366.25	1968.10
366.47	2037.73
366.68	2115.55
366.90	1978.34
367.11	2009.06
367.33	2123.74
367.54	2093.02
367.76	1994.72
367.97	2109.41
368.19	2002.91
368.40	2058.21
368.62	1982.43
368.83	1966.05
369.05	2064.35
369.26	1968.10
369.48	1984.48
369.69	1939.43
369.91	2045.92
370.12	2052.06
370.33	2127.84
370.55	1986.53
370.76	2062.30
370.98	2201.57
371.19	2015.20
371.41	1957.86
371.62	2086.88
371.84	2011.11
372.05	2154.46
372.27	2140.13
372.48	2093.02
372.69	2133.98
372.91	2090.98
373.12	2125.79
373.34	2068.45
373.55	2103.26
373.77	2113.50
373.98	2068.45
374.20	2146.27
374.41	2201.57
374.62	2088.93
374.84	2205.66
375.05	2220.00
375.27	2203.61
375.48	2199.52
375.70	2117.60
375.91	2228.19
376.12	2336.73
376.34	2154.46
376.55	2213.85
376.77	2293.72
376.98	2086.88
377.19	2109.41
377.41	2086.88
377.62	2187.23
377.84	2299.87
378.05	2420.70
378.27	2172.89
378.48	2316.25
378.69	2379.74
378.91	2256.86
379.12	2242.53
379.34	2297.82
379.55	2201.57
379.76	2222.05
379.98	2254.81
380.19	2224.09
380.41	2297.82
380.62	2295.77
380.83	2127.84
381.05	2185.18
381.26	2383.84
381.47	2158.56
381.69	2269.15
381.90	2410.46
382.12	2336.73
382.33	2314.20
382.54	2234.33
382.76	2330.59
382.97	2279.39
383.19	2283.49
383.40	2324.44
383.61	2252.77
383.83	2334.68
384.04	2365.40
384.25	2385.88
384.47	2432.99
384.68	2443.23
384.89	2301.92
385.11	2363.36
385.32	2420.70
385.54	2301.92
385.75	2342.88
385.96	2365.40
386.18	2465.75
386.39	2471.90
386.60	2383.84
386.82	2361.31
387.03	2437.08
387.24	2537.43
387.46	2516.95
387.67	2529.24
387.88	2461.66
388.10	2478.04
388.31	2447.32
388.52	2490.33
388.74	2582.49
388.95	2480.09
389.16	2529.24
389.38	2490.33
389.59	2562.01
389.80	2537.43
390.02	2543.58
390.23	2619.35
390.44	2584.54
390.66	2461.66
390.87	2478.04
391.08	2527.19
391.30	2592.73
391.51	2566.10
391.72	2598.87
391.94	2568.15
392.15	2662.36
392.36	2662.36
392.58	2461.66
392.79	2582.49
393.00	2658.26
393.22	2682.84
393.43	2744.28
393.64	2838.48
393.85	2762.71
394.07	2617.30
394.28	2713.56
394.49	2746.33
394.71	2725.85
394.92	2910.16
395.13	2729.94
395.35	2758.61
395.56	2707.41
395.77	2736.09
395.98	2830.29
396.20	2871.25
396.41	2729.94
396.62	2846.68
396.84	2762.71
397.05	2803.67
397.26	2832.34
397.47	2936.79
397.69	2768.85
397.90	3012.56
398.11	2998.23
398.32	2904.02
398.54	2901.97
398.75	2912.21
398.96	2951.12
399.18	3049.43
399.39	2846.68
399.60	3043.28
399.81	2858.96
400.03	2895.83
400.24	3246.03
400.45	2987.99
400.66	3024.85
400.88	2928.60
401.09	3178.45
401.30	3086.29
401.51	3108.82
401.73	3221.45
401.94	3061.71
402.15	3125.20
402.36	3127.25
402.58	3114.96
402.79	3198.93
403.00	3141.58
403.21	3149.78
403.43	3147.73
403.64	3299.28
403.85	3102.67
404.06	3112.91
404.27	3049.43
404.49	3174.35
404.70	3129.30
404.91	3272.65
405.12	3252.17
405.34	3188.69
405.55	3354.57
405.76	3033.04
405.97	3188.69
406.19	3366.86
406.40	3258.32
406.61	3370.96
406.82	3272.65
407.03	3330.00
407.25	3262.41
407.46	3352.52
407.67	3379.15
407.88	3442.64
408.09	3330.00
408.31	3409.87
408.52	3346.38
408.73	3340.24
408.94	3354.57
409.15	3483.59
409.37	3432.40
409.58	3459.02
409.79	3440.59
410.00	3534.79
410.21	3448.78
410.43	3459.02
410.64	3399.63
410.85	3514.31
411.06	3469.26
411.27	3606.47
411.48	3598.28
411.70	3440.59
411.91	3557.32
412.12	3547.08
412.33	3598.28
412.54	3606.47
412.76	3672.01
412.97	3639.24
413.18	3491.79
413.39	3694.54
413.60	3731.40
413.81	3581.90
414.03	3620.81
414.24	3571.66
414.45	3907.52
414.66	3614.66
414.87	3661.77
415.08	3794.89
415.30	3684.30
415.51	3819.46
415.72	3743.69
415.93	3645.38
416.14	3911.62
416.35	3753.93
416.56	3753.93
416.78	3821.51
416.99	3821.51
417.20	3813.32
417.41	3841.99
417.62	3823.56
417.83	3821.51
418.04	3839.94
418.26	3899.33
418.47	3829.70
418.68	3919.81
418.89	3829.70
419.10	4087.75
419.31	3985.35
419.52	3928.00
419.73	3966.92
419.95	4112.32
420.16	3948.48
420.37	4093.89
420.58	4067.27
420.79	3913.67
421.00	4001.73
421.21	4104.13
421.42	4067.27
421.63	4188.10
421.85	4153.28
422.06	4206.53
422.27	4138.94
422.48	4253.63
422.69	4310.97
422.90	4267.97
423.11	4204.48
423.32	4210.62
423.53	4382.65
423.75	4339.65
423.96	4419.52
424.17	4288.45
424.38	4456.38
424.59	4331.45
424.80	4466.62
425.01	4317.12
425.22	4399.04
425.43	4437.95
425.64	4419.52
425.85	4532.15
426.06	4628.41
426.28	4542.39
426.49	4523.96
426.70	4609.98
426.91	4693.94
427.12	4657.08
427.33	4609.98
427.54	4640.70
427.75	4685.75
427.96	4741.05
428.17	4710.33
428.38	4841.40
428.59	4964.28
428.80	4892.60
429.01	4911.03
429.23	4751.29
429.44	5015.48
429.65	4970.42
429.86	4904.89
430.07	4988.85
430.28	4788.15
430.49	4980.66
430.70	5038.00
430.91	5164.98
431.12	4900.79
431.33	5164.98
431.54	5111.73
431.75	5011.38
431.96	4939.70
432.17	5029.81
432.38	5195.70
432.59	5306.29
432.80	5156.79
433.01	5312.43
433.22	5167.03
433.43	5275.57
433.64	5402.54
433.85	5242.80
434.06	5384.11
434.27	5255.09
434.49	5429.17
434.70	5535.66
434.91	5410.73
435.12	5513.13
435.33	5349.29
435.54	5529.52
435.75	5183.41
435.96	5476.27
436.17	5291.95
436.38	5656.49
436.59	5638.06
436.80	5375.92
437.01	5736.36
437.22	5814.18
437.43	5623.72
437.64	5527.47
437.85	5646.25
438.06	5775.27
438.27	5642.15
438.48	5734.31
438.69	5799.85
438.90	5894.05
439.11	5644.20
439.32	5939.11
439.53	5828.52
439.74	5838.76
439.95	5814.18
440.16	5846.95
440.37	5869.48
440.57	5642.15
440.78	5922.73
440.99	5898.15
441.20	6012.84
441.41	5719.98
441.62	5853.09
441.83	5636.01
442.04	5990.31
442.25	6037.41
442.46	6078.37
442.67	6096.80
442.88	6500.25
443.09	5926.82
443.30	6176.67
443.51	6207.39
443.72	6291.36
443.93	6088.61
444.14	6328.22
444.35	5961.64
444.56	6285.22
444.77	6229.92
444.98	6320.03
445.19	6350.75
445.40	6332.32
445.61	6240.16
445.81	6487.96
446.02	6455.20
446.23	6209.44
446.44	6231.97
446.65	6498.20
446.86	6553.50
447.07	6416.29
447.28	6711.19
447.49	6639.51
447.70	6680.47
447.91	6737.82
448.12	6473.63
448.33	6776.73
448.54	6621.08
448.74	6500.25
448.95	6700.95
449.16	6498.20
449.37	6897.56
449.58	6684.57
449.79	7042.96
450.00	6721.43
450.21	6909.85
450.42	6905.75
450.63	6954.90
450.84	6932.37
451.05	6969.24
451.25	6889.37
451.46	6975.38
451.67	7118.74
451.88	7163.79
452.09	7210.90
452.30	7004.05
452.51	7063.44
452.72	7032.72
452.93	7380.88
453.13	7038.87
453.34	7210.90
453.55	7182.23
453.76	7196.56
453.97	7634.83
454.18	7319.44
454.39	7372.69
454.60	7391.12
454.81	7448.46
455.01	7516.05
455.22	7395.22
455.43	7430.03
455.64	7743.37
455.85	7763.85
456.06	7925.64
456.27	7550.86
456.48	7643.02
456.68	7708.55
456.89	7718.79
457.10	7847.82
457.31	7835.53
457.52	8054.66
457.73	7991.17
457.94	8173.44
458.14	7935.88
458.35	8441.73
458.56	8028.04
458.77	8140.68
458.98	8331.14
459.19	8284.03
459.39	8341.38
459.60	8351.62
459.81	8130.44
460.02	8384.38
460.23	8439.68
460.44	8449.92
460.65	8566.65
460.85	8701.82
461.06	8793.98
461.27	8482.69
461.48	8777.59
461.69	9080.69
461.89	8775.55
462.10	8710.01
462.31	8730.49
462.52	8900.47
462.73	9054.07
462.94	8957.82
463.14	8959.86
463.35	9064.31
463.56	9650.03
463.77	9299.83
463.98	9396.08
464.18	9293.68
464.39	9482.10
464.60	9635.69
464.81	9570.16
465.02	9377.65
465.23	9742.19
465.43	9512.81
465.64	9768.81
465.85	9918.31
466.06	9787.24
466.27	10069.86
466.47	10151.78
466.68	9832.30
466.89	9967.46
467.10	10053.48
467.30	9889.64
467.51	10297.19
467.72	10487.65
467.93	10207.08
468.14	10405.73
468.34	10332.00
468.55	10465.12
468.76	10487.65
468.97	10442.59
469.17	10760.03
469.38	10585.95
469.59	10975.06
469.80	10729.31
470.01	10737.50
470.21	10903.39
470.42	11081.56
470.63	11075.42
470.84	11155.29
471.04	11302.74
471.25	11325.27
471.46	11312.98
471.67	11523.92
471.87	11437.91
472.08	11583.31
472.29	11689.81
472.50	11493.20
472.70	11657.04
472.91	11648.85
473.12	11786.06
473.33	12105.54
473.53	12089.16
473.74	11923.27
473.95	12222.28
474.16	12177.22
474.36	12312.39
474.57	12541.76
474.78	12572.48
474.99	12492.61
475.19	12502.85
475.40	12838.72
475.61	12676.93
475.81	12894.01
476.02	13006.65
476.23	13031.23
476.44	13213.49
476.64	13340.47
476.85	13403.96
477.06	13150.01
477.27	13670.19
477.47	13471.54
477.68	13786.93
477.89	13938.48
478.09	13662.00
478.30	13748.01
478.51	13987.63
478.71	14044.97
478.92	13999.91
479.13	14282.53
479.34	14552.87
479.54	14104.36
479.75	14362.40
479.96	14624.54
480.16	14663.46
480.37	14884.64
480.58	14737.18
480.78	15132.44
480.99	15034.14
481.20	14921.50
481.41	15095.58
481.61	15271.70
481.82	15435.54
482.03	15200.02
482.23	15181.59
482.44	15746.83
482.65	15927.05
482.85	16068.36
483.06	15757.07
483.27	15894.29
483.47	16213.77
483.68	16047.88
483.89	16195.34
484.09	16080.65
484.30	16350.98
484.51	16629.51
484.71	16750.34
484.92	16838.40
485.13	16822.02
485.33	16801.54
485.54	16793.34
485.75	17078.01
485.95	17078.01
486.16	17264.38
486.37	17434.36
486.57	17235.70
486.78	17194.75
486.98	17526.52
487.19	17772.27
487.40	17467.13
487.60	17936.11
487.81	17958.64
488.02	18001.65
488.22	17964.78
488.43	17936.11
488.64	18140.91
488.84	18407.14
489.05	18652.90
489.25	18394.86
489.46	18460.39
489.67	18394.86
489.87	18853.60
490.08	18816.74
490.29	18710.24
490.49	19070.68
490.70	19134.17
490.90	19404.50
491.11	19156.70
491.32	19322.59
491.52	19633.88
491.73	19433.18
491.94	19533.53
492.14	19803.86
492.35	19605.20
492.55	19807.95
492.76	20039.37
492.97	19992.27
493.17	20158.16
493.38	20352.71
493.58	20258.51
493.79	20395.72
494.00	20408.01
494.20	20553.41
494.41	20901.57
494.61	20831.94
494.82	20907.71
495.02	20850.37
495.23	21081.79
495.44	21055.17
495.64	21323.45
495.85	21431.99
496.05	21509.82
496.26	21272.25
496.47	21522.10
496.67	21462.71
496.88	21733.04
497.08	21653.17
497.29	21851.83
497.49	21515.96
497.70	21925.55
497.91	22378.15
498.11	22396.59
498.32	21978.80
498.52	22460.07
498.73	22666.92
498.93	22640.29
499.14	22744.74
499.34	22601.38
499.55	22888.10
499.76	22560.42
499.96	23019.17
500.17	23096.99
500.37	23232.16
500.58	23029.41
500.78	23279.26
500.99	23086.75
501.19	23238.30
501.40	23322.27
501.60	23479.96
501.81	23393.95
502.02	23381.66
502.22	23537.30
502.43	23725.72
502.63	24057.49
502.84	24026.77
503.04	23738.01
503.25	23926.42
503.45	24059.54
503.66	24290.96
503.86	24198.80
504.07	24458.89
504.27	24108.69
504.48	24768.13
504.68	24460.94
504.89	24723.08
505.09	24692.36
505.30	24805.00
505.50	24813.19
505.71	24972.93
505.91	24944.26
506.12	25067.14
506.32	25417.34
506.53	25267.84
506.73	25155.20
506.94	25296.51
507.14	25360.00
507.35	25650.81
507.55	25685.62
507.76	25484.92
507.96	25538.17
508.17	25785.97
508.37	25558.65
508.58	25788.02
508.78	26076.79
508.99	26203.76
509.19	25984.63
509.40	26431.08
509.60	26203.76
509.81	26363.50
510.01	26050.16
510.22	26246.77
510.42	26451.56
510.63	26521.20
510.83	26482.28
511.04	26418.80
511.24	26678.89
511.44	26644.07
511.65	26586.73
511.85	26637.93
512.06	26599.02
512.26	27094.63
512.47	27131.49
512.67	26932.84
512.88	27022.95
513.08	26924.65
513.29	27186.79
513.49	27051.62
513.69	27291.23
513.90	27311.71
514.10	27547.23
514.31	27348.57
514.51	27489.88
514.72	27651.67
514.92	27360.86
515.13	27520.60
515.33	27729.50
515.53	27530.84
515.74	27645.53
515.94	28124.75
516.15	28108.37
516.35	27713.11
516.56	28311.12
516.76	27842.14
516.96	28008.02
517.17	28282.45
517.37	28104.28
517.58	28423.76
517.78	28167.76
517.99	28034.64
518.19	28653.13
518.39	28251.73
518.60	28405.33
518.80	28589.64
519.01	28726.86
519.21	28816.97
519.41	28974.66
519.62	28796.49
519.82	28995.14
520.03	29152.84
520.23	29113.92
520.43	28991.05
520.64	29236.80
520.84	29462.08
521.05	28876.36
521.25	29118.02
521.45	29738.55
521.66	29662.78
521.86	29550.14
522.07	29361.73
522.27	29546.05
522.47	29601.34
522.68	29935.16
522.88	29767.23
523.08	29883.96
523.29	30201.40
523.49	30164.53
523.70	30385.71
523.90	30625.32
524.10	30182.96
524.31	30496.30
524.51	29937.21
524.71	30647.85
524.92	30400.05
525.12	30654.00
525.33	30633.52
525.53	30957.10
525.73	31178.28
525.94	30828.07
526.14	31010.34
526.34	31141.41
526.55	31370.79
526.75	31077.93
526.95	31544.86
527.16	31102.50
527.36	31653.40
527.56	31602.21
527.77	31809.05
527.97	31587.87
528.17	31792.67
528.38	31393.31
528.58	31575.58
528.78	31847.96
528.99	31827.48
529.19	32302.61
529.39	31972.89
529.60	32398.87
529.80	32431.63
530.00	32339.47
530.21	32429.59
530.41	32677.39
530.61	32316.95
530.82	32605.71
531.02	32611.85
531.22	32427.54
531.43	33177.09
531.63	33017.35
531.83	33324.55
532.04	33486.34
532.24	33154.57
532.44	33494.53
532.64	33523.20
532.85	33349.12
533.05	33394.18
533.25	33531.39
533.46	33760.76
533.66	34113.02
533.86	34000.38
534.07	34702.83
534.27	33973.75
534.47	34549.23
534.67	34375.16
534.88	34266.61
535.08	34510.32
535.28	34657.78
535.49	34692.59
535.69	35028.46
535.89	34782.70
536.09	34833.90
536.30	34940.39
536.50	34960.87
536.70	35208.68
536.91	35042.79
537.11	35186.15
537.31	35616.22
537.51	35470.82
537.72	36197.85
537.92	36042.20
538.12	35919.32
538.32	35689.95
538.53	36263.38
538.73	35915.23
538.93	35855.84
539.13	35917.28
539.34	36124.12
539.54	36224.47
539.74	36494.80
539.94	36650.45
540.15	36484.56
540.35	36398.55
540.55	36818.38
540.75	36498.90
540.96	37062.09
541.16	36795.85
541.36	37131.72
541.56	37129.67
541.77	37176.78
541.97	37074.38
542.17	37389.77
542.37	37203.40
542.58	37252.55
542.78	37483.97
542.98	37492.16
543.18	37334.47
543.38	37912.00
543.59	37766.59
543.79	37535.17
543.99	37887.42
544.19	38333.88
544.40	37899.71
544.60	38278.58
544.80	38002.11
545.00	38454.71
545.20	38530.48
545.41	38319.54
545.61	38630.83
545.81	38550.96
546.01	38831.54
546.21	38618.55
546.42	38587.83
546.62	38901.17
546.82	38788.53
547.02	38743.47
547.22	39161.26
547.43	39060.91
547.63	38915.50
547.83	39310.76
548.03	39077.29
548.23	39349.67
548.44	39456.17
548.64	39490.98
548.84	39697.83
549.04	39742.88
549.24	40172.96
549.45	39769.51
549.65	39933.34
549.85	39630.24
550.05	39751.07
550.25	40113.56
550.45	40463.77
550.66	40029.60
550.86	40013.21
551.06	40363.42
551.26	40383.90
551.46	40807.83
551.66	40600.98
551.87	40467.86
552.07	40648.08
552.27	40586.64
552.47	40547.73
552.67	40908.18
552.87	40748.43
553.07	41022.86
553.28	41049.49
553.48	40816.02
553.68	41141.64
553.88	41524.61
554.08	41026.96
554.28	41532.81
554.48	41268.62
554.69	40826.26
554.89	41395.59
555.09	41448.84
555.29	41207.18
555.49	41530.76
555.69	41532.81
555.89	41692.55
556.10	41561.48
556.30	41313.67
556.50	42124.67
556.70	41694.60
556.90	42118.53
557.10	42186.11
557.30	42198.40
557.50	42145.15
557.70	41979.26
557.91	42464.63
558.11	42341.75
558.31	42616.18
558.51	42196.35
558.71	42399.10
558.91	42630.52
559.11	42132.86
559.31	42157.44
559.51	42751.35
559.72	42685.81
559.92	42769.78
560.12	42573.17
560.32	43388.27
560.52	42794.36
560.72	43267.44
560.92	42825.07
561.12	42671.48
561.32	43072.88
561.52	42800.50
561.72	43251.05
561.93	42986.86
562.13	43386.22
562.33	42909.04
562.53	43832.68
562.73	42909.04
562.93	43418.99
563.13	43591.01
563.33	43521.38
563.53	43761.00
563.73	43023.73
563.93	43181.42
564.13	43840.87
564.33	44051.81
564.53	43513.19
564.74	43914.59
564.94	43582.82
565.14	43717.99
565.34	43717.99
565.54	43761.00
565.74	44295.52
565.94	44301.66
566.14	43756.90
566.34	43631.97
566.54	44416.35
566.74	43959.65
566.94	44408.15
567.14	44615.00
567.34	43922.79
567.54	44043.62
567.74	44080.48
567.94	44311.90
568.14	44666.20
568.34	44543.32
568.54	44746.07
568.74	44537.18
568.94	44678.49
569.14	44957.01
569.34	44946.77
569.54	44684.63
569.75	44426.59
569.95	44748.12
570.15	45149.52
570.35	44844.37
570.55	44926.29
570.75	44502.36
570.95	45051.22
571.15	44877.14
571.35	45094.22
571.55	45407.56
571.75	45315.40
571.95	45450.57
572.15	45047.12
572.35	45499.72
572.55	45151.57
572.75	45481.29
572.95	45366.60
573.15	45450.57
573.35	45542.73
573.55	45268.30
573.75	45395.28
573.95	45774.15
574.15	45761.86
574.35	45659.46
574.55	45638.98
574.75	45319.50
574.95	45679.94
575.15	45561.16
575.34	45774.15
575.54	46157.12
575.74	46048.58
575.94	46333.24
576.14	46253.37
576.34	46460.22
576.54	46177.60
576.74	46429.50
576.94	46200.13
577.14	46290.24
577.34	46320.96
577.54	46300.48
577.74	46341.44
577.94	46146.88
578.14	46480.70
578.34	47066.42
578.54	45962.56
578.74	46310.72
578.94	46628.15
579.14	45847.88
579.34	46482.75
579.54	46878.00
579.74	47119.66
579.94	46890.29
580.13	47125.81
580.33	47039.79
580.53	47160.62
580.73	47072.56
580.93	47156.53
581.13	46558.52
581.33	47146.29
581.53	47211.82
581.73	47033.65
581.93	47529.26
582.13	47650.09
582.33	47541.55
582.53	47265.07
582.73	47559.98
582.92	47275.31
583.12	47437.10
583.32	47502.64
583.52	47203.63
583.72	48231.71
583.92	48018.72
584.12	47400.24
584.32	48104.74
584.52	47822.12
584.72	48121.12
584.92	48012.58
585.11	47848.74
585.31	47975.72
585.51	48117.03
585.71	47945.00
585.91	48262.43
586.11	47877.41
586.31	48088.35
586.51	47994.15
586.71	48549.15
586.91	48975.12
587.10	48235.81
587.30	48067.87
587.50	47977.76
587.70	48340.25
587.90	48690.46
588.10	48592.15
588.30	48231.71
588.50	48516.38
588.69	48432.41
588.89	48631.07
589.09	48743.70
589.29	48964.88
589.49	48919.83
589.69	48461.08
589.89	49175.83
590.08	48659.74
590.28	48530.72
590.48	48577.82
590.68	48616.73
590.88	49075.48
591.08	48680.22
591.28	48616.73
591.47	49657.10
591.67	49005.84
591.87	49325.33
592.07	49364.24
592.27	49181.97
592.47	48837.91
592.67	49714.44
592.86	49554.70
593.06	48772.38
593.26	49624.33
593.46	49511.69
593.66	49143.06
593.86	49280.27
594.05	49272.08
594.25	49837.32
594.45	49515.79
594.65	49419.53
594.85	48895.25
595.05	50040.07
595.24	49833.22
595.44	49763.59
595.64	49722.63
595.84	49853.70
596.04	49972.49
596.23	50181.38
596.43	50341.12
596.63	50029.83
596.83	50107.65
597.03	50560.25
597.22	50572.54
597.42	50044.16
597.62	50322.69
597.82	49896.71
598.02	50267.39
598.21	50554.11
598.41	50394.37
598.61	50545.92
598.81	50339.07
599.01	50910.46
599.20	50476.29
599.40	50334.98
599.60	50859.26
599.80	50476.29
600.00	50341.12
600.19	50992.37
600.39	50906.36
600.59	51291.38
600.79	51270.90
600.98	51115.25
601.18	51576.04
601.38	51029.24
601.58	51467.50
601.78	51203.31
601.97	51287.28
602.17	51434.74
602.37	51193.07
602.57	51303.67
602.76	51746.03
602.96	51315.95
603.16	51512.56
603.36	51313.90
603.55	52010.21
603.75	51647.72
603.95	51786.99
604.15	51897.58
604.34	51797.23
604.54	51846.38
604.74	52030.69
604.94	52278.50
605.13	52024.55
605.33	52098.28
605.53	51774.70
605.73	52477.15
605.92	52415.71
606.12	52597.98
606.32	52530.40
606.52	52520.16
606.71	52196.58
606.91	52720.86
607.11	52507.87
607.30	52853.98
607.50	52589.79
607.70	52755.68
607.90	52929.75
608.09	52704.48
608.29	52714.72
608.49	52890.84
608.68	52903.13
608.88	53023.96
609.08	53130.45
609.28	53054.68
609.47	52786.39
609.67	53392.59
609.87	53261.52
610.06	53802.19
610.26	53099.73
610.46	53386.45
610.66	53400.79
610.85	53847.24
611.05	53292.24
611.25	53396.69
611.44	53187.80
611.64	53292.24
611.84	53171.41
612.03	53402.83
612.23	53634.25
612.43	53576.91
612.62	53499.09
612.82	53679.31
613.02	53765.32
613.21	53568.72
613.41	53720.27
613.61	53857.48
613.80	53507.28
614.00	53646.54
614.20	54025.42
614.39	53810.38
614.59	54088.90
614.79	53886.15
614.98	53904.59
615.18	54060.23
615.38	53720.27
615.57	53609.68
615.77	54107.33
615.97	54328.52
616.16	54105.29
616.36	53761.23
616.56	54416.58
616.75	54013.13
616.95	54138.05
617.15	54457.54
617.34	54287.56
617.54	54140.10
617.74	54535.36
617.93	54414.53
618.13	54086.85
618.32	54093.00
618.52	53959.88
618.72	54252.74
618.91	54664.38
619.11	54183.11
619.31	54072.52
619.50	54265.03
619.70	54056.14
619.90	54084.81
620.09	54236.36
620.29	54402.24
620.48	54420.67
620.68	54985.91
620.88	54113.48
621.07	54289.60
621.27	54734.01
621.46	54125.77
621.66	54156.49
621.86	54584.51
622.05	54197.44
622.25	54666.43
622.44	54271.17
622.64	54252.74
622.84	54160.58
623.03	54097.09
623.23	54193.35
623.42	54484.16
623.62	55037.11
623.82	54727.87
624.01	54576.32
624.21	54717.63
624.40	54693.05
624.60	54916.28
624.80	54553.79
624.99	54551.74
625.19	54670.53
625.38	54764.73
625.58	54494.40
625.77	54754.49
625.97	54539.46
626.17	54330.56
626.36	54744.25
626.56	55047.35
626.75	54142.15
626.95	55033.02
627.14	54375.62
627.34	55235.77
627.54	54641.85
627.73	54410.43
627.93	54705.34
628.12	54285.51
628.32	54772.92
628.51	54807.74
628.71	55047.35
628.90	55190.71
629.10	54797.50
629.30	55159.99
629.49	54838.46
629.69	54910.14
629.88	54910.14
630.08	55159.99
630.27	55254.20
630.47	55121.08
630.66	54879.42
630.86	54703.29
631.05	54670.53
631.25	55665.84
631.44	55119.03
631.64	55190.71
631.84	54947.00
632.03	55837.87
632.23	54777.02
632.42	55342.26
632.62	55061.69
632.81	55073.98
633.01	55491.76
633.20	55458.99
633.40	55538.86
633.59	55088.31
633.79	55016.63
633.98	55481.52
634.18	55434.42
634.37	55469.23
634.57	55254.20
634.76	55823.53
634.96	55209.14
635.15	55588.02
635.35	55209.14
635.54	55278.77
635.74	55956.65
635.93	54903.99
636.13	55547.06
636.32	55841.96
636.52	55215.29
636.71	55289.01
636.91	55436.47
637.10	55506.10
637.30	55176.37
637.49	55350.45
637.69	55383.22
637.88	55686.32
638.08	55743.66
638.27	55612.59
638.46	55628.98
638.66	55321.78
638.85	55497.91
639.05	55446.71
639.24	55641.26
639.44	55651.50
639.63	55801.00
639.83	55950.51
640.02	55610.54
640.22	55706.80
640.41	55903.40
640.61	55604.40
640.80	55571.63
640.99	55897.26
641.19	55960.75
641.38	55866.54
641.58	55780.52
641.77	55776.43
641.97	55256.24
642.16	55526.58
642.36	55706.80
642.55	56224.93
642.74	55516.34
642.94	56013.99
643.13	55620.78
643.33	56116.39
643.52	56501.41
643.72	55923.88
643.91	55532.72
644.10	55454.90
644.30	56239.27
644.49	55825.58
644.69	56351.91
644.88	56116.39
645.08	55868.59
645.27	56401.06
645.46	55579.82
645.66	56458.40
645.85	56155.30
646.05	56468.64
646.24	56022.19
646.43	56136.87
646.63	56403.11
646.82	56329.38
647.02	55878.83
647.21	56450.21
647.40	56093.86
647.60	56472.74
647.79	56462.50
647.99	56460.45
648.18	55729.33
648.37	56425.64
648.57	56728.73
648.76	56112.30
648.96	56167.59
649.15	56360.10
649.34	56341.67
649.54	56868.00
649.73	56202.41
649.92	56450.21
650.12	56411.30
650.31	56431.78
650.51	56571.04
650.70	56593.57
650.89	55866.54
651.09	56990.87
651.28	56374.44
651.47	56419.49
651.67	56661.15
651.86	56861.85
652.06	56030.38
652.25	56315.04
652.44	56431.78
652.64	56071.34
652.83	56347.81
653.02	56310.95
653.22	56904.86
653.41	55944.36
653.60	56222.89
653.80	56177.83
653.99	56442.02
654.18	55993.51
654.38	56052.90
654.57	56579.23
654.76	56472.74
654.96	56409.25
655.15	56415.40
655.34	56427.68
655.54	56032.42
655.73	56313.00
655.92	56460.45
656.12	56630.43
656.31	56284.33
656.50	55993.51
656.70	56396.96
656.89	56071.34
657.08	56491.17
657.28	56444.07
657.47	56239.27
657.66	56607.90
657.86	56136.87
658.05	56237.22
658.24	56444.07
658.43	56480.93
658.63	56550.56
658.82	56276.13
659.01	56464.55
659.21	56636.58
659.40	55975.08
659.59	55864.49
659.79	56458.40
659.98	56439.97
660.17	56345.76
660.36	56431.78
660.56	56267.94
660.75	56302.76
660.94	56349.86
661.14	56329.38
661.33	56038.57
661.52	55719.09
661.71	56323.24
661.91	55911.59
662.10	56128.68
662.29	56276.13
662.49	56134.82
662.68	56628.38
662.87	56427.68
663.06	56652.96
663.26	56067.24
663.45	56763.55
663.64	56587.42
663.83	56517.79
664.03	56407.20
664.22	56286.37
664.41	56063.14
664.60	56157.35
664.80	56057.00
664.99	56063.14
665.18	56263.85
665.37	56132.78
665.57	56011.95
665.76	56071.34
665.95	56319.14
666.14	56155.30
666.34	55956.65
666.53	55620.78
666.72	55545.01
666.91	56226.98
667.11	55927.98
667.30	56063.14
667.49	55870.64
667.68	56048.81
667.87	55684.27
668.07	55952.55
668.26	55946.41
668.45	56100.01
668.64	55508.14
668.84	56212.65
669.03	56358.05
669.22	56251.56
669.41	55798.96
669.60	55585.97
669.80	55907.50
669.99	55903.40
670.18	55252.15
670.37	55626.93
670.57	56126.63
670.76	55669.93
670.95	56093.86
671.14	55446.71
671.33	55317.68
671.53	55821.48
671.72	55575.73
671.91	55252.15
672.10	55493.81
672.29	55270.58
672.48	55801.00
672.68	55981.23
672.87	55696.56
673.06	55588.02
673.25	55588.02
673.44	55350.45
673.64	55428.27
673.83	55239.86
674.02	55340.21
674.21	55436.47
674.40	55610.54
674.59	55395.51
674.79	55471.28
674.98	55321.78
675.17	55608.50
675.36	55192.76
675.55	55309.49
675.74	55409.84
675.94	55346.36
676.13	55258.29
676.32	55663.79
676.51	55569.58
676.70	55872.68
676.89	55329.97
677.08	55532.72
677.28	55145.65
677.47	55700.65
677.66	55801.00
677.85	55440.56
678.04	55147.70
678.23	55622.83
678.42	55104.70
678.62	55313.59
678.81	55653.55
679.00	54981.82
679.19	55751.85
679.38	55086.26
679.57	55018.68
679.76	55295.16
679.96	55530.67
680.15	55508.14
680.34	55035.06
680.53	55420.08
680.72	55448.75
680.91	55403.70
681.10	55090.36
681.29	55139.51
681.48	55141.56
681.68	54883.51
681.87	55231.67
682.06	55174.33
682.25	54924.47
682.44	54781.12
682.63	54990.01
682.82	55073.98
683.01	55108.79
683.20	54922.43
683.39	55069.88
683.59	54969.53
683.78	54523.07
683.97	54742.20
684.16	54916.28
684.35	54553.79
684.54	54834.36
684.73	54965.43
684.92	54770.88
685.11	54691.01
685.30	54627.52
685.49	54848.70
685.69	54629.57
685.88	54940.86
686.07	54590.66
686.26	54449.35
686.45	54736.06
686.64	54936.76
686.83	54734.01
687.02	54740.16
687.21	54725.82
687.40	54842.56
687.59	54514.88
687.78	54392.00
687.97	54811.84
688.16	54686.91
688.35	54115.53
688.54	54795.45
688.74	54639.81
688.93	54858.94
689.12	54949.05
689.31	54230.21
689.50	54525.12
689.69	54283.46
689.88	53750.99
690.07	54305.99
690.26	54314.18
690.45	54592.70
690.64	54160.58
690.83	53978.31
691.02	53988.55
691.21	54068.42
691.40	54369.47
691.59	54295.75
691.78	54463.68
691.97	54146.25
692.16	54402.24
692.35	54293.70
692.54	54236.36
692.73	54457.54
692.92	54629.57
693.11	54572.22
693.30	54299.84
693.49	54105.29
693.68	54058.18
693.87	54113.48
694.06	53683.40
694.25	54058.18
694.44	53802.19
694.63	53785.80
694.82	54338.75
695.01	53990.60
695.20	53927.11
695.39	53933.26
695.58	54013.13
695.77	53499.09
695.96	53755.08
696.15	53863.63
696.34	53961.93
696.53	54086.85
696.72	54183.11
696.91	53591.25
697.10	53359.83
697.29	53738.70
697.48	54291.65
697.67	53402.83
697.86	53212.37
698.05	53699.79
698.24	53683.40
698.43	53556.43
698.62	53726.41
698.81	54199.49
699.00	54107.33
699.19	53130.45
699.38	53535.95
699.57	53310.67
699.76	54013.13
699.95	53394.64
700.14	53114.07
700.32	53304.53
700.51	53310.67
700.70	53843.15
700.89	53738.70
701.08	53531.86
701.27	53421.26
701.46	53583.05
701.65	53085.40
701.84	53150.93
702.03	53460.18
702.22	53048.53
702.41	53310.67
702.60	53136.60
702.79	53333.20
702.98	53165.27
703.17	53120.21
703.35	53204.18
703.54	53054.68
703.73	53427.41
703.92	53163.22
704.11	53179.60
704.30	53124.31
704.49	52800.73
704.68	52923.61
704.87	52913.37
705.06	53144.79
705.25	52989.14
705.43	53054.68
705.62	52886.74
705.81	53056.73
706.00	53198.04
706.19	52702.43
706.38	52661.47
706.57	52931.80
706.76	52968.66
706.95	52747.48
707.14	52737.24
707.32	52821.21
707.51	52458.72
707.70	52901.08
707.89	52288.74
708.08	52804.83
708.27	52487.39
708.46	52706.52
708.65	52763.87
708.84	53081.30
709.02	52735.20
709.21	53005.53
709.40	53064.92
709.59	52759.77
709.78	52477.15
709.97	52884.70
710.16	52081.89
710.34	52528.35
710.53	52458.72
710.72	52516.06
710.91	52888.79
711.10	52597.98
711.29	52468.96
711.48	52575.45
711.66	52643.04
711.85	52253.92
712.04	52104.42
712.23	52157.67
712.42	52384.99
712.61	52477.15
712.80	52237.54
712.98	52757.72
713.17	51864.81
713.36	52196.58
713.55	52393.18
713.74	52251.87
713.93	52225.25
714.11	52212.96
714.30	51739.88
714.49	51729.64
714.68	52430.05
714.87	52262.11
715.06	52462.82
715.24	52190.44
715.43	52161.76
715.62	51610.86
715.81	51903.72
716.00	52237.54
716.18	51553.52
716.37	51434.74
716.56	51766.51
716.75	51948.78
716.94	51741.93
717.12	51350.77
717.31	51612.91
717.50	51565.81
717.69	51248.37
717.88	51449.07
718.06	51897.58
718.25	51844.33
718.44	51404.02
718.63	51522.80
718.82	51217.65
719.00	51588.33
719.19	51373.30
719.38	51197.17
719.57	50900.22
719.76	50689.27
719.94	50410.75
720.13	50996.47
720.32	51045.62
720.51	50887.93
720.69	50748.67
720.88	50892.02
721.07	50789.62
721.26	50695.42
721.44	50676.99
721.63	50502.91
721.82	50373.89
722.01	50081.03
722.20	50275.58
722.38	50181.38
722.57	49882.37
722.76	50439.42
722.95	50326.78
723.13	50015.49
723.32	49952.01
723.51	49530.12
723.70	49437.97
723.88	49962.25
724.07	49550.60
724.26	50078.98
724.44	49347.86
724.63	49798.41
724.82	49782.02
725.01	49681.67
725.19	49610.00
725.38	49509.64
725.57	49132.82
725.76	49802.50
725.94	49478.92
726.13	49239.31
726.32	49095.95
726.51	48977.17
726.69	49755.40
726.88	49538.32
727.07	49712.39
727.25	49243.41
727.44	49290.51
727.63	49276.18
727.82	49599.76
728.00	49427.73
728.19	49161.49
728.38	49429.77
728.56	48684.31
728.75	49485.07
728.94	49237.26
729.12	49233.17
729.31	49161.49
729.50	49151.25
729.69	49374.48
729.87	49132.82
730.06	49653.00
730.25	49116.43
730.43	48997.65
730.62	49216.78
730.81	49386.77
730.99	49206.55
731.18	48821.53
731.37	49147.15
731.55	49118.48
731.74	49302.80
731.93	49237.26
732.11	49005.84
732.30	49241.36
732.49	48749.85
732.67	49116.43
732.86	48524.57
733.05	48786.71
733.23	48868.63
733.42	49005.84
733.61	48944.41
733.79	48860.44
733.98	49120.53
734.17	48561.44
734.35	48928.02
734.54	48809.24
734.73	48917.78
734.91	48907.54
735.10	48489.76
735.29	48925.97
735.47	48190.75
735.66	48708.89
735.84	48864.53
736.03	48364.83
736.22	48876.82
736.40	48581.91
736.59	48739.61
736.78	48487.71
736.96	48661.79
737.15	48712.98
737.33	48069.92
737.52	48330.01
737.71	48385.31
737.89	47826.21
738.08	47901.99
738.27	48250.14
738.45	48653.59
738.64	48110.88
738.82	48026.92
739.01	48215.33
739.20	47852.84
739.38	48131.36
739.57	48198.94
739.75	48098.59
739.94	48104.74
740.13	47875.37
740.31	47930.66
740.50	48301.34
740.68	48069.92
740.87	47899.94
741.06	47830.31
741.24	47377.71
741.43	47682.86
741.61	48090.40
741.80	47359.28
741.99	47281.45
742.17	47576.36
742.36	48020.77
742.54	47406.38
742.73	47193.39
742.91	47379.76
743.10	47820.07
743.29	47435.05
743.47	47459.63
743.66	47422.76
743.84	47674.66
744.03	47359.28
744.21	46843.19
744.40	47539.50
744.59	47555.88
744.77	46935.35
744.96	46959.92
745.14	46660.92
745.33	47131.95
745.51	46804.28
745.70	47013.17
745.88	46757.17
746.07	46533.95
746.26	46529.85
746.44	46482.75
746.63	46216.51
746.81	46652.73
747.00	46204.22
747.18	46441.79
747.37	46128.45
747.55	46679.35
747.74	47056.18
747.92	46271.81
748.11	46267.71
748.29	46196.03
748.48	46187.84
748.66	46017.86
748.85	46540.09
749.03	46361.92
749.22	45995.33
749.41	46236.99
749.59	46243.13
749.78	46159.17
749.96	45901.12
750.15	45694.28
750.33	45907.27
750.52	45454.67
750.70	45866.31
750.89	45479.24
751.07	45944.13
751.26	45786.44
751.44	45561.16
751.63	45649.22
751.81	45391.18
752.00	45337.93
752.18	45372.75
752.37	45466.95
752.55	44959.06
752.74	45227.34
752.92	45274.45
753.10	44940.63
753.29	44997.97
753.47	44963.15
753.66	44639.57
753.84	45200.72
754.03	45167.95
754.21	44569.94
754.40	45374.80
754.58	45030.74
754.77	45075.79
754.95	44811.60
755.14	44479.83
755.32	44674.39
755.51	44621.14
755.69	44571.99
755.88	44594.52
756.06	44565.85
756.24	44496.22
756.43	44379.48
756.61	44612.95
756.80	44449.11
756.98	44346.72
757.17	44621.14
757.35	44735.83
757.54	44391.77
757.72	44060.00
757.90	44006.75
758.09	43816.29
758.27	43902.31
758.46	43724.13
758.64	43775.33
758.83	43898.21
759.01	43840.87
759.19	43816.29
759.38	43867.49
759.56	43900.26
759.75	43824.48
759.93	43599.21
760.12	43148.65
760.30	44000.61
760.48	43341.16
760.67	43666.79
760.85	43472.23
761.04	43681.13
761.22	43515.24
761.40	43449.70
761.59	42999.15
761.77	43048.30
761.96	43152.75
762.14	43234.67
762.32	42919.28
762.51	42909.04
762.69	43165.04
762.88	42968.43
763.06	43095.41
763.24	43099.50
763.43	43011.44
763.61	42667.38
763.80	42501.50
763.98	42837.36
764.16	42542.45
764.35	42149.24
764.53	41825.67
764.72	42274.17
764.90	42417.53
765.08	42083.71
765.27	42311.03
765.45	42087.81
765.63	41567.62
765.82	41883.01
766.00	41749.89
766.18	41813.38
766.37	42247.55
766.55	41858.43
766.74	41790.85
766.92	41567.62
767.10	41534.85
767.29	41350.54
767.47	41246.09
767.65	41989.50
767.84	41096.59
768.02	41698.69
768.20	41248.14
768.39	41395.59
768.57	41686.40
768.75	41072.01
768.94	41006.48
769.12	41205.13
769.30	40908.18
769.49	41045.39
769.67	41063.82
769.85	40830.35
770.04	40977.81
770.22	40916.37
770.40	40691.09
770.59	40711.57
770.77	41074.06
770.95	40709.52
771.14	40555.93
771.32	40244.63
771.50	40129.95
771.69	40619.41
771.87	40787.35
772.05	40455.57
772.24	40002.97
772.42	40609.17
772.60	40162.72
772.78	40129.95
772.97	40306.07
773.15	40197.53
773.33	40293.79
773.52	39937.44
773.70	40146.33
773.88	40076.70
774.07	40013.21
774.25	40220.06
774.43	40244.63
774.61	40232.35
774.80	40148.38
774.98	39904.67
775.16	39951.77
775.34	40072.60
775.53	39761.31
775.71	40295.83
775.89	39986.59
776.08	39962.01
776.26	39984.54
776.44	40197.53
776.62	39806.37
776.81	39863.71
776.99	40226.20
777.17	40146.33
777.35	40283.55
777.54	39841.18
777.72	39902.62
777.90	40244.63
778.08	40150.43
778.27	39890.34
778.45	40240.54
778.63	40029.60
778.81	39984.54
779.00	40621.46
779.18	40656.28
779.36	40517.01
779.54	40039.84
779.73	40250.78
779.91	40416.66
780.09	40381.85
780.27	40400.28
780.46	40562.07
780.64	40461.72
780.82	40326.55
781.00	40371.61
781.19	40484.25
781.37	40773.01
781.55	40633.75
781.73	41170.32
781.91	40560.02
782.10	40504.73
782.28	40707.47
782.46	40310.17
782.64	41022.86
782.82	40947.09
783.01	41026.96
783.19	41006.48
783.37	40850.83
783.55	40553.88
783.74	41174.41
783.92	40342.94
784.10	41272.71
784.28	40693.14
784.46	40537.49
784.64	40572.31
784.83	40691.09
785.01	40885.65
785.19	40490.39
785.37	40836.50
785.55	40723.86
785.74	40121.76
785.92	40646.04
786.10	40682.90
786.28	40727.95
786.46	40566.16
786.64	40584.60
786.83	40334.74
787.01	40578.45
787.19	40383.90
787.37	40381.85
787.55	40246.68
787.74	40091.04
787.92	40195.48
788.10	40256.92
788.28	39757.22
788.46	40463.77
788.64	39681.44
788.82	40105.37
789.01	40105.37
789.19	40088.99
789.37	39847.33
789.55	39859.62
789.73	39622.05
789.91	39607.72
790.09	39445.93
790.28	39058.86
790.46	39368.10
790.64	39493.03
790.82	39419.30
791.00	39429.54
791.18	39318.95
791.36	39497.13
791.55	39349.67
791.73	39034.28
791.91	38804.91
792.09	39269.80
792.27	38720.95
792.45	39218.60
792.63	39052.72
792.81	39073.20
793.00	38809.01
793.18	38841.78
793.36	38751.66
793.54	38587.83
793.72	38305.21
793.90	38380.98
794.08	38456.76
794.26	38194.62
794.44	38174.14
794.62	37619.14
794.81	37844.41
794.99	38065.60
795.17	37709.25
795.35	37811.65
795.53	37729.73
795.71	37979.58
795.89	37244.36
796.07	37588.42
796.25	37287.37
796.43	37330.37
796.61	37135.82
796.80	37146.06
796.98	37060.04
797.16	36830.67
797.34	36904.40
797.52	36621.78
797.70	36971.98
797.88	36449.75
798.06	36666.83
798.24	36947.40
798.42	36212.18
798.60	36447.70
798.78	36482.52
798.96	36589.01
799.14	36253.14
799.32	36111.83
799.51	36197.85
799.69	36402.64
799.87	36056.54
800.05	35884.51
800.23	36117.98
800.41	35591.65
800.59	35558.88
800.77	35581.41
800.95	35075.56
801.13	35001.83
801.31	35397.09
801.49	35491.30
801.67	35220.97
801.85	35364.32
802.03	35050.99
802.21	35087.85
802.39	35067.37
802.57	35040.75
802.75	34842.09
802.93	34633.20
803.11	34713.07
803.29	34563.57
803.47	34565.62
803.65	34283.00
803.83	34522.61
804.01	34207.22
804.19	34133.50
804.37	34385.40
804.55	34285.04
804.73	34067.96
804.91	33981.95
805.09	34168.31
805.27	34194.93
805.45	33791.48
805.63	33869.31
805.81	33707.52
805.99	33619.46
806.17	33768.96
806.35	33203.72
806.53	33041.93
806.71	33408.51
806.89	33584.64
807.07	33381.89
807.25	33205.77
807.43	33000.97
807.61	33504.77
807.79	33140.23
807.97	33154.57
808.15	32835.08
808.33	33095.18
808.51	32925.19
808.69	32873.99
808.87	32751.12
809.05	32654.86
809.23	32714.25
809.41	32339.47
809.59	32484.88
809.77	32237.08
809.95	32257.56
810.13	32685.58
810.31	32116.25
810.49	32620.05
810.67	32050.71
810.84	32024.09
811.02	32251.41
811.20	31759.90
811.38	32073.24
811.56	31813.15
811.74	32118.29
811.92	31888.92
812.10	32007.70
812.28	31929.88
812.46	31677.98
812.64	31579.68
812.82	31464.99
813.00	31317.54
813.18	31415.84
813.36	31444.51
813.53	31022.63
813.71	31532.57
813.89	31192.61
814.07	31264.29
814.25	31014.44
814.43	30895.66
814.61	30750.25
814.79	30895.66
814.97	30823.98
815.15	30864.94
815.33	30473.78
815.50	30469.68
815.68	30858.79
815.86	30869.03
816.04	30350.90
816.22	30578.22
816.40	30758.44
816.58	30461.49
816.76	30017.08
816.94	30297.65
817.11	30354.99
817.29	30344.75
817.47	29902.39
817.65	30006.84
817.83	29980.21
818.01	30168.63
818.19	29722.17
818.37	29988.41
818.54	29720.12
818.72	29795.90
818.90	29720.12
819.08	29812.28
819.26	29716.03
819.44	29797.95
819.62	29621.82
819.80	29646.40
819.97	29609.53
820.15	29474.37
820.33	29359.68
820.51	29552.19
820.69	29107.78
820.87	29500.99
821.05	29666.88
821.22	29355.58
821.40	29331.01
821.58	29023.81
821.76	29195.84
821.94	29171.27
822.12	29068.87
822.29	28841.54
822.47	28759.63
822.65	29072.96
822.83	28902.98
823.01	28915.27
823.19	28837.45
823.36	28563.02
823.54	28454.48
823.72	28816.97
823.90	28603.98
824.08	28550.73
824.25	28595.79
824.43	28368.46
824.61	28311.12
824.79	28464.72
824.97	28608.08
825.15	28634.70
825.32	28384.85
825.50	28196.43
825.68	27979.35
825.86	28442.19
826.04	28544.59
826.21	28374.61
826.39	28065.36
826.57	27981.40
826.75	27948.63
826.93	27856.47
827.10	28061.27
827.28	27815.51
827.46	28243.54
827.64	28046.93
827.81	27637.34
827.99	28030.55
828.17	27844.18
828.35	27545.18
828.53	27797.08
828.70	27465.31
828.88	27631.19
829.06	27940.44
829.24	27729.50
829.41	27397.73
829.59	27530.84
829.77	27516.51
829.95	27201.12
830.12	27192.93
830.30	27377.25
830.48	27545.18
830.66	27207.26
830.84	27387.49
831.01	27160.16
831.19	27213.41
831.37	26963.56
831.55	27035.24
831.72	27209.31
831.90	26926.69
832.08	27299.42
832.25	26949.22
832.43	26971.75
832.61	27055.72
832.79	27018.85
832.96	26762.86
833.14	27233.89
833.32	26922.60
833.50	26906.21
833.67	27078.24
833.85	27143.78
834.03	26672.74
834.20	26633.83
834.38	26666.60
834.56	26744.42
834.74	26613.35
834.91	26703.46
835.09	26226.29
835.27	26254.96
835.44	26549.87
835.62	26355.31
835.80	26056.31
835.98	26226.29
836.15	26457.71
836.33	26064.50
836.51	26044.02
836.68	26257.01
836.86	26013.30
837.04	26011.25
837.21	26316.40
837.39	26087.03
837.57	25953.91
837.75	26130.03
837.92	25484.92
838.10	25742.97
838.28	25384.57
838.45	26021.49
838.63	25515.64
838.81	25949.81
838.98	25824.89
839.16	25521.79
839.34	25564.79
839.51	25695.86
839.69	25626.23
839.87	25779.83
840.04	25489.02
840.22	25425.53
840.40	25536.12
840.57	25235.07
840.75	25360.00
840.93	24999.55
841.10	25269.89
841.28	25638.52
841.46	25613.95
841.63	25572.99
841.81	25337.47
841.98	25147.01
842.16	25222.78
842.34	25126.53
842.51	25089.67
842.69	25009.79
842.87	25112.19
843.04	24977.03
843.22	24964.74
843.40	25003.65
843.57	24862.34
843.75	25157.25
843.92	25101.95
844.10	24653.45
844.28	24757.89
844.45	24884.87
844.63	24876.68
844.81	24958.60
844.98	24934.02
845.16	24471.18
845.33	24505.99
845.51	24749.70
845.69	24882.82
845.86	24485.51
846.04	24456.84
846.21	24540.81
846.39	24280.72
846.57	24448.65
846.74	24319.63
846.92	24231.57
847.09	24432.27
847.27	24215.18
847.45	24260.24
847.62	24479.37
847.80	24528.52
847.97	24172.18
848.15	24182.42
848.32	23987.86
848.50	23961.23
848.68	24004.24
848.85	24045.20
849.03	23590.55
849.20	23881.36
849.38	24147.60
849.56	23918.23
849.73	23914.13
849.91	23957.14
850.08	23785.11
850.26	23479.96
850.43	23793.30
850.61	23627.42
850.78	23756.44
850.96	23578.26
851.14	23402.14
851.31	23670.42
851.49	23463.58
851.66	23668.37
851.84	23434.91
852.01	23586.46
852.19	23398.04
852.36	23271.07
852.54	23596.70
852.71	23484.06
852.89	23295.64
853.07	23455.39
853.24	23262.88
853.42	23207.58
853.59	23279.26
853.77	23156.38
853.94	23160.48
854.12	23158.43
854.29	23123.62
854.47	22746.79
854.64	23205.53
854.82	23056.03
854.99	22929.06
855.17	22806.18
855.34	22937.25
855.52	22679.21
855.69	23072.42
855.87	22816.42
856.04	22441.64
856.22	22668.97
856.39	22363.82
856.57	22464.17
856.74	22568.62
856.92	22711.97
857.09	22564.52
857.27	22441.64
857.44	22599.34
857.62	22472.36
857.79	22521.51
857.97	22531.75
858.14	22296.24
858.32	22195.89
858.49	22339.24
858.67	22075.06
858.84	22279.85
859.02	22259.37
859.19	22111.92
859.37	21874.35
859.54	22214.32
859.72	22185.65
859.89	22156.97
860.06	22150.83
860.24	22025.90
860.41	22245.04
860.59	21812.92
860.76	21888.69
860.94	21804.72
861.11	21907.12
861.29	21454.52
861.46	21763.76
861.64	21724.85
861.81	21763.76
861.98	21624.50
862.16	21780.15
862.33	21481.14
862.51	21550.78
862.68	21657.27
862.86	21448.38
863.03	21384.89
863.21	21110.46
863.38	21231.29
863.55	21284.54
863.73	21452.47
863.90	21309.11
864.08	21229.24
864.25	21280.44
864.43	21124.80
864.60	20999.87
864.77	21186.24
864.95	21046.97
865.12	20741.83
865.30	21178.04
865.47	21053.12
865.64	21059.26
865.82	21139.13
865.99	21153.47
866.17	20760.26
866.34	20780.74
866.51	20707.01
866.69	20954.82
866.86	20999.87
867.04	20754.12
867.21	20768.45
867.38	20403.91
867.56	20555.46
867.73	20825.79
867.91	20371.15
868.08	20608.71
868.25	20375.24
868.43	20328.14
868.60	20379.34
868.78	20233.93
868.95	20747.97
869.12	20207.31
869.30	20008.65
869.47	20477.64
869.64	19969.74
869.82	20350.67
869.99	19955.41
870.16	20217.55
870.34	20084.43
870.51	20139.72
870.69	19912.40
870.86	19994.32
871.03	19730.13
871.21	19494.61
871.38	19853.01
871.55	19867.34
871.73	19750.61
871.90	19801.81
872.07	19478.23
872.25	19283.67
872.42	19646.16
872.59	19388.12
872.77	19742.42
872.94	19406.55
873.11	19140.32
873.29	19398.36
873.46	19181.28
873.63	19222.23
873.81	19123.93
873.98	19230.43
874.15	19091.16
874.33	19195.61
874.50	18949.85
874.67	18945.76
874.85	19117.79
875.02	18966.24
875.19	18683.62
875.37	18720.48
875.54	18687.71
875.71	18716.39
875.88	18724.58
876.06	18769.63
876.23	18605.80
876.40	18613.99
876.58	18568.93
876.75	18542.31
876.92	18384.62
877.10	18534.12
877.27	18439.91
877.44	18192.11
877.61	18089.71
877.79	18276.07
877.96	18329.32
878.13	18464.49
878.31	18075.37
878.48	18122.48
878.65	17942.25
878.82	17901.29
879.00	18048.75
879.17	17975.02
879.34	18003.69
879.51	17630.96
879.69	17706.74
879.86	17739.51
880.03	17766.13
880.21	17559.28
880.38	17741.55
880.55	17739.51
880.72	17735.41
880.90	17811.18
881.07	17481.46
881.24	17592.05
881.41	17641.20
881.59	17524.47
881.76	17518.32
881.93	17374.97
882.10	17522.42
882.28	17067.77
882.45	17315.58
882.62	17141.50
882.79	17450.74
882.96	17035.00
883.14	17297.14
883.31	17325.82
883.48	17073.92
883.65	17190.65
883.83	17377.01
884.00	17032.96
884.17	17223.42
884.34	17164.03
884.51	17116.92
884.69	17090.30
884.86	16934.65
885.03	16914.17
885.20	16604.93
885.38	17041.15
885.55	16856.83
885.72	17028.86
885.89	16965.37
886.06	16682.75
886.24	16981.76
886.41	16805.63
886.58	17016.57
886.75	16928.51
886.92	16594.69
887.10	16754.43
887.27	16750.34
887.44	16600.83
887.61	16783.10
887.78	16719.62
887.95	16635.65
888.13	16557.83
888.30	16469.76
888.47	16283.40
888.64	16553.73
888.81	16328.45
888.99	16135.95
889.16	16135.95
889.33	16299.78
889.50	16062.22
889.67	16000.78
889.84	16107.27
890.01	16195.34
890.19	16191.24
890.36	16121.61
890.53	16060.17
890.70	15980.30
890.87	15720.21
891.04	15685.39
891.22	15896.33
891.39	16070.41
891.56	15675.15
891.73	15959.82
891.90	15623.95
892.07	15652.63
892.24	15529.75
892.42	15619.86
892.59	15619.86
892.76	15417.11
892.93	15521.56
893.10	15810.32
893.27	15511.32
893.44	15578.90
893.61	15658.77
893.79	15615.76
893.96	15521.56
894.13	15531.80
894.30	15460.12
894.47	15396.63
894.64	15539.99
894.81	15357.72
894.98	15410.96
895.15	15347.48
895.33	15593.23
895.50	15458.07
895.67	15507.22
895.84	15349.53
896.01	15134.49
896.18	15187.74
896.35	15531.80
896.52	15007.52
896.69	15357.72
896.86	15226.65
897.04	15324.95
897.21	15169.30
897.38	15367.96
897.55	15568.66
897.72	15290.13
897.89	15386.39
898.06	15224.60
898.23	15189.78
898.40	15200.02
898.57	15345.43
898.74	15230.74
898.91	15253.27
899.08	15116.06
899.26	15048.47
899.43	15357.72
899.60	15298.33
899.77	15163.16
899.94	14968.60
900.11	15189.78
900.28	15269.66
900.45	15154.97
900.62	15146.78
900.79	15267.61
900.96	15023.90
901.13	15052.57
901.30	15161.11
901.47	15222.55
901.64	15060.76
901.81	15240.98
901.98	15177.50
902.15	15165.21
902.32	14819.10
902.49	15030.04
902.66	15122.20
902.83	15144.73
903.01	14868.25
903.18	15103.77
903.35	14993.18
903.52	14982.94
903.69	15267.61
903.86	15089.43
904.03	15009.56
904.20	15159.06
904.37	15050.52
904.54	15003.42
904.71	14917.40
904.88	14952.22
905.05	14890.78
905.22	15208.22
905.39	14997.28
905.56	14847.77
905.73	14870.30
905.90	14948.12
906.07	15091.48
906.24	14946.08
906.41	14853.92
906.58	14931.74
906.75	15017.75
906.92	14821.15
907.09	15224.60
907.26	14905.12
907.43	15036.19
907.60	14696.22
907.77	15019.80
907.93	14954.27
908.10	15003.42
908.27	14876.44
908.44	14829.34
908.61	14858.01
908.78	14819.10
908.95	14737.18
909.12	14737.18
909.29	14913.31
909.46	14636.83
909.63	15027.99
909.80	14659.36
909.97	14669.60
910.14	14716.70
910.31	14532.39
910.48	14778.14
910.65	14522.15
910.82	14690.08
910.99	14802.72
911.16	14573.35
911.33	14423.84
911.50	14690.08
911.66	14343.97
911.83	14466.85
912.00	14409.51
912.17	14282.53
912.34	14550.82
912.51	14395.17
912.68	14350.12
912.85	14438.18
913.02	14524.19
913.19	14335.78
913.36	14346.02
913.53	14253.86
913.70	14038.83
913.86	14290.73
914.03	14106.41
914.20	14102.31
914.37	14098.22
914.54	14116.65
914.71	13963.05
914.88	14100.26
915.05	13887.28
915.22	13797.17
915.39	13829.93
915.55	13686.58
915.72	14147.37
915.89	13817.65
916.06	13649.71
916.23	13625.14
916.40	13569.84
916.57	13406.00
916.74	13729.58
916.91	13584.18
917.07	13598.51
917.24	13588.27
917.41	13557.55
917.58	13604.66
917.75	13401.91
917.92	13365.04
918.09	13428.53
918.26	13360.95
918.42	13422.39
918.59	13387.57
918.76	13332.28
918.93	13209.40
919.10	13154.10
919.27	13330.23
919.44	13281.08
919.60	13236.02
919.77	13244.21
919.94	13033.27
920.11	12900.16
920.28	12887.87
920.45	13004.60
920.61	12678.97
920.78	12775.23
920.95	12730.17
921.12	12859.20
921.29	12552.00
921.46	12533.57
921.62	12394.31
921.79	12824.38
921.96	12525.38
922.13	12488.51
922.30	12279.62
922.47	12353.35
922.63	12195.65
922.80	12253.00
922.97	12212.04
923.14	12058.44
923.31	12279.62
923.47	12013.38
923.64	12437.31
923.81	11919.18
923.98	12013.38
924.15	11861.84
924.32	12021.58
924.48	11917.13
924.65	12107.59
924.82	11921.23
924.99	11663.18
925.15	11556.69
925.32	11827.02
925.49	11421.52
925.66	11577.17
925.83	11298.64
925.99	11472.72
926.16	11689.81
926.33	11501.39
926.50	11126.61
926.67	11312.98
926.83	11261.78
927.00	11263.83
927.17	11173.72
927.34	11167.57
927.50	11042.65
927.67	11194.20
927.84	11102.04
928.01	11067.22
928.17	11093.85
928.34	11054.94
928.51	10803.04
928.68	10948.44
928.84	10678.11
929.01	10547.04
929.18	10538.85
929.35	10606.43
929.51	10557.28
929.68	10643.29
929.85	10387.30
930.02	10522.46
930.18	10243.94
930.35	10434.40
930.52	10176.36
930.69	10358.63
930.85	10170.21
931.02	10159.97
931.19	10055.53
931.36	10166.12
931.52	10094.44
931.69	10061.67
931.86	9877.35
932.02	9652.08
932.19	9875.31
932.36	9721.71
932.53	10045.29
932.69	9703.28
932.86	9742.19
933.03	9568.11
933.19	9430.90
933.36	9602.93
933.53	9645.93
933.70	9543.53
933.86	9498.48
934.03	9375.60
934.20	9383.79
934.36	9322.35
934.53	9092.98
934.70	9222.00
934.86	9146.23
935.03	9123.70
935.20	8841.08
935.36	9013.11
935.53	8750.97
935.70	8750.97
935.86	8822.65
936.03	8585.08
936.20	8576.89
936.36	8628.09
936.53	8329.09
936.70	8488.83
936.86	8402.82
937.03	8218.50
937.20	8075.14
937.36	8169.35
937.53	7802.76
937.70	7817.10
937.86	7659.40
938.03	7610.25
938.20	7759.75
938.36	7608.20
938.53	7700.36
938.70	7251.86
938.86	7415.69
939.03	7237.52
939.20	7126.93
939.36	7192.47
939.53	7153.55
939.70	7063.44
939.86	6795.16
940.03	6862.74
940.19	6678.43
940.36	6719.39
940.53	6805.40
940.69	6563.74
940.86	6578.08
941.03	6391.71
941.19	6201.25
941.36	6391.71
941.52	6207.39
941.69	6180.77
941.86	6119.33
942.02	6098.85
942.19	5932.97
942.35	6139.81
942.52	6037.41
942.69	5969.83
942.85	5818.28
943.02	5734.31
943.18	5892.01
943.35	5668.78
943.52	5797.80
943.68	5619.63
943.85	5683.11
944.01	5584.81
944.18	5521.32
944.35	5824.42
944.51	5447.60
944.68	5367.73
944.84	5316.53
945.01	5447.60
945.17	5402.54
945.34	5447.60
945.51	5365.68
945.67	5330.86
945.84	5367.73
946.00	5197.74
946.17	5373.87
946.33	5326.77
946.50	5289.90
946.67	5373.87
946.83	5310.38
947.00	5363.63
947.16	5273.52
947.33	5142.45
947.49	5275.57
947.66	5222.32
947.82	5105.59
947.99	5154.74
948.16	5138.35
948.32	5144.50
948.49	5302.19
948.65	5246.90
948.82	5119.92
948.98	5238.70
949.15	5283.76
949.31	5349.29
949.48	5244.85
949.64	5013.43
949.81	5277.62
949.97	5328.81
950.14	5300.14
950.30	5087.15
950.47	5257.14
950.63	5300.14
950.80	5289.90
950.96	5316.53
951.13	5326.77
951.30	5273.52
951.46	5281.71
951.63	5445.55
951.79	5255.09
951.96	5361.58
952.12	5312.43
952.29	5230.51
952.45	5345.20
952.62	5205.94
952.78	5556.14
952.94	5279.66
953.11	5302.19
953.27	5242.80
953.44	5447.60
953.60	5433.26
953.77	5560.24
953.93	5359.53
954.10	5318.57
954.26	5322.67
954.43	5332.91
954.59	5332.91
954.76	5463.98
954.92	5386.16
955.09	5449.64
955.25	5349.29
955.42	5386.16
955.58	5519.28
955.75	5371.82
955.91	5392.30
956.07	5412.78
956.24	5535.66
956.40	5500.84
956.57	5504.94
956.73	5382.06
956.90	5554.09
957.06	5552.04
957.23	5400.49
957.39	5439.40
957.56	5523.37
957.72	5488.56
957.88	5457.84
958.05	5517.23
958.21	5470.12
958.38	5560.24
958.54	5455.79
958.71	5504.94
958.87	5353.39
959.03	5463.98
959.20	5541.80
959.36	5353.39
959.53	5427.12
959.69	5328.81
959.85	5386.16
960.02	5281.71
960.18	5390.25
960.35	5451.69
960.51	5498.80
960.68	5394.35
960.84	5365.68
961.00	5439.40
961.17	5482.41
961.33	5527.47
961.50	5410.73
961.66	5564.33
961.82	5283.76
961.99	5351.34
962.15	5294.00
962.31	5377.97
962.48	5357.49
962.64	5478.32
962.81	5347.25
962.97	5386.16
963.13	5263.28
963.30	5392.30
963.46	5261.23
963.62	5275.57
963.79	5480.36
963.95	5265.33
964.12	5345.20
964.28	5461.93
964.44	5294.00
964.61	5310.38
964.77	5324.72
964.93	5279.66
965.10	5425.07
965.26	5181.36
965.42	5326.77
965.59	5402.54
965.75	5345.20
965.92	5291.95
966.08	5179.31
966.24	5337.01
966.41	5373.87
966.57	5291.95
966.73	5341.10
966.90	5300.14
967.06	5216.18
967.22	5236.66
967.39	5193.65
967.55	5234.61
967.71	5312.43
967.88	5218.22
968.04	5089.20
968.20	5113.78
968.37	5136.31
968.53	5146.55
968.69	5074.87
968.85	5207.98
969.02	5185.46
969.18	5337.01
969.34	5183.41
969.51	5236.66
969.67	5187.50
969.83	5013.43
970.00	5173.17
970.16	5064.63
970.32	5250.99
970.48	5167.03
970.65	5046.20
970.81	4949.94
970.97	5040.05
971.14	4958.13
971.30	5244.85
971.46	5033.91
971.63	4999.09
971.79	5119.92
971.95	5056.43
972.11	4843.45
972.28	4999.09
972.44	5103.54
972.60	4732.86
972.76	5048.24
972.93	4902.84
973.09	4976.56
973.25	5046.20
973.42	4861.88
973.58	4945.84
973.74	4958.13
973.90	5001.14
974.07	5035.96
974.23	4941.75
974.39	4935.60
974.55	4855.73
974.72	4884.41
974.88	4650.94
975.04	4900.79
975.20	4734.90
975.37	4892.60
975.53	4667.32
975.69	4876.21
975.85	4646.84
976.01	4751.29
976.18	4632.51
976.34	4849.59
976.50	4816.82
976.66	4779.96
976.83	4743.10
976.99	4702.14
977.15	4646.84
977.31	4566.97
977.47	4669.37
977.64	4698.04
977.80	4665.27
977.96	4716.47
978.12	4710.33
978.29	4632.51
978.45	4589.50
978.61	4530.11
978.77	4736.95
978.93	4683.70
979.10	4534.20
979.26	4566.97
979.42	4538.30
979.58	4618.17
979.74	4480.96
979.91	4571.07
980.07	4458.43
980.23	4339.65
980.39	4521.92
980.55	4519.87
980.71	4310.97
980.88	4401.08
981.04	4458.43
981.20	4370.37
981.36	4573.11
981.52	4417.47
981.68	4356.03
981.85	4493.24
982.01	4431.80
982.17	4392.89
982.33	4480.96
982.49	4388.80
982.65	4360.13
982.82	4448.19
982.98	4399.04
983.14	4235.20
983.30	4341.69
983.46	4304.83
983.62	4378.56
983.79	4286.40
983.95	4245.44
984.11	4247.49
984.27	4276.16
984.43	4296.64
984.59	4196.29
984.75	4161.47
984.91	4292.54
985.08	4239.30
985.24	4126.66
985.40	4245.44
985.56	4149.18
985.72	4177.86
985.88	4192.19
986.04	4104.13
986.20	4102.08
986.37	4147.14
986.53	4091.84
986.69	4149.18
986.85	4065.22
987.01	4091.84
987.17	4040.64
987.33	4100.03
987.49	4091.84
987.65	4108.23
987.82	4042.69
987.98	4032.45
988.14	3882.95
988.30	3954.63
988.46	4050.88
988.62	3989.44
988.78	3964.87
988.94	3887.04
989.10	3921.86
989.26	3860.42
989.42	3942.34
989.59	3925.96
989.75	3803.08
989.91	3882.95
990.07	3635.14
990.23	3731.40
990.39	3876.80
990.55	3817.41
990.71	3817.41
990.87	3872.71
991.03	3874.76
991.19	3733.45
991.35	3788.74
991.51	3837.89
991.67	3897.28
991.83	3848.13
992.00	3737.54
992.16	3788.74
992.32	3907.52
992.48	3676.10
992.64	3620.81
992.80	3669.96
992.96	3715.02
993.12	3639.24
993.28	3768.26
993.44	3663.82
993.60	3696.58
993.76	3702.73
993.92	3690.44
994.08	3700.68
994.24	3657.67
994.40	3573.71
994.56	3592.14
994.72	3585.99
994.88	3540.94
995.04	3590.09
995.20	3622.86
995.36	3489.74
995.52	3565.51
995.68	3624.90
995.84	3413.96
996.00	3719.11
996.16	3506.12
996.32	3395.53
996.48	3534.79
996.64	3569.61
996.80	3549.13
996.96	3413.96
997.12	3370.96
997.28	3483.59
997.44	3334.09
997.60	3405.77
997.76	3358.67
997.92	3596.23
998.08	3469.26
998.24	3358.67
998.40	3483.59
998.56	3551.18
998.72	3252.17
998.88	3362.76
999.04	3407.82
999.20	3522.51
999.36	3321.81
999.52	3352.52
999.68	3268.56
999.84	3477.45
1000.00	3448.78
1000.16	3395.53
1000.32	3252.17
1000.48	3383.24
1000.64	3215.31
1000.80	3276.75
1000.95	3295.18
1001.11	3338.19
1001.27	3186.64
1001.43	3297.23
1001.59	3080.14
1001.75	3237.84
1001.91	3323.85
1002.07	3121.10
1002.23	3129.30
1002.39	3155.92
1002.55	3182.54
1002.71	3131.34
1002.87	3055.57
1003.03	3133.39
1003.19	3069.91
1003.34	3174.35
1003.50	3090.38
1003.66	3108.82
1003.82	3270.61
1003.98	3047.38
1004.14	3133.39
1004.30	2918.36
1004.46	3057.62
1004.62	3094.48
1004.78	3137.49
1004.94	3078.10
1005.09	3196.88
1005.25	3059.67
1005.41	3063.76
1005.57	3069.91
1005.73	3010.51
1005.89	3002.32
1006.05	3143.63
1006.21	3008.47
1006.37	2910.16
1006.52	2985.94
1006.68	2795.48
1006.84	3045.33
1007.00	2881.49
1007.16	2912.21
1007.32	2818.00
1007.48	2906.07
1007.64	2996.18
1007.79	2930.64
1007.95	2852.82
1008.11	2971.60
1008.27	2852.82
1008.43	2883.54
1008.59	2877.40
1008.75	2867.16
1008.91	2854.87
1009.06	2891.73
1009.22	2887.64
1009.38	2818.00
1009.54	2936.79
1009.70	2852.82
1009.86	2834.39
1010.01	2901.97
1010.17	2748.37
1010.33	2807.77
1010.49	2793.43
1010.65	2740.18
1010.81	2754.52
1010.96	2805.72
1011.12	2752.47
1011.28	2746.33
1011.44	2750.42
1011.60	2662.36
1011.76	2734.04
1011.91	2836.44
1012.07	2697.17
1012.23	2615.26
1012.39	2586.58
1012.55	2756.57
1012.71	2656.22
1012.86	2713.56
1013.02	2635.74
1013.18	2662.36
1013.34	2664.41
1013.50	2746.33
1013.65	2629.59
1013.81	2650.07
1013.97	2549.72
1014.13	2631.64
1014.29	2570.20
1014.44	2672.60
1014.60	2580.44
1014.76	2514.91
1014.92	2519.00
1015.07	2547.67
1015.23	2578.39
1015.39	2572.25
1015.55	2545.63
1015.71	2508.76
1015.86	2564.06
1016.02	2478.04
1016.18	2494.43
1016.34	2469.85
1016.49	2502.62
1016.65	2600.92
1016.81	2564.06
1016.97	2551.77
1017.12	2430.94
1017.28	2504.67
1017.44	2498.52
1017.60	2461.66
1017.75	2525.15
1017.91	2412.51
1018.07	2422.75
1018.23	2514.91
1018.38	2439.13
1018.54	2402.27
1018.70	2424.80
1018.86	2379.74
1019.01	2439.13
1019.17	2445.27
1019.33	2576.34
1019.49	2506.71
1019.64	2426.84
1019.80	2377.69
1019.96	2398.17
1020.12	2455.51
1020.27	2310.11
1020.43	2355.16
1020.59	2467.80
1020.74	2312.16
1020.90	2473.95
1021.06	2320.35
1021.22	2324.44
1021.37	2359.26
1021.53	2267.10
1021.69	2361.31
1021.84	2299.87
1022.00	2330.59
1022.16	2297.82
1022.31	2256.86
1022.47	2392.03
1022.63	2344.92
1022.79	2213.85
1022.94	2244.57
1023.10	2336.73
1023.26	2211.81
1023.41	2254.81
1023.57	2230.24
1023.73	2346.97
1023.88	2279.39
1024.04	2246.62
1024.20	2254.81
1024.35	2256.86
1024.51	2263.01
1024.67	2254.81
1024.82	2342.88
1024.98	2179.04
1025.14	2224.09
1025.29	2146.27
1025.45	2320.35
1025.61	2174.94
1025.76	2170.85
1025.92	2246.62
1026.08	2295.77
1026.23	2316.25
1026.39	2199.52
1026.55	2232.29
1026.70	2174.94
1026.86	2224.09
1027.02	2256.86
1027.17	2246.62
1027.33	2217.95
1027.48	2129.89
1027.64	2195.42
1027.80	2050.02
1027.95	2181.09
1028.11	2043.87
1028.27	2133.98
1028.42	2138.08
1028.58	2174.94
1028.73	2170.85
1028.89	2041.82
1029.05	2217.95
1029.20	2185.18
>>>>>End Processed Spectral Data<<<<<
