SpectraSuite Data File
++++++++++++++++++++++++++++++++++++
Date: Fri Jun 02 14:47:59 CEST 2017
User: INFO_000
Dark Spectrum Present: No
Reference Spectrum Present: No
Number of Sampled Component Spectra: 1
Spectrometers: USB4H00879
Integration Time (usec): 80000 (USB4H00879)
Spectra Averaged: 1 (USB4H00879)
Boxcar Smoothing: 0 (USB4H00879)
Correct for Electrical Dark: No (USB4H00879)
Strobe/Lamp Enabled: No (USB4H00879)
Correct for Detector Non-linearity: No (USB4H00879)
Correct for Stray Light: No (USB4H00879)
Number of Pixels in Processed Spectrum: 3648
>>>>>Begin Processed Spectral Data<<<<<
345.13	1298.41
345.34	1298.41
345.56	1298.41
345.78	1368.04
345.99	1304.56
346.21	1675.24
346.42	1679.33
346.64	1609.70
346.86	1798.12
347.07	1681.38
347.29	1757.16
347.50	1683.43
347.72	1650.66
347.94	1695.72
348.15	1550.31
348.37	1683.43
348.59	1658.85
348.80	1658.85
349.02	1710.05
349.23	1841.12
349.45	1816.55
349.67	1867.75
349.88	1761.25
350.10	2007.01
350.31	1843.17
350.53	1818.60
350.75	2000.87
350.96	1748.97
351.18	1853.41
351.39	1855.46
351.61	1820.64
351.82	1834.98
352.04	1857.51
352.26	1828.84
352.47	1859.56
352.69	1890.28
352.90	1765.35
353.12	1910.75
353.34	1761.25
353.55	1951.71
353.77	1871.84
353.98	1765.35
354.20	1812.45
354.41	1855.46
354.63	1964.00
354.85	2035.68
355.06	1914.85
355.28	1806.31
355.49	1910.75
355.71	1826.79
355.92	1904.61
356.14	2002.91
356.35	1853.41
356.57	1802.21
356.79	1902.56
357.00	1871.84
357.22	1992.67
357.43	1728.49
357.65	2009.06
357.86	1918.95
358.08	1916.90
358.29	1949.67
358.51	2017.25
358.72	1900.52
358.94	2002.91
359.16	2017.25
359.37	1912.80
359.59	1912.80
359.80	2011.11
360.02	1923.04
360.23	1959.91
360.45	2023.39
360.66	1828.84
360.88	1863.65
361.09	1906.66
361.31	2009.06
361.52	2021.35
361.74	2027.49
361.95	1982.43
362.17	1970.15
362.38	2011.11
362.60	2056.16
362.81	1978.34
363.03	1906.66
363.24	2007.01
363.46	2090.98
363.67	2021.35
363.89	1994.72
364.10	2064.35
364.32	1998.82
364.53	1945.57
364.75	1910.75
364.96	1951.71
365.18	2004.96
365.39	1996.77
365.61	2029.54
365.82	2072.54
366.04	2043.87
366.25	1931.23
366.47	2004.96
366.68	2035.68
366.90	1957.86
367.11	2002.91
367.33	1994.72
367.54	2019.30
367.76	1978.34
367.97	2050.02
368.19	2068.45
368.40	2047.97
368.62	2000.87
368.83	1943.52
369.05	2047.97
369.26	2013.15
369.48	1908.71
369.69	1980.39
369.91	2023.39
370.12	1998.82
370.33	2109.41
370.55	2033.63
370.76	2076.64
370.98	2047.97
371.19	1990.63
371.41	2011.11
371.62	2140.13
371.84	2002.91
372.05	2152.42
372.27	2076.64
372.48	2084.83
372.69	2093.02
372.91	2181.09
373.12	2115.55
373.34	2084.83
373.55	2125.79
373.77	2086.88
373.98	2070.50
374.20	2133.98
374.41	2275.29
374.62	2140.13
374.84	2127.84
375.05	2222.05
375.27	2119.65
375.48	2217.95
375.70	2109.41
375.91	2131.94
376.12	2193.37
376.34	2183.13
376.55	2217.95
376.77	2226.14
376.98	2170.85
377.19	2095.07
377.41	2138.08
377.62	2242.53
377.84	2260.96
378.05	2199.52
378.27	2346.97
378.48	2340.83
378.69	2273.25
378.91	2215.90
379.12	2250.72
379.34	2275.29
379.55	2256.86
379.76	2185.18
379.98	2133.98
380.19	2314.20
380.41	2316.25
380.62	2312.16
380.83	2258.91
381.05	2224.09
381.26	2437.08
381.47	2260.96
381.69	2183.13
381.90	2363.36
382.12	2328.54
382.33	2297.82
382.54	2320.35
382.76	2334.68
382.97	2254.81
383.19	2250.72
383.40	2383.84
383.61	2254.81
383.83	2254.81
384.04	2342.88
384.25	2373.60
384.47	2416.60
384.68	2346.97
384.89	2256.86
385.11	2340.83
385.32	2355.16
385.54	2416.60
385.75	2334.68
385.96	2404.32
386.18	2443.23
386.39	2412.51
386.60	2357.21
386.82	2410.46
387.03	2394.08
387.24	2478.04
387.46	2334.68
387.67	2424.80
387.88	2484.19
388.10	2420.70
388.31	2568.15
388.52	2584.54
388.74	2521.05
388.95	2516.95
389.16	2568.15
389.38	2543.58
389.59	2590.68
389.80	2590.68
390.02	2588.63
390.23	2680.79
390.44	2621.40
390.66	2613.21
390.87	2592.73
391.08	2572.25
391.30	2664.41
391.51	2547.67
391.72	2705.37
391.94	2594.78
392.15	2652.12
392.36	2623.45
392.58	2670.55
392.79	2611.16
393.00	2633.69
393.22	2625.50
393.43	2826.20
393.64	2779.09
393.85	2856.92
394.07	2674.65
394.28	2752.47
394.49	2781.14
394.71	2699.22
394.92	2803.67
395.13	2768.85
395.35	2744.28
395.56	2764.76
395.77	2762.71
395.98	2838.48
396.20	2861.01
396.41	2764.76
396.62	2867.16
396.84	2783.19
397.05	2838.48
397.26	2910.16
397.47	2949.08
397.69	2775.00
397.90	2998.23
398.11	2922.45
398.32	2944.98
398.54	2918.36
398.75	2865.11
398.96	2875.35
399.18	3065.81
399.39	3041.23
399.60	3000.27
399.81	2891.73
400.03	2957.27
400.24	3276.75
400.45	2953.17
400.66	3063.76
400.88	2928.60
401.09	3106.77
401.30	3092.43
401.51	3166.16
401.73	3133.39
401.94	3160.02
402.15	3078.10
402.36	3127.25
402.58	3131.34
402.79	3151.82
403.00	3086.29
403.21	3104.72
403.43	3243.98
403.64	3252.17
403.85	3114.96
404.06	3284.94
404.27	3080.14
404.49	3137.49
404.70	3117.01
404.91	3317.71
405.12	3176.40
405.34	3223.50
405.55	3348.43
405.76	3084.24
405.97	3166.16
406.19	3442.64
406.40	3211.22
406.61	3295.18
406.82	3311.57
407.03	3289.04
407.25	3155.92
407.46	3387.34
407.67	3321.81
407.88	3440.59
408.09	3278.80
408.31	3364.81
408.52	3389.39
408.73	3432.40
408.94	3297.23
409.15	3459.02
409.37	3452.88
409.58	3473.36
409.79	3506.12
410.00	3487.69
410.21	3442.64
410.43	3407.82
410.64	3375.05
410.85	3524.55
411.06	3555.27
411.27	3542.99
411.48	3590.09
411.70	3440.59
411.91	3487.69
412.12	3629.00
412.33	3624.90
412.54	3413.96
412.76	3649.48
412.97	3749.83
413.18	3475.40
413.39	3651.53
413.60	3755.97
413.81	3715.02
414.03	3659.72
414.24	3684.30
414.45	3702.73
414.66	3577.80
414.87	3674.06
415.08	3723.21
415.30	3715.02
415.51	3758.02
415.72	3733.45
415.93	3690.44
416.14	3805.13
416.35	3831.75
416.56	3837.89
416.78	3921.86
416.99	3909.57
417.20	3841.99
417.41	3934.15
417.62	3878.85
417.83	3887.04
418.04	3917.76
418.26	3895.24
418.47	3887.04
418.68	4034.50
418.89	4067.27
419.10	3975.11
419.31	3964.87
419.52	4036.55
419.73	3921.86
419.95	4065.22
420.16	3942.34
420.37	4028.35
420.58	4110.27
420.79	4011.97
421.00	4050.88
421.21	4196.29
421.42	4067.27
421.63	4212.67
421.85	4063.17
422.06	4196.29
422.27	4118.47
422.48	4075.46
422.69	4247.49
422.90	4208.58
423.11	4210.62
423.32	4261.82
423.53	4435.90
423.75	4302.78
423.96	4423.61
424.17	4339.65
424.38	4483.00
424.59	4372.41
424.80	4487.10
425.01	4464.57
425.22	4493.24
425.43	4335.55
425.64	4593.59
425.85	4628.41
426.06	4569.02
426.28	4564.92
426.49	4421.56
426.70	4431.80
426.91	4687.80
427.12	4741.05
427.33	4640.70
427.54	4544.44
427.75	4728.76
427.96	4919.22
428.17	4698.04
428.38	4743.10
428.59	4825.01
428.80	4659.13
429.01	4747.19
429.23	4739.00
429.44	4904.89
429.65	4911.03
429.86	4810.68
430.07	4859.83
430.28	4835.25
430.49	4951.99
430.70	5087.15
430.91	5068.72
431.12	5074.87
431.33	5189.55
431.54	5171.12
431.75	5064.63
431.96	4990.90
432.17	5017.52
432.38	5074.87
432.59	5238.70
432.80	5169.07
433.01	5246.90
433.22	5246.90
433.43	5109.68
433.64	5115.83
433.85	5361.58
434.06	5271.47
434.27	5185.46
434.49	5222.32
434.70	5459.88
434.91	5377.97
435.12	5439.40
435.33	5375.92
435.54	5382.06
435.75	5244.85
435.96	5382.06
436.17	5416.88
436.38	5437.36
436.59	5541.80
436.80	5533.61
437.01	5689.26
437.22	5617.58
437.43	5617.58
437.64	5527.47
437.85	5621.67
438.06	5697.45
438.27	5568.43
438.48	5621.67
438.69	5738.41
438.90	5711.78
439.11	5631.91
439.32	5808.04
439.53	5754.79
439.74	5767.08
439.95	5679.02
440.16	5695.40
440.37	5877.67
440.57	5664.68
440.78	5961.64
440.99	5844.90
441.20	6021.03
441.41	5840.81
441.62	6008.74
441.83	5730.22
442.04	6107.04
442.25	5939.11
442.46	5883.81
442.67	6227.87
442.88	6416.29
443.09	5957.54
443.30	5986.21
443.51	6254.50
443.72	6332.32
443.93	6258.59
444.14	6303.65
444.35	6168.48
444.56	6352.80
444.77	6330.27
444.98	6326.18
445.19	6262.69
445.40	6250.40
445.61	6274.98
445.81	6406.05
446.02	6428.57
446.23	6512.54
446.44	6324.13
446.65	6442.91
446.86	6504.35
447.07	6492.06
447.28	6909.85
447.49	6703.00
447.70	6590.36
447.91	6703.00
448.12	6598.56
448.33	6797.21
448.54	6782.87
448.74	6754.20
448.95	6875.03
449.16	6578.08
449.37	7085.97
449.58	6954.90
449.79	7067.54
450.00	6754.20
450.21	6901.65
450.42	6967.19
450.63	6983.57
450.84	6893.46
451.05	7083.92
451.25	6903.70
451.46	7008.15
451.67	7067.54
451.88	7311.25
452.09	7217.04
452.30	7161.75
452.51	7131.03
452.72	7288.72
452.93	7626.64
453.13	7077.78
453.34	7229.33
453.55	7335.82
453.76	7313.30
453.97	7638.92
454.18	7475.09
454.39	7624.59
454.60	7548.81
454.81	7606.16
455.01	7630.73
455.22	7337.87
455.43	7683.98
455.64	7911.30
455.85	7962.50
456.06	8021.89
456.27	7753.61
456.48	7896.97
456.68	7993.22
456.89	7765.90
457.10	7892.87
457.31	7995.27
457.52	7772.04
457.73	8073.09
457.94	8281.99
458.14	7886.73
458.35	8548.22
458.56	8247.17
458.77	8216.45
458.98	8300.42
459.19	8308.61
459.39	8458.11
459.60	8587.13
459.81	8499.07
460.02	8609.66
460.23	8642.43
460.44	8753.02
460.65	8697.72
460.85	8793.98
461.06	8953.72
461.27	8492.93
461.48	8806.27
461.69	8855.42
461.89	8656.76
462.10	8857.46
462.31	8798.07
462.52	8759.16
462.73	8851.32
462.94	9162.61
463.14	9254.77
463.35	8818.55
463.56	9351.03
463.77	9340.79
463.98	9316.21
464.18	9299.83
464.39	9457.52
464.60	9551.73
464.81	9383.79
465.02	9482.10
465.23	9885.55
465.43	9531.25
465.64	9795.43
465.85	9768.81
466.06	9721.71
466.27	10159.97
466.47	9928.55
466.68	9895.78
466.89	9852.78
467.10	9908.07
467.30	9930.60
467.51	10026.86
467.72	10219.36
467.93	9887.59
468.14	10241.89
468.34	10358.63
468.55	10547.04
468.76	10424.16
468.97	10153.83
469.17	10495.84
469.38	10733.40
469.59	10815.32
469.80	10524.51
470.01	10776.41
470.21	10803.04
470.42	11016.02
470.63	10938.20
470.84	10825.56
471.04	11132.76
471.25	11237.20
471.46	11059.03
471.67	11501.39
471.87	11536.21
472.08	11444.05
472.29	11702.09
472.50	11372.37
472.70	11206.48
472.91	11523.92
473.12	11505.49
473.33	11622.22
473.53	11865.93
473.74	11945.80
473.95	12195.65
474.16	12089.16
474.36	12185.41
474.57	12396.35
474.78	12408.64
474.99	12400.45
475.19	12382.02
475.40	12529.47
475.61	12523.33
475.81	12785.47
476.02	13045.56
476.23	12889.92
476.44	12898.11
476.64	13184.82
476.85	13168.44
477.06	13090.62
477.27	13469.49
477.47	13727.53
477.68	13569.84
477.89	13786.93
478.09	13657.90
478.30	13641.52
478.51	13731.63
478.71	13807.41
478.92	14241.57
479.13	14081.83
479.34	14466.85
479.54	14085.93
479.75	14327.59
479.96	14442.28
480.16	14524.19
480.37	14640.93
480.58	14892.83
480.78	14976.80
480.99	14976.80
481.20	14984.99
481.41	15146.78
481.61	15240.98
481.82	15171.35
482.03	15146.78
482.23	15351.57
482.44	15757.07
482.65	15750.93
482.85	15802.13
483.06	15705.87
483.27	16144.14
483.47	15951.63
483.68	16045.84
483.89	16213.77
484.09	16307.98
484.30	16486.15
484.51	16584.45
484.71	16627.46
484.92	16658.18
485.13	16733.95
485.33	16701.19
485.54	16881.41
485.75	16930.56
485.95	17131.26
486.16	17542.90
486.37	17622.77
486.57	17395.45
486.78	17350.39
486.98	17569.52
487.19	17653.49
487.40	17901.29
487.60	17901.29
487.81	18134.76
488.02	18405.10
488.22	18067.18
488.43	18317.03
488.64	18417.38
488.84	18487.01
489.05	18538.21
489.25	18779.87
489.46	19044.06
489.67	18609.89
489.87	19121.88
490.08	18869.98
490.29	19175.13
490.49	19341.02
490.70	19521.24
490.90	19826.39
491.11	19545.81
491.32	19599.06
491.52	19617.49
491.73	19855.06
491.94	19986.13
492.14	19746.51
492.35	20160.20
492.55	20332.23
492.76	20346.57
492.97	20582.09
493.17	20461.26
493.38	20715.20
493.58	20944.58
493.79	20637.38
494.00	20655.81
494.20	20995.78
494.41	21182.14
494.61	21243.58
494.82	21319.35
495.02	21235.39
495.23	21495.48
495.44	21720.76
495.64	21970.61
495.85	21624.50
496.05	21675.70
496.26	21888.69
496.47	22118.06
496.67	21659.32
496.88	22427.31
497.08	21952.18
497.29	22273.71
497.49	22005.42
497.70	22478.50
497.91	22705.83
498.11	22619.81
498.32	22970.02
498.52	22910.63
498.73	23215.77
498.93	22818.47
499.14	23133.86
499.34	22843.04
499.55	23189.15
499.76	22980.26
499.96	23545.50
500.17	23240.35
500.37	23328.41
500.58	23383.71
500.78	23678.61
500.99	23586.46
501.19	24125.07
501.40	23717.53
501.60	23752.34
501.81	23981.71
502.02	23998.10
502.22	23791.25
502.43	23905.94
502.63	23940.75
502.84	24129.17
503.04	24225.42
503.25	24174.22
503.45	24370.83
503.66	24520.33
503.86	24696.46
504.07	24974.98
504.27	24454.79
504.48	24514.19
504.68	24972.93
504.89	25167.49
505.09	24991.36
505.30	25034.37
505.50	25069.19
505.71	24938.12
505.91	25405.05
506.12	25208.45
506.32	25218.69
506.53	25433.72
506.73	25544.31
506.94	25620.09
507.14	25446.01
507.35	25759.35
507.55	25669.24
507.76	25228.93
507.96	25577.08
508.17	25785.97
508.37	25706.10
508.58	26252.91
508.78	25972.34
508.99	26066.55
509.19	26283.63
509.40	25968.24
509.60	26117.75
509.81	26250.86
510.01	25941.62
510.22	26465.90
510.42	26103.41
510.63	26470.00
510.83	26295.92
511.04	26633.83
511.24	26789.48
511.44	26666.60
511.65	26746.47
511.85	26310.25
512.06	26558.06
512.26	26498.67
512.47	26852.97
512.67	26631.79
512.88	26943.08
513.08	26459.76
513.29	26908.26
513.49	27020.90
513.69	27104.87
513.90	26742.38
514.10	26891.88
514.31	27231.84
514.51	27168.35
514.72	27074.15
514.92	27078.24
515.13	27209.31
515.33	27158.11
515.53	27330.14
515.74	27227.74
515.94	27266.66
516.15	27385.44
516.35	27502.17
516.56	27559.52
516.76	27530.84
516.96	27536.99
517.17	27846.23
517.37	27842.14
517.58	27747.93
517.78	27772.50
517.99	27885.14
518.19	28042.84
518.39	27989.59
518.60	27676.25
518.80	27971.16
519.01	28261.97
519.21	28272.21
519.41	28333.65
519.62	28288.59
519.82	28212.82
520.03	28489.29
520.23	28458.57
520.43	28558.92
520.64	28499.53
520.84	28954.18
521.05	28937.80
521.25	28943.94
521.45	29140.55
521.66	29048.39
521.86	29023.81
522.07	29349.44
522.27	29222.47
522.47	28935.75
522.68	29222.47
522.88	29247.04
523.08	29765.18
523.29	29423.17
523.49	29466.17
523.70	29699.64
523.90	29914.68
524.10	29605.44
524.31	29818.42
524.51	29908.54
524.71	30346.80
524.92	30137.91
525.12	30643.76
525.33	30258.74
525.53	30643.76
525.73	30416.43
525.94	30516.78
526.14	30453.30
526.34	30785.07
526.55	30832.17
526.75	30631.47
526.95	31073.83
527.16	30985.77
527.36	31106.60
527.56	30885.42
527.77	31557.15
527.97	31792.67
528.17	31346.21
528.38	31532.57
528.58	31780.38
528.78	31768.09
528.99	31626.78
529.19	32306.71
529.39	31645.21
529.60	32548.37
529.80	32181.78
530.00	32325.14
530.21	32206.36
530.41	32663.05
530.61	32552.46
530.82	32556.56
531.02	32372.24
531.22	32720.40
531.43	32783.88
531.63	32931.34
531.83	33220.10
532.04	33396.23
532.24	32898.57
532.44	33492.48
532.64	33580.54
532.85	33574.40
533.05	33570.30
533.25	33568.26
533.46	33637.89
533.66	33957.37
533.86	33738.24
534.07	34285.04
534.27	34409.97
534.47	34309.62
534.67	34463.22
534.88	34207.22
535.08	34661.87
535.28	35108.33
535.49	34702.83
535.69	34725.36
535.89	35149.29
536.09	35489.25
536.30	35163.62
536.50	35229.16
536.70	35679.71
536.91	35501.54
537.11	35300.84
537.31	36130.26
537.51	35857.88
537.72	36259.29
537.92	36279.77
538.12	36589.01
538.32	36072.92
538.53	36564.43
538.73	36060.63
538.93	36447.70
539.13	36523.47
539.34	36910.54
539.54	36660.69
539.74	36996.56
539.94	37172.68
540.15	37123.53
540.35	37461.44
540.55	37203.40
540.75	37436.87
540.96	37518.79
541.16	37705.15
541.36	37844.41
541.56	37688.77
541.77	38024.64
541.97	37975.48
542.17	38096.31
542.37	38057.40
542.58	38378.93
542.78	38348.21
542.98	38135.23
543.18	38514.10
543.38	38671.79
543.59	38747.57
543.79	38575.54
543.99	38694.32
544.19	38763.95
544.40	38972.85
544.60	39148.97
544.80	39032.24
545.00	39024.04
545.20	39460.26
545.41	39239.08
545.61	39542.18
545.81	39521.70
546.01	39667.11
546.21	39740.83
546.42	39357.86
546.62	39722.40
546.82	40031.65
547.02	39810.46
547.22	39896.48
547.43	39861.66
547.63	39744.93
547.83	40387.99
548.03	39884.19
548.23	40373.66
548.44	40179.10
548.64	40277.40
548.84	40506.77
549.04	40678.80
549.24	40740.24
549.45	41137.55
549.65	40824.21
549.85	40619.41
550.05	40695.19
550.25	40910.22
550.45	41123.21
550.66	41362.82
550.86	40897.94
551.06	41178.51
551.26	41088.40
551.46	41244.04
551.66	41272.71
551.87	41260.43
552.07	41805.19
552.27	41403.78
552.47	41450.89
552.67	41860.48
552.87	41637.25
553.07	41940.35
553.28	42003.84
553.48	41883.01
553.68	41686.40
553.88	42149.24
554.08	42526.07
554.28	41751.94
554.48	42005.89
554.69	42014.08
554.89	42429.82
555.09	41952.64
555.29	42122.62
555.49	42268.03
555.69	42542.45
555.89	42556.79
556.10	42485.11
556.30	42458.49
556.50	42401.14
556.70	42227.07
556.90	42573.17
557.10	42554.74
557.30	42501.50
557.50	42933.62
557.70	42556.79
557.91	42980.72
558.11	42548.60
558.31	43023.73
558.51	42569.08
558.71	42829.17
558.91	42775.92
559.11	42984.82
559.31	42792.31
559.51	42626.42
559.72	43124.08
559.92	42980.72
560.12	42712.44
560.32	43193.71
560.52	42906.99
560.72	43498.86
560.92	43384.17
561.12	43371.88
561.32	43814.24
561.52	43443.56
561.72	43402.60
561.93	42913.14
562.13	43134.32
562.33	42857.84
562.53	43443.56
562.73	43386.22
562.93	43492.71
563.13	43703.65
563.33	43269.48
563.53	43439.47
563.73	43703.65
563.93	43527.53
564.13	43765.09
564.33	43609.45
564.53	43767.14
564.74	44150.11
564.94	43677.03
565.14	43605.35
565.34	43171.18
565.54	43595.11
565.74	43599.21
565.94	44113.25
566.14	43859.30
566.34	43363.69
566.54	44242.27
566.74	44004.70
566.94	44283.23
567.14	44184.93
567.34	43900.26
567.54	44316.00
567.74	44162.40
567.94	43578.73
568.14	44127.58
568.34	43992.42
568.54	44076.38
568.74	44563.80
568.94	43955.55
569.14	44723.54
569.34	44375.39
569.54	43973.98
569.75	43933.03
569.95	44561.75
570.15	44416.35
570.35	44387.67
570.55	44139.87
570.75	44526.94
570.95	44301.66
571.15	44647.77
571.35	44674.39
571.55	44508.50
571.75	44303.71
571.95	44836.18
572.15	44561.75
572.35	44678.49
572.55	44604.76
572.75	44795.22
572.95	44293.47
573.15	44969.30
573.35	44600.66
573.55	44709.21
573.75	44309.85
573.95	44750.17
574.15	45073.74
574.35	45301.07
574.55	45012.31
574.75	45155.66
574.95	44748.12
575.15	44801.36
575.34	45022.54
575.54	44811.60
575.74	45393.23
575.94	45278.54
576.14	45290.83
576.34	45700.42
576.54	45407.56
576.74	45352.27
576.94	45518.15
577.14	45423.95
577.34	45624.65
577.54	45651.27
577.74	45583.69
577.94	45425.99
578.14	45634.89
578.34	45458.76
578.54	45188.43
578.74	45782.34
578.94	45589.83
579.14	45681.99
579.34	45677.90
579.54	45833.54
579.74	46394.68
579.94	45884.74
580.13	46101.82
580.33	45643.08
580.53	45843.78
580.73	46249.28
580.93	46163.26
581.13	46501.18
581.33	46357.82
581.53	46314.81
581.73	46366.01
581.93	46746.93
582.13	46585.15
582.33	46589.24
582.53	46572.86
582.73	46216.51
582.92	46368.06
583.12	46896.44
583.32	46454.08
583.52	46456.12
583.72	46824.76
583.92	46601.53
584.12	46875.96
584.32	47344.94
584.52	47168.82
584.72	47299.89
584.92	46744.89
585.11	47287.60
585.31	47455.53
585.51	47746.34
585.71	47205.68
585.91	47727.91
586.11	47095.09
586.31	47482.16
586.51	47238.45
586.71	47381.80
586.91	47891.75
587.10	47668.52
587.30	47844.65
587.50	47840.55
587.70	47346.99
587.90	48157.99
588.10	47785.25
588.30	47875.37
588.50	48200.99
588.69	47988.00
588.89	48031.01
589.09	47914.28
589.29	48303.39
589.49	48731.42
589.69	48227.62
589.89	48471.32
590.08	48041.25
590.28	48448.80
590.48	48471.32
590.68	48340.25
590.88	49095.95
591.08	48753.94
591.28	48874.77
591.47	49278.22
591.67	48391.45
591.87	49007.89
592.07	48977.17
592.27	48913.69
592.47	49042.71
592.67	48954.64
592.86	48788.76
593.06	49055.00
593.26	49440.01
593.46	49597.71
593.66	49022.23
593.86	49501.45
594.05	49329.42
594.25	49906.95
594.45	49409.29
594.65	49423.63
594.85	49216.78
595.05	49904.90
595.24	49702.15
595.44	49532.17
595.64	50377.98
595.84	49730.83
596.04	50179.33
596.23	50332.93
596.43	50091.27
596.63	49855.75
596.83	50203.91
597.03	50320.64
597.22	51082.48
597.42	50386.18
597.62	50611.45
597.82	50390.27
598.02	50679.03
598.21	51035.38
598.41	50754.81
598.61	50918.65
598.81	50924.79
599.01	51264.75
599.20	51094.77
599.40	50861.30
599.60	51270.90
599.80	51369.20
600.00	51227.89
600.19	51637.48
600.39	51336.43
600.59	51332.34
600.79	51289.33
600.98	51387.63
601.18	51975.40
601.38	51944.68
601.58	51817.71
601.78	51895.53
601.97	51789.03
602.17	52729.05
602.37	52188.39
602.57	51999.97
602.76	52663.52
602.96	52065.51
603.16	52614.37
603.36	52255.97
603.55	52714.72
603.75	52243.68
603.95	52421.86
604.15	52800.73
604.34	52573.41
604.54	52954.33
604.74	52751.58
604.94	53177.56
605.13	53210.32
605.33	52939.99
605.53	53042.39
605.73	53320.91
605.92	53003.48
606.12	53794.00
606.32	53349.59
606.52	53523.66
606.71	53572.81
606.91	53781.71
607.11	53460.18
607.30	53693.64
607.50	53775.56
607.70	54129.86
607.90	53871.82
608.09	54240.45
608.29	53869.77
608.49	54076.61
608.68	53810.38
608.88	53699.79
609.08	54160.58
609.28	54244.55
609.47	54369.47
609.67	54914.23
609.87	54297.80
610.06	54652.09
610.26	54836.41
610.46	54678.72
610.66	54238.40
610.85	54678.72
611.05	54271.17
611.25	54934.71
611.44	54566.08
611.64	54811.84
611.84	54697.15
612.03	54875.32
612.23	54912.19
612.43	54396.10
612.62	54852.80
612.82	54947.00
613.02	54953.15
613.21	54645.95
613.41	54879.42
613.61	55346.36
613.80	54260.93
614.00	55035.06
614.20	55262.39
614.39	54654.14
614.59	55270.58
614.79	55116.98
614.98	54619.33
615.18	55162.04
615.38	55485.62
615.57	54903.99
615.77	55362.74
615.97	55200.95
616.16	55329.97
616.36	55801.00
616.56	55354.55
616.75	55807.15
616.95	54994.10
617.15	55422.13
617.34	55502.00
617.54	55450.80
617.74	55708.85
617.93	55497.91
618.13	55317.68
618.32	55272.63
618.52	55354.55
618.72	55473.33
618.91	55397.55
619.11	55051.45
619.31	55346.36
619.50	55446.71
619.70	54990.01
619.90	55209.14
620.09	55653.55
620.29	55446.71
620.48	55092.41
620.68	55458.99
620.88	55268.53
621.07	55706.80
621.27	55739.57
621.46	55198.90
621.66	55366.84
621.86	55383.22
622.05	55358.64
622.25	55432.37
622.44	55196.85
622.64	55278.77
622.84	55936.17
623.03	55108.79
623.23	55694.51
623.42	55446.71
623.62	55266.48
623.82	55735.47
624.01	55336.12
624.21	55567.54
624.40	55637.17
624.60	55344.31
624.80	55508.14
624.99	55448.75
625.19	54969.53
625.38	54955.19
625.58	55358.64
625.77	55792.81
625.97	55639.22
626.17	55180.47
626.36	55071.93
626.56	55913.64
626.75	54598.85
626.95	55723.18
627.14	55209.14
627.34	55375.03
627.54	55286.96
627.73	55479.47
627.93	55491.76
628.12	55346.36
628.32	55368.88
628.51	55155.89
628.71	55014.58
628.90	55112.89
629.10	55762.09
629.30	55260.34
629.49	55469.23
629.69	55098.55
629.88	55303.35
630.08	55579.82
630.27	55719.09
630.47	55246.00
630.66	55006.39
630.86	56009.90
631.05	54926.52
631.25	55764.14
631.44	55280.82
631.64	55125.17
631.84	55078.07
632.03	55735.47
632.23	55035.06
632.42	55774.38
632.62	55055.54
632.81	55506.10
633.01	55569.58
633.20	55676.08
633.40	55321.78
633.59	55461.04
633.79	54760.64
633.98	55188.66
634.18	55473.33
634.37	55426.23
634.57	55178.42
634.76	55674.03
634.96	55477.43
635.15	55559.34
635.35	54846.65
635.54	54860.99
635.74	55033.02
635.93	55108.79
636.13	54998.20
636.32	55282.87
636.52	54908.09
636.71	55399.60
636.91	55297.20
637.10	55039.16
637.30	55123.13
637.49	55221.43
637.69	55317.68
637.88	55821.48
638.08	54629.57
638.27	55303.35
638.46	55225.53
638.66	55295.16
638.85	55184.57
639.05	55096.50
639.24	55475.38
639.44	54441.15
639.63	55037.11
639.83	54947.00
640.02	54967.48
640.22	55262.39
640.41	55401.65
640.61	54809.79
640.80	54883.51
640.99	55209.14
641.19	55555.25
641.38	55137.46
641.58	54555.84
641.77	55153.85
641.97	54903.99
642.16	55415.99
642.36	55121.08
642.55	55319.73
642.74	54920.38
642.94	55413.94
643.13	54688.96
643.33	55510.19
643.52	55358.64
643.72	55358.64
643.91	55100.60
644.10	55508.14
644.30	55393.46
644.49	55653.55
644.69	55366.84
644.88	55129.27
645.08	55063.74
645.27	55155.89
645.46	54908.09
645.66	55534.77
645.85	55114.94
646.05	55143.61
646.24	55022.78
646.43	55309.49
646.63	55119.03
646.82	55372.98
647.02	55764.14
647.21	55266.48
647.40	55092.41
647.60	55219.38
647.79	55526.58
647.99	55370.93
648.18	55051.45
648.37	55841.96
648.57	55745.71
648.76	55641.26
648.96	54899.90
649.15	55682.22
649.34	55239.86
649.54	55264.44
649.73	54992.06
649.92	55338.16
650.12	55415.99
650.31	55704.75
650.51	55004.34
650.70	55145.65
650.89	55123.13
651.09	55815.34
651.28	55491.76
651.47	55418.03
651.67	55657.65
651.86	55907.50
652.06	55088.31
652.25	55149.75
652.44	54903.99
652.64	55108.79
652.83	55227.57
653.02	54742.20
653.22	54926.52
653.41	55094.46
653.60	55254.20
653.80	55112.89
653.99	55182.52
654.18	55002.30
654.38	55184.57
654.57	55248.05
654.76	55233.72
654.96	54873.27
655.15	55319.73
655.34	55309.49
655.54	55002.30
655.73	55436.47
655.92	55305.40
656.12	55196.85
656.31	55424.18
656.50	55303.35
656.70	55235.77
656.89	54895.80
657.08	55170.23
657.28	55041.21
657.47	55067.83
657.66	55203.00
657.86	55196.85
658.05	55297.20
658.24	55325.88
658.43	55311.54
658.63	55278.77
658.82	55614.64
659.01	55311.54
659.21	55889.07
659.40	55639.22
659.59	55000.25
659.79	55565.49
659.98	55512.24
660.17	55899.31
660.36	55461.04
660.56	55346.36
660.75	55411.89
660.94	55442.61
661.14	55774.38
661.33	55604.40
661.52	55207.09
661.71	55792.81
661.91	55311.54
662.10	55090.36
662.29	55174.33
662.49	55411.89
662.68	55198.90
662.87	55438.51
663.06	55340.21
663.26	55645.36
663.45	55854.25
663.64	55305.40
663.83	55844.01
664.03	56036.52
664.22	55469.23
664.41	55669.93
664.60	55172.28
664.80	55307.44
664.99	55440.56
665.18	54832.32
665.37	55172.28
665.57	55448.75
665.76	55301.30
665.95	55418.03
666.14	55432.37
666.34	55350.45
666.53	55055.54
666.72	55420.08
666.91	55295.16
667.11	55190.71
667.30	55643.31
667.49	55110.84
667.68	55631.02
667.87	55395.51
668.07	56093.86
668.26	55055.54
668.45	55583.92
668.64	55364.79
668.84	56306.85
669.03	55458.99
669.22	54994.10
669.41	55618.74
669.60	55547.06
669.80	55626.93
669.99	56386.72
670.18	55557.30
670.37	55780.52
670.57	55770.28
670.76	55667.89
670.95	55874.73
671.14	56028.33
671.33	55196.85
671.53	55973.03
671.72	55659.69
671.91	55235.77
672.10	55121.08
672.29	55958.70
672.48	55084.22
672.68	55944.36
672.87	55485.62
673.06	55309.49
673.25	55348.40
673.44	55708.85
673.64	55489.71
673.83	55661.74
674.02	55551.15
674.21	55413.94
674.40	55698.61
674.59	55295.16
674.79	55293.11
674.98	55567.54
675.17	55680.17
675.36	55356.60
675.55	56022.19
675.74	55649.45
675.94	55714.99
676.13	55655.60
676.32	55727.28
676.51	55772.33
676.70	55991.47
676.89	55319.73
677.08	56112.30
677.28	56001.71
677.47	55866.54
677.66	56118.44
677.85	55989.42
678.04	55661.74
678.23	56202.41
678.42	55923.88
678.62	55721.13
678.81	55899.31
679.00	55833.77
679.19	55964.84
679.38	55884.97
679.57	55538.86
679.76	56063.14
679.96	56046.76
680.15	56120.49
680.34	55602.35
680.53	55438.51
680.72	55983.27
680.91	56048.81
681.10	55899.31
681.29	55925.93
681.48	55616.69
681.68	56390.82
681.87	55624.88
682.06	55801.00
682.25	55753.90
682.44	55628.98
682.63	56128.68
682.82	55508.14
683.01	55776.43
683.20	55256.24
683.39	55813.29
683.59	55856.30
683.78	55456.95
683.97	56048.81
684.16	56145.06
684.35	55674.03
684.54	55600.30
684.73	55891.12
684.92	55057.59
685.11	55467.19
685.30	55606.45
685.49	55456.95
685.69	55444.66
685.88	55927.98
686.07	55811.24
686.26	55686.32
686.45	55930.03
686.64	56120.49
686.83	55540.91
687.02	55733.42
687.21	55966.89
687.40	55696.56
687.59	55579.82
687.78	55493.81
687.97	55964.84
688.16	55776.43
688.35	55651.50
688.54	55694.51
688.74	55491.76
688.93	55647.41
689.12	55684.27
689.31	55616.69
689.50	55764.14
689.69	55344.31
689.88	55409.84
690.07	55817.39
690.26	55930.03
690.45	55614.64
690.64	55780.52
690.83	55346.36
691.02	55301.30
691.21	55735.47
691.40	55770.28
691.59	55899.31
691.78	55370.93
691.97	55592.11
692.16	55602.35
692.35	55606.45
692.54	55893.16
692.73	55932.07
692.92	55395.51
693.11	55588.02
693.30	55368.88
693.49	55835.82
693.68	55684.27
693.87	55444.66
694.06	55485.62
694.25	55325.88
694.44	54842.56
694.63	55389.36
694.82	55663.79
695.01	55514.29
695.20	55174.33
695.39	54926.52
695.58	55643.31
695.77	54822.08
695.96	55499.95
696.15	55203.00
696.34	55266.48
696.53	55119.03
696.72	55276.72
696.91	54990.01
697.10	55260.34
697.29	54756.54
697.48	55526.58
697.67	55104.70
697.86	54650.05
698.05	54926.52
698.24	55477.43
698.43	54877.37
698.62	55106.74
698.81	54654.14
699.00	55096.50
699.19	54639.81
699.38	54576.32
699.57	54547.65
699.76	54875.32
699.95	54987.96
700.14	54727.87
700.32	54400.19
700.51	54699.20
700.70	54729.92
700.89	55059.64
701.08	54998.20
701.27	54838.46
701.46	54903.99
701.65	54191.30
701.84	54947.00
702.03	54766.78
702.22	54860.99
702.41	54635.71
702.60	54545.60
702.79	54846.65
702.98	53957.83
703.17	54287.56
703.35	53992.65
703.54	54402.24
703.73	54719.68
703.92	54189.25
704.11	54686.91
704.30	54269.12
704.49	54504.64
704.68	54125.77
704.87	54459.58
705.06	53949.64
705.25	54709.44
705.43	54193.35
705.62	54545.60
705.81	54260.93
706.00	54158.53
706.19	54011.08
706.38	53554.38
706.57	54424.77
706.76	54232.26
706.95	54158.53
707.14	53882.06
707.32	53644.49
707.51	53896.39
707.70	53861.58
707.89	53642.45
708.08	53834.95
708.27	54009.03
708.46	53888.20
708.65	53535.95
708.84	54228.16
709.02	53638.35
709.21	53972.17
709.40	53845.19
709.59	53779.66
709.78	53400.79
709.97	53994.70
710.16	53839.05
710.34	53597.39
710.53	53378.26
710.72	53200.08
710.91	53431.50
711.10	53542.10
711.29	53519.57
711.48	53228.76
711.66	53187.80
711.85	53171.41
712.04	53288.15
712.23	53236.95
712.42	53282.00
712.61	53425.36
712.80	53034.20
712.98	53279.96
713.17	52804.83
713.36	52860.12
713.55	52706.52
713.74	52712.67
713.93	53236.95
714.11	52841.69
714.30	52651.23
714.49	52983.00
714.68	52929.75
714.87	52569.31
715.06	52862.17
715.24	52722.91
715.43	53062.87
715.62	52159.72
715.81	52196.58
716.00	52616.41
716.18	51832.04
716.37	52444.38
716.56	52069.61
716.75	52321.51
716.94	52145.38
717.12	51885.29
717.31	52532.45
717.50	51748.07
717.69	52063.46
717.88	51926.25
718.06	51811.56
718.25	52040.93
718.44	51604.72
718.63	51885.29
718.82	51713.26
719.00	51287.28
719.19	51492.08
719.38	51660.01
719.57	51031.29
719.76	50914.55
719.94	51234.03
720.13	50990.33
720.32	51291.38
720.51	51234.03
720.69	51373.30
720.88	50535.68
721.07	51111.16
721.26	50365.70
721.44	50480.38
721.63	50402.56
721.82	50511.10
722.01	50318.59
722.20	50453.76
722.38	50388.22
722.57	50083.08
722.76	50380.03
722.95	50199.81
723.13	50033.92
723.32	50029.83
723.51	49790.22
723.70	49313.04
723.88	49566.99
724.07	49411.34
724.26	49409.29
724.44	49325.33
724.63	50044.16
724.82	49872.14
725.01	49542.41
725.19	49120.53
725.38	49704.20
725.57	49356.05
725.76	49790.22
725.94	49055.00
726.13	48794.90
726.32	49483.02
726.51	49073.43
726.69	49306.90
726.88	49560.84
727.07	49243.41
727.25	49003.80
727.44	49354.00
727.63	49050.90
727.82	49128.72
728.00	49163.54
728.19	48919.83
728.38	49392.91
728.56	48549.15
728.75	48811.29
728.94	48741.66
729.12	48897.30
729.31	48620.83
729.50	48751.90
729.69	49011.99
729.87	49063.19
730.06	48755.99
730.25	48588.06
730.43	48952.60
730.62	48497.95
730.81	48698.65
730.99	48207.14
731.18	48381.21
731.37	48672.03
731.55	48817.43
731.74	48801.05
731.93	48725.27
732.11	48741.66
732.30	48452.89
732.49	48440.60
732.67	48510.24
732.86	48307.49
733.05	48260.38
733.23	48274.72
733.42	48332.06
733.61	47912.23
733.79	48137.51
733.98	47977.76
734.17	48057.63
734.35	47920.42
734.54	48119.07
734.73	48422.17
734.91	48461.08
735.10	47709.48
735.29	48190.75
735.47	47535.40
735.66	47662.38
735.84	48002.34
736.03	47611.18
736.22	48430.36
736.40	47580.46
736.59	47779.11
736.78	47664.42
736.96	47689.00
737.15	47693.10
737.33	47510.83
737.52	48047.39
737.71	47437.10
737.89	47652.14
738.08	46998.83
738.27	47158.58
738.45	47990.05
738.64	47689.00
738.82	47381.80
739.01	47426.86
739.20	47230.26
739.38	47465.77
739.57	46974.26
739.75	47207.73
739.94	46527.80
740.13	47557.93
740.31	46861.62
740.50	46869.81
740.68	47103.28
740.87	47004.98
741.06	47121.71
741.24	46781.75
741.43	46579.00
741.61	46820.66
741.80	46615.86
741.99	46710.07
742.17	46419.26
742.36	46878.00
742.54	46533.95
742.73	46724.41
742.91	46509.37
743.10	46425.40
743.29	46761.27
743.47	46636.34
743.66	46169.41
743.84	46210.37
744.03	46632.25
744.21	45978.95
744.40	46454.08
744.59	46140.74
744.77	46157.12
744.96	45759.81
745.14	45700.42
745.33	46107.97
745.51	45901.12
745.70	46216.51
745.88	45309.26
746.07	45755.72
746.26	45378.89
746.44	45897.03
746.63	45757.77
746.81	46024.00
747.00	45626.70
747.18	45831.49
747.37	45493.58
747.55	45571.40
747.74	45411.66
747.92	45421.90
748.11	45217.10
748.29	45522.25
748.48	45399.37
748.66	45176.14
748.85	45126.99
749.03	45360.46
749.22	45432.14
749.41	44907.86
749.59	44991.83
749.78	44961.11
749.96	45126.99
750.15	45102.42
750.33	45040.98
750.52	44627.29
750.70	44746.07
750.89	44629.34
751.07	44864.85
751.26	44944.72
751.44	44510.55
751.63	44711.25
751.81	44316.00
752.00	44627.29
752.18	44528.98
752.37	44350.81
752.55	44322.14
752.74	44332.38
752.92	44215.65
753.10	44076.38
753.29	44397.91
753.47	44479.83
753.66	43808.10
753.84	44563.80
754.03	44004.70
754.21	44373.34
754.40	44379.48
754.58	43791.72
754.77	43949.41
754.95	43681.13
755.14	43728.23
755.32	43734.37
755.51	43689.32
755.69	43785.57
755.88	43380.07
756.06	43836.77
756.24	43461.99
756.43	43627.88
756.61	43681.13
756.80	43490.66
756.98	43490.66
757.17	43341.16
757.35	43521.38
757.54	43418.99
757.72	43541.86
757.90	43140.46
758.09	42921.33
758.27	43187.56
758.46	43027.82
758.64	42997.10
758.83	43562.34
759.01	43115.89
759.19	42790.26
759.38	42941.81
759.56	43171.18
759.75	42755.44
759.93	42476.92
760.12	42554.74
760.30	42825.07
760.48	42804.59
760.67	42536.31
760.85	42825.07
761.04	42868.08
761.22	43007.34
761.40	42761.59
761.59	42507.64
761.77	42335.61
761.96	42677.62
762.14	42288.51
762.32	42509.69
762.51	42429.82
762.69	42472.82
762.88	42587.51
763.06	42509.69
763.24	42182.01
763.43	42478.97
763.61	42581.37
763.80	42239.36
763.98	41958.78
764.16	42198.40
764.35	41928.06
764.53	41604.49
764.72	41620.87
764.90	41872.77
765.08	42085.76
765.27	41956.74
765.45	41373.06
765.63	41166.22
765.82	41444.74
766.00	41506.18
766.18	41493.89
766.37	41780.61
766.55	41174.41
766.74	41127.31
766.92	41227.66
767.10	41481.61
767.29	40953.23
767.47	40623.51
767.65	40973.71
767.84	40705.43
768.02	41119.12
768.20	41090.44
768.39	40924.56
768.57	41227.66
768.75	41063.82
768.94	41057.68
769.12	40664.47
769.30	40842.64
769.49	40623.51
769.67	40764.82
769.85	40185.24
770.04	40410.52
770.22	40080.80
770.40	40250.78
770.59	40691.09
770.77	40406.42
770.95	40742.29
771.14	40148.38
771.32	40123.80
771.50	40019.36
771.69	40375.70
771.87	40285.59
772.05	40082.84
772.24	40095.13
772.42	40197.53
772.60	39978.40
772.78	39927.20
772.97	39857.57
773.15	40295.83
773.33	39660.96
773.52	40166.81
773.70	40037.79
773.88	40056.22
774.07	39714.21
774.25	39656.87
774.43	40271.26
774.61	39962.01
774.80	40019.36
774.98	39863.71
775.16	39976.35
775.34	40015.26
775.53	39800.22
775.71	40394.14
775.89	40408.47
776.08	40062.36
776.26	40404.38
776.44	40097.18
776.62	40236.44
776.81	39949.73
776.99	39976.35
777.17	40121.76
777.35	40074.65
777.54	40338.84
777.72	40078.75
777.90	39941.53
778.08	40484.25
778.27	40177.05
778.45	40576.40
778.63	40494.49
778.81	40383.90
779.00	40899.98
779.18	40433.05
779.36	40895.89
779.54	40867.22
779.73	40478.10
779.91	40801.68
780.09	40367.51
780.27	40775.06
780.46	40736.15
780.64	41098.64
780.82	40607.12
781.00	40697.24
781.19	40730.00
781.37	40670.61
781.55	40992.14
781.73	41692.55
781.91	40922.51
782.10	40748.43
782.28	40844.69
782.46	41072.01
782.64	41411.98
782.82	40854.93
783.01	41022.86
783.19	41096.59
783.37	40877.46
783.55	40996.24
783.74	41561.48
783.92	41035.15
784.10	41762.18
784.28	41280.91
784.46	41319.82
784.64	41041.29
784.83	40873.36
785.01	41766.27
785.19	40822.16
785.37	41977.22
785.55	41096.59
785.74	40711.57
785.92	40719.76
786.10	41233.80
786.28	41289.10
786.46	40727.95
786.64	40795.54
786.83	41237.90
787.01	41022.86
787.19	41305.48
787.37	40959.38
787.55	41358.73
787.74	40390.04
787.92	40969.61
788.10	40750.48
788.28	40422.81
788.46	40387.99
788.64	40656.28
788.82	40973.71
789.01	40502.68
789.19	40816.02
789.37	40373.66
789.55	40527.25
789.73	40385.94
789.91	40037.79
790.09	40420.76
790.28	40105.37
790.46	40218.01
790.64	40134.04
790.82	40121.76
791.00	40195.48
791.18	39769.51
791.36	39646.63
791.55	40084.89
791.73	39900.58
791.91	39687.59
792.09	39687.59
792.27	39538.08
792.45	39630.24
792.63	39978.40
792.81	39261.61
793.00	39239.08
793.18	39421.35
793.36	39603.62
793.54	39439.78
793.72	39548.32
793.90	39255.46
794.08	39165.35
794.26	39290.28
794.44	38882.73
794.62	38651.31
794.81	38907.31
794.99	38868.40
795.17	38485.43
795.35	38600.12
795.53	38827.44
795.71	38493.62
795.89	38524.34
796.07	38245.82
796.25	38188.47
796.43	38106.55
796.61	37991.87
796.80	37760.45
796.98	38057.40
797.16	37868.99
797.34	37668.29
797.52	37508.55
797.70	38055.36
797.88	37848.51
798.06	37606.85
798.24	37322.18
798.42	37426.63
798.60	36996.56
798.78	37461.44
798.96	37273.03
799.14	37307.85
799.32	37477.83
799.51	36591.06
799.69	37240.26
799.87	37144.01
800.05	36687.31
800.23	36758.99
800.41	36713.94
800.59	36963.79
800.77	36156.89
800.95	36308.44
801.13	36247.00
801.31	36519.38
801.49	36402.64
801.67	35886.56
801.85	35974.62
802.03	35775.97
802.21	36083.16
802.39	35933.66
802.57	35655.14
802.75	35411.43
802.93	35624.42
803.11	35550.69
803.29	35399.14
803.47	35425.76
803.65	35585.50
803.83	35177.96
804.01	35278.31
804.19	35036.65
804.37	34817.52
804.55	34878.96
804.73	35096.04
804.91	35085.80
805.09	34938.35
805.27	34756.08
805.45	35087.85
805.63	34854.38
805.81	34600.43
805.99	34778.61
806.17	34813.42
806.35	34469.36
806.53	34264.57
806.71	34459.12
806.89	34117.11
807.07	34328.05
807.25	34338.29
807.43	34209.27
807.61	34328.05
807.79	33973.75
807.97	33740.29
808.15	33768.96
808.33	33779.20
808.51	33728.00
808.69	33605.12
808.87	33426.95
809.05	33721.85
809.23	33193.48
809.41	33336.84
809.59	33340.93
809.77	33601.02
809.95	33166.85
810.13	33469.95
810.31	33435.14
810.49	33195.53
810.67	33222.15
810.84	33185.29
811.02	33015.30
811.20	32638.48
811.38	32890.38
811.56	32355.86
811.74	32685.58
811.92	32435.73
812.10	32591.37
812.28	32720.40
812.46	32521.74
812.64	32618.00
812.82	32486.93
813.00	32232.98
813.18	32355.86
813.36	32241.17
813.53	32019.99
813.71	31927.83
813.89	31700.51
814.07	31850.01
814.25	31860.25
814.43	31604.25
814.61	31471.14
814.79	31815.19
814.97	31612.45
815.15	31780.38
815.33	31321.63
815.50	31464.99
815.68	31303.20
815.86	31487.52
816.04	31215.14
816.22	31280.67
816.40	31211.04
816.58	31344.16
816.76	31069.73
816.94	31360.55
817.11	31077.93
817.29	31016.49
817.47	31137.32
817.65	30606.89
817.83	30664.24
818.01	30287.41
818.19	30393.90
818.37	30631.47
818.54	30600.75
818.72	30518.83
818.90	30477.87
819.08	30299.70
819.26	30623.28
819.44	30209.59
819.62	30189.11
819.80	30443.06
819.97	30621.23
820.15	30311.99
820.33	30158.39
820.51	30309.94
820.69	30062.13
820.87	30420.53
821.05	30524.97
821.22	29707.83
821.40	30135.86
821.58	29920.82
821.76	29916.73
821.94	29664.83
822.12	29967.93
822.29	29494.85
822.47	29296.19
822.65	29826.62
822.83	29441.60
823.01	29509.18
823.19	29570.62
823.36	29199.94
823.54	29060.68
823.72	29156.93
823.90	29183.55
824.08	29087.30
824.25	28945.99
824.43	28710.47
824.61	28989.00
824.79	29165.12
824.97	28825.16
825.15	29111.88
825.32	28753.48
825.50	28741.19
825.68	28933.70
825.86	28890.70
826.04	29001.29
826.21	28517.96
826.39	28675.66
826.57	28370.51
826.75	28350.03
826.93	28319.31
827.10	28429.90
827.28	28382.80
827.46	28395.09
827.64	28354.13
827.81	28188.24
827.99	28270.16
828.17	28089.94
828.35	27835.99
828.53	28008.02
828.70	28055.12
828.88	27862.61
829.06	27985.49
829.24	28358.22
829.41	28069.46
829.59	27901.53
829.77	27641.43
829.95	27508.32
830.12	27807.32
830.30	27874.90
830.48	27936.34
830.66	27778.65
830.84	27831.90
831.01	27627.10
831.19	27813.46
831.37	27395.68
831.55	27430.49
831.72	27532.89
831.90	27364.96
832.08	27575.90
832.25	27350.62
832.43	27391.58
832.61	27315.81
832.79	27203.17
832.96	27252.32
833.14	26943.08
833.32	27383.39
833.50	27156.07
833.67	27068.00
833.85	27045.48
834.03	26406.51
834.20	26971.75
834.38	26889.83
834.56	27014.76
834.74	26869.35
834.91	26934.88
835.09	26498.67
835.27	26363.50
835.44	26320.49
835.62	26510.96
835.80	26592.87
835.98	26537.58
836.15	26420.84
836.33	26492.52
836.51	26537.58
836.68	26459.76
836.86	26205.81
837.04	26269.30
837.21	26340.97
837.39	26414.70
837.57	26633.83
837.75	26265.20
837.92	25777.78
838.10	25835.13
838.28	25939.57
838.45	25871.99
838.63	25843.32
838.81	25937.52
838.98	25945.72
839.16	25747.06
839.34	25446.01
839.51	25966.20
839.69	25415.29
839.87	25394.81
840.04	25509.50
840.22	25812.60
840.40	25130.62
840.57	25251.45
840.75	25548.41
840.93	24989.31
841.10	25425.53
841.28	25433.72
841.46	25261.69
841.63	25501.31
841.81	25583.23
841.98	25077.38
842.16	25308.80
842.34	25454.20
842.51	24911.49
842.69	25482.88
842.87	25022.08
843.04	25220.74
843.22	25190.02
843.40	24827.53
843.57	25247.36
843.75	24936.07
843.92	24987.27
844.10	24794.76
844.28	24819.33
844.45	24839.81
844.63	24929.92
844.81	24612.49
844.98	24848.00
845.16	24454.79
845.33	24766.09
845.51	24309.39
845.69	24467.08
845.86	24526.47
846.04	24549.00
846.21	24653.45
846.39	24561.29
846.57	24213.13
846.74	24499.85
846.92	24141.46
847.09	24250.00
847.27	24139.41
847.45	24159.89
847.62	24413.84
847.80	24424.08
847.97	24452.75
848.15	23938.71
848.32	23912.08
848.50	23938.71
848.68	23543.45
848.85	23858.84
849.03	23643.80
849.20	23563.93
849.38	23781.01
849.56	23838.36
849.73	23561.88
849.91	23340.70
850.08	23709.33
850.26	23174.81
850.43	23453.34
850.61	23416.47
850.78	23283.36
850.96	23715.48
851.14	23203.49
851.31	23707.29
851.49	23389.85
851.66	22988.45
851.84	23389.85
852.01	23596.70
852.19	23219.87
852.36	23459.48
852.54	23078.56
852.71	23119.52
852.89	23164.57
853.07	22967.97
853.24	22892.19
853.42	22660.77
853.59	22929.06
853.77	23162.53
853.94	22781.60
854.12	23013.02
854.29	22949.54
854.47	22621.86
854.64	22879.91
854.82	22488.74
854.99	22974.11
855.17	22628.01
855.34	22838.95
855.52	22658.73
855.69	22744.74
855.87	22693.54
856.04	22218.41
856.22	22494.89
856.39	22046.38
856.57	22144.69
856.74	22544.04
856.92	22400.68
857.09	22111.92
857.27	22122.16
857.44	22320.81
857.62	22087.34
857.79	22175.41
857.97	22132.40
858.14	22169.26
858.32	22179.50
858.49	22122.16
858.67	22015.66
858.84	21968.56
859.02	21853.87
859.19	21970.61
859.37	21663.41
859.54	21784.24
859.72	21765.81
859.89	22077.10
860.06	21810.87
860.24	21446.33
860.41	21831.35
860.59	21444.28
860.76	21552.82
860.94	21221.05
861.11	21450.42
861.29	21540.54
861.46	21405.37
861.64	21251.77
861.81	21067.45
861.98	21442.23
862.16	21200.57
862.33	20971.20
862.51	20872.90
862.68	21456.57
862.86	21059.26
863.03	20971.20
863.21	21153.47
863.38	20987.58
863.55	20977.34
863.73	21055.17
863.90	20991.68
864.08	21159.61
864.25	20772.55
864.43	20793.03
864.60	20655.81
864.77	20715.20
864.95	20838.08
865.12	20571.85
865.30	20776.64
865.47	20766.40
865.64	20528.84
865.82	20545.22
865.99	20784.83
866.17	20410.06
866.34	20727.49
866.51	20295.37
866.69	20473.54
866.86	20528.84
867.04	20512.46
867.21	20262.60
867.38	20266.70
867.56	20203.21
867.73	20162.25
867.91	20164.30
868.08	20229.84
868.25	20061.90
868.43	20035.28
868.60	19947.22
868.78	19816.15
868.95	20289.23
869.12	20084.43
869.30	20031.18
869.47	19785.43
869.64	19625.68
869.82	19572.44
869.99	19957.46
870.16	19601.11
870.34	19726.04
870.51	19549.91
870.69	19597.01
870.86	19451.61
871.03	19554.01
871.21	19341.02
871.38	19525.33
871.55	19332.82
871.73	19068.64
871.90	19181.28
872.07	18990.81
872.25	19103.45
872.42	19283.67
872.59	19177.18
872.77	18800.35
872.94	18892.51
873.11	19039.97
873.29	18837.22
873.46	18925.28
873.63	18908.90
873.81	18773.73
873.98	18775.78
874.15	18892.51
874.33	18640.61
874.50	18489.06
874.67	18679.52
874.85	18601.70
875.02	18499.30
875.19	18554.60
875.37	18579.17
875.54	18218.73
875.71	18196.20
875.88	18357.99
876.06	18444.01
876.23	18517.73
876.40	18194.15
876.58	18364.14
876.75	17944.30
876.92	17997.55
877.10	18243.31
877.27	17913.58
877.44	17874.67
877.61	17708.79
877.79	18003.69
877.96	17721.07
878.13	17547.00
878.31	17809.14
878.48	17657.59
878.65	17784.56
878.82	17577.72
879.00	17694.45
879.17	17559.28
879.34	17442.55
879.51	17420.02
879.69	17424.12
879.86	17430.26
880.03	17534.71
880.21	17092.35
880.38	17467.13
880.55	17237.75
880.72	17229.56
880.90	17331.96
881.07	17336.06
881.24	17166.07
881.41	17299.19
881.59	17067.77
881.76	17262.33
881.93	16938.75
882.10	16789.25
882.28	16774.91
882.45	17153.79
882.62	17002.24
882.79	17026.81
882.96	16576.26
883.14	17247.99
883.31	16795.39
883.48	16811.78
883.65	16903.93
883.83	16981.76
884.00	16881.41
884.17	16854.78
884.34	16971.52
884.51	16705.28
884.69	16793.34
884.86	16680.71
885.03	16719.62
885.20	16420.61
885.38	16762.62
885.55	16666.37
885.72	16561.92
885.89	16334.60
886.06	16381.70
886.24	16346.89
886.41	16230.15
886.58	16606.98
886.75	16543.49
886.92	16094.99
887.10	16539.40
887.27	16355.08
887.44	16375.56
887.61	16576.26
887.78	16348.93
887.95	16596.74
888.13	16099.08
888.30	15916.81
888.47	16021.26
888.64	16099.08
888.81	16174.86
888.99	15941.39
889.16	16068.36
889.33	15912.72
889.50	15929.10
889.67	15789.84
889.84	15916.81
890.01	15828.75
890.19	16004.88
890.36	15953.68
890.53	15830.80
890.70	15660.82
890.87	15845.13
891.04	15621.91
891.22	15785.74
891.39	15652.63
891.56	15449.88
891.73	15304.47
891.90	15529.75
892.07	15374.10
892.24	15632.15
892.42	15220.50
892.59	15138.58
892.76	15327.00
892.93	15533.84
893.10	15648.53
893.27	15367.96
893.44	15234.84
893.61	15095.58
893.79	15259.42
893.96	15255.32
894.13	15040.28
894.30	15064.86
894.47	15281.94
894.64	15214.36
894.81	15177.50
894.98	15167.26
895.15	15216.41
895.33	15253.27
895.50	15150.87
895.67	15222.55
895.84	15202.07
896.01	14880.54
896.18	15187.74
896.35	15423.25
896.52	14866.21
896.69	15118.11
896.86	15005.47
897.04	15130.39
897.21	15109.91
897.38	14929.69
897.55	15077.15
897.72	15144.73
897.89	14911.26
898.06	14987.04
898.23	15126.30
898.40	14956.32
898.57	15044.38
898.74	14993.18
898.91	15015.71
899.08	15232.79
899.26	15025.95
899.43	15073.05
899.60	14956.32
899.77	15003.42
899.94	14819.10
900.11	14757.66
900.28	14894.88
900.45	14958.36
900.62	14833.44
900.79	14776.09
900.96	15046.43
901.13	14878.49
901.30	14819.10
901.47	14616.35
901.64	14995.23
901.81	14870.30
901.98	14845.73
902.15	14917.40
902.32	14769.95
902.49	14888.73
902.66	14903.07
902.83	14847.77
903.01	14700.32
903.18	14831.39
903.35	14915.36
903.52	14948.12
903.69	15009.56
903.86	14829.34
904.03	15007.52
904.20	14800.67
904.37	14980.89
904.54	14741.28
904.71	14690.08
904.88	14952.22
905.05	14653.22
905.22	14858.01
905.39	14759.71
905.56	14753.57
905.73	14774.05
905.90	14786.33
906.07	14927.64
906.24	14757.66
906.41	14989.08
906.58	14747.42
906.75	14987.04
906.92	14669.60
907.09	14946.08
907.26	14927.64
907.43	14735.14
907.60	14890.78
907.77	14798.62
907.93	15114.01
908.10	14874.40
908.27	14997.28
908.44	14528.29
908.61	14626.59
908.78	14815.01
908.95	14720.80
909.12	14581.54
909.29	14767.90
909.46	14683.94
909.63	14778.14
909.80	14649.12
909.97	14839.58
910.14	14501.67
910.31	14614.30
910.48	14585.63
910.65	14429.99
910.82	14495.52
910.99	14364.45
911.16	14395.17
911.33	14735.14
911.50	14337.83
911.66	14194.47
911.83	14675.74
912.00	14397.22
912.17	14389.03
912.34	14513.95
912.51	14155.56
912.68	14348.07
912.85	14313.25
913.02	14255.91
913.19	14364.45
913.36	14364.45
913.53	14247.72
913.70	14247.72
913.86	14561.06
914.03	14206.76
914.20	14169.90
914.37	14139.18
914.54	14173.99
914.71	13979.43
914.88	14018.35
915.05	13924.14
915.22	14040.87
915.39	13963.05
915.55	14028.59
915.72	13840.17
915.89	13786.93
916.06	13793.07
916.23	13715.25
916.40	13647.66
916.57	13741.87
916.74	13672.24
916.91	13821.74
917.07	13766.45
917.24	13532.98
917.41	13649.71
917.58	13655.86
917.75	13586.22
917.92	13481.78
918.09	13408.05
918.26	13541.17
918.42	13397.81
918.59	13315.89
918.76	13281.08
918.93	13061.94
919.10	13102.90
919.27	13117.24
919.44	13410.10
919.60	13279.03
919.77	13160.25
919.94	13147.96
920.11	13119.29
920.28	13233.97
920.45	13129.53
920.61	12715.84
920.78	13016.89
920.95	12920.63
921.12	12971.83
921.29	12775.23
921.46	12400.45
921.62	12465.99
921.79	12750.65
921.96	12441.41
922.13	12351.30
922.30	12367.68
922.47	12326.72
922.63	12472.13
922.80	12439.36
922.97	12171.08
923.14	12158.79
923.31	12318.53
923.47	11962.19
923.64	12513.09
923.81	12068.68
923.98	12148.55
924.15	12169.03
924.32	12177.22
924.48	12060.49
924.65	12119.88
924.82	11913.03
924.99	11769.68
925.15	11769.68
925.32	11910.99
925.49	11714.38
925.66	11501.39
925.83	11509.58
925.99	11384.66
926.16	11597.65
926.33	11667.28
926.50	11351.89
926.67	11460.43
926.83	11353.94
927.00	11317.08
927.17	11237.20
927.34	11214.68
927.50	11165.53
927.67	11362.13
927.84	11204.44
928.01	11206.48
928.17	10921.82
928.34	10950.49
928.51	11022.17
928.68	10903.39
928.84	10915.67
929.01	10635.10
929.18	10606.43
929.35	10792.80
929.51	10727.26
929.68	10612.57
929.85	10692.44
930.02	10442.59
930.18	10557.28
930.35	10420.06
930.52	10473.31
930.69	10663.77
930.85	10178.40
931.02	10221.41
931.19	10291.04
931.36	10229.60
931.52	10245.99
931.69	10354.53
931.86	10217.32
932.02	10022.76
932.19	10157.92
932.36	10174.31
932.53	9875.31
932.69	10059.62
932.86	10045.29
933.03	9881.45
933.19	9805.67
933.36	9734.00
933.53	9834.35
933.70	9705.32
933.86	9625.45
934.03	9690.99
934.20	9328.50
934.36	9389.94
934.53	9187.19
934.70	9072.50
934.86	9135.99
935.03	9039.73
935.20	8900.47
935.36	9041.78
935.53	8966.01
935.70	8912.76
935.86	8890.23
936.03	8695.68
936.20	8736.63
936.36	8611.71
936.53	8515.45
936.70	8351.62
936.86	8435.58
937.03	8357.76
937.20	8259.46
937.36	8216.45
937.53	7819.14
937.70	7989.13
937.86	7802.76
938.03	7769.99
938.20	7767.95
938.36	7765.90
938.53	7667.60
938.70	7464.85
938.86	7573.39
939.03	7387.02
939.20	7327.63
939.36	7204.75
939.53	7071.64
939.70	7380.88
939.86	6885.27
940.03	7016.34
940.19	6834.07
940.36	6793.11
940.53	6621.08
940.69	6668.19
940.86	6776.73
941.03	6549.40
941.19	6367.13
941.36	6340.51
941.52	6465.44
941.69	6447.01
941.86	6311.84
942.02	6100.90
942.19	6025.12
942.35	6084.52
942.52	5971.88
942.69	6059.94
942.85	5760.94
943.02	5957.54
943.18	5877.67
943.35	5777.32
943.52	5752.74
943.68	5719.98
943.85	5621.67
944.01	5730.22
944.18	5697.45
944.35	5648.30
944.51	5599.15
944.68	5566.38
944.84	5556.14
945.01	5500.84
945.17	5609.39
945.34	5425.07
945.51	5558.19
945.67	5435.31
945.84	5496.75
946.00	5306.29
946.17	5332.91
946.33	5259.18
946.50	5416.88
946.67	5273.52
946.83	5296.05
947.00	5474.22
947.16	5269.42
947.33	5271.47
947.49	5304.24
947.66	5296.05
947.82	5361.58
947.99	5382.06
948.16	5289.90
948.32	5347.25
948.49	5359.53
948.65	5382.06
948.82	5337.01
948.98	5289.90
949.15	5308.34
949.31	5402.54
949.48	5222.32
949.64	5250.99
949.81	5369.77
949.97	5197.74
950.14	5355.44
950.30	5296.05
950.47	5294.00
950.63	5302.19
950.80	5291.95
950.96	5359.53
951.13	5547.95
951.30	5328.81
951.46	5478.32
951.63	5572.52
951.79	5345.20
951.96	5337.01
952.12	5330.86
952.29	5277.62
952.45	5318.57
952.62	5427.12
952.78	5390.25
952.94	5347.25
953.11	5347.25
953.27	5228.46
953.44	5531.56
953.60	5519.28
953.77	5506.99
953.93	5443.50
954.10	5478.32
954.26	5535.66
954.43	5480.36
954.59	5498.80
954.76	5656.49
954.92	5523.37
955.09	5476.27
955.25	5431.21
955.42	5488.56
955.58	5629.87
955.75	5506.99
955.91	5445.55
956.07	5576.62
956.24	5656.49
956.40	5586.86
956.57	5719.98
956.73	5443.50
956.90	5523.37
957.06	5498.80
957.23	5382.06
957.39	5490.60
957.56	5537.71
957.72	5482.41
957.88	5443.50
958.05	5496.75
958.21	5535.66
958.38	5627.82
958.54	5545.90
958.71	5640.11
958.87	5488.56
959.03	5439.40
959.20	5531.56
959.36	5455.79
959.53	5504.94
959.69	5382.06
959.85	5597.10
960.02	5539.76
960.18	5496.75
960.35	5451.69
960.51	5506.99
960.68	5435.31
960.84	5394.35
961.00	5521.32
961.17	5453.74
961.33	5541.80
961.50	5554.09
961.66	5562.28
961.82	5550.00
961.99	5474.22
962.15	5435.31
962.31	5527.47
962.48	5455.79
962.64	5664.68
962.81	5457.84
962.97	5537.71
963.13	5509.04
963.30	5574.57
963.46	5433.26
963.62	5519.28
963.79	5414.83
963.95	5365.68
964.12	5427.12
964.28	5488.56
964.44	5375.92
964.61	5468.08
964.77	5535.66
964.93	5590.95
965.10	5541.80
965.26	5392.30
965.42	5482.41
965.59	5490.60
965.75	5306.29
965.92	5523.37
966.08	5429.17
966.24	5390.25
966.41	5285.81
966.57	5375.92
966.73	5416.88
966.90	5371.82
967.06	5343.15
967.22	5412.78
967.39	5363.63
967.55	5234.61
967.71	5320.62
967.88	5326.77
968.04	5269.42
968.20	5091.25
968.37	5107.63
968.53	5199.79
968.69	5281.71
968.85	5298.10
969.02	5341.10
969.18	5255.09
969.34	5136.31
969.51	5236.66
969.67	5191.60
969.83	5138.35
970.00	5296.05
970.16	5197.74
970.32	5115.83
970.48	5244.85
970.65	5171.12
970.81	5185.46
970.97	5060.53
971.14	5185.46
971.30	5224.37
971.46	5115.83
971.63	5035.96
971.79	5081.01
971.95	5183.41
972.11	4970.42
972.28	4995.00
972.44	5152.69
972.60	5050.29
972.76	5164.98
972.93	4872.12
973.09	5164.98
973.25	5064.63
973.42	4923.32
973.58	4972.47
973.74	4947.89
973.90	5070.77
974.07	4935.60
974.23	5007.28
974.39	4906.93
974.55	4874.17
974.72	4884.41
974.88	4913.08
975.04	5035.96
975.20	4925.36
975.37	4849.59
975.53	4800.44
975.69	4874.17
975.85	4827.06
976.01	4822.97
976.18	4833.21
976.34	4927.41
976.50	4970.42
976.66	4890.55
976.83	4722.62
976.99	4695.99
977.15	4759.48
977.31	4657.08
977.47	4698.04
977.64	4612.03
977.80	4779.96
977.96	4685.75
978.12	4698.04
978.29	4773.82
978.45	4595.64
978.61	4695.99
978.77	4675.51
978.93	4591.55
979.10	4687.80
979.26	4562.87
979.42	4544.44
979.58	4466.62
979.74	4622.27
979.91	4616.12
980.07	4503.48
980.23	4558.78
980.39	4538.30
980.55	4460.48
980.71	4483.00
980.88	4501.44
981.04	4523.96
981.20	4540.35
981.36	4556.73
981.52	4464.57
981.68	4310.97
981.85	4552.63
982.01	4474.81
982.17	4437.95
982.33	4343.74
982.49	4480.96
982.65	4325.31
982.82	4452.28
982.98	4315.07
983.14	4265.92
983.30	4517.82
983.46	4384.70
983.62	4308.93
983.79	4370.37
983.95	4165.57
984.11	4231.10
984.27	4224.96
984.43	4313.02
984.59	4335.55
984.75	4257.73
984.91	4265.92
985.08	4358.08
985.24	4220.86
985.40	4243.39
985.56	4181.95
985.72	4181.95
985.88	4198.34
986.04	4231.10
986.20	4155.33
986.37	4251.58
986.53	4100.03
986.69	4151.23
986.85	4106.18
987.01	4077.51
987.17	4016.07
987.33	4151.23
987.49	3960.77
987.65	4190.14
987.82	4120.51
987.98	4001.73
988.14	4104.13
988.30	4140.99
988.46	3985.35
988.62	3930.05
988.78	3956.68
988.94	4018.11
989.10	3876.80
989.26	3960.77
989.42	3862.47
989.59	3817.41
989.75	3801.03
989.91	3950.53
990.07	3739.59
990.23	3891.14
990.39	3790.79
990.55	3846.09
990.71	3721.16
990.87	3782.60
991.03	3817.41
991.19	3770.31
991.35	3809.22
991.51	3719.11
991.67	3858.37
991.83	3860.42
992.00	3715.02
992.16	3909.57
992.32	3784.65
992.48	3815.37
992.64	3680.20
992.80	3774.41
992.96	3755.97
993.12	3792.84
993.28	3772.36
993.44	3729.35
993.60	3794.89
993.76	3766.21
993.92	3792.84
994.08	3772.36
994.24	3710.92
994.40	3635.14
994.56	3717.06
994.72	3663.82
994.88	3731.40
995.04	3727.30
995.20	3567.56
995.36	3645.38
995.52	3659.72
995.68	3532.75
995.84	3573.71
996.00	3585.99
996.16	3542.99
996.32	3545.03
996.48	3473.36
996.64	3592.14
996.80	3454.92
996.96	3502.03
997.12	3579.85
997.28	3485.64
997.44	3411.92
997.60	3473.36
997.76	3424.20
997.92	3479.50
998.08	3430.35
998.24	3327.95
998.40	3530.70
998.56	3434.44
998.72	3399.63
998.88	3456.97
999.04	3256.27
999.20	3403.72
999.36	3332.05
999.52	3493.83
999.68	3360.72
999.84	3434.44
1000.00	3471.31
1000.16	3428.30
1000.32	3239.89
1000.48	3444.68
1000.64	3209.17
1000.80	3194.83
1000.95	3246.03
1001.11	3276.75
1001.27	3248.08
1001.43	3213.26
1001.59	3170.26
1001.75	3180.50
1001.91	3235.79
1002.07	3239.89
1002.23	3192.78
1002.39	3143.63
1002.55	3153.87
1002.71	3121.10
1002.87	3174.35
1003.03	3166.16
1003.19	3160.02
1003.34	3237.84
1003.50	3112.91
1003.66	3184.59
1003.82	3084.24
1003.98	3127.25
1004.14	3200.98
1004.30	3026.90
1004.46	3098.58
1004.62	3129.30
1004.78	3041.23
1004.94	3063.76
1005.09	3153.87
1005.25	3088.34
1005.41	3033.04
1005.57	3090.38
1005.73	3020.75
1005.89	2971.60
1006.05	3065.81
1006.21	3041.23
1006.37	2957.27
1006.52	2953.17
1006.68	2908.12
1006.84	3004.37
1007.00	2973.65
1007.16	2992.08
1007.32	3006.42
1007.48	2936.79
1007.64	2912.21
1007.79	2926.55
1007.95	2809.81
1008.11	3004.37
1008.27	2822.10
1008.43	2910.16
1008.59	2932.69
1008.75	2936.79
1008.91	2826.20
1009.06	2992.08
1009.22	2787.29
1009.38	2944.98
1009.54	2879.44
1009.70	2768.85
1009.86	2883.54
1010.01	2842.58
1010.17	2754.52
1010.33	2912.21
1010.49	2752.47
1010.65	2901.97
1010.81	2813.91
1010.96	2760.66
1011.12	2633.69
1011.28	2746.33
1011.44	2764.76
1011.60	2752.47
1011.76	2707.41
1011.91	2758.61
1012.07	2707.41
1012.23	2643.93
1012.39	2676.70
1012.55	2723.80
1012.71	2752.47
1012.86	2686.94
1013.02	2719.70
1013.18	2582.49
1013.34	2648.02
1013.50	2717.65
1013.65	2680.79
1013.81	2615.26
1013.97	2652.12
1014.13	2674.65
1014.29	2666.46
1014.44	2731.99
1014.60	2605.02
1014.76	2607.06
1014.92	2469.85
1015.07	2541.53
1015.23	2627.54
1015.39	2650.07
1015.55	2527.19
1015.71	2527.19
1015.86	2623.45
1016.02	2551.77
1016.18	2408.41
1016.34	2488.28
1016.49	2588.63
1016.65	2584.54
1016.81	2488.28
1016.97	2447.32
1017.12	2553.82
1017.28	2484.19
1017.44	2484.19
1017.60	2482.14
1017.75	2461.66
1017.91	2478.04
1018.07	2486.23
1018.23	2439.13
1018.38	2314.20
1018.54	2449.37
1018.70	2467.80
1018.86	2408.41
1019.01	2414.56
1019.17	2500.57
1019.33	2416.60
1019.49	2387.93
1019.64	2408.41
1019.80	2435.03
1019.96	2410.46
1020.12	2449.37
1020.27	2361.31
1020.43	2447.32
1020.59	2314.20
1020.74	2402.27
1020.90	2422.75
1021.06	2365.40
1021.22	2428.89
1021.37	2373.60
1021.53	2349.02
1021.69	2396.12
1021.84	2287.58
1022.00	2377.69
1022.16	2328.54
1022.31	2244.57
1022.47	2402.27
1022.63	2330.59
1022.79	2240.48
1022.94	2273.25
1023.10	2326.49
1023.26	2252.77
1023.41	2248.67
1023.57	2097.12
1023.73	2287.58
1023.88	2312.16
1024.04	2205.66
1024.20	2195.42
1024.35	2275.29
1024.51	2297.82
1024.67	2291.68
1024.82	2346.97
1024.98	2244.57
1025.14	2234.33
1025.29	2211.81
1025.45	2308.06
1025.61	2209.76
1025.76	2224.09
1025.92	2170.85
1026.08	2193.37
1026.23	2209.76
1026.39	2273.25
1026.55	2152.42
1026.70	2142.18
1026.86	2140.13
1027.02	2269.15
1027.17	2213.85
1027.33	2236.38
1027.48	2119.65
1027.64	2099.17
1027.80	2074.59
1027.95	2224.09
1028.11	2076.64
1028.27	2193.37
1028.42	2138.08
1028.58	2107.36
1028.73	2131.94
1028.89	2158.56
1029.05	2197.47
1029.20	2179.04
>>>>>End Processed Spectral Data<<<<<
