SpectraSuite Data File
++++++++++++++++++++++++++++++++++++
Date: Fri Jun 02 14:47:58 CEST 2017
User: INFO_000
Dark Spectrum Present: No
Reference Spectrum Present: No
Number of Sampled Component Spectra: 1
Spectrometers: USB4H00879
Integration Time (usec): 80000 (USB4H00879)
Spectra Averaged: 1 (USB4H00879)
Boxcar Smoothing: 0 (USB4H00879)
Correct for Electrical Dark: No (USB4H00879)
Strobe/Lamp Enabled: No (USB4H00879)
Correct for Detector Non-linearity: No (USB4H00879)
Correct for Stray Light: No (USB4H00879)
Number of Pixels in Processed Spectrum: 3648
>>>>>Begin Processed Spectral Data<<<<<
345.13	1275.88
345.34	1275.88
345.56	1275.88
345.78	1265.64
345.99	1312.75
346.21	1818.60
346.42	1744.87
346.64	1619.94
346.86	1722.34
347.07	1679.33
347.29	1708.01
347.50	1566.70
347.72	1740.77
347.94	1675.24
348.15	1544.17
348.37	1626.09
348.59	1761.25
348.80	1665.00
349.02	1748.97
349.23	1900.52
349.45	1789.92
349.67	1845.22
349.88	1808.36
350.10	1937.38
350.31	1863.65
350.53	1853.41
350.75	1923.04
350.96	1738.73
351.18	1898.47
351.39	1892.32
351.61	1880.04
351.82	1912.80
352.04	1802.21
352.26	1726.44
352.47	1890.28
352.69	1908.71
352.90	1769.44
353.12	1904.61
353.34	1779.68
353.55	1945.57
353.77	1884.13
353.98	1855.46
354.20	1773.54
354.41	1884.13
354.63	1961.95
354.85	2084.83
355.06	1877.99
355.28	1804.26
355.49	1861.60
355.71	1914.85
355.92	1902.56
356.14	1912.80
356.35	1908.71
356.57	1824.74
356.79	1894.37
357.00	1802.21
357.22	1970.15
357.43	1851.36
357.65	2031.58
357.86	1810.40
358.08	1880.04
358.29	1888.23
358.51	1920.99
358.72	1910.75
358.94	1949.67
359.16	1953.76
359.37	1916.90
359.59	1951.71
359.80	1961.95
360.02	1918.95
360.23	1951.71
360.45	2056.16
360.66	1994.72
360.88	1855.46
361.09	1941.47
361.31	1980.39
361.52	2002.91
361.74	1988.58
361.95	2152.42
362.17	1896.42
362.38	2107.36
362.60	2019.30
362.81	2015.20
363.03	1904.61
363.24	1970.15
363.46	2136.03
363.67	2017.25
363.89	1953.76
364.10	2056.16
364.32	1970.15
364.53	2033.63
364.75	1929.19
364.96	2041.82
365.18	2035.68
365.39	1976.29
365.61	1970.15
365.82	2088.93
366.04	1974.24
366.25	1898.47
366.47	2011.11
366.68	2033.63
366.90	1923.04
367.11	2068.45
367.33	2031.58
367.54	1968.10
367.76	2021.35
367.97	2152.42
368.19	2025.44
368.40	2056.16
368.62	1982.43
368.83	1898.47
369.05	2015.20
369.26	2043.87
369.48	2011.11
369.69	1986.53
369.91	2076.64
370.12	1988.58
370.33	2205.66
370.55	1925.09
370.76	2015.20
370.98	2158.56
371.19	2084.83
371.41	2021.35
371.62	2023.39
371.84	1990.63
372.05	2133.98
372.27	2043.87
372.48	2019.30
372.69	2074.59
372.91	2117.60
373.12	2181.09
373.34	2064.35
373.55	2123.74
373.77	2166.75
373.98	2072.54
374.20	2193.37
374.41	2176.99
374.62	2097.12
374.84	2070.50
375.05	2181.09
375.27	2181.09
375.48	2148.32
375.70	2164.70
375.91	2107.36
376.12	2260.96
376.34	2174.94
376.55	2115.55
376.77	2158.56
376.98	2076.64
377.19	2176.99
377.41	2138.08
377.62	2197.47
377.84	2215.90
378.05	2342.88
378.27	2273.25
378.48	2279.39
378.69	2410.46
378.91	2293.72
379.12	2299.87
379.34	2168.80
379.55	2303.96
379.76	2238.43
379.98	2275.29
380.19	2185.18
380.41	2246.62
380.62	2308.06
380.83	2236.38
381.05	2236.38
381.26	2414.56
381.47	2256.86
381.69	2318.30
381.90	2441.18
382.12	2215.90
382.33	2236.38
382.54	2322.40
382.76	2306.01
382.97	2363.36
383.19	2146.27
383.40	2416.60
383.61	2344.92
383.83	2207.71
384.04	2277.34
384.25	2406.36
384.47	2371.55
384.68	2340.83
384.89	2355.16
385.11	2316.25
385.32	2320.35
385.54	2330.59
385.75	2234.33
385.96	2371.55
386.18	2338.78
386.39	2537.43
386.60	2297.82
386.82	2389.98
387.03	2389.98
387.24	2439.13
387.46	2410.46
387.67	2453.47
387.88	2492.38
388.10	2508.76
388.31	2482.14
388.52	2580.44
388.74	2559.96
388.95	2496.47
389.16	2514.91
389.38	2543.58
389.59	2580.44
389.80	2645.98
390.02	2455.51
390.23	2566.10
390.44	2531.29
390.66	2557.91
390.87	2504.67
391.08	2547.67
391.30	2545.63
391.51	2545.63
391.72	2695.13
391.94	2637.78
392.15	2596.82
392.36	2557.91
392.58	2602.97
392.79	2650.07
393.00	2678.74
393.22	2650.07
393.43	2715.61
393.64	2748.37
393.85	2797.53
394.07	2666.46
394.28	2793.43
394.49	2848.72
394.71	2772.95
394.92	2844.63
395.13	2656.22
395.35	2740.18
395.56	2803.67
395.77	2686.94
395.98	2901.97
396.20	2832.34
396.41	2795.48
396.62	2787.29
396.84	2781.14
397.05	2793.43
397.26	2869.20
397.47	2887.64
397.69	2834.39
397.90	3022.80
398.11	2897.88
398.32	2824.15
398.54	2893.78
398.75	2887.64
398.96	2928.60
399.18	3100.62
399.39	2887.64
399.60	3055.57
399.81	3049.43
400.03	2908.12
400.24	3280.85
400.45	2879.44
400.66	3108.82
400.88	2942.93
401.09	3231.69
401.30	3002.32
401.51	3170.26
401.73	3211.22
401.94	3055.57
402.15	3153.87
402.36	3059.67
402.58	3225.55
402.79	3295.18
403.00	3153.87
403.21	3213.26
403.43	3139.54
403.64	3198.93
403.85	3153.87
404.06	3278.80
404.27	3172.30
404.49	3157.97
404.70	3133.39
404.91	3289.04
405.12	3319.76
405.34	3176.40
405.55	3403.72
405.76	3145.68
405.97	3276.75
406.19	3370.96
406.40	3198.93
406.61	3379.15
406.82	3346.38
407.03	3246.03
407.25	3186.64
407.46	3463.12
407.67	3346.38
407.88	3444.68
408.09	3286.99
408.31	3395.53
408.52	3428.30
408.73	3305.42
408.94	3325.90
409.15	3370.96
409.37	3579.85
409.58	3530.70
409.79	3389.39
410.00	3551.18
410.21	3370.96
410.43	3479.50
410.64	3491.79
410.85	3522.51
411.06	3555.27
411.27	3485.64
411.48	3590.09
411.70	3481.55
411.91	3665.86
412.12	3676.10
412.33	3575.75
412.54	3524.55
412.76	3585.99
412.97	3606.47
413.18	3440.59
413.39	3641.29
413.60	3641.29
413.81	3598.28
414.03	3575.75
414.24	3547.08
414.45	3880.90
414.66	3579.85
414.87	3622.86
415.08	3602.38
415.30	3624.90
415.51	3747.78
415.72	3792.84
415.93	3733.45
416.14	3735.50
416.35	3766.21
416.56	3674.06
416.78	3850.18
416.99	3786.69
417.20	3809.22
417.41	3979.20
417.62	3780.55
417.83	3876.80
418.04	3909.57
418.26	3850.18
418.47	3794.89
418.68	3925.96
418.89	4020.16
419.10	4095.94
419.31	3848.13
419.52	3958.72
419.73	3973.06
419.95	3999.68
420.16	3829.70
420.37	3911.62
420.58	4016.07
420.79	3882.95
421.00	4108.23
421.21	4149.18
421.42	3962.82
421.63	4130.75
421.85	4157.38
422.06	4159.42
422.27	4057.03
422.48	4155.33
422.69	4161.47
422.90	4190.14
423.11	4145.09
423.32	4308.93
423.53	4442.04
423.75	4251.58
423.96	4388.80
424.17	4388.80
424.38	4427.71
424.59	4390.84
424.80	4542.39
425.01	4444.09
425.22	4435.90
425.43	4345.79
425.64	4566.97
425.85	4526.01
426.06	4485.05
426.28	4511.68
426.49	4421.56
426.70	4474.81
426.91	4501.44
427.12	4661.18
427.33	4634.55
427.54	4587.45
427.75	4695.99
427.96	4796.34
428.17	4763.58
428.38	4773.82
428.59	4761.53
428.80	4822.97
429.01	4732.86
429.23	4769.72
429.44	4997.04
429.65	5005.24
429.86	4908.98
430.07	4847.54
430.28	4878.26
430.49	4958.13
430.70	5093.30
430.91	4984.76
431.12	4933.56
431.33	5162.93
431.54	5183.41
431.75	5091.25
431.96	5083.06
432.17	5107.63
432.38	5042.10
432.59	5363.63
432.80	5099.44
433.01	5289.90
433.22	5298.10
433.43	5300.14
433.64	5306.29
433.85	5152.69
434.06	5359.53
434.27	5285.81
434.49	5423.02
434.70	5568.43
434.91	5640.11
435.12	5433.26
435.33	5484.46
435.54	5595.05
435.75	5318.57
435.96	5480.36
436.17	5494.70
436.38	5468.08
436.59	5701.54
436.80	5535.66
437.01	5750.70
437.22	5679.02
437.43	5627.82
437.64	5476.27
437.85	5615.53
438.06	5795.75
438.27	5672.87
438.48	5652.39
438.69	5838.76
438.90	5775.27
439.11	5631.91
439.32	5859.24
439.53	5906.34
439.74	5887.91
439.95	5957.54
440.16	5918.63
440.37	5867.43
440.57	5722.02
440.78	6039.46
440.99	5898.15
441.20	6010.79
441.41	6068.13
441.62	5846.95
441.83	5908.39
442.04	6006.69
442.25	6053.80
442.46	6092.71
442.67	6264.74
442.88	6369.18
443.09	6012.84
443.30	6072.23
443.51	6111.14
443.72	6492.06
443.93	6068.13
444.14	6498.20
444.35	6156.19
444.56	6414.24
444.77	6287.26
444.98	6379.42
445.19	6322.08
445.40	6426.53
445.61	6371.23
445.81	6561.69
446.02	6440.86
446.23	6369.18
446.44	6401.95
446.65	6432.67
446.86	6606.75
447.07	6483.87
447.28	6608.80
447.49	6563.74
447.70	6467.49
447.91	6328.22
448.12	6543.26
448.33	6727.58
448.54	6772.63
448.74	6557.60
448.95	6709.15
449.16	6496.16
449.37	6926.23
449.58	6756.25
449.79	7020.44
450.00	6750.10
450.21	6807.45
450.42	6954.90
450.63	7028.63
450.84	6932.37
451.05	6784.92
451.25	6915.99
451.46	6774.68
451.67	7090.07
451.88	7128.98
452.09	7157.65
452.30	6909.85
452.51	6979.48
452.72	7110.55
452.93	7427.98
453.13	7073.68
453.34	7159.70
453.55	7301.01
453.76	7241.62
453.97	7430.03
454.18	7397.26
454.39	7405.46
454.60	7438.22
454.81	7477.13
455.01	7597.96
455.22	7249.81
455.43	7292.82
455.64	7800.71
455.85	7597.96
456.06	7841.67
456.27	7659.40
456.48	7663.50
456.68	7591.82
456.89	7757.71
457.10	8030.09
457.31	7894.92
457.52	7950.21
457.73	8032.13
457.94	8052.61
458.14	7911.30
458.35	8314.75
458.56	8019.85
458.77	8040.33
458.98	8112.00
459.19	8324.99
459.39	8324.99
459.60	8384.38
459.81	8249.22
460.02	8445.82
460.23	8279.94
460.44	8550.27
460.65	8695.68
460.85	8593.28
461.06	8761.21
461.27	8445.82
461.48	8691.58
461.69	8941.43
461.89	8585.08
462.10	8896.38
462.31	8630.14
462.52	8785.79
462.73	8884.09
462.94	8886.14
463.14	8777.59
463.35	9037.69
463.56	9308.02
463.77	9428.85
463.98	9148.28
464.18	9238.39
464.39	9389.94
464.60	9586.54
464.81	9621.36
465.02	9523.05
465.23	9660.27
465.43	9510.77
465.64	9725.80
465.85	9576.30
466.06	9437.04
466.27	9967.46
466.47	9924.46
466.68	10078.05
466.89	10022.76
467.10	10221.41
467.30	9785.19
467.51	10389.35
467.72	10323.81
467.93	10024.81
468.14	10286.95
468.34	10499.94
468.55	10565.47
468.76	10489.70
468.97	10544.99
469.17	10628.96
469.38	10647.39
469.59	11001.69
469.80	10882.91
470.01	10784.60
470.21	10821.47
470.42	11222.87
470.63	11165.53
470.84	11069.27
471.04	11200.34
471.25	11306.84
471.46	11384.66
471.67	11585.36
471.87	11630.41
472.08	11571.02
472.29	11886.41
472.50	11353.94
472.70	11624.27
472.91	11646.80
473.12	12066.63
473.33	12128.07
473.53	12156.74
473.74	11929.42
473.95	12283.72
474.16	12615.49
474.36	12349.25
474.57	12601.15
474.78	12578.62
474.99	12543.81
475.19	12285.76
475.40	12977.98
475.61	12965.69
475.81	13072.18
476.02	13334.32
476.23	13014.84
476.44	13176.63
476.64	13289.27
476.85	13508.40
477.06	13426.48
477.27	13698.86
477.47	13823.79
477.68	13451.06
477.89	13901.61
478.09	14067.50
478.30	13954.86
478.51	13944.62
478.71	14317.35
478.92	14452.52
479.13	14509.86
479.34	14493.47
479.54	14497.57
479.75	14587.68
479.96	14774.05
480.16	14688.03
480.37	14864.16
480.58	15099.67
480.78	15073.05
480.99	15296.28
481.20	15476.50
481.41	15470.36
481.61	15433.49
481.82	15607.57
482.03	15658.77
482.23	15499.03
482.44	16031.50
482.65	16185.10
482.85	16056.08
483.06	16031.50
483.27	16002.83
483.47	16264.97
483.68	16205.58
483.89	16516.87
484.09	16142.09
484.30	16533.25
484.51	16832.26
484.71	16680.71
484.92	16631.55
485.13	17000.19
485.33	16598.79
485.54	17151.74
485.75	17026.81
485.95	17311.48
486.16	17250.04
486.37	17657.59
486.57	17475.32
486.78	17549.04
486.98	17497.84
487.19	17430.26
487.40	17831.66
487.60	17719.03
487.81	17944.30
488.02	17975.02
488.22	17975.02
488.43	18102.00
488.64	18257.64
488.84	18278.12
489.05	18398.95
489.25	18491.11
489.46	18630.37
489.67	18407.14
489.87	18947.81
490.08	18663.14
490.29	19031.77
490.49	19386.07
490.70	19064.54
490.90	19502.81
491.11	19218.14
491.32	19304.15
491.52	19504.85
491.73	19306.20
491.94	19570.39
492.14	19566.29
492.35	20016.85
492.55	19955.41
492.76	20129.48
492.97	20158.16
493.17	20211.40
493.38	20068.05
493.58	20563.65
493.79	20365.00
494.00	20231.88
494.20	20401.86
494.41	20639.43
494.61	20571.85
494.82	20758.21
495.02	20698.82
495.23	20825.79
495.44	20717.25
495.64	21208.76
495.85	20983.49
496.05	21225.15
496.26	21141.18
496.47	21259.96
496.67	21536.44
496.88	21571.25
497.08	21558.97
497.29	21663.41
497.49	21655.22
497.70	21929.65
497.91	22046.38
498.11	22122.16
498.32	22001.33
498.52	22056.62
498.73	22558.38
498.93	22615.72
499.14	22662.82
499.34	22601.38
499.55	22693.54
499.76	22730.41
499.96	23010.98
500.17	22859.43
500.37	23058.08
500.58	22836.90
500.78	22974.11
500.99	23252.64
501.19	23338.65
501.40	23279.26
501.60	22838.95
501.81	23373.47
502.02	23281.31
502.22	23424.67
502.43	23703.19
502.63	23817.88
502.84	23795.35
503.04	23926.42
503.25	23875.22
503.45	23967.38
503.66	24245.90
503.86	23946.90
504.07	24483.47
504.27	24211.09
504.48	24739.46
504.68	24448.65
504.89	24602.25
505.09	24618.63
505.30	24387.21
505.50	24592.01
505.71	24878.72
505.91	24749.70
506.12	25038.47
506.32	24923.78
506.53	25091.71
506.73	25181.82
506.94	25128.58
507.14	25392.76
507.35	25224.83
507.55	25390.72
507.76	25554.55
507.96	25695.86
508.17	25771.64
508.37	25984.63
508.58	25335.42
508.78	25800.31
508.99	25800.31
509.19	25876.09
509.40	25884.28
509.60	25855.61
509.81	26185.33
510.01	25915.00
510.22	26203.76
510.42	26205.81
510.63	26416.75
510.83	26398.32
511.04	26218.10
511.24	26607.21
511.44	26699.37
511.65	26672.74
511.85	26576.49
512.06	26758.76
512.26	26807.91
512.47	27072.10
512.67	27174.50
512.88	26895.97
513.08	26922.60
513.29	27471.45
513.49	27510.36
513.69	27530.84
513.90	27481.69
514.10	27487.84
514.31	27666.01
514.51	27938.39
514.72	27532.89
514.92	27541.08
515.13	27840.09
515.33	27723.35
515.53	27721.30
515.74	27835.99
515.94	28044.88
516.15	28143.19
516.35	27907.67
516.56	28055.12
516.76	27915.86
516.96	28198.48
517.17	28208.72
517.37	28616.27
517.58	28415.57
517.78	28333.65
517.99	28472.91
518.19	28769.86
518.39	28487.25
518.60	28993.09
518.80	28794.44
519.01	28769.86
519.21	28911.17
519.41	29357.63
519.62	28984.90
519.82	29537.85
520.03	28831.30
520.23	29138.50
520.43	29109.83
520.64	29527.61
520.84	29654.59
521.05	29165.12
521.25	29767.23
521.45	29439.55
521.66	29734.46
521.86	29582.91
522.07	29720.12
522.27	29875.77
522.47	30070.33
522.68	30354.99
522.88	30211.64
523.08	30383.66
523.29	30436.91
523.49	30254.64
523.70	30254.64
523.90	30811.69
524.10	30619.18
524.31	30768.68
524.51	30647.85
524.71	31108.65
524.92	30674.48
525.12	31127.08
525.33	31194.66
525.53	31360.55
525.73	31075.88
525.94	31508.00
526.14	31497.76
526.34	31272.48
526.55	31378.98
526.75	31407.65
526.95	31886.87
527.16	31759.90
527.36	31753.76
527.56	31960.60
527.77	32132.63
527.97	31899.16
528.17	32181.78
528.38	32118.29
528.58	32171.54
528.78	32073.24
528.99	32214.55
529.19	32658.96
529.39	32206.36
529.60	32706.06
529.80	32642.57
530.00	32706.06
530.21	32716.30
530.41	33297.92
530.61	32910.86
530.82	32949.77
531.02	33099.27
531.22	33310.21
531.43	33242.63
531.63	33560.06
531.83	33658.37
532.04	33672.70
532.24	33428.99
532.44	33635.84
532.64	33781.24
532.85	34170.36
533.05	33732.09
533.25	34051.58
533.46	33869.31
533.66	34407.92
533.86	34078.20
534.07	34301.43
534.27	34043.38
534.47	34647.54
534.67	34821.61
534.88	34395.64
535.08	34442.74
535.28	34629.10
535.49	34751.98
535.69	35186.15
535.89	35292.65
536.09	35173.86
536.30	35038.70
536.50	35681.76
536.70	35726.81
536.91	35249.64
537.11	35452.39
537.31	35624.42
537.51	35487.20
537.72	35624.42
537.92	36138.46
538.12	36410.84
538.32	35681.76
538.53	36255.19
538.73	35915.23
538.93	35821.02
539.13	35837.41
539.34	36179.42
539.54	36136.41
539.74	36416.98
539.94	36177.37
540.15	36582.87
540.35	36468.18
540.55	36640.21
540.75	36845.01
540.96	36849.10
541.16	36718.03
541.36	36740.56
541.56	37076.43
541.77	37316.04
541.97	37193.16
542.17	37068.23
542.37	37621.19
542.58	37062.09
542.78	37547.46
542.98	37244.36
543.18	37885.37
543.38	37717.44
543.59	37821.89
543.79	37344.71
543.99	37680.58
544.19	37901.76
544.40	37598.66
544.60	38405.56
544.80	38057.40
545.00	38196.67
545.20	38448.57
545.41	37907.90
545.61	38081.98
545.81	38309.30
546.01	38966.70
546.21	38442.42
546.42	38194.62
546.62	38462.90
546.82	38694.32
547.02	38524.34
547.22	38995.37
547.43	38880.69
547.63	38628.79
547.83	39091.63
548.03	38675.89
548.23	39450.02
548.44	39167.40
548.64	39472.55
548.84	39148.97
549.04	39800.22
549.24	39466.41
549.45	39851.42
549.65	39521.70
549.85	39347.62
550.05	39847.33
550.25	39515.56
550.45	40068.51
550.66	39992.73
550.86	39779.74
551.06	40080.80
551.26	40088.99
551.46	40060.32
551.66	40097.18
551.87	40136.09
552.07	40289.69
552.27	40375.70
552.47	40508.82
552.67	40543.64
552.87	40535.45
553.07	40492.44
553.28	40641.94
553.48	41016.72
553.68	40453.53
553.88	41094.54
554.08	40924.56
554.28	40840.59
554.48	40754.58
554.69	40842.64
554.89	40691.09
555.09	41153.93
555.29	41133.45
555.49	41084.30
555.69	41088.40
555.89	41223.56
556.10	41278.86
556.30	41426.31
556.50	41643.40
556.70	41373.06
556.90	41323.91
557.10	41457.03
557.30	41334.15
557.50	41846.15
557.70	41749.89
557.91	42341.75
558.11	42075.52
558.31	42075.52
558.51	41883.01
558.71	42345.85
558.91	42444.15
559.11	42270.08
559.31	42349.95
559.51	42136.96
559.72	42341.75
559.92	42343.80
560.12	42440.06
560.32	42749.30
560.52	42341.75
560.72	42618.23
560.92	43095.41
561.12	42528.12
561.32	43533.67
561.52	42737.01
561.72	43369.83
561.93	42915.19
562.13	43214.19
562.33	42681.72
562.53	43365.74
562.73	43009.39
562.93	43079.02
563.13	43375.98
563.33	43451.75
563.53	43801.96
563.73	43193.71
563.93	43449.70
564.13	43586.92
564.33	43191.66
564.53	43521.38
564.74	43955.55
564.94	43242.86
565.14	43767.14
565.34	43857.25
565.54	43588.97
565.74	44033.38
565.94	44475.74
566.14	44060.00
566.34	43922.79
566.54	44784.98
566.74	44107.10
566.94	44404.06
567.14	44477.79
567.34	44074.34
567.54	44342.62
567.74	44217.69
567.94	44029.28
568.14	44553.56
568.34	44811.60
568.54	44479.83
568.74	44766.55
568.94	44569.94
569.14	45231.44
569.34	44916.05
569.54	44807.51
569.75	44627.29
569.95	44991.83
570.15	45323.60
570.35	45182.29
570.55	45038.93
570.75	45299.02
570.95	45333.84
571.15	45278.54
571.35	45270.35
571.55	45284.68
571.75	45270.35
571.95	45151.57
572.15	45446.47
572.35	45604.17
572.55	45636.94
572.75	45401.42
572.95	45706.57
573.15	46003.52
573.35	45770.05
573.55	45765.96
573.75	45651.27
573.95	45751.62
574.15	46083.39
574.35	45569.35
574.55	46097.73
574.75	45907.27
574.95	45876.55
575.15	46265.66
575.34	45978.95
575.54	46153.02
575.74	46298.43
575.94	46386.49
576.14	46284.09
576.34	46591.29
576.54	46583.10
576.74	46302.53
576.94	46445.88
577.14	46638.39
577.34	47035.70
577.54	46349.63
577.74	46835.00
577.94	46945.59
578.14	46910.77
578.34	46927.16
578.54	46517.56
578.74	46615.86
578.94	47011.12
579.14	46607.67
579.34	46959.92
579.54	46976.31
579.74	47553.83
579.94	46927.16
580.13	47451.44
580.33	47023.41
580.53	47408.43
580.73	47476.01
580.93	47584.55
581.13	47105.33
581.33	47545.64
581.53	47584.55
581.73	47566.12
581.93	47742.25
582.13	47721.77
582.33	47576.36
582.53	47822.12
582.73	48059.68
582.92	47539.50
583.12	48026.92
583.32	47502.64
583.52	47736.10
583.72	47998.24
583.92	47910.18
584.12	48200.99
584.32	48502.04
584.52	48241.95
584.72	48059.68
584.92	48665.88
585.11	48258.34
585.31	48270.62
585.51	48467.23
585.71	48252.19
585.91	48770.33
586.11	48182.56
586.31	48592.15
586.51	48452.89
586.71	48719.13
586.91	48842.01
587.10	48885.01
587.30	48786.71
587.50	48764.18
587.70	48901.40
587.90	49110.29
588.10	49040.66
588.30	48637.21
588.50	48858.39
588.69	48956.69
588.89	48885.01
589.09	49083.67
589.29	49349.90
589.49	49505.55
589.69	49257.74
589.89	49102.10
590.08	49354.00
590.28	49358.09
590.48	49091.86
590.68	49198.35
590.88	49065.24
591.08	48901.40
591.28	48973.08
591.47	49530.12
591.67	49501.45
591.87	49446.16
592.07	49517.84
592.27	49603.85
592.47	49661.19
592.67	49579.28
592.86	49429.77
593.06	49603.85
593.26	49433.87
593.46	49157.39
593.66	49665.29
593.86	49882.37
594.05	49452.30
594.25	50056.45
594.45	49587.47
594.65	49952.01
594.85	49476.88
595.05	49952.01
595.24	49906.95
595.44	49837.32
595.64	49841.42
595.84	50175.23
596.04	49935.62
596.23	49882.37
596.43	50296.06
596.63	50121.99
596.83	49976.58
597.03	50402.56
597.22	50705.66
597.42	49966.34
597.62	50773.24
597.82	50205.95
598.02	50164.99
598.21	50906.36
598.41	50468.09
598.61	50619.64
598.81	50427.13
599.01	50781.43
599.20	50668.79
599.40	50402.56
599.60	50722.04
599.80	50775.29
600.00	50787.58
600.19	51074.29
600.39	51274.99
600.59	51303.67
600.79	51248.37
600.98	50885.88
601.18	51223.79
601.38	50949.37
601.58	51299.57
601.78	51096.82
601.97	51213.55
602.17	51533.04
602.37	51401.97
602.57	51467.50
602.76	51512.56
602.96	51303.67
603.16	51688.68
603.36	51549.42
603.55	52092.13
603.75	51989.73
603.95	51803.37
604.15	51823.85
604.34	51504.37
604.54	51729.64
604.74	51696.88
604.94	52407.52
605.13	51959.02
605.33	52487.39
605.53	51981.54
605.73	52147.43
605.92	51786.99
606.12	52511.97
606.32	52440.29
606.52	52462.82
606.71	52329.70
606.91	52362.46
607.11	52237.54
607.30	52352.23
607.50	52419.81
607.70	52358.37
607.90	52364.51
608.09	52626.65
608.29	52421.86
608.49	52772.06
608.68	52450.53
608.88	52759.77
609.08	53081.30
609.28	52819.16
609.47	52585.69
609.67	53306.58
609.87	53216.47
610.06	53130.45
610.26	53034.20
610.46	53177.56
610.66	53239.00
610.85	53355.73
611.05	53036.25
611.25	53284.05
611.44	52878.55
611.64	53576.91
611.84	52974.81
612.03	53384.40
612.23	53187.80
612.43	53320.91
612.62	52616.41
612.82	53290.19
613.02	53345.49
613.21	53341.39
613.41	53077.21
613.61	53515.47
613.80	53269.72
614.00	53329.11
614.20	53507.28
614.39	53593.29
614.59	53779.66
614.79	53335.25
614.98	53490.90
615.18	53490.90
615.38	53746.89
615.57	53492.94
615.77	53626.06
615.97	53875.91
616.16	54158.53
616.36	53646.54
616.56	53884.11
616.75	53818.57
616.95	53615.82
617.15	54217.92
617.34	53691.60
617.54	53707.98
617.74	54086.85
617.93	54047.94
618.13	53654.73
618.32	53597.39
618.52	53662.93
618.72	53810.38
618.91	54375.62
619.11	53630.16
619.31	54113.48
619.50	53585.10
619.70	53892.30
619.90	54150.34
620.09	53886.15
620.29	53974.22
620.48	53963.98
620.68	54394.05
620.88	53673.16
621.07	53689.55
621.27	54308.04
621.46	53779.66
621.66	53818.57
621.86	54240.45
622.05	53908.68
622.25	54187.21
622.44	54004.94
622.64	53943.50
622.84	53933.26
623.03	54109.38
623.23	54043.85
623.42	54027.46
623.62	54363.33
623.82	54387.91
624.01	53931.21
624.21	54273.22
624.40	54193.35
624.60	54260.93
624.80	54420.67
624.99	54445.25
625.19	53859.53
625.38	54584.51
625.58	54826.17
625.77	54496.45
625.97	54430.91
626.17	54408.39
626.36	54668.48
626.56	54588.61
626.75	54246.60
626.95	54967.48
627.14	54285.51
627.34	54678.72
627.54	54301.89
627.73	54330.56
627.93	54484.16
628.12	54179.01
628.32	54715.58
628.51	54019.27
628.71	54531.26
628.90	54543.55
629.10	54351.04
629.30	54518.98
629.49	54598.85
629.69	54437.06
629.88	54777.02
630.08	54912.19
630.27	55227.57
630.47	54865.08
630.66	54860.99
630.86	54914.23
631.05	54990.01
631.25	55405.75
631.44	54713.53
631.64	54965.43
631.84	55112.89
632.03	55227.57
632.23	54996.15
632.42	55440.56
632.62	55465.14
632.81	55321.78
633.01	55082.17
633.20	55467.19
633.40	55641.26
633.59	55602.35
633.79	54885.56
633.98	54791.36
634.18	55424.18
634.37	55289.01
634.57	55225.53
634.76	55801.00
634.96	55647.41
635.15	55467.19
635.35	55194.81
635.54	55409.84
635.74	55905.45
635.93	55147.70
636.13	55768.24
636.32	55661.74
636.52	55411.89
636.71	55004.34
636.91	55821.48
637.10	55596.21
637.30	55319.73
637.49	55119.03
637.69	55481.52
637.88	56020.14
638.08	55303.35
638.27	55436.47
638.46	55762.09
638.66	55801.00
638.85	56261.80
639.05	56024.23
639.24	55647.41
639.44	55606.45
639.63	55864.49
639.83	56036.52
640.02	55721.13
640.22	55784.62
640.41	55874.73
640.61	55254.20
640.80	55868.59
640.99	55635.12
641.19	55864.49
641.38	56040.62
641.58	55934.12
641.77	55805.10
641.97	55981.23
642.16	55950.51
642.36	55968.94
642.55	56562.85
642.74	55841.96
642.94	56726.69
643.13	55770.28
643.33	56165.54
643.52	56714.40
643.72	56472.74
643.91	56175.78
644.10	56802.46
644.30	56478.88
644.49	56364.20
644.69	56216.74
644.88	56216.74
645.08	55870.64
645.27	56016.04
645.46	55858.35
645.66	56794.27
645.85	56173.73
646.05	56181.93
646.24	56581.28
646.43	56358.05
646.63	56495.27
646.82	56763.55
647.02	56431.78
647.21	56519.84
647.40	55930.03
647.60	56681.63
647.79	56452.26
647.99	56845.47
648.18	56554.66
648.37	56882.33
648.57	57132.18
648.76	56810.65
648.96	56726.69
649.15	56911.00
649.34	56652.96
649.54	56480.93
649.73	56792.22
649.92	56917.15
650.12	56857.76
650.31	56751.26
650.51	56824.99
650.70	56747.17
650.89	56947.87
651.09	57300.12
651.28	56538.27
651.47	57128.09
651.67	56652.96
651.86	57414.80
652.06	56734.88
652.25	56865.95
652.44	56511.65
652.64	56059.05
652.83	56896.67
653.02	56349.86
653.22	56771.74
653.41	56308.90
653.60	56562.85
653.80	56538.27
653.99	56685.73
654.18	56556.70
654.38	56853.66
654.57	56794.27
654.76	57040.03
654.96	56206.50
655.15	56761.50
655.34	56538.27
655.54	56491.17
655.73	57171.10
655.92	57162.90
656.12	57173.14
656.31	56407.20
656.50	56644.77
656.70	56941.72
656.89	56302.76
657.08	56599.71
657.28	56710.30
657.47	56513.70
657.66	56829.08
657.86	56702.11
658.05	56638.62
658.24	56626.34
658.43	56573.09
658.63	56804.51
658.82	56886.43
659.01	57021.59
659.21	56919.20
659.40	56716.45
659.59	57042.07
659.79	56960.15
659.98	56517.79
660.17	56976.54
660.36	56519.84
660.56	56706.21
660.75	56612.00
660.94	56833.18
661.14	57097.37
661.33	56356.00
661.52	56667.30
661.71	56759.45
661.91	56456.35
662.10	56775.84
662.29	56702.11
662.49	56370.34
662.68	56573.09
662.87	56657.06
663.06	56978.59
663.26	56489.12
663.45	57109.66
663.64	56276.13
663.83	56796.32
664.03	56476.83
664.22	56769.69
664.41	56591.52
664.60	56472.74
664.80	56687.78
664.99	56292.52
665.18	56136.87
665.37	56997.02
665.57	56587.42
665.76	56153.26
665.95	56421.54
666.14	56562.85
666.34	56364.20
666.53	56388.77
666.72	56503.46
666.91	56120.49
667.11	55706.80
667.30	56329.38
667.49	56224.93
667.68	56306.85
667.87	56149.16
668.07	56380.58
668.26	56194.21
668.45	56063.14
668.64	55852.20
668.84	56710.30
669.03	56046.76
669.22	56466.59
669.41	55887.02
669.60	55989.42
669.80	56126.63
669.99	56186.02
670.18	55977.13
670.37	56124.58
670.57	56269.99
670.76	55901.36
670.95	55829.68
671.14	56175.78
671.33	55473.33
671.53	56501.41
671.72	55819.44
671.91	55684.27
672.10	55743.66
672.29	55655.60
672.48	55686.32
672.68	55866.54
672.87	55600.30
673.06	55522.48
673.25	55614.64
673.44	55792.81
673.64	55547.06
673.83	55446.71
674.02	55758.00
674.21	55542.96
674.40	55796.91
674.59	55280.82
674.79	55303.35
674.98	55530.67
675.17	55825.58
675.36	55401.65
675.55	55510.19
675.74	55567.54
675.94	55637.17
676.13	55530.67
676.32	56007.85
676.51	55948.46
676.70	55454.90
676.89	55647.41
677.08	55739.57
677.28	55348.40
677.47	55819.44
677.66	55741.61
677.85	55041.21
678.04	55395.51
678.23	55610.54
678.42	55733.42
678.62	55307.44
678.81	55690.41
679.00	55409.84
679.19	55987.37
679.38	55661.74
679.57	54994.10
679.76	55377.08
679.96	55217.33
680.15	55448.75
680.34	55528.62
680.53	55125.17
680.72	55557.30
680.91	55311.54
681.10	55192.76
681.29	55266.48
681.48	54729.92
681.68	54863.03
681.87	55262.39
682.06	54985.91
682.25	54768.83
682.44	54908.09
682.63	55268.53
682.82	54396.10
683.01	55325.88
683.20	54420.67
683.39	55231.67
683.59	54891.71
683.78	55035.06
683.97	54856.89
684.16	54703.29
684.35	54518.98
684.54	55033.02
684.73	54531.26
684.92	54848.70
685.11	54779.07
685.30	54445.25
685.49	54772.92
685.69	54244.55
685.88	54482.11
686.07	54189.25
686.26	54377.67
686.45	54445.25
686.64	54604.99
686.83	54826.17
687.02	54066.38
687.21	54320.32
687.40	54703.29
687.59	54666.43
687.78	54369.47
687.97	54858.94
688.16	54400.19
688.35	54490.30
688.54	54303.94
688.74	54768.83
688.93	53957.83
689.12	54254.79
689.31	54449.35
689.50	54152.39
689.69	53880.01
689.88	54023.37
690.07	54254.79
690.26	54058.18
690.45	54467.78
690.64	53920.97
690.83	53888.20
691.02	53925.07
691.21	54129.86
691.40	54123.72
691.59	54195.40
691.78	53914.83
691.97	53974.22
692.16	53738.70
692.35	54269.12
692.54	53863.63
692.73	54027.46
692.92	54387.91
693.11	54039.75
693.30	54154.44
693.49	53957.83
693.68	53877.96
693.87	53777.61
694.06	53908.68
694.25	53605.58
694.44	53451.98
694.63	53677.26
694.82	53916.87
695.01	53257.43
695.20	53990.60
695.39	53214.42
695.58	53757.13
695.77	53474.51
695.96	52907.22
696.15	53826.76
696.34	53540.05
696.53	53492.94
696.72	53595.34
696.91	53339.35
697.10	53441.74
697.29	52890.84
697.48	54080.71
697.67	53181.65
697.86	53413.07
698.05	53292.24
698.24	53902.54
698.43	52997.34
698.62	53474.51
698.81	53175.51
699.00	53609.68
699.19	53269.72
699.38	53529.81
699.57	52968.66
699.76	53513.42
699.95	52968.66
700.14	53132.50
700.32	52860.12
700.51	53378.26
700.70	53521.62
700.89	53095.64
701.08	53613.77
701.27	53195.99
701.46	53273.81
701.65	52509.92
701.84	53161.17
702.03	53236.95
702.22	53253.33
702.41	52729.05
702.60	53441.74
702.79	52880.60
702.98	52794.59
703.17	53046.49
703.35	52884.70
703.54	52708.57
703.73	53322.96
703.92	53007.58
704.11	52985.05
704.30	52450.53
704.49	52960.47
704.68	52819.16
704.87	52448.48
705.06	52757.72
705.25	52835.55
705.43	52808.92
705.62	52684.00
705.81	52995.29
706.00	52917.46
706.19	52430.05
706.38	52743.39
706.57	52761.82
706.76	52837.59
706.95	52532.45
707.14	52647.13
707.32	52727.00
707.51	52352.23
707.70	52301.03
707.89	52835.55
708.08	52456.67
708.27	52454.62
708.46	52630.75
708.65	52178.15
708.84	52915.42
709.02	52688.09
709.21	52729.05
709.40	52215.01
709.59	53097.69
709.78	52462.82
709.97	52495.58
710.16	52454.62
710.34	52206.82
710.53	52888.79
710.72	51916.01
710.91	52362.46
711.10	52288.74
711.29	52624.60
711.48	52473.06
711.66	52245.73
711.85	51979.49
712.04	52419.81
712.23	51854.57
712.42	52391.14
712.61	51889.38
712.80	51946.73
712.98	52260.07
713.17	51846.38
713.36	51936.49
713.55	51918.06
713.74	52151.52
713.93	52346.08
714.11	51983.59
714.30	51907.82
714.49	51680.49
714.68	52049.13
714.87	51885.29
715.06	52454.62
715.24	51578.09
715.43	51639.53
715.62	51901.67
715.81	51569.90
716.00	51729.64
716.18	51371.25
716.37	51959.02
716.56	51553.52
716.75	51930.34
716.94	51281.14
717.12	51168.50
717.31	51860.71
717.50	51623.15
717.69	51338.48
717.88	51307.76
718.06	51633.39
718.25	51827.95
718.44	51332.34
718.63	51510.51
718.82	51012.85
719.00	51350.77
719.19	51090.68
719.38	51399.92
719.57	50853.11
719.76	50781.43
719.94	50640.12
720.13	51041.53
720.32	50683.13
720.51	50935.03
720.69	50578.68
720.88	50629.88
721.07	50842.87
721.26	49849.61
721.44	50844.92
721.63	49935.62
721.82	50431.23
722.01	50148.61
722.20	50423.04
722.38	50095.36
722.57	50121.99
722.76	50439.42
722.95	50205.95
723.13	50138.37
723.32	50081.03
723.51	50023.68
723.70	49919.24
723.88	49435.92
724.07	49550.60
724.26	49782.02
724.44	49384.72
724.63	50126.08
724.82	50128.13
725.01	49646.86
725.19	49681.67
725.38	49444.11
725.57	49354.00
725.76	49829.13
725.94	49575.18
726.13	49382.67
726.32	49476.88
726.51	49108.24
726.69	49964.29
726.88	49906.95
727.07	49720.59
727.25	49026.32
727.44	49626.38
727.63	49468.69
727.82	49243.41
728.00	49478.92
728.19	49523.98
728.38	49638.67
728.56	48895.25
728.75	49497.36
728.94	48971.03
729.12	49685.77
729.31	49739.02
729.50	49315.09
729.69	49321.23
729.87	48946.45
730.06	49386.77
730.25	49417.49
730.43	49806.60
730.62	49253.65
730.81	49329.42
730.99	49093.91
731.18	49425.68
731.37	48940.31
731.55	49134.87
731.74	49329.42
731.93	49413.39
732.11	49407.25
732.30	49470.73
732.49	48850.20
732.67	49126.67
732.86	49253.65
733.05	49595.66
733.23	48708.89
733.42	48811.29
733.61	49028.37
733.79	49028.37
733.98	49239.31
734.17	48624.92
734.35	48968.98
734.54	48938.26
734.73	49233.17
734.91	48968.98
735.10	48665.88
735.29	49220.88
735.47	48837.91
735.66	49042.71
735.84	48776.47
736.03	48428.32
736.22	49472.78
736.40	48592.15
736.59	48940.31
736.78	48346.40
736.96	48973.08
737.15	48780.57
737.33	48555.29
737.52	48166.18
737.71	48725.27
737.89	48796.95
738.08	48108.83
738.27	48264.48
738.45	49052.95
738.64	48354.59
738.82	48117.03
739.01	48600.35
739.20	48135.46
739.38	48284.96
739.57	48450.84
739.75	48510.24
739.94	48200.99
740.13	48225.57
740.31	48370.97
740.50	47981.86
740.68	48289.06
740.87	48375.07
741.06	48317.73
741.24	47963.43
741.43	47326.51
741.61	48203.04
741.80	47758.63
741.99	47889.70
742.17	47801.64
742.36	48063.78
742.54	47664.42
742.73	47572.27
742.91	47576.36
743.10	47701.29
743.29	48106.79
743.47	48084.26
743.66	47979.81
743.84	47951.14
744.03	47523.11
744.21	47590.70
744.40	48022.82
744.59	47521.07
744.77	47422.76
744.96	47469.87
745.14	47519.02
745.33	47424.81
745.51	47072.56
745.70	47457.58
745.88	47039.79
746.07	47076.66
746.26	46804.28
746.44	46740.79
746.63	46693.69
746.81	46486.84
747.00	46617.91
747.18	46935.35
747.37	46794.04
747.55	46579.00
747.74	47183.15
747.92	46316.86
748.11	46730.55
748.29	46419.26
748.48	46906.68
748.66	46437.69
748.85	46484.79
749.03	46482.75
749.22	46347.58
749.41	46120.26
749.59	46384.44
749.78	46007.62
749.96	45958.47
750.15	46134.59
750.33	46443.84
750.52	46089.54
750.70	46257.47
750.89	46069.06
751.07	45972.80
751.26	46273.85
751.44	46042.43
751.63	45831.49
751.81	45735.24
752.00	45225.29
752.18	45471.05
752.37	45710.66
752.55	45634.89
752.74	45389.13
752.92	45245.77
753.10	45636.94
753.29	45944.13
753.47	45192.53
753.66	44799.32
753.84	45499.72
754.03	45622.60
754.21	45178.19
754.40	45454.67
754.58	45344.08
754.77	45061.46
754.95	45262.16
755.14	45184.33
755.32	45155.66
755.51	44688.73
755.69	45204.81
755.88	44694.87
756.06	45319.50
756.24	44696.92
756.43	44789.08
756.61	44477.79
756.80	44459.35
756.98	44164.45
757.17	44567.90
757.35	44721.49
757.54	44557.66
757.72	44834.13
757.90	44197.21
758.09	44205.41
758.27	44037.47
758.46	44029.28
758.64	43994.46
758.83	44463.45
759.01	44055.90
759.19	43873.63
759.38	44103.01
759.56	44244.32
759.75	44172.64
759.93	44002.66
760.12	43595.11
760.30	43955.55
760.48	43523.43
760.67	43132.27
760.85	43775.33
761.04	43679.08
761.22	44135.77
761.40	43627.88
761.59	43640.17
761.77	43429.23
761.96	43201.90
762.14	43214.19
762.32	43357.55
762.51	43093.36
762.69	43455.85
762.88	43470.18
763.06	42950.00
763.24	43070.83
763.43	43402.60
763.61	42990.96
763.80	42618.23
763.98	42685.81
764.16	42894.71
764.35	42538.36
764.53	42161.53
764.72	42579.32
764.90	42667.38
765.08	42358.14
765.27	42571.13
765.45	42216.83
765.63	41926.02
765.82	42165.63
766.00	41956.74
766.18	42085.76
766.37	42239.36
766.55	42075.52
766.74	41936.26
766.92	41504.13
767.10	41692.55
767.29	41772.42
767.47	41346.44
767.65	41870.72
767.84	41543.05
768.02	41893.25
768.20	41049.49
768.39	41551.24
768.57	41258.38
768.75	41137.55
768.94	41422.22
769.12	40977.81
769.30	41293.19
769.49	41323.91
769.67	41043.34
769.85	40945.04
770.04	40879.50
770.22	40805.78
770.40	40682.90
770.59	40869.26
770.77	40775.06
770.95	41198.99
771.14	40574.36
771.32	40666.52
771.50	40408.47
771.69	40543.64
771.87	40695.19
772.05	40578.45
772.24	40408.47
772.42	40439.19
772.60	40168.86
772.78	40504.73
772.97	40226.20
773.15	40457.62
773.33	40211.87
773.52	40031.65
773.70	40443.29
773.88	40000.93
774.07	39777.70
774.25	40361.37
774.43	40510.87
774.61	39638.44
774.80	40191.39
774.98	40435.10
775.16	40263.07
775.34	40228.25
775.53	40074.65
775.71	40416.66
775.89	40441.24
776.08	39890.34
776.26	39839.14
776.44	40211.87
776.62	39925.15
776.81	39931.29
776.99	40463.77
777.17	39884.19
777.35	40363.42
777.54	40461.72
777.72	40166.81
777.90	40013.21
778.08	40566.16
778.27	40045.98
778.45	40641.94
778.63	40043.93
778.81	39843.23
779.00	40615.32
779.18	40344.98
779.36	40760.72
779.54	40580.50
779.73	39841.18
779.91	40875.41
780.09	40596.88
780.27	40535.45
780.46	40707.47
780.64	40517.01
780.82	40308.12
781.00	40431.00
781.19	40658.32
781.37	40852.88
781.55	40801.68
781.73	40955.28
781.91	40695.19
782.10	40697.24
782.28	40584.60
782.46	40801.68
782.64	40785.30
782.82	40465.81
783.01	40850.83
783.19	40758.67
783.37	40961.42
783.55	40482.20
783.74	41293.19
783.92	40801.68
784.10	41047.44
784.28	40805.78
784.46	40629.65
784.64	40641.94
784.83	40643.99
785.01	40750.48
785.19	40783.25
785.37	40734.10
785.55	41047.44
785.74	40363.42
785.92	40009.12
786.10	40631.70
786.28	40846.74
786.46	40525.21
786.64	40416.66
786.83	40474.01
787.01	40547.73
787.19	40609.17
787.37	40166.81
787.55	40314.26
787.74	39964.06
787.92	40117.66
788.10	40027.55
788.28	39857.57
788.46	40039.84
788.64	39845.28
788.82	40054.17
789.01	39964.06
789.19	40072.60
789.37	39884.19
789.55	39519.65
789.73	39308.71
789.91	39564.71
790.09	39364.01
790.28	39136.68
790.46	39286.18
790.64	39732.64
790.82	39282.09
791.00	39044.52
791.18	39159.21
791.36	39230.89
791.55	39251.37
791.73	39011.76
791.91	38464.95
792.09	38794.67
792.27	38815.15
792.45	38852.02
792.63	38915.50
792.81	38780.34
793.00	38583.73
793.18	38589.88
793.36	38870.45
793.54	38282.68
793.72	38264.25
793.90	38114.75
794.08	38180.28
794.26	38622.64
794.44	37537.22
794.62	37518.79
794.81	37989.82
794.99	37553.60
795.17	37821.89
795.35	37983.68
795.53	37766.59
795.71	37512.64
795.89	37359.05
796.07	37133.77
796.25	37404.10
796.43	37424.58
796.61	37531.08
796.80	37039.56
796.98	37221.83
797.16	36963.79
797.34	36787.66
797.52	36773.33
797.70	36910.54
797.88	36933.07
798.06	36705.74
798.24	36683.22
798.42	36318.68
798.60	36556.24
798.78	36255.19
798.96	36480.47
799.14	35837.41
799.32	35866.08
799.51	36079.07
799.69	35763.68
799.87	36031.96
800.05	35673.57
800.23	35874.27
800.41	35487.20
800.59	35698.14
800.77	35134.95
800.95	35313.13
801.13	35304.93
801.31	35210.73
801.49	35175.91
801.67	35083.75
801.85	35126.76
802.03	34420.21
802.21	34831.85
802.39	34563.57
802.57	34776.56
802.75	34246.13
802.93	34608.62
803.11	34280.95
803.29	34407.92
803.47	34350.58
803.65	34395.64
803.83	34641.39
804.01	34260.47
804.19	33826.30
804.37	33689.09
804.55	33918.46
804.73	33889.79
804.91	33879.55
805.09	34086.39
805.27	34037.24
805.45	33940.99
805.63	33601.02
805.81	33519.10
805.99	33523.20
806.17	33469.95
806.35	33236.48
806.53	33449.47
806.71	33254.92
806.89	33396.23
807.07	33015.30
807.25	33279.49
807.43	32822.80
807.61	33326.60
807.79	32869.90
807.97	32681.49
808.15	32859.66
808.33	32863.75
808.51	32632.33
808.69	32497.17
808.87	32480.78
809.05	32480.78
809.23	32425.49
809.41	32243.22
809.59	32425.49
809.77	32787.98
809.95	32472.59
810.13	32464.40
810.31	32310.80
810.49	32366.10
810.67	32185.88
810.84	32531.98
811.02	32003.61
811.20	31239.72
811.38	32030.23
811.56	31788.57
811.74	31579.68
811.92	31520.29
812.10	31596.06
812.28	31616.54
812.46	31665.69
812.64	31352.35
812.82	31198.76
813.00	31698.46
813.18	31051.30
813.36	31419.94
813.53	31002.15
813.71	31438.37
813.89	30987.82
814.07	30938.66
814.25	31110.69
814.43	30772.78
814.61	30803.50
814.79	30840.36
814.97	30668.33
815.15	30780.97
815.33	30533.17
815.50	30549.55
815.68	30641.71
815.86	30770.73
816.04	30461.49
816.22	30240.31
816.40	30389.81
816.58	30256.69
816.76	30123.57
816.94	30320.18
817.11	30125.62
817.29	30092.85
817.47	30070.33
817.65	30131.76
817.83	30254.64
818.01	29883.96
818.19	29630.01
818.37	29849.14
818.54	29836.86
818.72	29525.57
818.90	29974.07
819.08	29531.71
819.26	29611.58
819.44	29865.53
819.62	29384.26
819.80	29607.48
819.97	29423.17
820.15	29482.56
820.33	29132.36
820.51	29269.57
820.69	29259.33
820.87	29949.50
821.05	29875.77
821.22	29257.28
821.40	29210.18
821.58	29285.95
821.76	29075.01
821.94	29009.48
822.12	28993.09
822.29	29191.75
822.47	28636.75
822.65	28796.49
822.83	28829.26
823.01	28876.36
823.19	28837.45
823.36	28823.11
823.54	28841.54
823.72	28849.74
823.90	28855.88
824.08	28309.07
824.25	28556.88
824.43	28182.10
824.61	28206.67
824.79	28730.95
824.97	28483.15
825.15	28522.06
825.32	28202.58
825.50	28233.30
825.68	28108.37
825.86	28155.47
826.04	28307.02
826.21	28196.43
826.39	27965.01
826.57	27831.90
826.75	28243.54
826.93	27895.38
827.10	27702.87
827.28	27917.91
827.46	28325.46
827.64	27926.10
827.81	27536.99
827.99	27614.81
828.17	27813.46
828.35	27584.09
828.53	27719.26
828.70	27356.77
828.88	27491.93
829.06	27651.67
829.24	27684.44
829.41	27432.54
829.59	27481.69
829.77	27086.43
829.95	27049.57
830.12	27307.62
830.30	27289.18
830.48	27661.91
830.66	27354.72
830.84	27237.98
831.01	26885.73
831.19	26818.15
831.37	27098.72
831.55	26957.41
831.72	27137.63
831.90	26992.23
832.08	27201.12
832.25	26977.89
832.43	27117.15
832.61	26961.51
832.79	26703.46
832.96	26545.77
833.14	26850.92
833.32	27252.32
833.50	27111.01
833.67	26623.59
833.85	26930.79
834.03	26314.35
834.20	26707.56
834.38	26558.06
834.56	26576.49
834.74	26406.51
834.91	26662.51
835.09	26523.24
835.27	26513.00
835.44	26590.83
835.62	26222.19
835.80	26420.84
835.98	26265.20
836.15	26308.21
836.33	26170.99
836.51	26314.35
836.68	26146.42
836.86	26263.15
837.04	25982.58
837.21	26175.09
837.39	25939.57
837.57	26125.94
837.75	26291.82
837.92	25800.31
838.10	25757.30
838.28	25603.71
838.45	25906.80
838.63	25747.06
838.81	25550.46
838.98	25761.40
839.16	25523.83
839.34	25452.16
839.51	25767.54
839.69	25296.51
839.87	25335.42
840.04	25562.75
840.22	25804.41
840.40	25302.65
840.57	25368.19
840.75	25261.69
840.93	25056.90
841.10	25149.06
841.28	25667.19
841.46	25294.46
841.63	25454.20
841.81	25255.55
841.98	25247.36
842.16	25282.17
842.34	25177.73
842.51	25177.73
842.69	25415.29
842.87	25171.58
843.04	25171.58
843.22	24983.17
843.40	24854.15
843.57	25130.62
843.75	25149.06
843.92	25007.75
844.10	25226.88
844.28	24753.80
844.45	24979.07
844.63	25007.75
844.81	24807.05
844.98	24845.96
845.16	24616.58
845.33	24856.20
845.51	24958.60
845.69	24553.10
845.86	24424.08
846.04	24577.67
846.21	24526.47
846.39	24469.13
846.57	24258.19
846.74	24540.81
846.92	24114.83
847.09	24213.13
847.27	24125.07
847.45	24618.63
847.62	24235.66
847.80	24188.56
847.97	24428.17
848.15	24182.42
848.32	24374.92
848.50	24129.17
848.68	23946.90
848.85	23821.97
849.03	23752.34
849.20	24247.95
849.38	23854.74
849.56	23910.04
849.73	23645.85
849.91	23910.04
850.08	24075.92
850.26	23461.53
850.43	23594.65
850.61	23758.49
850.78	23539.35
850.96	23705.24
851.14	23670.42
851.31	23576.22
851.49	23641.75
851.66	23676.57
851.84	23598.74
852.01	23809.68
852.19	23797.40
852.36	23686.81
852.54	23723.67
852.71	23355.04
852.89	23420.57
853.07	23453.34
853.24	23000.74
853.42	23359.13
853.59	23209.63
853.77	23432.86
853.94	23369.37
854.12	23629.46
854.29	22906.53
854.47	23387.80
854.64	22841.00
854.82	23193.25
854.99	23238.30
855.17	22820.52
855.34	22812.32
855.52	22920.87
855.69	23004.83
855.87	22679.21
856.04	22437.55
856.22	22884.00
856.39	22822.56
856.57	22742.69
856.74	22632.10
856.92	22908.58
857.09	22605.48
857.27	22490.79
857.44	22920.87
857.62	22771.36
857.79	22701.73
857.97	22484.65
858.14	22431.40
858.32	22355.63
858.49	22412.97
858.67	22339.24
858.84	22455.98
859.02	22185.65
859.19	21880.50
859.37	21927.60
859.54	22314.67
859.72	22253.23
859.89	22394.54
860.06	22466.22
860.24	21946.03
860.41	22081.20
860.59	21847.73
860.76	21954.22
860.94	21939.89
861.11	21814.96
861.29	21835.44
861.46	21687.99
861.64	21667.51
861.81	21640.89
861.98	21943.99
862.16	21569.21
862.33	21446.33
862.51	21798.58
862.68	21544.63
862.86	21687.99
863.03	21489.34
863.21	21395.13
863.38	21839.54
863.55	21569.21
863.73	21536.44
863.90	21597.88
864.08	21505.72
864.25	21520.06
864.43	21384.89
864.60	21233.34
864.77	21305.02
864.95	21272.25
865.12	21094.08
865.30	21208.76
865.47	21333.69
865.64	20985.54
865.82	21243.58
865.99	21376.70
866.17	20993.73
866.34	20876.99
866.51	20491.98
866.69	21085.89
866.86	20930.24
867.04	20924.10
867.21	20698.82
867.38	20899.52
867.56	20881.09
867.73	20698.82
867.91	20623.05
868.08	20616.90
868.25	20369.10
868.43	20557.51
868.60	20526.79
868.78	20479.69
868.95	20649.67
869.12	20438.73
869.30	20491.98
869.47	20555.46
869.64	20084.43
869.82	20225.74
869.99	19961.55
870.16	20242.12
870.34	20014.80
870.51	20297.42
870.69	19685.08
870.86	20166.35
871.03	19951.31
871.21	19961.55
871.38	20027.09
871.55	19818.19
871.73	19848.91
871.90	19654.36
872.07	19566.29
872.25	19611.35
872.42	19705.56
872.59	19576.53
872.77	19392.22
872.94	19205.85
873.11	19443.42
873.29	19689.17
873.46	19500.76
873.63	19455.70
873.81	19373.78
873.98	18931.42
874.15	19109.60
874.33	18878.18
874.50	19044.06
874.67	19183.32
874.85	18984.67
875.02	19171.04
875.19	18833.12
875.37	19025.63
875.54	19050.21
875.71	18992.86
875.88	18663.14
876.06	18843.36
876.23	18661.09
876.40	18560.74
876.58	18712.29
876.75	18628.32
876.92	18515.69
877.10	18554.60
877.27	18431.72
877.44	18491.11
877.61	18118.38
877.79	18036.46
877.96	18468.58
878.13	18099.95
878.31	18009.84
878.48	17913.58
878.65	18142.96
878.82	18255.59
879.00	18192.11
879.17	18048.75
879.34	18050.80
879.51	17985.26
879.69	17706.74
879.86	17886.96
880.03	18001.65
880.21	17555.19
880.38	17633.01
880.55	17843.95
880.72	17680.11
880.90	17635.06
881.07	17426.17
881.24	17819.38
881.41	17483.51
881.59	17721.07
881.76	17729.27
881.93	17512.18
882.10	17229.56
882.28	17276.66
882.45	17372.92
882.62	17446.65
882.79	17385.21
882.96	17192.70
883.14	17204.99
883.31	17452.79
883.48	17346.30
883.65	17258.23
883.83	17317.62
884.00	17458.93
884.17	17133.31
884.34	17229.56
884.51	17047.29
884.69	17030.91
884.86	16858.88
885.03	17018.62
885.20	17135.35
885.38	16840.45
885.55	17047.29
885.72	16779.01
885.89	16989.95
886.06	16979.71
886.24	17139.45
886.41	16754.43
886.58	17164.03
886.75	17073.92
886.92	16649.99
887.10	16860.93
887.27	16717.57
887.44	16600.83
887.61	16791.30
887.78	16852.73
887.95	16631.55
888.13	16455.43
888.30	16527.11
888.47	16557.83
888.64	16578.31
888.81	16492.29
888.99	16256.78
889.16	16260.87
889.33	16463.62
889.50	16146.19
889.67	16160.52
889.84	16199.43
890.01	16176.91
890.19	16035.60
890.36	16117.51
890.53	16209.67
890.70	15914.77
890.87	16224.01
891.04	16035.60
891.22	15982.35
891.39	15826.70
891.56	15744.78
891.73	15853.33
891.90	15746.83
892.07	15619.86
892.24	15599.38
892.42	15865.61
892.59	15752.98
892.76	15560.47
892.93	15408.92
893.10	15931.15
893.27	15789.84
893.44	15593.23
893.61	15570.71
893.79	15705.87
893.96	15683.34
894.13	15488.79
894.30	15445.78
894.47	15580.95
894.64	15556.37
894.81	15390.49
894.98	15615.76
895.15	15576.85
895.33	15386.39
895.50	15357.72
895.67	15640.34
895.84	15245.08
896.01	15318.81
896.18	15152.92
896.35	15462.16
896.52	15488.79
896.69	15406.87
896.86	15431.44
897.04	15300.37
897.21	15273.75
897.38	15433.49
897.55	15390.49
897.72	15449.88
897.89	15327.00
898.06	15255.32
898.23	15331.09
898.40	15185.69
898.57	15576.85
898.74	15226.65
898.91	15091.48
899.08	15157.02
899.26	15144.73
899.43	15458.07
899.60	15267.61
899.77	15007.52
899.94	15066.91
900.11	14792.48
900.28	15128.35
900.45	15011.61
900.62	14933.79
900.79	15230.74
900.96	15150.87
901.13	15273.75
901.30	15050.52
901.47	14982.94
901.64	15058.71
901.81	15075.10
901.98	15124.25
902.15	15126.30
902.32	14810.91
902.49	14966.56
902.66	14984.99
902.83	15097.63
903.01	15148.82
903.18	15081.24
903.35	15077.15
903.52	14970.65
903.69	15124.25
903.86	15253.27
904.03	15152.92
904.20	15251.22
904.37	15214.36
904.54	15025.95
904.71	15083.29
904.88	14878.49
905.05	14796.57
905.22	14919.45
905.39	14970.65
905.56	15114.01
905.73	15052.57
905.90	14970.65
906.07	15009.56
906.24	14933.79
906.41	14853.92
906.58	15056.67
906.75	14792.48
906.92	14925.60
907.09	15097.63
907.26	14997.28
907.43	14767.90
907.60	14925.60
907.77	14931.74
907.93	14970.65
908.10	14903.07
908.27	14972.70
908.44	14597.92
908.61	14685.98
908.78	14866.21
908.95	14716.70
909.12	14939.93
909.29	14530.34
909.46	14917.40
909.63	14823.20
909.80	14710.56
909.97	14663.46
910.14	14706.46
910.31	14681.89
910.48	14632.74
910.65	14673.70
910.82	14481.19
910.99	14470.95
911.16	14679.84
911.33	14540.58
911.50	14649.12
911.66	14389.03
911.83	14667.55
912.00	14585.63
912.17	14329.64
912.34	14362.40
912.51	14429.99
912.68	14300.97
912.85	14378.79
913.02	14257.96
913.19	14264.10
913.36	14341.93
913.53	14180.14
913.70	14085.93
913.86	14350.12
914.03	14133.03
914.20	14286.63
914.37	14161.70
914.54	13956.91
914.71	14270.25
914.88	14026.54
915.05	14026.54
915.22	13993.77
915.39	14008.11
915.55	14077.74
915.72	14079.79
915.89	14053.16
916.06	13748.01
916.23	13623.09
916.40	13696.82
916.57	13764.40
916.74	13631.28
916.91	13664.05
917.07	13399.86
917.24	13686.58
917.41	13434.68
917.58	13510.45
917.75	13575.98
917.92	13074.23
918.09	13518.64
918.26	13475.63
918.42	13506.35
918.59	13348.66
918.76	13182.77
918.93	13092.66
919.10	13174.58
919.27	13408.05
919.44	13164.34
919.60	13381.43
919.77	13096.76
919.94	13037.37
920.11	12949.31
920.28	12844.86
920.45	13008.70
920.61	12797.76
920.78	12697.41
920.95	12838.72
921.12	12742.46
921.29	12666.69
921.46	12781.37
921.62	12379.97
921.79	12570.43
921.96	12447.55
922.13	12478.27
922.30	12336.96
922.47	12263.24
922.63	12322.63
922.80	12156.74
922.97	12121.93
923.14	12029.77
923.31	12314.44
923.47	11927.37
923.64	12226.37
923.81	11990.86
923.98	12238.66
924.15	12123.98
924.32	12033.86
924.48	11790.16
924.65	11939.66
924.82	11906.89
924.99	11718.48
925.15	11781.96
925.32	11657.04
925.49	11650.89
925.66	11509.58
925.83	11511.63
925.99	11577.17
926.16	11659.09
926.33	11319.12
926.50	11329.36
926.67	11478.86
926.83	11423.57
927.00	11261.78
927.17	11118.42
927.34	11071.32
927.50	11120.47
927.67	11206.48
927.84	11153.24
928.01	10977.11
928.17	10903.39
928.34	10934.11
928.51	10760.03
928.68	10843.99
928.84	10821.47
929.01	10600.29
929.18	10641.25
929.35	10508.13
929.51	10565.47
929.68	10340.19
929.85	10381.15
930.02	10391.39
930.18	10538.85
930.35	10415.97
930.52	10397.54
930.69	10211.17
930.85	10284.90
931.02	10276.71
931.19	10076.01
931.36	10190.69
931.52	10207.08
931.69	10149.73
931.86	9897.83
932.02	9914.22
932.19	9977.70
932.36	9766.76
932.53	9881.45
932.69	9793.39
932.86	9787.24
933.03	9760.62
933.19	9566.06
933.36	9666.41
933.53	9502.58
933.70	9424.75
933.86	9387.89
934.03	9320.31
934.20	9217.91
934.36	9293.68
934.53	8941.43
934.70	8972.15
934.86	9035.64
935.03	8910.71
935.20	8904.57
935.36	8822.65
935.53	8619.90
935.70	8630.14
935.86	8761.21
936.03	8535.93
936.20	8292.23
936.36	8310.66
936.53	8257.41
936.70	8226.69
936.86	8286.08
937.03	8167.30
937.20	7899.02
937.36	8161.16
937.53	7876.49
937.70	7722.89
937.86	7659.40
938.03	7712.65
938.20	7817.10
938.36	7561.10
938.53	7462.80
938.70	7284.62
938.86	7468.94
939.03	7260.05
939.20	7106.45
939.36	7225.23
939.53	7266.19
939.70	7255.95
939.86	6817.69
940.03	6813.59
940.19	6748.06
940.36	6707.10
940.53	6690.71
940.69	6526.88
940.86	6514.59
941.03	6473.63
941.19	6430.62
941.36	6496.16
941.52	6148.00
941.69	6057.89
941.86	6193.06
942.02	6109.09
942.19	5996.45
942.35	6031.27
942.52	6014.88
942.69	5926.82
942.85	5932.97
943.02	5869.48
943.18	5828.52
943.35	5758.89
943.52	5650.35
943.68	5582.76
943.85	5523.37
944.01	5523.37
944.18	5605.29
944.35	5533.61
944.51	5435.31
944.68	5351.34
944.84	5386.16
945.01	5253.04
945.17	5418.93
945.34	5291.95
945.51	5359.53
945.67	5326.77
945.84	5314.48
946.00	5136.31
946.17	5150.64
946.33	5271.47
946.50	5289.90
946.67	5253.04
946.83	5228.46
947.00	5365.68
947.16	5248.94
947.33	5160.88
947.49	5271.47
947.66	5089.20
947.82	5240.75
947.99	5351.34
948.16	5187.50
948.32	5175.22
948.49	5367.73
948.65	5238.70
948.82	5259.18
948.98	5234.61
949.15	5228.46
949.31	5255.09
949.48	5302.19
949.64	5121.97
949.81	5218.22
949.97	5124.02
950.14	5285.81
950.30	5179.31
950.47	5181.36
950.63	5226.42
950.80	5228.46
950.96	5179.31
951.13	5304.24
951.30	5236.66
951.46	5259.18
951.63	5418.93
951.79	5300.14
951.96	5449.64
952.12	5306.29
952.29	5246.90
952.45	5185.46
952.62	5257.14
952.78	5294.00
952.94	5269.42
953.11	5277.62
953.27	5345.20
953.44	5390.25
953.60	5232.56
953.77	5377.97
953.93	5334.96
954.10	5324.72
954.26	5296.05
954.43	5310.38
954.59	5400.49
954.76	5439.40
954.92	5322.67
955.09	5359.53
955.25	5316.53
955.42	5359.53
955.58	5482.41
955.75	5375.92
955.91	5357.49
956.07	5439.40
956.24	5402.54
956.40	5515.18
956.57	5562.28
956.73	5486.51
956.90	5529.52
957.06	5308.34
957.23	5369.77
957.39	5459.88
957.56	5375.92
957.72	5298.10
957.88	5371.82
958.05	5490.60
958.21	5554.09
958.38	5427.12
958.54	5414.83
958.71	5443.50
958.87	5359.53
959.03	5504.94
959.20	5543.85
959.36	5437.36
959.53	5437.36
959.69	5377.97
959.85	5480.36
960.02	5373.87
960.18	5361.58
960.35	5447.60
960.51	5451.69
960.68	5461.93
960.84	5406.64
961.00	5361.58
961.17	5535.66
961.33	5435.31
961.50	5363.63
961.66	5386.16
961.82	5369.77
961.99	5375.92
962.15	5388.21
962.31	5433.26
962.48	5322.67
962.64	5502.89
962.81	5459.88
962.97	5353.39
963.13	5472.17
963.30	5343.15
963.46	5369.77
963.62	5453.74
963.79	5294.00
963.95	5320.62
964.12	5429.17
964.28	5337.01
964.44	5267.38
964.61	5543.85
964.77	5371.82
964.93	5425.07
965.10	5363.63
965.26	5224.37
965.42	5285.81
965.59	4949.94
965.75	5234.61
965.92	5398.45
966.08	5406.64
966.24	5339.05
966.41	5269.42
966.57	5205.94
966.73	5552.04
966.90	5244.85
967.06	5226.42
967.22	5273.52
967.39	5097.39
967.55	5177.26
967.71	5294.00
967.88	5253.04
968.04	5287.86
968.20	5107.63
968.37	5175.22
968.53	5099.44
968.69	5187.50
968.85	5173.17
969.02	5101.49
969.18	5189.55
969.34	5271.47
969.51	5181.36
969.67	5193.65
969.83	5103.54
970.00	5048.24
970.16	5124.02
970.32	5111.73
970.48	5386.16
970.65	4978.61
970.81	5046.20
970.97	4999.09
971.14	4945.84
971.30	5124.02
971.46	5087.15
971.63	5017.52
971.79	5089.20
971.95	5017.52
972.11	5021.62
972.28	5046.20
972.44	4960.18
972.60	4917.17
972.76	4890.55
972.93	5011.38
973.09	5013.43
973.25	4861.88
973.42	4794.29
973.58	4990.90
973.74	5021.62
973.90	4825.01
974.07	4822.97
974.23	4863.93
974.39	4958.13
974.55	4943.80
974.72	4935.60
974.88	4704.18
975.04	4786.10
975.20	4761.53
975.37	4814.77
975.53	4829.11
975.69	4769.72
975.85	4714.42
976.01	4695.99
976.18	4728.76
976.34	4583.35
976.50	4802.49
976.66	4792.25
976.83	4745.14
976.99	4734.90
977.15	4843.45
977.31	4489.15
977.47	4749.24
977.64	4736.95
977.80	4669.37
977.96	4622.27
978.12	4638.65
978.29	4614.07
978.45	4493.24
978.61	4644.79
978.77	4749.24
978.93	4409.28
979.10	4458.43
979.26	4579.26
979.42	4501.44
979.58	4308.93
979.74	4501.44
979.91	4442.04
980.07	4560.83
980.23	4421.56
980.39	4444.09
980.55	4562.87
980.71	4280.25
980.88	4480.96
981.04	4317.12
981.20	4519.87
981.36	4538.30
981.52	4478.91
981.68	4444.09
981.85	4464.57
982.01	4370.37
982.17	4405.18
982.33	4374.46
982.49	4280.25
982.65	4122.56
982.82	4280.25
982.98	4345.79
983.14	4337.60
983.30	4396.99
983.46	4364.22
983.62	4353.98
983.79	4270.01
983.95	4181.95
984.11	4173.76
984.27	4300.73
984.43	4261.82
984.59	4130.75
984.75	4255.68
984.91	4087.75
985.08	4235.20
985.24	4140.99
985.40	4157.38
985.56	4112.32
985.72	4110.27
985.88	4231.10
986.04	4106.18
986.20	4063.17
986.37	4095.94
986.53	4083.65
986.69	4194.24
986.85	4083.65
987.01	4071.36
987.17	3971.01
987.33	4009.92
987.49	4036.55
987.65	4116.42
987.82	4059.07
987.98	4046.79
988.14	4112.32
988.30	3944.39
988.46	3995.59
988.62	3950.53
988.78	3831.75
988.94	3895.24
989.10	3893.19
989.26	3821.51
989.42	3893.19
989.59	3813.32
989.75	3913.67
989.91	3901.38
990.07	3805.13
990.23	3766.21
990.39	3774.41
990.55	3862.47
990.71	3682.25
990.87	3858.37
991.03	3889.09
991.19	3731.40
991.35	3790.79
991.51	3764.17
991.67	3837.89
991.83	3749.83
992.00	3760.07
992.16	3778.50
992.32	3807.17
992.48	3878.85
992.64	3704.78
992.80	3788.74
992.96	3755.97
993.12	3723.21
993.28	3801.03
993.44	3676.10
993.60	3676.10
993.76	3819.46
993.92	3633.10
994.08	3600.33
994.24	3682.25
994.40	3559.37
994.56	3661.77
994.72	3682.25
994.88	3567.56
995.04	3528.65
995.20	3553.23
995.36	3579.85
995.52	3583.95
995.68	3438.54
995.84	3430.35
996.00	3686.34
996.16	3536.84
996.32	3444.68
996.48	3452.88
996.64	3563.47
996.80	3514.31
996.96	3456.97
997.12	3479.50
997.28	3434.44
997.44	3379.15
997.60	3450.83
997.76	3403.72
997.92	3456.97
998.08	3463.12
998.24	3286.99
998.40	3522.51
998.56	3422.16
998.72	3270.61
998.88	3354.57
999.04	3334.09
999.20	3452.88
999.36	3393.48
999.52	3454.92
999.68	3420.11
999.84	3418.06
1000.00	3350.48
1000.16	3332.05
1000.32	3248.08
1000.48	3409.87
1000.64	3237.84
1000.80	3223.50
1000.95	3235.79
1001.11	3362.76
1001.27	3280.85
1001.43	3325.90
1001.59	3143.63
1001.75	3182.54
1001.91	3241.93
1002.07	3203.02
1002.23	3076.05
1002.39	3139.54
1002.55	3184.59
1002.71	3061.71
1002.87	3211.22
1003.03	3198.93
1003.19	3088.34
1003.34	3184.59
1003.50	3063.76
1003.66	3194.83
1003.82	3176.40
1003.98	3084.24
1004.14	3096.53
1004.30	3057.62
1004.46	2994.13
1004.62	3014.61
1004.78	3004.37
1004.94	3162.06
1005.09	3051.47
1005.25	3002.32
1005.41	3067.86
1005.57	3053.52
1005.73	3026.90
1005.89	2951.12
1006.05	3026.90
1006.21	3020.75
1006.37	3063.76
1006.52	2908.12
1006.68	2912.21
1006.84	3133.39
1007.00	2951.12
1007.16	2963.41
1007.32	2951.12
1007.48	2879.44
1007.64	2953.17
1007.79	2922.45
1007.95	2928.60
1008.11	2951.12
1008.27	2920.40
1008.43	2910.16
1008.59	2842.58
1008.75	2973.65
1008.91	2754.52
1009.06	2791.38
1009.22	2985.94
1009.38	2813.91
1009.54	2863.06
1009.70	2795.48
1009.86	2750.42
1010.01	2934.74
1010.17	2715.61
1010.33	2805.72
1010.49	2783.19
1010.65	2887.64
1010.81	2770.90
1010.96	2824.15
1011.12	2719.70
1011.28	2666.46
1011.44	2785.24
1011.60	2762.71
1011.76	2697.17
1011.91	2818.00
1012.07	2697.17
1012.23	2621.40
1012.39	2707.41
1012.55	2678.74
1012.71	2625.50
1012.86	2682.84
1013.02	2723.80
1013.18	2592.73
1013.34	2658.26
1013.50	2584.54
1013.65	2658.26
1013.81	2645.98
1013.97	2607.06
1014.13	2639.83
1014.29	2559.96
1014.44	2688.98
1014.60	2680.79
1014.76	2547.67
1014.92	2625.50
1015.07	2600.92
1015.23	2566.10
1015.39	2551.77
1015.55	2580.44
1015.71	2633.69
1015.86	2553.82
1016.02	2535.39
1016.18	2402.27
1016.34	2566.10
1016.49	2557.91
1016.65	2566.10
1016.81	2484.19
1016.97	2514.91
1017.12	2486.23
1017.28	2494.43
1017.44	2400.22
1017.60	2478.04
1017.75	2428.89
1017.91	2486.23
1018.07	2451.42
1018.23	2478.04
1018.38	2430.94
1018.54	2437.08
1018.70	2449.37
1018.86	2484.19
1019.01	2414.56
1019.17	2422.75
1019.33	2424.80
1019.49	2424.80
1019.64	2437.08
1019.80	2430.94
1019.96	2398.17
1020.12	2492.38
1020.27	2392.03
1020.43	2336.73
1020.59	2418.65
1020.74	2402.27
1020.90	2408.41
1021.06	2334.68
1021.22	2418.65
1021.37	2312.16
1021.53	2201.57
1021.69	2367.45
1021.84	2213.85
1022.00	2385.88
1022.16	2252.77
1022.31	2287.58
1022.47	2336.73
1022.63	2365.40
1022.79	2222.05
1022.94	2330.59
1023.10	2371.55
1023.26	2285.53
1023.41	2277.34
1023.57	2256.86
1023.73	2301.92
1023.88	2230.24
1024.04	2220.00
1024.20	2224.09
1024.35	2240.48
1024.51	2236.38
1024.67	2258.91
1024.82	2342.88
1024.98	2140.13
1025.14	2277.34
1025.29	2248.67
1025.45	2328.54
1025.61	2148.32
1025.76	2285.53
1025.92	2248.67
1026.08	2176.99
1026.23	2252.77
1026.39	2211.81
1026.55	2129.89
1026.70	2111.46
1026.86	2160.61
1027.02	2246.62
1027.17	2140.13
1027.33	2172.89
1027.48	2238.43
1027.64	2105.31
1027.80	2113.50
1027.95	2199.52
1028.11	2099.17
1028.27	2156.51
1028.42	2164.70
1028.58	2121.70
1028.73	2068.45
1028.89	2029.54
1029.05	2312.16
1029.20	2195.42
>>>>>End Processed Spectral Data<<<<<
