SpectraSuite Data File
++++++++++++++++++++++++++++++++++++
Date: Fri Jun 02 14:47:57 CEST 2017
User: INFO_000
Dark Spectrum Present: No
Reference Spectrum Present: No
Number of Sampled Component Spectra: 1
Spectrometers: USB4H00879
Integration Time (usec): 80000 (USB4H00879)
Spectra Averaged: 1 (USB4H00879)
Boxcar Smoothing: 0 (USB4H00879)
Correct for Electrical Dark: No (USB4H00879)
Strobe/Lamp Enabled: No (USB4H00879)
Correct for Detector Non-linearity: No (USB4H00879)
Correct for Stray Light: No (USB4H00879)
Number of Pixels in Processed Spectrum: 3648
>>>>>Begin Processed Spectral Data<<<<<
345.13	1208.30
345.34	1208.30
345.56	1208.30
345.78	1247.21
345.99	1282.03
346.21	1675.24
346.42	1681.38
346.64	1638.38
346.86	1798.12
347.07	1632.23
347.29	1703.91
347.50	1662.95
347.72	1687.53
347.94	1755.11
348.15	1562.60
348.37	1683.43
348.59	1738.73
348.80	1617.90
349.02	1837.03
349.23	1822.69
349.45	1736.68
349.67	1849.32
349.88	1804.26
350.10	2007.01
350.31	1925.09
350.53	1814.50
350.75	2027.49
350.96	1820.64
351.18	1861.60
351.39	1794.02
351.61	1769.44
351.82	1904.61
352.04	1853.41
352.26	1839.08
352.47	1900.52
352.69	1927.14
352.90	1818.60
353.12	1783.78
353.34	1763.30
353.55	1976.29
353.77	1873.89
353.98	1869.80
354.20	1832.93
354.41	1892.32
354.63	1884.13
354.85	1992.67
355.06	1837.03
355.28	1826.79
355.49	1896.42
355.71	1925.09
355.92	1920.99
356.14	1947.62
356.35	1802.21
356.57	1845.22
356.79	1978.34
357.00	1826.79
357.22	1929.19
357.43	1830.88
357.65	1916.90
357.86	1908.71
358.08	1972.19
358.29	1888.23
358.51	1970.15
358.72	1978.34
358.94	1982.43
359.16	1951.71
359.37	1970.15
359.59	1912.80
359.80	2029.54
360.02	1961.95
360.23	1880.04
360.45	2078.69
360.66	1910.75
360.88	1859.56
361.09	1867.75
361.31	2021.35
361.52	1966.05
361.74	2011.11
361.95	2072.54
362.17	1880.04
362.38	2058.21
362.60	1980.39
362.81	2039.78
363.03	1978.34
363.24	2013.15
363.46	2041.82
363.67	2021.35
363.89	1953.76
364.10	2035.68
364.32	1859.56
364.53	2023.39
364.75	1851.36
364.96	2095.07
365.18	2074.59
365.39	1964.00
365.61	1941.47
365.82	2064.35
366.04	2037.73
366.25	1943.52
366.47	2015.20
366.68	2037.73
366.90	1871.84
367.11	2093.02
367.33	2111.46
367.54	2064.35
367.76	1966.05
367.97	2039.78
368.19	2050.02
368.40	2095.07
368.62	1931.23
368.83	1943.52
369.05	2027.49
369.26	2035.68
369.48	2011.11
369.69	2004.96
369.91	2052.06
370.12	2011.11
370.33	2123.74
370.55	1939.43
370.76	2027.49
370.98	2062.30
371.19	2011.11
371.41	1970.15
371.62	2068.45
371.84	1994.72
372.05	2172.89
372.27	1992.67
372.48	1998.82
372.69	2093.02
372.91	2136.03
373.12	2121.70
373.34	2117.60
373.55	2101.22
373.77	2109.41
373.98	2123.74
374.20	2125.79
374.41	2222.05
374.62	2150.37
374.84	2105.31
375.05	2215.90
375.27	2211.81
375.48	2246.62
375.70	2193.37
375.91	2211.81
376.12	2367.45
376.34	2158.56
376.55	2084.83
376.77	2258.91
376.98	2103.26
377.19	2107.36
377.41	2146.27
377.62	2174.94
377.84	2232.29
378.05	2334.68
378.27	2244.57
378.48	2291.68
378.69	2316.25
378.91	2246.62
379.12	2148.32
379.34	2201.57
379.55	2297.82
379.76	2297.82
379.98	2230.24
380.19	2256.86
380.41	2252.77
380.62	2242.53
380.83	2207.71
381.05	2222.05
381.26	2394.08
381.47	2283.49
381.69	2260.96
381.90	2426.84
382.12	2299.87
382.33	2213.85
382.54	2340.83
382.76	2252.77
382.97	2342.88
383.19	2293.72
383.40	2371.55
383.61	2199.52
383.83	2254.81
384.04	2357.21
384.25	2353.12
384.47	2404.32
384.68	2346.97
384.89	2291.68
385.11	2367.45
385.32	2310.11
385.54	2332.64
385.75	2310.11
385.96	2400.22
386.18	2441.18
386.39	2430.94
386.60	2281.44
386.82	2445.27
387.03	2447.32
387.24	2420.70
387.46	2533.34
387.67	2531.29
387.88	2551.77
388.10	2482.14
388.31	2484.19
388.52	2586.58
388.74	2447.32
388.95	2486.23
389.16	2484.19
389.38	2443.23
389.59	2557.91
389.80	2607.06
390.02	2484.19
390.23	2648.02
390.44	2461.66
390.66	2537.43
390.87	2437.08
391.08	2629.59
391.30	2705.37
391.51	2676.70
391.72	2756.57
391.94	2615.26
392.15	2652.12
392.36	2557.91
392.58	2584.54
392.79	2627.54
393.00	2684.89
393.22	2736.09
393.43	2775.00
393.64	2744.28
393.85	2795.48
394.07	2576.34
394.28	2731.99
394.49	2818.00
394.71	2729.94
394.92	2797.53
395.13	2760.66
395.35	2779.09
395.56	2752.47
395.77	2695.13
395.98	2699.22
396.20	2740.18
396.41	2815.96
396.62	2895.83
396.84	2762.71
397.05	2830.29
397.26	2891.73
397.47	2940.88
397.69	2805.72
397.90	2955.22
398.11	2844.63
398.32	2840.53
398.54	2891.73
398.75	2912.21
398.96	2854.87
399.18	3114.96
399.39	2887.64
399.60	2879.44
399.81	2953.17
400.03	2918.36
400.24	3217.36
400.45	3076.05
400.66	3022.80
400.88	2971.60
401.09	3194.83
401.30	3030.99
401.51	3166.16
401.73	3160.02
401.94	3192.78
402.15	3088.34
402.36	3059.67
402.58	3174.35
402.79	3114.96
403.00	3133.39
403.21	3174.35
403.43	3231.69
403.64	3266.51
403.85	3157.97
404.06	3074.00
404.27	3071.95
404.49	3160.02
404.70	3112.91
404.91	3241.93
405.12	3243.98
405.34	3231.69
405.55	3332.05
405.76	3145.68
405.97	3170.26
406.19	3344.33
406.40	3172.30
406.61	3291.09
406.82	3305.42
407.03	3264.46
407.25	3268.56
407.46	3475.40
407.67	3434.44
407.88	3483.59
408.09	3358.67
408.31	3356.62
408.52	3305.42
408.73	3309.52
408.94	3248.08
409.15	3411.92
409.37	3485.64
409.58	3530.70
409.79	3528.65
410.00	3579.85
410.21	3444.68
410.43	3432.40
410.64	3452.88
410.85	3530.70
411.06	3518.41
411.27	3600.33
411.48	3526.60
411.70	3485.64
411.91	3561.42
412.12	3698.63
412.33	3551.18
412.54	3518.41
412.76	3700.68
412.97	3684.30
413.18	3616.71
413.39	3581.90
413.60	3706.82
413.81	3690.44
414.03	3657.67
414.24	3588.04
414.45	3792.84
414.66	3551.18
414.87	3815.37
415.08	3727.30
415.30	3678.15
415.51	3934.15
415.72	3725.26
415.93	3618.76
416.14	3829.70
416.35	3803.08
416.56	3741.64
416.78	3911.62
416.99	3839.94
417.20	3958.72
417.41	4003.78
417.62	3968.96
417.83	4024.26
418.04	3811.27
418.26	3956.68
418.47	4009.92
418.68	3919.81
418.89	3942.34
419.10	3966.92
419.31	3981.25
419.52	3977.16
419.73	4014.02
419.95	4110.27
420.16	3999.68
420.37	3975.11
420.58	4059.07
420.79	4050.88
421.00	4110.27
421.21	4143.04
421.42	3999.68
421.63	4118.47
421.85	4122.56
422.06	4083.65
422.27	4143.04
422.48	4186.05
422.69	4218.82
422.90	4202.43
423.11	4173.76
423.32	4110.27
423.53	4394.94
423.75	4327.36
423.96	4345.79
424.17	4304.83
424.38	4546.49
424.59	4284.35
424.80	4474.81
425.01	4384.70
425.22	4353.98
425.43	4399.04
425.64	4458.43
425.85	4442.04
426.06	4566.97
426.28	4501.44
426.49	4532.15
426.70	4493.24
426.91	4550.59
427.12	4609.98
427.33	4599.74
427.54	4628.41
427.75	4601.79
427.96	4808.63
428.17	4659.13
428.38	4720.57
428.59	4722.62
428.80	4642.75
429.01	4845.49
429.23	4837.30
429.44	4974.52
429.65	4790.20
429.86	4964.28
430.07	4837.30
430.28	4700.09
430.49	4853.69
430.70	4990.90
430.91	4988.85
431.12	4890.55
431.33	5081.01
431.54	5171.12
431.75	5207.98
431.96	5169.07
432.17	5054.39
432.38	5154.74
432.59	5320.62
432.80	5179.31
433.01	5224.37
433.22	5351.34
433.43	5345.20
433.64	5269.42
433.85	5294.00
434.06	5242.80
434.27	5167.03
434.49	5277.62
434.70	5603.24
434.91	5367.73
435.12	5425.07
435.33	5427.12
435.54	5296.05
435.75	5339.05
435.96	5349.29
436.17	5308.34
436.38	5625.77
436.59	5658.54
436.80	5535.66
437.01	5701.54
437.22	5834.66
437.43	5687.21
437.64	5500.84
437.85	5660.59
438.06	5867.43
438.27	5695.40
438.48	5609.39
438.69	5736.36
438.90	5662.63
439.11	5603.24
439.32	5857.19
439.53	5889.96
439.74	5894.05
439.95	5949.35
440.16	5951.40
440.37	5949.35
440.57	5935.01
440.78	6004.64
440.99	6012.84
441.20	5883.81
441.41	5865.38
441.62	5990.31
441.83	5877.67
442.04	6086.56
442.25	6080.42
442.46	5992.36
442.67	6104.99
442.88	6406.05
443.09	5945.25
443.30	6168.48
443.51	6215.59
443.72	6399.90
443.93	6197.15
444.14	6475.68
444.35	6182.82
444.56	6344.61
444.77	6266.78
444.98	6391.71
445.19	6512.54
445.40	6473.63
445.61	6250.40
445.81	6506.40
446.02	6414.24
446.23	6412.19
446.44	6385.57
446.65	6563.74
446.86	6479.77
447.07	6647.71
447.28	6758.30
447.49	6844.31
447.70	6639.51
447.91	6549.40
448.12	6711.19
448.33	6885.27
448.54	6727.58
448.74	6592.41
448.95	6807.45
449.16	6672.28
449.37	7094.16
449.58	6750.10
449.79	7094.16
450.00	6825.88
450.21	7006.10
450.42	7118.74
450.63	6954.90
450.84	6915.99
451.05	7020.44
451.25	7053.20
451.46	6881.18
451.67	7159.70
451.88	7233.43
452.09	7206.80
452.30	6956.95
452.51	7063.44
452.72	7194.51
452.93	7524.24
453.13	7083.92
453.34	7208.85
453.55	7346.06
453.76	7110.55
453.97	7700.36
454.18	7266.19
454.39	7446.41
454.60	7495.57
454.81	7468.94
455.01	7636.88
455.22	7384.98
455.43	7700.36
455.64	7755.66
455.85	7923.59
456.06	7944.07
456.27	7808.90
456.48	7751.56
456.68	7849.86
456.89	7714.70
457.10	7950.21
457.31	7817.10
457.52	7874.44
457.73	8058.76
457.94	8109.96
458.14	7843.72
458.35	8281.99
458.56	8187.78
458.77	7937.93
458.98	8265.60
459.19	8269.70
459.39	8380.29
459.60	8386.43
459.81	8298.37
460.02	8400.77
460.23	8290.18
460.44	8605.56
460.65	8445.82
460.85	8425.34
461.06	8640.38
461.27	8556.41
461.48	8761.21
461.69	8804.22
461.89	8537.98
462.10	8744.83
462.31	8593.28
462.52	8599.42
462.73	8777.59
462.94	8861.56
463.14	8939.38
463.35	8894.33
463.56	9310.07
463.77	9209.72
463.98	8992.63
464.18	9217.91
464.39	9305.97
464.60	9543.53
464.81	9344.88
465.02	9428.85
465.23	9533.29
465.43	9404.27
465.64	9594.73
465.85	9514.86
466.06	9539.44
466.27	9824.11
466.47	9709.42
466.68	9822.06
466.89	9877.35
467.10	9887.59
467.30	9850.73
467.51	9908.07
467.72	10272.61
467.93	9813.87
468.14	10223.46
468.34	10440.54
468.55	10428.26
468.76	10461.02
468.97	10272.61
469.17	10516.32
469.38	10743.64
469.59	10841.95
469.80	10639.20
470.01	10766.17
470.21	10649.44
470.42	11208.53
470.63	10884.95
470.84	11075.42
471.04	11216.72
471.25	11296.60
471.46	11175.77
471.67	11403.09
471.87	11513.68
472.08	11616.08
472.29	11659.09
472.50	11448.15
472.70	11554.64
472.91	11661.13
473.12	11661.13
473.33	11829.07
473.53	12027.72
473.74	11941.71
473.95	12091.21
474.16	12334.92
474.36	12246.85
474.57	12463.94
474.78	12619.58
474.99	12359.49
475.19	12453.70
475.40	12820.28
475.61	13076.28
475.81	12848.96
476.02	13068.09
476.23	13057.85
476.44	13133.62
476.64	13324.08
476.85	13662.00
477.06	13154.10
477.27	13483.83
477.47	13688.62
477.68	13772.59
477.89	13838.12
478.09	13850.41
478.30	14042.92
478.51	14100.26
478.71	14173.99
478.92	14532.39
479.13	14395.17
479.34	14593.83
479.54	14593.83
479.75	14688.03
479.96	14858.01
480.16	14808.86
480.37	14896.92
480.58	15003.42
480.78	15214.36
480.99	15372.05
481.20	15392.53
481.41	15353.62
481.61	15404.82
481.82	15673.10
482.03	15734.54
482.23	15650.58
482.44	16115.47
482.65	16037.64
482.85	16314.12
483.06	15953.68
483.27	16291.59
483.47	16344.84
483.68	16146.19
483.89	16604.93
484.09	16293.64
484.30	16686.85
484.51	16815.87
484.71	17057.53
484.92	16695.04
485.13	17032.96
485.33	17102.59
485.54	17159.93
485.75	17493.75
485.95	17460.98
486.16	17518.32
486.37	17692.40
486.57	17585.91
486.78	17620.72
486.98	17768.18
487.19	18040.56
487.40	18030.32
487.60	18048.75
487.81	18556.64
488.02	18194.15
488.22	18071.28
488.43	18206.44
488.64	18484.97
488.84	18876.13
489.05	18822.88
489.25	18484.97
489.46	19029.73
489.67	18843.36
489.87	19082.97
490.08	19222.23
490.29	19017.44
490.49	19666.64
490.70	19273.43
490.90	19441.37
491.11	19592.92
491.32	19404.50
491.52	19619.54
491.73	19670.74
491.94	19859.15
492.14	20031.18
492.35	20020.94
492.55	20027.09
492.76	20365.00
492.97	20506.31
493.17	20250.32
493.38	20453.06
493.58	20801.22
493.79	20463.30
494.00	20588.23
494.20	20721.35
494.41	20516.55
494.61	20790.98
494.82	20909.76
495.02	20831.94
495.23	21102.27
495.44	21141.18
495.64	21569.21
495.85	21417.66
496.05	21431.99
496.26	21419.71
496.47	21839.54
496.67	21415.61
496.88	21782.20
497.08	21679.80
497.29	22154.93
497.49	21829.30
497.70	22159.02
497.91	22064.82
498.11	22154.93
498.32	22521.51
498.52	22349.48
498.73	22558.38
498.93	22384.30
499.14	22449.83
499.34	22419.11
499.55	22722.21
499.76	22290.09
499.96	22718.12
500.17	22656.68
500.37	22716.07
500.58	22996.64
500.78	22924.96
500.99	22742.69
501.19	23312.03
501.40	23199.39
501.60	22855.33
501.81	23414.43
502.02	23428.76
502.22	23512.73
502.43	23148.19
502.63	23983.76
502.84	23545.50
503.04	23377.56
503.25	23619.22
503.45	23862.93
503.66	23903.89
503.86	23971.47
504.07	24114.83
504.27	23545.50
504.48	24211.09
504.68	24520.33
504.89	24456.84
505.09	24225.42
505.30	24262.29
505.50	24284.81
505.71	24505.99
505.91	24653.45
506.12	24479.37
506.32	24694.41
506.53	24852.10
506.73	24663.69
506.94	24782.47
507.14	25151.10
507.35	25026.18
507.55	25159.30
507.76	25104.00
507.96	25091.71
508.17	25351.81
508.37	24946.31
508.58	25192.06
508.78	25417.34
508.99	25431.68
509.19	25695.86
509.40	25439.87
509.60	25413.24
509.81	25847.41
510.01	25958.00
510.22	25663.10
510.42	26175.09
510.63	26074.74
510.83	25958.00
511.04	26066.55
511.24	26267.25
511.44	25894.52
511.65	26152.56
511.85	26240.62
512.06	26394.22
512.26	26498.67
512.47	26621.55
512.67	26244.72
512.88	26556.01
513.08	26138.23
513.29	26846.82
513.49	26769.00
513.69	26502.76
513.90	26779.24
514.10	27137.63
514.31	26826.34
514.51	27092.58
514.72	27108.96
514.92	27102.82
515.13	26928.74
515.33	27399.77
515.53	27074.15
515.74	27342.43
515.94	27567.71
516.15	27524.70
516.35	27709.02
516.56	27555.42
516.76	27598.43
516.96	27704.92
517.17	28202.58
517.37	28225.11
517.58	27881.05
517.78	28102.23
517.99	27950.68
518.19	28343.89
518.39	28477.01
518.60	28663.37
518.80	28499.53
519.01	28753.48
519.21	28528.20
519.41	28849.74
519.62	28532.30
519.82	28857.93
520.03	29275.71
520.23	29042.24
520.43	28671.56
520.64	29490.75
520.84	29492.80
521.05	29185.60
521.25	29503.04
521.45	29593.15
521.66	29611.58
521.86	29728.31
522.07	29496.89
522.27	29853.24
522.47	29476.41
522.68	29845.05
522.88	30029.37
523.08	30264.88
523.29	30375.47
523.49	30080.56
523.70	30049.85
523.90	30576.17
524.10	30506.54
524.31	30533.17
524.51	30119.48
524.71	30901.80
524.92	30719.53
525.12	30996.01
525.33	31047.21
525.53	30928.42
525.73	31331.87
525.94	31387.17
526.14	31264.29
526.34	31551.01
526.55	31727.13
526.75	31804.95
526.95	32216.60
527.16	31798.81
527.36	32028.18
527.56	32079.38
527.77	32552.46
527.97	32278.04
528.17	31962.65
528.38	31964.70
528.58	32108.05
528.78	32497.17
528.99	32314.90
529.19	32882.19
529.39	32523.79
529.60	33256.96
529.80	32923.15
530.00	33013.26
530.21	33250.82
530.41	33510.91
530.61	33039.88
530.82	33148.42
531.02	33328.64
531.22	33801.72
531.43	33973.75
531.63	33955.32
531.83	34133.50
532.04	34049.53
532.24	33711.61
532.44	34653.68
532.64	34362.87
532.85	34338.29
533.05	34229.75
533.25	34321.91
533.46	34649.58
533.66	35106.28
533.86	34790.89
534.07	35243.49
534.27	34502.13
534.47	35274.21
534.67	35032.55
534.88	34735.60
535.08	35130.86
535.28	35499.49
535.49	35233.25
535.69	35399.14
535.89	35706.34
536.09	35558.88
536.30	35988.95
536.50	35612.13
536.70	35694.05
536.91	35765.73
537.11	36117.98
537.31	36142.55
537.51	36077.02
537.72	36586.96
537.92	36292.05
538.12	36879.82
538.32	36533.71
538.53	36726.22
538.73	36758.99
538.93	36912.59
539.13	36654.54
539.34	36429.27
539.54	37074.38
539.74	37115.34
539.94	36558.29
540.15	36689.36
540.35	37408.20
540.55	37285.32
540.75	37219.78
540.96	37420.48
541.16	37178.82
541.36	37467.59
541.56	37545.41
541.77	37938.62
541.97	37451.20
542.17	37821.89
542.37	37973.44
542.58	38213.05
542.78	37795.26
542.98	37844.41
543.18	38262.20
543.38	38475.19
543.59	38383.03
543.79	38241.72
543.99	38217.14
544.19	38051.26
544.40	38325.69
544.60	38745.52
544.80	38260.15
545.00	38796.72
545.20	38766.00
545.41	38333.88
545.61	38802.86
545.81	38886.83
546.01	39075.24
546.21	38489.52
546.42	38624.69
546.62	39087.53
546.82	39081.39
547.02	39101.87
547.22	39128.49
547.43	38679.99
547.63	39411.11
547.83	39445.93
548.03	39097.77
548.23	39407.01
548.44	39546.28
548.64	39210.41
548.84	39626.15
549.04	39800.22
549.24	39505.32
549.45	39902.62
549.65	39370.15
549.85	39671.20
550.05	40136.09
550.25	39503.27
550.45	40056.22
550.66	39867.81
550.86	39292.33
551.06	39904.67
551.26	39978.40
551.46	40086.94
551.66	40160.67
551.87	40158.62
552.07	40134.04
552.27	39916.96
552.47	40232.35
552.67	40312.22
552.87	40385.94
553.07	40316.31
553.28	40392.09
553.48	40758.67
553.68	40170.91
553.88	40588.69
554.08	40695.19
554.28	40381.85
554.48	40449.43
554.69	40986.00
554.89	40603.03
555.09	40605.08
555.29	40631.70
555.49	41051.53
555.69	41031.05
555.89	41186.70
556.10	40940.94
556.30	41006.48
556.50	41035.15
556.70	40977.81
556.90	41053.58
557.10	41215.37
557.30	41168.27
557.50	41319.82
557.70	41110.92
557.91	41360.78
558.11	41198.99
558.31	41749.89
558.51	41133.45
558.71	41629.06
558.91	41751.94
559.11	41297.29
559.31	41350.54
559.51	41399.69
559.72	41741.70
559.92	41848.19
560.12	41510.28
560.32	41926.02
560.52	41893.25
560.72	42341.75
560.92	42235.26
561.12	42075.52
561.32	42734.96
561.52	41842.05
561.72	42227.07
561.93	42372.47
562.13	42454.39
562.33	41872.77
562.53	42552.69
562.73	42143.10
562.93	42308.99
563.13	42419.58
563.33	42489.21
563.53	42976.62
563.73	42392.95
563.93	43152.75
564.13	43054.45
564.33	42685.81
564.53	42874.23
564.74	42913.14
564.94	42511.74
565.14	43054.45
565.34	42671.48
565.54	43242.86
565.74	43410.79
565.94	43341.16
566.14	43107.69
566.34	42925.42
566.54	43660.65
566.74	42794.36
566.94	43496.81
567.14	43371.88
567.34	43498.86
567.54	43461.99
567.74	43328.87
567.94	43609.45
568.14	44242.27
568.34	43808.10
568.54	43654.50
568.74	43685.22
568.94	44037.47
569.14	44219.74
569.34	44127.58
569.54	44082.53
569.75	44014.94
569.95	44299.61
570.15	44483.93
570.35	44270.94
570.55	44399.96
570.75	44285.28
570.95	44203.36
571.15	44549.46
571.35	44430.68
571.55	44580.18
571.75	44395.87
571.95	44983.63
572.15	44352.86
572.35	45585.74
572.55	44973.39
572.75	44801.36
572.95	44545.37
573.15	45094.22
573.35	44950.87
573.55	45036.88
573.75	44911.95
573.95	45342.03
574.15	45036.88
574.35	45595.98
574.55	45540.68
574.75	45462.86
574.95	45509.96
575.15	45188.43
575.34	45950.27
575.54	45710.66
575.74	46224.70
575.94	45768.01
576.14	46071.10
576.34	46175.55
576.54	46015.81
576.74	46230.85
576.94	46044.48
577.14	46228.80
577.34	46476.60
577.54	46077.25
577.74	46517.56
577.94	46671.16
578.14	46564.67
578.34	46579.00
578.54	46236.99
578.74	46765.37
578.94	47060.27
579.14	46619.96
579.34	46875.96
579.54	47086.90
579.74	47246.64
579.94	46914.87
580.13	47308.08
580.33	47371.57
580.53	47271.21
580.73	47093.04
580.93	47449.39
581.13	47727.91
581.33	47748.39
581.53	47811.88
581.73	47707.43
581.93	47963.43
582.13	48190.75
582.33	48092.45
582.53	47875.37
582.73	47883.56
582.92	48043.30
583.12	48282.91
583.32	47813.93
583.52	47953.19
583.72	48233.76
583.92	48117.03
584.12	48649.50
584.32	48321.82
584.52	48391.45
584.72	48549.15
584.92	48454.94
585.11	49298.70
585.31	48784.66
585.51	48770.33
585.71	48428.32
585.91	48905.49
586.11	48790.81
586.31	48747.80
586.51	48964.88
586.71	48602.39
586.91	49231.12
587.10	49829.13
587.30	49050.90
587.50	49526.03
587.70	48989.46
587.90	49229.07
588.10	49667.34
588.30	49839.37
588.50	49708.30
588.69	50169.09
588.89	49558.80
589.09	49878.28
589.29	49968.39
589.49	50132.23
589.69	49618.19
589.89	50015.49
590.08	49847.56
590.28	49673.48
590.48	49669.39
590.68	49943.81
590.88	49640.71
591.08	49868.04
591.28	49794.31
591.47	50595.07
591.67	50535.68
591.87	50402.56
592.07	50406.65
592.27	50130.18
592.47	50574.59
592.67	50099.46
592.86	50265.34
593.06	50013.44
593.26	50404.61
593.46	50373.89
593.66	50664.70
593.86	50451.71
594.05	50748.67
594.25	50509.05
594.45	50353.41
594.65	50513.15
594.85	50228.48
595.05	51197.17
595.24	51303.67
595.44	50689.27
595.64	51012.85
595.84	51336.43
596.04	50877.69
596.23	50791.67
596.43	51004.66
596.63	50914.55
596.83	50736.38
597.03	51182.84
597.22	51418.35
597.42	51088.63
597.62	51551.47
597.82	51541.23
598.02	51205.36
598.21	51516.65
598.41	51094.77
598.61	51735.79
598.81	51320.05
599.01	51496.17
599.20	51442.93
599.40	51209.46
599.60	51633.39
599.80	51463.41
600.00	51883.24
600.19	51647.72
600.39	51430.64
600.59	52114.66
600.79	51922.15
600.98	51700.97
601.18	51848.42
601.38	52325.60
601.58	51983.59
601.78	52106.47
601.97	52229.35
602.17	52292.83
602.37	52042.98
602.57	51940.58
602.76	52483.30
602.96	52163.81
603.16	52485.34
603.36	51858.66
603.55	52817.11
603.75	52102.37
603.95	52729.05
604.15	52585.69
604.34	52296.93
604.54	52669.66
604.74	52962.52
604.94	52640.99
605.13	52409.57
605.33	52626.65
605.53	52163.81
605.73	52839.64
605.92	52712.67
606.12	52950.23
606.32	53015.77
606.52	52600.03
606.71	52724.96
606.91	52923.61
607.11	52438.24
607.30	53081.30
607.50	53120.21
607.70	53124.31
607.90	53173.46
608.09	52800.73
608.29	52950.23
608.49	53155.03
608.68	53269.72
608.88	53329.11
609.08	53101.78
609.28	53128.41
609.47	52917.46
609.67	53200.08
609.87	53421.26
610.06	53304.53
610.26	53451.98
610.46	53583.05
610.66	53294.29
610.85	53503.18
611.05	53138.65
611.25	53247.19
611.44	53413.07
611.64	53331.15
611.84	53322.96
612.03	53228.76
612.23	53040.34
612.43	53355.73
612.62	52884.70
612.82	53402.83
613.02	53476.56
613.21	53390.55
613.41	53236.95
613.61	53818.57
613.80	53023.96
614.00	53687.50
614.20	53189.84
614.39	53505.23
614.59	53554.38
614.79	53695.69
614.98	53087.45
615.18	53458.13
615.38	53456.08
615.57	52851.93
615.77	53923.02
615.97	53513.42
616.16	53300.43
616.36	53683.40
616.56	54017.22
616.75	53351.63
616.95	53028.05
617.15	53396.69
617.34	53884.11
617.54	52929.75
617.74	53828.81
617.93	53456.08
618.13	53167.32
618.32	53230.80
618.52	53544.14
618.72	53834.95
618.91	53222.61
619.11	53142.74
619.31	53198.04
619.50	53310.67
619.70	52913.37
619.90	53542.10
620.09	53322.96
620.29	53720.27
620.48	53441.74
620.68	53787.85
620.88	52860.12
621.07	53376.21
621.27	53433.55
621.46	52903.13
621.66	53066.97
621.86	53339.35
622.05	53556.43
622.25	53636.30
622.44	53191.89
622.64	52813.02
622.84	53521.62
623.03	53533.90
623.23	53521.62
623.42	53300.43
623.62	53605.58
623.82	53941.45
624.01	53621.97
624.21	53902.54
624.40	53173.46
624.60	53640.40
624.80	53218.52
624.99	53648.59
625.19	53058.77
625.38	53650.64
625.58	53499.09
625.77	53636.30
625.97	53710.03
626.17	53114.07
626.36	53912.78
626.56	53368.02
626.75	52673.76
626.95	53818.57
627.14	53380.31
627.34	53654.73
627.54	53458.13
627.73	53564.62
627.93	53372.11
628.12	53515.47
628.32	53738.70
628.51	54000.84
628.71	53636.30
628.90	53681.36
629.10	53847.24
629.30	54099.14
629.49	53427.41
629.69	53943.50
629.88	53312.72
630.08	53916.87
630.27	53982.41
630.47	54021.32
630.66	53404.88
630.86	53931.21
631.05	53492.94
631.25	54727.87
631.44	53859.53
631.64	53857.48
631.84	54088.90
632.03	54650.05
632.23	54228.16
632.42	54621.37
632.62	54531.26
632.81	53830.86
633.01	54242.50
633.20	54465.73
633.40	54301.89
633.59	54392.00
633.79	54246.60
633.98	54572.22
634.18	54848.70
634.37	54181.06
634.57	54584.51
634.76	54213.83
634.96	54412.48
635.15	54514.88
635.35	54156.49
635.54	54478.02
635.74	54971.58
635.93	54287.56
636.13	54957.24
636.32	54561.98
636.52	54322.37
636.71	54588.61
636.91	54705.34
637.10	54301.89
637.30	54295.75
637.49	54441.15
637.69	54684.86
637.88	55102.65
638.08	54514.88
638.27	54924.47
638.46	54635.71
638.66	54715.58
638.85	54779.07
639.05	55045.30
639.24	55254.20
639.44	54611.13
639.63	55125.17
639.83	55129.27
640.02	55002.30
640.22	54916.28
640.41	54953.15
640.61	54621.37
640.80	55315.64
640.99	55344.31
641.19	55432.37
641.38	55094.46
641.58	55219.38
641.77	55301.30
641.97	55004.34
642.16	55159.99
642.36	55381.17
642.55	55938.22
642.74	55049.40
642.94	55706.80
643.13	55426.23
643.33	55592.11
643.52	55563.44
643.72	55755.95
643.91	55524.53
644.10	56159.40
644.30	56194.21
644.49	55604.40
644.69	56169.64
644.88	55858.35
645.08	55727.28
645.27	55704.75
645.46	55747.76
645.66	56259.75
645.85	55600.30
646.05	56138.92
646.24	56241.32
646.43	56222.89
646.63	56464.55
646.82	56564.90
647.02	56538.27
647.21	56255.65
647.40	56022.19
647.60	56476.83
647.79	56499.36
647.99	56364.20
648.18	56499.36
648.37	56575.14
648.57	56345.76
648.76	56399.01
648.96	56521.89
649.15	56761.50
649.34	57031.83
649.54	56601.76
649.73	56032.42
649.92	56597.66
650.12	56874.14
650.31	56775.84
650.51	56698.01
650.70	56829.08
650.89	56237.22
651.09	57103.51
651.28	57107.61
651.47	56794.27
651.67	56994.97
651.86	57283.73
652.06	56495.27
652.25	57048.22
652.44	56945.82
652.64	56652.96
652.83	56581.28
653.02	56411.30
653.22	56831.13
653.41	56558.75
653.60	56245.41
653.80	56769.69
653.99	56851.61
654.18	56566.94
654.38	56603.81
654.57	56951.96
654.76	57478.29
654.96	56673.44
655.15	56956.06
655.34	57230.49
655.54	56822.94
655.73	57048.22
655.92	57271.45
656.12	57277.59
656.31	57148.57
656.50	57275.54
656.70	56986.78
656.89	57185.43
657.08	57175.19
657.28	56917.15
657.47	57128.09
657.66	57259.16
657.86	57001.11
658.05	57523.35
658.24	57080.98
658.43	56958.11
658.63	57459.86
658.82	57134.23
659.01	57793.68
659.21	57242.77
659.40	57257.11
659.59	56702.11
659.79	57537.68
659.98	57281.69
660.17	57300.12
660.36	57437.33
660.56	57488.53
660.75	57257.11
660.94	57142.42
661.14	57627.79
661.33	57279.64
661.52	56841.37
661.71	57967.76
661.91	57220.25
662.10	56820.89
662.29	57336.98
662.49	57119.90
662.68	57482.39
662.87	57336.98
663.06	57500.82
663.26	57132.18
663.45	57525.39
663.64	57261.21
663.83	57691.28
664.03	57709.71
664.22	57726.10
664.41	57541.78
664.60	57146.52
664.80	57001.11
664.99	56843.42
665.18	57498.77
665.37	56853.66
665.57	56800.41
665.76	57037.98
665.95	57072.79
666.14	57218.20
666.34	56931.48
666.53	57222.29
666.72	57357.46
666.91	57068.70
667.11	56802.46
667.30	57384.08
667.49	56976.54
667.68	57148.57
667.87	57048.22
668.07	57255.06
668.26	57029.79
668.45	56788.13
668.64	56935.58
668.84	57455.76
669.03	56923.29
669.22	56784.03
669.41	56870.04
669.60	57037.98
669.80	56507.55
669.99	57322.65
670.18	56956.06
670.37	57126.04
670.57	57187.48
670.76	56476.83
670.95	57027.74
671.14	57029.79
671.33	56687.78
671.53	57171.10
671.72	56540.32
671.91	56831.13
672.10	56376.48
672.29	56505.51
672.48	56902.81
672.68	56796.32
672.87	56513.70
673.06	56712.35
673.25	56513.70
673.44	56343.72
673.64	56536.23
673.83	56437.92
674.02	56612.00
674.21	56358.05
674.40	56663.20
674.59	56358.05
674.79	56339.62
674.98	56560.80
675.17	56781.98
675.36	56356.00
675.55	56509.60
675.74	56097.96
675.94	56419.49
676.13	56464.55
676.32	56415.40
676.51	56767.65
676.70	56267.94
676.89	56276.13
677.08	56362.15
677.28	56046.76
677.47	56374.44
677.66	56859.80
677.85	56128.68
678.04	55946.41
678.23	56542.37
678.42	56399.01
678.62	55784.62
678.81	56407.20
679.00	55819.44
679.19	56523.94
679.38	55907.50
679.57	55915.69
679.76	55739.57
679.96	55981.23
680.15	56550.56
680.34	55696.56
680.53	55520.43
680.72	56071.34
680.91	55889.07
681.10	55481.52
681.29	56009.90
681.48	55508.14
681.68	55764.14
681.87	55706.80
682.06	55389.36
682.25	55440.56
682.44	55735.47
682.63	55991.47
682.82	55405.75
683.01	55753.90
683.20	55336.12
683.39	55401.65
683.59	55301.30
683.78	55313.59
683.97	55280.82
684.16	55229.62
684.35	55268.53
684.54	55215.29
684.73	55037.11
684.92	54932.67
685.11	54744.25
685.30	54936.76
685.49	55166.13
685.69	55178.42
685.88	54854.84
686.07	54830.27
686.26	54766.78
686.45	54740.16
686.64	54703.29
686.83	54639.81
687.02	54719.68
687.21	55047.35
687.40	54383.81
687.59	55137.46
687.78	54697.15
687.97	55057.59
688.16	54885.56
688.35	54723.77
688.54	54351.04
688.74	54809.79
688.93	54471.87
689.12	54236.36
689.31	54369.47
689.50	54340.80
689.69	54033.61
689.88	54389.95
690.07	54602.94
690.26	54426.82
690.45	54596.80
690.64	54043.85
690.83	54447.30
691.02	53988.55
691.21	54039.75
691.40	53953.74
691.59	54219.97
691.78	53791.95
691.97	54099.14
692.16	54140.10
692.35	54754.49
692.54	54201.54
692.73	53941.45
692.92	54277.32
693.11	54154.44
693.30	53703.88
693.49	53908.68
693.68	53812.43
693.87	53929.16
694.06	53740.75
694.25	53953.74
694.44	53437.65
694.63	53802.19
694.82	53591.25
695.01	53220.56
695.20	53314.77
695.39	53185.75
695.58	53464.27
695.77	53109.97
695.96	53411.02
696.15	53501.14
696.34	52917.46
696.53	53408.98
696.72	53439.70
696.91	52950.23
697.10	53294.29
697.29	52798.68
697.48	53785.80
697.67	53165.27
697.86	53093.59
698.05	52929.75
698.24	53343.44
698.43	52991.19
698.62	53157.08
698.81	53079.25
699.00	53302.48
699.19	52800.73
699.38	52712.67
699.57	52604.13
699.76	53253.33
699.95	52860.12
700.14	52266.21
700.32	52702.43
700.51	53105.88
700.70	53189.84
700.89	52813.02
701.08	52591.84
701.27	52421.86
701.46	53044.44
701.65	51913.96
701.84	52258.02
702.03	52696.28
702.22	52110.56
702.41	52182.24
702.60	52577.50
702.79	52567.26
702.98	52176.10
703.17	52169.96
703.35	52348.13
703.54	52016.36
703.73	52380.90
703.92	52462.82
704.11	52649.18
704.30	52163.81
704.49	52247.78
704.68	52063.46
704.87	52110.56
705.06	51942.63
705.25	51829.99
705.43	51748.07
705.62	52524.25
705.81	51989.73
706.00	51926.25
706.19	51932.39
706.38	51961.06
706.57	52362.46
706.76	51772.65
706.95	52174.05
707.14	51928.30
707.32	51227.89
707.51	51971.30
707.70	51881.19
707.89	51928.30
708.08	51274.99
708.27	52255.97
708.46	51758.31
708.65	51862.76
708.84	52026.60
709.02	51793.13
709.21	51764.46
709.40	51422.45
709.59	51541.23
709.78	51307.76
709.97	51567.85
710.16	51297.52
710.34	51952.87
710.53	51459.31
710.72	51453.17
710.91	51592.43
711.10	51545.33
711.29	51361.01
711.48	51477.74
711.66	51180.79
711.85	51307.76
712.04	51741.93
712.23	51705.07
712.42	50885.88
712.61	50951.41
712.80	51270.90
712.98	51473.65
713.17	50932.98
713.36	51090.68
713.55	51340.53
713.74	51320.05
713.93	50930.93
714.11	51107.06
714.30	50920.70
714.49	50910.46
714.68	50304.26
714.87	51180.79
715.06	51254.51
715.24	50900.22
715.43	50877.69
715.62	50697.47
715.81	50631.93
716.00	51000.57
716.18	50621.69
716.37	50408.70
716.56	50320.64
716.75	51055.86
716.94	50713.85
717.12	50085.12
717.31	50853.11
717.50	50375.94
717.69	50869.50
717.88	50730.23
718.06	50957.56
718.25	50830.58
718.44	50162.95
718.63	50953.46
718.82	50109.70
719.00	50017.54
719.19	49952.01
719.38	50453.76
719.57	49673.48
719.76	50044.16
719.94	49843.46
720.13	50060.55
720.32	49964.29
720.51	50134.28
720.69	50005.25
720.88	49487.12
721.07	49693.96
721.26	49347.86
721.44	49347.86
721.63	49831.18
721.82	49550.60
722.01	49847.56
722.20	49693.96
722.38	49493.26
722.57	49206.55
722.76	49566.99
722.95	48993.56
723.13	48917.78
723.32	49198.35
723.51	48696.60
723.70	49038.61
723.88	48989.46
724.07	48762.14
724.26	49005.84
724.44	48846.10
724.63	48764.18
724.82	49208.59
725.01	49001.75
725.19	48934.17
725.38	48934.17
725.57	48733.46
725.76	49235.22
725.94	48659.74
726.13	48987.41
726.32	48370.97
726.51	48495.90
726.69	49102.10
726.88	49118.48
727.07	48919.83
727.25	48762.14
727.44	48780.57
727.63	48608.54
727.82	48905.49
728.00	48862.49
728.19	48528.67
728.38	48938.26
728.56	48307.49
728.75	48688.41
728.94	48690.46
729.12	49061.14
729.31	48594.20
729.50	48690.46
729.69	48860.44
729.87	48702.74
730.06	48594.20
730.25	48444.70
730.43	49464.59
730.62	48563.48
730.81	48973.08
730.99	48700.70
731.18	48280.86
731.37	48932.12
731.55	48999.70
731.74	49110.29
731.93	49085.72
732.11	48704.79
732.30	48856.34
732.49	48479.52
732.67	48563.48
732.86	48624.92
733.05	48831.77
733.23	48307.49
733.42	48244.00
733.61	48837.91
733.79	48698.65
733.98	48698.65
734.17	49020.18
734.35	48125.22
734.54	48633.11
734.73	49046.80
734.91	48635.16
735.10	48088.35
735.29	48448.80
735.47	48047.39
735.66	48338.21
735.84	48411.93
736.03	48239.90
736.22	48475.42
736.40	48059.68
736.59	48755.99
736.78	48280.86
736.96	48395.55
737.15	48659.74
737.33	48155.94
737.52	48059.68
737.71	48295.20
737.89	48008.48
738.08	47973.67
738.27	47934.76
738.45	48266.53
738.64	48250.14
738.82	48366.88
739.01	47920.42
739.20	48303.39
739.38	48080.16
739.57	48319.77
739.75	48069.92
739.94	47863.08
740.13	48102.69
740.31	47922.47
740.50	48377.12
740.68	47895.85
740.87	47918.37
741.06	48360.73
741.24	48176.42
741.43	47684.90
741.61	47998.24
741.80	47598.89
741.99	47752.49
742.17	47830.31
742.36	47742.25
742.54	48018.72
742.73	47609.13
742.91	47844.65
743.10	47572.27
743.29	47813.93
743.47	48174.37
743.66	47619.37
743.84	47719.72
744.03	47668.52
744.21	47617.32
744.40	47904.04
744.59	47220.02
744.77	47580.46
744.96	47519.02
745.14	47379.76
745.33	47279.41
745.51	47019.31
745.70	47338.80
745.88	47306.03
746.07	47144.24
746.26	46953.78
746.44	47117.62
746.63	47142.19
746.81	47187.25
747.00	47111.47
747.18	47334.70
747.37	47402.28
747.55	46734.65
747.74	47383.85
747.92	46421.31
748.11	46978.36
748.29	46646.58
748.48	46476.60
748.66	46814.52
748.85	46882.10
749.03	46943.54
749.22	46572.86
749.41	46597.43
749.59	46558.52
749.78	46454.08
749.96	46202.18
750.15	46556.47
750.33	46318.91
750.52	46615.86
750.70	46523.71
750.89	46595.38
751.07	46308.67
751.26	46171.46
751.44	46105.92
751.63	46122.30
751.81	45806.92
752.00	45956.42
752.18	46445.88
752.37	46118.21
752.55	45595.98
752.74	46095.68
752.92	45880.64
753.10	45784.39
753.29	46101.82
753.47	45913.41
753.66	46067.01
753.84	45860.16
754.03	45528.39
754.21	45727.05
754.40	45780.29
754.58	45520.20
754.77	45806.92
754.95	45176.14
755.14	45393.23
755.32	45589.83
755.51	45374.80
755.69	45460.81
755.88	45430.09
756.06	45350.22
756.24	45415.76
756.43	45133.14
756.61	45217.10
756.80	45165.90
756.98	44963.15
757.17	45141.33
757.35	44891.48
757.54	44936.53
757.72	44911.95
757.90	44856.66
758.09	44737.88
758.27	45026.64
758.46	44655.96
758.64	44701.01
758.83	44596.57
759.01	44979.54
759.19	44680.53
759.38	44612.95
759.56	44862.80
759.75	44600.66
759.93	44131.68
760.12	44545.37
760.30	44563.80
760.48	44528.98
760.67	44330.33
760.85	43713.89
761.04	44283.23
761.22	44307.80
761.40	44475.74
761.59	44469.59
761.77	44197.21
761.96	44160.35
762.14	44086.62
762.32	44125.53
762.51	44008.80
762.69	44141.92
762.88	43881.83
763.06	43877.73
763.24	43924.83
763.43	43568.49
763.61	43847.01
763.80	43879.78
763.98	43492.71
764.16	42849.65
764.35	43253.10
764.53	42687.86
764.72	43322.73
764.90	43232.62
765.08	43337.07
765.27	43513.19
765.45	42931.57
765.63	42186.11
765.82	42796.40
766.00	42941.81
766.18	42978.67
766.37	42927.47
766.55	43007.34
766.74	42425.72
766.92	42171.77
767.10	42112.38
767.29	42712.44
767.47	42290.55
767.65	42472.82
767.84	42038.65
768.02	42450.30
768.20	42038.65
768.39	42212.73
768.57	42351.99
768.75	42050.94
768.94	42055.04
769.12	41981.31
769.30	42093.95
769.49	42079.61
769.67	41876.86
769.85	42208.64
770.04	41682.31
770.22	41428.36
770.40	41160.08
770.59	41571.72
770.77	41579.91
770.95	41989.50
771.14	41170.32
771.32	41184.65
771.50	40850.83
771.69	40625.56
771.87	41293.19
772.05	41340.30
772.24	40748.43
772.42	41104.78
772.60	40930.70
772.78	40740.24
772.97	41067.92
773.15	41287.05
773.33	41053.58
773.52	41143.69
773.70	40582.55
773.88	40865.17
774.07	40457.62
774.25	40715.67
774.43	40773.01
774.61	40707.47
774.80	40850.83
774.98	40469.91
775.16	40895.89
775.34	40758.67
775.53	40177.05
775.71	40998.29
775.89	40793.49
776.08	40519.06
776.26	40887.70
776.44	41006.48
776.62	40422.81
776.81	40521.11
776.99	40758.67
777.17	40699.28
777.35	40387.99
777.54	40899.98
777.72	40560.02
777.90	40723.86
778.08	40801.68
778.27	41018.77
778.45	40736.15
778.63	40955.28
778.81	40334.74
779.00	41254.28
779.18	40973.71
779.36	41268.62
779.54	40899.98
779.73	40797.59
779.91	41043.34
780.09	40996.24
780.27	40996.24
780.46	40940.94
780.64	41368.97
780.82	40986.00
781.00	40775.06
781.19	40967.57
781.37	40830.35
781.55	41198.99
781.73	41643.40
781.91	41389.45
782.10	41053.58
782.28	41301.39
782.46	41000.33
782.64	41395.59
782.82	41309.58
783.01	41145.74
783.19	41551.24
783.37	40988.05
783.55	41383.30
783.74	41196.94
783.92	40678.80
784.10	41315.72
784.28	40975.76
784.46	40914.32
784.64	40940.94
784.83	40861.07
785.01	41518.47
785.19	40988.05
785.37	41211.28
785.55	40930.70
785.74	41051.53
785.92	40836.50
786.10	40938.90
786.28	40750.48
786.46	40834.45
786.64	40375.70
786.83	40740.24
787.01	40781.20
787.19	40347.03
787.37	40711.57
787.55	40549.78
787.74	40662.42
787.92	40422.81
788.10	40385.94
788.28	40113.56
788.46	40297.88
788.64	39951.77
788.82	40568.21
789.01	40246.68
789.19	40549.78
789.37	40091.04
789.55	39914.91
789.73	39644.58
789.91	39609.76
790.09	39435.69
790.28	40041.88
790.46	39464.36
790.64	39757.22
790.82	39636.39
791.00	39560.61
791.18	39413.16
791.36	39118.25
791.55	38989.23
791.73	39124.40
791.91	38821.30
792.09	38997.42
792.27	39216.55
792.45	39034.28
792.63	38774.19
792.81	38774.19
793.00	38892.97
793.18	38753.71
793.36	38610.35
793.54	38440.37
793.72	38714.80
793.90	38487.48
794.08	37864.89
794.26	38245.82
794.44	37961.15
794.62	37985.72
794.81	38043.07
794.99	37971.39
795.17	37733.82
795.35	37705.15
795.53	37801.41
795.71	37688.77
795.89	37352.90
796.07	37246.41
796.25	37014.99
796.43	37260.74
796.61	36810.19
796.80	36853.20
796.98	37305.80
797.16	36730.32
797.34	37240.26
797.52	36734.42
797.70	36812.24
797.88	36648.40
798.06	36644.30
798.24	36466.13
798.42	36511.19
798.60	36365.78
798.78	36027.87
798.96	36654.54
799.14	36079.07
799.32	36130.26
799.51	35534.31
799.69	35943.90
799.87	36036.06
800.05	35636.70
800.23	35788.25
800.41	35341.80
800.59	35489.25
800.77	35288.55
800.95	35331.56
801.13	35012.07
801.31	35108.33
801.49	35280.36
801.67	34876.91
801.85	34960.87
802.03	34776.56
802.21	34717.17
802.39	34743.79
802.57	34457.07
802.75	34485.75
802.93	34270.71
803.11	34579.95
803.29	34467.31
803.47	34180.60
803.65	33887.74
803.83	34209.27
804.01	33959.42
804.19	33717.76
804.37	34047.48
804.55	33811.96
804.73	33775.10
804.91	33412.61
805.09	33979.90
805.27	33492.48
805.45	33703.42
805.63	33347.08
805.81	33091.08
805.99	33428.99
806.17	33304.07
806.35	33623.55
806.53	32914.95
806.71	33164.81
806.89	32892.43
807.07	32654.86
807.25	33025.54
807.43	32755.21
807.61	32986.63
807.79	32548.37
807.97	32574.99
808.15	32599.57
808.33	32439.82
808.51	32155.16
808.69	32462.35
808.87	32106.01
809.05	31821.34
809.23	32060.95
809.41	31946.26
809.59	31827.48
809.77	32042.52
809.95	31540.77
810.13	31655.45
810.31	31704.60
810.49	31684.12
810.67	31479.33
810.84	31723.04
811.02	31741.47
811.20	31284.77
811.38	31438.37
811.56	31288.87
811.74	31477.28
811.92	31106.60
812.10	31116.84
812.28	31409.70
812.46	31186.47
812.64	31135.27
812.82	30766.63
813.00	31043.11
813.18	30979.62
813.36	30811.69
813.53	30768.68
813.71	30852.65
813.89	30367.28
814.07	30750.25
814.25	30621.23
814.43	30408.24
814.61	30293.55
814.79	30375.47
814.97	30266.93
815.15	30651.95
815.33	30039.61
815.50	29986.36
815.68	30420.53
815.86	30408.24
816.04	30084.66
816.22	30033.46
816.40	30287.41
816.58	29828.66
816.76	29439.55
816.94	29476.41
817.11	30236.21
817.29	29804.09
817.47	29371.97
817.65	29574.72
817.83	29689.40
818.01	29457.98
818.19	29021.77
818.37	29320.77
818.54	29359.68
818.72	28935.75
818.90	29122.12
819.08	29314.62
819.26	29255.23
819.44	29038.15
819.62	29312.58
819.80	29363.78
819.97	29097.54
820.15	28884.55
820.33	29044.29
820.51	29042.24
820.69	28816.97
820.87	29056.58
821.05	28911.17
821.22	28677.71
821.40	28749.39
821.58	28802.63
821.76	28683.85
821.94	28585.55
822.12	28458.57
822.29	28352.08
822.47	28294.74
822.65	28456.53
822.83	28341.84
823.01	28411.47
823.19	28130.90
823.36	28106.32
823.54	27909.72
823.72	28055.12
823.90	28069.46
824.08	27700.83
824.25	27752.02
824.43	27522.65
824.61	27958.87
824.79	28280.40
824.97	27709.02
825.15	27948.63
825.32	27764.31
825.50	27749.98
825.68	27614.81
825.86	27891.29
826.04	27659.87
826.21	27375.20
826.39	27604.57
826.57	27616.86
826.75	27242.08
826.93	27631.19
827.10	27387.49
827.28	27463.26
827.46	27612.76
827.64	27268.70
827.81	27199.07
827.99	27338.33
828.17	27455.07
828.35	27182.69
828.53	27256.42
828.70	26924.65
828.88	27340.38
829.06	27328.10
829.24	27170.40
829.41	27133.54
829.59	27233.89
829.77	26773.10
829.95	26900.07
830.12	27008.61
830.30	26988.13
830.48	27031.14
830.66	26820.20
830.84	26844.77
831.01	26635.88
831.19	26762.86
831.37	26252.91
831.55	26566.25
831.72	26510.96
831.90	26754.66
832.08	26568.30
832.25	26359.41
832.43	26533.48
832.61	26375.79
832.79	26291.82
832.96	26033.78
833.14	26580.59
833.32	26658.41
833.50	26572.39
833.67	26457.71
833.85	26228.34
834.03	26265.20
834.20	26390.13
834.38	26209.90
834.56	26254.96
834.74	25949.81
834.91	26093.17
835.09	25869.94
835.27	25951.86
835.44	25863.80
835.62	25405.05
835.80	25788.02
835.98	25933.43
836.15	25777.78
836.33	25816.69
836.51	25708.15
836.68	25679.48
836.86	25704.06
837.04	25767.54
837.21	25609.85
837.39	25888.37
837.57	25937.52
837.75	25536.12
837.92	25224.83
838.10	25239.17
838.28	24907.40
838.45	25216.64
838.63	25292.41
838.81	25130.62
838.98	25077.38
839.16	25478.78
839.34	25163.39
839.51	25372.28
839.69	25112.19
839.87	25153.15
840.04	24960.64
840.22	25316.99
840.40	25308.80
840.57	24553.10
840.75	24989.31
840.93	24555.15
841.10	24858.24
841.28	25058.95
841.46	24929.92
841.63	25253.50
841.81	24794.76
841.98	24858.24
842.16	25036.42
842.34	24897.16
842.51	24585.86
842.69	24749.70
842.87	24663.69
843.04	24835.72
843.22	24694.41
843.40	24626.82
843.57	24802.95
843.75	24430.22
843.92	24469.13
844.10	24575.62
844.28	24581.77
844.45	24794.76
844.63	24583.82
844.81	24458.89
844.98	24635.02
845.16	24194.70
845.33	24505.99
845.51	24434.32
845.69	24127.12
845.86	24258.19
846.04	24235.66
846.21	24338.06
846.39	24200.85
846.57	24032.91
846.74	24055.44
846.92	24116.88
847.09	23897.75
847.27	24133.26
847.45	24147.60
847.62	24018.58
847.80	23897.75
847.97	23942.80
848.15	23881.36
848.32	23557.78
848.50	23727.77
848.68	23860.88
848.85	23574.17
849.03	23977.62
849.20	23793.30
849.38	23750.29
849.56	23651.99
849.73	23383.71
849.91	23457.43
850.08	23807.64
850.26	23232.16
850.43	23402.14
850.61	23373.47
850.78	23674.52
850.96	23551.64
851.14	23336.60
851.31	23484.06
851.49	23121.57
851.66	23301.79
851.84	23510.68
852.01	23420.57
852.19	23469.72
852.36	23209.63
852.54	23252.64
852.71	23193.25
852.89	23115.42
853.07	22863.52
853.24	23006.88
853.42	23094.94
853.59	23035.55
853.77	22949.54
853.94	22843.04
854.12	23119.52
854.29	22877.86
854.47	22869.67
854.64	22785.70
854.82	23053.98
854.99	22724.26
855.17	22810.28
855.34	22757.03
855.52	22820.52
855.69	23072.42
855.87	22808.23
856.04	22384.30
856.22	22726.31
856.39	22455.98
856.57	22521.51
856.74	22519.46
856.92	22466.22
857.09	22501.03
857.27	22488.74
857.44	22505.13
857.62	22433.45
857.79	22398.63
857.97	22283.95
858.14	22462.12
858.32	22316.72
858.49	22351.53
858.67	22187.69
858.84	22208.17
859.02	22222.51
859.19	22048.43
859.37	22136.49
859.54	22128.30
859.72	22267.56
859.89	22173.36
860.06	22056.62
860.24	21960.37
860.41	21788.34
860.59	21995.18
860.76	21931.70
860.94	21556.92
861.11	21978.80
861.29	21753.52
861.46	21950.13
861.64	21661.37
861.81	21726.90
861.98	21712.56
862.16	21829.30
862.33	21530.30
862.51	21538.49
862.68	21784.24
862.86	21354.17
863.03	21391.03
863.21	21546.68
863.38	21540.54
863.55	21378.75
863.73	21661.37
863.90	21481.14
864.08	21098.17
864.25	21520.06
864.43	21429.94
864.60	21407.42
864.77	21200.57
864.95	21350.07
865.12	20930.24
865.30	21262.01
865.47	21161.66
865.64	21223.10
865.82	20999.87
865.99	21053.12
866.17	21200.57
866.34	20946.62
866.51	20799.17
866.69	21022.40
866.86	20741.83
867.04	20876.99
867.21	20963.01
867.38	20772.55
867.56	20762.31
867.73	20623.05
867.91	20426.44
868.08	20453.06
868.25	20612.81
868.43	20741.83
868.60	20598.47
868.78	20526.79
868.95	20483.78
869.12	20360.91
869.30	20430.54
869.47	20305.61
869.64	20451.02
869.82	20154.06
869.99	20205.26
870.16	20281.03
870.34	20225.74
870.51	20156.11
870.69	19914.45
870.86	20078.29
871.03	20008.65
871.21	19936.98
871.38	20018.89
871.55	19801.81
871.73	19887.82
871.90	19678.93
872.07	19785.43
872.25	19455.70
872.42	19818.19
872.59	19752.66
872.77	19621.59
872.94	19754.71
873.11	19717.84
873.29	19551.96
873.46	19345.11
873.63	19410.65
873.81	19349.21
873.98	19310.30
874.15	19257.05
874.33	19082.97
874.50	19224.28
874.67	19451.61
874.85	19353.30
875.02	19300.06
875.19	18960.09
875.37	18947.81
875.54	19166.94
875.71	19097.31
875.88	19033.82
876.06	19156.70
876.23	18812.64
876.40	18939.62
876.58	18597.60
876.75	18882.27
876.92	18753.25
877.10	18818.78
877.27	18687.71
877.44	18523.88
877.61	18568.93
877.79	18523.88
877.96	18437.86
878.13	18568.93
878.31	18278.12
878.48	18249.45
878.65	18560.74
878.82	17977.07
879.00	18276.07
879.17	18218.73
879.34	18323.18
879.51	18102.00
879.69	18196.20
879.86	17964.78
880.03	17843.95
880.21	17747.70
880.38	18022.12
880.55	18085.61
880.72	17919.73
880.90	17956.59
881.07	17575.67
881.24	17784.56
881.41	17835.76
881.59	17696.50
881.76	17575.67
881.93	17594.10
882.10	17510.13
882.28	17547.00
882.45	17762.03
882.62	17585.91
882.79	17733.36
882.96	17424.12
883.14	17555.19
883.31	17704.69
883.48	17397.49
883.65	17391.35
883.83	17528.56
884.00	17481.46
884.17	17387.25
884.34	17651.44
884.51	17452.79
884.69	17286.90
884.86	17432.31
885.03	17422.07
885.20	17231.61
885.38	17303.29
885.55	16955.13
885.72	17217.27
885.89	16953.09
886.06	17143.55
886.24	17024.76
886.41	17110.78
886.58	17090.30
886.75	17243.90
886.92	16621.31
887.10	17084.16
887.27	17032.96
887.44	16842.50
887.61	17028.86
887.78	16678.66
887.95	16836.35
888.13	16772.86
888.30	16686.85
888.47	16639.75
888.64	16733.95
888.81	16457.48
888.99	16414.47
889.16	16260.87
889.33	16475.91
889.50	16295.69
889.67	16432.90
889.84	16181.00
890.01	16615.17
890.19	16365.32
890.36	16606.98
890.53	16592.64
890.70	16246.54
890.87	16520.96
891.04	16148.23
891.22	16047.88
891.39	15992.59
891.56	16185.10
891.73	15875.85
891.90	15974.16
892.07	15922.96
892.24	15894.29
892.42	15685.39
892.59	15771.41
892.76	15843.09
892.93	15968.01
893.10	15908.62
893.27	15789.84
893.44	15847.18
893.61	15789.84
893.79	15890.19
893.96	15552.27
894.13	15812.37
894.30	15752.98
894.47	15802.13
894.64	15644.43
894.81	15785.74
894.98	15804.17
895.15	15757.07
895.33	15617.81
895.50	15550.23
895.67	15669.01
895.84	15578.90
896.01	15380.25
896.18	15503.12
896.35	15669.01
896.52	15476.50
896.69	15550.23
896.86	15738.64
897.04	15599.38
897.21	15628.05
897.38	15572.75
897.55	15677.20
897.72	15709.97
897.89	15447.83
898.06	15638.29
898.23	15613.71
898.40	15413.01
898.57	15539.99
898.74	15580.95
898.91	15378.20
899.08	15705.87
899.26	15466.26
899.43	15445.78
899.60	15417.11
899.77	15501.08
899.94	15429.40
900.11	15175.45
900.28	15582.99
900.45	15220.50
900.62	15372.05
900.79	15480.60
900.96	15318.81
901.13	15509.27
901.30	15222.55
901.47	15281.94
901.64	15337.24
901.81	15224.60
901.98	15310.61
902.15	15003.42
902.32	15355.67
902.49	15490.84
902.66	15363.86
902.83	15390.49
903.01	15177.50
903.18	15259.42
903.35	15322.90
903.52	15224.60
903.69	15390.49
903.86	15322.90
904.03	15208.22
904.20	15263.51
904.37	15259.42
904.54	15228.70
904.71	15157.02
904.88	15281.94
905.05	14995.23
905.22	15257.37
905.39	14946.08
905.56	15333.14
905.73	15204.12
905.90	15314.71
906.07	15327.00
906.24	15445.78
906.41	15240.98
906.58	15060.76
906.75	15232.79
906.92	14896.92
907.09	14976.80
907.26	15177.50
907.43	15204.12
907.60	15157.02
907.77	15290.13
907.93	15249.18
908.10	15089.43
908.27	15275.80
908.44	15060.76
908.61	14876.44
908.78	15079.19
908.95	14952.22
909.12	14812.96
909.29	15134.49
909.46	15114.01
909.63	14972.70
909.80	14952.22
909.97	15089.43
910.14	14759.71
910.31	14939.93
910.48	15042.33
910.65	14933.79
910.82	14642.98
910.99	14864.16
911.16	14792.48
911.33	14753.57
911.50	14661.41
911.66	14610.21
911.83	14991.13
912.00	14655.26
912.17	14595.87
912.34	14561.06
912.51	14767.90
912.68	14587.68
912.85	14509.86
913.02	14659.36
913.19	14540.58
913.36	14540.58
913.53	14522.15
913.70	14339.88
913.86	14532.39
914.03	14468.90
914.20	14257.96
914.37	14303.01
914.54	14241.57
914.71	14311.21
914.88	14272.29
915.05	14178.09
915.22	14063.40
915.39	14190.38
915.55	14104.36
915.72	14014.25
915.89	14028.59
916.06	14147.37
916.23	13987.63
916.40	13801.26
916.57	13745.97
916.74	13766.45
916.91	13713.20
917.07	13854.51
917.24	13705.01
917.41	13633.33
917.58	13606.70
917.75	13711.15
917.92	13592.37
918.09	13584.18
918.26	13578.03
918.42	13778.73
918.59	13526.83
918.76	13492.02
918.93	13299.51
919.10	13207.35
919.27	13334.32
919.44	13301.56
919.60	13360.95
919.77	13406.00
919.94	13209.40
920.11	13078.33
920.28	13115.19
920.45	13092.66
920.61	12949.31
920.78	13145.91
920.95	12840.76
921.12	12873.53
921.29	12830.52
921.46	12726.08
921.62	12476.23
921.79	12791.61
921.96	12687.17
922.13	12701.50
922.30	12418.88
922.47	12349.25
922.63	12484.42
922.80	12435.27
922.97	12234.57
923.14	12048.20
923.31	12347.20
923.47	12037.96
923.64	12496.71
923.81	12095.30
923.98	12152.65
924.15	11915.08
924.32	12050.25
924.48	12181.32
924.65	12316.48
924.82	11685.71
924.99	11765.58
925.15	11890.51
925.32	11910.99
925.49	11554.64
925.66	11622.22
925.83	11669.33
925.99	11616.08
926.16	11427.67
926.33	11403.09
926.50	11212.63
926.67	11743.05
926.83	11312.98
927.00	11226.96
927.17	11241.30
927.34	11102.04
927.50	11081.56
927.67	11052.89
927.84	11329.36
928.01	11208.53
928.17	11028.31
928.34	10932.06
928.51	10757.98
928.68	10817.37
928.84	10755.93
929.01	10706.78
929.18	10626.91
929.35	10618.72
929.51	10719.07
929.68	10487.65
929.85	10309.47
930.02	10639.20
930.18	10534.75
930.35	10542.94
930.52	10481.50
930.69	10364.77
930.85	10119.01
931.02	10110.82
931.19	10194.79
931.36	10069.86
931.52	9942.89
931.69	10086.25
931.86	9979.75
932.02	9914.22
932.19	9957.22
932.36	9860.97
932.53	9914.22
932.69	9813.87
932.86	9783.15
933.03	9686.89
933.19	9564.01
933.36	9627.50
933.53	9584.49
933.70	9447.28
933.86	9545.58
934.03	9531.25
934.20	9254.77
934.36	9281.39
934.53	9254.77
934.70	9035.64
934.86	9168.76
935.03	9109.36
935.20	9015.16
935.36	8867.70
935.53	8834.94
935.70	8875.90
935.86	8724.35
936.03	8845.18
936.20	8384.38
936.36	8456.06
936.53	8279.94
936.70	8263.55
936.86	8253.31
937.03	8216.45
937.20	8032.13
937.36	8052.61
937.53	7987.08
937.70	7909.26
937.86	7645.07
938.03	7704.46
938.20	7718.79
938.36	7557.00
938.53	7544.72
938.70	7241.62
938.86	7225.23
939.03	7278.48
939.20	7139.22
939.36	7219.09
939.53	7061.40
939.70	7094.16
939.86	6870.94
940.03	6823.83
940.19	6739.87
940.36	6662.04
940.53	6690.71
940.69	6592.41
940.86	6586.27
941.03	6309.79
941.19	6356.90
941.36	6145.95
941.52	6303.65
941.69	6197.15
941.86	6057.89
942.02	6107.04
942.19	5965.73
942.35	5955.49
942.52	5885.86
942.69	5805.99
942.85	5844.90
943.02	5760.94
943.18	5924.77
943.35	5781.42
943.52	5650.35
943.68	5521.32
943.85	5582.76
944.01	5578.67
944.18	5466.03
944.35	5578.67
944.51	5267.38
944.68	5373.87
944.84	5449.64
945.01	5296.05
945.17	5267.38
945.34	5447.60
945.51	5269.42
945.67	5150.64
945.84	5402.54
946.00	5250.99
946.17	5124.02
946.33	5033.91
946.50	5175.22
946.67	5224.37
946.83	5068.72
947.00	5234.61
947.16	5240.75
947.33	5185.46
947.49	5177.26
947.66	5091.25
947.82	5085.11
947.99	5214.13
948.16	5222.32
948.32	5259.18
948.49	5261.23
948.65	5189.55
948.82	5283.76
948.98	5179.31
949.15	5007.28
949.31	5349.29
949.48	5253.04
949.64	5105.59
949.81	5273.52
949.97	5148.59
950.14	5246.90
950.30	5285.81
950.47	5337.01
950.63	5197.74
950.80	5289.90
950.96	5238.70
951.13	5257.14
951.30	5150.64
951.46	5187.50
951.63	5386.16
951.79	5386.16
951.96	5318.57
952.12	5216.18
952.29	5349.29
952.45	5203.89
952.62	5234.61
952.78	5261.23
952.94	5371.82
953.11	5115.83
953.27	5255.09
953.44	5371.82
953.60	5406.64
953.77	5320.62
953.93	5302.19
954.10	5220.27
954.26	5210.03
954.43	5312.43
954.59	5320.62
954.76	5406.64
954.92	5298.10
955.09	5277.62
955.25	5357.49
955.42	5255.09
955.58	5425.07
955.75	5304.24
955.91	5369.77
956.07	5318.57
956.24	5402.54
956.40	5269.42
956.57	5441.45
956.73	5398.45
956.90	5312.43
957.06	5404.59
957.23	5375.92
957.39	5363.63
957.56	5468.08
957.72	5171.12
957.88	5398.45
958.05	5547.95
958.21	5402.54
958.38	5425.07
958.54	5298.10
958.71	5420.97
958.87	5410.73
959.03	5337.01
959.20	5306.29
959.36	5402.54
959.53	5404.59
959.69	5314.48
959.85	5515.18
960.02	5224.37
960.18	5312.43
960.35	5267.38
960.51	5517.23
960.68	5369.77
960.84	5455.79
961.00	5373.87
961.17	5269.42
961.33	5294.00
961.50	5355.44
961.66	5451.69
961.82	5418.93
961.99	5476.27
962.15	5285.81
962.31	5404.59
962.48	5472.17
962.64	5318.57
962.81	5355.44
962.97	5267.38
963.13	5318.57
963.30	5367.73
963.46	5167.03
963.62	5306.29
963.79	5277.62
963.95	5197.74
964.12	5386.16
964.28	5218.22
964.44	5363.63
964.61	5377.97
964.77	5320.62
964.93	5400.49
965.10	5234.61
965.26	5181.36
965.42	5392.30
965.59	5148.59
965.75	5162.93
965.92	5238.70
966.08	5302.19
966.24	5189.55
966.41	5109.68
966.57	5312.43
966.73	5232.56
966.90	5199.79
967.06	5109.68
967.22	5111.73
967.39	5068.72
967.55	5072.82
967.71	5191.60
967.88	5164.98
968.04	5076.91
968.20	5091.25
968.37	5115.83
968.53	5025.72
968.69	5124.02
968.85	5035.96
969.02	5167.03
969.18	5091.25
969.34	5197.74
969.51	5074.87
969.67	4951.99
969.83	5124.02
970.00	5154.74
970.16	5134.26
970.32	5119.92
970.48	5109.68
970.65	4970.42
970.81	4929.46
970.97	4999.09
971.14	4960.18
971.30	5115.83
971.46	4904.89
971.63	4995.00
971.79	5038.00
971.95	4954.04
972.11	5019.57
972.28	4972.47
972.44	5074.87
972.60	4900.79
972.76	4976.56
972.93	4890.55
973.09	4941.75
973.25	4898.74
973.42	4904.89
973.58	4980.66
973.74	4835.25
973.90	4919.22
974.07	4808.63
974.23	4810.68
974.39	4939.70
974.55	4745.14
974.72	4814.77
974.88	4728.76
975.04	4847.54
975.20	4753.34
975.37	4706.23
975.53	4704.18
975.69	4716.47
975.85	4736.95
976.01	4609.98
976.18	4927.41
976.34	4624.31
976.50	4718.52
976.66	4679.61
976.83	4698.04
976.99	4607.93
977.15	4609.98
977.31	4534.20
977.47	4673.46
977.64	4655.03
977.80	4612.03
977.96	4497.34
978.12	4607.93
978.29	4577.21
978.45	4487.10
978.61	4489.15
978.77	4587.45
978.93	4513.72
979.10	4374.46
979.26	4609.98
979.42	4470.72
979.58	4319.17
979.74	4446.14
979.91	4501.44
980.07	4403.13
980.23	4337.60
980.39	4417.47
980.55	4388.80
980.71	4323.26
980.88	4302.78
981.04	4374.46
981.20	4288.45
981.36	4358.08
981.52	4431.80
981.68	4343.74
981.85	4401.08
982.01	4284.35
982.17	4384.70
982.33	4188.10
982.49	4372.41
982.65	4214.72
982.82	4282.30
982.98	4308.93
983.14	4214.72
983.30	4321.21
983.46	4425.66
983.62	4288.45
983.79	4270.01
983.95	4239.30
984.11	4149.18
984.27	4200.38
984.43	4186.05
984.59	4136.90
984.75	4249.54
984.91	4147.14
985.08	4136.90
985.24	3971.01
985.40	4061.12
985.56	4136.90
985.72	4192.19
985.88	4194.24
986.04	4161.47
986.20	3991.49
986.37	4063.17
986.53	4024.26
986.69	3997.64
986.85	4009.92
987.01	4093.89
987.17	4063.17
987.33	4052.93
987.49	3909.57
987.65	4163.52
987.82	3919.81
987.98	3987.40
988.14	3901.38
988.30	3948.48
988.46	3882.95
988.62	3956.68
988.78	3790.79
988.94	3919.81
989.10	3862.47
989.26	3792.84
989.42	3876.80
989.59	3803.08
989.75	3823.56
989.91	3827.65
990.07	3579.85
990.23	3764.17
990.39	3762.12
990.55	3796.93
990.71	3739.59
990.87	3841.99
991.03	3809.22
991.19	3719.11
991.35	3788.74
991.51	3823.56
991.67	3827.65
991.83	3813.32
992.00	3792.84
992.16	3751.88
992.32	3749.83
992.48	3794.89
992.64	3655.62
992.80	3780.55
992.96	3657.67
993.12	3727.30
993.28	3688.39
993.44	3635.14
993.60	3669.96
993.76	3731.40
993.92	3669.96
994.08	3760.07
994.24	3571.66
994.40	3536.84
994.56	3606.47
994.72	3592.14
994.88	3518.41
995.04	3563.47
995.20	3534.79
995.36	3524.55
995.52	3561.42
995.68	3459.02
995.84	3383.24
996.00	3549.13
996.16	3456.97
996.32	3403.72
996.48	3346.38
996.64	3639.24
996.80	3381.20
996.96	3585.99
997.12	3495.88
997.28	3395.53
997.44	3448.78
997.60	3385.29
997.76	3418.06
997.92	3407.82
998.08	3461.07
998.24	3354.57
998.40	3307.47
998.56	3362.76
998.72	3299.28
998.88	3315.66
999.04	3383.24
999.20	3411.92
999.36	3219.41
999.52	3424.20
999.68	3405.77
999.84	3379.15
1000.00	3330.00
1000.16	3368.91
1000.32	3243.98
1000.48	3342.28
1000.64	3227.60
1000.80	3133.39
1000.95	3076.05
1001.11	3174.35
1001.27	3184.59
1001.43	3221.45
1001.59	3231.69
1001.75	3196.88
1001.91	3272.65
1002.07	3108.82
1002.23	3088.34
1002.39	3080.14
1002.55	3215.31
1002.71	3192.78
1002.87	3168.21
1003.03	3131.34
1003.19	3121.10
1003.34	3164.11
1003.50	3074.00
1003.66	3139.54
1003.82	3221.45
1003.98	3002.32
1004.14	3157.97
1004.30	3004.37
1004.46	3127.25
1004.62	2990.03
1004.78	2928.60
1004.94	3033.04
1005.09	3139.54
1005.25	3086.29
1005.41	3114.96
1005.57	3024.85
1005.73	2998.23
1005.89	2955.22
1006.05	3102.67
1006.21	2985.94
1006.37	3043.28
1006.52	2969.55
1006.68	2885.59
1006.84	2912.21
1007.00	2805.72
1007.16	2969.55
1007.32	2883.54
1007.48	2803.67
1007.64	2990.03
1007.79	2887.64
1007.95	2916.31
1008.11	2957.27
1008.27	2826.20
1008.43	2897.88
1008.59	2797.53
1008.75	2908.12
1008.91	2947.03
1009.06	2768.85
1009.22	2795.48
1009.38	2852.82
1009.54	2871.25
1009.70	2803.67
1009.86	2865.11
1010.01	2926.55
1010.17	2760.66
1010.33	2797.53
1010.49	2705.37
1010.65	2844.63
1010.81	2711.51
1010.96	2768.85
1011.12	2768.85
1011.28	2709.46
1011.44	2840.53
1011.60	2639.83
1011.76	2736.09
1011.91	2805.72
1012.07	2705.37
1012.23	2711.51
1012.39	2602.97
1012.55	2707.41
1012.71	2693.08
1012.86	2592.73
1013.02	2717.65
1013.18	2650.07
1013.34	2607.06
1013.50	2639.83
1013.65	2658.26
1013.81	2555.86
1013.97	2645.98
1014.13	2617.30
1014.29	2617.30
1014.44	2648.02
1014.60	2598.87
1014.76	2629.59
1014.92	2605.02
1015.07	2635.74
1015.23	2641.88
1015.39	2510.81
1015.55	2568.15
1015.71	2545.63
1015.86	2611.16
1016.02	2564.06
1016.18	2480.09
1016.34	2535.39
1016.49	2609.11
1016.65	2543.58
1016.81	2465.75
1016.97	2500.57
1017.12	2543.58
1017.28	2383.84
1017.44	2394.08
1017.60	2490.33
1017.75	2426.84
1017.91	2457.56
1018.07	2504.67
1018.23	2492.38
1018.38	2432.99
1018.54	2422.75
1018.70	2461.66
1018.86	2367.45
1019.01	2351.07
1019.17	2480.09
1019.33	2406.36
1019.49	2541.53
1019.64	2465.75
1019.80	2383.84
1019.96	2410.46
1020.12	2416.60
1020.27	2410.46
1020.43	2373.60
1020.59	2469.85
1020.74	2437.08
1020.90	2437.08
1021.06	2392.03
1021.22	2428.89
1021.37	2437.08
1021.53	2291.68
1021.69	2396.12
1021.84	2271.20
1022.00	2367.45
1022.16	2353.12
1022.31	2297.82
1022.47	2342.88
1022.63	2367.45
1022.79	2263.01
1022.94	2301.92
1023.10	2455.51
1023.26	2254.81
1023.41	2174.94
1023.57	2256.86
1023.73	2306.01
1023.88	2220.00
1024.04	2211.81
1024.20	2291.68
1024.35	2146.27
1024.51	2336.73
1024.67	2183.13
1024.82	2357.21
1024.98	2183.13
1025.14	2312.16
1025.29	2275.29
1025.45	2332.64
1025.61	2176.99
1025.76	2215.90
1025.92	2189.28
1026.08	2273.25
1026.23	2185.18
1026.39	2254.81
1026.55	2234.33
1026.70	2136.03
1026.86	2215.90
1027.02	2242.53
1027.17	2226.14
1027.33	2187.23
1027.48	2123.74
1027.64	2183.13
1027.80	2217.95
1027.95	2160.61
1028.11	2088.93
1028.27	2207.71
1028.42	2154.46
1028.58	2060.26
1028.73	2062.30
1028.89	2031.58
1029.05	2181.09
1029.20	2117.60
>>>>>End Processed Spectral Data<<<<<
