SpectraSuite Data File
++++++++++++++++++++++++++++++++++++
Date: Fri Jun 02 14:47:54 CEST 2017
User: INFO_000
Dark Spectrum Present: No
Reference Spectrum Present: No
Number of Sampled Component Spectra: 1
Spectrometers: USB4H00879
Integration Time (usec): 80000 (USB4H00879)
Spectra Averaged: 1 (USB4H00879)
Boxcar Smoothing: 0 (USB4H00879)
Correct for Electrical Dark: No (USB4H00879)
Strobe/Lamp Enabled: No (USB4H00879)
Correct for Detector Non-linearity: No (USB4H00879)
Correct for Stray Light: No (USB4H00879)
Number of Pixels in Processed Spectrum: 3648
>>>>>Begin Processed Spectral Data<<<<<
345.13	1271.79
345.34	1271.79
345.56	1271.79
345.78	1275.88
345.99	1251.31
346.21	1660.90
346.42	1675.24
346.64	1628.14
346.86	1814.50
347.07	1679.33
347.29	1673.19
347.50	1624.04
347.72	1695.72
347.94	1695.72
348.15	1550.31
348.37	1603.56
348.59	1669.09
348.80	1613.80
349.02	1654.76
349.23	1771.49
349.45	1781.73
349.67	1785.83
349.88	1779.68
350.10	1920.99
350.31	1777.64
350.53	1689.57
350.75	1890.28
350.96	1685.48
351.18	1765.35
351.39	1783.78
351.61	1730.53
351.82	1810.40
352.04	1802.21
352.26	1722.34
352.47	1888.23
352.69	1853.41
352.90	1724.39
353.12	1771.49
353.34	1767.40
353.55	1904.61
353.77	1808.36
353.98	1783.78
354.20	1779.68
354.41	1837.03
354.63	1816.55
354.85	2015.20
355.06	1822.69
355.28	1712.10
355.49	1808.36
355.71	1726.44
355.92	1720.29
356.14	1824.74
356.35	1810.40
356.57	1738.73
356.79	1849.32
357.00	1800.16
357.22	2035.68
357.43	1720.29
357.65	1871.84
357.86	1781.73
358.08	1810.40
358.29	1865.70
358.51	1918.95
358.72	1837.03
358.94	1908.71
359.16	1839.08
359.37	1802.21
359.59	1841.12
359.80	1894.37
360.02	1814.50
360.23	1867.75
360.45	2015.20
360.66	1855.46
360.88	1775.59
361.09	1796.07
361.31	1869.80
361.52	1839.08
361.74	1980.39
361.95	1939.43
362.17	1781.73
362.38	1972.19
362.60	1920.99
362.81	1947.62
363.03	1787.88
363.24	1863.65
363.46	2076.64
363.67	1871.84
363.89	1892.32
364.10	1847.27
364.32	1896.42
364.53	1880.04
364.75	1834.98
364.96	1875.94
365.18	1996.77
365.39	1857.51
365.61	1888.23
365.82	2041.82
366.04	1949.67
366.25	1783.78
366.47	1910.75
366.68	1906.66
366.90	1902.56
367.11	2025.44
367.33	1933.28
367.54	2023.39
367.76	1904.61
367.97	2060.26
368.19	1910.75
368.40	2027.49
368.62	1935.33
368.83	1820.64
369.05	1986.53
369.26	1896.42
369.48	1896.42
369.69	1847.27
369.91	1902.56
370.12	1941.47
370.33	2060.26
370.55	1869.80
370.76	1961.95
370.98	2017.25
371.19	1910.75
371.41	2000.87
371.62	2033.63
371.84	1884.13
372.05	2058.21
372.27	1925.09
372.48	2019.30
372.69	2058.21
372.91	2156.51
373.12	2088.93
373.34	2007.01
373.55	2072.54
373.77	2129.89
373.98	2025.44
374.20	2133.98
374.41	2183.13
374.62	2025.44
374.84	2144.22
375.05	2052.06
375.27	2107.36
375.48	2166.75
375.70	2136.03
375.91	2144.22
376.12	2246.62
376.34	2084.83
376.55	2205.66
376.77	2117.60
376.98	1986.53
377.19	2068.45
377.41	2117.60
377.62	2199.52
377.84	2144.22
378.05	2271.20
378.27	2099.17
378.48	2279.39
378.69	2324.44
378.91	2291.68
379.12	2172.89
379.34	2140.13
379.55	2164.70
379.76	2207.71
379.98	2222.05
380.19	2199.52
380.41	2281.44
380.62	2299.87
380.83	2166.75
381.05	2107.36
381.26	2406.36
381.47	2170.85
381.69	2203.61
381.90	2355.16
382.12	2215.90
382.33	2183.13
382.54	2215.90
382.76	2256.86
382.97	2263.01
383.19	2070.50
383.40	2357.21
383.61	2359.26
383.83	2193.37
384.04	2297.82
384.25	2338.78
384.47	2312.16
384.68	2310.11
384.89	2334.68
385.11	2287.58
385.32	2349.02
385.54	2443.23
385.75	2293.72
385.96	2394.08
386.18	2443.23
386.39	2297.82
386.60	2420.70
386.82	2408.41
387.03	2351.07
387.24	2402.27
387.46	2537.43
387.67	2480.09
387.88	2496.47
388.10	2422.75
388.31	2346.97
388.52	2574.30
388.74	2508.76
388.95	2463.71
389.16	2437.08
389.38	2473.95
389.59	2564.06
389.80	2664.41
390.02	2506.71
390.23	2650.07
390.44	2453.47
390.66	2549.72
390.87	2494.43
391.08	2584.54
391.30	2598.87
391.51	2490.33
391.72	2582.49
391.94	2609.11
392.15	2621.40
392.36	2574.30
392.58	2531.29
392.79	2764.76
393.00	2658.26
393.22	2598.87
393.43	2744.28
393.64	2772.95
393.85	2805.72
394.07	2633.69
394.28	2719.70
394.49	2719.70
394.71	2734.04
394.92	2834.39
395.13	2631.64
395.35	2629.59
395.56	2658.26
395.77	2691.03
395.98	2766.81
396.20	2791.38
396.41	2822.10
396.62	2918.36
396.84	2756.57
397.05	2781.14
397.26	2840.53
397.47	2955.22
397.69	2797.53
397.90	3026.90
398.11	3000.27
398.32	2836.44
398.54	2848.72
398.75	2836.44
398.96	2883.54
399.18	3016.66
399.39	3014.61
399.60	3076.05
399.81	2940.88
400.03	2883.54
400.24	3235.79
400.45	2938.84
400.66	3076.05
400.88	2920.40
401.09	3117.01
401.30	3006.42
401.51	3121.10
401.73	3123.15
401.94	3102.67
402.15	3143.63
402.36	3112.91
402.58	3166.16
402.79	3186.64
403.00	3055.57
403.21	3198.93
403.43	3219.41
403.64	3309.52
403.85	3157.97
404.06	3166.16
404.27	3092.43
404.49	3205.07
404.70	3141.58
404.91	3313.61
405.12	3264.46
405.34	3215.31
405.55	3379.15
405.76	3090.38
405.97	3321.81
406.19	3205.07
406.40	3227.60
406.61	3327.95
406.82	3325.90
407.03	3262.41
407.25	3262.41
407.46	3362.76
407.67	3405.77
407.88	3405.77
408.09	3340.24
408.31	3239.89
408.52	3323.85
408.73	3334.09
408.94	3276.75
409.15	3434.44
409.37	3526.60
409.58	3518.41
409.79	3461.07
410.00	3532.75
410.21	3391.44
410.43	3405.77
410.64	3391.44
410.85	3436.49
411.06	3542.99
411.27	3512.27
411.48	3577.80
411.70	3497.93
411.91	3565.51
412.12	3588.04
412.33	3487.69
412.54	3536.84
412.76	3717.06
412.97	3653.58
413.18	3481.55
413.39	3577.80
413.60	3706.82
413.81	3649.48
414.03	3639.24
414.24	3567.56
414.45	3725.26
414.66	3647.43
414.87	3614.66
415.08	3672.01
415.30	3698.63
415.51	3776.45
415.72	3801.03
415.93	3721.16
416.14	3803.08
416.35	3780.55
416.56	3786.69
416.78	3809.22
416.99	3805.13
417.20	3837.89
417.41	3827.65
417.62	3829.70
417.83	3911.62
418.04	3889.09
418.26	3960.77
418.47	3827.65
418.68	3913.67
418.89	3952.58
419.10	4186.05
419.31	3936.20
419.52	3948.48
419.73	4026.31
419.95	4128.70
420.16	4016.07
420.37	3942.34
420.58	4016.07
420.79	3934.15
421.00	4009.92
421.21	4042.69
421.42	3997.64
421.63	4032.45
421.85	4169.66
422.06	4235.20
422.27	4163.52
422.48	4177.86
422.69	4335.55
422.90	4247.49
423.11	4206.53
423.32	4407.23
423.53	4435.90
423.75	4159.42
423.96	4493.24
424.17	4415.42
424.38	4358.08
424.59	4399.04
424.80	4452.28
425.01	4427.71
425.22	4317.12
425.43	4448.19
425.64	4724.66
425.85	4554.68
426.06	4530.11
426.28	4413.37
426.49	4501.44
426.70	4450.24
426.91	4679.61
427.12	4706.23
427.33	4589.50
427.54	4536.25
427.75	4800.44
427.96	4771.77
428.17	4722.62
428.38	4695.99
428.59	4747.19
428.80	4802.49
429.01	4849.59
429.23	4923.32
429.44	5042.10
429.65	5093.30
429.86	4980.66
430.07	4923.32
430.28	4870.07
430.49	5062.58
430.70	5033.91
430.91	5189.55
431.12	4865.97
431.33	5119.92
431.54	5121.97
431.75	5109.68
431.96	5124.02
432.17	5105.59
432.38	5070.77
432.59	5334.96
432.80	5197.74
433.01	5326.77
433.22	5285.81
433.43	5222.32
433.64	5218.22
433.85	5216.18
434.06	5259.18
434.27	5267.38
434.49	5369.77
434.70	5484.46
434.91	5500.84
435.12	5480.36
435.33	5412.78
435.54	5601.19
435.75	5296.05
435.96	5414.83
436.17	5476.27
436.38	5529.52
436.59	5525.42
436.80	5418.93
437.01	5642.15
437.22	5734.31
437.43	5597.10
437.64	5556.14
437.85	5703.59
438.06	5869.48
438.27	5521.32
438.48	5713.83
438.69	5820.33
438.90	5816.23
439.11	5750.70
439.32	5824.42
439.53	5654.44
439.74	5914.53
439.95	5906.34
440.16	5785.51
440.37	5867.43
440.57	5664.68
440.78	5955.49
440.99	6041.51
441.20	5883.81
441.41	5869.48
441.62	6039.46
441.83	5789.61
442.04	5992.36
442.25	6049.70
442.46	5965.73
442.67	5941.16
442.88	6401.95
443.09	5918.63
443.30	6107.04
443.51	6053.80
443.72	6436.77
443.93	6115.23
444.14	6244.26
444.35	6012.84
444.56	6287.26
444.77	6279.07
444.98	6326.18
445.19	6291.36
445.40	6320.03
445.61	6291.36
445.81	6416.29
446.02	6502.30
446.23	6457.25
446.44	6193.06
446.65	6334.37
446.86	6432.67
447.07	6465.44
447.28	6766.49
447.49	6610.84
447.70	6526.88
447.91	6678.43
448.12	6496.16
448.33	6752.15
448.54	6594.46
448.74	6616.99
448.95	6641.56
449.16	6674.33
449.37	6971.29
449.58	6770.58
449.79	6950.81
450.00	6616.99
450.21	6764.44
450.42	6956.95
450.63	6979.48
450.84	6903.70
451.05	6961.05
451.25	6969.24
451.46	6981.53
451.67	7098.26
451.88	7221.14
452.09	7243.67
452.30	6877.08
452.51	7116.69
452.72	7249.81
452.93	7473.04
453.13	7143.32
453.34	7106.45
453.55	7198.61
453.76	7337.87
453.97	7595.92
454.18	7462.80
454.39	7550.86
454.60	7393.17
454.81	7497.61
455.01	7569.29
455.22	7225.23
455.43	7538.57
455.64	7792.52
455.85	7845.77
456.06	7915.40
456.27	7698.31
456.48	7636.88
456.68	7726.99
456.89	7872.39
457.10	8013.70
457.31	7894.92
457.52	7909.26
457.73	8023.94
457.94	8368.00
458.14	7810.95
458.35	8368.00
458.56	8120.20
458.77	8032.13
458.98	8243.07
459.19	8284.03
459.39	8394.62
459.60	8288.13
459.81	8234.88
460.02	8474.49
460.23	8408.96
460.44	8705.92
460.65	8808.31
460.85	8732.54
461.06	8685.44
461.27	8585.08
461.48	8716.16
461.69	8890.23
461.89	8437.63
462.10	8980.34
462.31	8728.44
462.52	8810.36
462.73	8929.14
462.94	9011.06
463.14	8933.24
463.35	8843.13
463.56	9394.03
463.77	9385.84
463.98	9054.07
464.18	9158.52
464.39	9478.00
464.60	9482.10
464.81	9371.50
465.02	9281.39
465.23	9654.12
465.43	9457.52
465.64	9942.89
465.85	9600.88
466.06	9564.01
466.27	10012.52
466.47	9764.72
466.68	9758.57
466.89	9963.37
467.10	10127.21
467.30	9791.34
467.51	10205.03
467.72	10426.21
467.93	10106.73
468.14	10358.63
468.34	10499.94
468.55	10444.64
468.76	10440.54
468.97	10317.67
469.17	10522.46
469.38	10618.72
469.59	10870.62
469.80	10622.81
470.01	10583.90
470.21	10905.43
470.42	10907.48
470.63	10876.76
470.84	11026.26
471.04	11186.01
471.25	11149.14
471.46	11118.42
471.67	11415.38
471.87	11304.79
472.08	11534.16
472.29	11566.93
472.50	11417.43
472.70	11372.37
472.91	11638.61
473.12	11675.47
473.33	11741.00
473.53	11896.65
473.74	12197.70
473.95	12048.20
474.16	12257.09
474.36	12349.25
474.57	12404.55
474.78	12717.89
474.99	12496.71
475.19	12355.40
475.40	12810.04
475.61	12619.58
475.81	12824.38
476.02	13102.90
476.23	12781.37
476.44	13033.27
476.64	13209.40
476.85	13485.87
477.06	13371.19
477.27	13727.53
477.47	13733.68
477.68	13717.29
477.89	13850.41
478.09	13686.58
478.30	13721.39
478.51	14012.20
478.71	14075.69
478.92	14190.38
479.13	14200.62
479.34	14452.52
479.54	14266.15
479.75	14432.04
479.96	14622.50
480.16	14763.81
480.37	15077.15
480.58	14872.35
480.78	15027.99
480.99	15150.87
481.20	14948.12
481.41	15318.81
481.61	15408.92
481.82	15705.87
482.03	15415.06
482.23	15410.96
482.44	15634.19
482.65	15775.50
482.85	15931.15
483.06	15990.54
483.27	16307.98
483.47	16060.17
483.68	16326.41
483.89	16359.17
484.09	16459.52
484.30	16168.71
484.51	16713.47
484.71	16570.12
484.92	16498.44
485.13	16875.26
485.33	16996.09
485.54	16877.31
485.75	17252.09
485.95	17415.93
486.16	17463.03
486.37	17792.75
486.57	17618.68
486.78	17628.92
486.98	17366.78
487.19	17710.83
487.40	17858.29
487.60	17798.90
487.81	17968.88
488.02	17901.29
488.22	18204.39
488.43	18022.12
488.64	18073.32
488.84	18650.85
489.05	18624.23
489.25	18458.34
489.46	18525.93
489.67	18865.89
489.87	18984.67
490.08	19128.03
490.29	19035.87
490.49	19324.63
490.70	19453.66
490.90	19465.94
491.11	19300.06
491.32	19625.68
491.52	19668.69
491.73	19734.23
491.94	19928.78
492.14	19799.76
492.35	20002.51
492.55	19816.15
492.76	20221.64
492.97	20192.97
493.17	20287.18
493.38	20485.83
493.58	20512.46
493.79	20600.52
494.00	20516.55
494.20	20979.39
494.41	20659.91
494.61	20913.86
494.82	20930.24
495.02	20971.20
495.23	21151.42
495.44	21286.59
495.64	21311.16
495.85	21239.48
496.05	21440.18
496.26	21561.02
496.47	21642.93
496.67	21266.11
496.88	21933.75
497.08	21771.96
497.29	21989.04
497.49	22087.34
497.70	22175.41
497.91	22159.02
498.11	22357.67
498.32	22468.27
498.52	22484.65
498.73	22806.18
498.93	22503.08
499.14	22564.52
499.34	22908.58
499.55	23076.51
499.76	22869.67
499.96	23006.88
500.17	23035.55
500.37	23248.54
500.58	23293.60
500.78	23154.33
500.99	23322.27
501.19	23269.02
501.40	23500.44
501.60	23307.93
501.81	23334.56
502.02	23629.46
502.22	23547.54
502.43	23666.33
502.63	24120.98
502.84	23879.32
503.04	23844.50
503.25	24008.34
503.45	24096.40
503.66	24184.46
503.86	24303.25
504.07	24499.85
504.27	24333.96
504.48	24647.30
504.68	24516.23
504.89	24671.88
505.09	24813.19
505.30	24432.27
505.50	25073.28
505.71	24805.00
505.91	25093.76
506.12	24925.83
506.32	24737.41
506.53	25022.08
506.73	25230.98
506.94	25319.04
507.14	24929.92
507.35	25110.14
507.55	25585.27
507.76	25511.55
507.96	25280.13
508.17	25699.96
508.37	25478.78
508.58	25788.02
508.78	25937.52
508.99	26080.88
509.19	25867.89
509.40	25839.22
509.60	26019.44
509.81	25939.57
510.01	26156.66
510.22	25998.96
510.42	26265.20
510.63	26322.54
510.83	26031.73
511.04	26480.24
511.24	26721.90
511.44	26250.86
511.65	26449.52
511.85	26494.57
512.06	26656.36
512.26	26807.91
512.47	26560.11
512.67	26463.85
512.88	26639.98
513.08	26789.48
513.29	26777.19
513.49	26648.17
513.69	27203.17
513.90	26996.32
514.10	27385.44
514.31	27004.52
514.51	27018.85
514.72	27119.20
514.92	27170.40
515.13	27166.31
515.33	27233.89
515.53	27477.60
515.74	27096.67
515.94	27526.75
516.15	27639.39
516.35	27381.34
516.56	28083.80
516.76	27582.04
516.96	27493.98
517.17	27926.10
517.37	27950.68
517.58	27981.40
517.78	28087.89
517.99	28048.98
518.19	28372.56
518.39	28446.29
518.60	28532.30
518.80	28425.81
519.01	28534.35
519.21	28323.41
519.41	28675.66
519.62	28644.94
519.82	28763.72
520.03	29093.44
520.23	28661.32
520.43	28438.09
520.64	29148.74
520.84	29214.27
521.05	29144.64
521.25	29431.36
521.45	29142.60
521.66	29560.38
521.86	29414.98
522.07	29578.81
522.27	29673.02
522.47	29271.62
522.68	29963.83
522.88	29781.56
523.08	30117.43
523.29	29830.71
523.49	30166.58
523.70	30205.49
523.90	30246.45
524.10	30305.84
524.31	30602.80
524.51	30115.38
524.71	30555.69
524.92	30328.37
525.12	30703.15
525.33	30922.28
525.53	30842.41
525.73	31110.69
525.94	30955.05
526.14	31174.18
526.34	31323.68
526.55	31284.77
526.75	31206.95
526.95	31387.17
527.16	31430.18
527.36	31559.20
527.56	31673.88
527.77	32251.41
527.97	31811.10
528.17	31821.34
528.38	31811.10
528.58	31882.78
528.78	32218.64
528.99	32257.56
529.19	32505.36
529.39	31653.40
529.60	32235.03
529.80	32542.22
530.00	32364.05
530.21	32753.16
530.41	32939.53
530.61	33082.89
530.82	32972.30
531.02	32640.53
531.22	33203.72
531.43	33250.82
531.63	33416.71
531.83	33613.31
532.04	33590.78
532.24	33138.18
532.44	33750.52
532.64	33926.65
532.85	33889.79
533.05	33826.30
533.25	34080.25
533.46	33785.34
533.66	34151.93
533.86	34153.97
534.07	34731.50
534.27	34614.77
534.47	34577.90
534.67	34719.21
534.88	34690.54
535.08	34821.61
535.28	35022.31
535.49	35120.62
535.69	35399.14
535.89	35446.24
536.09	35012.07
536.30	35698.14
536.50	35141.10
536.70	35517.92
536.91	35231.21
537.11	35356.13
537.31	36220.38
537.51	35864.03
537.72	36218.33
537.92	36439.51
538.12	36406.74
538.32	35857.88
538.53	36318.68
538.73	36494.80
538.93	36324.82
539.13	36349.40
539.34	36240.86
539.54	36552.15
539.74	37352.90
539.94	36720.08
540.15	36740.56
540.35	37117.39
540.55	37041.61
540.75	37111.24
540.96	37240.26
541.16	37014.99
541.36	37178.82
541.56	37529.03
541.77	37707.20
541.97	37283.27
542.17	37862.85
542.37	37721.54
542.58	37811.65
542.78	37815.74
542.98	38051.26
543.18	38020.54
543.38	38294.97
543.59	38550.96
543.79	38170.04
543.99	37975.48
544.19	38305.21
544.40	38170.04
544.60	38722.99
544.80	38294.97
545.00	38585.78
545.20	39040.43
545.41	38389.17
545.61	38952.37
545.81	38962.61
546.01	38921.65
546.21	39073.20
546.42	38835.63
546.62	39294.38
546.82	39337.38
547.02	39339.43
547.22	39187.88
547.43	39263.66
547.63	39318.95
547.83	39716.26
548.03	39378.34
548.23	39626.15
548.44	39656.87
548.64	39910.82
548.84	39929.25
549.04	39880.10
549.24	40088.99
549.45	40101.28
549.65	39712.16
549.85	40179.10
550.05	40236.44
550.25	40117.66
550.45	40596.88
550.66	40482.20
550.86	40160.67
551.06	40762.77
551.26	40162.72
551.46	40533.40
551.66	40687.00
551.87	40461.72
552.07	40965.52
552.27	40830.35
552.47	40877.46
552.67	41039.25
552.87	40744.34
553.07	40676.76
553.28	41145.74
553.48	40818.07
553.68	40965.52
553.88	41246.09
554.08	40928.66
554.28	40981.90
554.48	41149.84
554.69	41643.40
554.89	41078.16
555.09	41285.00
555.29	41209.23
555.49	41850.24
555.69	41495.94
555.89	41840.00
556.10	41491.85
556.30	41491.85
556.50	41883.01
556.70	41211.28
556.90	41942.40
557.10	41944.45
557.30	41776.51
557.50	41889.15
557.70	42364.28
557.91	42478.97
558.11	41987.46
558.31	42384.76
558.51	42308.99
558.71	42096.00
558.91	42247.55
559.11	42216.83
559.31	42110.33
559.51	41983.36
559.72	42274.17
559.92	42556.79
560.12	42247.55
560.32	42505.59
560.52	42538.36
560.72	42550.65
560.92	42970.48
561.12	42710.39
561.32	43115.89
561.52	42278.27
561.72	43081.07
561.93	42577.27
562.13	42898.80
562.33	42521.98
562.53	43046.26
562.73	42288.51
562.93	42714.48
563.13	42970.48
563.33	42677.62
563.53	43308.40
563.73	43054.45
563.93	42974.58
564.13	43591.01
564.33	42726.77
564.53	43199.85
564.74	43609.45
564.94	43169.13
565.14	43484.52
565.34	43351.40
565.54	43369.83
565.74	43668.84
565.94	43869.54
566.14	43214.19
566.34	43543.91
566.54	44203.36
566.74	43427.18
566.94	43801.96
567.14	43783.52
567.34	43582.82
567.54	43836.77
567.74	43552.10
567.94	43572.58
568.14	44053.86
568.34	43959.65
568.54	44268.89
568.74	44301.66
568.94	44035.42
569.14	44035.42
569.34	44344.67
569.54	44356.96
569.75	44012.90
569.95	44238.17
570.15	44496.22
570.35	44610.90
570.55	44365.15
570.75	44627.29
570.95	44092.77
571.15	44561.75
571.35	44297.56
571.55	45067.60
571.75	44410.20
571.95	44404.06
572.15	44942.67
572.35	45032.78
572.55	45108.56
572.75	44590.42
572.95	44873.04
573.15	45116.75
573.35	45499.72
573.55	44670.29
573.75	44862.80
573.95	45118.80
574.15	45612.36
574.35	45309.26
574.55	45092.18
574.75	45098.32
574.95	45180.24
575.15	45110.61
575.34	45245.77
575.54	45331.79
575.74	45268.30
575.94	45677.90
576.14	45839.68
576.34	45794.63
576.54	45585.74
576.74	46290.24
576.94	45851.97
577.14	45958.47
577.34	46124.35
577.54	46071.10
577.74	46079.30
577.94	45686.09
578.14	45905.22
578.34	46245.18
578.54	45548.87
578.74	46310.72
578.94	46458.17
579.14	46191.94
579.34	46411.07
579.54	46347.58
579.74	46679.35
579.94	46263.61
580.13	46796.09
580.33	46736.69
580.53	46732.60
580.73	46986.55
580.93	46894.39
581.13	47090.99
581.33	46961.97
581.53	46925.11
581.73	47148.34
581.93	47168.82
582.13	47220.02
582.33	46976.31
582.53	47187.25
582.73	47039.79
582.92	47346.99
583.12	47095.09
583.32	47260.97
583.52	47074.61
583.72	47602.99
583.92	47332.65
584.12	47656.23
584.32	48028.96
584.52	47435.05
584.72	47772.97
584.92	48198.94
585.11	48354.59
585.31	47975.72
585.51	47947.04
585.71	47961.38
585.91	48192.80
586.11	48039.20
586.31	47945.00
586.51	48311.58
586.71	48594.20
586.91	48250.14
587.10	48493.85
587.30	48612.63
587.50	48076.07
587.70	48682.27
587.90	48780.57
588.10	48790.81
588.30	48256.29
588.50	49210.64
588.69	49110.29
588.89	48672.03
589.09	48356.64
589.29	49243.41
589.49	49235.22
589.69	48985.36
589.89	49341.71
590.08	48919.83
590.28	49018.13
590.48	49169.68
590.68	49018.13
590.88	49376.53
591.08	49046.80
591.28	49014.04
591.47	49804.55
591.67	49370.38
591.87	49616.14
592.07	49239.31
592.27	49505.55
592.47	49255.70
592.67	49753.35
592.86	49677.58
593.06	49632.52
593.26	49710.35
593.46	49859.85
593.66	49632.52
593.86	49775.88
594.05	50001.16
594.25	50132.23
594.45	50099.46
594.65	49861.90
594.85	49923.33
595.05	50607.36
595.24	50615.55
595.44	50259.20
595.64	50064.64
595.84	50267.39
596.04	50423.04
596.23	50617.60
596.43	50646.27
596.63	50132.23
596.83	50502.91
597.03	50754.81
597.22	50734.33
597.42	50803.96
597.62	50978.04
597.82	51002.61
598.02	50971.89
598.21	51205.36
598.41	51037.43
598.61	51358.96
598.81	51008.76
599.01	51434.74
599.20	51279.09
599.40	51258.61
599.60	51338.48
599.80	51438.83
600.00	51584.24
600.19	51561.71
600.39	51586.28
600.59	52040.93
600.79	51576.04
600.98	51731.69
601.18	51352.82
601.38	51696.88
601.58	52032.74
601.78	51866.86
601.97	51856.62
602.17	52296.93
602.37	51952.87
602.57	52155.62
602.76	52219.11
602.96	52262.11
603.16	52557.02
603.36	52524.25
603.55	52520.16
603.75	52096.23
603.95	52671.71
604.15	52751.58
604.34	52335.84
604.54	52655.32
604.74	52634.84
604.94	53118.17
605.13	52618.46
605.33	53329.11
605.53	52864.22
605.73	52782.30
605.92	52927.70
606.12	53163.22
606.32	52987.10
606.52	53015.77
606.71	52987.10
606.91	53290.19
607.11	52858.07
607.30	52892.89
607.50	53071.06
607.70	53193.94
607.90	53370.07
608.09	53069.01
608.29	53306.58
608.49	53621.97
608.68	53322.96
608.88	53497.04
609.08	53624.01
609.28	53595.34
609.47	53204.18
609.67	54068.42
609.87	53916.87
610.06	54006.98
610.26	53683.40
610.46	54054.09
610.66	53681.36
610.85	53882.06
611.05	53587.15
611.25	53773.52
611.44	53681.36
611.64	53845.19
611.84	53951.69
612.03	53748.94
612.23	54006.98
612.43	54383.81
612.62	53595.34
612.82	54553.79
613.02	53908.68
613.21	54557.89
613.41	53847.24
613.61	54387.91
613.80	53433.55
614.00	53865.67
614.20	54043.85
614.39	54043.85
614.59	54052.04
614.79	54719.68
614.98	53935.30
615.18	54213.83
615.38	54265.03
615.57	53953.74
615.77	54664.38
615.97	53994.70
616.16	54342.85
616.36	54437.06
616.56	54824.12
616.75	54158.53
616.95	54039.75
617.15	53953.74
617.34	54127.81
617.54	54340.80
617.74	54705.34
617.93	54424.77
618.13	53785.80
618.32	54260.93
618.52	53970.12
618.72	54420.67
618.91	54494.40
619.11	54068.42
619.31	54527.17
619.50	54162.63
619.70	53847.24
619.90	54502.59
620.09	54410.43
620.29	54451.39
620.48	54607.04
620.68	54414.53
620.88	54150.34
621.07	54326.47
621.27	54129.86
621.46	54041.80
621.66	53892.30
621.86	54228.16
622.05	53937.35
622.25	54658.24
622.44	54062.28
622.64	53961.93
622.84	54498.50
623.03	53882.06
623.23	54162.63
623.42	54158.53
623.62	54801.60
623.82	54138.05
624.01	54037.70
624.21	54052.04
624.40	53955.78
624.60	54385.86
624.80	54154.44
624.99	54232.26
625.19	53687.50
625.38	54598.85
625.58	54170.82
625.77	54609.09
625.97	54095.05
626.17	53853.39
626.36	54330.56
626.56	54310.08
626.75	53804.24
626.95	54357.19
627.14	54174.92
627.34	54453.44
627.54	53976.26
627.73	54549.70
627.93	54113.48
628.12	54090.95
628.32	54318.28
628.51	54346.95
628.71	54197.44
628.90	54138.05
629.10	54256.84
629.30	54310.08
629.49	54019.27
629.69	54265.03
629.88	54506.69
630.08	54467.78
630.27	54297.80
630.47	54748.35
630.66	54482.11
630.86	54779.07
631.05	54187.21
631.25	54340.80
631.44	54510.78
631.64	54228.16
631.84	54254.79
632.03	55137.46
632.23	54604.99
632.42	54265.03
632.62	54467.78
632.81	54133.96
633.01	54432.96
633.20	54811.84
633.40	54584.51
633.59	54811.84
633.79	54531.26
633.98	54609.09
634.18	54836.41
634.37	54750.40
634.57	54504.64
634.76	54903.99
634.96	54664.38
635.15	54361.28
635.35	54779.07
635.54	54439.11
635.74	54942.91
635.93	54340.80
636.13	55098.55
636.32	54932.67
636.52	54826.17
636.71	54439.11
636.91	54691.01
637.10	55069.88
637.30	54385.86
637.49	54893.75
637.69	54561.98
637.88	54713.53
638.08	54604.99
638.27	54875.32
638.46	54660.29
638.66	54467.78
638.85	54682.81
639.05	54830.27
639.24	54932.67
639.44	54940.86
639.63	54637.76
639.83	54983.86
640.02	54992.06
640.22	54662.33
640.41	55338.16
640.61	54498.50
640.80	54998.20
640.99	54908.09
641.19	55104.70
641.38	54936.76
641.58	54637.76
641.77	54729.92
641.97	54830.27
642.16	54797.50
642.36	55538.86
642.55	55123.13
642.74	55073.98
642.94	55846.06
643.13	54930.62
643.33	54975.67
643.52	55565.49
643.72	55276.72
643.91	55243.96
644.10	55340.21
644.30	55837.87
644.49	55436.47
644.69	55467.19
644.88	55284.92
645.08	54871.23
645.27	55289.01
645.46	55026.87
645.66	55301.30
645.85	55358.64
646.05	55375.03
646.24	55420.08
646.43	55565.49
646.63	55725.23
646.82	55608.50
647.02	55426.23
647.21	55792.81
647.40	55831.72
647.60	55909.55
647.79	55489.71
647.99	56063.14
648.18	55303.35
648.37	56169.64
648.57	55956.65
648.76	55858.35
648.96	55934.12
649.15	56052.90
649.34	56009.90
649.54	55917.74
649.73	55659.69
649.92	56145.06
650.12	55784.62
650.31	56216.74
650.51	55755.95
650.70	56140.97
650.89	56091.82
651.09	56169.64
651.28	55628.98
651.47	55983.27
651.67	56013.99
651.86	56456.35
652.06	55932.07
652.25	56353.96
652.44	55868.59
652.64	55575.73
652.83	55846.06
653.02	55874.73
653.22	56091.82
653.41	55803.05
653.60	55641.26
653.80	55946.41
653.99	56026.28
654.18	55813.29
654.38	55829.68
654.57	56292.52
654.76	56157.35
654.96	56075.43
655.15	55940.27
655.34	56251.56
655.54	55874.73
655.73	56067.24
655.92	56300.71
656.12	56026.28
656.31	55932.07
656.50	56335.52
656.70	56278.18
656.89	56218.79
657.08	56177.83
657.28	56140.97
657.47	56169.64
657.66	56456.35
657.86	55925.93
658.05	56204.45
658.24	56329.38
658.43	56124.58
658.63	56679.58
658.82	56439.97
659.01	56517.79
659.21	56409.25
659.40	56253.61
659.59	56364.20
659.79	56280.23
659.98	56525.99
660.17	56378.53
660.36	56059.05
660.56	56448.16
660.75	56564.90
660.94	56331.43
661.14	56161.45
661.33	56231.08
661.52	55661.74
661.71	56794.27
661.91	56319.14
662.10	56081.58
662.29	56413.35
662.49	56097.96
662.68	56368.29
662.87	56560.80
663.06	56556.70
663.26	56308.90
663.45	56704.16
663.64	56001.71
663.83	56761.50
664.03	56722.59
664.22	56542.37
664.41	56390.82
664.60	56489.12
664.80	56556.70
664.99	56302.76
665.18	56296.61
665.37	56143.02
665.57	56702.11
665.76	56241.32
665.95	56638.62
666.14	56544.42
666.34	56315.04
666.53	56464.55
666.72	55999.66
666.91	56210.60
667.11	56153.26
667.30	56212.65
667.49	56208.55
667.68	56550.56
667.87	56458.40
668.07	56587.42
668.26	56538.27
668.45	56329.38
668.64	56120.49
668.84	56745.12
669.03	56601.76
669.22	56538.27
669.41	56675.49
669.60	57054.36
669.80	56321.19
669.99	56306.85
670.18	56390.82
670.37	56179.88
670.57	56366.24
670.76	56069.29
670.95	56435.87
671.14	56523.94
671.33	56179.88
671.53	56308.90
671.72	56669.34
671.91	55979.18
672.10	56325.28
672.29	56110.25
672.48	56130.73
672.68	56562.85
672.87	56202.41
673.06	56091.82
673.25	56417.44
673.44	56024.23
673.64	55897.26
673.83	56349.86
674.02	56040.62
674.21	56052.90
674.40	56302.76
674.59	55725.23
674.79	55846.06
674.98	55968.94
675.17	56456.35
675.36	55805.10
675.55	56655.01
675.74	55809.20
675.94	56128.68
676.13	56364.20
676.32	56405.16
676.51	56464.55
676.70	56315.04
676.89	55911.59
677.08	56308.90
677.28	55950.51
677.47	56163.50
677.66	56587.42
677.85	55987.37
678.04	56136.87
678.23	56226.98
678.42	56358.05
678.62	55880.88
678.81	56435.87
679.00	55964.84
679.19	56388.77
679.38	56050.86
679.57	55942.31
679.76	56083.62
679.96	56106.15
680.15	56112.30
680.34	55882.92
680.53	55954.60
680.72	56038.57
680.91	56550.56
681.10	56151.21
681.29	56183.97
681.48	55538.86
681.68	55469.23
681.87	55571.63
682.06	55702.70
682.25	55692.46
682.44	55778.48
682.63	55809.20
682.82	55442.61
683.01	55825.58
683.20	55350.45
683.39	55657.65
683.59	55368.88
683.78	55530.67
683.97	55114.94
684.16	55825.58
684.35	55608.50
684.54	55415.99
684.73	55563.44
684.92	55524.53
685.11	55436.47
685.30	55551.15
685.49	55667.89
685.69	55440.56
685.88	55653.55
686.07	55485.62
686.26	55497.91
686.45	55174.33
686.64	55465.14
686.83	55426.23
687.02	55878.83
687.21	55551.15
687.40	55178.42
687.59	55291.06
687.78	55389.36
687.97	55665.84
688.16	55200.95
688.35	55100.60
688.54	55186.61
688.74	55219.38
688.93	55352.50
689.12	54994.10
689.31	55217.33
689.50	55444.66
689.69	54899.90
689.88	55106.74
690.07	54897.85
690.26	54916.28
690.45	54918.33
690.64	55389.36
690.83	54445.25
691.02	54445.25
691.21	55293.11
691.40	54850.75
691.59	54936.76
691.78	54623.42
691.97	55123.13
692.16	54803.64
692.35	55004.34
692.54	55309.49
692.73	54629.57
692.92	54824.12
693.11	54461.63
693.30	54801.60
693.49	54803.64
693.68	54691.01
693.87	54525.12
694.06	54420.67
694.25	54703.29
694.44	54381.76
694.63	54353.09
694.82	54424.77
695.01	54521.02
695.20	54463.68
695.39	54482.11
695.58	54650.05
695.77	54351.04
695.96	54305.99
696.15	54375.62
696.34	54314.18
696.53	54424.77
696.72	54359.23
696.91	54328.52
697.10	54125.77
697.29	53867.72
697.48	54250.69
697.67	53972.17
697.86	53867.72
698.05	53548.24
698.24	54160.58
698.43	53329.11
698.62	54146.25
698.81	53804.24
699.00	54432.96
699.19	53863.63
699.38	53834.95
699.57	53345.49
699.76	54516.93
699.95	53859.53
700.14	53525.71
700.32	53488.85
700.51	53535.95
700.70	53875.91
700.89	53638.35
701.08	53753.04
701.27	53841.10
701.46	53839.05
701.65	53011.67
701.84	53335.25
702.03	53449.94
702.22	53251.28
702.41	53761.23
702.60	53587.15
702.79	53404.88
702.98	53069.01
703.17	53331.15
703.35	53107.93
703.54	52999.38
703.73	53400.79
703.92	53486.80
704.11	53519.57
704.30	53439.70
704.49	53320.91
704.68	52880.60
704.87	53003.48
705.06	53234.90
705.25	52935.90
705.43	53245.14
705.62	52923.61
705.81	53343.44
706.00	52907.22
706.19	53189.84
706.38	52739.29
706.57	52880.60
706.76	52616.41
706.95	53216.47
707.14	52989.14
707.32	52614.37
707.51	52559.07
707.70	52751.58
707.89	52731.10
708.08	52417.76
708.27	52708.57
708.46	53087.45
708.65	52571.36
708.84	53021.91
709.02	52700.38
709.21	53148.88
709.40	52686.04
709.59	52372.70
709.78	52024.55
709.97	52188.39
710.16	52575.45
710.34	52450.53
710.53	52358.37
710.72	52196.58
710.91	52417.76
711.10	52507.87
711.29	52151.52
711.48	51922.15
711.66	52155.62
711.85	51770.60
712.04	51893.48
712.23	51954.92
712.42	51719.40
712.61	52020.45
712.80	51913.96
712.98	51815.66
713.17	51033.33
713.36	51682.54
713.55	51627.24
713.74	51631.34
713.93	51770.60
714.11	51760.36
714.30	51422.45
714.49	51512.56
714.68	51584.24
714.87	51145.97
715.06	51832.04
715.24	51414.26
715.43	51412.21
715.62	50803.96
715.81	51395.82
716.00	51449.07
716.18	50851.06
716.37	51047.67
716.56	51035.38
716.75	51449.07
716.94	51299.57
717.12	51014.90
717.31	51025.14
717.50	51330.29
717.69	50896.12
717.88	50853.11
718.06	51160.31
718.25	50822.39
718.44	50590.97
718.63	50824.44
718.82	50662.65
719.00	50455.81
719.19	50695.42
719.38	50779.39
719.57	50224.39
719.76	50498.81
719.94	50097.41
720.13	50038.02
720.32	50466.05
720.51	50023.68
720.69	49919.24
720.88	50201.86
721.07	50312.45
721.26	49505.55
721.44	49831.18
721.63	49462.54
721.82	49734.92
722.01	49532.17
722.20	49886.47
722.38	49411.34
722.57	49206.55
722.76	49587.47
722.95	49354.00
723.13	49366.29
723.32	49167.63
723.51	49063.19
723.70	49124.63
723.88	48850.20
724.07	48846.10
724.26	49181.97
724.44	48555.29
724.63	49124.63
724.82	48919.83
725.01	48637.21
725.19	48780.57
725.38	48532.76
725.57	48444.70
725.76	48948.50
725.94	48244.00
726.13	48735.51
726.32	48561.44
726.51	48358.69
726.69	48706.84
726.88	48424.22
727.07	48837.91
727.25	48006.44
727.44	48700.70
727.63	48313.63
727.82	48114.98
728.00	48176.42
728.19	47918.37
728.38	48407.84
728.56	48037.16
728.75	48741.66
728.94	48346.40
729.12	48350.49
729.31	48065.83
729.50	47883.56
729.69	47928.61
729.87	48207.14
730.06	47602.99
730.25	48164.13
730.43	48573.72
730.62	48194.85
730.81	48321.82
730.99	48127.27
731.18	48037.16
731.37	48350.49
731.55	48233.76
731.74	48610.59
731.93	48735.51
732.11	48268.58
732.30	48145.70
732.49	47942.95
732.67	48383.26
732.86	47732.01
733.05	48198.94
733.23	47832.36
733.42	48194.85
733.61	47645.99
733.79	47594.79
733.98	47893.80
734.17	47719.72
734.35	48133.41
734.54	47850.79
734.73	48543.00
734.91	48176.42
735.10	47652.14
735.29	47975.72
735.47	47674.66
735.66	47570.22
735.84	47512.88
736.03	47291.69
736.22	47617.32
736.40	47134.00
736.59	47404.33
736.78	47363.37
736.96	47605.03
737.15	47643.94
737.33	47121.71
737.52	47672.62
737.71	47240.50
737.89	47650.09
738.08	47002.93
738.27	47009.07
738.45	47551.79
738.64	47451.44
738.82	47123.76
739.01	47000.88
739.20	47676.71
739.38	47045.94
739.57	47162.67
739.75	47152.43
739.94	47029.55
740.13	47281.45
740.31	47060.27
740.50	47375.66
740.68	47019.31
740.87	47297.84
741.06	47062.32
741.24	47586.60
741.43	46787.89
741.61	46961.97
741.80	46806.33
741.99	46490.94
742.17	46218.56
742.36	46884.15
742.54	46822.71
742.73	46812.47
742.91	46800.18
743.10	46701.88
743.29	46812.47
743.47	47076.66
743.66	46763.32
743.84	47158.58
744.03	46740.79
744.21	46253.37
744.40	47056.18
744.59	46378.30
744.77	45989.19
744.96	46460.22
745.14	46275.90
745.33	46253.37
745.51	46370.11
745.70	46552.38
745.88	46142.78
746.07	46130.50
746.26	46130.50
746.44	45681.99
746.63	46220.61
746.81	46357.82
747.00	45612.36
747.18	46122.30
747.37	46224.70
747.55	46200.13
747.74	45903.17
747.92	45749.57
748.11	46150.98
748.29	45880.64
748.48	45581.64
748.66	45751.62
748.85	46089.54
749.03	46054.72
749.22	45983.04
749.41	45706.57
749.59	45577.54
749.78	45126.99
749.96	45540.68
750.15	45571.40
750.33	45741.38
750.52	45399.37
750.70	45536.59
750.89	45323.60
751.07	44993.87
751.26	45157.71
751.44	45264.21
751.63	45610.31
751.81	45022.54
752.00	45235.53
752.18	45020.50
752.37	44971.35
752.55	45104.46
752.74	45421.90
752.92	44911.95
753.10	45086.03
753.29	45311.31
753.47	45090.13
753.66	44578.14
753.84	45006.16
754.03	44629.34
754.21	44832.08
754.40	45200.72
754.58	45110.61
754.77	44653.91
754.95	44229.98
755.14	44488.03
755.32	44488.03
755.51	44342.62
755.69	44604.76
755.88	44866.90
756.06	44883.28
756.24	44541.27
756.43	44328.28
756.61	44496.22
756.80	44211.55
756.98	44279.13
757.17	44289.37
757.35	44377.43
757.54	44217.69
757.72	44049.76
757.90	44107.10
758.09	43689.32
758.27	44223.84
758.46	43894.11
758.64	43930.98
758.83	44199.26
759.01	43687.27
759.19	43967.84
759.38	43959.65
759.56	44209.50
759.75	43832.68
759.93	43775.33
760.12	43562.34
760.30	43724.13
760.48	43638.12
760.67	43881.83
760.85	43799.91
761.04	43646.31
761.22	43906.40
761.40	43586.92
761.59	43584.87
761.77	43685.22
761.96	43339.11
762.14	43130.22
762.32	43283.82
762.51	43421.03
762.69	43326.83
762.88	43709.80
763.06	43914.59
763.24	43517.29
763.43	42976.62
763.61	43240.81
763.80	43185.52
763.98	42812.79
764.16	42833.27
764.35	42941.81
764.53	42634.61
764.72	42550.65
764.90	42704.24
765.08	43111.79
765.27	42388.86
765.45	42595.70
765.63	41883.01
765.82	42880.37
766.00	41833.86
766.18	42290.55
766.37	42433.91
766.55	41985.41
766.74	42583.41
766.92	42202.49
767.10	41739.65
767.29	42065.28
767.47	41885.06
767.65	42356.09
767.84	41987.46
768.02	41948.54
768.20	41880.96
768.39	42259.84
768.57	42155.39
768.75	41768.32
768.94	41620.87
769.12	41516.42
769.30	41387.40
769.49	41541.00
769.67	41506.18
769.85	41293.19
770.04	41305.48
770.22	41137.55
770.40	41321.87
770.59	41035.15
770.77	41385.35
770.95	41575.81
771.14	41135.50
771.32	41227.66
771.50	40945.04
771.69	41201.04
771.87	41282.95
772.05	41239.95
772.24	40648.08
772.42	40916.37
772.60	41373.06
772.78	40779.15
772.97	40519.06
773.15	41381.26
773.33	40799.63
773.52	40498.58
773.70	40684.95
773.88	40723.86
774.07	40705.43
774.25	40875.41
774.43	40869.26
774.61	40885.65
774.80	40879.50
774.98	40990.09
775.16	40674.71
775.34	41000.33
775.53	40707.47
775.71	40936.85
775.89	40885.65
776.08	40510.87
776.26	40856.98
776.44	40838.54
776.62	40840.59
776.81	40848.78
776.99	40811.92
777.17	40865.17
777.35	40875.41
777.54	41213.32
777.72	40674.71
777.90	40949.14
778.08	40777.11
778.27	41008.53
778.45	41258.38
778.63	41180.56
778.81	41260.43
779.00	41760.13
779.18	40961.42
779.36	41352.58
779.54	41160.08
779.73	41078.16
779.91	41512.33
780.09	41688.45
780.27	41547.14
780.46	41762.18
780.64	41483.66
780.82	41031.05
781.00	40973.71
781.19	41641.35
781.37	41713.03
781.55	41569.67
781.73	41827.71
781.91	41491.85
782.10	41354.63
782.28	41749.89
782.46	41952.64
782.64	42096.00
782.82	41528.71
783.01	41624.96
783.19	41577.86
783.37	41547.14
783.55	41735.56
783.74	41932.16
783.92	41452.94
784.10	41729.41
784.28	41706.88
784.46	41643.40
784.64	41332.11
784.83	41799.04
785.01	41778.56
785.19	41487.75
785.37	41571.72
785.55	41397.64
785.74	41506.18
785.92	41295.24
786.10	41418.12
786.28	41309.58
786.46	41414.02
786.64	41094.54
786.83	41340.30
787.01	41766.27
787.19	41352.58
787.37	41291.15
787.55	41399.69
787.74	40936.85
787.92	41117.07
788.10	40988.05
788.28	40689.04
788.46	41115.02
788.64	40625.56
788.82	41106.83
789.01	40973.71
789.19	40916.37
789.37	40488.34
789.55	40732.05
789.73	40555.93
789.91	40654.23
790.09	40236.44
790.28	40084.89
790.46	40121.76
790.64	40637.84
790.82	40088.99
791.00	40054.17
791.18	39976.35
791.36	40097.18
791.55	40146.33
791.73	40166.81
791.91	39523.75
792.09	39966.11
792.27	39822.75
792.45	39638.44
792.63	39593.38
792.81	39574.95
793.00	40015.26
793.18	39570.85
793.36	39550.37
793.54	39108.01
793.72	38837.68
793.90	39169.45
794.08	39032.24
794.26	38837.68
794.44	38753.71
794.62	38581.68
794.81	38974.89
794.99	38679.99
795.17	38448.57
795.35	38692.27
795.53	38665.65
795.71	38364.60
795.89	37979.58
796.07	37971.39
796.25	38170.04
796.43	37868.99
796.61	37606.85
796.80	37621.19
796.98	37909.95
797.16	37580.23
797.34	37815.74
797.52	37240.26
797.70	37637.57
797.88	37230.02
798.06	36722.13
798.24	37502.40
798.42	37313.99
798.60	37025.23
798.78	37035.47
798.96	37160.39
799.14	36640.21
799.32	36855.25
799.51	36525.52
799.69	36705.74
799.87	36861.39
800.05	36230.62
800.23	36783.57
800.41	36077.02
800.59	35915.23
800.77	35960.28
800.95	35739.10
801.13	35804.64
801.31	35542.50
801.49	35993.05
801.67	35714.53
801.85	35540.45
802.03	35630.56
802.21	35628.51
802.39	35524.07
802.57	35220.97
802.75	35124.71
802.93	35067.37
803.11	35137.00
803.29	34897.39
803.47	34711.02
803.65	34561.52
803.83	34811.37
804.01	34987.50
804.19	34375.16
804.37	34440.69
804.55	34491.89
804.73	34397.68
804.91	34420.21
805.09	34252.28
805.27	34174.45
805.45	34305.52
805.63	33994.23
805.81	34047.48
805.99	33969.66
806.17	34170.36
806.35	33738.24
806.53	33322.50
806.71	33623.55
806.89	33617.41
807.07	33467.91
807.25	33910.27
807.43	33142.28
807.61	33709.57
807.79	33383.94
807.97	33191.43
808.15	32974.34
808.33	33357.32
808.51	33107.46
808.69	33039.88
808.87	32663.05
809.05	32335.38
809.23	32431.63
809.41	32161.30
809.59	32353.81
809.77	33060.36
809.95	32237.08
810.13	32468.50
810.31	32585.23
810.49	32405.01
810.67	32433.68
810.84	32046.62
811.02	31995.42
811.20	31929.88
811.38	31870.49
811.56	31491.62
811.74	32239.12
811.92	31759.90
812.10	31663.64
812.28	31804.95
812.46	31419.94
812.64	31387.17
812.82	31757.85
813.00	31647.26
813.18	31458.85
813.36	31401.50
813.53	31053.35
813.71	30967.34
813.89	31471.14
814.07	30805.55
814.25	31180.32
814.43	30733.87
814.61	30697.00
814.79	31014.44
814.97	30871.08
815.15	30840.36
815.33	30422.58
815.50	30449.20
815.68	30631.47
815.86	30770.73
816.04	30299.70
816.22	30531.12
816.40	30557.74
816.58	30142.00
816.76	29980.21
816.94	30107.19
817.11	30225.97
817.29	30414.38
817.47	30043.70
817.65	29767.23
817.83	30182.96
818.01	29640.25
818.19	29730.36
818.37	29771.32
818.54	29605.44
818.72	29453.89
818.90	29820.47
819.08	29603.39
819.26	29396.54
819.44	29316.67
819.62	29443.65
819.80	29357.63
819.97	29623.87
820.15	29476.41
820.33	29345.34
820.51	29265.47
820.69	29394.50
820.87	29165.12
821.05	29376.06
821.22	28907.08
821.40	29056.58
821.58	29132.36
821.76	28685.90
821.94	28900.94
822.12	28859.98
822.29	28630.60
822.47	28390.99
822.65	28837.45
822.83	28880.46
823.01	28868.17
823.19	28655.18
823.36	28472.91
823.54	28069.46
823.72	28487.25
823.90	28159.57
824.08	28182.10
824.25	28071.51
824.43	28151.38
824.61	28106.32
824.79	28120.66
824.97	27932.25
825.15	28165.71
825.32	28044.88
825.50	28071.51
825.68	27659.87
825.86	28276.30
826.04	27770.46
826.21	27770.46
826.39	27954.77
826.57	27633.24
826.75	27254.37
826.93	27387.49
827.10	27616.86
827.28	27938.39
827.46	27727.45
827.64	27891.29
827.81	27367.01
827.99	27698.78
828.17	27125.35
828.35	27252.32
828.53	27299.42
828.70	27170.40
828.88	26947.17
829.06	27387.49
829.24	27549.28
829.41	26959.46
829.59	27246.18
829.77	27076.19
829.95	27287.14
830.12	26883.69
830.30	26803.82
830.48	26863.21
830.66	26986.08
830.84	27151.97
831.01	26504.81
831.19	26707.56
831.37	26629.74
831.55	26769.00
831.72	26793.58
831.90	26502.76
832.08	26543.72
832.25	26584.68
832.43	26621.55
832.61	26537.58
832.79	26347.12
832.96	26416.75
833.14	26582.63
833.32	26703.46
833.50	26566.25
833.67	26422.89
833.85	26099.31
834.03	26140.27
834.20	26429.04
834.38	26318.45
834.56	26320.49
834.74	25982.58
834.91	25990.77
835.09	26242.67
835.27	25683.58
835.44	26023.54
835.62	25650.81
835.80	25579.13
835.98	26224.24
836.15	26013.30
836.33	25775.73
836.51	25833.08
836.68	25693.82
836.86	25622.14
837.04	25687.67
837.21	25773.69
837.39	25515.64
837.57	25702.01
837.75	25622.14
837.92	25159.30
838.10	25284.22
838.28	25050.75
838.45	25398.91
838.63	25286.27
838.81	25226.88
838.98	25104.00
839.16	25263.74
839.34	25089.67
839.51	25165.44
839.69	25054.85
839.87	25011.84
840.04	24950.40
840.22	25265.79
840.40	24821.38
840.57	24684.17
840.75	24882.82
840.93	24628.87
841.10	24809.09
841.28	25181.82
841.46	24772.23
841.63	25001.60
841.81	24823.43
841.98	24632.97
842.16	24848.00
842.34	25300.61
842.51	24524.43
842.69	24637.06
842.87	24673.93
843.04	24913.54
843.22	24399.50
843.40	24350.35
843.57	24594.06
843.75	24635.02
843.92	24702.60
844.10	24315.53
844.28	24518.28
844.45	24323.72
844.63	24432.27
844.81	24305.29
844.98	23987.86
845.16	23848.60
845.33	24571.53
845.51	24211.09
845.69	23895.70
845.86	24247.95
846.04	24139.41
846.21	23774.87
846.39	24082.06
846.57	23643.80
846.74	23955.09
846.92	23895.70
847.09	23836.31
847.27	23754.39
847.45	24055.44
847.62	23828.12
847.80	23670.42
847.97	23508.63
848.15	23781.01
848.32	23621.27
848.50	23643.80
848.68	23414.43
848.85	23350.94
849.03	23320.22
849.20	23738.01
849.38	23332.51
849.56	23592.60
849.73	23369.37
849.91	23238.30
850.08	23396.00
850.26	22900.39
850.43	22988.45
850.61	23129.76
850.78	23062.18
850.96	23230.11
851.14	23004.83
851.31	23330.46
851.49	22832.80
851.66	23113.38
851.84	23178.91
852.01	23078.56
852.19	23396.00
852.36	23205.53
852.54	23166.62
852.71	23015.07
852.89	22638.25
853.07	22972.07
853.24	22908.58
853.42	22654.63
853.59	22628.01
853.77	22884.00
853.94	22650.53
854.12	22785.70
854.29	22490.79
854.47	22501.03
854.64	22800.04
854.82	22498.98
854.99	22701.73
855.17	22539.94
855.34	22472.36
855.52	22476.46
855.69	22386.35
855.87	22126.25
856.04	22066.86
856.22	22607.53
856.39	22156.97
856.57	22224.56
856.74	22183.60
856.92	22300.33
857.09	22242.99
857.27	22204.08
857.44	22410.92
857.62	22220.46
857.79	21915.31
857.97	22226.60
858.14	21745.33
858.32	21903.03
858.49	22118.06
858.67	21892.79
858.84	21673.65
859.02	21878.45
859.19	21741.24
859.37	21857.97
859.54	21642.93
859.72	21759.67
859.89	21524.15
860.06	21696.18
860.24	21520.06
860.41	21749.43
860.59	21614.26
860.76	21698.23
860.94	21384.89
861.11	21501.62
861.29	21386.94
861.46	21610.17
861.64	21292.73
861.81	21597.88
861.98	21386.94
862.16	21341.88
862.33	21235.39
862.51	21014.21
862.68	21393.08
862.86	21343.93
863.03	21239.48
863.21	21180.09
863.38	20944.58
863.55	20932.29
863.73	21096.13
863.90	21280.44
864.08	20983.49
864.25	21042.88
864.43	20911.81
864.60	20997.82
864.77	20823.75
864.95	20754.12
865.12	20547.27
865.30	21032.64
865.47	20647.62
865.64	20850.37
865.82	20932.29
865.99	20858.56
866.17	20647.62
866.34	20850.37
866.51	20428.49
866.69	20856.51
866.86	20526.79
867.04	20766.40
867.21	20481.74
867.38	20569.80
867.56	20516.55
867.73	20504.26
867.91	20104.91
868.08	20453.06
868.25	20158.16
868.43	20047.57
868.60	20018.89
868.78	20154.06
868.95	20125.39
869.12	19975.89
869.30	20195.02
869.47	20270.79
869.64	19594.96
869.82	19939.02
869.99	19900.11
870.16	20055.76
870.34	19939.02
870.51	20002.51
870.69	19648.21
870.86	19490.52
871.03	19664.60
871.21	19738.32
871.38	19695.32
871.55	19498.71
871.73	19748.56
871.90	19386.07
872.07	19226.33
872.25	19377.88
872.42	19402.46
872.59	19107.55
872.77	19117.79
872.94	19463.90
873.11	19039.97
873.29	19154.65
873.46	19222.23
873.63	19283.67
873.81	19320.54
873.98	19132.12
874.15	19082.97
874.33	18925.28
874.50	18837.22
874.67	19115.74
874.85	18734.82
875.02	18802.40
875.19	18446.05
875.37	18824.93
875.54	18646.76
875.71	18808.54
875.88	18478.82
876.06	18501.35
876.23	18675.43
876.40	18515.69
876.58	18700.00
876.75	18542.31
876.92	18355.94
877.10	18401.00
877.27	18253.55
877.44	18171.63
877.61	18339.56
877.79	18257.64
877.96	18462.44
878.13	18124.52
878.31	18018.03
878.48	17970.93
878.65	18040.56
878.82	17911.53
879.00	18030.32
879.17	17934.06
879.34	17739.51
879.51	17553.14
879.69	17628.92
879.86	17846.00
880.03	17663.73
880.21	17624.82
880.38	17587.96
880.55	17661.68
880.72	17444.60
880.90	17616.63
881.07	17463.03
881.24	17456.89
881.41	17684.21
881.59	17448.69
881.76	17614.58
881.93	17422.07
882.10	17268.47
882.28	17559.28
882.45	17344.25
882.62	17231.61
882.79	17442.55
882.96	17182.46
883.14	17243.90
883.31	17344.25
883.48	17182.46
883.65	17360.63
883.83	17391.35
884.00	17082.11
884.17	17014.52
884.34	17026.81
884.51	17231.61
884.69	17207.03
884.86	17166.07
885.03	16957.18
885.20	16762.62
885.38	17110.78
885.55	16852.73
885.72	16723.71
885.89	16779.01
886.06	16877.31
886.24	16799.49
886.41	17032.96
886.58	16684.80
886.75	16889.60
886.92	16680.71
887.10	16883.45
887.27	16387.85
887.44	16674.56
887.61	16668.42
887.78	16852.73
887.95	16600.83
888.13	16535.30
888.30	16443.14
888.47	16396.04
888.64	16592.64
888.81	16580.36
888.99	16424.71
889.16	15990.54
889.33	16203.53
889.50	16135.95
889.67	16135.95
889.84	16137.99
890.01	16293.64
890.19	16092.94
890.36	16041.74
890.53	16164.62
890.70	16064.27
890.87	16123.66
891.04	15818.51
891.22	15834.89
891.39	15849.23
891.56	15841.04
891.73	15795.98
891.90	15834.89
892.07	15576.85
892.24	15847.18
892.42	15699.73
892.59	15785.74
892.76	15660.82
892.93	15740.69
893.10	15802.13
893.27	16066.31
893.44	15443.73
893.61	15501.08
893.79	15671.06
893.96	15607.57
894.13	15664.91
894.30	15851.28
894.47	15361.81
894.64	15683.34
894.81	15525.65
894.98	15484.69
895.15	15664.91
895.33	15617.81
895.50	15419.16
895.67	15548.18
895.84	15572.75
896.01	15181.59
896.18	15439.64
896.35	15738.64
896.52	15429.40
896.69	15439.64
896.86	15529.75
897.04	15335.19
897.21	15413.01
897.38	15214.36
897.55	15470.36
897.72	15466.26
897.89	15628.05
898.06	15404.82
898.23	15238.94
898.40	15286.04
898.57	15437.59
898.74	15290.13
898.91	15322.90
899.08	15462.16
899.26	15259.42
899.43	15359.77
899.60	15107.87
899.77	15269.66
899.94	15167.26
900.11	15124.25
900.28	15193.88
900.45	15050.52
900.62	14987.04
900.79	15345.43
900.96	15390.49
901.13	14782.24
901.30	15087.39
901.47	15034.14
901.64	15281.94
901.81	15052.57
901.98	15034.14
902.15	15341.33
902.32	15077.15
902.49	15331.09
902.66	15142.68
902.83	15245.08
903.01	15261.46
903.18	14970.65
903.35	15238.94
903.52	15134.49
903.69	15339.29
903.86	15136.54
904.03	14952.22
904.20	15048.47
904.37	15177.50
904.54	14982.94
904.71	15265.56
904.88	15337.24
905.05	15255.32
905.22	15310.61
905.39	14864.16
905.56	15175.45
905.73	14999.32
905.90	14905.12
906.07	15089.43
906.24	15073.05
906.41	14894.88
906.58	15060.76
906.75	14987.04
906.92	14884.64
907.09	14753.57
907.26	15206.17
907.43	14923.55
907.60	15083.29
907.77	14866.21
907.93	15038.23
908.10	14944.03
908.27	15163.16
908.44	15009.56
908.61	14982.94
908.78	15038.23
908.95	14968.60
909.12	14917.40
909.29	14845.73
909.46	14804.77
909.63	15077.15
909.80	14997.28
909.97	14948.12
910.14	14915.36
910.31	15032.09
910.48	14843.68
910.65	14737.18
910.82	14577.44
910.99	14839.58
911.16	14872.35
911.33	14624.54
911.50	14681.89
911.66	14804.77
911.83	14671.65
912.00	14616.35
912.17	14286.63
912.34	14595.87
912.51	14569.25
912.68	14356.26
912.85	14585.63
913.02	14432.04
913.19	14565.15
913.36	14493.47
913.53	14464.80
913.70	14409.51
913.86	14520.10
914.03	14466.85
914.20	14061.35
914.37	14305.06
914.54	14114.60
914.71	14360.36
914.88	14325.54
915.05	14096.17
915.22	14098.22
915.39	14384.93
915.55	14055.21
915.72	14018.35
915.89	14010.15
916.06	13866.80
916.23	13993.77
916.40	13741.87
916.57	13854.51
916.74	13743.92
916.91	13985.58
917.07	13784.88
917.24	13719.34
917.41	13768.49
917.58	13662.00
917.75	13545.27
917.92	13592.37
918.09	13440.82
918.26	13643.57
918.42	13541.17
918.59	13541.17
918.76	13563.70
918.93	13272.89
919.10	13381.43
919.27	13244.21
919.44	13420.34
919.60	13539.12
919.77	13154.10
919.94	13299.51
920.11	13152.06
920.28	13109.05
920.45	13147.96
920.61	13160.25
920.78	12832.57
920.95	13250.36
921.12	13027.13
921.29	12742.46
921.46	12914.49
921.62	12373.83
921.79	12707.65
921.96	12699.45
922.13	12660.54
922.30	12633.92
922.47	12400.45
922.63	12713.79
922.80	12314.44
922.97	12451.65
923.14	12140.36
923.31	12347.20
923.47	12365.64
923.64	12545.86
923.81	12175.17
923.98	12207.94
924.15	11880.27
924.32	12226.37
924.48	12455.75
924.65	12050.25
924.82	11857.74
924.99	11962.19
925.15	11818.83
925.32	11798.35
925.49	11474.77
925.66	11636.56
925.83	11671.37
925.99	11747.15
926.16	11738.96
926.33	11540.30
926.50	11288.40
926.67	11562.83
926.83	11454.29
927.00	11550.54
927.17	11360.08
927.34	11296.60
927.50	11214.68
927.67	11308.88
927.84	11323.22
928.01	11337.56
928.17	11269.97
928.34	11210.58
928.51	11075.42
928.68	11040.60
928.84	10936.15
929.01	10612.57
929.18	10854.23
929.35	10569.57
929.51	10815.32
929.68	10772.32
929.85	10592.09
930.02	10684.25
930.18	10499.94
930.35	10403.68
930.52	10596.19
930.69	10510.18
930.85	10293.09
931.02	10332.00
931.19	10170.21
931.36	10254.18
931.52	10266.47
931.69	10194.79
931.86	10071.91
932.02	10129.25
932.19	10080.10
932.36	9817.96
932.53	9920.36
932.69	9989.99
932.86	9973.61
933.03	9887.59
933.19	9639.79
933.36	9977.70
933.53	9908.07
933.70	9514.86
933.86	9725.80
934.03	9580.40
934.20	9377.65
934.36	9494.38
934.53	9189.24
934.70	9391.98
934.86	9291.63
935.03	9068.41
935.20	9131.89
935.36	9004.92
935.53	8935.29
935.70	8902.52
935.86	8992.63
936.03	8683.39
936.20	8638.33
936.36	8521.60
936.53	8638.33
936.70	8597.37
936.86	8505.21
937.03	8400.77
937.20	8040.33
937.36	8308.61
937.53	8015.75
937.70	8040.33
937.86	7815.05
938.03	7939.97
938.20	7968.65
938.36	7614.35
938.53	7800.71
938.70	7540.62
938.86	7651.21
939.03	7309.20
939.20	7348.11
939.36	7272.34
939.53	7245.71
939.70	7493.52
939.86	6913.94
940.03	6936.47
940.19	6684.57
940.36	6915.99
940.53	6838.17
940.69	6674.33
940.86	6580.12
941.03	6631.32
941.19	6442.91
941.36	6365.09
941.52	6410.14
941.69	6191.01
941.86	6262.69
942.02	6262.69
942.19	6074.28
942.35	6168.48
942.52	6156.19
942.69	5953.45
942.85	5967.78
943.02	5857.19
943.18	6000.55
943.35	5793.70
943.52	5644.20
943.68	5828.52
943.85	5701.54
944.01	5679.02
944.18	5560.24
944.35	5662.63
944.51	5420.97
944.68	5496.75
944.84	5306.29
945.01	5533.61
945.17	5435.31
945.34	5308.34
945.51	5367.73
945.67	5332.91
945.84	5418.93
946.00	5244.85
946.17	5382.06
946.33	5162.93
946.50	5298.10
946.67	5455.79
946.83	5156.79
947.00	5459.88
947.16	5439.40
947.33	5240.75
947.49	5244.85
947.66	5371.82
947.82	5427.12
947.99	5373.87
948.16	5337.01
948.32	5261.23
948.49	5355.44
948.65	5451.69
948.82	5316.53
948.98	5334.96
949.15	5207.98
949.31	5398.45
949.48	5355.44
949.64	5246.90
949.81	5363.63
949.97	5279.66
950.14	5316.53
950.30	5248.94
950.47	5353.39
950.63	5283.76
950.80	5431.21
950.96	5357.49
951.13	5255.09
951.30	5445.55
951.46	5248.94
951.63	5447.60
951.79	5418.93
951.96	5457.84
952.12	5429.17
952.29	5461.93
952.45	5205.94
952.62	5531.56
952.78	5320.62
952.94	5330.86
953.11	5306.29
953.27	5388.21
953.44	5597.10
953.60	5470.12
953.77	5425.07
953.93	5390.25
954.10	5312.43
954.26	5449.64
954.43	5560.24
954.59	5601.19
954.76	5521.32
954.92	5423.02
955.09	5486.51
955.25	5414.83
955.42	5433.26
955.58	5515.18
955.75	5521.32
955.91	5410.73
956.07	5517.23
956.24	5625.77
956.40	5578.67
956.57	5545.90
956.73	5425.07
956.90	5623.72
957.06	5582.76
957.23	5496.75
957.39	5509.04
957.56	5545.90
957.72	5373.87
957.88	5554.09
958.05	5762.98
958.21	5529.52
958.38	5500.84
958.54	5425.07
958.71	5623.72
958.87	5380.01
959.03	5490.60
959.20	5504.94
959.36	5525.42
959.53	5519.28
959.69	5523.37
959.85	5476.27
960.02	5488.56
960.18	5564.33
960.35	5455.79
960.51	5631.91
960.68	5506.99
960.84	5531.56
961.00	5431.21
961.17	5525.42
961.33	5463.98
961.50	5521.32
961.66	5543.85
961.82	5476.27
961.99	5506.99
962.15	5476.27
962.31	5515.18
962.48	5498.80
962.64	5476.27
962.81	5494.70
962.97	5449.64
963.13	5468.08
963.30	5513.13
963.46	5351.34
963.62	5343.15
963.79	5461.93
963.95	5326.77
964.12	5451.69
964.28	5566.38
964.44	5341.10
964.61	5339.05
964.77	5466.03
964.93	5545.90
965.10	5289.90
965.26	5291.95
965.42	5449.64
965.59	5373.87
965.75	5423.02
965.92	5439.40
966.08	5330.86
966.24	5425.07
966.41	5201.84
966.57	5484.46
966.73	5380.01
966.90	5273.52
967.06	5150.64
967.22	5230.51
967.39	5326.77
967.55	5253.04
967.71	5246.90
967.88	5236.66
968.04	5296.05
968.20	5244.85
968.37	5160.88
968.53	5216.18
968.69	5337.01
968.85	5183.41
969.02	5154.74
969.18	5261.23
969.34	5119.92
969.51	5197.74
969.67	5146.55
969.83	4941.75
970.00	5345.20
970.16	5058.48
970.32	5148.59
970.48	5169.07
970.65	5078.96
970.81	5021.62
970.97	5009.33
971.14	4962.23
971.30	5054.39
971.46	5044.15
971.63	5021.62
971.79	5132.21
971.95	4970.42
972.11	4980.66
972.28	5093.30
972.44	5021.62
972.60	4896.69
972.76	4900.79
972.93	4951.99
973.09	4958.13
973.25	4888.50
973.42	4943.80
973.58	5025.72
973.74	4900.79
973.90	4925.36
974.07	4853.69
974.23	4974.52
974.39	4837.30
974.55	4902.84
974.72	4804.53
974.88	4739.00
975.04	4968.37
975.20	4859.83
975.37	4855.73
975.53	4728.76
975.69	4894.65
975.85	4833.21
976.01	4851.64
976.18	4784.06
976.34	4800.44
976.50	4865.97
976.66	4831.16
976.83	4636.60
976.99	4648.89
977.15	4796.34
977.31	4583.35
977.47	4655.03
977.64	4759.48
977.80	4583.35
977.96	4671.42
978.12	4595.64
978.29	4548.54
978.45	4603.83
978.61	4515.77
978.77	4591.55
978.93	4609.98
979.10	4417.47
979.26	4575.16
979.42	4521.92
979.58	4456.38
979.74	4587.45
979.91	4458.43
980.07	4419.52
980.23	4526.01
980.39	4353.98
980.55	4351.93
980.71	4372.41
980.88	4378.56
981.04	4405.18
981.20	4399.04
981.36	4425.66
981.52	4417.47
981.68	4427.71
981.85	4425.66
982.01	4476.86
982.17	4321.21
982.33	4298.69
982.49	4448.19
982.65	4362.17
982.82	4372.41
982.98	4351.93
983.14	4272.06
983.30	4233.15
983.46	4261.82
983.62	4239.30
983.79	4138.94
983.95	4214.72
984.11	4214.72
984.27	4284.35
984.43	4188.10
984.59	4210.62
984.75	4224.96
984.91	4175.81
985.08	4155.33
985.24	4128.70
985.40	4134.85
985.56	4145.09
985.72	4153.28
985.88	4245.44
986.04	4163.52
986.20	4016.07
986.37	4089.79
986.53	4054.98
986.69	4181.95
986.85	4091.84
987.01	4040.64
987.17	4061.12
987.33	3936.20
987.49	3856.33
987.65	4161.47
987.82	3966.92
987.98	3962.82
988.14	4022.21
988.30	3958.72
988.46	3960.77
988.62	4067.27
988.78	4024.26
988.94	3985.35
989.10	3885.00
989.26	3899.33
989.42	3839.94
989.59	3778.50
989.75	3862.47
989.91	3798.98
990.07	3712.97
990.23	3737.54
990.39	3786.69
990.55	3786.69
990.71	3874.76
990.87	3837.89
991.03	3815.37
991.19	3801.03
991.35	3794.89
991.51	3737.54
991.67	3901.38
991.83	3809.22
992.00	3682.25
992.16	3747.78
992.32	3796.93
992.48	3846.09
992.64	3633.10
992.80	3798.98
992.96	3725.26
993.12	3786.69
993.28	3626.95
993.44	3612.62
993.60	3694.54
993.76	3708.87
993.92	3590.09
994.08	3725.26
994.24	3598.28
994.40	3672.01
994.56	3536.84
994.72	3649.48
994.88	3624.90
995.04	3528.65
995.20	3497.93
995.36	3534.79
995.52	3571.66
995.68	3459.02
995.84	3479.50
996.00	3542.99
996.16	3463.12
996.32	3346.38
996.48	3467.21
996.64	3542.99
996.80	3319.76
996.96	3514.31
997.12	3465.16
997.28	3362.76
997.44	3471.31
997.60	3342.28
997.76	3461.07
997.92	3360.72
998.08	3438.54
998.24	3391.44
998.40	3393.48
998.56	3407.82
998.72	3354.57
998.88	3330.00
999.04	3305.42
999.20	3368.91
999.36	3319.76
999.52	3280.85
999.68	3223.50
999.84	3280.85
1000.00	3293.13
1000.16	3375.05
1000.32	3280.85
1000.48	3368.91
1000.64	3125.20
1000.80	3248.08
1000.95	3205.07
1001.11	3264.46
1001.27	3071.95
1001.43	3231.69
1001.59	3043.28
1001.75	3055.57
1001.91	3219.41
1002.07	3203.02
1002.23	3014.61
1002.39	3119.06
1002.55	3141.58
1002.71	3051.47
1002.87	3166.16
1003.03	3016.66
1003.19	3092.43
1003.34	3106.77
1003.50	3090.38
1003.66	3129.30
1003.82	3157.97
1003.98	2965.46
1004.14	3141.58
1004.30	3000.27
1004.46	3059.67
1004.62	2967.51
1004.78	3012.56
1004.94	3014.61
1005.09	3020.75
1005.25	3024.85
1005.41	2938.84
1005.57	3074.00
1005.73	2940.88
1005.89	2953.17
1006.05	2951.12
1006.21	2977.75
1006.37	2869.20
1006.52	2973.65
1006.68	2793.43
1006.84	3002.32
1007.00	2850.77
1007.16	2906.07
1007.32	2957.27
1007.48	2971.60
1007.64	2940.88
1007.79	2854.87
1007.95	2807.77
1008.11	2961.36
1008.27	2813.91
1008.43	2916.31
1008.59	2844.63
1008.75	2865.11
1008.91	2811.86
1009.06	2807.77
1009.22	2836.44
1009.38	2807.77
1009.54	2797.53
1009.70	2768.85
1009.86	2797.53
1010.01	2897.88
1010.17	2672.60
1010.33	2789.33
1010.49	2777.05
1010.65	2875.35
1010.81	2688.98
1010.96	2799.57
1011.12	2719.70
1011.28	2744.28
1011.44	2797.53
1011.60	2723.80
1011.76	2684.89
1011.91	2760.66
1012.07	2639.83
1012.23	2639.83
1012.39	2607.06
1012.55	2688.98
1012.71	2570.20
1012.86	2600.92
1013.02	2697.17
1013.18	2643.93
1013.34	2678.74
1013.50	2566.10
1013.65	2609.11
1013.81	2576.34
1013.97	2676.70
1014.13	2551.77
1014.29	2621.40
1014.44	2676.70
1014.60	2492.38
1014.76	2590.68
1014.92	2547.67
1015.07	2582.49
1015.23	2666.46
1015.39	2490.33
1015.55	2519.00
1015.71	2568.15
1015.86	2426.84
1016.02	2500.57
1016.18	2402.27
1016.34	2498.52
1016.49	2428.89
1016.65	2562.01
1016.81	2496.47
1016.97	2490.33
1017.12	2525.15
1017.28	2334.68
1017.44	2338.78
1017.60	2365.40
1017.75	2422.75
1017.91	2387.93
1018.07	2465.75
1018.23	2414.56
1018.38	2355.16
1018.54	2500.57
1018.70	2506.71
1018.86	2375.64
1019.01	2330.59
1019.17	2385.88
1019.33	2453.47
1019.49	2373.60
1019.64	2318.30
1019.80	2383.84
1019.96	2459.61
1020.12	2396.12
1020.27	2285.53
1020.43	2232.29
1020.59	2396.12
1020.74	2349.02
1020.90	2324.44
1021.06	2287.58
1021.22	2320.35
1021.37	2328.54
1021.53	2353.12
1021.69	2250.72
1021.84	2166.75
1022.00	2252.77
1022.16	2279.39
1022.31	2195.42
1022.47	2326.49
1022.63	2252.77
1022.79	2197.47
1022.94	2138.08
1023.10	2332.64
1023.26	2189.28
1023.41	2295.77
1023.57	2207.71
1023.73	2281.44
1023.88	2215.90
1024.04	2127.84
1024.20	2174.94
1024.35	2189.28
1024.51	2213.85
1024.67	2203.61
1024.82	2236.38
1024.98	2142.18
1025.14	2170.85
1025.29	2084.83
1025.45	2234.33
1025.61	2086.88
1025.76	2174.94
1025.92	2144.22
1026.08	2136.03
1026.23	2189.28
1026.39	2207.71
1026.55	2158.56
1026.70	2105.31
1026.86	2197.47
1027.02	2205.66
1027.17	2148.32
1027.33	2072.54
1027.48	2072.54
1027.64	2099.17
1027.80	2007.01
1027.95	2107.36
1028.11	2002.91
1028.27	2076.64
1028.42	2191.33
1028.58	2072.54
1028.73	1931.23
1028.89	1970.15
1029.05	2095.07
1029.20	2023.39
>>>>>End Processed Spectral Data<<<<<
