SpectraSuite Data File
++++++++++++++++++++++++++++++++++++
Date: Fri Jun 02 14:47:55 CEST 2017
User: INFO_000
Dark Spectrum Present: No
Reference Spectrum Present: No
Number of Sampled Component Spectra: 1
Spectrometers: USB4H00879
Integration Time (usec): 80000 (USB4H00879)
Spectra Averaged: 1 (USB4H00879)
Boxcar Smoothing: 0 (USB4H00879)
Correct for Electrical Dark: No (USB4H00879)
Strobe/Lamp Enabled: No (USB4H00879)
Correct for Detector Non-linearity: No (USB4H00879)
Correct for Stray Light: No (USB4H00879)
Number of Pixels in Processed Spectrum: 3648
>>>>>Begin Processed Spectral Data<<<<<
345.13	1249.26
345.34	1249.26
345.56	1249.26
345.78	1267.69
345.99	1232.88
346.21	1701.86
346.42	1640.42
346.64	1675.24
346.86	1759.21
347.07	1734.63
347.29	1650.66
347.50	1564.65
347.72	1636.33
347.94	1828.84
348.15	1568.74
348.37	1540.07
348.59	1665.00
348.80	1630.18
349.02	1748.97
349.23	1847.27
349.45	1722.34
349.67	1884.13
349.88	1785.83
350.10	1937.38
350.31	1789.92
350.53	1869.80
350.75	1986.53
350.96	1796.07
351.18	1843.17
351.39	1841.12
351.61	1777.64
351.82	1886.18
352.04	1916.90
352.26	1796.07
352.47	1873.89
352.69	1791.97
352.90	1812.45
353.12	1886.18
353.34	1837.03
353.55	1912.80
353.77	1855.46
353.98	1837.03
354.20	1812.45
354.41	1884.13
354.63	1972.19
354.85	1996.77
355.06	1941.47
355.28	1845.22
355.49	1812.45
355.71	1888.23
355.92	1841.12
356.14	1859.56
356.35	1892.32
356.57	1818.60
356.79	1916.90
357.00	1896.42
357.22	2037.73
357.43	1843.17
357.65	1929.19
357.86	1832.93
358.08	1945.57
358.29	2019.30
358.51	1902.56
358.72	1873.89
358.94	1933.28
359.16	1927.14
359.37	1898.47
359.59	1927.14
359.80	1910.75
360.02	1949.67
360.23	1929.19
360.45	1966.05
360.66	1884.13
360.88	1820.64
361.09	1918.95
361.31	1937.38
361.52	2090.98
361.74	2013.15
361.95	2125.79
362.17	1964.00
362.38	2072.54
362.60	2074.59
362.81	1978.34
363.03	1951.71
363.24	2031.58
363.46	2066.40
363.67	2093.02
363.89	1961.95
364.10	1939.43
364.32	1951.71
364.53	2050.02
364.75	1918.95
364.96	2023.39
365.18	1992.67
365.39	2011.11
365.61	2023.39
365.82	2078.69
366.04	2039.78
366.25	1925.09
366.47	2086.88
366.68	2041.82
366.90	1941.47
367.11	2107.36
367.33	2060.26
367.54	2086.88
367.76	2035.68
367.97	2068.45
368.19	2015.20
368.40	2101.22
368.62	1968.10
368.83	2011.11
369.05	2054.11
369.26	1925.09
369.48	1966.05
369.69	1992.67
369.91	1966.05
370.12	2017.25
370.33	2109.41
370.55	1976.29
370.76	2074.59
370.98	2086.88
371.19	2072.54
371.41	2007.01
371.62	2125.79
371.84	2011.11
372.05	2248.67
372.27	2113.50
372.48	2088.93
372.69	2074.59
372.91	2125.79
373.12	2064.35
373.34	2099.17
373.55	2131.94
373.77	2236.38
373.98	2052.06
374.20	2154.46
374.41	2201.57
374.62	2170.85
374.84	2113.50
375.05	2146.27
375.27	2189.28
375.48	2146.27
375.70	2101.22
375.91	2226.14
376.12	2351.07
376.34	2138.08
376.55	2244.57
376.77	2172.89
376.98	2123.74
377.19	2183.13
377.41	2129.89
377.62	2308.06
377.84	2205.66
378.05	2265.05
378.27	2222.05
378.48	2295.77
378.69	2396.12
378.91	2355.16
379.12	2283.49
379.34	2172.89
379.55	2332.64
379.76	2316.25
379.98	2207.71
380.19	2248.67
380.41	2144.22
380.62	2289.63
380.83	2258.91
381.05	2142.18
381.26	2316.25
381.47	2293.72
381.69	2201.57
381.90	2408.41
382.12	2301.92
382.33	2281.44
382.54	2289.63
382.76	2314.20
382.97	2250.72
383.19	2232.29
383.40	2332.64
383.61	2359.26
383.83	2269.15
384.04	2355.16
384.25	2361.31
384.47	2428.89
384.68	2326.49
384.89	2371.55
385.11	2306.01
385.32	2297.82
385.54	2306.01
385.75	2414.56
385.96	2478.04
386.18	2471.90
386.39	2322.40
386.60	2379.74
386.82	2381.79
387.03	2361.31
387.24	2494.43
387.46	2506.71
387.67	2463.71
387.88	2469.85
388.10	2420.70
388.31	2506.71
388.52	2475.99
388.74	2508.76
388.95	2547.67
389.16	2523.10
389.38	2463.71
389.59	2539.48
389.80	2656.22
390.02	2443.23
390.23	2605.02
390.44	2588.63
390.66	2502.62
390.87	2568.15
391.08	2625.50
391.30	2703.32
391.51	2572.25
391.72	2736.09
391.94	2566.10
392.15	2580.44
392.36	2613.21
392.58	2605.02
392.79	2662.36
393.00	2684.89
393.22	2631.64
393.43	2705.37
393.64	2740.18
393.85	2805.72
394.07	2684.89
394.28	2779.09
394.49	2891.73
394.71	2779.09
394.92	2906.07
395.13	2748.37
395.35	2727.89
395.56	2762.71
395.77	2844.63
395.98	2772.95
396.20	2951.12
396.41	2846.68
396.62	2914.26
396.84	2869.20
397.05	2752.47
397.26	2947.03
397.47	2930.64
397.69	2822.10
397.90	2998.23
398.11	2912.21
398.32	2947.03
398.54	2791.38
398.75	2942.93
398.96	2936.79
399.18	3063.76
399.39	3006.42
399.60	3039.19
399.81	2973.65
400.03	3016.66
400.24	3297.23
400.45	2938.84
400.66	3067.86
400.88	2996.18
401.09	3131.34
401.30	3088.34
401.51	3151.82
401.73	3123.15
401.94	3164.11
402.15	3071.95
402.36	3192.78
402.58	3112.91
402.79	3268.56
403.00	3141.58
403.21	3243.98
403.43	3215.31
403.64	3248.08
403.85	3192.78
404.06	3149.78
404.27	3153.87
404.49	3239.89
404.70	3149.78
404.91	3319.76
405.12	3190.74
405.34	3094.48
405.55	3346.38
405.76	3213.26
405.97	3243.98
406.19	3375.05
406.40	3186.64
406.61	3330.00
406.82	3348.43
407.03	3233.74
407.25	3258.32
407.46	3311.57
407.67	3440.59
407.88	3442.64
408.09	3319.76
408.31	3330.00
408.52	3313.61
408.73	3313.61
408.94	3370.96
409.15	3477.45
409.37	3397.58
409.58	3379.15
409.79	3413.96
410.00	3569.61
410.21	3493.83
410.43	3454.92
410.64	3397.58
410.85	3489.74
411.06	3495.88
411.27	3407.82
411.48	3633.10
411.70	3248.08
411.91	3551.18
412.12	3633.10
412.33	3522.51
412.54	3563.47
412.76	3594.19
412.97	3712.97
413.18	3512.27
413.39	3655.62
413.60	3762.12
413.81	3657.67
414.03	3579.85
414.24	3487.69
414.45	3841.99
414.66	3502.03
414.87	3737.54
415.08	3710.92
415.30	3639.24
415.51	3735.50
415.72	3676.10
415.93	3669.96
416.14	3897.28
416.35	3854.28
416.56	3739.59
416.78	3770.31
416.99	3846.09
417.20	3801.03
417.41	3831.75
417.62	3778.50
417.83	3856.33
418.04	3977.16
418.26	3993.54
418.47	3891.14
418.68	3960.77
418.89	3889.09
419.10	4046.79
419.31	3897.28
419.52	4038.59
419.73	4020.16
419.95	4161.47
420.16	3946.44
420.37	4079.55
420.58	4024.26
420.79	4005.83
421.00	4147.14
421.21	4224.96
421.42	3962.82
421.63	4089.79
421.85	4075.46
422.06	4153.28
422.27	4083.65
422.48	4177.86
422.69	4222.91
422.90	4306.88
423.11	4212.67
423.32	4294.59
423.53	4454.33
423.75	4423.61
423.96	4310.97
424.17	4431.80
424.38	4487.10
424.59	4429.76
424.80	4536.25
425.01	4483.00
425.22	4392.89
425.43	4456.38
425.64	4620.22
425.85	4655.03
426.06	4595.64
426.28	4620.22
426.49	4566.97
426.70	4558.78
426.91	4474.81
427.12	4642.75
427.33	4620.22
427.54	4605.88
427.75	4790.20
427.96	4865.97
428.17	4755.38
428.38	4779.96
428.59	4857.78
428.80	4753.34
429.01	4915.12
429.23	4837.30
429.44	5040.05
429.65	4915.12
429.86	4949.94
430.07	4884.41
430.28	4951.99
430.49	4951.99
430.70	5060.53
430.91	5085.11
431.12	5038.00
431.33	5081.01
431.54	5056.43
431.75	5152.69
431.96	5107.63
432.17	5025.72
432.38	5070.77
432.59	5359.53
432.80	5203.89
433.01	5386.16
433.22	5277.62
433.43	5214.13
433.64	5289.90
433.85	5232.56
434.06	5355.44
434.27	5291.95
434.49	5343.15
434.70	5308.34
434.91	5375.92
435.12	5382.06
435.33	5425.07
435.54	5400.49
435.75	5287.86
435.96	5482.41
436.17	5414.83
436.38	5523.37
436.59	5726.12
436.80	5429.17
437.01	5644.20
437.22	5730.22
437.43	5564.33
437.64	5437.36
437.85	5744.55
438.06	5695.40
438.27	5681.07
438.48	5558.19
438.69	5668.78
438.90	5732.26
439.11	5543.85
439.32	5748.65
439.53	5676.97
439.74	5765.03
439.95	5910.44
440.16	5742.50
440.37	5812.14
440.57	5650.35
440.78	5785.51
440.99	5851.05
441.20	5869.48
441.41	5699.50
441.62	5869.48
441.83	5959.59
442.04	5953.45
442.25	6029.22
442.46	5920.68
442.67	6033.32
442.88	6399.90
443.09	5918.63
443.30	6006.69
443.51	6086.56
443.72	6219.68
443.93	6047.65
444.14	6139.81
444.35	6018.98
444.56	6162.34
444.77	6205.35
444.98	6283.17
445.19	6434.72
445.40	6244.26
445.61	6180.77
445.81	6397.85
446.02	6381.47
446.23	6399.90
446.44	6234.02
446.65	6315.94
446.86	6461.34
447.07	6565.79
447.28	6746.01
447.49	6610.84
447.70	6588.32
447.91	6594.46
448.12	6483.87
448.33	6635.42
448.54	6754.20
448.74	6725.53
448.95	6703.00
449.16	6756.25
449.37	6901.65
449.58	6852.50
449.79	6932.37
450.00	6684.57
450.21	6975.38
450.42	6866.84
450.63	7030.68
450.84	6893.46
451.05	7034.77
451.25	6940.57
451.46	6797.21
451.67	6936.47
451.88	7370.64
452.09	7212.95
452.30	7249.81
452.51	7147.41
452.72	7296.91
452.93	7337.87
453.13	7362.45
453.34	7188.37
453.55	7434.13
453.76	7260.05
453.97	7745.42
454.18	7430.03
454.39	7587.72
454.60	7335.82
454.81	7497.61
455.01	7753.61
455.22	7417.74
455.43	7665.55
455.64	7835.53
455.85	7827.34
456.06	7939.97
456.27	7944.07
456.48	7786.38
456.68	7921.54
456.89	8021.89
457.10	7960.45
457.31	8105.86
457.52	7876.49
457.73	8019.85
457.94	8208.26
458.14	8015.75
458.35	8562.56
458.56	8368.00
458.77	8023.94
458.98	8482.69
459.19	8413.06
459.39	8468.35
459.60	8574.85
459.81	8447.87
460.02	8636.28
460.23	8343.42
460.44	8720.25
460.65	8705.92
460.85	8800.12
461.06	8793.98
461.27	8554.37
461.48	8982.39
461.69	8888.18
461.89	8642.43
462.10	8945.53
462.31	8791.93
462.52	8906.62
462.73	8918.90
462.94	9254.77
463.14	9146.23
463.35	9152.37
463.56	9539.44
463.77	9506.67
463.98	9215.86
464.18	9234.29
464.39	9568.11
464.60	9615.21
464.81	9621.36
465.02	9680.75
465.23	9658.22
465.43	9666.41
465.64	9793.39
465.85	9736.04
466.06	9828.20
466.27	9979.75
466.47	9992.04
466.68	9994.09
466.89	9895.78
467.10	10162.02
467.30	9895.78
467.51	10270.56
467.72	10354.53
467.93	10147.69
468.14	10276.71
468.34	10565.47
468.55	10471.26
468.76	10260.32
468.97	10188.64
469.17	10649.44
469.38	10905.43
469.59	10792.80
469.80	10583.90
470.01	10680.16
470.21	10710.88
470.42	11001.69
470.63	11153.24
470.84	11005.78
471.04	11167.57
471.25	11181.91
471.46	11116.37
471.67	11609.93
471.87	11300.69
472.08	11513.68
472.29	11628.37
472.50	11335.51
472.70	11534.16
472.91	11554.64
473.12	11765.58
473.33	11724.62
473.53	11984.71
473.74	11720.53
473.95	12083.02
474.16	12083.02
474.36	12126.02
474.57	12324.68
474.78	12361.54
474.99	12277.57
475.19	12392.26
475.40	12482.37
475.61	12537.66
475.81	12844.86
476.02	12838.72
476.23	12564.29
476.44	13172.54
476.64	13129.53
476.85	13297.46
477.06	13139.77
477.27	13463.35
477.47	13328.18
477.68	13424.44
477.89	13690.67
478.09	13709.10
478.30	13707.05
478.51	13780.78
478.71	14061.35
478.92	14004.01
479.13	14047.02
479.34	14108.46
479.54	14264.10
479.75	14231.33
479.96	14098.22
480.16	14411.56
480.37	14550.82
480.58	14690.08
480.78	15034.14
480.99	15019.80
481.20	15167.26
481.41	14915.36
481.61	15083.29
481.82	15189.78
482.03	15105.82
482.23	15159.06
482.44	15492.88
482.65	15611.67
482.85	15789.84
483.06	15814.41
483.27	15875.85
483.47	15974.16
483.68	16064.27
483.89	16344.84
484.09	16287.50
484.30	16369.41
484.51	16639.75
484.71	16557.83
484.92	16779.01
485.13	16674.56
485.33	16951.04
485.54	16854.78
485.75	17080.06
485.95	17135.35
486.16	17194.75
486.37	17215.23
486.57	17528.56
486.78	17456.89
486.98	17481.46
487.19	17714.93
487.40	17983.21
487.60	17768.18
487.81	18253.55
488.02	18036.46
488.22	18071.28
488.43	18126.57
488.64	18523.88
488.84	18566.88
489.05	18503.40
489.25	18321.13
489.46	19001.05
489.67	18648.80
489.87	19076.83
490.08	19164.89
490.29	19003.10
490.49	19539.67
490.70	19424.98
490.90	19562.20
491.11	19388.12
491.32	19830.48
491.52	19828.43
491.73	19871.44
491.94	20055.76
492.14	19728.08
492.35	20117.20
492.55	20465.35
492.76	20149.96
492.97	20637.38
493.17	20453.06
493.38	20709.06
493.58	21100.22
493.79	20770.50
494.00	20747.97
494.20	20876.99
494.41	21196.48
494.61	21284.54
494.82	21143.23
495.02	21130.94
495.23	21157.57
495.44	21505.72
495.64	21591.73
495.85	21614.26
496.05	22075.06
496.26	21913.27
496.47	22058.67
496.67	21886.64
496.88	22296.24
497.08	22148.78
497.29	22572.71
497.49	22326.96
497.70	22683.30
497.91	22693.54
498.11	22668.97
498.32	22642.34
498.52	22673.06
498.73	23076.51
498.93	23146.14
499.14	23269.02
499.34	22990.50
499.55	23252.64
499.76	23217.82
499.96	23465.63
500.17	23424.67
500.37	23522.97
500.58	23692.95
500.78	23649.94
500.99	23611.03
501.19	23783.06
501.40	23688.85
501.60	23834.26
501.81	23658.14
502.02	23901.84
502.22	24186.51
502.43	24057.49
502.63	24379.02
502.84	24651.40
503.04	24233.61
503.25	24692.36
503.45	24288.91
503.66	24667.78
503.86	24460.94
504.07	24577.67
504.27	24569.48
504.48	25046.66
504.68	24751.75
504.89	24913.54
505.09	25034.37
505.30	25187.97
505.50	24944.26
505.71	25190.02
505.91	25390.72
506.12	25165.44
506.32	25403.00
506.53	25239.17
506.73	25357.95
506.94	25278.08
507.14	25335.42
507.35	25521.79
507.55	25517.69
507.76	25869.94
507.96	25919.09
508.17	25613.95
508.37	26033.78
508.58	25849.46
508.78	25740.92
508.99	25998.96
509.19	25804.41
509.40	26041.97
509.60	26087.03
509.81	26019.44
510.01	26078.83
510.22	25935.48
510.42	26177.14
510.63	26390.13
510.83	26062.45
511.04	26439.28
511.24	26326.64
511.44	26300.01
511.65	26338.93
511.85	26297.97
512.06	26728.04
512.26	26619.50
512.47	26754.66
512.67	26850.92
512.88	26502.76
513.08	26424.94
513.29	26687.08
513.49	26721.90
513.69	26973.80
513.90	26814.05
514.10	27006.56
514.31	26961.51
514.51	27522.65
514.72	26754.66
514.92	27147.87
515.13	26938.98
515.33	27190.88
515.53	27119.20
515.74	27385.44
515.94	27225.70
516.15	27289.18
516.35	27319.90
516.56	27397.73
516.76	27430.49
516.96	27391.58
517.17	27684.44
517.37	27471.45
517.58	27373.15
517.78	27692.63
517.99	27815.51
518.19	27737.69
518.39	28296.78
518.60	27958.87
518.80	27866.71
519.01	28169.81
519.21	28161.62
519.41	28378.70
519.62	27872.85
519.82	28196.43
520.03	28481.10
520.23	28178.00
520.43	28419.66
520.64	28610.12
520.84	28700.23
521.05	28839.50
521.25	28866.12
521.45	28651.08
521.66	28927.56
521.86	29048.39
522.07	28812.87
522.27	29130.31
522.47	29042.24
522.68	29146.69
522.88	29072.96
523.08	29490.75
523.29	29460.03
523.49	29523.52
523.70	29832.76
523.90	30125.62
524.10	30066.23
524.31	29949.50
524.51	29664.83
524.71	30361.14
524.92	29840.95
525.12	30078.52
525.33	30115.38
525.53	30531.12
525.73	30881.32
525.94	30496.30
526.14	30557.74
526.34	30596.65
526.55	30754.35
526.75	30629.42
526.95	31034.92
527.16	31258.15
527.36	30805.55
527.56	31368.74
527.77	31481.38
527.97	31356.45
528.17	31686.17
528.38	31710.75
528.58	31600.16
528.78	31628.83
528.99	31813.15
529.19	32300.56
529.39	31706.65
529.60	32388.63
529.80	32167.45
530.00	32077.33
530.21	32255.51
530.41	32630.29
530.61	32343.57
530.82	32859.66
531.02	32591.37
531.22	32701.96
531.43	33152.52
531.63	33136.13
531.83	33486.34
532.04	33734.14
532.24	33365.51
532.44	33824.25
532.64	33918.46
532.85	33848.83
533.05	33623.55
533.25	33945.08
533.46	33719.81
533.66	34049.53
533.86	34133.50
534.07	34625.01
534.27	34309.62
534.47	34893.29
534.67	34643.44
534.88	34735.60
535.08	35014.12
535.28	34989.55
535.49	35071.46
535.69	35735.01
535.89	35384.80
536.09	35519.97
536.30	35571.17
536.50	35794.40
536.70	36085.21
536.91	35841.50
537.11	35988.95
537.31	36365.78
537.51	36140.50
537.72	36457.94
537.92	36263.38
538.12	37029.32
538.32	36681.17
538.53	36685.26
538.73	36603.35
538.93	36822.48
539.13	36845.01
539.34	37359.05
539.54	36986.32
539.74	37424.58
539.94	37240.26
540.15	37219.78
540.35	37785.02
540.55	37330.37
540.75	37729.73
540.96	38041.02
541.16	37922.24
541.36	37815.74
541.56	37778.88
541.77	38639.03
541.97	38708.66
542.17	38571.44
542.37	38645.17
542.58	38606.26
542.78	38821.30
542.98	38870.45
543.18	39198.12
543.38	39196.07
543.59	39081.39
543.79	38911.41
543.99	38616.50
544.19	39255.46
544.40	39200.17
544.60	39474.60
544.80	39298.47
545.00	39400.87
545.20	39777.70
545.41	39347.62
545.61	39681.44
545.81	39994.78
546.01	39863.71
546.21	39783.84
546.42	39765.41
546.62	40115.61
546.82	39841.18
547.02	40119.71
547.22	40105.37
547.43	40340.89
547.63	40801.68
547.83	39962.01
548.03	39970.21
548.23	40482.20
548.44	40502.68
548.64	40912.27
548.84	40506.77
549.04	40525.21
549.24	40902.03
549.45	41010.57
549.65	40680.85
549.85	40928.66
550.05	41090.44
550.25	40648.08
550.45	41635.20
550.66	41014.67
550.86	41211.28
551.06	41401.74
551.26	41541.00
551.46	41647.49
551.66	41467.27
551.87	41442.70
552.07	41495.94
552.27	41442.70
552.47	41700.74
552.67	41579.91
552.87	41665.92
553.07	41590.15
553.28	41827.71
553.48	41915.78
553.68	41604.49
553.88	41665.92
554.08	42071.42
554.28	41534.85
554.48	41862.53
554.69	42108.29
554.89	41870.72
555.09	41528.71
555.29	41741.70
555.49	42005.89
555.69	42173.82
555.89	41833.86
556.10	42450.30
556.30	41866.63
556.50	42020.22
556.70	42186.11
556.90	42370.43
557.10	42218.88
557.30	42544.50
557.50	42339.71
557.70	42669.43
557.91	42595.70
558.11	42362.23
558.31	42610.04
558.51	42265.98
558.71	42919.28
558.91	42151.29
559.11	42325.37
559.31	42513.78
559.51	42497.40
559.72	42507.64
559.92	42767.73
560.12	42544.50
560.32	42546.55
560.52	42567.03
560.72	42900.85
560.92	42743.16
561.12	42751.35
561.32	43119.98
561.52	42798.45
561.72	43201.90
561.93	42511.74
562.13	42704.24
562.33	42980.72
562.53	43140.46
562.73	42554.74
562.93	43003.25
563.13	42937.71
563.33	42648.95
563.53	42980.72
563.73	42497.40
563.93	43048.30
564.13	43093.36
564.33	42874.23
564.53	43017.58
564.74	43099.50
564.94	42399.10
565.14	43302.25
565.34	42788.21
565.54	43025.78
565.74	42954.10
565.94	43666.79
566.14	43197.80
566.34	43154.80
566.54	43859.30
566.74	42937.71
566.94	43169.13
567.14	43365.74
567.34	43384.17
567.54	43412.84
567.74	43408.75
567.94	43185.52
568.14	43357.55
568.34	43283.82
568.54	43548.01
568.74	43574.63
568.94	43433.32
569.14	43877.73
569.34	43449.70
569.54	43699.56
569.75	43289.96
569.95	43646.31
570.15	44068.19
570.35	43693.41
570.55	43738.47
570.75	43660.65
570.95	43879.78
571.15	43578.73
571.35	43804.00
571.55	43894.11
571.75	43840.87
571.95	43662.69
572.15	44070.24
572.35	43978.08
572.55	44180.83
572.75	43971.94
572.95	44688.73
573.15	44416.35
573.35	44590.42
573.55	44184.93
573.75	44338.52
573.95	44324.19
574.15	43992.42
574.35	44635.48
574.55	44234.08
574.75	44481.88
574.95	44496.22
575.15	44533.08
575.34	44574.04
575.54	44971.35
575.74	44643.67
575.94	44516.70
576.14	44698.97
576.34	44780.88
576.54	45235.53
576.74	44871.00
576.94	44713.30
577.14	44948.82
577.34	45561.16
577.54	45086.03
577.74	45380.94
577.94	45446.47
578.14	45241.68
578.34	45307.21
578.54	45415.76
578.74	45284.68
578.94	45591.88
579.14	45499.72
579.34	45393.23
579.54	45626.70
579.74	46204.22
579.94	45927.75
580.13	45993.28
580.33	46046.53
580.53	46069.06
580.73	45966.66
580.93	46370.11
581.13	46019.91
581.33	46026.05
581.53	46548.28
581.73	46335.29
581.93	46929.20
582.13	46490.94
582.33	46630.20
582.53	46097.73
582.73	46525.75
582.92	46849.33
583.12	46552.38
583.32	47037.75
583.52	46611.77
583.72	47082.80
583.92	46980.40
584.12	47191.34
584.32	47727.91
584.52	47273.26
584.72	47768.87
584.92	47635.75
585.11	47996.20
585.31	47349.04
585.51	48280.86
585.71	47648.04
585.91	47858.98
586.11	47813.93
586.31	47977.76
586.51	47856.93
586.71	47820.07
586.91	48641.31
587.10	48266.53
587.30	48430.36
587.50	48465.18
587.70	48430.36
587.90	48594.20
588.10	49073.43
588.30	48706.84
588.50	48610.59
588.69	48805.14
588.89	48198.94
589.09	49181.97
589.29	49198.35
589.49	49243.41
589.69	48940.31
589.89	49329.42
590.08	49120.53
590.28	49468.69
590.48	49325.33
590.68	49036.56
590.88	49650.95
591.08	49474.83
591.28	49325.33
591.47	49874.18
591.67	49706.25
591.87	50070.79
592.07	49779.98
592.27	50134.28
592.47	49683.72
592.67	50009.35
592.86	49374.48
593.06	50236.67
593.26	50132.23
593.46	50132.23
593.66	50287.87
593.86	50715.90
594.05	50590.97
594.25	50748.67
594.45	50478.33
594.65	50914.55
594.85	50351.36
595.05	50457.85
595.24	50771.19
595.44	50765.05
595.64	50928.89
595.84	51168.50
596.04	51051.76
596.23	51444.98
596.43	51516.65
596.63	51025.14
596.83	51614.96
597.03	51606.76
597.22	51836.14
597.42	51485.93
597.62	51647.72
597.82	51758.31
598.02	51555.57
598.21	51631.34
598.41	51576.04
598.61	52341.99
598.81	51999.97
599.01	52178.15
599.20	52573.41
599.40	51705.07
599.60	51985.64
599.80	52440.29
600.00	52339.94
600.19	52548.83
600.39	52188.39
600.59	52993.24
600.79	52708.57
600.98	52536.54
601.18	53021.91
601.38	52862.17
601.58	53085.40
601.78	52700.38
601.97	53222.61
602.17	53425.36
602.37	52774.11
602.57	53435.60
602.76	53341.39
602.96	53300.43
603.16	53288.15
603.36	53304.53
603.55	54117.57
603.75	54121.67
603.95	53943.50
604.15	53988.55
604.34	53726.41
604.54	54310.08
604.74	53746.89
604.94	54015.18
605.13	53875.91
605.33	54234.31
605.53	54199.49
605.73	53998.79
605.92	53949.64
606.12	54367.43
606.32	54236.36
606.52	54289.60
606.71	54170.82
606.91	54752.44
607.11	54275.27
607.30	54631.61
607.50	54521.02
607.70	54764.73
607.90	54531.26
608.09	54510.78
608.29	54744.25
608.49	54578.37
608.68	54678.72
608.88	54654.14
609.08	54914.23
609.28	54928.57
609.47	54711.49
609.67	54555.84
609.87	54531.26
610.06	55053.50
610.26	54981.82
610.46	55502.00
610.66	55047.35
610.85	55141.56
611.05	54525.12
611.25	54934.71
611.44	54910.14
611.64	54846.65
611.84	55209.14
612.03	54846.65
612.23	55512.24
612.43	55219.38
612.62	54881.47
612.82	55516.34
613.02	54920.38
613.21	55178.42
613.41	54615.23
613.61	55338.16
613.80	54912.19
614.00	55368.88
614.20	55125.17
614.39	54926.52
614.59	55295.16
614.79	54813.88
614.98	54740.16
615.18	55094.46
615.38	55407.79
615.57	55286.96
615.77	55104.70
615.97	55049.40
616.16	55305.40
616.36	55155.89
616.56	55362.74
616.75	54965.43
616.95	54879.42
617.15	54809.79
617.34	55045.30
617.54	55030.97
617.74	55127.22
617.93	55086.26
618.13	54781.12
618.32	55268.53
618.52	54514.88
618.72	55323.83
618.91	54906.04
619.11	54760.64
619.31	55252.15
619.50	54631.61
619.70	54514.88
619.90	54506.69
620.09	54813.88
620.29	54729.92
620.48	54590.66
620.68	55336.12
620.88	54650.05
621.07	54424.77
621.27	54162.63
621.46	53992.65
621.66	54375.62
621.86	54437.06
622.05	53963.98
622.25	54875.32
622.44	54303.94
622.64	54312.13
622.84	54400.19
623.03	54252.74
623.23	53837.00
623.42	54371.52
623.62	54682.81
623.82	55127.22
624.01	54437.06
624.21	54287.56
624.40	54482.11
624.60	54146.25
624.80	54060.23
624.99	53910.73
625.19	53765.32
625.38	54287.56
625.58	54406.34
625.77	54557.89
625.97	54172.87
626.17	54072.52
626.36	53710.03
626.56	54162.63
626.75	53408.98
626.95	53945.54
627.14	53750.99
627.34	54295.75
627.54	54213.83
627.73	53789.90
627.93	54269.12
628.12	53411.02
628.32	53849.29
628.51	54273.22
628.71	54049.99
628.90	53724.36
629.10	53357.78
629.30	54076.61
629.49	53470.42
629.69	53570.77
629.88	53900.49
630.08	53959.88
630.27	54058.18
630.47	53753.04
630.66	53957.83
630.86	54154.44
631.05	53703.88
631.25	54031.56
631.44	53435.60
631.64	53863.63
631.84	53900.49
632.03	54156.49
632.23	53775.56
632.42	54355.14
632.62	53691.60
632.81	53040.34
633.01	53572.81
633.20	53634.25
633.40	53701.84
633.59	53511.38
633.79	53384.40
633.98	53730.51
634.18	53744.84
634.37	53505.23
634.57	54027.46
634.76	53648.59
634.96	53951.69
635.15	53892.30
635.35	53288.15
635.54	53329.11
635.74	53417.17
635.93	53386.45
636.13	53761.23
636.32	53640.40
636.52	53421.26
636.71	53685.45
636.91	53470.42
637.10	53525.71
637.30	53652.69
637.49	53443.79
637.69	53529.81
637.88	53822.67
638.08	53343.44
638.27	54043.85
638.46	53865.67
638.66	53441.74
638.85	53613.77
639.05	53609.68
639.24	54301.89
639.44	53431.50
639.63	54361.28
639.83	53730.51
640.02	53832.91
640.22	53597.39
640.41	54074.57
640.61	53335.25
640.80	53697.74
640.99	53806.28
641.19	54164.68
641.38	53945.54
641.58	53877.96
641.77	53816.52
641.97	53843.15
642.16	53748.94
642.36	53884.11
642.55	54236.36
642.74	54011.08
642.94	54066.38
643.13	53839.05
643.33	54326.47
643.52	53982.41
643.72	54404.29
643.91	53976.26
644.10	54326.47
644.30	54355.14
644.49	54099.14
644.69	54129.86
644.88	54615.23
645.08	53351.63
645.27	54250.69
645.46	53892.30
645.66	54717.63
645.85	54279.36
646.05	54617.28
646.24	54281.41
646.43	54199.49
646.63	54920.38
646.82	54801.60
647.02	54301.89
647.21	54580.42
647.40	54602.94
647.60	54631.61
647.79	54736.06
647.99	55151.80
648.18	54287.56
648.37	55116.98
648.57	55071.93
648.76	54580.42
648.96	54924.47
649.15	55219.38
649.34	54990.01
649.54	54774.97
649.73	54770.88
649.92	54826.17
650.12	55080.12
650.31	54940.86
650.51	54893.75
650.70	55096.50
650.89	55137.46
651.09	55540.91
651.28	55051.45
651.47	55112.89
651.67	55127.22
651.86	55887.02
652.06	54793.40
652.25	55123.13
652.44	55293.11
652.64	54750.40
652.83	55102.65
653.02	55448.75
653.22	55483.57
653.41	55567.54
653.60	55284.92
653.80	55243.96
653.99	55573.68
654.18	55237.81
654.38	55809.20
654.57	55442.61
654.76	55932.07
654.96	55506.10
655.15	55706.80
655.34	55911.59
655.54	55354.55
655.73	55981.23
655.92	55882.92
656.12	55995.56
656.31	55919.79
656.50	55628.98
656.70	56124.58
656.89	55307.44
657.08	55932.07
657.28	56210.60
657.47	55743.66
657.66	55850.16
657.86	55979.18
658.05	55973.03
658.24	56444.07
658.43	56057.00
658.63	56374.44
658.82	56460.45
659.01	56290.47
659.21	56480.93
659.40	56009.90
659.59	55895.21
659.79	56593.57
659.98	56577.18
660.17	56820.89
660.36	56601.76
660.56	56306.85
660.75	56521.89
660.94	56657.06
661.14	56392.87
661.33	56419.49
661.52	56067.24
661.71	56581.28
661.91	56302.76
662.10	56571.04
662.29	57164.95
662.49	56906.91
662.68	56616.10
662.87	56814.75
663.06	56757.41
663.26	56560.80
663.45	56980.63
663.64	56986.78
663.83	57377.94
664.03	57218.20
664.22	56695.97
664.41	56716.45
664.60	56732.83
664.80	57355.41
664.99	56900.76
665.18	56792.22
665.37	56640.67
665.57	56794.27
665.76	56691.87
665.95	57048.22
666.14	57162.90
666.34	57103.51
666.53	56878.24
666.72	57046.17
666.91	57017.50
667.11	57236.63
667.30	57621.65
667.49	56984.73
667.68	57111.70
667.87	56882.33
668.07	57539.73
668.26	57478.29
668.45	57496.72
668.64	57373.84
668.84	57924.75
669.03	57672.85
669.22	57005.21
669.41	57500.82
669.60	57418.90
669.80	57607.31
669.99	57685.14
670.18	56982.68
670.37	57549.97
670.57	57808.01
670.76	57275.54
670.95	57777.29
671.14	57107.61
671.33	57179.29
671.53	57752.72
671.72	57824.40
671.91	57259.16
672.10	57183.38
672.29	57574.55
672.48	57353.36
672.68	57801.87
672.87	57656.46
673.06	57144.47
673.25	57580.69
673.44	57619.60
673.64	57312.41
673.83	57554.07
674.02	57449.62
674.21	57564.31
674.40	57564.31
674.59	56882.33
674.79	57207.96
674.98	57201.82
675.17	57803.92
675.36	57013.40
675.55	57531.54
675.74	57195.67
675.94	57140.38
676.13	57533.59
676.32	57760.91
676.51	57955.47
676.70	57777.29
676.89	56919.20
677.08	58029.19
677.28	57582.74
677.47	57681.04
677.66	57873.55
677.85	57365.65
678.04	57324.69
678.23	57732.24
678.42	57681.04
678.62	57537.68
678.81	57930.89
679.00	57617.55
679.19	58119.31
679.38	58051.72
679.57	57658.51
679.76	57396.37
679.96	57705.62
680.15	57013.40
680.34	57689.23
680.53	57533.59
680.72	57584.79
680.91	57468.05
681.10	57603.22
681.29	57906.32
681.48	57343.12
681.68	57537.68
681.87	57271.45
682.06	57441.43
682.25	57021.59
682.44	57201.82
682.63	57410.71
682.82	56929.44
683.01	57074.84
683.20	57062.55
683.39	56861.85
683.59	56726.69
683.78	57234.58
683.97	56802.46
684.16	57080.98
684.35	56863.90
684.54	57517.20
684.73	56794.27
684.92	56755.36
685.11	57136.28
685.30	56933.53
685.49	57357.46
685.69	56835.23
685.88	56976.54
686.07	56786.08
686.26	56431.78
686.45	56876.19
686.64	56902.81
686.83	56681.63
687.02	56470.69
687.21	56882.33
687.40	56614.05
687.59	56751.26
687.78	56808.61
687.97	57183.38
688.16	56231.08
688.35	56110.25
688.54	56562.85
688.74	56245.41
688.93	56468.64
689.12	56319.14
689.31	56358.05
689.50	56902.81
689.69	56276.13
689.88	56100.01
690.07	56706.21
690.26	56288.42
690.45	56554.66
690.64	56145.06
690.83	55850.16
691.02	55291.06
691.21	56130.73
691.40	55733.42
691.59	55997.61
691.78	55858.35
691.97	56296.61
692.16	55696.56
692.35	56450.21
692.54	56276.13
692.73	55803.05
692.92	55702.70
693.11	55522.48
693.30	55659.69
693.49	55719.09
693.68	55448.75
693.87	55694.51
694.06	55076.02
694.25	55493.81
694.44	55192.76
694.63	55661.74
694.82	55016.63
695.01	55430.32
695.20	54977.72
695.39	54856.89
695.58	54938.81
695.77	54574.27
695.96	54928.57
696.15	55225.53
696.34	55055.54
696.53	54957.24
696.72	54897.85
696.91	54758.59
697.10	54844.60
697.29	54305.99
697.48	54981.82
697.67	54506.69
697.86	54086.85
698.05	54383.81
698.24	54133.96
698.43	53953.74
698.62	54826.17
698.81	53880.01
699.00	54416.58
699.19	54131.91
699.38	53943.50
699.57	53748.94
699.76	54566.08
699.95	53550.29
700.14	53855.43
700.32	53542.10
700.51	53847.24
700.70	54359.23
700.89	54123.72
701.08	53556.43
701.27	53535.95
701.46	53966.02
701.65	53146.84
701.84	53615.82
702.03	53531.86
702.22	53341.39
702.41	53163.22
702.60	53384.40
702.79	53513.42
702.98	52909.27
703.17	53499.09
703.35	52804.83
703.54	53253.33
703.73	53271.76
703.92	52829.40
704.11	52786.39
704.30	52745.44
704.49	52716.76
704.68	52813.02
704.87	53073.11
705.06	52759.77
705.25	52804.83
705.43	53032.15
705.62	52896.98
705.81	52376.80
706.00	52344.03
706.19	52229.35
706.38	52341.99
706.57	52774.11
706.76	52106.47
706.95	52698.33
707.14	52446.43
707.32	52460.77
707.51	51993.83
707.70	52028.65
707.89	52147.43
708.08	52212.96
708.27	52063.46
708.46	51942.63
708.65	52014.31
708.84	52045.03
709.02	52004.07
709.21	51576.04
709.40	51795.18
709.59	51834.09
709.78	51541.23
709.97	51803.37
710.16	51627.24
710.34	51576.04
710.53	51365.10
710.72	51172.60
710.91	51862.76
711.10	51739.88
711.29	51551.47
711.48	51680.49
711.66	51567.85
711.85	51303.67
712.04	51148.02
712.23	50943.22
712.42	51109.11
712.61	50894.07
712.80	50904.31
712.98	51055.86
713.17	51094.77
713.36	50924.79
713.55	51301.62
713.74	50697.47
713.93	50969.85
714.11	50646.27
714.30	50719.99
714.49	50396.42
714.68	50754.81
714.87	50402.56
715.06	51041.53
715.24	50191.62
715.43	50482.43
715.62	50179.33
715.81	50177.28
716.00	50388.22
716.18	49853.70
716.37	49526.03
716.56	49980.68
716.75	50128.13
716.94	49878.28
717.12	50107.65
717.31	50083.08
717.50	50154.75
717.69	49812.74
717.88	49343.76
718.06	49749.26
718.25	50164.99
718.44	49159.44
718.63	49616.14
718.82	49487.12
719.00	49292.56
719.19	49198.35
719.38	49329.42
719.57	49325.33
719.76	48864.53
719.94	48819.48
720.13	48852.25
720.32	49313.04
720.51	49034.52
720.69	48977.17
720.88	48919.83
721.07	48401.69
721.26	48260.38
721.44	48700.70
721.63	48356.64
721.82	48520.48
722.01	48540.96
722.20	48596.25
722.38	48225.57
722.57	48024.87
722.76	48661.79
722.95	48469.28
723.13	48119.07
723.32	48035.11
723.51	47904.04
723.70	47420.72
723.88	48055.59
724.07	47543.59
724.26	47930.66
724.44	47031.60
724.63	47955.24
724.82	47750.44
725.01	47654.18
725.19	47723.82
725.38	47549.74
725.57	47453.48
725.76	47557.93
725.94	47326.51
726.13	47969.57
726.32	47404.33
726.51	47031.60
726.69	47885.61
726.88	47570.22
727.07	47488.30
727.25	47598.89
727.44	47400.24
727.63	47871.27
727.82	46929.20
728.00	47594.79
728.19	47172.91
728.38	47365.42
728.56	46904.63
728.75	48188.70
728.94	47387.95
729.12	47390.00
729.31	47095.09
729.50	47047.99
729.69	47174.96
729.87	47072.56
730.06	46904.63
730.25	47267.12
730.43	47224.11
730.62	47297.84
730.81	47516.97
730.99	47066.42
731.18	46955.83
731.37	47138.10
731.55	47519.02
731.74	47881.51
731.93	47414.57
732.11	47195.44
732.30	47224.11
732.49	47058.23
732.67	47220.02
732.86	47086.90
733.05	47469.87
733.23	46941.49
733.42	47099.19
733.61	47539.50
733.79	47097.14
733.98	47383.85
734.17	46812.47
734.35	47062.32
734.54	47201.58
734.73	47148.34
734.91	46961.97
735.10	47033.65
735.29	47338.80
735.47	46890.29
735.66	47191.34
735.84	46986.55
736.03	46865.72
736.22	47267.12
736.40	47138.10
736.59	47205.68
736.78	46791.99
736.96	46732.60
737.15	47109.43
737.33	47152.43
737.52	47021.36
737.71	46912.82
737.89	46492.99
738.08	46607.67
738.27	46730.55
738.45	46900.53
738.64	46730.55
738.82	46759.22
739.01	46615.86
739.20	46488.89
739.38	46683.45
739.57	47213.87
739.75	47019.31
739.94	46527.80
740.13	46472.51
740.31	46619.96
740.50	46587.19
740.68	47007.03
740.87	46673.21
741.06	46843.19
741.24	46445.88
741.43	46183.74
741.61	46781.75
741.80	46462.27
741.99	46585.15
742.17	46589.24
742.36	46466.36
742.54	46271.81
742.73	46390.59
742.91	47025.46
743.10	46318.91
743.29	46392.64
743.47	46658.87
743.66	45673.80
743.84	46683.45
744.03	46646.58
744.21	46509.37
744.40	46736.69
744.59	46689.59
744.77	46499.13
744.96	46226.75
745.14	46286.14
745.33	46165.31
745.51	46077.25
745.70	46333.24
745.88	46175.55
746.07	45997.38
746.26	45770.05
746.44	46202.18
746.63	46062.91
746.81	46236.99
747.00	45757.77
747.18	46019.91
747.37	46265.66
747.55	46089.54
747.74	45823.30
747.92	45813.06
748.11	45495.63
748.29	46089.54
748.48	45653.32
748.66	45413.71
748.85	45708.61
749.03	46052.67
749.22	46239.04
749.41	46380.35
749.59	46325.05
749.78	45794.63
749.96	45821.25
750.15	45616.46
750.33	45585.74
750.52	45761.86
750.70	45978.95
750.89	45450.57
751.07	45739.33
751.26	45495.63
751.44	45235.53
751.63	45458.76
751.81	45296.97
752.00	45282.64
752.18	45716.81
752.37	45434.19
752.55	45512.01
752.74	45249.87
752.92	45139.28
753.10	45294.92
753.29	45661.51
753.47	45126.99
753.66	45540.68
753.84	45610.31
754.03	45262.16
754.21	45104.46
754.40	45399.37
754.58	45464.91
754.77	45405.52
754.95	44991.83
755.14	45403.47
755.32	44741.97
755.51	44877.14
755.69	45096.27
755.88	44735.83
756.06	45399.37
756.24	44825.94
756.43	45206.86
756.61	45237.58
756.80	45057.36
756.98	44465.50
757.17	45241.68
757.35	45040.98
757.54	44666.20
757.72	45131.09
757.90	45096.27
758.09	44789.08
758.27	44698.97
758.46	44615.00
758.64	44619.10
758.83	44780.88
759.01	44674.39
759.19	44750.17
759.38	44701.01
759.56	44866.90
759.75	44684.63
759.93	44354.91
760.12	44115.29
760.30	44596.57
760.48	44563.80
760.67	44483.93
760.85	44612.95
761.04	44528.98
761.22	44670.29
761.40	44244.32
761.59	44189.02
761.77	43996.51
761.96	44297.56
762.14	44111.20
762.32	44383.58
762.51	44197.21
762.69	44186.97
762.88	44060.00
763.06	44387.67
763.24	44021.09
763.43	44301.66
763.61	43978.08
763.80	43758.95
763.98	43842.92
764.16	43812.20
764.35	43564.39
764.53	43263.34
764.72	43869.54
764.90	43869.54
765.08	43662.69
765.27	43515.24
765.45	43384.17
765.63	42868.08
765.82	43550.06
766.00	43023.73
766.18	43369.83
766.37	43533.67
766.55	42882.42
766.74	43093.36
766.92	42956.14
767.10	43107.69
767.29	43550.06
767.47	42644.85
767.65	43314.54
767.84	42710.39
768.02	43017.58
768.20	42679.67
768.39	42724.72
768.57	42839.41
768.75	42837.36
768.94	42833.27
769.12	42722.68
769.30	42462.58
769.49	42794.36
769.67	42722.68
769.85	42517.88
770.04	42321.27
770.22	42345.85
770.40	42231.16
770.59	42556.79
770.77	42089.85
770.95	42497.40
771.14	42259.84
771.32	42370.43
771.50	42018.17
771.69	42093.95
771.87	42603.89
772.05	42163.58
772.24	42067.33
772.42	42050.94
772.60	41866.63
772.78	41549.19
772.97	41975.17
773.15	42564.98
773.33	42055.04
773.52	41588.10
773.70	41622.92
773.88	41694.60
774.07	41512.33
774.25	41790.85
774.43	41657.73
774.61	41778.56
774.80	41821.57
774.98	42096.00
775.16	41995.65
775.34	41837.95
775.53	41581.96
775.71	41934.21
775.89	42151.29
776.08	41731.46
776.26	41903.49
776.44	42225.02
776.62	42136.96
776.81	41516.42
776.99	41917.82
777.17	41829.76
777.35	42098.05
777.54	42190.20
777.72	41813.38
777.90	41829.76
778.08	42077.57
778.27	41901.44
778.45	42302.84
778.63	42710.39
778.81	41495.94
779.00	42530.17
779.18	42067.33
779.36	42540.41
779.54	42272.12
779.73	42003.84
779.91	42534.26
780.09	42251.64
780.27	42620.28
780.46	42646.90
780.64	42270.08
780.82	42390.91
781.00	42177.92
781.19	42536.31
781.37	42616.18
781.55	42288.51
781.73	42716.53
781.91	42276.22
782.10	42640.76
782.28	43003.25
782.46	42685.81
782.64	43050.35
782.82	42538.36
783.01	42984.82
783.19	42585.46
783.37	42734.96
783.55	42288.51
783.74	43091.31
783.92	42474.87
784.10	43074.93
784.28	42710.39
784.46	42673.52
784.64	42444.15
784.83	42466.68
785.01	42505.59
785.19	42452.34
785.37	42612.09
785.55	42591.61
785.74	42405.24
785.92	42372.47
786.10	42343.80
786.28	42444.15
786.46	42005.89
786.64	41862.53
786.83	42308.99
787.01	42294.65
787.19	42048.89
787.37	42214.78
787.55	41805.19
787.74	41618.82
787.92	41880.96
788.10	41799.04
788.28	41491.85
788.46	41842.05
788.64	41512.33
788.82	41956.74
789.01	41536.90
789.19	41510.28
789.37	41260.43
789.55	41536.90
789.73	41375.11
789.91	41360.78
790.09	41072.01
790.28	41497.99
790.46	40988.05
790.64	41338.25
790.82	40818.07
791.00	41065.87
791.18	40553.88
791.36	41219.47
791.55	40885.65
791.73	40506.77
791.91	40336.79
792.09	40512.92
792.27	40224.15
792.45	40369.56
792.63	40482.20
792.81	40224.15
793.00	39933.34
793.18	40222.11
793.36	40277.40
793.54	39892.38
793.72	39665.06
793.90	39703.97
794.08	39671.20
794.26	39474.60
794.44	39269.80
794.62	39058.86
794.81	39083.44
794.99	38976.94
795.17	39060.91
795.35	38919.60
795.53	39247.27
795.71	39228.84
795.89	38557.11
796.07	38743.47
796.25	38409.65
796.43	38342.07
796.61	38133.18
796.80	37889.47
796.98	38249.91
797.16	38143.42
797.34	38079.93
797.52	37942.72
797.70	38368.69
797.88	37805.50
798.06	37520.84
798.24	37445.06
798.42	37916.09
798.60	37678.53
798.78	37344.71
798.96	37705.15
799.14	36888.01
799.32	37178.82
799.51	36885.97
799.69	37107.15
799.87	37309.89
800.05	36324.82
800.23	36988.36
800.41	36529.62
800.59	36554.19
800.77	36312.53
800.95	35964.38
801.13	36019.67
801.31	35960.28
801.49	35886.56
801.67	35706.34
801.85	35964.38
802.03	35579.36
802.21	35755.49
802.39	35507.68
802.57	35517.92
802.75	35249.64
802.93	35397.09
803.11	35171.82
803.29	35139.05
803.47	34903.53
803.65	34706.93
803.83	34997.74
804.01	34844.14
804.19	34493.94
804.37	34543.09
804.55	34151.93
804.73	34725.36
804.91	34360.82
805.09	34242.04
805.27	34145.78
805.45	34530.80
805.63	34360.82
805.81	34160.12
805.99	34379.25
806.17	33981.95
806.35	33977.85
806.53	33342.98
806.71	33693.18
806.89	33342.98
807.07	33474.05
807.25	33816.06
807.43	33293.83
807.61	33656.32
807.79	33248.77
807.97	33101.32
808.15	33025.54
808.33	32929.29
808.51	32994.82
808.69	32953.87
808.87	32587.28
809.05	32366.10
809.23	32622.09
809.41	32386.58
809.59	32622.09
809.77	32720.40
809.95	32329.23
810.13	32325.14
810.31	31860.25
810.49	32400.91
810.67	31933.98
810.84	32026.14
811.02	32245.27
811.20	31929.88
811.38	31923.74
811.56	31346.21
811.74	31733.28
811.92	31340.07
812.10	31538.72
812.28	31516.19
812.46	31350.31
812.64	31567.39
812.82	31116.84
813.00	31720.99
813.18	31143.46
813.36	30989.86
813.53	30643.76
813.71	30840.36
813.89	30928.42
814.07	31055.40
814.25	30778.92
814.43	30707.24
814.61	30504.49
814.79	30361.14
814.97	30391.86
815.15	30311.99
815.33	30195.25
815.50	30142.00
815.68	30676.52
815.86	30461.49
816.04	30010.93
816.22	29994.55
816.40	30012.98
816.58	29804.09
816.76	29945.40
816.94	29818.42
817.11	29992.50
817.29	29838.90
817.47	29650.49
817.65	29759.03
817.83	29431.36
818.01	29472.32
818.19	29531.71
818.37	29533.76
818.54	29173.31
818.72	28765.77
818.90	29277.76
819.08	28978.76
819.26	29175.36
819.44	29118.02
819.62	29122.12
819.80	29036.10
819.97	29050.44
820.15	28714.57
820.33	28776.01
820.51	28974.66
820.69	28528.20
820.87	28696.14
821.05	28753.48
821.22	28692.04
821.40	28554.83
821.58	28573.26
821.76	28415.57
821.94	27956.82
822.12	28102.23
822.29	28573.26
822.47	28204.63
822.65	28169.81
822.83	28081.75
823.01	28046.93
823.19	27788.89
823.36	27930.20
823.54	27586.14
823.72	28034.64
823.90	27827.80
824.08	27559.52
824.25	27479.64
824.43	27704.92
824.61	27870.81
824.79	27477.60
824.97	27225.70
825.15	27434.59
825.32	27436.64
825.50	27600.47
825.68	26973.80
825.86	27254.37
826.04	27356.77
826.21	27113.06
826.39	27117.15
826.57	27213.41
826.75	27086.43
826.93	27043.43
827.10	26830.44
827.28	27057.76
827.46	27123.30
827.64	26867.30
827.81	26918.50
827.99	26599.02
828.17	26824.29
828.35	26748.52
828.53	26981.99
828.70	26654.31
828.88	26656.36
829.06	26664.55
829.24	26756.71
829.41	26263.15
829.59	26900.07
829.77	26295.92
829.95	26324.59
830.12	26322.54
830.30	26066.55
830.48	26576.49
830.66	26226.29
830.84	26459.76
831.01	26234.48
831.19	25990.77
831.37	26248.82
831.55	25673.34
831.72	25855.61
831.90	25933.43
832.08	26037.87
832.25	25575.03
832.43	25855.61
832.61	26087.03
832.79	25781.88
832.96	25790.07
833.14	25927.28
833.32	26187.38
833.50	26199.66
833.67	25747.06
833.85	26134.13
834.03	25511.55
834.20	25511.55
834.38	25675.38
834.56	25683.58
834.74	25429.63
834.91	25319.04
835.09	25435.77
835.27	25159.30
835.44	25427.58
835.62	24848.00
835.80	25142.91
835.98	25265.79
836.15	24929.92
836.33	25118.34
836.51	25374.33
836.68	24958.60
836.86	25206.40
837.04	24876.68
837.21	25144.96
837.39	25196.16
837.57	24991.36
837.75	25028.23
837.92	24618.63
838.10	24438.41
838.28	24565.39
838.45	24596.10
838.63	24735.37
838.81	24671.88
838.98	24788.61
839.16	24651.40
839.34	24768.13
839.51	24348.30
839.69	24329.87
839.87	24299.15
840.04	24432.27
840.22	24671.88
840.40	24680.07
840.57	24153.74
840.75	24325.77
840.93	24108.69
841.10	24200.85
841.28	24456.84
841.46	24317.58
841.63	24153.74
841.81	24219.28
841.98	24057.49
842.16	24231.57
842.34	24196.75
842.51	23950.99
842.69	24233.61
842.87	23916.18
843.04	24012.43
843.22	24018.58
843.40	24188.56
843.57	24127.12
843.75	24030.87
843.92	24088.21
844.10	23846.55
844.28	24073.87
844.45	23844.50
844.63	23752.34
844.81	23733.91
844.98	23477.91
845.16	23602.84
845.33	23637.66
845.51	23664.28
845.69	23651.99
845.86	23361.18
846.04	23375.52
846.21	23359.13
846.39	23463.58
846.57	23266.97
846.74	23623.32
846.92	23262.88
847.09	23010.98
847.27	22970.02
847.45	23326.36
847.62	23432.86
847.80	23309.98
847.97	23140.00
848.15	22916.77
848.32	22867.62
848.50	22959.78
848.68	22738.60
848.85	22724.26
849.03	22720.17
849.20	22998.69
849.38	23140.00
849.56	22990.50
849.73	22640.29
849.91	23117.47
850.08	22986.40
850.26	22636.20
850.43	22797.99
850.61	22976.16
850.78	22498.98
850.96	22771.36
851.14	22429.35
851.31	22904.48
851.49	22656.68
851.66	22464.17
851.84	22675.11
852.01	22789.80
852.19	22738.60
852.36	22587.05
852.54	22177.45
852.71	22630.05
852.89	22490.79
853.07	22605.48
853.24	22470.31
853.42	22113.97
853.59	22234.80
853.77	22474.41
853.94	22359.72
854.12	22374.06
854.29	22140.59
854.47	22245.04
854.64	21989.04
854.82	22019.76
854.99	22193.84
855.17	21888.69
855.34	22058.67
855.52	22064.82
855.69	22152.88
855.87	21747.38
856.04	21890.74
856.22	21917.36
856.39	21716.66
856.57	21769.91
856.74	21860.02
856.92	22163.12
857.09	21722.80
857.27	21759.67
857.44	22034.10
857.62	21882.55
857.79	21843.63
857.97	21675.70
858.14	21710.52
858.32	21604.02
858.49	21931.70
858.67	21853.87
858.84	21567.16
859.02	21415.61
859.19	21454.52
859.37	21376.70
859.54	21319.35
859.72	21612.21
859.89	21513.91
860.06	21413.56
860.24	21165.76
860.41	21589.69
860.59	21104.32
860.76	21481.14
860.94	21196.48
861.11	21290.68
861.29	21249.72
861.46	21196.48
861.64	20983.49
861.81	21036.74
861.98	21227.20
862.16	21171.90
862.33	21030.59
862.51	20971.20
862.68	21065.41
862.86	21157.57
863.03	20842.18
863.21	21137.09
863.38	20883.14
863.55	20784.83
863.73	21034.69
863.90	20920.00
864.08	20926.14
864.25	20858.56
864.43	20942.53
864.60	20788.93
864.77	20852.42
864.95	20526.79
865.12	21008.06
865.30	20868.80
865.47	20594.37
865.64	20838.08
865.82	20711.11
865.99	20657.86
866.17	20504.26
866.34	20389.58
866.51	20213.45
866.69	20754.12
866.86	20479.69
867.04	20459.21
867.21	20168.40
867.38	20365.00
867.56	20278.99
867.73	20391.62
867.91	20201.16
868.08	20176.59
868.25	20217.55
868.43	20436.68
868.60	20227.79
868.78	19922.64
868.95	20483.78
869.12	20229.84
869.30	20197.07
869.47	20264.65
869.64	20078.29
869.82	19824.34
869.99	20240.08
870.16	20111.05
870.34	20131.53
870.51	19834.58
870.69	19834.58
870.86	19662.55
871.03	19924.69
871.21	19826.39
871.38	19939.02
871.55	19687.12
871.73	19584.73
871.90	19779.28
872.07	19420.89
872.25	19285.72
872.42	19353.30
872.59	19719.89
872.77	19451.61
872.94	19398.36
873.11	19248.86
873.29	19109.60
873.46	19138.27
873.63	19148.51
873.81	19318.49
873.98	18949.85
874.15	19308.25
874.33	19003.10
874.50	19125.98
874.67	19111.64
874.85	19132.12
875.02	19019.49
875.19	18869.98
875.37	19068.64
875.54	18642.66
875.71	19027.68
875.88	18831.07
876.06	18861.79
876.23	18884.32
876.40	18763.49
876.58	18636.52
876.75	18724.58
876.92	18441.96
877.10	18665.19
877.27	18628.32
877.44	18491.11
877.61	18308.84
877.79	18405.10
877.96	18294.50
878.13	18386.66
878.31	18079.47
878.48	18378.47
878.65	18374.38
878.82	18116.33
879.00	18439.91
879.17	17995.50
879.34	17958.64
879.51	17850.10
879.69	18114.28
879.86	18104.04
880.03	17915.63
880.21	17925.87
880.38	17942.25
880.55	18036.46
880.72	17680.11
880.90	17927.92
881.07	17817.33
881.24	17950.45
881.41	17663.73
881.59	17637.11
881.76	17788.66
881.93	17577.72
882.10	17544.95
882.28	17608.44
882.45	17702.64
882.62	17342.20
882.79	17590.00
882.96	17372.92
883.14	17600.24
883.31	17506.04
883.48	17649.39
883.65	17399.54
883.83	17413.88
884.00	17526.52
884.17	17534.71
884.34	17389.30
884.51	17188.60
884.69	17430.26
884.86	17547.00
885.03	17522.42
885.20	17116.92
885.38	17317.62
885.55	17301.24
885.72	17432.31
885.89	17159.93
886.06	17241.85
886.24	17084.16
886.41	17184.51
886.58	17430.26
886.75	17194.75
886.92	16979.71
887.10	17155.83
887.27	17055.48
887.44	17067.77
887.61	17090.30
887.78	16969.47
887.95	16899.84
888.13	17063.68
888.30	17020.67
888.47	16486.15
888.64	16817.92
888.81	16799.49
888.99	16877.31
889.16	16576.26
889.33	16801.54
889.50	16846.59
889.67	16690.95
889.84	16477.96
890.01	16680.71
890.19	16514.82
890.36	16635.65
890.53	16432.90
890.70	16443.14
890.87	16531.20
891.04	16443.14
891.22	16404.23
891.39	16361.22
891.56	16191.24
891.73	16275.21
891.90	16191.24
892.07	16129.80
892.24	16258.82
892.42	16418.57
892.59	15945.48
892.76	16338.69
892.93	16066.31
893.10	16187.14
893.27	16101.13
893.44	16379.65
893.61	16092.94
893.79	16269.06
893.96	15855.37
894.13	16068.36
894.30	15976.20
894.47	16121.61
894.64	15970.06
894.81	16027.40
894.98	15922.96
895.15	15931.15
895.33	15761.17
895.50	15746.83
895.67	16199.43
895.84	15943.44
896.01	15824.65
896.18	15769.36
896.35	15970.06
896.52	15562.51
896.69	15800.08
896.86	15822.61
897.04	15943.44
897.21	16033.55
897.38	15886.09
897.55	15908.62
897.72	15945.48
897.89	15904.53
898.06	15810.32
898.23	15736.59
898.40	15648.53
898.57	15742.74
898.74	15763.22
898.91	15869.71
899.08	15775.50
899.26	15791.89
899.43	15646.48
899.60	15601.43
899.77	15806.22
899.94	15720.21
900.11	15740.69
900.28	15705.87
900.45	15875.85
900.62	15789.84
900.79	15845.13
900.96	15451.92
901.13	15552.27
901.30	15740.69
901.47	15642.39
901.64	15834.89
901.81	15634.19
901.98	15388.44
902.15	15779.60
902.32	15482.64
902.49	15693.58
902.66	15507.22
902.83	15632.15
903.01	15687.44
903.18	15806.22
903.35	15662.86
903.52	15752.98
903.69	15654.67
903.86	15738.64
904.03	15642.39
904.20	15779.60
904.37	15623.95
904.54	15892.24
904.71	15642.39
904.88	15828.75
905.05	15318.81
905.22	15752.98
905.39	15712.02
905.56	15619.86
905.73	15546.13
905.90	15640.34
906.07	15582.99
906.24	15476.50
906.41	15628.05
906.58	15666.96
906.75	15775.50
906.92	15490.84
907.09	15740.69
907.26	15841.04
907.43	15390.49
907.60	15443.73
907.77	15687.44
907.93	15810.32
908.10	15435.54
908.27	15519.51
908.44	15519.51
908.61	15640.34
908.78	15519.51
908.95	15519.51
909.12	15310.61
909.29	15384.34
909.46	15494.93
909.63	15482.64
909.80	15423.25
909.97	15478.55
910.14	15329.05
910.31	15157.02
910.48	15339.29
910.65	15247.13
910.82	15304.47
910.99	15023.90
911.16	15165.21
911.33	15091.48
911.50	15353.62
911.66	14931.74
911.83	14937.88
912.00	14878.49
912.17	15083.29
912.34	15013.66
912.51	14870.30
912.68	14808.86
912.85	15097.63
913.02	15257.37
913.19	15052.57
913.36	15103.77
913.53	14815.01
913.70	14878.49
913.86	14878.49
914.03	14913.31
914.20	15116.06
914.37	14915.36
914.54	14718.75
914.71	14677.79
914.88	14651.17
915.05	14712.61
915.22	14683.94
915.39	14606.11
915.55	14350.12
915.72	14382.88
915.89	14380.84
916.06	14391.08
916.23	14290.73
916.40	14339.88
916.57	14350.12
916.74	14354.21
916.91	14264.10
917.07	14143.27
917.24	14071.59
917.41	14286.63
917.58	14411.56
917.75	14194.47
917.92	13805.36
918.09	13975.34
918.26	14159.66
918.42	14079.79
918.59	14020.39
918.76	13723.44
918.93	13745.97
919.10	13715.25
919.27	13709.10
919.44	13731.63
919.60	13700.91
919.77	13600.56
919.94	13444.91
920.11	13379.38
920.28	13385.52
920.45	13436.72
920.61	13375.28
920.78	13346.61
920.95	13365.04
921.12	13119.29
921.29	13166.39
921.46	13059.90
921.62	13117.24
921.79	13254.45
921.96	13008.70
922.13	13094.71
922.30	12801.85
922.47	13051.70
922.63	12918.59
922.80	12838.72
922.97	12834.62
923.14	12552.00
923.31	12777.28
923.47	12535.62
923.64	12631.87
923.81	12570.43
923.98	12556.10
924.15	12377.92
924.32	12455.75
924.48	12545.86
924.65	12357.44
924.82	12334.92
924.99	12169.03
925.15	12117.83
925.32	12332.87
925.49	12013.38
925.66	12103.50
925.83	11814.73
925.99	11722.57
926.16	12046.15
926.33	11829.07
926.50	11425.62
926.67	11908.94
926.83	11820.88
927.00	11577.17
927.17	11734.86
927.34	11460.43
927.50	11675.47
927.67	11589.46
927.84	11581.26
928.01	11337.56
928.17	11491.15
928.34	11294.55
928.51	11194.20
928.68	11183.96
928.84	11048.79
929.01	10970.97
929.18	10964.82
929.35	10934.11
929.51	11065.18
929.68	10796.89
929.85	10784.60
930.02	10805.08
930.18	10907.48
930.35	10833.75
930.52	10682.20
930.69	10561.37
930.85	10653.53
931.02	10526.56
931.19	10413.92
931.36	10495.84
931.52	10186.60
931.69	10295.14
931.86	10303.33
932.02	10239.84
932.19	10276.71
932.36	10139.49
932.53	10221.41
932.69	10067.81
932.86	10174.31
933.03	10098.53
933.19	9983.85
933.36	9922.41
933.53	9822.06
933.70	9703.28
933.86	9805.67
934.03	9860.97
934.20	9486.19
934.36	9713.52
934.53	9357.17
934.70	9469.81
934.86	9396.08
935.03	9172.85
935.20	9121.65
935.36	9193.33
935.53	9041.78
935.70	9140.08
935.86	8810.36
936.03	8757.11
936.20	8800.12
936.36	8609.66
936.53	8726.39
936.70	8601.47
936.86	8650.62
937.03	8425.34
937.20	8275.84
937.36	8236.93
937.53	8009.61
937.70	8069.00
937.86	7960.45
938.03	7966.60
938.20	8044.42
938.36	7671.69
938.53	7741.32
938.70	7720.84
938.86	7538.57
939.03	7419.79
939.20	7352.21
939.36	7258.00
939.53	7151.51
939.70	7505.81
939.86	7159.70
940.03	6971.29
940.19	6860.70
940.36	6866.84
940.53	6756.25
940.69	6676.38
940.86	6625.18
941.03	6600.60
941.19	6481.82
941.36	6422.43
941.52	6389.66
941.69	6342.56
941.86	6285.22
942.02	6332.32
942.19	6164.39
942.35	6051.75
942.52	5902.25
942.69	5943.21
942.85	5924.77
943.02	5871.53
943.18	5984.16
943.35	5857.19
943.52	5783.46
943.68	5691.31
943.85	5769.13
944.01	5705.64
944.18	5664.68
944.35	5722.02
944.51	5566.38
944.68	5556.14
944.84	5459.88
945.01	5527.47
945.17	5484.46
945.34	5517.23
945.51	5582.76
945.67	5296.05
945.84	5314.48
946.00	5328.81
946.17	5427.12
946.33	5435.31
946.50	5304.24
946.67	5281.71
946.83	5267.38
947.00	5324.72
947.16	5281.71
947.33	5173.17
947.49	5308.34
947.66	5193.65
947.82	5306.29
947.99	5205.94
948.16	5279.66
948.32	5230.51
948.49	5259.18
948.65	5371.82
948.82	5310.38
948.98	5255.09
949.15	5099.44
949.31	5316.53
949.48	5394.35
949.64	5267.38
949.81	5267.38
949.97	5351.34
950.14	5449.64
950.30	5109.68
950.47	5463.98
950.63	5205.94
950.80	5197.74
950.96	5382.06
951.13	5181.36
951.30	5400.49
951.46	5330.86
951.63	5347.25
951.79	5386.16
951.96	5369.77
952.12	5377.97
952.29	5369.77
952.45	5396.40
952.62	5355.44
952.78	5353.39
952.94	5326.77
953.11	5310.38
953.27	5273.52
953.44	5457.84
953.60	5216.18
953.77	5478.32
953.93	5367.73
954.10	5322.67
954.26	5423.02
954.43	5328.81
954.59	5455.79
954.76	5443.50
954.92	5449.64
955.09	5418.93
955.25	5394.35
955.42	5345.20
955.58	5525.42
955.75	5470.12
955.91	5365.68
956.07	5578.67
956.24	5277.62
956.40	5437.36
956.57	5410.73
956.73	5363.63
956.90	5519.28
957.06	5365.68
957.23	5427.12
957.39	5408.69
957.56	5412.78
957.72	5318.57
957.88	5404.59
958.05	5558.19
958.21	5545.90
958.38	5484.46
958.54	5312.43
958.71	5377.97
958.87	5306.29
959.03	5394.35
959.20	5408.69
959.36	5480.36
959.53	5584.81
959.69	5298.10
959.85	5412.78
960.02	5394.35
960.18	5418.93
960.35	5509.04
960.51	5437.36
960.68	5275.57
960.84	5439.40
961.00	5406.64
961.17	5355.44
961.33	5382.06
961.50	5410.73
961.66	5320.62
961.82	5312.43
961.99	5423.02
962.15	5437.36
962.31	5310.38
962.48	5509.04
962.64	5472.17
962.81	5392.30
962.97	5425.07
963.13	5332.91
963.30	5248.94
963.46	5281.71
963.62	5298.10
963.79	5246.90
963.95	5332.91
964.12	5212.08
964.28	5375.92
964.44	5281.71
964.61	5312.43
964.77	5365.68
964.93	5345.20
965.10	5140.40
965.26	5226.42
965.42	5250.99
965.59	5304.24
965.75	5218.22
965.92	5287.86
966.08	5328.81
966.24	5130.16
966.41	5294.00
966.57	5253.04
966.73	5337.01
966.90	5193.65
967.06	5261.23
967.22	5226.42
967.39	5236.66
967.55	5083.06
967.71	5201.84
967.88	4992.95
968.04	5062.58
968.20	5025.72
968.37	5132.21
968.53	5171.12
968.69	5078.96
968.85	5005.24
969.02	5130.16
969.18	5226.42
969.34	5017.52
969.51	5048.24
969.67	5099.44
969.83	5056.43
970.00	5232.56
970.16	4982.71
970.32	5062.58
970.48	5085.11
970.65	4960.18
970.81	4951.99
970.97	4870.07
971.14	4841.40
971.30	5154.74
971.46	4939.70
971.63	4988.85
971.79	5027.76
971.95	5062.58
972.11	4851.64
972.28	4976.56
972.44	4843.45
972.60	4890.55
972.76	4984.76
972.93	4906.93
973.09	4810.68
973.25	4902.84
973.42	4749.24
973.58	4827.06
973.74	4874.17
973.90	4777.91
974.07	4687.80
974.23	4857.78
974.39	5031.86
974.55	4698.04
974.72	4861.88
974.88	4644.79
975.04	4761.53
975.20	4777.91
975.37	4687.80
975.53	4652.98
975.69	4728.76
975.85	4724.66
976.01	4734.90
976.18	4644.79
976.34	4767.67
976.50	4612.03
976.66	4714.42
976.83	4573.11
976.99	4476.86
977.15	4675.51
977.31	4591.55
977.47	4628.41
977.64	4603.83
977.80	4528.06
977.96	4620.22
978.12	4483.00
978.29	4624.31
978.45	4407.23
978.61	4440.00
978.77	4483.00
978.93	4495.29
979.10	4513.72
979.26	4466.62
979.42	4401.08
979.58	4526.01
979.74	4411.32
979.91	4437.95
980.07	4288.45
980.23	4360.13
980.39	4296.64
980.55	4417.47
980.71	4368.32
980.88	4329.41
981.04	4296.64
981.20	4257.73
981.36	4403.13
981.52	4253.63
981.68	4265.92
981.85	4390.84
982.01	4198.34
982.17	4206.53
982.33	4194.24
982.49	4335.55
982.65	4151.23
982.82	4198.34
982.98	4235.20
983.14	4046.79
983.30	4331.45
983.46	4259.78
983.62	4155.33
983.79	4153.28
983.95	4063.17
984.11	4034.50
984.27	4208.58
984.43	4102.08
984.59	4216.77
984.75	4241.34
984.91	4179.90
985.08	4194.24
985.24	3968.96
985.40	4014.02
985.56	4061.12
985.72	4032.45
985.88	4106.18
986.04	3985.35
986.20	3930.05
986.37	4024.26
986.53	4003.78
986.69	4018.11
986.85	4009.92
987.01	3915.72
987.17	4095.94
987.33	3909.57
987.49	4022.21
987.65	4016.07
987.82	3960.77
987.98	3882.95
988.14	3811.27
988.30	3893.19
988.46	3854.28
988.62	3839.94
988.78	3885.00
988.94	3815.37
989.10	3821.51
989.26	3768.26
989.42	3831.75
989.59	3639.24
989.75	3766.21
989.91	3770.31
990.07	3532.75
990.23	3764.17
990.39	3731.40
990.55	3766.21
990.71	3694.54
990.87	3717.06
991.03	3811.27
991.19	3643.34
991.35	3706.82
991.51	3715.02
991.67	3676.10
991.83	3604.42
992.00	3682.25
992.16	3717.06
992.32	3801.03
992.48	3649.48
992.64	3667.91
992.80	3629.00
992.96	3629.00
993.12	3592.14
993.28	3581.90
993.44	3569.61
993.60	3579.85
993.76	3532.75
993.92	3604.42
994.08	3692.49
994.24	3532.75
994.40	3491.79
994.56	3545.03
994.72	3559.37
994.88	3583.95
995.04	3608.52
995.20	3585.99
995.36	3375.05
995.52	3522.51
995.68	3381.20
995.84	3418.06
996.00	3440.59
996.16	3514.31
996.32	3362.76
996.48	3424.20
996.64	3475.40
996.80	3291.09
996.96	3405.77
997.12	3459.02
997.28	3311.57
997.44	3422.16
997.60	3334.09
997.76	3383.24
997.92	3299.28
998.08	3381.20
998.24	3141.58
998.40	3428.30
998.56	3428.30
998.72	3246.03
998.88	3256.27
999.04	3125.20
999.20	3370.96
999.36	3131.34
999.52	3362.76
999.68	3260.37
999.84	3377.10
1000.00	3237.84
1000.16	3323.85
1000.32	3264.46
1000.48	3248.08
1000.64	3033.04
1000.80	3069.91
1000.95	3211.22
1001.11	3180.50
1001.27	3153.87
1001.43	3151.82
1001.59	3067.86
1001.75	3117.01
1001.91	3112.91
1002.07	2996.18
1002.23	3162.06
1002.39	3100.62
1002.55	3192.78
1002.71	3135.44
1002.87	3119.06
1003.03	3059.67
1003.19	3074.00
1003.34	3135.44
1003.50	3043.28
1003.66	3137.49
1003.82	3028.95
1003.98	2975.70
1004.14	2951.12
1004.30	2969.55
1004.46	2981.84
1004.62	3094.48
1004.78	3043.28
1004.94	2973.65
1005.09	2961.36
1005.25	3022.80
1005.41	2955.22
1005.57	2965.46
1005.73	2916.31
1005.89	2852.82
1006.05	3084.24
1006.21	2887.64
1006.37	2893.78
1006.52	2918.36
1006.68	2936.79
1006.84	2969.55
1007.00	2746.33
1007.16	2871.25
1007.32	2832.34
1007.48	2897.88
1007.64	2963.41
1007.79	2793.43
1007.95	2869.20
1008.11	2893.78
1008.27	2871.25
1008.43	2852.82
1008.59	2756.57
1008.75	2861.01
1008.91	2944.98
1009.06	2756.57
1009.22	2881.49
1009.38	2799.57
1009.54	2770.90
1009.70	2691.03
1009.86	2850.77
1010.01	2762.71
1010.17	2717.65
1010.33	2797.53
1010.49	2686.94
1010.65	2734.04
1010.81	2711.51
1010.96	2723.80
1011.12	2711.51
1011.28	2764.76
1011.44	2801.62
1011.60	2674.65
1011.76	2662.36
1011.91	2764.76
1012.07	2641.88
1012.23	2623.45
1012.39	2658.26
1012.55	2682.84
1012.71	2621.40
1012.86	2555.86
1013.02	2596.82
1013.18	2578.39
1013.34	2549.72
1013.50	2703.32
1013.65	2684.89
1013.81	2594.78
1013.97	2684.89
1014.13	2580.44
1014.29	2631.64
1014.44	2625.50
1014.60	2564.06
1014.76	2656.22
1014.92	2502.62
1015.07	2582.49
1015.23	2564.06
1015.39	2469.85
1015.55	2492.38
1015.71	2521.05
1015.86	2451.42
1016.02	2482.14
1016.18	2457.56
1016.34	2523.10
1016.49	2463.71
1016.65	2543.58
1016.81	2445.27
1016.97	2475.99
1017.12	2465.75
1017.28	2453.47
1017.44	2473.95
1017.60	2377.69
1017.75	2488.28
1017.91	2478.04
1018.07	2469.85
1018.23	2428.89
1018.38	2361.31
1018.54	2371.55
1018.70	2404.32
1018.86	2445.27
1019.01	2344.92
1019.17	2318.30
1019.33	2539.48
1019.49	2287.58
1019.64	2406.36
1019.80	2426.84
1019.96	2443.23
1020.12	2381.79
1020.27	2312.16
1020.43	2379.74
1020.59	2330.59
1020.74	2332.64
1020.90	2377.69
1021.06	2297.82
1021.22	2338.78
1021.37	2314.20
1021.53	2316.25
1021.69	2361.31
1021.84	2183.13
1022.00	2267.10
1022.16	2281.44
1022.31	2275.29
1022.47	2332.64
1022.63	2346.97
1022.79	2252.77
1022.94	2254.81
1023.10	2336.73
1023.26	2240.48
1023.41	2263.01
1023.57	2289.63
1023.73	2289.63
1023.88	2256.86
1024.04	2203.61
1024.20	2265.05
1024.35	2351.07
1024.51	2246.62
1024.67	2240.48
1024.82	2220.00
1024.98	2179.04
1025.14	2189.28
1025.29	2263.01
1025.45	2199.52
1025.61	2185.18
1025.76	2248.67
1025.92	2191.33
1026.08	2256.86
1026.23	2248.67
1026.39	2256.86
1026.55	2179.04
1026.70	2113.50
1026.86	2146.27
1027.02	2199.52
1027.17	2191.33
1027.33	2201.57
1027.48	2197.47
1027.64	2152.42
1027.80	2152.42
1027.95	2197.47
1028.11	2138.08
1028.27	2193.37
1028.42	2174.94
1028.58	2058.21
1028.73	2084.83
1028.89	2019.30
1029.05	2191.33
1029.20	2191.33
>>>>>End Processed Spectral Data<<<<<
