SpectraSuite Data File
++++++++++++++++++++++++++++++++++++
Date: Fri Jun 02 14:47:56 CEST 2017
User: INFO_000
Dark Spectrum Present: No
Reference Spectrum Present: No
Number of Sampled Component Spectra: 1
Spectrometers: USB4H00879
Integration Time (usec): 80000 (USB4H00879)
Spectra Averaged: 1 (USB4H00879)
Boxcar Smoothing: 0 (USB4H00879)
Correct for Electrical Dark: No (USB4H00879)
Strobe/Lamp Enabled: No (USB4H00879)
Correct for Detector Non-linearity: No (USB4H00879)
Correct for Stray Light: No (USB4H00879)
Number of Pixels in Processed Spectrum: 3648
>>>>>Begin Processed Spectral Data<<<<<
345.13	1320.94
345.34	1320.94
345.56	1320.94
345.78	1316.84
345.99	1277.93
346.21	1714.15
346.42	1765.35
346.64	1654.76
346.86	1798.12
347.07	1632.23
347.29	1679.33
347.50	1591.27
347.72	1658.85
347.94	1753.06
348.15	1574.89
348.37	1591.27
348.59	1710.05
348.80	1615.85
349.02	1748.97
349.23	1908.71
349.45	1822.69
349.67	1916.90
349.88	1892.32
350.10	2004.96
350.31	1916.90
350.53	1841.12
350.75	2031.58
350.96	1802.21
351.18	1832.93
351.39	1894.37
351.61	1841.12
351.82	1875.94
352.04	1890.28
352.26	1826.79
352.47	1914.85
352.69	1931.23
352.90	1742.82
353.12	1892.32
353.34	1824.74
353.55	1918.95
353.77	1857.51
353.98	1814.50
354.20	1837.03
354.41	1943.52
354.63	1875.94
354.85	2035.68
355.06	1861.60
355.28	1759.21
355.49	1867.75
355.71	1914.85
355.92	1904.61
356.14	1896.42
356.35	1855.46
356.57	1890.28
356.79	1945.57
357.00	1888.23
357.22	1908.71
357.43	1832.93
357.65	1923.04
357.86	1892.32
358.08	1937.38
358.29	1959.91
358.51	1957.86
358.72	2007.01
358.94	1994.72
359.16	1953.76
359.37	1892.32
359.59	1886.18
359.80	1953.76
360.02	1961.95
360.23	2000.87
360.45	2023.39
360.66	1849.32
360.88	1894.37
361.09	1959.91
361.31	1968.10
361.52	1998.82
361.74	2115.55
361.95	2052.06
362.17	1918.95
362.38	2142.18
362.60	2086.88
362.81	1943.52
363.03	2015.20
363.24	1990.63
363.46	2095.07
363.67	2011.11
363.89	1980.39
364.10	2004.96
364.32	1961.95
364.53	1964.00
364.75	1873.89
364.96	2033.63
365.18	2031.58
365.39	2031.58
365.61	1937.38
365.82	2131.94
366.04	2007.01
366.25	1964.00
366.47	1978.34
366.68	2009.06
366.90	1964.00
367.11	2099.17
367.33	2054.11
367.54	2037.73
367.76	2009.06
367.97	2078.69
368.19	2084.83
368.40	2127.84
368.62	1970.15
368.83	1974.24
369.05	2121.70
369.26	2021.35
369.48	1902.56
369.69	2007.01
369.91	2050.02
370.12	2021.35
370.33	2131.94
370.55	1972.19
370.76	2088.93
370.98	2080.74
371.19	2117.60
371.41	2033.63
371.62	2076.64
371.84	2041.82
372.05	2158.56
372.27	2078.69
372.48	2138.08
372.69	2109.41
372.91	2127.84
373.12	2109.41
373.34	2109.41
373.55	2029.54
373.77	2213.85
373.98	2097.12
374.20	2097.12
374.41	2234.33
374.62	2115.55
374.84	2154.46
375.05	2224.09
375.27	2252.77
375.48	2256.86
375.70	2187.23
375.91	2250.72
376.12	2279.39
376.34	2029.54
376.55	2176.99
376.77	2240.48
376.98	2090.98
377.19	2033.63
377.41	2123.74
377.62	2172.89
377.84	2230.24
378.05	2322.40
378.27	2199.52
378.48	2295.77
378.69	2379.74
378.91	2287.58
379.12	2224.09
379.34	2277.34
379.55	2308.06
379.76	2246.62
379.98	2310.11
380.19	2256.86
380.41	2252.77
380.62	2211.81
380.83	2230.24
381.05	2150.37
381.26	2424.80
381.47	2277.34
381.69	2306.01
381.90	2387.93
382.12	2295.77
382.33	2187.23
382.54	2316.25
382.76	2303.96
382.97	2289.63
383.19	2228.19
383.40	2418.65
383.61	2340.83
383.83	2314.20
384.04	2320.35
384.25	2273.25
384.47	2437.08
384.68	2389.98
384.89	2191.33
385.11	2265.05
385.32	2369.50
385.54	2338.78
385.75	2336.73
385.96	2385.88
386.18	2324.44
386.39	2420.70
386.60	2338.78
386.82	2406.36
387.03	2484.19
387.24	2461.66
387.46	2420.70
387.67	2441.18
387.88	2486.23
388.10	2478.04
388.31	2467.80
388.52	2605.02
388.74	2494.43
388.95	2447.32
389.16	2582.49
389.38	2445.27
389.59	2656.22
389.80	2566.10
390.02	2514.91
390.23	2596.82
390.44	2478.04
390.66	2510.81
390.87	2514.91
391.08	2512.86
391.30	2721.75
391.51	2617.30
391.72	2564.06
391.94	2617.30
392.15	2580.44
392.36	2570.20
392.58	2641.88
392.79	2723.80
393.00	2701.27
393.22	2762.71
393.43	2719.70
393.64	2789.33
393.85	2709.46
394.07	2645.98
394.28	2666.46
394.49	2783.19
394.71	2779.09
394.92	2772.95
395.13	2633.69
395.35	2721.75
395.56	2762.71
395.77	2754.52
395.98	2828.24
396.20	2971.60
396.41	2789.33
396.62	2822.10
396.84	2863.06
397.05	2721.75
397.26	2901.97
397.47	2861.01
397.69	2740.18
397.90	2883.54
398.11	2863.06
398.32	2846.68
398.54	2848.72
398.75	2889.68
398.96	2846.68
399.18	3026.90
399.39	2955.22
399.60	2957.27
399.81	2863.06
400.03	2893.78
400.24	3268.56
400.45	3020.75
400.66	3057.62
400.88	2965.46
401.09	3147.73
401.30	3076.05
401.51	3086.29
401.73	2992.08
401.94	3100.62
402.15	3053.52
402.36	3063.76
402.58	3166.16
402.79	3096.53
403.00	3172.30
403.21	3221.45
403.43	3145.68
403.64	3270.61
403.85	3114.96
404.06	3276.75
404.27	3239.89
404.49	3100.62
404.70	3192.78
404.91	3229.65
405.12	3293.13
405.34	3170.26
405.55	3403.72
405.76	3213.26
405.97	3233.74
406.19	3428.30
406.40	3252.17
406.61	3330.00
406.82	3393.48
407.03	3264.46
407.25	3227.60
407.46	3399.63
407.67	3352.52
407.88	3485.64
408.09	3272.65
408.31	3334.09
408.52	3403.72
408.73	3465.16
408.94	3297.23
409.15	3338.19
409.37	3557.32
409.58	3477.45
409.79	3446.73
410.00	3473.36
410.21	3399.63
410.43	3422.16
410.64	3432.40
410.85	3547.08
411.06	3487.69
411.27	3565.51
411.48	3643.34
411.70	3502.03
411.91	3659.72
412.12	3594.19
412.33	3510.22
412.54	3602.38
412.76	3602.38
412.97	3706.82
413.18	3547.08
413.39	3715.02
413.60	3692.49
413.81	3549.13
414.03	3704.78
414.24	3618.76
414.45	3846.09
414.66	3626.95
414.87	3805.13
415.08	3618.76
415.30	3669.96
415.51	3723.21
415.72	3782.60
415.93	3772.36
416.14	3768.26
416.35	3856.33
416.56	3721.16
416.78	3782.60
416.99	3778.50
417.20	3809.22
417.41	3923.91
417.62	3919.81
417.83	3878.85
418.04	3835.85
418.26	3893.19
418.47	3938.24
418.68	4011.97
418.89	3952.58
419.10	4116.42
419.31	4024.26
419.52	4079.55
419.73	4028.35
419.95	4124.61
420.16	3971.01
420.37	4005.83
420.58	4091.84
420.79	4052.93
421.00	4222.91
421.21	4175.81
421.42	3915.72
421.63	4134.85
421.85	3995.59
422.06	4161.47
422.27	4200.38
422.48	4173.76
422.69	4218.82
422.90	4351.93
423.11	4122.56
423.32	4229.06
423.53	4466.62
423.75	4382.65
423.96	4464.57
424.17	4370.37
424.38	4427.71
424.59	4472.76
424.80	4575.16
425.01	4319.17
425.22	4411.32
425.43	4478.91
425.64	4724.66
425.85	4558.78
426.06	4607.93
426.28	4409.28
426.49	4403.13
426.70	4458.43
426.91	4618.17
427.12	4673.46
427.33	4571.07
427.54	4507.58
427.75	4632.51
427.96	4855.73
428.17	4712.38
428.38	4743.10
428.59	4779.96
428.80	4732.86
429.01	4816.82
429.23	4759.48
429.44	4913.08
429.65	4779.96
429.86	4857.78
430.07	4851.64
430.28	4845.49
430.49	5085.11
430.70	5025.72
430.91	4982.71
431.12	4906.93
431.33	5160.88
431.54	5265.33
431.75	5154.74
431.96	5066.67
432.17	5185.46
432.38	5124.02
432.59	5275.57
432.80	5095.35
433.01	5244.85
433.22	5246.90
433.43	5304.24
433.64	5154.74
433.85	5273.52
434.06	5400.49
434.27	5236.66
434.49	5494.70
434.70	5513.13
434.91	5425.07
435.12	5476.27
435.33	5410.73
435.54	5590.95
435.75	5273.52
435.96	5439.40
436.17	5451.69
436.38	5570.48
436.59	5658.54
436.80	5470.12
437.01	5762.98
437.22	5758.89
437.43	5701.54
437.64	5511.08
437.85	5754.79
438.06	5781.42
438.27	5660.59
438.48	5463.98
438.69	5830.57
438.90	5681.07
439.11	5709.74
439.32	5861.29
439.53	5808.04
439.74	5949.35
439.95	5838.76
440.16	5754.79
440.37	5857.19
440.57	5867.43
440.78	5873.57
440.99	6111.14
441.20	5898.15
441.41	5881.77
441.62	5928.87
441.83	5861.29
442.04	6139.81
442.25	5982.12
442.46	6055.84
442.67	6197.15
442.88	6414.24
443.09	6123.43
443.30	6072.23
443.51	6174.63
443.72	6395.81
443.93	6096.80
444.14	6467.49
444.35	6078.37
444.56	6303.65
444.77	6320.03
444.98	6229.92
445.19	6305.70
445.40	6399.90
445.61	6406.05
445.81	6510.49
446.02	6344.61
446.23	6410.14
446.44	6262.69
446.65	6518.68
446.86	6315.94
447.07	6485.92
447.28	6645.66
447.49	6703.00
447.70	6424.48
447.91	6690.71
448.12	6670.23
448.33	6858.65
448.54	6567.84
448.74	6586.27
448.95	6606.75
449.16	6606.75
449.37	6975.38
449.58	6715.29
449.79	6877.08
450.00	6717.34
450.21	6756.25
450.42	7042.96
450.63	6995.86
450.84	6868.89
451.05	7100.31
451.25	7049.11
451.46	6883.22
451.67	7094.16
451.88	7212.95
452.09	7262.10
452.30	7171.99
452.51	7208.85
452.72	7366.54
452.93	7401.36
453.13	7251.86
453.34	7153.55
453.55	7198.61
453.76	7282.58
453.97	7579.53
454.18	7339.92
454.39	7542.67
454.60	7548.81
454.81	7454.61
455.01	7581.58
455.22	7516.05
455.43	7444.37
455.64	7737.23
455.85	7856.01
456.06	7901.06
456.27	7782.28
456.48	7667.60
456.68	7831.43
456.89	7694.22
457.10	7817.10
457.31	8095.62
457.52	7882.63
457.73	8116.10
457.94	8152.96
458.14	7929.74
458.35	8296.32
458.56	8118.15
458.77	8195.97
458.98	8331.14
459.19	8208.26
459.39	8372.10
459.60	8458.11
459.81	8157.06
460.02	8437.63
460.23	8253.31
460.44	8712.06
460.65	8548.22
460.85	8632.19
461.06	8689.53
461.27	8554.37
461.48	8761.21
461.69	8857.46
461.89	8671.10
462.10	8939.38
462.31	8609.66
462.52	8810.36
462.73	8914.81
462.94	8966.01
463.14	9031.54
463.35	8998.77
463.56	9373.55
463.77	9205.62
463.98	9105.27
464.18	9088.89
464.39	9469.81
464.60	9504.62
464.81	9414.51
465.02	9465.71
465.23	9684.84
465.43	9568.11
465.64	9768.81
465.85	9521.01
466.06	9711.47
466.27	10125.16
466.47	9768.81
466.68	10035.05
466.89	9805.67
467.10	10051.43
467.30	9756.52
467.51	10182.50
467.72	10393.44
467.93	10088.29
468.14	10372.96
468.34	10332.00
468.55	10522.46
468.76	10544.99
468.97	10182.50
469.17	10577.76
469.38	10774.36
469.59	10893.15
469.80	10540.90
470.01	10852.19
470.21	10651.49
470.42	11140.95
470.63	11054.94
470.84	10997.59
471.04	11155.29
471.25	11251.54
471.46	11161.43
471.67	11538.26
471.87	11419.47
472.08	11509.58
472.29	11571.02
472.50	11468.62
472.70	11519.82
472.91	11861.84
473.12	11861.84
473.33	11859.79
473.53	12056.39
473.74	12017.48
473.95	12250.95
474.16	12244.81
474.36	12253.00
474.57	12244.81
474.78	12742.46
474.99	12420.93
475.19	12541.76
475.40	12851.00
475.61	12910.40
475.81	13031.23
476.02	13043.51
476.23	13012.79
476.44	13193.01
476.64	13334.32
476.85	13428.53
477.06	13319.99
477.27	13575.98
477.47	13700.91
477.68	13655.86
477.89	13940.52
478.09	13643.57
478.30	13946.67
478.51	13997.87
478.71	14153.51
478.92	14217.00
479.13	14130.98
479.34	14331.69
479.54	14612.26
479.75	14331.69
479.96	14518.05
480.16	14690.08
480.37	14790.43
480.58	15013.66
480.78	15306.52
480.99	14954.27
481.20	15318.81
481.41	15341.33
481.61	15271.70
481.82	15537.94
482.03	15628.05
482.23	15374.10
482.44	16035.60
482.65	15836.94
482.85	16015.12
483.06	15879.95
483.27	16125.71
483.47	15943.44
483.68	16178.95
483.89	16258.82
484.09	16129.80
484.30	16611.07
484.51	16576.26
484.71	16621.31
484.92	16748.29
485.13	16936.70
485.33	16967.42
485.54	17159.93
485.75	17293.05
485.95	17256.18
486.16	17471.22
486.37	17620.72
486.57	17731.31
486.78	17751.79
486.98	17538.80
487.19	17811.18
487.40	18005.74
487.60	18040.56
487.81	18192.11
488.02	17956.59
488.22	17948.40
488.43	18198.25
488.64	18302.70
488.84	18499.30
489.05	18601.70
489.25	18241.26
489.46	18802.40
489.67	18906.85
489.87	18724.58
490.08	18888.42
490.29	19273.43
490.49	19324.63
490.70	19293.91
490.90	19424.98
491.11	19527.38
491.32	19525.33
491.52	19279.58
491.73	19654.36
491.94	19799.76
492.14	19814.10
492.35	20147.92
492.55	20119.24
492.76	20127.44
492.97	20338.38
493.17	20377.29
493.38	20377.29
493.58	20752.07
493.79	20516.55
494.00	20459.21
494.20	20731.59
494.41	20801.22
494.61	20870.85
494.82	20979.39
495.02	20983.49
495.23	21186.24
495.44	21325.50
495.64	21331.64
495.85	21472.95
496.05	21335.74
496.26	21358.27
496.47	21915.31
496.67	21692.08
496.88	21927.60
497.08	21638.84
497.29	21778.10
497.49	21774.00
497.70	21976.75
497.91	22275.76
498.11	22466.22
498.32	22515.37
498.52	22478.50
498.73	22591.14
498.93	22720.17
499.14	22804.13
499.34	22845.09
499.55	22814.37
499.76	22810.28
499.96	22908.58
500.17	22908.58
500.37	23256.73
500.58	23174.81
500.78	23191.20
500.99	23262.88
501.19	23533.21
501.40	23527.06
501.60	23420.57
501.81	23377.56
502.02	23539.35
502.22	23451.29
502.43	23914.13
502.63	24153.74
502.84	24147.60
503.04	23864.98
503.25	23914.13
503.45	24166.03
503.66	24086.16
503.86	24264.33
504.07	24549.00
504.27	24307.34
504.48	24542.86
504.68	24739.46
504.89	24710.79
505.09	24440.46
505.30	24675.98
505.50	24546.95
505.71	24960.64
505.91	25056.90
506.12	24751.75
506.32	24852.10
506.53	25185.92
506.73	25009.79
506.94	25228.93
507.14	25190.02
507.35	25249.41
507.55	25534.07
507.76	25403.00
507.96	25347.71
508.17	25489.02
508.37	25591.42
508.58	25894.52
508.78	26117.75
508.99	26121.84
509.19	25874.04
509.40	26041.97
509.60	25896.56
509.81	25976.44
510.01	25814.65
510.22	25773.69
510.42	26467.95
510.63	26138.23
510.83	25982.58
511.04	26443.37
511.24	26418.80
511.44	26109.55
511.65	26513.00
511.85	26488.43
512.06	26701.42
512.26	26517.10
512.47	26953.32
512.67	26635.88
512.88	26807.91
513.08	26609.26
513.29	26992.23
513.49	26988.13
513.69	26916.45
513.90	27010.66
514.10	27235.94
514.31	27231.84
514.51	27266.66
514.72	27010.66
514.92	27383.39
515.13	27197.02
515.33	27405.92
515.53	27377.25
515.74	27209.31
515.94	27758.17
516.15	27713.11
516.35	27434.59
516.56	28028.50
516.76	27584.09
516.96	27911.77
517.17	27981.40
517.37	27825.75
517.58	27792.98
517.78	28372.56
517.99	28264.02
518.19	28288.59
518.39	28491.34
518.60	28493.39
518.80	28497.49
519.01	28483.15
519.21	28763.72
519.41	28470.86
519.62	28589.64
519.82	28669.51
520.03	28599.88
520.23	29038.15
520.43	28767.82
520.64	29099.59
520.84	29220.42
521.05	29003.33
521.25	29251.14
521.45	29402.69
521.66	29367.87
521.86	29371.97
522.07	29398.59
522.27	29783.61
522.47	29294.14
522.68	29967.93
522.88	29584.96
523.08	29935.16
523.29	29853.24
523.49	29996.60
523.70	30154.29
523.90	30293.55
524.10	30357.04
524.31	30860.84
524.51	30139.96
524.71	30785.07
524.92	30514.73
525.12	30807.59
525.33	31034.92
525.53	30926.38
525.73	31010.34
525.94	31151.65
526.14	31180.32
526.34	31295.01
526.55	31172.13
526.75	31460.90
526.95	31690.27
527.16	31501.86
527.36	31426.08
527.56	31768.09
527.77	32120.34
527.97	31864.35
528.17	31991.32
528.38	32058.90
528.58	31946.26
528.78	32386.58
528.99	32040.47
529.19	32362.00
529.39	32230.93
529.60	32693.77
529.80	32278.04
530.00	32316.95
530.21	32757.26
530.41	33289.73
530.61	33115.65
530.82	33003.02
531.02	33158.66
531.22	33273.35
531.43	32869.90
531.63	33535.49
531.83	33644.03
532.04	33738.24
532.24	33799.68
532.44	34057.72
532.64	33994.23
532.85	34094.58
533.05	34076.15
533.25	34287.09
533.46	33764.86
533.66	34160.12
533.86	34110.97
534.07	34498.03
534.27	34874.86
534.47	34983.40
534.67	34569.71
534.88	34756.08
535.08	34971.11
535.28	35313.13
535.49	35018.22
535.69	35198.44
535.89	35130.86
536.09	35403.24
536.30	35755.49
536.50	35683.81
536.70	35878.36
536.91	35368.42
537.11	35436.00
537.31	35939.80
537.51	35728.86
537.72	36251.09
537.92	36165.08
538.12	36550.10
538.32	36380.12
538.53	36806.09
538.73	36337.11
538.93	36756.94
539.13	36443.60
539.34	36666.83
539.54	36906.44
539.74	36888.01
539.94	36787.66
540.15	37023.18
540.35	37635.52
540.55	37375.43
540.75	37068.23
540.96	37068.23
541.16	37232.07
541.36	37608.90
541.56	37582.27
541.77	37582.27
541.97	37627.33
542.17	38196.67
542.37	37887.42
542.58	37981.63
542.78	37987.77
542.98	37778.88
543.18	38053.31
543.38	38213.05
543.59	38352.31
543.79	38157.75
543.99	38501.81
544.19	38786.48
544.40	38399.41
544.60	38288.82
544.80	38393.27
545.00	39056.81
545.20	38639.03
545.41	38542.77
545.61	38577.59
545.81	39116.20
546.01	38491.57
546.21	38985.13
546.42	39093.68
546.62	39507.37
546.82	38962.61
547.02	39163.31
547.22	39663.01
547.43	39497.13
547.63	39513.51
547.83	39626.15
548.03	39466.41
548.23	39468.45
548.44	39855.52
548.64	39658.91
548.84	39900.58
549.04	39654.82
549.24	39632.29
549.45	39984.54
549.65	40142.24
549.85	39996.83
550.05	40226.20
550.25	40058.27
550.45	40803.73
550.66	40326.55
550.86	40134.04
551.06	40488.34
551.26	40097.18
551.46	40469.91
551.66	40672.66
551.87	40424.86
552.07	40588.69
552.27	40617.36
552.47	40730.00
552.67	40836.50
552.87	40529.30
553.07	40695.19
553.28	41092.49
553.48	41078.16
553.68	40959.38
553.88	41139.60
554.08	40752.53
554.28	41235.85
554.48	41000.33
554.69	41069.97
554.89	41037.20
555.09	41368.97
555.29	41231.75
555.49	41694.60
555.69	41325.96
555.89	41428.36
556.10	41524.61
556.30	41221.52
556.50	41321.87
556.70	41469.32
556.90	41770.37
557.10	41602.44
557.30	41307.53
557.50	42012.03
557.70	41776.51
557.91	41985.41
558.11	41786.75
558.31	42091.90
558.51	41616.77
558.71	42173.82
558.91	42261.88
559.11	42009.98
559.31	41883.01
559.51	42263.93
559.72	42311.03
559.92	42294.65
560.12	42198.40
560.32	42591.61
560.52	42554.74
560.72	42249.60
560.92	42696.05
561.12	42409.34
561.32	42640.76
561.52	42315.13
561.72	42665.33
561.93	42610.04
562.13	42624.37
562.33	42362.23
562.53	43214.19
562.73	42470.78
562.93	42583.41
563.13	43130.22
563.33	42888.56
563.53	43230.57
563.73	42886.51
563.93	42775.92
564.13	43543.91
564.33	43208.04
564.53	42894.71
564.74	43449.70
564.94	42950.00
565.14	43234.67
565.34	42734.96
565.54	43541.86
565.74	43535.72
565.94	43865.44
566.14	43421.03
566.34	43525.48
566.54	44340.57
566.74	43449.70
566.94	43638.12
567.14	43955.55
567.34	43474.28
567.54	43924.83
567.74	43830.63
567.94	43537.77
568.14	44045.66
568.34	44002.66
568.54	43926.88
568.74	43887.97
568.94	44215.65
569.14	44541.27
569.34	44127.58
569.54	44285.28
569.75	43939.17
569.95	44115.29
570.15	44567.90
570.35	44862.80
570.55	44340.57
570.75	44352.86
570.95	44473.69
571.15	44504.41
571.35	44764.50
571.55	44936.53
571.75	44983.63
571.95	44668.25
572.15	44864.85
572.35	44850.52
572.55	44508.50
572.75	44942.67
572.95	44967.25
573.15	45075.79
573.35	45241.68
573.55	44914.00
573.75	45192.53
573.95	45489.48
574.15	45243.73
574.35	45303.12
574.55	45200.72
574.75	45372.75
574.95	45227.34
575.15	45262.16
575.34	45757.77
575.54	45626.70
575.74	45573.45
575.94	45219.15
576.14	45382.99
576.34	46140.74
576.54	45872.45
576.74	46007.62
576.94	45831.49
577.14	46198.08
577.34	46646.58
577.54	46212.41
577.74	46161.22
577.94	46204.22
578.14	46413.12
578.34	46458.17
578.54	45796.68
578.74	46142.78
578.94	46314.81
579.14	46363.96
579.34	46267.71
579.54	46259.52
579.74	46720.31
579.94	47015.22
580.13	46806.33
580.33	47004.98
580.53	46652.73
580.73	46826.81
580.93	47181.10
581.13	46871.86
581.33	46949.68
581.53	47166.77
581.73	47195.44
581.93	47418.67
582.13	47338.80
582.33	47582.51
582.53	47134.00
582.73	47500.59
582.92	47283.50
583.12	47934.76
583.32	47418.67
583.52	47875.37
583.72	48108.83
583.92	47344.94
584.12	47803.69
584.32	48907.54
584.52	48033.06
584.72	48102.69
584.92	48143.65
585.11	48651.55
585.31	48364.83
585.51	48438.56
585.71	48037.16
585.91	48557.34
586.11	48313.63
586.31	48317.73
586.51	48137.51
586.71	48430.36
586.91	48944.41
587.10	48782.62
587.30	48774.42
587.50	48629.02
587.70	49108.24
587.90	48561.44
588.10	48995.60
588.30	48690.46
588.50	49425.68
588.69	48987.41
588.89	48846.10
589.09	49368.33
589.29	49302.80
589.49	49468.69
589.69	49018.13
589.89	49538.32
590.08	49427.73
590.28	49173.78
590.48	49935.62
590.68	49550.60
590.88	49317.14
591.08	49145.11
591.28	49501.45
591.47	49718.54
591.67	49847.56
591.87	49769.74
592.07	49751.30
592.27	49448.21
592.47	49822.98
592.67	50420.99
592.86	49857.80
593.06	50281.73
593.26	49984.77
593.46	50298.11
593.66	49882.37
593.86	50025.73
594.05	50287.87
594.25	50396.42
594.45	50148.61
594.65	50193.67
594.85	49816.84
595.05	50504.96
595.24	50429.18
595.44	49915.14
595.64	50824.44
595.84	50683.13
596.04	50640.12
596.23	50582.78
596.43	50572.54
596.63	50353.41
596.83	51154.16
597.03	51119.35
597.22	51258.61
597.42	51127.54
597.62	51094.77
597.82	51080.44
598.02	51449.07
598.21	51514.61
598.41	50789.62
598.61	51156.21
598.81	51098.87
599.01	51361.01
599.20	51301.62
599.40	50943.22
599.60	51381.49
599.80	51873.00
600.00	51436.78
600.19	52124.90
600.39	51475.69
600.59	52118.76
600.79	52139.24
600.98	51645.68
601.18	51934.44
601.38	51754.22
601.58	51969.26
601.78	51987.69
601.97	51995.88
602.17	52577.50
602.37	52720.86
602.57	52622.56
602.76	52450.53
602.96	51991.78
603.16	52298.98
603.36	52544.73
603.55	52819.16
603.75	52593.89
603.95	52374.75
604.15	52622.56
604.34	52571.36
604.54	52978.90
604.74	52630.75
604.94	52890.84
605.13	52878.55
605.33	52868.31
605.53	52763.87
605.73	53329.11
605.92	52946.14
606.12	52913.37
606.32	53224.66
606.52	52749.53
606.71	53015.77
606.91	53593.29
607.11	53349.59
607.30	53114.07
607.50	53501.14
607.70	53361.87
607.90	53200.08
608.09	53204.18
608.29	53824.71
608.49	53566.67
608.68	53378.26
608.88	52964.57
609.08	53312.72
609.28	53593.29
609.47	53288.15
609.67	53892.30
609.87	53673.16
610.06	54162.63
610.26	53656.78
610.46	53769.42
610.66	53406.93
610.85	53716.17
611.05	53675.21
611.25	53540.05
611.44	53341.39
611.64	53898.44
611.84	53593.29
612.03	53654.73
612.23	53742.80
612.43	53998.79
612.62	53339.35
612.82	53890.25
613.02	53664.97
613.21	53753.04
613.41	53638.35
613.61	54228.16
613.80	53310.67
614.00	53994.70
614.20	53785.80
614.39	53701.84
614.59	54334.66
614.79	53812.43
614.98	53744.84
615.18	54117.57
615.38	54277.32
615.57	53980.36
615.77	54072.52
615.97	53941.45
616.16	54174.92
616.36	53859.53
616.56	53976.26
616.75	53957.83
616.95	54283.46
617.15	54236.36
617.34	54056.14
617.54	53664.97
617.74	54525.12
617.93	54211.78
618.13	53769.42
618.32	53494.99
618.52	53679.31
618.72	54293.70
618.91	54187.21
619.11	53976.26
619.31	53794.00
619.50	53859.53
619.70	53730.51
619.90	54328.52
620.09	53812.43
620.29	53738.70
620.48	53636.30
620.68	54187.21
620.88	53963.98
621.07	53890.25
621.27	54172.87
621.46	53388.50
621.66	53961.93
621.86	53947.59
622.05	53910.73
622.25	54262.98
622.44	53998.79
622.64	53548.24
622.84	54006.98
623.03	53544.14
623.23	53861.58
623.42	54146.25
623.62	53888.20
623.82	54031.56
624.01	54568.13
624.21	54148.29
624.40	53794.00
624.60	54123.72
624.80	54093.00
624.99	54006.98
625.19	53515.47
625.38	54154.44
625.58	53982.41
625.77	53970.12
625.97	54107.33
626.17	53671.12
626.36	53816.52
626.56	54111.43
626.75	53646.54
626.95	54303.94
627.14	53779.66
627.34	54367.43
627.54	54072.52
627.73	53853.39
627.93	53880.01
628.12	53753.04
628.32	53736.65
628.51	53937.35
628.71	53884.11
628.90	54029.51
629.10	54179.01
629.30	54238.40
629.49	53963.98
629.69	53818.57
629.88	53920.97
630.08	54387.91
630.27	53814.47
630.47	54039.75
630.66	53961.93
630.86	54389.95
631.05	53628.11
631.25	54596.80
631.44	54045.90
631.64	54199.49
631.84	54400.19
632.03	54521.02
632.23	54406.34
632.42	54328.52
632.62	54117.57
632.81	54060.23
633.01	54271.17
633.20	54119.62
633.40	54740.16
633.59	54543.55
633.79	54166.73
633.98	54680.77
634.18	54736.06
634.37	54250.69
634.57	54582.46
634.76	54518.98
634.96	54316.23
635.15	54840.51
635.35	54453.44
635.54	54146.25
635.74	54584.51
635.93	54408.39
636.13	54721.72
636.32	54592.70
636.52	54416.58
636.71	54686.91
636.91	54437.06
637.10	54303.94
637.30	54525.12
637.49	54461.63
637.69	54631.61
637.88	54994.10
638.08	54389.95
638.27	54752.44
638.46	54713.53
638.66	54586.56
638.85	54768.83
639.05	54549.70
639.24	54856.89
639.44	54465.73
639.63	55006.39
639.83	54772.92
640.02	54777.02
640.22	54875.32
640.41	55381.17
640.61	54715.58
640.80	54609.09
640.99	54729.92
641.19	55393.46
641.38	54699.20
641.58	54977.72
641.77	54584.51
641.97	54703.29
642.16	55481.52
642.36	54949.05
642.55	55217.33
642.74	54973.63
642.94	55968.94
643.13	55106.74
643.33	55176.37
643.52	55424.18
643.72	55606.45
643.91	55325.88
644.10	55022.78
644.30	55518.38
644.49	55266.48
644.69	55600.30
644.88	55876.78
645.08	55332.02
645.27	55340.21
645.46	55438.51
645.66	55616.69
645.85	55391.41
646.05	55653.55
646.24	55989.42
646.43	55448.75
646.63	55862.44
646.82	55671.98
647.02	55803.05
647.21	55878.83
647.40	55833.77
647.60	55790.76
647.79	55495.86
647.99	55614.64
648.18	55694.51
648.37	56380.58
648.57	56132.78
648.76	56079.53
648.96	55819.44
649.15	56032.42
649.34	56317.09
649.54	55870.64
649.73	55870.64
649.92	55989.42
650.12	56644.77
650.31	56333.48
650.51	56439.97
650.70	56104.10
650.89	55977.13
651.09	56640.67
651.28	56212.65
651.47	56194.21
651.67	56863.90
651.86	56982.68
652.06	55831.72
652.25	56360.10
652.44	56267.94
652.64	56269.99
652.83	56243.37
653.02	56419.49
653.22	56706.21
653.41	56509.60
653.60	56308.90
653.80	56378.53
653.99	56433.83
654.18	56245.41
654.38	55878.83
654.57	56411.30
654.76	56450.21
654.96	56269.99
655.15	56607.90
655.34	56288.42
655.54	56093.86
655.73	56462.50
655.92	56128.68
656.12	56095.91
656.31	56378.53
656.50	56833.18
656.70	56360.10
656.89	56620.19
657.08	56399.01
657.28	56601.76
657.47	56562.85
657.66	56765.60
657.86	56771.74
658.05	56917.15
658.24	56616.10
658.43	56603.81
658.63	56753.31
658.82	57013.40
659.01	56851.61
659.21	56765.60
659.40	56661.15
659.59	56775.84
659.79	57021.59
659.98	57160.86
660.17	57078.94
660.36	56632.48
660.56	56800.41
660.75	56980.63
660.94	56841.37
661.14	56614.05
661.33	57070.75
661.52	56681.63
661.71	57146.52
661.91	56972.44
662.10	56679.58
662.29	57382.04
662.49	56624.29
662.68	56798.37
662.87	56937.63
663.06	56911.00
663.26	56558.75
663.45	57169.05
663.64	57138.33
663.83	57341.08
664.03	57083.03
664.22	56878.24
664.41	57058.46
664.60	56495.27
664.80	56757.41
664.99	56908.96
665.18	57031.83
665.37	56808.61
665.57	57226.39
665.76	56685.73
665.95	56984.73
666.14	56464.55
666.34	56599.71
666.53	57281.69
666.72	56540.32
666.91	56482.98
667.11	56618.14
667.30	56353.96
667.49	56810.65
667.68	56597.66
667.87	56612.00
668.07	56968.35
668.26	56685.73
668.45	56984.73
668.64	56485.03
668.84	57222.29
669.03	57339.03
669.22	56853.66
669.41	57064.60
669.60	57152.66
669.80	56904.86
669.99	57111.70
670.18	56714.40
670.37	56855.71
670.57	57210.01
670.76	56798.37
670.95	57103.51
671.14	56747.17
671.33	56341.67
671.53	56972.44
671.72	56468.64
671.91	56466.59
672.10	56827.04
672.29	56769.69
672.48	56169.64
672.68	56859.80
672.87	56788.13
673.06	56857.76
673.25	56472.74
673.44	56493.22
673.64	56650.91
673.83	56849.56
674.02	56831.13
674.21	56235.17
674.40	56566.94
674.59	56274.09
674.79	56759.45
674.98	56317.09
675.17	56470.69
675.36	56616.10
675.55	56507.55
675.74	56485.03
675.94	55934.12
676.13	56335.52
676.32	56702.11
676.51	56681.63
676.70	56325.28
676.89	56546.47
677.08	56452.26
677.28	56239.27
677.47	56657.06
677.66	56571.04
677.85	56415.40
678.04	56628.38
678.23	56595.62
678.42	56431.78
678.62	56722.59
678.81	56736.93
679.00	56313.00
679.19	56632.48
679.38	56128.68
679.57	56384.68
679.76	55753.90
679.96	56460.45
680.15	56648.86
680.34	55966.89
680.53	55919.79
680.72	56282.28
680.91	56263.85
681.10	56085.67
681.29	55934.12
681.48	55930.03
681.68	56161.45
681.87	56028.33
682.06	56345.76
682.25	55522.48
682.44	55704.75
682.63	55680.17
682.82	55977.13
683.01	56089.77
683.20	55547.06
683.39	55958.70
683.59	55723.18
683.78	55530.67
683.97	55473.33
684.16	55114.94
684.35	55278.77
684.54	56065.19
684.73	55526.58
684.92	55145.65
685.11	55381.17
685.30	55164.09
685.49	55553.20
685.69	55358.64
685.88	55825.58
686.07	55596.21
686.26	55768.24
686.45	55223.48
686.64	55520.43
686.83	55583.92
687.02	55450.80
687.21	55194.81
687.40	55289.01
687.59	55223.48
687.78	55407.79
687.97	55456.95
688.16	55121.08
688.35	55372.98
688.54	55108.79
688.74	55170.23
688.93	54973.63
689.12	55338.16
689.31	55059.64
689.50	55370.93
689.69	54471.87
689.88	54633.66
690.07	54803.64
690.26	54748.35
690.45	55268.53
690.64	54498.50
690.83	54928.57
691.02	54963.39
691.21	54584.51
691.40	54727.87
691.59	54344.90
691.78	54521.02
691.97	54625.47
692.16	54168.77
692.35	54308.04
692.54	54793.40
692.73	54834.36
692.92	54742.20
693.11	54613.18
693.30	54566.08
693.49	54830.27
693.68	54291.65
693.87	54269.12
694.06	53826.76
694.25	54195.40
694.44	53974.22
694.63	54064.33
694.82	54439.11
695.01	54228.16
695.20	53820.62
695.39	53531.86
695.58	54195.40
695.77	53568.72
695.96	53929.16
696.15	53824.71
696.34	53853.39
696.53	53882.06
696.72	54355.14
696.91	53699.79
697.10	54285.51
697.29	53462.22
697.48	54152.39
697.67	53658.83
697.86	53583.05
698.05	53314.77
698.24	54164.68
698.43	53212.37
698.62	53583.05
698.81	53277.91
699.00	53398.74
699.19	52952.28
699.38	53601.49
699.57	52860.12
699.76	53923.02
699.95	53251.28
700.14	52749.53
700.32	53171.41
700.51	53320.91
700.70	53101.78
700.89	53292.24
701.08	53372.11
701.27	52939.99
701.46	53357.78
701.65	52770.01
701.84	53308.63
702.03	53005.53
702.22	52690.14
702.41	52403.42
702.60	53277.91
702.79	52952.28
702.98	52294.88
703.17	52511.97
703.35	52526.30
703.54	52466.91
703.73	52919.51
703.92	52759.77
704.11	52755.68
704.30	52417.76
704.49	52874.46
704.68	52491.49
704.87	52606.17
705.06	52548.83
705.25	52395.23
705.43	52477.15
705.62	52606.17
705.81	52384.99
706.00	52020.45
706.19	52485.34
706.38	52270.31
706.57	52405.47
706.76	52106.47
706.95	52415.71
707.14	52307.17
707.32	51918.06
707.51	51741.93
707.70	51991.78
707.89	52511.97
708.08	52010.21
708.27	52430.05
708.46	52255.97
708.65	51631.34
708.84	52253.92
709.02	52122.85
709.21	51983.59
709.40	52022.50
709.59	52192.48
709.78	51614.96
709.97	52198.63
710.16	51842.28
710.34	51604.72
710.53	51963.11
710.72	51715.31
710.91	51983.59
711.10	51827.95
711.29	51700.97
711.48	51635.44
711.66	51569.90
711.85	51188.98
712.04	51148.02
712.23	51283.19
712.42	51131.64
712.61	51176.69
712.80	51369.20
712.98	51465.45
713.17	51160.31
713.36	51518.70
713.55	51174.64
713.74	51262.71
713.93	50906.36
714.11	51158.26
714.30	50943.22
714.49	50777.34
714.68	51379.44
714.87	51342.58
715.06	51266.80
715.24	50658.56
715.43	50824.44
715.62	50840.82
715.81	50791.67
716.00	51008.76
716.18	50390.27
716.37	50803.96
716.56	50658.56
716.75	51002.61
716.94	50654.46
717.12	50447.61
717.31	50820.34
717.50	50304.26
717.69	50171.14
717.88	50621.69
718.06	50648.32
718.25	50754.81
718.44	50251.01
718.63	50582.78
718.82	50091.27
719.00	50009.35
719.19	50183.43
719.38	50330.88
719.57	49931.53
719.76	49888.52
719.94	49675.53
720.13	49468.69
720.32	49958.15
720.51	49677.58
720.69	49411.34
720.88	49911.05
721.07	49650.95
721.26	49405.20
721.44	49489.16
721.63	49714.44
721.82	49218.83
722.01	49401.10
722.20	49759.50
722.38	49059.09
722.57	49065.24
722.76	49323.28
722.95	49085.72
723.13	49052.95
723.32	49108.24
723.51	48987.41
723.70	48708.89
723.88	49179.92
724.07	48692.50
724.26	48946.45
724.44	48962.84
724.63	49216.78
724.82	49040.66
725.01	48702.74
725.19	48667.93
725.38	48641.31
725.57	48743.70
725.76	48807.19
725.94	48244.00
726.13	48321.82
726.32	48526.62
726.51	48528.67
726.69	48821.53
726.88	48819.48
727.07	48409.89
727.25	48469.28
727.44	48588.06
727.63	48377.12
727.82	49231.12
728.00	48827.67
728.19	48606.49
728.38	48536.86
728.56	48096.55
728.75	49040.66
728.94	47953.19
729.12	48323.87
729.31	48205.09
729.50	48399.65
729.69	48440.60
729.87	48141.60
730.06	48686.36
730.25	48803.10
730.43	48907.54
730.62	48473.37
730.81	48928.02
730.99	48418.08
731.18	47965.48
731.37	48289.06
731.55	48342.30
731.74	48493.85
731.93	48792.86
732.11	48629.02
732.30	48362.78
732.49	48377.12
732.67	48674.07
732.86	48409.89
733.05	48252.19
733.23	48385.31
733.42	48469.28
733.61	48061.73
733.79	48164.13
733.98	48780.57
734.17	48117.03
734.35	48010.53
734.54	48409.89
734.73	48669.98
734.91	48092.45
735.10	47858.98
735.29	48340.25
735.47	47805.73
735.66	47947.04
735.84	48268.58
736.03	47641.90
736.22	47914.28
736.40	47709.48
736.59	47895.85
736.78	48293.15
736.96	47994.15
737.15	47705.38
737.33	47953.19
737.52	48100.64
737.71	47934.76
737.89	48221.47
738.08	47920.42
738.27	47637.80
738.45	48217.38
738.64	48131.36
738.82	47533.35
739.01	47850.79
739.20	47547.69
739.38	47613.23
739.57	47791.40
739.75	47359.28
739.94	47654.18
740.13	47641.90
740.31	47346.99
740.50	47310.13
740.68	48071.97
740.87	47240.50
741.06	47338.80
741.24	47099.19
741.43	47095.09
741.61	47592.75
741.80	47306.03
741.99	47334.70
742.17	47553.83
742.36	47482.16
742.54	47330.61
742.73	47441.20
742.91	47598.89
743.10	47416.62
743.29	47312.17
743.47	47332.65
743.66	47453.48
743.84	47381.80
744.03	47385.90
744.21	47330.61
744.40	47381.80
744.59	47725.86
744.77	46691.64
744.96	47095.09
745.14	46849.33
745.33	46808.37
745.51	46708.02
745.70	46884.15
745.88	46652.73
746.07	46810.42
746.26	46681.40
746.44	46656.82
746.63	46902.58
746.81	46579.00
747.00	46433.60
747.18	46519.61
747.37	46804.28
747.55	46622.01
747.74	46822.71
747.92	46026.05
748.11	46400.83
748.29	46398.78
748.48	46556.47
748.66	46617.91
748.85	46650.68
749.03	46519.61
749.22	46538.04
749.41	46402.88
749.59	46474.55
749.78	46390.59
749.96	46101.82
750.15	46357.82
750.33	46286.14
750.52	46366.01
750.70	46208.32
750.89	46261.57
751.07	46011.71
751.26	45796.68
751.44	46146.88
751.63	45886.79
751.81	45423.95
752.00	45753.67
752.18	45770.05
752.37	45800.77
752.55	45251.92
752.74	45780.29
752.92	45229.39
753.10	45501.77
753.29	45819.20
753.47	45620.55
753.66	45501.77
753.84	45415.76
754.03	45792.58
754.21	45174.09
754.40	45417.80
754.58	45909.32
754.77	45473.10
754.95	45235.53
755.14	45096.27
755.32	45380.94
755.51	44991.83
755.69	45206.86
755.88	45067.60
756.06	44825.94
756.24	45118.80
756.43	45200.72
756.61	45159.76
756.80	44942.67
756.98	44748.12
757.17	44864.85
757.35	44766.55
757.54	44916.05
757.72	44817.75
757.90	44901.71
758.09	44746.07
758.27	44717.40
758.46	44082.53
758.64	44266.84
758.83	44426.59
759.01	44234.08
759.19	44574.04
759.38	44885.33
759.56	44823.89
759.75	44365.15
759.93	44166.49
760.12	44150.11
760.30	44735.83
760.48	44203.36
760.67	44324.19
760.85	44254.56
761.04	44361.05
761.22	44426.59
761.40	44113.25
761.59	44109.15
761.77	43896.16
761.96	43853.15
762.14	43836.77
762.32	44008.80
762.51	43392.36
762.69	43627.88
762.88	43550.06
763.06	43652.45
763.24	43388.27
763.43	43677.03
763.61	43349.35
763.80	43279.72
763.98	43332.97
764.16	43396.46
764.35	42847.60
764.53	42997.10
764.72	42997.10
764.90	43062.64
765.08	43095.41
765.27	42890.61
765.45	42573.17
765.63	42397.05
765.82	42675.57
766.00	42493.30
766.18	42739.06
766.37	42845.55
766.55	42454.39
766.74	42433.91
766.92	42691.96
767.10	42808.69
767.29	42573.17
767.47	42306.94
767.65	42343.80
767.84	42372.47
768.02	42167.68
768.20	42345.85
768.39	42220.92
768.57	42044.80
768.75	42171.77
768.94	42055.04
769.12	42382.71
769.30	41643.40
769.49	41872.77
769.67	41856.39
769.85	41397.64
770.04	41756.03
770.22	41551.24
770.40	41495.94
770.59	41743.75
770.77	41151.88
770.95	41682.31
771.14	41348.49
771.32	41672.07
771.50	41002.38
771.69	41227.66
771.87	41676.16
772.05	40959.38
772.24	40979.85
772.42	41061.77
772.60	41317.77
772.78	41160.08
772.97	40824.21
773.15	41393.54
773.33	41115.02
773.52	40887.70
773.70	41076.11
773.88	40791.44
774.07	40615.32
774.25	40695.19
774.43	41053.58
774.61	41035.15
774.80	41155.98
774.98	40869.26
775.16	40852.88
775.34	41362.82
775.53	41022.86
775.71	41031.05
775.89	41110.92
776.08	40889.74
776.26	40803.73
776.44	40826.26
776.62	41084.30
776.81	40897.94
776.99	41047.44
777.17	41035.15
777.35	41026.96
777.54	41215.37
777.72	41041.29
777.90	40949.14
778.08	40969.61
778.27	41278.86
778.45	41323.91
778.63	41430.41
778.81	40959.38
779.00	41762.18
779.18	41069.97
779.36	41340.30
779.54	40899.98
779.73	40758.67
779.91	41596.29
780.09	41184.65
780.27	41383.30
780.46	41450.89
780.64	41500.04
780.82	41198.99
781.00	41092.49
781.19	41285.00
781.37	41624.96
781.55	41538.95
781.73	41893.25
781.91	41643.40
782.10	41432.46
782.28	41547.14
782.46	41428.36
782.64	41665.92
782.82	41174.41
783.01	41739.65
783.19	41584.01
783.37	41518.47
783.55	41502.09
783.74	41710.98
783.92	41381.26
784.10	41907.58
784.28	42179.96
784.46	41229.71
784.64	41164.17
784.83	41403.78
785.01	41516.42
785.19	41522.57
785.37	41592.20
785.55	41366.92
785.74	41213.32
785.92	41227.66
786.10	41235.85
786.28	41282.95
786.46	40992.14
786.64	40797.59
786.83	41446.79
787.01	41082.25
787.19	41147.79
787.37	41241.99
787.55	40918.42
787.74	40818.07
787.92	41139.60
788.10	40490.39
788.28	40813.97
788.46	40525.21
788.64	40637.84
788.82	40572.31
789.01	40607.12
789.19	40449.43
789.37	40428.95
789.55	40338.84
789.73	40230.30
789.91	40244.63
790.09	39892.38
790.28	40166.81
790.46	39775.65
790.64	39927.20
790.82	39714.21
791.00	39734.69
791.18	39607.72
791.36	39419.30
791.55	39589.28
791.73	39247.27
791.91	39568.80
792.09	39499.17
792.27	39746.98
792.45	39613.86
792.63	39445.93
792.81	39566.76
793.00	39239.08
793.18	39161.26
793.36	38952.37
793.54	38704.56
793.72	38682.03
793.90	39011.76
794.08	38544.82
794.26	39015.85
794.44	38024.64
794.62	38036.92
794.81	38215.10
794.99	38153.66
795.17	37928.38
795.35	38086.07
795.53	38045.12
795.71	38096.31
795.89	37483.97
796.07	37336.52
796.25	37412.29
796.43	37395.91
796.61	37449.16
796.80	37248.46
796.98	37766.59
797.16	36779.47
797.34	37115.34
797.52	37373.38
797.70	37273.03
797.88	36586.96
798.06	36822.48
798.24	36914.64
798.42	36634.06
798.60	36656.59
798.78	36742.61
798.96	36752.85
799.14	36115.93
799.32	36546.00
799.51	36429.27
799.69	36449.75
799.87	36261.33
800.05	35939.80
800.23	35743.20
800.41	35558.88
800.59	35597.79
800.77	35616.22
800.95	35313.13
801.13	35638.75
801.31	35446.24
801.49	35556.83
801.67	35354.08
801.85	34864.62
802.03	34985.45
802.21	34764.27
802.39	34690.54
802.57	35268.07
802.75	34725.36
802.93	34780.65
803.11	34561.52
803.29	34317.81
803.47	34164.21
803.65	34283.00
803.83	34438.64
804.01	34203.13
804.19	33895.93
804.37	34082.30
804.55	34006.52
804.73	33842.68
804.91	33922.55
805.09	33859.07
805.27	33785.34
805.45	33510.91
805.63	34088.44
805.81	33594.88
805.99	33670.65
806.17	33566.21
806.35	33564.16
806.53	33265.16
806.71	33025.54
806.89	33154.57
807.07	33156.61
807.25	33168.90
807.43	32882.19
807.61	33078.79
807.79	32976.39
807.97	32628.24
808.15	32964.10
808.33	32785.93
808.51	32349.71
808.69	32779.79
808.87	32640.53
809.05	32300.56
809.23	32183.83
809.41	32321.04
809.59	32028.18
809.77	32316.95
809.95	31976.98
810.13	32001.56
810.31	32060.95
810.49	31804.95
810.67	32247.32
810.84	31817.24
811.02	31911.45
811.20	31991.32
811.38	31610.40
811.56	31596.06
811.74	31665.69
811.92	31165.99
812.10	31577.63
812.28	31516.19
812.46	31290.91
812.64	31497.76
812.82	31209.00
813.00	31264.29
813.18	31196.71
813.36	31188.52
813.53	30715.44
813.71	31004.20
813.89	30856.75
814.07	30729.77
814.25	30897.70
814.43	30602.80
814.61	30492.21
814.79	30793.26
814.97	30613.04
815.15	30350.90
815.33	30246.45
815.50	30168.63
815.68	30402.10
815.86	30275.12
816.04	30199.35
816.22	29847.10
816.40	30287.41
816.58	30062.13
816.76	29785.66
816.94	30025.27
817.11	29830.71
817.29	29875.77
817.47	29636.16
817.65	29339.20
817.83	29681.21
818.01	29357.63
818.19	29351.49
818.37	29347.39
818.54	29267.52
818.72	29228.61
818.90	29550.14
819.08	29443.65
819.26	29343.30
819.44	29109.83
819.62	29154.88
819.80	29351.49
819.97	29066.82
820.15	28876.36
820.33	29087.30
820.51	29212.23
820.69	28681.80
820.87	29105.73
821.05	29091.40
821.22	29081.16
821.40	28986.95
821.58	28630.60
821.76	28370.51
821.94	28362.32
822.12	28696.14
822.29	28546.64
822.47	28317.26
822.65	28452.43
822.83	28405.33
823.01	28214.87
823.19	28137.04
823.36	28163.67
823.54	28429.90
823.72	28503.63
823.90	28173.91
824.08	27764.31
824.25	27926.10
824.43	27694.68
824.61	27903.57
824.79	28126.80
824.97	28005.97
825.15	27979.35
825.32	27772.50
825.50	27686.49
825.68	27666.01
825.86	27653.72
826.04	27737.69
826.21	27610.71
826.39	27395.68
826.57	27491.93
826.75	27242.08
826.93	27303.52
827.10	27498.08
827.28	27496.03
827.46	27723.35
827.64	27305.57
827.81	27192.93
827.99	27289.18
828.17	27123.30
828.35	27051.62
828.53	27096.67
828.70	27143.78
828.88	27133.54
829.06	27076.19
829.24	27025.00
829.41	27102.82
829.59	26922.60
829.77	26938.98
829.95	27090.53
830.12	26713.70
830.30	26869.35
830.48	26898.02
830.66	26695.27
830.84	26748.52
831.01	26336.88
831.19	26627.69
831.37	26568.30
831.55	26660.46
831.72	26230.38
831.90	26693.22
832.08	26596.97
832.25	26529.39
832.43	26723.94
832.61	26271.34
832.79	26005.11
832.96	26306.16
833.14	26201.71
833.32	26365.55
833.50	26392.17
833.67	26566.25
833.85	26224.24
834.03	25931.38
834.20	26345.07
834.38	26062.45
834.56	26334.83
834.74	25828.98
834.91	26269.30
835.09	25927.28
835.27	25904.76
835.44	25898.61
835.62	25460.35
835.80	25695.86
835.98	25734.78
836.15	25865.85
836.33	25751.16
836.51	25558.65
836.68	25636.47
836.86	25527.93
837.04	25644.66
837.21	25671.29
837.39	25419.39
837.57	25814.65
837.75	25585.27
837.92	25167.49
838.10	25323.13
838.28	24966.79
838.45	25237.12
838.63	25247.36
838.81	25095.81
838.98	24925.83
839.16	24970.88
839.34	25048.71
839.51	25097.86
839.69	24989.31
839.87	25273.98
840.04	24897.16
840.22	25093.76
840.40	24936.07
840.57	24981.12
840.75	24776.33
840.93	24669.83
841.10	24743.56
841.28	25083.52
841.46	25017.99
841.63	24888.96
841.81	24862.34
841.98	24850.05
842.16	24956.55
842.34	24549.00
842.51	24598.15
842.69	24516.23
842.87	24618.63
843.04	24800.90
843.22	24393.36
843.40	24374.92
843.57	24422.03
843.75	24471.18
843.92	24743.56
844.10	24360.59
844.28	24301.20
844.45	24258.19
844.63	24444.56
844.81	24166.03
844.98	24348.30
845.16	24239.76
845.33	24235.66
845.51	24284.81
845.69	23817.88
845.86	24489.61
846.04	23965.33
846.21	24190.61
846.39	24071.82
846.57	24090.26
846.74	23869.08
846.92	23944.85
847.09	23785.11
847.27	23203.49
847.45	23924.37
847.62	23817.88
847.80	24065.68
847.97	23568.02
848.15	23527.06
848.32	23348.89
848.50	23678.61
848.68	23494.30
848.85	23801.49
849.03	23252.64
849.20	23914.13
849.38	23635.61
849.56	23633.56
849.73	23486.11
849.91	23359.13
850.08	23725.72
850.26	23174.81
850.43	23236.25
850.61	23289.50
850.78	22879.91
850.96	23500.44
851.14	22972.07
851.31	23316.12
851.49	23195.29
851.66	23080.61
851.84	23240.35
852.01	23393.95
852.19	23127.71
852.36	23180.96
852.54	23021.22
852.71	22972.07
852.89	22939.30
853.07	22922.91
853.24	22953.63
853.42	22888.10
853.59	22748.84
853.77	22613.67
853.94	22836.90
854.12	23088.80
854.29	22554.28
854.47	22918.82
854.64	22746.79
854.82	22578.86
854.99	22953.63
855.17	22519.46
855.34	22591.14
855.52	22738.60
855.69	22607.53
855.87	22419.11
856.04	22589.10
856.22	22353.58
856.39	22251.18
856.57	22605.48
856.74	22093.49
856.92	22261.42
857.09	22412.97
857.27	22236.84
857.44	22550.18
857.62	22541.99
857.79	22167.21
857.97	22226.60
858.14	22394.54
858.32	22197.93
858.49	22085.30
858.67	22054.58
858.84	21995.18
859.02	22118.06
859.19	22011.57
859.37	21839.54
859.54	21931.70
859.72	22027.95
859.89	21677.75
860.06	21931.70
860.24	21864.11
860.41	21796.53
860.59	21706.42
860.76	21931.70
860.94	21608.12
861.11	21806.77
861.29	21796.53
861.46	21419.71
861.64	21577.40
861.81	21534.39
861.98	21563.06
862.16	21452.47
862.33	21163.71
862.51	21391.03
862.68	21448.38
862.86	21325.50
863.03	21440.18
863.21	21587.64
863.38	21126.85
863.55	21204.67
863.73	21243.58
863.90	21470.90
864.08	21284.54
864.25	21122.75
864.43	21233.34
864.60	21167.80
864.77	20770.50
864.95	21208.76
865.12	20815.55
865.30	21079.74
865.47	21094.08
865.64	20913.86
865.82	21155.52
865.99	21034.69
866.17	20786.88
866.34	20965.06
866.51	20643.52
866.69	20860.61
866.86	20637.38
867.04	20649.67
867.21	20840.13
867.38	20670.15
867.56	20420.30
867.73	20891.33
867.91	20330.19
868.08	20403.91
868.25	20444.87
868.43	20424.39
868.60	20506.31
868.78	20192.97
868.95	20629.19
869.12	20627.14
869.30	20436.68
869.47	20428.49
869.64	20053.71
869.82	20211.40
869.99	20219.60
870.16	20188.88
870.34	20057.81
870.51	20293.32
870.69	19986.13
870.86	20358.86
871.03	20037.33
871.21	19586.77
871.38	19887.82
871.55	19850.96
871.73	19594.96
871.90	19830.48
872.07	19785.43
872.25	19476.18
872.42	19562.20
872.59	19496.66
872.77	19472.09
872.94	19646.16
873.11	19472.09
873.29	19392.22
873.46	19115.74
873.63	19521.24
873.81	19435.22
873.98	19388.12
874.15	19123.93
874.33	19082.97
874.50	18935.52
874.67	19203.80
874.85	19216.09
875.02	19140.32
875.19	19031.77
875.37	19119.84
875.54	19019.49
875.71	18898.66
875.88	18869.98
876.06	19244.76
876.23	19068.64
876.40	18652.90
876.58	18771.68
876.75	18591.46
876.92	18548.45
877.10	18462.44
877.27	18534.12
877.44	18433.77
877.61	18527.97
877.79	18566.88
877.96	18276.07
878.13	18452.20
878.31	18403.05
878.48	18474.73
878.65	18120.43
878.82	18183.91
879.00	18329.32
879.17	18001.65
879.34	18282.22
879.51	17952.49
879.69	17657.59
879.86	18046.70
880.03	17958.64
880.21	17811.18
880.38	17843.95
880.55	17946.35
880.72	17915.63
880.90	17940.21
881.07	17757.94
881.24	17602.29
881.41	17776.37
881.59	17630.96
881.76	17667.83
881.93	17587.96
882.10	17579.76
882.28	17463.03
882.45	17796.85
882.62	17389.30
882.79	17774.32
882.96	17274.62
883.14	17698.55
883.31	17698.55
883.48	17340.15
883.65	17266.42
883.83	17501.94
884.00	17637.11
884.17	17334.01
884.34	17444.60
884.51	17518.32
884.69	17198.84
884.86	17303.29
885.03	17209.08
885.20	17260.28
885.38	17221.37
885.55	16910.08
885.72	17161.98
885.89	17026.81
886.06	16934.65
886.24	16994.04
886.41	17127.16
886.58	16977.66
886.75	17028.86
886.92	16746.24
887.10	17329.91
887.27	16744.19
887.44	16822.02
887.61	17123.07
887.78	16973.56
887.95	17057.53
888.13	16647.94
888.30	16408.33
888.47	16707.33
888.64	16746.24
888.81	16611.07
888.99	16625.41
889.16	16570.12
889.33	16537.35
889.50	16375.56
889.67	16520.96
889.84	16463.62
890.01	16459.52
890.19	16457.48
890.36	16549.64
890.53	16264.97
890.70	16043.79
890.87	16256.78
891.04	16262.92
891.22	16283.40
891.39	16420.61
891.56	16258.82
891.73	16172.81
891.90	15867.66
892.07	15716.11
892.24	16088.84
892.42	15838.99
892.59	15888.14
892.76	16019.21
892.93	15822.61
893.10	15918.86
893.27	15855.37
893.44	15875.85
893.61	15769.36
893.79	16027.40
893.96	15750.93
894.13	15677.20
894.30	15916.81
894.47	15716.11
894.64	15894.29
894.81	15566.61
894.98	15722.26
895.15	15707.92
895.33	15847.18
895.50	15429.40
895.67	15820.56
895.84	15449.88
896.01	15511.32
896.18	15374.10
896.35	15896.33
896.52	15562.51
896.69	15638.29
896.86	15621.91
897.04	15707.92
897.21	15470.36
897.38	15550.23
897.55	15632.15
897.72	15752.98
897.89	15838.99
898.06	15859.47
898.23	15568.66
898.40	15804.17
898.57	15552.27
898.74	15447.83
898.91	15288.09
899.08	15505.17
899.26	15810.32
899.43	15441.68
899.60	15378.20
899.77	15542.03
899.94	15460.12
900.11	15107.87
900.28	15341.33
900.45	15388.44
900.62	15503.12
900.79	15628.05
900.96	15279.89
901.13	15548.18
901.30	15040.28
901.47	15339.29
901.64	15468.31
901.81	15109.91
901.98	15388.44
902.15	15355.67
902.32	15316.76
902.49	15263.51
902.66	15347.48
902.83	15177.50
903.01	15494.93
903.18	15445.78
903.35	15374.10
903.52	15120.15
903.69	15243.03
903.86	15370.01
904.03	15447.83
904.20	15478.55
904.37	15195.93
904.54	15318.81
904.71	15445.78
904.88	15523.60
905.05	15281.94
905.22	15245.08
905.39	15290.13
905.56	15306.52
905.73	15089.43
905.90	15103.77
906.07	15320.85
906.24	15218.46
906.41	15243.03
906.58	15087.39
906.75	15091.48
906.92	15144.73
907.09	15224.60
907.26	15404.82
907.43	15185.69
907.60	15269.66
907.77	15015.71
907.93	15296.28
908.10	15200.02
908.27	15308.57
908.44	15128.35
908.61	15189.78
908.78	15236.89
908.95	15130.39
909.12	15054.62
909.29	14911.26
909.46	15081.24
909.63	15222.55
909.80	15144.73
909.97	14933.79
910.14	14937.88
910.31	15044.38
910.48	14995.23
910.65	14903.07
910.82	14819.10
910.99	14845.73
911.16	15017.75
911.33	15189.78
911.50	14864.16
911.66	14749.47
911.83	14915.36
912.00	14649.12
912.17	14556.96
912.34	14833.44
912.51	14706.46
912.68	14538.53
912.85	14640.93
913.02	14649.12
913.19	14567.20
913.36	14823.20
913.53	14712.61
913.70	14421.80
913.86	14573.35
914.03	14587.68
914.20	14389.03
914.37	14331.69
914.54	14579.49
914.71	14470.95
914.88	14501.67
915.05	14202.66
915.22	14217.00
915.39	14192.42
915.55	14141.22
915.72	14319.40
915.89	14014.25
916.06	13905.71
916.23	14008.11
916.40	14094.12
916.57	14083.88
916.74	13975.34
916.91	14004.01
917.07	13780.78
917.24	13846.32
917.41	13911.85
917.58	13793.07
917.75	13856.56
917.92	13672.24
918.09	13623.09
918.26	13633.33
918.42	13590.32
918.59	13563.70
918.76	13647.66
918.93	13557.55
919.10	13541.17
919.27	13426.48
919.44	13389.62
919.60	13561.65
919.77	13164.34
919.94	13244.21
920.11	13205.30
920.28	13131.58
920.45	13115.19
920.61	13258.55
920.78	12949.31
920.95	13068.09
921.12	13014.84
921.29	12840.76
921.46	12719.93
921.62	12566.34
921.79	12861.24
921.96	12744.51
922.13	12808.00
922.30	12623.68
922.47	12568.38
922.63	12775.23
922.80	12654.40
922.97	12289.86
923.14	12230.47
923.31	12226.37
923.47	12005.19
923.64	12513.09
923.81	12279.62
923.98	12185.41
924.15	12052.30
924.32	12054.34
924.48	12087.11
924.65	12148.55
924.82	11810.64
924.99	11888.46
925.15	11761.48
925.32	11804.49
925.49	11704.14
925.66	11704.14
925.83	11609.93
925.99	11718.48
926.16	11720.53
926.33	11685.71
926.50	11403.09
926.67	11577.17
926.83	11640.65
927.00	11454.29
927.17	11276.12
927.34	11464.53
927.50	11269.97
927.67	11315.03
927.84	11353.94
928.01	11190.10
928.17	10973.02
928.34	10901.34
928.51	10905.43
928.68	10755.93
928.84	10973.02
929.01	10770.27
929.18	10872.67
929.35	10778.46
929.51	10700.64
929.68	10669.92
929.85	10590.05
930.02	10411.87
930.18	10471.26
930.35	10301.28
930.52	10366.82
930.69	10411.87
930.85	10434.40
931.02	10323.81
931.19	10202.98
931.36	10178.40
931.52	10192.74
931.69	10245.99
931.86	10233.70
932.02	10131.30
932.19	10045.29
932.36	10071.91
932.53	9944.94
932.69	9817.96
932.86	9883.50
933.03	9840.49
933.19	9826.15
933.36	9641.84
933.53	9588.59
933.70	9502.58
933.86	9498.48
934.03	9627.50
934.20	9387.89
934.36	9557.87
934.53	9238.39
934.70	9115.51
934.86	9236.34
935.03	8986.49
935.20	9211.76
935.36	8982.39
935.53	8824.70
935.70	8802.17
935.86	8820.60
936.03	8542.08
936.20	8636.28
936.36	8527.74
936.53	8580.99
936.70	8464.25
936.86	8552.32
937.03	8306.56
937.20	8136.58
937.36	8263.55
937.53	7874.44
937.70	7952.26
937.86	7837.58
938.03	7823.24
938.20	7774.09
938.36	7395.22
938.53	7602.06
938.70	7452.56
938.86	7606.16
939.03	7290.77
939.20	7395.22
939.36	7180.18
939.53	7096.21
939.70	7217.04
939.86	6801.30
940.03	6864.79
940.19	6707.10
940.36	6655.90
940.53	6750.10
940.69	6596.51
940.86	6414.24
941.03	6424.48
941.19	6324.13
941.36	6311.84
941.52	6102.95
941.69	6217.63
941.86	6205.35
942.02	6213.54
942.19	6172.58
942.35	6127.52
942.52	5898.15
942.69	6008.74
942.85	5879.72
943.02	5773.22
943.18	5935.01
943.35	5652.39
943.52	5812.14
943.68	5613.48
943.85	5633.96
944.01	5613.48
944.18	5482.41
944.35	5666.73
944.51	5394.35
944.68	5369.77
944.84	5439.40
945.01	5308.34
945.17	5431.21
945.34	5343.15
945.51	5414.83
945.67	5302.19
945.84	5302.19
946.00	5341.10
946.17	5189.55
946.33	5246.90
946.50	5349.29
946.67	5341.10
946.83	5136.31
947.00	5265.33
947.16	5283.76
947.33	5318.57
947.49	5287.86
947.66	5195.70
947.82	5294.00
947.99	5306.29
948.16	5232.56
948.32	5177.26
948.49	5132.21
948.65	5259.18
948.82	5164.98
948.98	5181.36
949.15	5124.02
949.31	5187.50
949.48	5205.94
949.64	5248.94
949.81	5210.03
949.97	5330.86
950.14	5164.98
950.30	5134.26
950.47	5255.09
950.63	5234.61
950.80	5296.05
950.96	5197.74
951.13	5230.51
951.30	5164.98
951.46	5332.91
951.63	5353.39
951.79	5281.71
951.96	5232.56
952.12	5404.59
952.29	5388.21
952.45	5234.61
952.62	5250.99
952.78	5306.29
952.94	5244.85
953.11	5246.90
953.27	5279.66
953.44	5283.76
953.60	5324.72
953.77	5425.07
953.93	5334.96
954.10	5423.02
954.26	5365.68
954.43	5451.69
954.59	5445.55
954.76	5523.37
954.92	5377.97
955.09	5337.01
955.25	5398.45
955.42	5359.53
955.58	5418.93
955.75	5345.20
955.91	5330.86
956.07	5435.31
956.24	5371.82
956.40	5308.34
956.57	5431.21
956.73	5330.86
956.90	5418.93
957.06	5416.88
957.23	5380.01
957.39	5425.07
957.56	5427.12
957.72	5308.34
957.88	5363.63
958.05	5496.75
958.21	5392.30
958.38	5498.80
958.54	5365.68
958.71	5613.48
958.87	5523.37
959.03	5408.69
959.20	5504.94
959.36	5320.62
959.53	5308.34
959.69	5259.18
959.85	5474.22
960.02	5189.55
960.18	5521.32
960.35	5357.49
960.51	5492.65
960.68	5384.11
960.84	5320.62
961.00	5439.40
961.17	5320.62
961.33	5375.92
961.50	5332.91
961.66	5377.97
961.82	5296.05
961.99	5425.07
962.15	5306.29
962.31	5433.26
962.48	5398.45
962.64	5375.92
962.81	5341.10
962.97	5341.10
963.13	5365.68
963.30	5414.83
963.46	5109.68
963.62	5326.77
963.79	5334.96
963.95	5248.94
964.12	5203.89
964.28	5408.69
964.44	5130.16
964.61	5455.79
964.77	5382.06
964.93	5224.37
965.10	5269.42
965.26	5197.74
965.42	5154.74
965.59	5216.18
965.75	5021.62
965.92	5255.09
966.08	5279.66
966.24	5191.60
966.41	5296.05
966.57	5363.63
966.73	5250.99
966.90	5248.94
967.06	5175.22
967.22	5316.53
967.39	5216.18
967.55	5105.59
967.71	5066.67
967.88	5111.73
968.04	5150.64
968.20	5093.30
968.37	5109.68
968.53	5203.89
968.69	5035.96
968.85	5121.97
969.02	5132.21
969.18	5105.59
969.34	5095.35
969.51	5111.73
969.67	5142.45
969.83	5027.76
970.00	5072.82
970.16	5199.79
970.32	5115.83
970.48	5257.14
970.65	4972.47
970.81	4947.89
970.97	4906.93
971.14	4888.50
971.30	4995.00
971.46	4956.08
971.63	4945.84
971.79	4999.09
971.95	4882.36
972.11	4884.41
972.28	4956.08
972.44	4970.42
972.60	4958.13
972.76	4947.89
972.93	4829.11
973.09	4923.32
973.25	4800.44
973.42	4814.77
973.58	4882.36
973.74	4837.30
973.90	4900.79
974.07	4818.87
974.23	4802.49
974.39	4732.86
974.55	4698.04
974.72	4857.78
974.88	4724.66
975.04	4825.01
975.20	4693.94
975.37	4870.07
975.53	4636.60
975.69	4722.62
975.85	4652.98
976.01	4616.12
976.18	4739.00
976.34	4677.56
976.50	4767.67
976.66	4708.28
976.83	4704.18
976.99	4587.45
977.15	4782.01
977.31	4480.96
977.47	4671.42
977.64	4478.91
977.80	4663.22
977.96	4640.70
978.12	4573.11
978.29	4638.65
978.45	4427.71
978.61	4648.89
978.77	4620.22
978.93	4429.76
979.10	4480.96
979.26	4458.43
979.42	4431.80
979.58	4405.18
979.74	4513.72
979.91	4497.34
980.07	4399.04
980.23	4394.94
980.39	4317.12
980.55	4470.72
980.71	4480.96
980.88	4333.50
981.04	4239.30
981.20	4417.47
981.36	4427.71
981.52	4376.51
981.68	4267.97
981.85	4435.90
982.01	4282.30
982.17	4308.93
982.33	4325.31
982.49	4302.78
982.65	4097.99
982.82	4231.10
982.98	4140.99
983.14	4169.66
983.30	4396.99
983.46	4337.60
983.62	4202.43
983.79	4206.53
983.95	4198.34
984.11	4028.35
984.27	4218.82
984.43	4106.18
984.59	4190.14
984.75	4124.61
984.91	4145.09
985.08	4145.09
985.24	4032.45
985.40	4132.80
985.56	4057.03
985.72	4138.94
985.88	4130.75
986.04	4173.76
986.20	4005.83
986.37	4014.02
986.53	3946.44
986.69	4186.05
986.85	4093.89
987.01	3981.25
987.17	4112.32
987.33	4005.83
987.49	3987.40
987.65	4052.93
987.82	4005.83
987.98	3874.76
988.14	3940.29
988.30	3928.00
988.46	3911.62
988.62	4020.16
988.78	3956.68
988.94	3915.72
989.10	3919.81
989.26	3739.59
989.42	3811.27
989.59	3780.55
989.75	3745.73
989.91	3854.28
990.07	3721.16
990.23	3743.69
990.39	3872.71
990.55	3774.41
990.71	3698.63
990.87	3846.09
991.03	3885.00
991.19	3803.08
991.35	3794.89
991.51	3801.03
991.67	3829.70
991.83	3766.21
992.00	3608.52
992.16	3727.30
992.32	3784.65
992.48	3727.30
992.64	3682.25
992.80	3698.63
992.96	3571.66
993.12	3672.01
993.28	3665.86
993.44	3710.92
993.60	3753.93
993.76	3596.23
993.92	3721.16
994.08	3702.73
994.24	3690.44
994.40	3633.10
994.56	3696.58
994.72	3579.85
994.88	3526.60
995.04	3516.36
995.20	3528.65
995.36	3547.08
995.52	3518.41
995.68	3444.68
995.84	3557.32
996.00	3680.20
996.16	3465.16
996.32	3420.11
996.48	3540.94
996.64	3590.09
996.80	3469.26
996.96	3434.44
997.12	3512.27
997.28	3403.72
997.44	3362.76
997.60	3411.92
997.76	3313.61
997.92	3348.43
998.08	3420.11
998.24	3336.14
998.40	3291.09
998.56	3373.00
998.72	3264.46
998.88	3286.99
999.04	3309.52
999.20	3426.25
999.36	3366.86
999.52	3487.69
999.68	3278.80
999.84	3336.14
1000.00	3303.37
1000.16	3383.24
1000.32	3311.57
1000.48	3315.66
1000.64	3114.96
1000.80	3209.17
1000.95	3114.96
1001.11	3250.13
1001.27	3223.50
1001.43	3293.13
1001.59	3076.05
1001.75	3129.30
1001.91	3217.36
1002.07	3176.40
1002.23	3246.03
1002.39	3045.33
1002.55	3196.88
1002.71	3016.66
1002.87	3106.77
1003.03	3063.76
1003.19	3020.75
1003.34	3203.02
1003.50	3104.72
1003.66	3168.21
1003.82	3082.19
1003.98	3168.21
1004.14	3110.86
1004.30	2998.23
1004.46	3045.33
1004.62	3010.51
1004.78	2951.12
1004.94	3090.38
1005.09	3080.14
1005.25	3067.86
1005.41	2979.79
1005.57	2959.31
1005.73	2873.30
1005.89	2895.83
1006.05	2942.93
1006.21	3000.27
1006.37	2928.60
1006.52	2918.36
1006.68	2885.59
1006.84	3014.61
1007.00	2926.55
1007.16	2908.12
1007.32	2881.49
1007.48	2906.07
1007.64	2863.06
1007.79	2813.91
1007.95	2836.44
1008.11	2990.03
1008.27	2838.48
1008.43	2885.59
1008.59	2977.75
1008.75	2920.40
1008.91	2969.55
1009.06	2746.33
1009.22	2803.67
1009.38	2766.81
1009.54	2824.15
1009.70	2686.94
1009.86	2871.25
1010.01	2852.82
1010.17	2709.46
1010.33	2731.99
1010.49	2731.99
1010.65	2828.24
1010.81	2703.32
1010.96	2789.33
1011.12	2678.74
1011.28	2729.94
1011.44	2897.88
1011.60	2738.13
1011.76	2742.23
1011.91	2738.13
1012.07	2666.46
1012.23	2643.93
1012.39	2658.26
1012.55	2721.75
1012.71	2648.02
1012.86	2652.12
1013.02	2693.08
1013.18	2729.94
1013.34	2625.50
1013.50	2658.26
1013.65	2666.46
1013.81	2631.64
1013.97	2617.30
1014.13	2631.64
1014.29	2584.54
1014.44	2623.45
1014.60	2537.43
1014.76	2641.88
1014.92	2619.35
1015.07	2615.26
1015.23	2641.88
1015.39	2559.96
1015.55	2490.33
1015.71	2539.48
1015.86	2553.82
1016.02	2492.38
1016.18	2506.71
1016.34	2551.77
1016.49	2547.67
1016.65	2488.28
1016.81	2549.72
1016.97	2371.55
1017.12	2555.86
1017.28	2377.69
1017.44	2389.98
1017.60	2506.71
1017.75	2461.66
1017.91	2471.90
1018.07	2402.27
1018.23	2543.58
1018.38	2424.80
1018.54	2359.26
1018.70	2346.97
1018.86	2389.98
1019.01	2383.84
1019.17	2381.79
1019.33	2392.03
1019.49	2459.61
1019.64	2424.80
1019.80	2396.12
1019.96	2424.80
1020.12	2467.80
1020.27	2408.41
1020.43	2455.51
1020.59	2473.95
1020.74	2355.16
1020.90	2420.70
1021.06	2326.49
1021.22	2396.12
1021.37	2273.25
1021.53	2318.30
1021.69	2379.74
1021.84	2242.53
1022.00	2248.67
1022.16	2430.94
1022.31	2326.49
1022.47	2295.77
1022.63	2361.31
1022.79	2277.34
1022.94	2338.78
1023.10	2330.59
1023.26	2289.63
1023.41	2301.92
1023.57	2252.77
1023.73	2293.72
1023.88	2306.01
1024.04	2232.29
1024.20	2273.25
1024.35	2211.81
1024.51	2254.81
1024.67	2242.53
1024.82	2283.49
1024.98	2176.99
1025.14	2342.88
1025.29	2199.52
1025.45	2254.81
1025.61	2152.42
1025.76	2117.60
1025.92	2250.72
1026.08	2250.72
1026.23	2263.01
1026.39	2195.42
1026.55	2179.04
1026.70	2179.04
1026.86	2277.34
1027.02	2191.33
1027.17	2207.71
1027.33	2258.91
1027.48	2146.27
1027.64	2047.97
1027.80	2164.70
1027.95	2242.53
1028.11	2125.79
1028.27	2228.19
1028.42	2174.94
1028.58	2064.35
1028.73	2156.51
1028.89	2029.54
1029.05	2252.77
1029.20	2199.52
>>>>>End Processed Spectral Data<<<<<
