SpectraSuite Data File
++++++++++++++++++++++++++++++++++++
Date: Fri Jun 02 14:48:01 CEST 2017
User: INFO_000
Dark Spectrum Present: No
Reference Spectrum Present: No
Number of Sampled Component Spectra: 1
Spectrometers: USB4H00879
Integration Time (usec): 80000 (USB4H00879)
Spectra Averaged: 1 (USB4H00879)
Boxcar Smoothing: 0 (USB4H00879)
Correct for Electrical Dark: No (USB4H00879)
Strobe/Lamp Enabled: No (USB4H00879)
Correct for Detector Non-linearity: No (USB4H00879)
Correct for Stray Light: No (USB4H00879)
Number of Pixels in Processed Spectrum: 3648
>>>>>Begin Processed Spectral Data<<<<<
345.13	1263.60
345.34	1263.60
345.56	1263.60
345.78	1337.32
345.99	1261.55
346.21	1759.21
346.42	1738.73
346.64	1640.42
346.86	1785.83
347.07	1665.00
347.29	1783.78
347.50	1607.66
347.72	1744.87
347.94	1716.20
348.15	1544.17
348.37	1585.13
348.59	1714.15
348.80	1691.62
349.02	1814.50
349.23	1902.56
349.45	1777.64
349.67	1941.47
349.88	1767.40
350.10	1937.38
350.31	1828.84
350.53	1812.45
350.75	2023.39
350.96	1703.91
351.18	1898.47
351.39	1873.89
351.61	1757.16
351.82	1888.23
352.04	1943.52
352.26	1796.07
352.47	1957.86
352.69	1994.72
352.90	1787.88
353.12	1796.07
353.34	1863.65
353.55	1974.24
353.77	1908.71
353.98	1839.08
354.20	1867.75
354.41	1888.23
354.63	1935.33
354.85	2027.49
355.06	1953.76
355.28	1843.17
355.49	1986.53
355.71	1853.41
355.92	1914.85
356.14	1929.19
356.35	1841.12
356.57	1898.47
356.79	1929.19
357.00	1902.56
357.22	2023.39
357.43	1920.99
357.65	1964.00
357.86	1880.04
358.08	1904.61
358.29	1978.34
358.51	1992.67
358.72	1931.23
358.94	1916.90
359.16	1966.05
359.37	1949.67
359.59	1941.47
359.80	1994.72
360.02	1929.19
360.23	2002.91
360.45	2039.78
360.66	2019.30
360.88	1804.26
361.09	1992.67
361.31	1910.75
361.52	1982.43
361.74	2062.30
361.95	2088.93
362.17	1998.82
362.38	2086.88
362.60	2066.40
362.81	1943.52
363.03	1994.72
363.24	1988.58
363.46	2019.30
363.67	2068.45
363.89	1941.47
364.10	2086.88
364.32	1976.29
364.53	2056.16
364.75	1908.71
364.96	1986.53
365.18	2129.89
365.39	1990.63
365.61	1947.62
365.82	2119.65
366.04	2109.41
366.25	1925.09
366.47	2088.93
366.68	2115.55
366.90	1990.63
367.11	2103.26
367.33	2101.22
367.54	2121.70
367.76	1908.71
367.97	2103.26
368.19	1976.29
368.40	2058.21
368.62	2031.58
368.83	2011.11
369.05	2093.02
369.26	2017.25
369.48	2056.16
369.69	1966.05
369.91	1986.53
370.12	2039.78
370.33	2072.54
370.55	2037.73
370.76	1994.72
370.98	2174.94
371.19	2056.16
371.41	2080.74
371.62	2117.60
371.84	2017.25
372.05	2176.99
372.27	2066.40
372.48	2109.41
372.69	2133.98
372.91	2117.60
373.12	2172.89
373.34	2154.46
373.55	2113.50
373.77	2115.55
373.98	2109.41
374.20	2181.09
374.41	2240.48
374.62	2109.41
374.84	2224.09
375.05	2164.70
375.27	2080.74
375.48	2150.37
375.70	2211.81
375.91	2191.33
376.12	2287.58
376.34	2156.51
376.55	2250.72
376.77	2215.90
376.98	2127.84
377.19	2125.79
377.41	2156.51
377.62	2279.39
377.84	2254.81
378.05	2392.03
378.27	2193.37
378.48	2326.49
378.69	2351.07
378.91	2387.93
379.12	2312.16
379.34	2250.72
379.55	2285.53
379.76	2314.20
379.98	2222.05
380.19	2230.24
380.41	2316.25
380.62	2342.88
380.83	2287.58
381.05	2279.39
381.26	2404.32
381.47	2205.66
381.69	2306.01
381.90	2531.29
382.12	2392.03
382.33	2310.11
382.54	2346.97
382.76	2387.93
382.97	2412.51
383.19	2256.86
383.40	2371.55
383.61	2338.78
383.83	2279.39
384.04	2383.84
384.25	2363.36
384.47	2432.99
384.68	2410.46
384.89	2271.20
385.11	2271.20
385.32	2361.31
385.54	2338.78
385.75	2478.04
385.96	2506.71
386.18	2355.16
386.39	2490.33
386.60	2428.89
386.82	2422.75
387.03	2439.13
387.24	2508.76
387.46	2500.57
387.67	2543.58
387.88	2555.86
388.10	2437.08
388.31	2533.34
388.52	2635.74
388.74	2527.19
388.95	2531.29
389.16	2596.82
389.38	2510.81
389.59	2596.82
389.80	2693.08
390.02	2488.28
390.23	2633.69
390.44	2539.48
390.66	2527.19
390.87	2494.43
391.08	2627.54
391.30	2582.49
391.51	2633.69
391.72	2727.89
391.94	2672.60
392.15	2623.45
392.36	2680.79
392.58	2572.25
392.79	2703.32
393.00	2639.83
393.22	2772.95
393.43	2785.24
393.64	2811.86
393.85	2760.66
394.07	2707.41
394.28	2686.94
394.49	2799.57
394.71	2770.90
394.92	2961.36
395.13	2717.65
395.35	2775.00
395.56	2832.34
395.77	2826.20
395.98	2813.91
396.20	2981.84
396.41	2787.29
396.62	2904.02
396.84	2877.40
397.05	2807.77
397.26	2936.79
397.47	3000.27
397.69	2830.29
397.90	3106.77
398.11	2895.83
398.32	2887.64
398.54	2910.16
398.75	2918.36
398.96	3037.14
399.18	3135.44
399.39	2969.55
399.60	3030.99
399.81	3059.67
400.03	3039.19
400.24	3282.89
400.45	2967.51
400.66	3205.07
400.88	3012.56
401.09	3233.74
401.30	3035.09
401.51	3131.34
401.73	3190.74
401.94	3139.54
402.15	3055.57
402.36	3256.27
402.58	3227.60
402.79	3278.80
403.00	3114.96
403.21	3268.56
403.43	3186.64
403.64	3317.71
403.85	3102.67
404.06	3219.41
404.27	3164.11
404.49	3178.45
404.70	3213.26
404.91	3274.70
405.12	3252.17
405.34	3280.85
405.55	3551.18
405.76	3233.74
405.97	3313.61
406.19	3491.79
406.40	3319.76
406.61	3426.25
406.82	3362.76
407.03	3325.90
407.25	3278.80
407.46	3465.16
407.67	3504.07
407.88	3420.11
408.09	3379.15
408.31	3416.01
408.52	3307.47
408.73	3338.19
408.94	3436.49
409.15	3461.07
409.37	3526.60
409.58	3411.92
409.79	3526.60
410.00	3536.84
410.21	3465.16
410.43	3485.64
410.64	3491.79
410.85	3614.66
411.06	3649.48
411.27	3665.86
411.48	3661.77
411.70	3684.30
411.91	3751.88
412.12	3704.78
412.33	3600.33
412.54	3715.02
412.76	3729.35
412.97	3811.27
413.18	3633.10
413.39	3737.54
413.60	3712.97
413.81	3717.06
414.03	3629.00
414.24	3723.21
414.45	3846.09
414.66	3647.43
414.87	3905.48
415.08	3737.54
415.30	3747.78
415.51	3839.94
415.72	3876.80
415.93	3809.22
416.14	3805.13
416.35	3889.09
416.56	3923.91
416.78	3891.14
416.99	3973.06
417.20	3887.04
417.41	3911.62
417.62	3928.00
417.83	4120.51
418.04	3928.00
418.26	3932.10
418.47	4007.87
418.68	4069.31
418.89	4026.31
419.10	4184.00
419.31	3966.92
419.52	4130.75
419.73	4071.36
419.95	4155.33
420.16	4030.40
420.37	4001.73
420.58	4083.65
420.79	4026.31
421.00	4175.81
421.21	4190.14
421.42	4145.09
421.63	4192.19
421.85	4210.62
422.06	4421.56
422.27	4313.02
422.48	4313.02
422.69	4378.56
422.90	4261.82
423.11	4339.65
423.32	4329.41
423.53	4456.38
423.75	4499.39
423.96	4624.31
424.17	4499.39
424.38	4550.59
424.59	4470.72
424.80	4540.35
425.01	4509.63
425.22	4607.93
425.43	4550.59
425.64	4755.38
425.85	4739.00
426.06	4820.92
426.28	4612.03
426.49	4511.68
426.70	4673.46
426.91	4683.70
427.12	4761.53
427.33	4792.25
427.54	4579.26
427.75	4771.77
427.96	4902.84
428.17	4796.34
428.38	4863.93
428.59	5040.05
428.80	4954.04
429.01	4886.45
429.23	4886.45
429.44	5042.10
429.65	5091.25
429.86	5066.67
430.07	4943.80
430.28	4997.04
430.49	5044.15
430.70	5320.62
430.91	5234.61
431.12	5103.54
431.33	5154.74
431.54	5326.77
431.75	5300.14
431.96	5173.17
432.17	5212.08
432.38	5257.14
432.59	5504.94
432.80	5257.14
433.01	5517.23
433.22	5410.73
433.43	5408.69
433.64	5341.10
433.85	5156.79
434.06	5558.19
434.27	5238.70
434.49	5580.71
434.70	5533.61
434.91	5617.58
435.12	5431.21
435.33	5679.02
435.54	5709.74
435.75	5519.28
435.96	5584.81
436.17	5506.99
436.38	5691.31
436.59	5732.26
436.80	5652.39
437.01	6018.98
437.22	5904.29
437.43	5767.08
437.64	5576.62
437.85	5947.30
438.06	5971.88
438.27	5756.84
438.48	5740.46
438.69	5957.54
438.90	5881.77
439.11	5887.91
439.32	6010.79
439.53	5914.53
439.74	6078.37
439.95	5898.15
440.16	6102.95
440.37	6064.04
440.57	5996.45
440.78	6186.91
440.99	6029.22
441.20	6066.08
441.41	6172.58
441.62	6231.97
441.83	5943.21
442.04	6201.25
442.25	6301.60
442.46	6174.63
442.67	6373.28
442.88	6733.72
443.09	6154.15
443.30	6231.97
443.51	6287.26
443.72	6625.18
443.93	6412.19
444.14	6655.90
444.35	6336.42
444.56	6549.40
444.77	6514.59
444.98	6596.51
445.19	6533.02
445.40	6709.15
445.61	6537.12
445.81	6614.94
446.02	6643.61
446.23	6481.82
446.44	6543.26
446.65	6614.94
446.86	6707.10
447.07	6817.69
447.28	6858.65
447.49	6901.65
447.70	6684.57
447.91	6741.91
448.12	6786.97
448.33	6952.85
448.54	6823.83
448.74	6727.58
448.95	6815.64
449.16	6938.52
449.37	7128.98
449.58	7051.16
449.79	7092.12
450.00	7010.20
450.21	7137.17
450.42	7294.86
450.63	7143.32
450.84	7104.40
451.05	7153.55
451.25	7190.42
451.46	7153.55
451.67	7393.17
451.88	7389.07
452.09	7251.86
452.30	7344.02
452.51	7337.87
452.72	7577.48
452.93	7651.21
453.13	7358.35
453.34	7368.59
453.55	7575.44
453.76	7540.62
453.97	7878.54
454.18	7628.68
454.39	7659.40
454.60	7427.98
454.81	7669.64
455.01	8038.28
455.22	7583.63
455.43	7997.32
455.64	7974.79
455.85	7939.97
456.06	8343.42
456.27	8025.99
456.48	7970.69
456.68	7954.31
456.89	8011.65
457.10	8134.53
457.31	8245.12
457.52	8056.71
457.73	8324.99
457.94	8525.69
458.14	8288.13
458.35	8648.57
458.56	8433.54
458.77	8400.77
458.98	8474.49
459.19	8558.46
459.39	8753.02
459.60	8867.70
459.81	8673.15
460.02	8783.74
460.23	8652.67
460.44	8914.81
460.65	8863.61
460.85	8865.66
461.06	8818.55
461.27	8814.46
461.48	9013.11
461.69	9326.45
461.89	8793.98
462.10	9154.42
462.31	9027.45
462.52	9111.41
462.73	9224.05
462.94	9461.62
463.14	9453.42
463.35	9432.94
463.56	9891.69
463.77	9858.92
463.98	9428.85
464.18	9705.32
464.39	9787.24
464.60	10024.81
464.81	9959.27
465.02	9906.02
465.23	9953.13
465.43	9740.14
465.64	10172.26
465.85	9979.75
466.06	9883.50
466.27	10342.24
466.47	10168.16
466.68	10313.57
466.89	10262.37
467.10	10354.53
467.30	10198.88
467.51	10717.02
467.72	10604.38
467.93	10229.60
468.14	10516.32
468.34	10866.52
468.55	10712.92
468.76	10866.52
468.97	10723.16
469.17	10962.78
469.38	10985.30
469.59	11214.68
469.80	10960.73
470.01	11085.65
470.21	11335.51
470.42	11462.48
470.63	11452.24
470.84	11255.64
471.04	11650.89
471.25	11523.92
471.46	11695.95
471.67	11962.19
471.87	11671.37
472.08	11773.77
472.29	12062.54
472.50	11577.17
472.70	11913.03
472.91	12146.50
473.12	12336.96
473.33	12431.17
473.53	12375.88
473.74	12379.97
473.95	12515.14
474.16	12914.49
474.36	12967.74
474.57	12891.96
474.78	13125.43
474.99	12928.83
475.19	12877.63
475.40	13020.99
475.61	13102.90
475.81	13309.75
476.02	13596.46
476.23	13516.59
476.44	13440.82
476.64	13741.87
476.85	13942.57
477.06	13713.20
477.27	14028.59
477.47	14120.74
477.68	13985.58
477.89	14495.52
478.09	14288.68
478.30	14534.43
478.51	14530.34
478.71	14610.21
478.92	14669.60
479.13	14915.36
479.34	15046.43
479.54	14964.51
479.75	15111.96
479.96	15064.86
480.16	15136.54
480.37	15361.81
480.58	15449.88
480.78	15757.07
480.99	15595.28
481.20	15892.24
481.41	15761.17
481.61	16150.28
481.82	16105.23
482.03	15767.31
482.23	15845.13
482.44	16189.19
482.65	16412.42
482.85	16496.39
483.06	16729.86
483.27	16647.94
483.47	16652.03
483.68	16695.04
483.89	16994.04
484.09	16979.71
484.30	17174.27
484.51	17569.52
484.71	17278.71
484.92	17495.80
485.13	17626.87
485.33	17628.92
485.54	17473.27
485.75	17747.70
485.95	17870.58
486.16	18116.33
486.37	18280.17
486.57	18243.31
486.78	18163.43
486.98	18427.62
487.19	18657.00
487.40	18685.67
487.60	18536.17
487.81	18747.11
488.02	18706.15
488.22	19103.45
488.43	19048.16
488.64	18931.42
488.84	18994.91
489.05	19396.31
489.25	19357.40
489.46	19637.97
489.67	19234.52
489.87	19775.19
490.08	19674.84
490.29	19850.96
490.49	20246.22
490.70	20008.65
490.90	20057.81
491.11	20057.81
491.32	20088.53
491.52	20248.27
491.73	20424.39
491.94	20582.09
492.14	20365.00
492.35	21001.92
492.55	21057.21
492.76	20885.19
492.97	20995.78
493.17	21225.15
493.38	21370.55
493.58	21644.98
493.79	21190.33
494.00	21311.16
494.20	21567.16
494.41	21632.69
494.61	22095.53
494.82	21808.82
495.02	21870.26
495.23	21767.86
495.44	22124.21
495.64	22628.01
495.85	22032.05
496.05	22531.75
496.26	22300.33
496.47	22869.67
496.67	22677.16
496.88	22642.34
497.08	22597.29
497.29	22617.77
497.49	22802.08
497.70	23088.80
497.91	23029.41
498.11	23064.22
498.32	23277.21
498.52	23252.64
498.73	23547.54
498.93	23565.98
499.14	23445.15
499.34	23813.78
499.55	23774.87
499.76	23834.26
499.96	24032.91
500.17	23760.53
500.37	23922.32
500.58	24037.01
500.78	23961.23
500.99	24454.79
501.19	24450.70
501.40	24379.02
501.60	24030.87
501.81	24368.78
502.02	24774.28
502.22	24252.05
502.43	24637.06
502.63	25087.62
502.84	25116.29
503.04	24874.63
503.25	25136.77
503.45	25065.09
503.66	25099.90
503.86	25118.34
504.07	25480.83
504.27	25171.58
504.48	25542.27
504.68	25529.98
504.89	25845.37
505.09	25636.47
505.30	25792.12
505.50	25650.81
505.71	25751.16
505.91	25593.47
506.12	25798.26
506.32	26107.51
506.53	25960.05
506.73	26146.42
506.94	26283.63
507.14	26502.76
507.35	26441.32
507.55	26300.01
507.76	26363.50
507.96	26205.81
508.17	26609.26
508.37	26672.74
508.58	26605.16
508.78	26887.78
508.99	26914.41
509.19	26981.99
509.40	27063.91
509.60	26979.94
509.81	27311.71
510.01	26912.36
510.22	26965.60
510.42	26957.41
510.63	27493.98
510.83	27414.11
511.04	27025.00
511.24	27426.40
511.44	27442.78
511.65	27692.63
511.85	27655.77
512.06	28040.79
512.26	27967.06
512.47	28145.23
512.67	27891.29
512.88	27749.98
513.08	27846.23
513.29	28388.94
513.49	28040.79
513.69	28122.71
513.90	28175.95
514.10	27907.67
514.31	28067.41
514.51	28528.20
514.72	28278.35
514.92	28214.87
515.13	28356.18
515.33	28503.63
515.53	28663.37
515.74	28581.45
515.94	28665.42
516.15	28778.06
516.35	28776.01
516.56	28835.40
516.76	28927.56
516.96	29038.15
517.17	29003.33
517.37	28837.45
517.58	29226.56
517.78	29351.49
517.99	29451.84
518.19	29486.65
518.39	29355.58
518.60	29427.26
518.80	29429.31
519.01	29822.52
519.21	29765.18
519.41	29732.41
519.62	29834.81
519.82	29992.50
520.03	30039.61
520.23	29802.04
520.43	30000.69
520.64	30494.25
520.84	30244.40
521.05	30398.00
521.25	30443.06
521.45	30426.67
521.66	30567.98
521.86	30557.74
522.07	30389.81
522.27	30584.37
522.47	30608.94
522.68	31084.07
522.88	30692.91
523.08	31000.10
523.29	31133.22
523.49	31245.86
523.70	31254.05
523.90	31565.34
524.10	31481.38
524.31	31516.19
524.51	31333.92
524.71	31837.72
524.92	31817.24
525.12	31938.07
525.33	31741.47
525.53	32220.69
525.73	32321.04
525.94	32486.93
526.14	32417.30
526.34	32257.56
526.55	32417.30
526.75	32316.95
526.95	33039.88
527.16	33005.06
527.36	32628.24
527.56	33056.26
527.77	33254.92
527.97	32902.67
528.17	33068.55
528.38	33238.53
528.58	33146.37
528.78	33250.82
528.99	33046.02
529.19	33773.05
529.39	33025.54
529.60	33728.00
529.80	33711.61
530.00	33650.17
530.21	33893.88
530.41	33938.94
530.61	34153.97
530.82	33936.89
531.02	34088.44
531.22	34526.71
531.43	34246.13
531.63	34754.03
531.83	34854.38
532.04	35098.09
532.24	34510.32
532.44	35266.02
532.64	35538.40
532.85	35616.22
533.05	35116.52
533.25	34985.45
533.46	35272.17
533.66	35749.34
533.86	35886.56
534.07	35782.11
534.27	35841.50
534.47	36003.29
534.67	36070.87
534.88	35841.50
535.08	36285.91
535.28	36359.64
535.49	36298.20
535.69	36920.78
535.89	36795.85
536.09	36787.66
536.30	36871.63
536.50	37098.95
536.70	37387.72
536.91	36775.37
537.11	37234.12
537.31	37389.77
537.51	37240.26
537.72	37479.88
537.92	37680.58
538.12	37995.96
538.32	37555.65
538.53	38073.79
538.73	37709.25
538.93	37758.40
539.13	38139.32
539.34	38053.31
539.54	37598.66
539.74	38395.32
539.94	38180.28
540.15	37983.68
540.35	39007.66
540.55	38655.41
540.75	38313.40
540.96	38563.25
541.16	38641.07
541.36	38999.47
541.56	38974.89
541.77	39155.11
541.97	39216.55
542.17	39165.35
542.37	39120.30
542.58	39388.58
542.78	39302.57
542.98	39376.30
543.18	39480.74
543.38	39912.86
543.59	39974.30
543.79	39726.50
543.99	39732.64
544.19	39798.18
544.40	39828.90
544.60	40332.70
544.80	40021.41
545.00	39916.96
545.20	40453.53
545.41	40543.64
545.61	40234.39
545.81	40613.27
546.01	40490.39
546.21	40942.99
546.42	40617.36
546.62	40777.11
546.82	40697.24
547.02	40711.57
547.22	40687.00
547.43	40748.43
547.63	41006.48
547.83	41012.62
548.03	40867.22
548.23	41594.25
548.44	41196.94
548.64	41436.55
548.84	41391.50
549.04	41633.16
549.24	41661.83
549.45	41792.90
549.65	41516.42
549.85	41700.74
550.05	41983.36
550.25	41616.77
550.45	42317.18
550.66	41627.01
550.86	41919.87
551.06	42079.61
551.26	42024.32
551.46	42364.28
551.66	42098.05
551.87	42173.82
552.07	42333.56
552.27	42526.07
552.47	42356.09
552.67	42618.23
552.87	42296.70
553.07	42591.61
553.28	43005.30
553.48	42667.38
553.68	42096.00
553.88	43027.82
554.08	43105.65
554.28	43115.89
554.48	42784.12
554.69	42939.76
554.89	42806.64
555.09	43091.31
555.29	43081.07
555.49	43009.39
555.69	42980.72
555.89	43611.49
556.10	43218.28
556.30	43222.38
556.50	43568.49
556.70	43218.28
556.90	43402.60
557.10	44035.42
557.30	43320.68
557.50	43746.66
557.70	43740.52
557.91	44113.25
558.11	43591.01
558.31	43873.63
558.51	43717.99
558.71	44285.28
558.91	43943.27
559.11	43795.81
559.31	43619.69
559.51	43791.72
559.72	43937.12
559.92	44242.27
560.12	43980.13
560.32	44154.21
560.52	44258.65
560.72	44471.64
560.92	44762.45
561.12	44316.00
561.32	44784.98
561.52	44117.34
561.72	44997.97
561.93	44580.18
562.13	44490.07
562.33	44379.48
562.53	44834.13
562.73	44363.10
562.93	44748.12
563.13	44918.10
563.33	44569.94
563.53	45094.22
563.73	44580.18
563.93	44891.48
564.13	45036.88
564.33	44840.28
564.53	44776.79
564.74	44920.15
564.94	44991.83
565.14	45170.00
565.34	45065.55
565.54	45106.51
565.74	45413.71
565.94	45335.88
566.14	44995.92
566.34	45448.52
566.54	45651.27
566.74	45213.01
566.94	45667.66
567.14	45643.08
567.34	45163.85
567.54	46236.99
567.74	45546.82
567.94	45253.97
568.14	45499.72
568.34	46021.95
568.54	45833.54
568.74	46394.68
568.94	45774.15
569.14	45972.80
569.34	46185.79
569.54	46304.57
569.75	45921.60
569.95	46105.92
570.15	46028.10
570.35	46112.06
570.55	46282.05
570.75	46241.09
570.95	46148.93
571.15	46333.24
571.35	46224.70
571.55	46814.52
571.75	46449.98
571.95	46355.77
572.15	46581.05
572.35	46882.10
572.55	46519.61
572.75	46806.33
572.95	46523.71
573.15	46503.23
573.35	46953.78
573.55	47045.94
573.75	46878.00
573.95	47070.51
574.15	46789.94
574.35	47086.90
574.55	47232.30
574.75	46865.72
574.95	47537.45
575.15	46781.75
575.34	47410.48
575.54	47500.59
575.74	47314.22
575.94	46888.24
576.14	47525.16
576.34	47818.02
576.54	47727.91
576.74	47367.47
576.94	47619.37
577.14	47828.26
577.34	47990.05
577.54	47818.02
577.74	47699.24
577.94	47887.65
578.14	47924.52
578.34	48086.31
578.54	47387.95
578.74	47842.60
578.94	48217.38
579.14	47791.40
579.34	47760.68
579.54	48086.31
579.74	48823.58
579.94	48604.44
580.13	48923.93
580.33	48817.43
580.53	48889.11
580.73	48739.61
580.93	48721.18
581.13	48868.63
581.33	48792.86
581.53	48805.14
581.73	49007.89
581.93	49325.33
582.13	48909.59
582.33	49388.81
582.53	48942.36
582.73	49194.26
582.92	49145.11
583.12	49179.92
583.32	48948.50
583.52	48979.22
583.72	49341.71
583.92	49501.45
584.12	49366.29
584.32	49960.20
584.52	49167.63
584.72	49820.94
584.92	49947.91
585.11	50212.10
585.31	50279.68
585.51	50205.95
585.71	49935.62
585.91	50527.48
586.11	50058.50
586.31	50027.78
586.51	49849.61
586.71	50226.43
586.91	50640.12
587.10	50486.53
587.30	50588.92
587.50	50390.27
587.70	50664.70
587.90	50572.54
588.10	50513.15
588.30	50597.12
588.50	50801.91
588.69	50758.91
588.89	50468.09
589.09	50629.88
589.29	50824.44
589.49	51141.88
589.69	51057.91
589.89	50769.15
590.08	50660.60
590.28	50959.61
590.48	51252.47
590.68	50529.53
590.88	51238.13
591.08	51377.39
591.28	51225.84
591.47	51809.51
591.67	51313.90
591.87	51469.55
592.07	51379.44
592.27	51229.94
592.47	51250.42
592.67	51371.25
592.86	51385.58
593.06	51711.21
593.26	51743.98
593.46	52215.01
593.66	51877.10
593.86	51881.19
594.05	52079.85
594.25	51690.73
594.45	51565.81
594.65	52067.56
594.85	51635.44
595.05	52280.55
595.24	52176.10
595.44	52417.76
595.64	52475.10
595.84	52298.98
596.04	52729.05
596.23	52276.45
596.43	52741.34
596.63	52655.32
596.83	52772.06
597.03	53150.93
597.22	52700.38
597.42	52638.94
597.62	53005.53
597.82	52784.35
598.02	52929.75
598.21	53523.66
598.41	52708.57
598.61	53398.74
598.81	53228.76
599.01	53212.37
599.20	53234.90
599.40	52559.07
599.60	53408.98
599.80	53560.53
600.00	53437.65
600.19	53736.65
600.39	53359.83
600.59	54078.66
600.79	53515.47
600.98	53937.35
601.18	53933.26
601.38	53687.50
601.58	54129.86
601.78	54054.09
601.97	53826.76
602.17	54328.52
602.37	54246.60
602.57	54133.96
602.76	54654.14
602.96	53882.06
603.16	54277.32
603.36	54500.54
603.55	54463.68
603.75	54441.15
603.95	54846.65
604.15	54983.86
604.34	54674.62
604.54	54664.38
604.74	54617.28
604.94	54783.16
605.13	54899.90
605.33	55080.12
605.53	54338.75
605.73	54932.67
605.92	54676.67
606.12	55262.39
606.32	55229.62
606.52	55098.55
606.71	54912.19
606.91	55483.57
607.11	54957.24
607.30	55524.53
607.50	55194.81
607.70	55342.26
607.90	55502.00
608.09	55581.87
608.29	55542.96
608.49	55825.58
608.68	55669.93
608.88	55588.02
609.08	55923.88
609.28	55553.20
609.47	55344.31
609.67	56163.50
609.87	55817.39
610.06	56452.26
610.26	55665.84
610.46	55899.31
610.66	55712.94
610.85	56183.97
611.05	55332.02
611.25	56243.37
611.44	56196.26
611.64	55952.55
611.84	55938.22
612.03	55952.55
612.23	55923.88
612.43	56120.49
612.62	56095.91
612.82	56386.72
613.02	56028.33
613.21	56140.97
613.41	55995.56
613.61	56087.72
613.80	55878.83
614.00	56366.24
614.20	56343.72
614.39	56480.93
614.59	56288.42
614.79	55981.23
614.98	55690.41
615.18	56200.36
615.38	56476.83
615.57	56288.42
615.77	56730.78
615.97	56622.24
616.16	56253.61
616.36	56294.56
616.56	56499.36
616.75	56374.44
616.95	56345.76
617.15	56296.61
617.34	55841.96
617.54	56478.88
617.74	56698.01
617.93	56730.78
618.13	56042.66
618.32	56253.61
618.52	56560.80
618.72	56292.52
618.91	56607.90
619.11	56491.17
619.31	56194.21
619.50	56482.98
619.70	56052.90
619.90	56577.18
620.09	56188.07
620.29	56411.30
620.48	56310.95
620.68	57177.24
620.88	56550.56
621.07	56249.51
621.27	56372.39
621.46	56259.75
621.66	56560.80
621.86	56345.76
622.05	55893.16
622.25	56368.29
622.44	55768.24
622.64	56231.08
622.84	56335.52
623.03	56612.00
623.23	56288.42
623.42	56106.15
623.62	56571.04
623.82	56919.20
624.01	56216.74
624.21	56796.32
624.40	56515.75
624.60	56480.93
624.80	55952.55
624.99	56407.20
625.19	56151.21
625.38	56495.27
625.58	56595.62
625.77	56206.50
625.97	56177.83
626.17	56204.45
626.36	55973.03
626.56	56245.41
626.75	56020.14
626.95	56507.55
627.14	56210.60
627.34	56394.92
627.54	56489.12
627.73	56155.30
627.93	56843.42
628.12	56403.11
628.32	56638.62
628.51	56958.11
628.71	56218.79
628.90	56612.00
629.10	56267.94
629.30	56474.79
629.49	56597.66
629.69	56280.23
629.88	56134.82
630.08	56999.07
630.27	56452.26
630.47	56315.04
630.66	56317.09
630.86	57017.50
631.05	55952.55
631.25	57037.98
631.44	56749.21
631.64	56407.20
631.84	56763.55
632.03	57173.14
632.23	56497.31
632.42	56749.21
632.62	56851.61
632.81	56984.73
633.01	56552.61
633.20	57130.14
633.40	56868.00
633.59	56970.39
633.79	56186.02
633.98	56999.07
634.18	56902.81
634.37	56753.31
634.57	56978.59
634.76	56958.11
634.96	56550.56
635.15	57132.18
635.35	56179.88
635.54	56579.23
635.74	56902.81
635.93	56882.33
636.13	57087.13
636.32	56816.80
636.52	56343.72
636.71	56538.27
636.91	56704.16
637.10	56882.33
637.30	56728.73
637.49	56833.18
637.69	56439.97
637.88	57123.99
638.08	57040.03
638.27	57207.96
638.46	56876.19
638.66	56753.31
638.85	57269.40
639.05	57017.50
639.24	57277.59
639.44	57050.27
639.63	57300.12
639.83	56931.48
640.02	57132.18
640.22	56622.24
640.41	57119.90
640.61	56597.66
640.80	57676.94
640.99	56980.63
641.19	57242.77
641.38	56882.33
641.58	56804.51
641.77	57136.28
641.97	57013.40
642.16	57062.55
642.36	57431.19
642.55	57855.12
642.74	56581.28
642.94	57554.07
643.13	57132.18
643.33	57470.10
643.52	57623.70
643.72	57619.60
643.91	57267.35
644.10	57490.58
644.30	57463.96
644.49	57595.03
644.69	57556.11
644.88	57453.72
645.08	57398.42
645.27	57705.62
645.46	57267.35
645.66	57238.68
645.85	57377.94
646.05	57330.84
646.24	57513.11
646.43	57937.04
646.63	57795.73
646.82	57902.22
647.02	57640.08
647.21	57689.23
647.40	57382.04
647.60	57365.65
647.79	57834.64
647.99	58170.50
648.18	57509.01
648.37	58037.39
648.57	57701.52
648.76	57646.22
648.96	57402.52
649.15	58344.58
649.34	57638.03
649.54	58000.52
649.73	57959.56
649.92	58217.61
650.12	57742.48
650.31	58080.39
650.51	57580.69
650.70	58055.82
650.89	57937.04
651.09	58991.74
651.28	57808.01
651.47	58195.08
651.67	58274.95
651.86	58549.38
652.06	57783.44
652.25	58260.62
652.44	58002.57
652.64	58268.81
652.83	57578.64
653.02	57709.71
653.22	58358.92
653.41	57828.49
653.60	58176.65
653.80	58190.98
653.99	58299.53
654.18	58285.19
654.38	58324.10
654.57	58385.54
654.76	57928.84
654.96	57865.36
655.15	58156.17
655.34	58219.66
655.54	58006.67
655.73	58506.37
655.92	58178.70
656.12	58664.06
656.31	57777.29
656.50	58473.60
656.70	58369.16
656.89	58195.08
657.08	58451.08
657.28	58027.15
657.47	58440.84
657.66	58430.60
657.86	58156.17
658.05	58479.75
658.24	58416.26
658.43	57947.28
658.63	58883.20
658.82	58588.29
659.01	58348.68
659.21	58623.11
659.40	58258.57
659.59	58066.06
659.79	58401.92
659.98	58258.57
660.17	58424.45
660.36	57996.43
660.56	58477.70
660.75	58295.43
660.94	58147.98
661.14	58504.32
661.33	58231.94
661.52	57830.54
661.71	59141.24
661.91	58147.98
662.10	58360.97
662.29	58727.55
662.49	58578.05
662.68	58780.80
662.87	58289.29
663.06	58434.69
663.26	58360.97
663.45	58655.87
663.64	58641.54
663.83	58911.87
664.03	58569.86
664.22	58385.54
664.41	58590.34
664.60	58375.30
664.80	58322.05
664.99	58651.78
665.18	58317.96
665.37	58336.39
665.57	58938.49
665.76	58358.92
665.95	58561.67
666.14	58457.22
666.34	58655.87
666.53	58748.03
666.72	58463.36
666.91	58709.12
667.11	58141.83
667.30	58553.47
667.49	58760.32
667.68	58729.60
667.87	58123.40
668.07	58696.83
668.26	58504.32
668.45	58768.51
668.64	58467.46
668.84	59442.29
669.03	59028.60
669.22	58911.87
669.41	58502.28
669.60	58768.51
669.80	58221.70
669.99	58541.19
670.18	58553.47
670.37	58311.81
670.57	58741.89
670.76	58293.38
670.95	58545.28
671.14	58291.33
671.33	58225.80
671.53	58942.59
671.72	58737.79
671.91	58580.10
672.10	58487.94
672.29	58684.54
672.48	58862.72
672.68	58881.15
672.87	58657.92
673.06	58209.42
673.25	58266.76
673.44	58342.53
673.64	58311.81
673.83	58315.91
674.02	58414.21
674.21	58399.88
674.40	58440.84
674.59	57900.17
674.79	58506.37
674.98	58096.78
675.17	58500.23
675.36	58406.02
675.55	58571.91
675.74	58143.88
675.94	58162.31
676.13	58338.44
676.32	58338.44
676.51	58430.60
676.70	58283.14
676.89	58696.83
677.08	58586.24
677.28	58049.67
677.47	58778.75
677.66	58619.01
677.85	58139.78
678.04	58512.52
678.23	58377.35
678.42	58266.76
678.62	58082.44
678.81	58567.81
679.00	58115.21
679.19	58721.41
679.38	58412.16
679.57	58342.53
679.76	58414.21
679.96	58078.35
680.15	58029.19
680.34	58391.68
680.53	58487.94
680.72	58252.42
680.91	58410.12
681.10	58109.07
681.29	58391.68
681.48	58143.88
681.68	57908.36
681.87	58082.44
682.06	57922.70
682.25	58033.29
682.44	58055.82
682.63	58168.46
682.82	57746.57
683.01	57814.16
683.20	57840.78
683.39	58039.43
683.59	57844.88
683.78	57797.77
683.97	57871.50
684.16	58061.96
684.35	58084.49
684.54	57808.01
684.73	57834.64
684.92	57261.21
685.11	57701.52
685.30	57328.79
685.49	57861.26
685.69	57365.65
685.88	57752.72
686.07	57654.42
686.26	57463.96
686.45	57906.32
686.64	57496.72
686.83	57359.51
687.02	57775.25
687.21	58016.91
687.40	57287.83
687.59	57220.25
687.78	57406.61
687.97	57414.80
688.16	57572.50
688.35	57291.93
688.54	57281.69
688.74	58016.91
688.93	57263.25
689.12	57265.30
689.31	57488.53
689.50	57627.79
689.69	57203.86
689.88	56786.08
690.07	57160.86
690.26	57226.39
690.45	57556.11
690.64	57171.10
690.83	57138.33
691.02	56409.25
691.21	57138.33
691.40	56382.63
691.59	57357.46
691.78	56964.25
691.97	56691.87
692.16	56865.95
692.35	57068.70
692.54	56800.41
692.73	57156.76
692.92	57261.21
693.11	57023.64
693.30	56693.92
693.49	56773.79
693.68	56741.02
693.87	56861.85
694.06	56829.08
694.25	56839.32
694.44	56558.75
694.63	56806.56
694.82	57072.79
695.01	56536.23
695.20	56190.12
695.39	56548.51
695.58	56726.69
695.77	56288.42
695.96	55950.51
696.15	56818.84
696.34	56581.28
696.53	56265.89
696.72	56079.53
696.91	56343.72
697.10	56349.86
697.29	56226.98
697.48	56448.16
697.67	55919.79
697.86	55809.20
698.05	55745.71
698.24	56251.56
698.43	55493.81
698.62	56065.19
698.81	55858.35
699.00	56079.53
699.19	55733.42
699.38	55624.88
699.57	55458.99
699.76	56274.09
699.95	55383.22
700.14	55534.77
700.32	56151.21
700.51	55583.92
700.70	56073.38
700.89	56009.90
701.08	55809.20
701.27	55174.33
701.46	55860.40
701.65	55499.95
701.84	55899.31
702.03	55571.63
702.22	55018.68
702.41	55352.50
702.60	55293.11
702.79	55647.41
702.98	55342.26
703.17	55297.20
703.35	55045.30
703.54	55221.43
703.73	55358.64
703.92	55350.45
704.11	55030.97
704.30	55096.50
704.49	54846.65
704.68	55145.65
704.87	54871.23
705.06	54777.02
705.25	55235.77
705.43	54979.77
705.62	55096.50
705.81	55076.02
706.00	55063.74
706.19	54680.77
706.38	54908.09
706.57	55096.50
706.76	54713.53
706.95	54805.69
707.14	54502.59
707.32	54762.68
707.51	54723.77
707.70	54482.11
707.89	54834.36
708.08	54310.08
708.27	54537.41
708.46	54928.57
708.65	54613.18
708.84	54410.43
709.02	54510.78
709.21	54404.29
709.40	54451.39
709.59	54539.46
709.78	54164.68
709.97	54400.19
710.16	54187.21
710.34	54027.46
710.53	54232.26
710.72	54052.04
710.91	54324.42
711.10	54095.05
711.29	54195.40
711.48	54103.24
711.66	54056.14
711.85	53744.84
712.04	54011.08
712.23	53785.80
712.42	53900.49
712.61	54334.66
712.80	53667.02
712.98	54039.75
713.17	53601.49
713.36	53523.66
713.55	53507.28
713.74	53613.77
713.93	53771.47
714.11	53394.64
714.30	53316.82
714.49	53642.45
714.68	53841.10
714.87	53400.79
715.06	53691.60
715.24	53372.11
715.43	53290.19
715.62	53095.64
715.81	53005.53
716.00	53570.77
716.18	52864.22
716.37	53073.11
716.56	52802.78
716.75	53335.25
716.94	53017.82
717.12	52677.85
717.31	53304.53
717.50	52878.55
717.69	53042.39
717.88	53202.13
718.06	52976.86
718.25	53148.88
718.44	52262.11
718.63	52706.52
718.82	52397.28
719.00	52403.42
719.19	52307.17
719.38	52647.13
719.57	52008.17
719.76	51791.08
719.94	52163.81
720.13	52042.98
720.32	51930.34
720.51	52063.46
720.69	51889.38
720.88	52042.98
721.07	51774.70
721.26	51778.79
721.44	52016.36
721.63	51264.75
721.82	51623.15
722.01	51672.30
722.20	51832.04
722.38	51197.17
722.57	51221.75
722.76	51195.12
722.95	51660.01
723.13	51453.17
723.32	51387.63
723.51	51250.42
723.70	51127.54
723.88	50861.30
724.07	50676.99
724.26	50486.53
724.44	50545.92
724.63	51041.53
724.82	50607.36
725.01	50832.63
725.19	50504.96
725.38	50314.50
725.57	50699.51
725.76	50912.50
725.94	50359.55
726.13	50136.32
726.32	50400.51
726.51	50416.89
726.69	50488.57
726.88	50226.43
727.07	50453.76
727.25	50203.91
727.44	50156.80
727.63	50164.99
727.82	50416.89
728.00	50218.24
728.19	50369.79
728.38	50898.17
728.56	50423.04
728.75	50484.48
728.94	50431.23
729.12	50101.51
729.31	50097.41
729.50	49831.18
729.69	50294.02
729.87	50283.78
730.06	50177.28
730.25	49943.81
730.43	50208.00
730.62	50023.68
730.81	50027.78
730.99	50091.27
731.18	49960.20
731.37	50343.17
731.55	50230.53
731.74	50705.66
731.93	50156.80
732.11	50359.55
732.30	50242.82
732.49	49943.81
732.67	50060.55
732.86	50285.82
733.05	49702.15
733.23	49626.38
733.42	50097.41
733.61	49886.47
733.79	49845.51
733.98	50214.15
734.17	49808.65
734.35	49831.18
734.54	49882.37
734.73	49634.57
734.91	50500.86
735.10	49681.67
735.29	49857.80
735.47	49397.01
735.66	49702.15
735.84	49526.03
736.03	49233.17
736.22	49638.67
736.40	49763.59
736.59	49696.01
736.78	49599.76
736.96	49595.66
737.15	49386.77
737.33	49747.21
737.52	49200.40
737.71	49495.31
737.89	49358.09
738.08	49413.39
738.27	49227.02
738.45	49587.47
738.64	48993.56
738.82	48952.60
739.01	49167.63
739.20	49100.05
739.38	49306.90
739.57	49431.82
739.75	49190.16
739.94	48928.02
740.13	49362.19
740.31	48755.99
740.50	48979.22
740.68	49329.42
740.87	49157.39
741.06	49470.73
741.24	48815.38
741.43	48991.51
741.61	48839.96
741.80	48526.62
741.99	48581.91
742.17	48770.33
742.36	48719.13
742.54	48799.00
742.73	48727.32
742.91	48770.33
743.10	48669.98
743.29	48989.46
743.47	48835.86
743.66	48741.66
743.84	48895.25
744.03	48839.96
744.21	48645.40
744.40	48907.54
744.59	48428.32
744.77	48323.87
744.96	48092.45
745.14	48221.47
745.33	48211.23
745.51	48149.79
745.70	48512.28
745.88	48274.72
746.07	48061.73
746.26	47762.73
746.44	48215.33
746.63	47908.13
746.81	48016.68
747.00	47410.48
747.18	48200.99
747.37	48055.59
747.55	47762.73
747.74	48194.85
747.92	47813.93
748.11	47723.82
748.29	47656.23
748.48	47942.95
748.66	47775.02
748.85	47844.65
749.03	47736.10
749.22	47908.13
749.41	47543.59
749.59	47904.04
749.78	47641.90
749.96	46878.00
750.15	47363.37
750.33	47533.35
750.52	47789.35
750.70	47815.97
750.89	47301.93
751.07	47473.96
751.26	47207.73
751.44	47035.70
751.63	46863.67
751.81	46966.07
752.00	46912.82
752.18	47371.57
752.37	46896.44
752.55	46593.34
752.74	46675.26
752.92	46810.42
753.10	46638.39
753.29	46714.17
753.47	46648.63
753.66	46456.12
753.84	46994.74
754.03	46910.77
754.21	46173.50
754.40	46761.27
754.58	46798.13
754.77	46259.52
754.95	46122.30
755.14	46568.76
755.32	46581.05
755.51	46058.82
755.69	46331.20
755.88	46021.95
756.06	46421.31
756.24	46333.24
756.43	46069.06
756.61	46036.29
756.80	46378.30
756.98	45993.28
757.17	45759.81
757.35	46159.17
757.54	45684.04
757.72	46105.92
757.90	45962.56
758.09	45886.79
758.27	45614.41
758.46	45626.70
758.64	45569.35
758.83	45950.27
759.01	45587.78
759.19	45843.78
759.38	45413.71
759.56	46007.62
759.75	45434.19
759.93	45335.88
760.12	45352.27
760.30	45475.15
760.48	45479.24
760.67	45327.69
760.85	45669.70
761.04	45802.82
761.22	45675.85
761.40	45555.02
761.59	45442.38
761.77	44930.39
761.96	44997.97
762.14	44799.32
762.32	44965.20
762.51	44805.46
762.69	44961.11
762.88	45047.12
763.06	45208.91
763.24	44973.39
763.43	44791.12
763.61	44594.52
763.80	44854.61
763.98	44461.40
764.16	44565.85
764.35	44309.85
764.53	44215.65
764.72	44404.06
764.90	44180.83
765.08	44318.04
765.27	44006.75
765.45	43851.11
765.63	44129.63
765.82	44307.80
766.00	43744.61
766.18	44131.68
766.37	44103.01
766.55	43713.89
766.74	43844.96
766.92	43466.09
767.10	43658.60
767.29	43832.68
767.47	43445.61
767.65	43652.45
767.84	43765.09
768.02	43824.48
768.20	43443.56
768.39	43810.15
768.57	43408.75
768.75	43611.49
768.94	43275.63
769.12	43240.81
769.30	43234.67
769.49	43156.85
769.67	42939.76
769.85	42581.37
770.04	43228.52
770.22	42841.46
770.40	42878.32
770.59	42763.64
770.77	43314.54
770.95	43117.93
771.14	42366.33
771.32	42599.80
771.50	42139.00
771.69	42892.66
771.87	43097.45
772.05	42827.12
772.24	42163.58
772.42	42534.26
772.60	42481.02
772.78	42220.92
772.97	42116.48
773.15	42583.41
773.33	42243.45
773.52	42302.84
773.70	42001.79
773.88	42726.77
774.07	42313.08
774.25	42210.68
774.43	42694.00
774.61	42468.73
774.80	42339.71
774.98	42065.28
775.16	42399.10
775.34	42485.11
775.53	41923.97
775.71	42464.63
775.89	42337.66
776.08	42167.68
776.26	42202.49
776.44	42417.53
776.62	41713.03
776.81	42177.92
776.99	42501.50
777.17	42159.48
777.35	42374.52
777.54	42583.41
777.72	42018.17
777.90	42329.47
778.08	42427.77
778.27	42505.59
778.45	42562.93
778.63	42558.84
778.81	42268.03
779.00	42798.45
779.18	42499.45
779.36	42800.50
779.54	42886.51
779.73	42509.69
779.91	42898.80
780.09	42403.19
780.27	43007.34
780.46	43048.30
780.64	43060.59
780.82	42825.07
781.00	42530.17
781.19	43218.28
781.37	43083.12
781.55	43095.41
781.73	43427.18
781.91	43132.27
782.10	42890.61
782.28	43320.68
782.46	43021.68
782.64	43263.34
782.82	42759.54
783.01	43226.48
783.19	43351.40
783.37	43451.75
783.55	42986.86
783.74	43074.93
783.92	42710.39
784.10	43711.84
784.28	43380.07
784.46	43531.62
784.64	43226.48
784.83	43347.31
785.01	43447.66
785.19	43603.30
785.37	43525.48
785.55	43148.65
785.74	43111.79
785.92	42765.68
786.10	43128.17
786.28	42767.73
786.46	42564.98
786.64	42458.49
786.83	42456.44
787.01	43091.31
787.19	42892.66
787.37	42915.19
787.55	42829.17
787.74	42476.92
787.92	42540.41
788.10	42478.97
788.28	42210.68
788.46	42386.81
788.64	42573.17
788.82	42718.58
789.01	42515.83
789.19	42329.47
789.37	41983.36
789.55	42343.80
789.73	42263.93
789.91	41962.88
790.09	41827.71
790.28	41753.99
790.46	41633.16
790.64	41936.26
790.82	41729.41
791.00	41561.48
791.18	41158.03
791.36	41497.99
791.55	41663.88
791.73	41706.88
791.91	41088.40
792.09	41149.84
792.27	41203.08
792.45	41178.51
792.63	41610.63
792.81	41248.14
793.00	41096.59
793.18	40940.94
793.36	40994.19
793.54	40912.27
793.72	40783.25
793.90	40490.39
794.08	40353.18
794.26	40314.26
794.44	39908.77
794.62	40408.47
794.81	40258.97
794.99	39806.37
795.17	40236.44
795.35	40150.43
795.53	40068.51
795.71	40058.27
795.89	39146.92
796.07	39673.25
796.25	39497.13
796.43	39404.97
796.61	39511.46
796.80	38692.27
796.98	39314.86
797.16	39101.87
797.34	39030.19
797.52	39118.25
797.70	39105.96
797.88	38958.51
798.06	38342.07
798.24	38716.85
798.42	38679.99
798.60	38589.88
798.78	38626.74
798.96	38536.63
799.14	37989.82
799.32	38405.56
799.51	38008.25
799.69	37995.96
799.87	38331.83
800.05	37768.64
800.23	37766.59
800.41	37799.36
800.59	37897.66
800.77	37291.46
800.95	37301.70
801.13	37340.61
801.31	36980.17
801.49	37639.62
801.67	37400.01
801.85	37076.43
802.03	36980.17
802.21	36834.77
802.39	36670.93
802.57	36634.06
802.75	36711.89
802.93	36615.63
803.11	36386.26
803.29	36222.42
803.47	36175.32
803.65	36627.92
803.83	36152.79
804.01	36263.38
804.19	35857.88
804.37	35792.35
804.55	36044.25
804.73	35431.91
804.91	35794.40
805.09	35749.34
805.27	35317.22
805.45	35679.71
805.63	35515.87
805.81	35542.50
805.99	35569.12
806.17	35562.98
806.35	35210.73
806.53	35061.22
806.71	35206.63
806.89	34901.48
807.07	35454.44
807.25	35302.89
807.43	34678.25
807.61	34967.02
807.79	34995.69
807.97	34684.40
808.15	34852.33
808.33	34577.90
808.51	34616.82
808.69	34369.01
808.87	34287.09
809.05	34172.41
809.23	34002.43
809.41	33818.11
809.59	33887.74
809.77	33996.28
809.95	33873.40
810.13	33887.74
810.31	33670.65
810.49	33723.90
810.67	33412.61
810.84	33533.44
811.02	33564.16
811.20	33324.55
811.38	33246.72
811.56	32736.78
811.74	33486.34
811.92	33046.02
812.10	33275.40
812.28	33383.94
812.46	32978.44
812.64	32810.51
812.82	32757.26
813.00	32947.72
813.18	32837.13
813.36	32529.94
813.53	32689.68
813.71	32824.84
813.89	32636.43
814.07	32556.56
814.25	32699.92
814.43	31968.79
814.61	32189.97
814.79	32251.41
814.97	32015.90
815.15	31847.96
815.33	31944.22
815.50	31796.76
815.68	31927.83
815.86	31876.63
816.04	31585.82
816.22	31753.76
816.40	32005.66
816.58	31284.77
816.76	31370.79
816.94	31405.60
817.11	31770.14
817.29	31491.62
817.47	31383.07
817.65	31239.72
817.83	31043.11
818.01	31090.21
818.19	31030.82
818.37	30957.10
818.54	30658.09
818.72	30674.48
818.90	30815.79
819.08	30772.78
819.26	30776.87
819.44	30637.61
819.62	30631.47
819.80	30408.24
819.97	30373.42
820.15	30846.51
820.33	30682.67
820.51	30821.93
820.69	30043.70
820.87	30508.59
821.05	30623.28
821.22	30400.05
821.40	30311.99
821.58	30203.44
821.76	29843.00
821.94	29912.63
822.12	29931.06
822.29	30426.67
822.47	29752.89
822.65	29822.52
822.83	30105.14
823.01	29929.02
823.19	29709.88
823.36	29361.73
823.54	29681.21
823.72	29668.92
823.90	29548.09
824.08	29265.47
824.25	29054.53
824.43	29294.14
824.61	29056.58
824.79	29199.94
824.97	29011.53
825.15	29191.75
825.32	29341.25
825.50	28999.24
825.68	29140.55
825.86	28915.27
826.04	28921.41
826.21	29126.21
826.39	28898.89
826.57	28802.63
826.75	28663.37
826.93	28620.36
827.10	28730.95
827.28	28935.75
827.46	28845.64
827.64	28538.44
827.81	28524.11
827.99	28419.66
828.17	28405.33
828.35	28585.55
828.53	28640.84
828.70	28261.97
828.88	28735.05
829.06	28304.98
829.24	28546.64
829.41	28198.48
829.59	28335.70
829.77	28003.92
829.95	27885.14
830.12	28139.09
830.30	28098.13
830.48	28290.64
830.66	28059.22
830.84	28042.84
831.01	28001.88
831.19	27719.26
831.37	27702.87
831.55	27659.87
831.72	27827.80
831.90	27838.04
832.08	27854.42
832.25	27272.80
832.43	27754.07
832.61	27440.73
832.79	27528.80
832.96	27580.00
833.14	27487.84
833.32	27608.67
833.50	27440.73
833.67	27395.68
833.85	27369.05
834.03	27393.63
834.20	27428.45
834.38	27315.81
834.56	27375.20
834.74	26793.58
834.91	27104.87
835.09	26844.77
835.27	26730.09
835.44	26832.49
835.62	26678.89
835.80	26830.44
835.98	26730.09
836.15	27002.47
836.33	26949.22
836.51	26961.51
836.68	26666.60
836.86	26728.04
837.04	26576.49
837.21	26875.49
837.39	26590.83
837.57	26719.85
837.75	26666.60
837.92	26111.60
838.10	26386.03
838.28	26121.84
838.45	26259.06
838.63	26306.16
838.81	26222.19
838.98	26113.65
839.16	26107.51
839.34	26400.37
839.51	26150.51
839.69	25896.56
839.87	25970.29
840.04	25955.96
840.22	26285.68
840.40	25849.46
840.57	25712.25
840.75	26220.14
840.93	25558.65
841.10	25843.32
841.28	26472.04
841.46	25783.93
841.63	25861.75
841.81	25710.20
841.98	25669.24
842.16	25941.62
842.34	25925.24
842.51	25306.75
842.69	25648.76
842.87	25321.09
843.04	25790.07
843.22	25286.27
843.40	25540.22
843.57	25374.33
843.75	25501.31
843.92	25556.60
844.10	25599.61
844.28	25306.75
844.45	25319.04
844.63	25443.96
844.81	25003.65
844.98	25413.24
845.16	25157.25
845.33	24989.31
845.51	25206.40
845.69	25052.80
845.86	24974.98
846.04	24991.36
846.21	24669.83
846.39	25101.95
846.57	24626.82
846.74	24733.32
846.92	24921.73
847.09	24841.86
847.27	24370.83
847.45	24686.22
847.62	24624.78
847.80	24495.75
847.97	24821.38
848.15	24553.10
848.32	24356.49
848.50	24432.27
848.68	24114.83
848.85	24264.33
849.03	23916.18
849.20	24268.43
849.38	24217.23
849.56	24434.32
849.73	24252.05
849.91	24221.33
850.08	24424.08
850.26	23987.86
850.43	24247.95
850.61	24123.02
850.78	23676.57
850.96	24157.84
851.14	24045.20
851.31	23867.03
851.49	24073.87
851.66	24151.70
851.84	23969.43
852.01	23918.23
852.19	23957.14
852.36	23971.47
852.54	23852.69
852.71	23658.14
852.89	23731.86
853.07	23451.29
853.24	23490.20
853.42	23588.50
853.59	23606.94
853.77	23602.84
853.94	23479.96
854.12	23713.43
854.29	22974.11
854.47	23486.11
854.64	23508.63
854.82	23303.84
854.99	23338.65
855.17	23408.28
855.34	23289.50
855.52	23234.21
855.69	23238.30
855.87	23162.53
856.04	22767.27
856.22	23291.55
856.39	22820.52
856.57	23062.18
856.74	23033.50
856.92	23088.80
857.09	22904.48
857.27	22742.69
857.44	23332.51
857.62	22982.31
857.79	23117.47
857.97	22693.54
858.14	22924.96
858.32	22832.80
858.49	22881.95
858.67	22619.81
858.84	22578.86
859.02	22421.16
859.19	22560.42
859.37	22453.93
859.54	22630.05
859.72	22628.01
859.89	22498.98
860.06	22544.04
860.24	22374.06
860.41	22777.51
860.59	21950.13
860.76	22458.03
860.94	22185.65
861.11	22236.84
861.29	22085.30
861.46	22281.90
861.64	22011.57
861.81	21993.14
861.98	21853.87
862.16	22150.83
862.33	21958.32
862.51	21857.97
862.68	21974.70
862.86	22003.38
863.03	21831.35
863.21	21774.00
863.38	21718.71
863.55	21847.73
863.73	21952.18
863.90	21956.27
864.08	21769.91
864.25	21642.93
864.43	21753.52
864.60	21778.10
864.77	21565.11
864.95	21780.15
865.12	21663.41
865.30	21534.39
865.47	21548.73
865.64	21462.71
865.82	21495.48
865.99	21647.03
866.17	21302.97
866.34	21423.80
866.51	21311.16
866.69	21182.14
866.86	21231.29
867.04	21350.07
867.21	21139.13
867.38	21092.03
867.56	21092.03
867.73	21384.89
867.91	20907.71
868.08	20944.58
868.25	20704.96
868.43	20770.50
868.60	20854.47
868.78	20702.92
868.95	20893.38
869.12	20819.65
869.30	20684.48
869.47	20938.43
869.64	20522.69
869.82	20682.44
869.99	20559.56
870.16	20764.36
870.34	20444.87
870.51	20426.44
870.69	20573.89
870.86	20186.83
871.03	20561.61
871.21	20287.18
871.38	20424.39
871.55	20100.81
871.73	20199.12
871.90	20174.54
872.07	20031.18
872.25	19906.26
872.42	20100.81
872.59	19867.34
872.77	20154.06
872.94	19891.92
873.11	19799.76
873.29	19781.33
873.46	19824.34
873.63	19934.93
873.81	19891.92
873.98	19410.65
874.15	19605.20
874.33	19347.16
874.50	19467.99
874.67	19836.63
874.85	19537.62
875.02	19289.82
875.19	19564.25
875.37	19441.37
875.54	19371.74
875.71	19457.75
875.88	19144.41
876.06	19381.98
876.23	19381.98
876.40	19070.68
876.58	19431.13
876.75	19283.67
876.92	19003.10
877.10	18999.01
877.27	18888.42
877.44	18667.24
877.61	18765.54
877.79	18777.83
877.96	18603.75
878.13	18783.97
878.31	18532.07
878.48	18687.71
878.65	18724.58
878.82	18575.08
879.00	18366.18
879.17	18525.93
879.34	18525.93
879.51	18171.63
879.69	18183.91
879.86	18321.13
880.03	18280.17
880.21	18194.15
880.38	18353.90
880.55	18419.43
880.72	18089.71
880.90	18253.55
881.07	18099.95
881.24	18007.79
881.41	18255.59
881.59	17942.25
881.76	18151.15
881.93	17909.49
882.10	17837.81
882.28	17895.15
882.45	17784.56
882.62	18018.03
882.79	17954.54
882.96	17778.42
883.14	17995.50
883.31	17997.55
883.48	17923.82
883.65	17846.00
883.83	17688.31
884.00	17798.90
884.17	17528.56
884.34	17694.45
884.51	17729.27
884.69	17563.38
884.86	17735.41
885.03	17602.29
885.20	17585.91
885.38	17567.48
885.55	17563.38
885.72	17522.42
885.89	17456.89
886.06	17471.22
886.24	17620.72
886.41	17483.51
886.58	17641.20
886.75	17608.44
886.92	17149.69
887.10	17346.30
887.27	17078.01
887.44	17135.35
887.61	17512.18
887.78	17272.57
887.95	17311.48
888.13	16887.55
888.30	16897.79
888.47	17047.29
888.64	17125.11
888.81	16981.76
888.99	16926.46
889.16	16668.42
889.33	16738.05
889.50	16799.49
889.67	16684.80
889.84	17008.38
890.01	16879.36
890.19	16844.54
890.36	16787.20
890.53	16705.28
890.70	16414.47
890.87	16631.55
891.04	16445.19
891.22	16506.63
891.39	16437.00
891.56	16762.62
891.73	16238.34
891.90	16492.29
892.07	16484.10
892.24	16357.13
892.42	16582.40
892.59	15908.62
892.76	16064.27
892.93	16258.82
893.10	16426.76
893.27	16457.48
893.44	15959.82
893.61	16224.01
893.79	16137.99
893.96	16176.91
894.13	16168.71
894.30	15990.54
894.47	16109.32
894.64	16367.37
894.81	16140.04
894.98	16221.96
895.15	16142.09
895.33	16123.66
895.50	16115.47
895.67	16197.38
895.84	15882.00
896.01	15832.85
896.18	15955.72
896.35	16305.93
896.52	16090.89
896.69	16111.37
896.86	15894.29
897.04	16066.31
897.21	16019.21
897.38	16043.79
897.55	15916.81
897.72	16019.21
897.89	15990.54
898.06	15970.06
898.23	15955.72
898.40	16115.47
898.57	16029.45
898.74	15834.89
898.91	15959.82
899.08	16013.07
899.26	16033.55
899.43	15836.94
899.60	15933.20
899.77	15927.05
899.94	15806.22
900.11	15757.07
900.28	15863.57
900.45	15830.80
900.62	15718.16
900.79	16017.16
900.96	15761.17
901.13	15599.38
901.30	15474.45
901.47	15748.88
901.64	15867.66
901.81	15699.73
901.98	15677.20
902.15	15765.26
902.32	15699.73
902.49	15841.04
902.66	15781.65
902.83	15910.67
903.01	15623.95
903.18	15791.89
903.35	16051.98
903.52	15916.81
903.69	15927.05
903.86	15884.05
904.03	15929.10
904.20	15826.70
904.37	15882.00
904.54	15884.05
904.71	15841.04
904.88	15697.68
905.05	15906.57
905.22	15718.16
905.39	15750.93
905.56	15521.56
905.73	15687.44
905.90	15843.09
906.07	15587.09
906.24	15918.86
906.41	15849.23
906.58	15929.10
906.75	15623.95
906.92	15599.38
907.09	15609.62
907.26	15595.28
907.43	15456.02
907.60	15675.15
907.77	15929.10
907.93	15652.63
908.10	15648.53
908.27	15896.33
908.44	15621.91
908.61	15542.03
908.78	15761.17
908.95	15566.61
909.12	15636.24
909.29	15527.70
909.46	15552.27
909.63	15525.65
909.80	15605.52
909.97	15771.41
910.14	15535.89
910.31	15492.88
910.48	15382.29
910.65	15552.27
910.82	15476.50
910.99	15400.72
911.16	15327.00
911.33	15521.56
911.50	15249.18
911.66	15402.77
911.83	15255.32
912.00	15359.77
912.17	15281.94
912.34	15204.12
912.51	15124.25
912.68	15140.63
912.85	15062.81
913.02	15167.26
913.19	15118.11
913.36	15034.14
913.53	15128.35
913.70	15138.58
913.86	15054.62
914.03	14999.32
914.20	15066.91
914.37	14913.31
914.54	14888.73
914.71	15003.42
914.88	14825.25
915.05	14718.75
915.22	14708.51
915.39	14599.97
915.55	14794.53
915.72	14667.55
915.89	14524.19
916.06	14462.76
916.23	14620.45
916.40	14464.80
916.57	14554.91
916.74	14518.05
916.91	14282.53
917.07	14518.05
917.24	14507.81
917.41	14204.71
917.58	14389.03
917.75	13985.58
917.92	14124.84
918.09	14276.39
918.26	14389.03
918.42	14094.12
918.59	14268.20
918.76	13856.56
918.93	13756.21
919.10	13883.18
919.27	13913.90
919.44	14032.68
919.60	14085.93
919.77	13827.88
919.94	13690.67
920.11	13705.01
920.28	13852.46
920.45	13698.86
920.61	13629.23
920.78	13621.04
920.95	13614.90
921.12	13279.03
921.29	12973.88
921.46	13287.22
921.62	13350.71
921.79	13315.89
921.96	13291.32
922.13	13461.30
922.30	13029.18
922.47	12992.31
922.63	13000.51
922.80	12918.59
922.97	12889.92
923.14	12797.76
923.31	12887.87
923.47	12711.74
923.64	12908.35
923.81	12793.66
923.98	12699.45
924.15	12713.79
924.32	12758.85
924.48	12648.26
924.65	12740.41
924.82	12400.45
924.99	12455.75
925.15	12150.60
925.32	12443.46
925.49	12042.06
925.66	12169.03
925.83	12214.09
925.99	12107.59
926.16	12175.17
926.33	12181.32
926.50	12103.50
926.67	12103.50
926.83	12121.93
927.00	12044.10
927.17	11788.11
927.34	11816.78
927.50	11910.99
927.67	11896.65
927.84	11714.38
928.01	11525.97
928.17	11806.54
928.34	11648.85
928.51	11353.94
928.68	11450.19
928.84	11403.09
929.01	11292.50
929.18	11224.92
929.35	11358.03
929.51	11300.69
929.68	10977.11
929.85	11005.78
930.02	10944.34
930.18	11122.52
930.35	11016.02
930.52	10856.28
930.69	10684.25
930.85	10749.79
931.02	10743.64
931.19	10649.44
931.36	10811.23
931.52	10618.72
931.69	10624.86
931.86	10493.79
932.02	10708.83
932.19	10542.94
932.36	10422.11
932.53	10424.16
932.69	10286.95
932.86	10360.67
933.03	10008.42
933.19	10157.92
933.36	10071.91
933.53	9934.70
933.70	9910.12
933.86	9989.99
934.03	9830.25
934.20	9736.04
934.36	9946.98
934.53	9645.93
934.70	9619.31
934.86	9467.76
935.03	9328.50
935.20	9371.50
935.36	9348.98
935.53	9166.71
935.70	9391.98
935.86	9226.10
936.03	9092.98
936.20	8974.20
936.36	8890.23
936.53	8966.01
936.70	8943.48
936.86	8781.69
937.03	8644.48
937.20	8599.42
937.36	8669.05
937.53	8404.86
937.70	8224.64
937.86	8144.77
938.03	8169.35
938.20	8204.16
938.36	7847.82
938.53	8101.76
938.70	7663.50
938.86	7831.43
939.03	7552.91
939.20	7427.98
939.36	7475.09
939.53	7403.41
939.70	7583.63
939.86	7186.32
940.03	7157.65
940.19	7145.36
940.36	7012.24
940.53	6948.76
940.69	6809.50
940.86	6838.17
941.03	6641.56
941.19	6854.55
941.36	6436.77
941.52	6555.55
941.69	6440.86
941.86	6365.09
942.02	6340.51
942.19	6264.74
942.35	6307.74
942.52	6281.12
942.69	6080.42
942.85	6111.14
943.02	5973.92
943.18	5892.01
943.35	5980.07
943.52	6002.60
943.68	5816.23
943.85	5861.29
944.01	5904.29
944.18	5773.22
944.35	5912.49
944.51	5527.47
944.68	5636.01
944.84	5728.17
945.01	5650.35
945.17	5566.38
945.34	5789.61
945.51	5588.91
945.67	5468.08
945.84	5531.56
946.00	5486.51
946.17	5435.31
946.33	5416.88
946.50	5713.83
946.67	5506.99
946.83	5504.94
947.00	5420.97
947.16	5695.40
947.33	5693.35
947.49	5500.84
947.66	5423.02
947.82	5396.40
947.99	5386.16
948.16	5519.28
948.32	5423.02
948.49	5521.32
948.65	5445.55
948.82	5316.53
948.98	5474.22
949.15	5435.31
949.31	5394.35
949.48	5474.22
949.64	5429.17
949.81	5373.87
949.97	5441.45
950.14	5545.90
950.30	5509.04
950.47	5570.48
950.63	5486.51
950.80	5550.00
950.96	5590.95
951.13	5443.50
951.30	5494.70
951.46	5425.07
951.63	5453.74
951.79	5466.03
951.96	5566.38
952.12	5590.95
952.29	5734.31
952.45	5466.03
952.62	5550.00
952.78	5529.52
952.94	5521.32
953.11	5476.27
953.27	5650.35
953.44	5599.15
953.60	5724.07
953.77	5697.45
953.93	5513.13
954.10	5500.84
954.26	5394.35
954.43	5529.52
954.59	5738.41
954.76	5795.75
954.92	5543.85
955.09	5558.19
955.25	5601.19
955.42	5558.19
955.58	5697.45
955.75	5570.48
955.91	5578.67
956.07	5676.97
956.24	5781.42
956.40	5623.72
956.57	5654.44
956.73	5601.19
956.90	5781.42
957.06	5699.50
957.23	5640.11
957.39	5656.49
957.56	5599.15
957.72	5621.67
957.88	5408.69
958.05	5691.31
958.21	5679.02
958.38	5611.43
958.54	5693.35
958.71	5654.44
958.87	5550.00
959.03	5547.95
959.20	5615.53
959.36	5541.80
959.53	5525.42
959.69	5547.95
959.85	5642.15
960.02	5650.35
960.18	5568.43
960.35	5584.81
960.51	5810.09
960.68	5648.30
960.84	5543.85
961.00	5801.90
961.17	5547.95
961.33	5605.29
961.50	5601.19
961.66	5730.22
961.82	5607.34
961.99	5777.32
962.15	5535.66
962.31	5517.23
962.48	5476.27
962.64	5658.54
962.81	5511.08
962.97	5519.28
963.13	5547.95
963.30	5504.94
963.46	5568.43
963.62	5490.60
963.79	5695.40
963.95	5449.64
964.12	5486.51
964.28	5640.11
964.44	5506.99
964.61	5547.95
964.77	5466.03
964.93	5676.97
965.10	5498.80
965.26	5443.50
965.42	5441.45
965.59	5550.00
965.75	5490.60
965.92	5513.13
966.08	5480.36
966.24	5416.88
966.41	5390.25
966.57	5461.93
966.73	5463.98
966.90	5496.75
967.06	5355.44
967.22	5416.88
967.39	5404.59
967.55	5394.35
967.71	5437.36
967.88	5265.33
968.04	5375.92
968.20	5343.15
968.37	5294.00
968.53	5328.81
968.69	5294.00
968.85	5375.92
969.02	5273.52
969.18	5343.15
969.34	5298.10
969.51	5418.93
969.67	5322.67
969.83	5261.23
970.00	5263.28
970.16	5298.10
970.32	5349.29
970.48	5334.96
970.65	5158.83
970.81	5218.22
970.97	5230.51
971.14	5124.02
971.30	5326.77
971.46	5281.71
971.63	5210.03
971.79	5271.47
971.95	5228.46
972.11	4951.99
972.28	5222.32
972.44	5171.12
972.60	5035.96
972.76	5097.39
972.93	5144.50
973.09	5105.59
973.25	5132.21
973.42	4992.95
973.58	4949.94
973.74	5054.39
973.90	5060.53
974.07	4913.08
974.23	5091.25
974.39	5066.67
974.55	4915.12
974.72	4915.12
974.88	4833.21
975.04	4976.56
975.20	4976.56
975.37	4880.31
975.53	4902.84
975.69	4980.66
975.85	4865.97
976.01	4908.98
976.18	4814.77
976.34	4822.97
976.50	4880.31
976.66	4931.51
976.83	4798.39
976.99	4720.57
977.15	4720.57
977.31	4698.04
977.47	4845.49
977.64	4790.20
977.80	4734.90
977.96	4800.44
978.12	4825.01
978.29	4632.51
978.45	4681.66
978.61	4767.67
978.77	4822.97
978.93	4650.94
979.10	4779.96
979.26	4616.12
979.42	4558.78
979.58	4523.96
979.74	4601.79
979.91	4706.23
980.07	4427.71
980.23	4648.89
980.39	4491.20
980.55	4587.45
980.71	4571.07
980.88	4497.34
981.04	4542.39
981.20	4591.55
981.36	4640.70
981.52	4532.15
981.68	4454.33
981.85	4546.49
982.01	4528.06
982.17	4468.67
982.33	4413.37
982.49	4546.49
982.65	4376.51
982.82	4403.13
982.98	4270.01
983.14	4253.63
983.30	4378.56
983.46	4448.19
983.62	4456.38
983.79	4259.78
983.95	4368.32
984.11	4155.33
984.27	4298.69
984.43	4272.06
984.59	4306.88
984.75	4253.63
984.91	4216.77
985.08	4343.74
985.24	4286.40
985.40	4149.18
985.56	4222.91
985.72	4155.33
985.88	4333.50
986.04	4237.25
986.20	4159.42
986.37	4190.14
986.53	4065.22
986.69	4120.51
986.85	4161.47
987.01	4198.34
987.17	4204.48
987.33	4061.12
987.49	4118.47
987.65	4140.99
987.82	4009.92
987.98	3925.96
988.14	4022.21
988.30	4075.46
988.46	4024.26
988.62	4034.50
988.78	4143.04
988.94	4020.16
989.10	3835.85
989.26	4009.92
989.42	3880.90
989.59	3815.37
989.75	3801.03
989.91	4005.83
990.07	3815.37
990.23	3862.47
990.39	3846.09
990.55	4005.83
990.71	3815.37
990.87	3893.19
991.03	3932.10
991.19	3813.32
991.35	3889.09
991.51	3882.95
991.67	3860.42
991.83	3856.33
992.00	3788.74
992.16	3854.28
992.32	3805.13
992.48	3874.76
992.64	3602.38
992.80	3803.08
992.96	3811.27
993.12	3723.21
993.28	3852.23
993.44	3776.45
993.60	3768.26
993.76	3678.15
993.92	3690.44
994.08	3837.89
994.24	3725.26
994.40	3663.82
994.56	3688.39
994.72	3565.51
994.88	3618.76
995.04	3641.29
995.20	3649.48
995.36	3637.19
995.52	3633.10
995.68	3624.90
995.84	3547.08
996.00	3794.89
996.16	3559.37
996.32	3540.94
996.48	3510.22
996.64	3635.14
996.80	3508.17
996.96	3530.70
997.12	3461.07
997.28	3487.69
997.44	3487.69
997.60	3473.36
997.76	3373.00
997.92	3477.45
998.08	3518.41
998.24	3338.19
998.40	3362.76
998.56	3448.78
998.72	3311.57
998.88	3358.67
999.04	3471.31
999.20	3557.32
999.36	3289.04
999.52	3540.94
999.68	3330.00
999.84	3332.05
1000.00	3387.34
1000.16	3383.24
1000.32	3327.95
1000.48	3375.05
1000.64	3250.13
1000.80	3280.85
1000.95	3289.04
1001.11	3360.72
1001.27	3286.99
1001.43	3276.75
1001.59	3166.16
1001.75	3207.12
1001.91	3270.61
1002.07	3231.69
1002.23	3219.41
1002.39	3155.92
1002.55	3143.63
1002.71	3223.50
1002.87	3092.43
1003.03	3155.92
1003.19	3176.40
1003.34	3223.50
1003.50	3088.34
1003.66	3133.39
1003.82	3215.31
1003.98	3149.78
1004.14	3076.05
1004.30	3080.14
1004.46	3127.25
1004.62	3100.62
1004.78	3063.76
1004.94	3094.48
1005.09	3026.90
1005.25	3037.14
1005.41	3067.86
1005.57	3125.20
1005.73	3055.57
1005.89	2887.64
1006.05	3117.01
1006.21	2930.64
1006.37	3102.67
1006.52	2936.79
1006.68	2914.26
1006.84	2994.13
1007.00	2977.75
1007.16	3033.04
1007.32	2904.02
1007.48	2934.74
1007.64	2936.79
1007.79	2985.94
1007.95	2854.87
1008.11	2924.50
1008.27	2807.77
1008.43	2901.97
1008.59	2840.53
1008.75	3049.43
1008.91	2947.03
1009.06	2852.82
1009.22	2861.01
1009.38	2820.05
1009.54	2934.74
1009.70	2846.68
1009.86	2795.48
1010.01	2822.10
1010.17	2777.05
1010.33	2824.15
1010.49	2719.70
1010.65	2809.81
1010.81	2830.29
1010.96	2813.91
1011.12	2740.18
1011.28	2666.46
1011.44	2848.72
1011.60	2758.61
1011.76	2727.89
1011.91	2832.34
1012.07	2707.41
1012.23	2674.65
1012.39	2629.59
1012.55	2734.04
1012.71	2631.64
1012.86	2637.78
1013.02	2754.52
1013.18	2648.02
1013.34	2605.02
1013.50	2820.05
1013.65	2781.14
1013.81	2654.17
1013.97	2637.78
1014.13	2660.31
1014.29	2654.17
1014.44	2736.09
1014.60	2621.40
1014.76	2617.30
1014.92	2590.68
1015.07	2582.49
1015.23	2617.30
1015.39	2506.71
1015.55	2598.87
1015.71	2574.30
1015.86	2605.02
1016.02	2576.34
1016.18	2498.52
1016.34	2611.16
1016.49	2543.58
1016.65	2572.25
1016.81	2494.43
1016.97	2543.58
1017.12	2584.54
1017.28	2525.15
1017.44	2441.18
1017.60	2457.56
1017.75	2432.99
1017.91	2553.82
1018.07	2521.05
1018.23	2469.85
1018.38	2469.85
1018.54	2480.09
1018.70	2439.13
1018.86	2418.65
1019.01	2396.12
1019.17	2486.23
1019.33	2465.75
1019.49	2418.65
1019.64	2471.90
1019.80	2410.46
1019.96	2451.42
1020.12	2512.86
1020.27	2408.41
1020.43	2359.26
1020.59	2408.41
1020.74	2473.95
1020.90	2383.84
1021.06	2283.49
1021.22	2422.75
1021.37	2346.97
1021.53	2283.49
1021.69	2410.46
1021.84	2324.44
1022.00	2359.26
1022.16	2297.82
1022.31	2367.45
1022.47	2353.12
1022.63	2265.05
1022.79	2226.14
1022.94	2303.96
1023.10	2406.36
1023.26	2269.15
1023.41	2291.68
1023.57	2297.82
1023.73	2332.64
1023.88	2297.82
1024.04	2334.68
1024.20	2303.96
1024.35	2273.25
1024.51	2299.87
1024.67	2240.48
1024.82	2314.20
1024.98	2193.37
1025.14	2226.14
1025.29	2230.24
1025.45	2346.97
1025.61	2162.66
1025.76	2222.05
1025.92	2222.05
1026.08	2232.29
1026.23	2205.66
1026.39	2197.47
1026.55	2158.56
1026.70	2166.75
1026.86	2230.24
1027.02	2291.68
1027.17	2217.95
1027.33	2156.51
1027.48	2220.00
1027.64	2097.12
1027.80	2099.17
1027.95	2306.01
1028.11	2086.88
1028.27	2154.46
1028.42	2170.85
1028.58	2125.79
1028.73	2131.94
1028.89	2082.78
1029.05	2301.92
1029.20	2119.65
>>>>>End Processed Spectral Data<<<<<
