SpectraSuite Data File
++++++++++++++++++++++++++++++++++++
Date: Fri Jun 02 14:47:56 CEST 2017
User: INFO_000
Dark Spectrum Present: No
Reference Spectrum Present: No
Number of Sampled Component Spectra: 1
Spectrometers: USB4H00879
Integration Time (usec): 80000 (USB4H00879)
Spectra Averaged: 1 (USB4H00879)
Boxcar Smoothing: 0 (USB4H00879)
Correct for Electrical Dark: No (USB4H00879)
Strobe/Lamp Enabled: No (USB4H00879)
Correct for Detector Non-linearity: No (USB4H00879)
Correct for Stray Light: No (USB4H00879)
Number of Pixels in Processed Spectrum: 3648
>>>>>Begin Processed Spectral Data<<<<<
345.13	1257.45
345.34	1257.45
345.56	1257.45
345.78	1273.84
345.99	1236.97
346.21	1839.08
346.42	1681.38
346.64	1687.53
346.86	1796.07
347.07	1669.09
347.29	1662.95
347.50	1605.61
347.72	1701.86
347.94	1832.93
348.15	1636.33
348.37	1576.94
348.59	1716.20
348.80	1673.19
349.02	1740.77
349.23	1877.99
349.45	1824.74
349.67	1865.70
349.88	1757.16
350.10	1984.48
350.31	1871.84
350.53	1730.53
350.75	2015.20
350.96	1798.12
351.18	1830.88
351.39	1839.08
351.61	1810.40
351.82	1863.65
352.04	1933.28
352.26	1773.54
352.47	1841.12
352.69	1918.95
352.90	1710.05
353.12	1839.08
353.34	1882.08
353.55	1951.71
353.77	1822.69
353.98	1839.08
354.20	1894.37
354.41	1994.72
354.63	1900.52
354.85	1968.10
355.06	1931.23
355.28	1757.16
355.49	1925.09
355.71	1828.84
355.92	1859.56
356.14	1892.32
356.35	1849.32
356.57	1869.80
356.79	1867.75
357.00	1837.03
357.22	1982.43
357.43	1855.46
357.65	1966.05
357.86	1806.31
358.08	1861.60
358.29	1943.52
358.51	1992.67
358.72	1943.52
358.94	1937.38
359.16	1877.99
359.37	1959.91
359.59	1943.52
359.80	1927.14
360.02	1931.23
360.23	1871.84
360.45	2052.06
360.66	1853.41
360.88	1884.13
361.09	1843.17
361.31	2025.44
361.52	1925.09
361.74	2078.69
361.95	2021.35
362.17	1937.38
362.38	2068.45
362.60	2080.74
362.81	1888.23
363.03	1978.34
363.24	1894.37
363.46	2099.17
363.67	2050.02
363.89	2047.97
364.10	1978.34
364.32	1949.67
364.53	1988.58
364.75	1964.00
364.96	2088.93
365.18	2021.35
365.39	1925.09
365.61	2000.87
365.82	2127.84
366.04	1978.34
366.25	1951.71
366.47	2086.88
366.68	1990.63
366.90	2047.97
367.11	2068.45
367.33	2131.94
367.54	2099.17
367.76	2047.97
367.97	2023.39
368.19	2033.63
368.40	2117.60
368.62	1964.00
368.83	1939.43
369.05	2082.78
369.26	1990.63
369.48	1925.09
369.69	2013.15
369.91	2093.02
370.12	2045.92
370.33	2222.05
370.55	1896.42
370.76	2033.63
370.98	2136.03
371.19	2002.91
371.41	1974.24
371.62	2019.30
371.84	2041.82
372.05	2189.28
372.27	2068.45
372.48	2011.11
372.69	2060.26
372.91	2093.02
373.12	2113.50
373.34	2074.59
373.55	2131.94
373.77	2140.13
373.98	2103.26
374.20	2191.33
374.41	2238.43
374.62	2183.13
374.84	2115.55
375.05	2158.56
375.27	2054.11
375.48	2174.94
375.70	2181.09
375.91	2213.85
376.12	2285.53
376.34	2097.12
376.55	2162.66
376.77	2183.13
376.98	2162.66
377.19	2131.94
377.41	2097.12
377.62	2125.79
377.84	2199.52
378.05	2400.22
378.27	2123.74
378.48	2252.77
378.69	2271.20
378.91	2234.33
379.12	2181.09
379.34	2189.28
379.55	2267.10
379.76	2273.25
379.98	2127.84
380.19	2250.72
380.41	2250.72
380.62	2308.06
380.83	2240.48
381.05	2240.48
381.26	2424.80
381.47	2295.77
381.69	2281.44
381.90	2408.41
382.12	2344.92
382.33	2250.72
382.54	2273.25
382.76	2359.26
382.97	2367.45
383.19	2230.24
383.40	2279.39
383.61	2336.73
383.83	2256.86
384.04	2291.68
384.25	2387.93
384.47	2408.41
384.68	2371.55
384.89	2351.07
385.11	2326.49
385.32	2400.22
385.54	2297.82
385.75	2285.53
385.96	2412.51
386.18	2410.46
386.39	2426.84
386.60	2336.73
386.82	2465.75
387.03	2379.74
387.24	2502.62
387.46	2424.80
387.67	2443.23
387.88	2451.42
388.10	2512.86
388.31	2535.39
388.52	2498.52
388.74	2494.43
388.95	2475.99
389.16	2506.71
389.38	2447.32
389.59	2570.20
389.80	2514.91
390.02	2590.68
390.23	2639.83
390.44	2562.01
390.66	2582.49
390.87	2555.86
391.08	2525.15
391.30	2684.89
391.51	2697.17
391.72	2660.31
391.94	2680.79
392.15	2617.30
392.36	2600.92
392.58	2615.26
392.79	2660.31
393.00	2697.17
393.22	2658.26
393.43	2789.33
393.64	2797.53
393.85	2736.09
394.07	2611.16
394.28	2754.52
394.49	2713.56
394.71	2746.33
394.92	2824.15
395.13	2570.20
395.35	2707.41
395.56	2666.46
395.77	2719.70
395.98	2881.49
396.20	2752.47
396.41	2828.24
396.62	2795.48
396.84	2742.23
397.05	2813.91
397.26	2879.44
397.47	3035.09
397.69	2744.28
397.90	3057.62
398.11	2867.16
398.32	2834.39
398.54	2877.40
398.75	2838.48
398.96	2811.86
399.18	2985.94
399.39	2887.64
399.60	2897.88
399.81	2904.02
400.03	2897.88
400.24	3172.30
400.45	2879.44
400.66	3076.05
400.88	2942.93
401.09	3129.30
401.30	3076.05
401.51	3131.34
401.73	3092.43
401.94	3059.67
402.15	3069.91
402.36	3018.71
402.58	3166.16
402.79	3076.05
403.00	3092.43
403.21	3172.30
403.43	3106.77
403.64	3260.37
403.85	3098.58
404.06	3188.69
404.27	3117.01
404.49	3205.07
404.70	3137.49
404.91	3243.98
405.12	3186.64
405.34	3274.70
405.55	3387.34
405.76	3125.20
405.97	3264.46
406.19	3420.11
406.40	3291.09
406.61	3295.18
406.82	3332.05
407.03	3264.46
407.25	3321.81
407.46	3442.64
407.67	3440.59
407.88	3430.35
408.09	3241.93
408.31	3295.18
408.52	3366.86
408.73	3266.51
408.94	3262.41
409.15	3403.72
409.37	3442.64
409.58	3471.31
409.79	3518.41
410.00	3559.37
410.21	3385.29
410.43	3403.72
410.64	3397.58
410.85	3403.72
411.06	3510.22
411.27	3585.99
411.48	3620.81
411.70	3391.44
411.91	3606.47
412.12	3669.96
412.33	3655.62
412.54	3596.23
412.76	3735.50
412.97	3680.20
413.18	3542.99
413.39	3510.22
413.60	3702.73
413.81	3635.14
414.03	3637.19
414.24	3659.72
414.45	3798.98
414.66	3581.90
414.87	3745.73
415.08	3633.10
415.30	3801.03
415.51	3721.16
415.72	3680.20
415.93	3780.55
416.14	3872.71
416.35	3776.45
416.56	3913.67
416.78	3803.08
416.99	3878.85
417.20	3864.52
417.41	3928.00
417.62	3870.66
417.83	3913.67
418.04	3948.48
418.26	3981.25
418.47	3932.10
418.68	3991.49
418.89	4057.03
419.10	4145.09
419.31	4093.89
419.52	4020.16
419.73	4087.75
419.95	4079.55
420.16	3973.06
420.37	3985.35
420.58	4106.18
420.79	3932.10
421.00	4104.13
421.21	4067.27
421.42	3934.15
421.63	4177.86
421.85	4128.70
422.06	4227.01
422.27	4075.46
422.48	4214.72
422.69	4276.16
422.90	4112.32
423.11	4231.10
423.32	4319.17
423.53	4362.17
423.75	4259.78
423.96	4433.85
424.17	4278.21
424.38	4501.44
424.59	4403.13
424.80	4628.41
425.01	4353.98
425.22	4325.31
425.43	4384.70
425.64	4640.70
425.85	4444.09
426.06	4503.48
426.28	4452.28
426.49	4399.04
426.70	4544.44
426.91	4493.24
427.12	4667.32
427.33	4661.18
427.54	4403.13
427.75	4693.94
427.96	4587.45
428.17	4607.93
428.38	4810.68
428.59	4730.81
428.80	4638.65
429.01	4698.04
429.23	4630.46
429.44	4990.90
429.65	4939.70
429.86	4915.12
430.07	4931.51
430.28	4808.63
430.49	4900.79
430.70	5011.38
430.91	4923.32
431.12	4982.71
431.33	5021.62
431.54	5023.67
431.75	5095.35
431.96	5058.48
432.17	4954.04
432.38	5070.77
432.59	5294.00
432.80	5064.63
433.01	5330.86
433.22	5298.10
433.43	5296.05
433.64	5220.27
433.85	5244.85
434.06	5253.04
434.27	5162.93
434.49	5316.53
434.70	5433.26
434.91	5322.67
435.12	5246.90
435.33	5265.33
435.54	5496.75
435.75	5369.77
435.96	5435.31
436.17	5322.67
436.38	5576.62
436.59	5545.90
436.80	5519.28
437.01	5699.50
437.22	5711.78
437.43	5654.44
437.64	5461.93
437.85	5640.11
438.06	5703.59
438.27	5633.96
438.48	5631.91
438.69	5758.89
438.90	5889.96
439.11	5648.30
439.32	5961.64
439.53	5836.71
439.74	5795.75
439.95	5924.77
440.16	5892.01
440.37	5988.26
440.57	5793.70
440.78	5965.73
440.99	6025.12
441.20	6043.56
441.41	5844.90
441.62	5998.50
441.83	5818.28
442.04	6127.52
442.25	6344.61
442.46	6023.08
442.67	6035.36
442.88	6434.72
443.09	6014.88
443.30	6322.08
443.51	6223.78
443.72	6305.70
443.93	6182.82
444.14	6395.81
444.35	6156.19
444.56	6297.50
444.77	6379.42
444.98	6389.66
445.19	6477.73
445.40	6344.61
445.61	6428.57
445.81	6576.03
446.02	6659.99
446.23	6530.97
446.44	6459.29
446.65	6424.48
446.86	6522.78
447.07	6680.47
447.28	6823.83
447.49	6606.75
447.70	6666.14
447.91	6705.05
448.12	6619.04
448.33	6850.46
448.54	6756.25
448.74	6817.69
448.95	6725.53
449.16	6621.08
449.37	7075.73
449.58	6780.82
449.79	7118.74
450.00	6801.30
450.21	6965.14
450.42	7112.60
450.63	7063.44
450.84	6952.85
451.05	7061.40
451.25	7071.64
451.46	7096.21
451.67	7171.99
451.88	7327.63
452.09	7221.14
452.30	7051.16
452.51	7309.20
452.72	7409.55
452.93	7487.37
453.13	7059.35
453.34	7356.30
453.55	7288.72
453.76	7382.93
453.97	7733.13
454.18	7540.62
454.39	7538.57
454.60	7532.43
454.81	7528.33
455.01	7673.74
455.22	7532.43
455.43	7688.07
455.64	7825.29
455.85	7817.10
456.06	7995.27
456.27	7757.71
456.48	7681.93
456.68	7739.27
456.89	7767.95
457.10	8007.56
457.31	7798.66
457.52	7974.79
457.73	7862.15
457.94	8095.62
458.14	7856.01
458.35	8302.47
458.56	7980.93
458.77	8052.61
458.98	8191.88
459.19	8042.37
459.39	8402.82
459.60	8478.59
459.81	8345.47
460.02	8480.64
460.23	8400.77
460.44	8636.28
460.65	8542.08
460.85	8468.35
461.06	8615.80
461.27	8531.84
461.48	8802.17
461.69	9000.82
461.89	8363.90
462.10	8775.55
462.31	8445.82
462.52	8652.67
462.73	8642.43
462.94	8961.91
463.14	8988.53
463.35	9015.16
463.56	9232.24
463.77	9117.56
463.98	8974.20
464.18	9258.87
464.39	9293.68
464.60	9508.72
464.81	9375.60
465.02	9351.03
465.23	9432.94
465.43	9486.19
465.64	9541.49
465.85	9512.81
466.06	9584.49
466.27	9725.80
466.47	9897.83
466.68	9787.24
466.89	9629.55
467.10	9867.11
467.30	9604.97
467.51	10051.43
467.72	10100.58
467.93	10063.72
468.14	10299.23
468.34	10321.76
468.55	10305.38
468.76	10303.33
468.97	10323.81
469.17	10483.55
469.38	10762.08
469.59	10684.25
469.80	10532.70
470.01	10655.58
470.21	10676.06
470.42	10864.47
470.63	10915.67
470.84	10897.24
471.04	11116.37
471.25	11181.91
471.46	11210.58
471.67	11349.84
471.87	11147.09
472.08	11464.53
472.29	11710.29
472.50	11349.84
472.70	11562.83
472.91	11536.21
473.12	11949.90
473.33	11851.60
473.53	11919.18
473.74	12001.10
473.95	12234.57
474.16	12205.89
474.36	12414.79
474.57	12476.23
474.78	12408.64
474.99	12298.05
475.19	12484.42
475.40	12838.72
475.61	12838.72
475.81	12951.35
476.02	12934.97
476.23	13086.52
476.44	13305.65
476.64	13197.11
476.85	13500.21
477.06	13242.17
477.27	13786.93
477.47	13659.95
477.68	13926.19
477.89	13907.76
478.09	13862.70
478.30	13979.43
478.51	14313.25
478.71	14219.05
478.92	14432.04
479.13	14520.10
479.34	14518.05
479.54	14679.84
479.75	14688.03
479.96	14858.01
480.16	14886.68
480.37	14966.56
480.58	15027.99
480.78	15290.13
480.99	15230.74
481.20	15327.00
481.41	15585.04
481.61	15752.98
481.82	15714.06
482.03	15585.04
482.23	15679.25
482.44	16123.66
482.65	16060.17
482.85	16113.42
483.06	16322.31
483.27	16191.24
483.47	16537.35
483.68	16480.00
483.89	16500.48
484.09	16602.88
484.30	16758.53
484.51	17090.30
484.71	16994.04
484.92	16998.14
485.13	17137.40
485.33	17280.76
485.54	17262.33
485.75	17323.77
485.95	17622.77
486.16	17737.46
486.37	17712.88
486.57	17913.58
486.78	17815.28
486.98	17780.46
487.19	17958.64
487.40	18417.38
487.60	18132.72
487.81	18368.23
488.02	18226.92
488.22	18329.32
488.43	18558.69
488.64	18652.90
488.84	18681.57
489.05	19097.31
489.25	18935.52
489.46	19105.50
489.67	18816.74
489.87	19195.61
490.08	19308.25
490.29	19435.22
490.49	19343.06
490.70	19715.80
490.90	19541.72
491.11	19599.06
491.32	19654.36
491.52	19783.38
491.73	20027.09
491.94	19898.06
492.14	19961.55
492.35	20092.62
492.55	20311.75
492.76	20467.40
492.97	20268.75
493.17	20313.80
493.38	20393.67
493.58	20776.64
493.79	20721.35
494.00	20774.60
494.20	20756.16
494.41	21143.23
494.61	20864.71
494.82	21276.35
495.02	21092.03
495.23	21278.40
495.44	21212.86
495.64	21497.53
495.85	21350.07
496.05	21339.83
496.26	21434.04
496.47	21513.91
496.67	21796.53
496.88	21718.71
497.08	21724.85
497.29	21853.87
497.49	21694.13
497.70	21862.07
497.91	22163.12
498.11	22023.86
498.32	22142.64
498.52	22404.78
498.73	22347.44
498.93	22320.81
499.14	22750.88
499.34	22886.05
499.55	22492.84
499.76	22412.97
499.96	22949.54
500.17	22732.45
500.37	22861.48
500.58	23156.38
500.78	23004.83
500.99	22906.53
501.19	23432.86
501.40	23123.62
501.60	22812.32
501.81	23058.08
502.02	23053.98
502.22	23244.45
502.43	23596.70
502.63	23680.66
502.84	23410.33
503.04	23469.72
503.25	23502.49
503.45	23576.22
503.66	23938.71
503.86	23889.56
504.07	24125.07
504.27	24129.17
504.48	24340.11
504.68	23994.00
504.89	24397.45
505.09	24024.72
505.30	24293.01
505.50	24448.65
505.71	24288.91
505.91	24632.97
506.12	24260.24
506.32	24632.97
506.53	24387.21
506.73	24542.86
506.94	24686.22
507.14	24647.30
507.35	24729.22
507.55	24979.07
507.76	25210.50
507.96	24819.33
508.17	24876.68
508.37	25433.72
508.58	25351.81
508.78	25261.69
508.99	25251.45
509.19	25456.25
509.40	25314.94
509.60	25556.60
509.81	25884.28
510.01	25552.51
510.22	25521.79
510.42	26074.74
510.63	25902.71
510.83	25679.48
511.04	25738.87
511.24	26132.08
511.44	26023.54
511.65	26154.61
511.85	25941.62
512.06	25968.24
512.26	26244.72
512.47	26267.25
512.67	26513.00
512.88	26746.47
513.08	26308.21
513.29	26586.73
513.49	26623.59
513.69	26490.48
513.90	26809.96
514.10	26969.70
514.31	26881.64
514.51	26818.15
514.72	26797.67
514.92	27233.89
515.13	27297.38
515.33	27108.96
515.53	27027.04
515.74	27293.28
515.94	27321.95
516.15	27551.32
516.35	27506.27
516.56	27881.05
516.76	27655.77
516.96	27614.81
517.17	28132.95
517.37	27899.48
517.58	27917.91
517.78	27911.77
517.99	27926.10
518.19	28364.37
518.39	28626.51
518.60	28485.20
518.80	28126.80
519.01	28681.80
519.21	28702.28
519.41	28921.41
519.62	28673.61
519.82	28558.92
520.03	28849.74
520.23	28970.57
520.43	28937.80
520.64	29398.59
520.84	28857.93
521.05	29392.45
521.25	29556.28
521.45	29771.32
521.66	29756.99
521.86	29736.51
522.07	29904.44
522.27	29998.65
522.47	29845.05
522.68	30039.61
522.88	30000.69
523.08	30381.62
523.29	30217.78
523.49	30344.75
523.70	30461.49
523.90	30803.50
524.10	30459.44
524.31	30850.60
524.51	30535.21
524.71	30973.48
524.92	30869.03
525.12	31346.21
525.33	30989.86
525.53	31211.04
525.73	31661.60
525.94	31446.56
526.14	31573.53
526.34	31557.15
526.55	31591.97
526.75	31598.11
526.95	32292.37
527.16	31835.67
527.36	31938.07
527.56	32288.28
527.77	32374.29
527.97	32196.12
528.17	32509.46
528.38	32656.91
528.58	32667.15
528.78	32433.68
528.99	32978.44
529.19	33299.97
529.39	32581.13
529.60	33060.36
529.80	33244.68
530.00	33091.08
530.21	33357.32
530.41	33390.08
530.61	33613.31
530.82	33363.46
531.02	33635.84
531.22	33959.42
531.43	33506.82
531.63	34074.10
531.83	33900.03
532.04	34246.13
532.24	34174.45
532.44	34915.82
532.64	34674.16
532.85	34833.90
533.05	34383.35
533.25	34874.86
533.46	34405.88
533.66	34827.76
533.86	34989.55
534.07	35329.51
534.27	35020.27
534.47	35184.10
534.67	35589.60
534.88	35345.89
535.08	35517.92
535.28	35790.30
535.49	35669.47
535.69	35722.72
535.89	36167.13
536.09	36087.26
536.30	36070.87
536.50	36201.94
536.70	36240.86
536.91	36251.09
537.11	36220.38
537.31	36402.64
537.51	36333.01
537.72	36865.49
537.92	36607.44
538.12	36814.29
538.32	36713.94
538.53	37144.01
538.73	36672.98
538.93	36902.35
539.13	36896.20
539.34	37111.24
539.54	36877.77
539.74	37553.60
539.94	37049.80
540.15	37047.75
540.35	37623.23
540.55	37819.84
540.75	37311.94
540.96	38112.70
541.16	37973.44
541.36	37305.80
541.56	37785.02
541.77	38041.02
541.97	37809.60
542.17	38161.85
542.37	37963.20
542.58	38034.88
542.78	37965.24
542.98	37840.32
543.18	38524.34
543.38	38671.79
543.59	38348.21
543.79	38288.82
543.99	38075.84
544.19	38413.75
544.40	38624.69
544.60	38714.80
544.80	38184.38
545.00	38493.62
545.20	38716.85
545.41	38503.86
545.61	38403.51
545.81	38743.47
546.01	38768.05
546.21	38884.78
546.42	38528.44
546.62	39155.11
546.82	38643.12
547.02	39071.15
547.22	39022.00
547.43	39003.56
547.63	39177.64
547.83	39425.45
548.03	39171.50
548.23	39556.52
548.44	39855.52
548.64	39437.73
548.84	39636.39
549.04	39361.96
549.24	39603.62
549.45	39828.90
549.65	39693.73
549.85	39437.73
550.05	39663.01
550.25	39255.46
550.45	40060.32
550.66	39824.80
550.86	39654.82
551.06	40373.66
551.26	40199.58
551.46	39710.11
551.66	39976.35
551.87	39859.62
552.07	40045.98
552.27	40203.67
552.47	40369.56
552.67	40224.15
552.87	40107.42
553.07	40476.05
553.28	40494.49
553.48	40377.75
553.68	40086.94
553.88	40912.27
554.08	40570.26
554.28	40605.08
554.48	40242.59
554.69	40719.76
554.89	40433.05
555.09	40572.31
555.29	40517.01
555.49	40926.61
555.69	40777.11
555.89	40725.91
556.10	41123.21
556.30	40641.94
556.50	40922.51
556.70	41031.05
556.90	41196.94
557.10	41137.55
557.30	40965.52
557.50	41352.58
557.70	41428.36
557.91	41366.92
558.11	41696.64
558.31	41035.15
558.51	41121.16
558.71	41653.64
558.91	41246.09
559.11	41352.58
559.31	41127.31
559.51	41309.58
559.72	41325.96
559.92	41760.13
560.12	41510.28
560.32	41745.80
560.52	41973.12
560.72	41756.03
560.92	42085.76
561.12	41794.95
561.32	41995.65
561.52	41715.08
561.72	42268.03
561.93	41866.63
562.13	42341.75
562.33	41723.27
562.53	42435.96
562.73	42091.90
562.93	42257.79
563.13	42308.99
563.33	42014.08
563.53	42476.92
563.73	41936.26
563.93	42587.51
564.13	42890.61
564.33	42775.92
564.53	42483.06
564.74	42980.72
564.94	42390.91
565.14	42845.55
565.34	42454.39
565.54	42626.42
565.74	42884.47
565.94	43113.84
566.14	43003.25
566.34	43081.07
566.54	43421.03
566.74	42505.59
566.94	43580.78
567.14	43636.07
567.34	42923.38
567.54	43480.42
567.74	43423.08
567.94	43392.36
568.14	43804.00
568.34	43849.06
568.54	43818.34
568.74	44096.86
568.94	43328.87
569.14	44244.32
569.34	43820.39
569.54	44004.70
569.75	43763.04
569.95	43873.63
570.15	44195.17
570.35	44109.15
570.55	43840.87
570.75	44135.77
570.95	44551.51
571.15	44705.11
571.35	44465.50
571.55	44393.82
571.75	44557.66
571.95	45090.13
572.15	44746.07
572.35	44813.65
572.55	44352.86
572.75	44862.80
572.95	44602.71
573.15	44893.52
573.35	44920.15
573.55	45262.16
573.75	45323.60
573.95	45557.06
574.15	45251.92
574.35	45669.70
574.55	45024.59
574.75	45063.50
574.95	45729.09
575.15	45368.65
575.34	45768.01
575.54	45929.80
575.74	46183.74
575.94	46013.76
576.14	45964.61
576.34	46300.48
576.54	45808.96
576.74	46351.68
576.94	46013.76
577.14	46572.86
577.34	46544.19
577.54	46064.96
577.74	46591.29
577.94	46556.47
578.14	46554.43
578.34	46986.55
578.54	46490.94
578.74	46738.74
578.94	46986.55
579.14	46468.41
579.34	46798.13
579.54	47232.30
579.74	47263.02
579.94	47109.43
580.13	47424.81
580.33	47623.47
580.53	47457.58
580.73	47672.62
580.93	47500.59
581.13	47701.29
581.33	47990.05
581.53	47938.85
581.73	47736.10
581.93	48102.69
582.13	47805.73
582.33	48043.30
582.53	47871.27
582.73	48520.48
582.92	48180.51
583.12	48477.47
583.32	48211.23
583.52	48010.53
583.72	48620.83
583.92	48665.88
584.12	48444.70
584.32	48667.93
584.52	48563.48
584.72	48831.77
584.92	49063.19
585.11	49218.83
585.31	49055.00
585.51	48956.69
585.71	49241.36
585.91	49351.95
586.11	49161.49
586.31	49216.78
586.51	49163.54
586.71	49566.99
586.91	49585.42
587.10	49411.34
587.30	49540.36
587.50	49556.75
587.70	49337.62
587.90	49773.83
588.10	49816.84
588.30	49919.24
588.50	50158.85
588.69	50208.00
588.89	49757.45
589.09	50003.20
589.29	49788.17
589.49	50509.05
589.69	49507.60
589.89	50304.26
590.08	50353.41
590.28	50021.64
590.48	50377.98
590.68	50199.81
590.88	50363.65
591.08	50089.22
591.28	50412.80
591.47	50685.18
591.67	50664.70
591.87	50418.94
592.07	50849.02
592.27	50828.54
592.47	50922.74
592.67	50877.69
592.86	50801.91
593.06	50605.31
593.26	51094.77
593.46	50736.38
593.66	50857.21
593.86	50828.54
594.05	50873.59
594.25	51203.31
594.45	50736.38
594.65	50806.01
594.85	50074.88
595.05	50910.46
595.24	51240.18
595.44	50857.21
595.64	51014.90
595.84	51393.78
596.04	51547.37
596.23	51604.72
596.43	51430.64
596.63	51084.53
596.83	51320.05
597.03	51903.72
597.22	51782.89
597.42	51557.61
597.62	51756.27
597.82	51754.22
598.02	51633.39
598.21	51604.72
598.41	51772.65
598.61	51496.17
598.81	51524.85
599.01	51873.00
599.20	51979.49
599.40	51967.21
599.60	52247.78
599.80	51758.31
600.00	51946.73
600.19	52135.14
600.39	51893.48
600.59	52067.56
600.79	52049.13
600.98	52159.72
601.18	52421.86
601.38	52094.18
601.58	52589.79
601.78	52071.65
601.97	52176.10
602.17	52810.97
602.37	52395.23
602.57	52188.39
602.76	53191.89
602.96	51991.78
603.16	52843.74
603.36	52403.42
603.55	52843.74
603.75	52346.08
603.95	52671.71
604.15	52917.46
604.34	52604.13
604.54	52798.68
604.74	52782.30
604.94	53132.50
605.13	52888.79
605.33	53306.58
605.53	52772.06
605.73	53118.17
605.92	52450.53
606.12	52954.33
606.32	53091.54
606.52	53232.85
606.71	53056.73
606.91	53421.26
607.11	52956.38
607.30	53007.58
607.50	53294.29
607.70	53474.51
607.90	52829.40
608.09	53048.53
608.29	53263.57
608.49	53660.88
608.68	53214.42
608.88	53609.68
609.08	53064.92
609.28	53267.67
609.47	53202.13
609.67	53570.77
609.87	53511.38
610.06	53318.87
610.26	53484.75
610.46	53449.94
610.66	53589.20
610.85	53484.75
611.05	53433.55
611.25	53343.44
611.44	53191.89
611.64	53515.47
611.84	53044.44
612.03	52974.81
612.23	53300.43
612.43	53163.22
612.62	53253.33
612.82	53431.50
613.02	53353.68
613.21	53773.52
613.41	53267.67
613.61	53425.36
613.80	53494.99
614.00	53118.17
614.20	53576.91
614.39	53505.23
614.59	53908.68
614.79	53327.06
614.98	53021.91
615.18	53574.86
615.38	53253.33
615.57	53073.11
615.77	53740.75
615.97	53130.45
616.16	53138.65
616.36	53564.62
616.56	53515.47
616.75	53159.12
616.95	53349.59
617.15	53302.48
617.34	53507.28
617.54	53329.11
617.74	53581.01
617.93	53320.91
618.13	53241.04
618.32	53335.25
618.52	53134.55
618.72	53222.61
618.91	53511.38
619.11	53040.34
619.31	53433.55
619.50	53189.84
619.70	53251.28
619.90	53200.08
620.09	53171.41
620.29	53116.12
620.48	53122.26
620.68	53681.36
620.88	53138.65
621.07	53210.32
621.27	53613.77
621.46	52589.79
621.66	52806.87
621.86	53345.49
622.05	53228.76
622.25	53232.85
622.44	53241.04
622.64	52827.35
622.84	53181.65
623.03	53144.79
623.23	52829.40
623.42	53234.90
623.62	53253.33
623.82	53736.65
624.01	53228.76
624.21	53425.36
624.40	53157.08
624.60	53384.40
624.80	52862.17
624.99	53288.15
625.19	53279.96
625.38	53368.02
625.58	53589.20
625.77	53220.56
625.97	52944.09
626.17	52821.21
626.36	53466.32
626.56	53806.28
626.75	52765.91
626.95	53550.29
627.14	53394.64
627.34	53681.36
627.54	53597.39
627.73	53210.32
627.93	53308.63
628.12	53343.44
628.32	53228.76
628.51	53169.36
628.71	53441.74
628.90	52901.08
629.10	53572.81
629.30	53523.66
629.49	53368.02
629.69	53421.26
629.88	53480.66
630.08	53507.28
630.27	53730.51
630.47	53282.00
630.66	53556.43
630.86	54146.25
631.05	53329.11
631.25	53912.78
631.44	53476.56
631.64	53837.00
631.84	54119.62
632.03	54439.11
632.23	53621.97
632.42	54172.87
632.62	54158.53
632.81	53462.22
633.01	53943.50
633.20	53970.12
633.40	54125.77
633.59	53773.52
633.79	53710.03
633.98	54293.70
634.18	54449.35
634.37	54385.86
634.57	53933.26
634.76	54342.85
634.96	54469.82
635.15	54404.29
635.35	54006.98
635.54	54293.70
635.74	54568.13
635.93	54172.87
636.13	54482.11
636.32	54500.54
636.52	54516.93
636.71	54387.91
636.91	54617.28
637.10	54449.35
637.30	54707.39
637.49	54752.44
637.69	54682.81
637.88	55274.68
638.08	54381.76
638.27	54553.79
638.46	54680.77
638.66	54428.87
638.85	54791.36
639.05	54842.56
639.24	54932.67
639.44	54398.15
639.63	54940.86
639.83	55055.54
640.02	54850.75
640.22	54824.12
640.41	55106.74
640.61	54617.28
640.80	54879.42
640.99	54965.43
641.19	55485.62
641.38	54920.38
641.58	55008.44
641.77	55219.38
641.97	54850.75
642.16	55243.96
642.36	55626.93
642.55	55665.84
642.74	55166.13
642.94	55874.73
643.13	55360.69
643.33	55559.34
643.52	55653.55
643.72	55547.06
643.91	55545.01
644.10	55571.63
644.30	56089.77
644.49	56079.53
644.69	55633.07
644.88	56112.30
645.08	55968.94
645.27	55860.40
645.46	55905.45
645.66	56284.33
645.85	55874.73
646.05	56202.41
646.24	56114.34
646.43	56390.82
646.63	56552.61
646.82	56493.22
647.02	56192.17
647.21	56210.60
647.40	55739.57
647.60	56562.85
647.79	56116.39
647.99	56259.75
648.18	55954.60
648.37	56859.80
648.57	56478.88
648.76	56835.23
648.96	56734.88
649.15	56986.78
649.34	56689.82
649.54	56644.77
649.73	56188.07
649.92	56702.11
650.12	56589.47
650.31	56343.72
650.51	56906.91
650.70	57177.24
650.89	56532.13
651.09	57224.34
651.28	56921.24
651.47	56827.04
651.67	57271.45
651.86	57451.67
652.06	56779.93
652.25	57603.22
652.44	56859.80
652.64	57162.90
652.83	56843.42
653.02	57091.22
653.22	57289.88
653.41	57187.48
653.60	56859.80
653.80	57230.49
653.99	57365.65
654.18	56868.00
654.38	57007.26
654.57	57105.56
654.76	57359.51
654.96	56943.77
655.15	56859.80
655.34	57040.03
655.54	57007.26
655.73	57414.80
655.92	57642.13
656.12	57836.69
656.31	57521.30
656.50	57035.93
656.70	57451.67
656.89	57302.17
657.08	57625.74
657.28	57650.32
657.47	57402.52
657.66	57474.20
657.86	57511.06
658.05	57293.97
658.24	57390.23
658.43	57705.62
658.63	57498.77
658.82	57914.51
659.01	57699.47
659.21	57939.08
659.40	57566.35
659.59	57322.65
659.79	57377.94
659.98	58012.81
660.17	58029.19
660.36	57689.23
660.56	58066.06
660.75	57943.18
660.94	57621.65
661.14	57390.23
661.33	57509.01
661.52	57302.17
661.71	57808.01
661.91	57226.39
662.10	57345.17
662.29	58145.93
662.49	57412.76
662.68	57463.96
662.87	57625.74
663.06	57816.21
663.26	57955.47
663.45	57900.17
663.64	57398.42
663.83	58369.16
664.03	57820.30
664.22	57750.67
664.41	57685.14
664.60	57396.37
664.80	57635.98
664.99	57429.14
665.18	57509.01
665.37	57664.66
665.57	57783.44
665.76	57662.61
665.95	57468.05
666.14	57445.52
666.34	57672.85
666.53	57336.98
666.72	57728.14
666.91	57203.86
667.11	57195.67
667.30	57734.29
667.49	57656.46
667.68	57443.48
667.87	57418.90
668.07	57164.95
668.26	57218.20
668.45	57662.61
668.64	57490.58
668.84	57873.55
669.03	57468.05
669.22	57314.45
669.41	57453.72
669.60	57226.39
669.80	57576.59
669.99	57588.88
670.18	57130.14
670.37	57515.15
670.57	57644.18
670.76	56820.89
670.95	57365.65
671.14	57312.41
671.33	57044.12
671.53	57773.20
671.72	57496.72
671.91	57089.18
672.10	57281.69
672.29	57298.07
672.48	56859.80
672.68	57562.26
672.87	57130.14
673.06	57316.50
673.25	56618.14
673.44	57310.36
673.64	56935.58
673.83	56718.49
674.02	56849.56
674.21	56480.93
674.40	57132.18
674.59	56562.85
674.79	56820.89
674.98	56675.49
675.17	57138.33
675.36	56669.34
675.55	56843.42
675.74	56685.73
675.94	56728.73
676.13	56890.52
676.32	56366.24
676.51	56769.69
676.70	56351.91
676.89	56810.65
677.08	56876.19
677.28	56784.03
677.47	56835.23
677.66	57033.88
677.85	56403.11
678.04	56521.89
678.23	56888.48
678.42	56532.13
678.62	56427.68
678.81	56341.67
679.00	56206.50
679.19	56980.63
679.38	56169.64
679.57	56321.19
679.76	56231.08
679.96	56245.41
680.15	56026.28
680.34	56353.96
680.53	56296.61
680.72	56239.27
680.91	56523.94
681.10	55930.03
681.29	55809.20
681.48	55882.92
681.68	55821.48
681.87	55999.66
682.06	56179.88
682.25	55696.56
682.44	55749.81
682.63	56028.33
682.82	55534.77
683.01	55487.67
683.20	55268.53
683.39	56005.80
683.59	55485.62
683.78	55760.05
683.97	55696.56
684.16	55655.60
684.35	55270.58
684.54	55491.76
684.73	55350.45
684.92	55127.22
685.11	55137.46
685.30	54910.14
685.49	55059.64
685.69	54856.89
685.88	55217.33
686.07	55293.11
686.26	55211.19
686.45	55334.07
686.64	54490.30
686.83	55184.57
687.02	54981.82
687.21	54785.21
687.40	55313.59
687.59	54863.03
687.78	54705.34
687.97	54797.50
688.16	54760.64
688.35	54592.70
688.54	54740.16
688.74	54846.65
688.93	54238.40
689.12	54865.08
689.31	54262.98
689.50	54957.24
689.69	53873.87
689.88	54047.94
690.07	54527.17
690.26	54211.78
690.45	54602.94
690.64	54127.81
690.83	54183.11
691.02	54342.85
691.21	54531.26
691.40	54062.28
691.59	54443.20
691.78	53970.12
691.97	54168.77
692.16	54453.44
692.35	54336.71
692.54	54138.05
692.73	54162.63
692.92	53800.14
693.11	53939.40
693.30	53806.28
693.49	53765.32
693.68	53662.93
693.87	53925.07
694.06	53744.84
694.25	53716.17
694.44	53408.98
694.63	53566.67
694.82	53667.02
695.01	53521.62
695.20	53234.90
695.39	53138.65
695.58	53564.62
695.77	52847.83
695.96	52950.23
696.15	53552.33
696.34	53124.31
696.53	53359.83
696.72	53439.70
696.91	53032.15
697.10	53271.76
697.29	52448.48
697.48	53365.97
697.67	53130.45
697.86	53079.25
698.05	52849.88
698.24	52737.24
698.43	52335.84
698.62	53181.65
698.81	52616.41
699.00	53343.44
699.19	52536.54
699.38	52966.62
699.57	52243.68
699.76	53265.62
699.95	52081.89
700.14	52384.99
700.32	52196.58
700.51	52749.53
700.70	52802.78
700.89	53060.82
701.08	52462.82
701.27	52430.05
701.46	52614.37
701.65	51950.82
701.84	52319.46
702.03	52497.63
702.22	52348.13
702.41	52159.72
702.60	52374.75
702.79	52233.44
702.98	51983.59
703.17	51981.54
703.35	51920.10
703.54	52098.28
703.73	52442.34
703.92	51846.38
704.11	51959.02
704.30	51756.27
704.49	52085.99
704.68	52077.80
704.87	51848.42
705.06	51354.86
705.25	51776.75
705.43	51883.24
705.62	52106.47
705.81	51936.49
706.00	51762.41
706.19	51174.64
706.38	51438.83
706.57	51594.48
706.76	51401.97
706.95	51723.50
707.14	51356.91
707.32	51487.98
707.51	51610.86
707.70	51660.01
707.89	51250.42
708.08	51516.65
708.27	51352.82
708.46	51893.48
708.65	51576.04
708.84	51604.72
709.02	51477.74
709.21	51496.17
709.40	51459.31
709.59	51418.35
709.78	50980.09
709.97	51774.70
710.16	51209.46
710.34	51156.21
710.53	51330.29
710.72	50967.80
710.91	51533.04
711.10	51148.02
711.29	51469.55
711.48	51082.48
711.66	50990.33
711.85	50914.55
712.04	50683.13
712.23	51385.58
712.42	50824.44
712.61	50726.14
712.80	50638.08
712.98	51150.07
713.17	50922.74
713.36	51305.71
713.55	50806.01
713.74	51074.29
713.93	50674.94
714.11	50457.85
714.30	50347.26
714.49	50601.21
714.68	50918.65
714.87	51006.71
715.06	50857.21
715.24	50588.92
715.43	50461.95
715.62	50457.85
715.81	50042.12
716.00	50652.41
716.18	50541.82
716.37	50111.75
716.56	49962.25
716.75	50502.91
716.94	49855.75
717.12	49952.01
717.31	50646.27
717.50	50496.77
717.69	50066.69
717.88	50638.08
718.06	50349.31
718.25	50803.96
718.44	50232.58
718.63	49982.73
718.82	49671.43
719.00	50003.20
719.19	49968.39
719.38	50167.04
719.57	50115.84
719.76	49239.31
719.94	49241.36
720.13	49722.63
720.32	50013.44
720.51	49845.51
720.69	49659.15
720.88	49736.97
721.07	49855.75
721.26	49141.01
721.44	49450.25
721.63	49304.85
721.82	49569.04
722.01	49397.01
722.20	49583.37
722.38	49038.61
722.57	49147.15
722.76	49444.11
722.95	48987.41
723.13	49218.83
723.32	49075.48
723.51	48518.43
723.70	48868.63
723.88	49184.02
724.07	48852.25
724.26	49220.88
724.44	48776.47
724.63	48940.31
724.82	48923.93
725.01	48596.25
725.19	48643.35
725.38	48715.03
725.57	48418.08
725.76	48635.16
725.94	48362.78
726.13	48633.11
726.32	48645.40
726.51	48629.02
726.69	48649.50
726.88	48512.28
727.07	48813.34
727.25	49005.84
727.44	48964.88
727.63	48569.63
727.82	48903.45
728.00	48952.60
728.19	48338.21
728.38	49141.01
728.56	48289.06
728.75	49071.38
728.94	48338.21
729.12	48373.02
729.31	48301.34
729.50	48577.82
729.69	48923.93
729.87	48383.26
730.06	48123.17
730.25	48051.49
730.43	48831.77
730.62	48086.31
730.81	48510.24
730.99	48934.17
731.18	48119.07
731.37	48629.02
731.55	48811.29
731.74	48907.54
731.93	48823.58
732.11	48682.27
732.30	48917.78
732.49	48221.47
732.67	48428.32
732.86	48975.12
733.05	48500.00
733.23	48346.40
733.42	48637.21
733.61	48731.42
733.79	48510.24
733.98	49057.04
734.17	48751.90
734.35	48383.26
734.54	48315.68
734.73	48647.45
734.91	48497.95
735.10	48389.41
735.29	48921.88
735.47	48100.64
735.66	48305.44
735.84	48731.42
736.03	48284.96
736.22	48622.87
736.40	48211.23
736.59	48452.89
736.78	48018.72
736.96	48561.44
737.15	48604.44
737.33	48487.71
737.52	48332.06
737.71	48379.17
737.89	48254.24
738.08	48506.14
738.27	48303.39
738.45	48889.11
738.64	48344.35
738.82	48532.76
739.01	48401.69
739.20	48330.01
739.38	48174.37
739.57	48338.21
739.75	48645.40
739.94	47838.50
740.13	48108.83
740.31	47932.71
740.50	48297.25
740.68	48047.39
740.87	48485.66
741.06	48112.93
741.24	47906.08
741.43	48012.58
741.61	48422.17
741.80	48000.29
741.99	47942.95
742.17	47666.47
742.36	47934.76
742.54	47850.79
742.73	47957.28
742.91	48438.56
743.10	47869.22
743.29	47961.38
743.47	47715.62
743.66	47881.51
743.84	48264.48
744.03	48270.62
744.21	47947.04
744.40	47885.61
744.59	47531.31
744.77	47912.23
744.96	47813.93
745.14	47541.55
745.33	47701.29
745.51	47707.43
745.70	47170.86
745.88	47531.31
746.07	47287.60
746.26	47295.79
746.44	47037.75
746.63	47271.21
746.81	47525.16
747.00	46894.39
747.18	47551.79
747.37	47297.84
747.55	47142.19
747.74	47537.45
747.92	47230.26
748.11	47215.92
748.29	46705.98
748.48	47105.33
748.66	46902.58
748.85	46976.31
749.03	47084.85
749.22	47390.00
749.41	46937.40
749.59	47256.88
749.78	47174.96
749.96	46851.38
750.15	46802.23
750.33	47162.67
750.52	47029.55
750.70	46624.06
750.89	46802.23
751.07	46466.36
751.26	46929.20
751.44	46355.77
751.63	46441.79
751.81	46386.49
752.00	46544.19
752.18	46587.19
752.37	46798.13
752.55	46347.58
752.74	45942.08
752.92	46245.18
753.10	46024.00
753.29	46394.68
753.47	46384.44
753.66	45821.25
753.84	46615.86
754.03	46429.50
754.21	45976.90
754.40	46206.27
754.58	46540.09
754.77	45897.03
754.95	45471.05
755.14	45995.33
755.32	45714.76
755.51	45643.08
755.69	45450.57
755.88	45593.93
756.06	45704.52
756.24	45425.99
756.43	46021.95
756.61	46013.76
756.80	45794.63
756.98	45364.56
757.17	45464.91
757.35	45534.54
757.54	45245.77
757.72	45116.75
757.90	45000.02
758.09	44969.30
758.27	45102.42
758.46	44815.70
758.64	45040.98
758.83	44893.52
759.01	45149.52
759.19	45362.51
759.38	44676.44
759.56	45008.21
759.75	44598.62
759.93	44723.54
760.12	44430.68
760.30	44973.39
760.48	44643.67
760.67	44541.27
760.85	44565.85
761.04	44971.35
761.22	44901.71
761.40	44701.01
761.59	44186.97
761.77	44139.87
761.96	44348.76
762.14	44416.35
762.32	43926.88
762.51	44535.13
762.69	44143.97
762.88	44156.25
763.06	44311.90
763.24	43890.02
763.43	44481.88
763.61	43926.88
763.80	44137.82
763.98	43949.41
764.16	43887.97
764.35	43357.55
764.53	43281.77
764.72	43263.34
764.90	43267.44
765.08	43627.88
765.27	42958.19
765.45	43105.65
765.63	43173.23
765.82	43277.68
766.00	43081.07
766.18	43353.45
766.37	42962.29
766.55	42847.60
766.74	42909.04
766.92	42722.68
767.10	42765.68
767.29	42423.67
767.47	42497.40
767.65	42763.64
767.84	42677.62
768.02	42890.61
768.20	42093.95
768.39	42714.48
768.57	42425.72
768.75	42315.13
768.94	42237.31
769.12	42524.02
769.30	42192.25
769.49	42356.09
769.67	42407.29
769.85	41758.08
770.04	42417.53
770.22	41747.84
770.40	41829.76
770.59	41682.31
770.77	41923.97
770.95	41870.72
771.14	41366.92
771.32	41555.33
771.50	41538.95
771.69	41524.61
771.87	41500.04
772.05	41448.84
772.24	41368.97
772.42	41291.15
772.60	41186.70
772.78	41280.91
772.97	41047.44
773.15	41397.64
773.33	41039.25
773.52	40830.35
773.70	41121.16
773.88	41133.45
774.07	40883.60
774.25	40543.64
774.43	41397.64
774.61	40926.61
774.80	40842.64
774.98	40979.85
775.16	41201.04
775.34	40828.30
775.53	40844.69
775.71	41686.40
775.89	41010.57
776.08	41094.54
776.26	40652.18
776.44	41174.41
776.62	41110.92
776.81	40754.58
776.99	40811.92
777.17	40748.43
777.35	41211.28
777.54	41227.66
777.72	40770.96
777.90	41147.79
778.08	41076.11
778.27	41000.33
778.45	41274.76
778.63	41371.02
778.81	40973.71
779.00	41600.39
779.18	41143.69
779.36	41102.73
779.54	41385.35
779.73	41035.15
779.91	41508.23
780.09	41274.76
780.27	41207.18
780.46	41180.56
780.64	41416.07
780.82	41026.96
781.00	41162.12
781.19	41303.43
781.37	41510.28
781.55	41454.98
781.73	41600.39
781.91	41233.80
782.10	41551.24
782.28	41379.21
782.46	41098.64
782.64	41710.98
782.82	41371.02
783.01	41676.16
783.19	41289.10
783.37	41725.32
783.55	41100.68
783.74	41446.79
783.92	40793.49
784.10	41575.81
784.28	41479.56
784.46	40846.74
784.64	41084.30
784.83	41393.54
785.01	41362.82
785.19	41332.11
785.37	41428.36
785.55	41061.77
785.74	40973.71
785.92	40990.09
786.10	41301.39
786.28	40785.30
786.46	40830.35
786.64	40863.12
786.83	40496.53
787.01	40912.27
787.19	41041.29
787.37	41102.73
787.55	40709.52
787.74	40455.57
787.92	40480.15
788.10	40441.24
788.28	40347.03
788.46	40596.88
788.64	40396.18
788.82	40752.53
789.01	40420.76
789.19	40283.55
789.37	39865.76
789.55	40203.67
789.73	39673.25
789.91	39712.16
790.09	39876.00
790.28	39919.01
790.46	39568.80
790.64	39974.30
790.82	39910.82
791.00	39251.37
791.18	39239.08
791.36	39148.97
791.55	39499.17
791.73	39230.89
791.91	38761.90
792.09	39052.72
792.27	38835.63
792.45	39124.40
792.63	39407.01
792.81	38933.93
793.00	38976.94
793.18	38995.37
793.36	38753.71
793.54	38444.47
793.72	38340.02
793.90	38575.54
794.08	38561.20
794.26	38575.54
794.44	38016.44
794.62	37727.68
794.81	38065.60
794.99	37760.45
795.17	37717.44
795.35	37582.27
795.53	37901.76
795.71	38041.02
795.89	37320.13
796.07	37500.36
796.25	37357.00
796.43	37039.56
796.61	36941.26
796.80	36691.41
796.98	36771.28
797.16	36488.66
797.34	36892.11
797.52	36795.85
797.70	36922.83
797.88	36644.30
798.06	36224.47
798.24	36677.07
798.42	36408.79
798.60	36062.68
798.78	36146.65
798.96	36398.55
799.14	35988.95
799.32	35999.19
799.51	35763.68
799.69	35970.52
799.87	35958.24
800.05	35806.69
800.23	35771.87
800.41	35438.05
800.59	35415.52
800.77	35137.00
800.95	35071.46
801.13	35161.58
801.31	34469.36
801.49	35007.98
801.67	34827.76
801.85	35173.86
802.03	34928.11
802.21	34446.83
802.39	34725.36
802.57	34606.58
802.75	34799.08
802.93	33967.61
803.11	33959.42
803.29	34172.41
803.47	34199.03
803.65	33977.85
803.83	34039.29
804.01	33914.36
804.19	33584.64
804.37	33969.66
804.55	33607.17
804.73	33703.42
804.91	33504.77
805.09	33504.77
805.27	33504.77
805.45	33396.23
805.63	33412.61
805.81	33232.39
805.99	33189.38
806.17	33156.61
806.35	33095.18
806.53	32974.34
806.71	32906.76
806.89	32826.89
807.07	32718.35
807.25	32714.25
807.43	32710.16
807.61	32599.57
807.79	32652.81
807.97	32235.03
808.15	32224.79
808.33	32343.57
808.51	32290.32
808.69	32388.63
808.87	32189.97
809.05	31970.84
809.23	31948.31
809.41	31942.17
809.59	31807.00
809.77	32247.32
809.95	31639.07
810.13	31880.73
810.31	31295.01
810.49	31473.18
810.67	31747.61
810.84	31432.22
811.02	31600.16
811.20	31151.65
811.38	31360.55
811.56	30961.19
811.74	31090.21
811.92	30987.82
812.10	30940.71
812.28	31299.11
812.46	30959.14
812.64	30785.07
812.82	30918.18
813.00	30875.18
813.18	30680.62
813.36	30801.45
813.53	30520.88
813.71	31014.44
813.89	30438.96
814.07	30649.90
814.25	30713.39
814.43	30242.35
814.61	30475.82
814.79	30402.10
814.97	30289.46
815.15	30131.76
815.33	29982.26
815.50	29777.47
815.68	30019.13
815.86	30129.72
816.04	29843.00
816.22	29847.10
816.40	29830.71
816.58	29687.36
816.76	29255.23
816.94	29603.39
817.11	29247.04
817.29	29615.68
817.47	29318.72
817.65	29212.23
817.83	29216.32
818.01	29046.34
818.19	28749.39
818.37	29193.79
818.54	28839.50
818.72	28816.97
818.90	28855.88
819.08	28935.75
819.26	29036.10
819.44	29083.20
819.62	28788.30
819.80	29138.50
819.97	29111.88
820.15	28593.74
820.33	28720.71
820.51	28769.86
820.69	28622.41
820.87	28847.69
821.05	28945.99
821.22	28653.13
821.40	28329.55
821.58	28311.12
821.76	28284.50
821.94	28169.81
822.12	28155.47
822.29	28585.55
822.47	28012.12
822.65	28286.54
822.83	28108.37
823.01	28096.08
823.19	28106.32
823.36	27881.05
823.54	28053.08
823.72	28112.47
823.90	27866.71
824.08	27471.45
824.25	27424.35
824.43	27706.97
824.61	27698.78
824.79	27711.07
824.97	27453.02
825.15	27864.66
825.32	27731.54
825.50	27315.81
825.68	27412.06
825.86	27602.52
826.04	27881.05
826.21	27508.32
826.39	27459.16
826.57	27186.79
826.75	27156.07
826.93	27225.70
827.10	27002.47
827.28	27383.39
827.46	27164.26
827.64	27496.03
827.81	26996.32
827.99	27358.81
828.17	27016.80
828.35	26848.87
828.53	27201.12
828.70	26672.74
828.88	26773.10
829.06	26832.49
829.24	27092.58
829.41	26822.25
829.59	26818.15
829.77	26787.43
829.95	26814.05
830.12	26611.31
830.30	26799.72
830.48	26918.50
830.66	26517.10
830.84	26644.07
831.01	26504.81
831.19	26291.82
831.37	26472.04
831.55	26461.80
831.72	26613.35
831.90	26400.37
832.08	26134.13
832.25	26560.11
832.43	26287.73
832.61	26437.23
832.79	26140.27
832.96	26586.73
833.14	26130.03
833.32	26523.24
833.50	26220.14
833.67	26293.87
833.85	26222.19
834.03	25781.88
834.20	25894.52
834.38	26138.23
834.56	26056.31
834.74	26302.06
834.91	25767.54
835.09	25818.74
835.27	25788.02
835.44	25996.92
835.62	25509.50
835.80	25785.97
835.98	25947.76
836.15	25624.18
836.33	25767.54
836.51	25611.90
836.68	25628.28
836.86	25540.22
837.04	25706.10
837.21	25794.17
837.39	25572.99
837.57	25874.04
837.75	25601.66
837.92	25558.65
838.10	25384.57
838.28	25325.18
838.45	25208.45
838.63	25265.79
838.81	25398.91
838.98	24878.72
839.16	25376.38
839.34	25022.08
839.51	25091.71
839.69	24776.33
839.87	24823.43
840.04	25069.19
840.22	25081.47
840.40	24970.88
840.57	24612.49
840.75	24899.20
840.93	24561.29
841.10	24643.21
841.28	24979.07
841.46	24936.07
841.63	24991.36
841.81	24954.50
841.98	24860.29
842.16	25022.08
842.34	25110.14
842.51	24757.89
842.69	24903.30
842.87	24612.49
843.04	24733.32
843.22	24553.10
843.40	24606.34
843.57	24581.77
843.75	24852.10
843.92	24796.81
844.10	24483.47
844.28	24786.57
844.45	24428.17
844.63	24315.53
844.81	24370.83
844.98	24682.12
845.16	24401.55
845.33	24512.14
845.51	24200.85
845.69	24276.62
845.86	24141.46
846.04	24217.23
846.21	24000.15
846.39	24288.91
846.57	24137.36
846.74	24057.49
846.92	23864.98
847.09	24094.35
847.27	23781.01
847.45	23893.65
847.62	23953.04
847.80	23920.28
847.97	23795.35
848.15	23907.99
848.32	23809.68
848.50	23639.70
848.68	23772.82
848.85	23711.38
849.03	23482.01
849.20	23697.05
849.38	23508.63
849.56	23471.77
849.73	23412.38
849.91	23832.21
850.08	23834.26
850.26	23443.10
850.43	23727.77
850.61	23393.95
850.78	23283.36
850.96	23367.32
851.14	23277.21
851.31	23627.42
851.49	23434.91
851.66	23664.28
851.84	23619.22
852.01	23445.15
852.19	23301.79
852.36	23324.32
852.54	23152.29
852.71	23219.87
852.89	23146.14
853.07	23520.92
853.24	23226.01
853.42	22929.06
853.59	22947.49
853.77	23262.88
853.94	23053.98
854.12	23094.94
854.29	22630.05
854.47	22818.47
854.64	22763.17
854.82	22988.45
854.99	22888.10
855.17	22916.77
855.34	22820.52
855.52	22826.66
855.69	22992.55
855.87	22576.81
856.04	22574.76
856.22	22609.58
856.39	22486.70
856.57	22785.70
856.74	22478.50
856.92	22734.50
857.09	22519.46
857.27	22656.68
857.44	22685.35
857.62	22628.01
857.79	22433.45
857.97	22593.19
858.14	22372.01
858.32	22052.53
858.49	22316.72
858.67	22410.92
858.84	22261.42
859.02	22425.26
859.19	22165.17
859.37	22128.30
859.54	22007.47
859.72	22279.85
859.89	22023.86
860.06	22247.08
860.24	22040.24
860.41	22339.24
860.59	21659.32
860.76	21849.78
860.94	21722.80
861.11	22126.25
861.29	21786.29
861.46	21687.99
861.64	21774.00
861.81	21665.46
861.98	21692.08
862.16	21855.92
862.33	21591.73
862.51	21716.66
862.68	21634.74
862.86	21608.12
863.03	21532.34
863.21	21542.58
863.38	21624.50
863.55	21763.76
863.73	21669.56
863.90	21292.73
864.08	21274.30
864.25	21618.36
864.43	21341.88
864.60	21477.05
864.77	21520.06
864.95	21116.61
865.12	21350.07
865.30	21208.76
865.47	21251.77
865.64	21184.19
865.82	21362.36
865.99	21358.27
866.17	21038.78
866.34	21065.41
866.51	20776.64
866.69	21151.42
866.86	20905.66
867.04	21126.85
867.21	21153.47
867.38	20621.00
867.56	20819.65
867.73	20676.29
867.91	20854.47
868.08	20747.97
868.25	20715.20
868.43	20883.14
868.60	20592.33
868.78	20508.36
868.95	20772.55
869.12	20584.13
869.30	20416.20
869.47	20477.64
869.64	20426.44
869.82	20293.32
869.99	20172.49
870.16	20590.28
870.34	20453.06
870.51	20602.57
870.69	20326.09
870.86	20330.19
871.03	20281.03
871.21	20149.96
871.38	20356.81
871.55	19994.32
871.73	19865.30
871.90	19766.99
872.07	19701.46
872.25	19691.22
872.42	19787.47
872.59	19672.79
872.77	19984.08
872.94	19820.24
873.11	19760.85
873.29	19705.56
873.46	19623.64
873.63	19637.97
873.81	19279.58
873.98	19394.26
874.15	19545.81
874.33	19273.43
874.50	19175.13
874.67	19492.57
874.85	19285.72
875.02	19361.50
875.19	19230.43
875.37	19255.00
875.54	19232.47
875.71	19220.19
875.88	19150.56
876.06	19547.86
876.23	18982.62
876.40	19001.05
876.58	18810.59
876.75	18876.13
876.92	18751.20
877.10	18876.13
877.27	18783.97
877.44	18753.25
877.61	18646.76
877.79	18630.37
877.96	18663.14
878.13	18589.41
878.31	18280.17
878.48	18589.41
878.65	18597.60
878.82	18401.00
879.00	18472.68
879.17	18323.18
879.34	18312.94
879.51	18218.73
879.69	18048.75
879.86	18130.67
880.03	18001.65
880.21	18237.16
880.38	17835.76
880.55	18226.92
880.72	17921.77
880.90	18085.61
881.07	17921.77
881.24	17633.01
881.41	17958.64
881.59	17798.90
881.76	17841.90
881.93	17747.70
882.10	17587.96
882.28	17618.68
882.45	17755.89
882.62	17602.29
882.79	17848.05
882.96	17495.80
883.14	17772.27
883.31	17796.85
883.48	17606.39
883.65	17499.89
883.83	17766.13
884.00	17630.96
884.17	17592.05
884.34	17346.30
884.51	17690.35
884.69	17551.09
884.86	17532.66
885.03	17379.06
885.20	17053.44
885.38	17354.49
885.55	17463.03
885.72	17215.23
885.89	17196.79
886.06	17123.07
886.24	17192.70
886.41	17182.46
886.58	17133.31
886.75	17503.99
886.92	17106.68
887.10	17307.38
887.27	16924.41
887.44	16967.42
887.61	17143.55
887.78	16963.33
887.95	17164.03
888.13	17057.53
888.30	16875.26
888.47	16903.93
888.64	16856.83
888.81	16711.42
888.99	16738.05
889.16	16692.99
889.33	16330.50
889.50	16893.69
889.67	16731.90
889.84	16326.41
890.01	16518.92
890.19	16535.30
890.36	16527.11
890.53	16338.69
890.70	16271.11
890.87	16207.62
891.04	16471.81
891.22	16385.80
891.39	16273.16
891.56	16254.73
891.73	16113.42
891.90	16230.15
892.07	16025.36
892.24	16174.86
892.42	16092.94
892.59	15922.96
892.76	15931.15
892.93	15941.39
893.10	16023.31
893.27	16131.85
893.44	15691.54
893.61	15859.47
893.79	16029.45
893.96	15810.32
894.13	15959.82
894.30	15849.23
894.47	16162.57
894.64	15933.20
894.81	15912.72
894.98	16029.45
895.15	15812.37
895.33	15671.06
895.50	15654.67
895.67	15716.11
895.84	15779.60
896.01	15968.01
896.18	15746.83
896.35	16033.55
896.52	15736.59
896.69	15709.97
896.86	15679.25
897.04	15847.18
897.21	15769.36
897.38	15533.84
897.55	15666.96
897.72	15931.15
897.89	15619.86
898.06	15816.46
898.23	15894.29
898.40	15585.04
898.57	15460.12
898.74	15734.54
898.91	15462.16
899.08	15507.22
899.26	15720.21
899.43	15683.34
899.60	15494.93
899.77	15396.63
899.94	15427.35
900.11	15222.55
900.28	15310.61
900.45	15310.61
900.62	15167.26
900.79	15691.54
900.96	15517.46
901.13	15458.07
901.30	15392.53
901.47	15406.87
901.64	15345.43
901.81	15382.29
901.98	15275.80
902.15	15390.49
902.32	15236.89
902.49	15382.29
902.66	15402.77
902.83	15468.31
903.01	15290.13
903.18	15283.99
903.35	15425.30
903.52	15150.87
903.69	15324.95
903.86	15210.26
904.03	15202.07
904.20	15615.76
904.37	15458.07
904.54	15445.78
904.71	15355.67
904.88	15621.91
905.05	15249.18
905.22	15445.78
905.39	15300.37
905.56	15322.90
905.73	15312.66
905.90	15214.36
906.07	15228.70
906.24	15132.44
906.41	15318.81
906.58	15640.34
906.75	15269.66
906.92	15177.50
907.09	15019.80
907.26	15281.94
907.43	15212.31
907.60	15212.31
907.77	15064.86
907.93	15263.51
908.10	15120.15
908.27	15298.33
908.44	15093.53
908.61	15134.49
908.78	15132.44
908.95	15308.57
909.12	15079.19
909.29	15050.52
909.46	14939.93
909.63	15120.15
909.80	14937.88
909.97	15054.62
910.14	14958.36
910.31	15107.87
910.48	15081.24
910.65	15107.87
910.82	15034.14
910.99	14946.08
911.16	14741.28
911.33	14827.29
911.50	14774.05
911.66	14513.95
911.83	14698.27
912.00	14614.30
912.17	14685.98
912.34	14503.71
912.51	14792.48
912.68	14677.79
912.85	14655.26
913.02	14913.31
913.19	14642.98
913.36	14757.66
913.53	14792.48
913.70	14425.89
913.86	14546.72
914.03	14167.85
914.20	14462.76
914.37	14638.88
914.54	14331.69
914.71	14358.31
914.88	14159.66
915.05	14468.90
915.22	14202.66
915.39	14257.96
915.55	14100.26
915.72	14151.46
915.89	14331.69
916.06	13702.96
916.23	14028.59
916.40	14010.15
916.57	13811.50
916.74	13838.12
916.91	13891.37
917.07	13858.60
917.24	13954.86
917.41	13825.84
917.58	13643.57
917.75	13537.07
917.92	13657.90
918.09	13520.69
918.26	13643.57
918.42	13575.98
918.59	13424.44
918.76	13573.94
918.93	13342.52
919.10	13373.24
919.27	13524.79
919.44	13502.26
919.60	13612.85
919.77	13410.10
919.94	13301.56
920.11	13141.82
920.28	13391.67
920.45	12988.22
920.61	12908.35
920.78	12973.88
920.95	12930.87
921.12	13041.46
921.29	12689.21
921.46	12666.69
921.62	12609.34
921.79	12869.44
921.96	12715.84
922.13	12832.57
922.30	12447.55
922.47	12652.35
922.63	12320.58
922.80	12519.23
922.97	12201.80
923.14	12496.71
923.31	12304.20
923.47	12169.03
923.64	12449.60
923.81	12185.41
923.98	12162.89
924.15	12025.67
924.32	12158.79
924.48	12078.92
924.65	12019.53
924.82	11925.32
924.99	11958.09
925.15	11773.77
925.32	11857.74
925.49	11609.93
925.66	11560.78
925.83	11564.88
925.99	11482.96
926.16	11874.12
926.33	11636.56
926.50	11407.19
926.67	11442.00
926.83	11378.51
927.00	11392.85
927.17	11183.96
927.34	11265.88
927.50	11306.84
927.67	11464.53
927.84	11192.15
928.01	11173.72
928.17	10901.34
928.34	11038.55
928.51	10878.81
928.68	10874.71
928.84	10813.28
929.01	10854.23
929.18	10588.00
929.35	10784.60
929.51	10659.68
929.68	10635.10
929.85	10446.69
930.02	10571.61
930.18	10205.03
930.35	10420.06
930.52	10243.94
930.69	10403.68
930.85	10219.36
931.02	10119.01
931.19	10358.63
931.36	10315.62
931.52	10233.70
931.69	10071.91
931.86	10106.73
932.02	10024.81
932.19	10057.57
932.36	9965.42
932.53	10004.33
932.69	9946.98
932.86	9723.76
933.03	9705.32
933.19	9625.45
933.36	9615.21
933.53	9693.04
933.70	9686.89
933.86	9553.77
934.03	9379.70
934.20	9205.62
934.36	9437.04
934.53	9015.16
934.70	9006.97
934.86	9140.08
935.03	9129.84
935.20	8791.93
935.36	8882.04
935.53	8732.54
935.70	8843.13
935.86	8882.04
936.03	8509.31
936.20	8607.61
936.36	8499.07
936.53	8497.02
936.70	8437.63
936.86	8402.82
937.03	8269.70
937.20	8132.48
937.36	8322.94
937.53	7790.47
937.70	7774.09
937.86	7778.19
938.03	7868.30
938.20	7772.04
938.36	7542.67
938.53	7487.37
938.70	7460.75
938.86	7268.24
939.03	7364.50
939.20	7145.36
939.36	7180.18
939.53	7045.01
939.70	7131.03
939.86	6815.64
940.03	6725.53
940.19	6688.67
940.36	6717.34
940.53	6748.06
940.69	6569.88
940.86	6512.54
941.03	6313.89
941.19	6320.03
941.36	6234.02
941.52	6107.04
941.69	6217.63
941.86	6309.79
942.02	6107.04
942.19	5996.45
942.35	6027.17
942.52	6027.17
942.69	5918.63
942.85	5711.78
943.02	5826.47
943.18	5767.08
943.35	5607.34
943.52	5609.39
943.68	5574.57
943.85	5623.72
944.01	5627.82
944.18	5595.05
944.35	5568.43
944.51	5500.84
944.68	5191.60
944.84	5482.41
945.01	5398.45
945.17	5433.26
945.34	5347.25
945.51	5486.51
945.67	5410.73
945.84	5271.47
946.00	5224.37
946.17	5263.28
946.33	5142.45
946.50	5289.90
946.67	5162.93
946.83	5197.74
947.00	5261.23
947.16	5228.46
947.33	5275.57
947.49	5216.18
947.66	5234.61
947.82	5179.31
947.99	5056.43
948.16	5179.31
948.32	5097.39
948.49	5267.38
948.65	5197.74
948.82	5320.62
948.98	5273.52
949.15	5156.79
949.31	5203.89
949.48	5224.37
949.64	5246.90
949.81	5154.74
949.97	5289.90
950.14	5271.47
950.30	5005.24
950.47	5390.25
950.63	5226.42
950.80	5365.68
950.96	5269.42
951.13	5212.08
951.30	5124.02
951.46	5212.08
951.63	5322.67
951.79	5285.81
951.96	5382.06
952.12	5154.74
952.29	5332.91
952.45	5289.90
952.62	5228.46
952.78	5212.08
952.94	5121.97
953.11	5187.50
953.27	5105.59
953.44	5402.54
953.60	5306.29
953.77	5281.71
953.93	5289.90
954.10	5304.24
954.26	5310.38
954.43	5326.77
954.59	5492.65
954.76	5451.69
954.92	5361.58
955.09	5271.47
955.25	5324.72
955.42	5298.10
955.58	5357.49
955.75	5304.24
955.91	5382.06
956.07	5349.29
956.24	5392.30
956.40	5369.77
956.57	5494.70
956.73	5285.81
956.90	5468.08
957.06	5394.35
957.23	5355.44
957.39	5382.06
957.56	5480.36
957.72	5353.39
957.88	5238.70
958.05	5459.88
958.21	5412.78
958.38	5429.17
958.54	5334.96
958.71	5396.40
958.87	5228.46
959.03	5322.67
959.20	5369.77
959.36	5394.35
959.53	5191.60
959.69	5414.83
959.85	5388.21
960.02	5351.34
960.18	5248.94
960.35	5382.06
960.51	5406.64
960.68	5367.73
960.84	5330.86
961.00	5279.66
961.17	5439.40
961.33	5425.07
961.50	5265.33
961.66	5296.05
961.82	5369.77
961.99	5380.01
962.15	5371.82
962.31	5281.71
962.48	5257.14
962.64	5345.20
962.81	5183.41
962.97	5359.53
963.13	5339.05
963.30	5259.18
963.46	5148.59
963.62	5289.90
963.79	5400.49
963.95	5306.29
964.12	5226.42
964.28	5291.95
964.44	5191.60
964.61	5238.70
964.77	5146.55
964.93	5367.73
965.10	5285.81
965.26	5240.75
965.42	5326.77
965.59	5167.03
965.75	5130.16
965.92	5269.42
966.08	5232.56
966.24	5291.95
966.41	5154.74
966.57	5214.13
966.73	5228.46
966.90	5201.84
967.06	5191.60
967.22	5040.05
967.39	5160.88
967.55	5216.18
967.71	5277.62
967.88	5150.64
968.04	5142.45
968.20	5126.07
968.37	5054.39
968.53	5078.96
968.69	5136.31
968.85	5277.62
969.02	5207.98
969.18	5107.63
969.34	4947.89
969.51	5070.77
969.67	4984.76
969.83	5001.14
970.00	5162.93
970.16	5124.02
970.32	5124.02
970.48	5181.36
970.65	4951.99
970.81	5025.72
970.97	4995.00
971.14	4800.44
971.30	5029.81
971.46	4941.75
971.63	4972.47
971.79	4986.80
971.95	4980.66
972.11	4695.99
972.28	4788.15
972.44	4960.18
972.60	4759.48
972.76	4800.44
972.93	4773.82
973.09	4894.65
973.25	4894.65
973.42	4786.10
973.58	4786.10
973.74	4786.10
973.90	4806.58
974.07	4857.78
974.23	4825.01
974.39	4788.15
974.55	4802.49
974.72	4802.49
974.88	4616.12
975.04	4663.22
975.20	4655.03
975.37	4847.54
975.53	4657.08
975.69	4671.42
975.85	4521.92
976.01	4724.66
976.18	4685.75
976.34	4659.13
976.50	4800.44
976.66	4693.94
976.83	4556.73
976.99	4691.90
977.15	4501.44
977.31	4480.96
977.47	4650.94
977.64	4472.76
977.80	4569.02
977.96	4632.51
978.12	4530.11
978.29	4495.29
978.45	4456.38
978.61	4548.54
978.77	4689.85
978.93	4376.51
979.10	4386.75
979.26	4554.68
979.42	4513.72
979.58	4319.17
979.74	4540.35
979.91	4362.17
980.07	4390.84
980.23	4394.94
980.39	4384.70
980.55	4392.89
980.71	4464.57
980.88	4505.53
981.04	4294.59
981.20	4448.19
981.36	4429.76
981.52	4401.08
981.68	4343.74
981.85	4323.26
982.01	4333.50
982.17	4317.12
982.33	4272.06
982.49	4353.98
982.65	4145.09
982.82	4331.45
982.98	4292.54
983.14	4310.97
983.30	4278.21
983.46	4333.50
983.62	4329.41
983.79	4177.86
983.95	4153.28
984.11	4100.03
984.27	4155.33
984.43	4130.75
984.59	4235.20
984.75	4300.73
984.91	4124.61
985.08	4124.61
985.24	4007.87
985.40	4063.17
985.56	4124.61
985.72	4149.18
985.88	4087.75
986.04	4014.02
986.20	3960.77
986.37	3973.06
986.53	4112.32
986.69	4083.65
986.85	4081.60
987.01	4044.74
987.17	3995.59
987.33	4077.51
987.49	4034.50
987.65	4075.46
987.82	3944.39
987.98	3899.33
988.14	3989.44
988.30	3923.91
988.46	3977.16
988.62	3936.20
988.78	3850.18
988.94	3923.91
989.10	3776.45
989.26	3880.90
989.42	3803.08
989.59	3901.38
989.75	3801.03
989.91	3966.92
990.07	3772.36
990.23	3856.33
990.39	3848.13
990.55	3747.78
990.71	3780.55
990.87	3821.51
991.03	3874.76
991.19	3780.55
991.35	3651.53
991.51	3815.37
991.67	3725.26
991.83	3629.00
992.00	3688.39
992.16	3667.91
992.32	3774.41
992.48	3667.91
992.64	3530.70
992.80	3614.66
992.96	3557.32
993.12	3614.66
993.28	3698.63
993.44	3592.14
993.60	3657.67
993.76	3676.10
993.92	3583.95
994.08	3639.24
994.24	3596.23
994.40	3569.61
994.56	3540.94
994.72	3585.99
994.88	3608.52
995.04	3571.66
995.20	3508.17
995.36	3450.83
995.52	3524.55
995.68	3434.44
995.84	3448.78
996.00	3588.04
996.16	3489.74
996.32	3399.63
996.48	3514.31
996.64	3446.73
996.80	3358.67
996.96	3459.02
997.12	3489.74
997.28	3370.96
997.44	3366.86
997.60	3405.77
997.76	3358.67
997.92	3444.68
998.08	3407.82
998.24	3334.09
998.40	3344.33
998.56	3319.76
998.72	3221.45
998.88	3303.37
999.04	3278.80
999.20	3397.58
999.36	3364.81
999.52	3321.81
999.68	3221.45
999.84	3381.20
1000.00	3327.95
1000.16	3336.14
1000.32	3332.05
1000.48	3360.72
1000.64	3164.11
1000.80	3209.17
1000.95	3305.42
1001.11	3252.17
1001.27	3143.63
1001.43	3190.74
1001.59	3184.59
1001.75	3256.27
1001.91	3123.15
1002.07	3071.95
1002.23	3129.30
1002.39	3215.31
1002.55	3153.87
1002.71	3090.38
1002.87	3127.25
1003.03	3143.63
1003.19	3037.14
1003.34	3155.92
1003.50	3084.24
1003.66	3123.15
1003.82	3069.91
1003.98	3020.75
1004.14	3102.67
1004.30	3012.56
1004.46	2965.46
1004.62	3110.86
1004.78	3100.62
1004.94	3049.43
1005.09	3117.01
1005.25	3059.67
1005.41	2973.65
1005.57	2998.23
1005.73	2947.03
1005.89	2955.22
1006.05	3049.43
1006.21	2985.94
1006.37	2908.12
1006.52	2994.13
1006.68	2803.67
1006.84	3100.62
1007.00	2914.26
1007.16	2959.31
1007.32	2889.68
1007.48	2875.35
1007.64	2836.44
1007.79	2881.49
1007.95	2789.33
1008.11	2889.68
1008.27	2846.68
1008.43	2897.88
1008.59	2768.85
1008.75	2869.20
1008.91	2820.05
1009.06	2912.21
1009.22	2877.40
1009.38	2922.45
1009.54	2772.95
1009.70	2777.05
1009.86	2725.85
1010.01	2789.33
1010.17	2625.50
1010.33	2764.76
1010.49	2795.48
1010.65	2731.99
1010.81	2752.47
1010.96	2721.75
1011.12	2727.89
1011.28	2709.46
1011.44	2727.89
1011.60	2691.03
1011.76	2766.81
1011.91	2752.47
1012.07	2699.22
1012.23	2680.79
1012.39	2600.92
1012.55	2742.23
1012.71	2641.88
1012.86	2707.41
1013.02	2641.88
1013.18	2596.82
1013.34	2553.82
1013.50	2668.50
1013.65	2600.92
1013.81	2596.82
1013.97	2535.39
1014.13	2545.63
1014.29	2617.30
1014.44	2707.41
1014.60	2572.25
1014.76	2666.46
1014.92	2590.68
1015.07	2512.86
1015.23	2695.13
1015.39	2471.90
1015.55	2562.01
1015.71	2498.52
1015.86	2465.75
1016.02	2570.20
1016.18	2383.84
1016.34	2496.47
1016.49	2588.63
1016.65	2539.48
1016.81	2602.97
1016.97	2500.57
1017.12	2611.16
1017.28	2437.08
1017.44	2473.95
1017.60	2488.28
1017.75	2449.37
1017.91	2523.10
1018.07	2516.95
1018.23	2586.58
1018.38	2443.23
1018.54	2463.71
1018.70	2322.40
1018.86	2439.13
1019.01	2383.84
1019.17	2408.41
1019.33	2508.76
1019.49	2394.08
1019.64	2428.89
1019.80	2361.31
1019.96	2408.41
1020.12	2414.56
1020.27	2303.96
1020.43	2498.52
1020.59	2408.41
1020.74	2412.51
1020.90	2394.08
1021.06	2256.86
1021.22	2324.44
1021.37	2428.89
1021.53	2353.12
1021.69	2332.64
1021.84	2275.29
1022.00	2392.03
1022.16	2314.20
1022.31	2273.25
1022.47	2424.80
1022.63	2346.97
1022.79	2220.00
1022.94	2187.23
1023.10	2389.98
1023.26	2277.34
1023.41	2312.16
1023.57	2301.92
1023.73	2322.40
1023.88	2342.88
1024.04	2267.10
1024.20	2203.61
1024.35	2267.10
1024.51	2232.29
1024.67	2191.33
1024.82	2428.89
1024.98	2097.12
1025.14	2322.40
1025.29	2252.77
1025.45	2285.53
1025.61	2131.94
1025.76	2181.09
1025.92	2125.79
1026.08	2209.76
1026.23	2205.66
1026.39	2242.53
1026.55	2238.43
1026.70	2183.13
1026.86	2115.55
1027.02	2154.46
1027.17	2156.51
1027.33	2197.47
1027.48	2154.46
1027.64	2088.93
1027.80	2146.27
1027.95	2224.09
1028.11	1992.67
1028.27	2115.55
1028.42	2265.05
1028.58	2181.09
1028.73	2072.54
1028.89	2080.74
1029.05	2228.19
1029.20	2209.76
>>>>>End Processed Spectral Data<<<<<
