SpectraSuite Data File
++++++++++++++++++++++++++++++++++++
Date: Fri Jun 02 14:48:00 CEST 2017
User: INFO_000
Dark Spectrum Present: No
Reference Spectrum Present: No
Number of Sampled Component Spectra: 1
Spectrometers: USB4H00879
Integration Time (usec): 80000 (USB4H00879)
Spectra Averaged: 1 (USB4H00879)
Boxcar Smoothing: 0 (USB4H00879)
Correct for Electrical Dark: No (USB4H00879)
Strobe/Lamp Enabled: No (USB4H00879)
Correct for Detector Non-linearity: No (USB4H00879)
Correct for Stray Light: No (USB4H00879)
Number of Pixels in Processed Spectrum: 3648
>>>>>Begin Processed Spectral Data<<<<<
345.13	1310.70
345.34	1310.70
345.56	1310.70
345.78	1247.21
345.99	1261.55
346.21	1744.87
346.42	1697.77
346.64	1609.70
346.86	1773.54
347.07	1671.14
347.29	1687.53
347.50	1621.99
347.72	1699.81
347.94	1744.87
348.15	1597.42
348.37	1556.46
348.59	1708.01
348.80	1644.52
349.02	1802.21
349.23	1890.28
349.45	1851.36
349.67	1931.23
349.88	1890.28
350.10	1941.47
350.31	1861.60
350.53	1761.25
350.75	1951.71
350.96	1724.39
351.18	1863.65
351.39	1839.08
351.61	1728.49
351.82	1920.99
352.04	1845.22
352.26	1834.98
352.47	1935.33
352.69	1812.45
352.90	1814.50
353.12	1773.54
353.34	1812.45
353.55	1961.95
353.77	1839.08
353.98	1812.45
354.20	1863.65
354.41	1890.28
354.63	1923.04
354.85	2023.39
355.06	1918.95
355.28	1830.88
355.49	1882.08
355.71	1834.98
355.92	1837.03
356.14	1968.10
356.35	1796.07
356.57	1920.99
356.79	1828.84
357.00	1882.08
357.22	1945.57
357.43	1837.03
357.65	1970.15
357.86	1763.30
358.08	1957.86
358.29	1916.90
358.51	1984.48
358.72	1974.24
358.94	1900.52
359.16	1857.51
359.37	1896.42
359.59	1961.95
359.80	2029.54
360.02	1929.19
360.23	2021.35
360.45	1986.53
360.66	2043.87
360.88	1834.98
361.09	1861.60
361.31	1988.58
361.52	1943.52
361.74	2140.13
361.95	2039.78
362.17	1978.34
362.38	2115.55
362.60	2070.50
362.81	1990.63
363.03	1902.56
363.24	1972.19
363.46	2088.93
363.67	2037.73
363.89	2019.30
364.10	2015.20
364.32	1945.57
364.53	1976.29
364.75	1886.18
364.96	1976.29
365.18	2045.92
365.39	2013.15
365.61	2058.21
365.82	2097.12
366.04	2023.39
366.25	1904.61
366.47	2019.30
366.68	2060.26
366.90	2015.20
367.11	1978.34
367.33	2113.50
367.54	2002.91
367.76	2004.96
367.97	2090.98
368.19	2052.06
368.40	2105.31
368.62	2011.11
368.83	2011.11
369.05	2052.06
369.26	1990.63
369.48	2025.44
369.69	1998.82
369.91	2031.58
370.12	1988.58
370.33	2144.22
370.55	1974.24
370.76	1937.38
370.98	2109.41
371.19	1992.67
371.41	1933.28
371.62	2027.49
371.84	2019.30
372.05	2138.08
372.27	2078.69
372.48	2043.87
372.69	2074.59
372.91	2133.98
373.12	2248.67
373.34	2084.83
373.55	2144.22
373.77	2156.51
373.98	2109.41
374.20	2158.56
374.41	2291.68
374.62	2152.42
374.84	2099.17
375.05	2224.09
375.27	2185.18
375.48	2211.81
375.70	2170.85
375.91	2258.91
376.12	2363.36
376.34	2158.56
376.55	2156.51
376.77	2211.81
376.98	2103.26
377.19	2152.42
377.41	2183.13
377.62	2131.94
377.84	2197.47
378.05	2365.40
378.27	2193.37
378.48	2338.78
378.69	2361.31
378.91	2269.15
379.12	2226.14
379.34	2271.20
379.55	2330.59
379.76	2267.10
379.98	2207.71
380.19	2342.88
380.41	2273.25
380.62	2308.06
380.83	2220.00
381.05	2267.10
381.26	2334.68
381.47	2189.28
381.69	2222.05
381.90	2342.88
382.12	2191.33
382.33	2338.78
382.54	2291.68
382.76	2367.45
382.97	2301.92
383.19	2199.52
383.40	2377.69
383.61	2363.36
383.83	2346.97
384.04	2164.70
384.25	2346.97
384.47	2346.97
384.68	2361.31
384.89	2314.20
385.11	2279.39
385.32	2273.25
385.54	2422.75
385.75	2295.77
385.96	2389.98
386.18	2371.55
386.39	2383.84
386.60	2383.84
386.82	2469.85
387.03	2398.17
387.24	2445.27
387.46	2422.75
387.67	2426.84
387.88	2457.56
388.10	2414.56
388.31	2557.91
388.52	2539.48
388.74	2428.89
388.95	2465.75
389.16	2367.45
389.38	2539.48
389.59	2574.30
389.80	2637.78
390.02	2539.48
390.23	2609.11
390.44	2496.47
390.66	2527.19
390.87	2557.91
391.08	2533.34
391.30	2731.99
391.51	2576.34
391.72	2609.11
391.94	2590.68
392.15	2672.60
392.36	2623.45
392.58	2566.10
392.79	2705.37
393.00	2756.57
393.22	2684.89
393.43	2748.37
393.64	2754.52
393.85	2662.36
394.07	2553.82
394.28	2721.75
394.49	2672.60
394.71	2803.67
394.92	2787.29
395.13	2641.88
395.35	2596.82
395.56	2676.70
395.77	2752.47
395.98	2848.72
396.20	2836.44
396.41	2912.21
396.62	2848.72
396.84	2799.57
397.05	2738.13
397.26	2887.64
397.47	3006.42
397.69	2750.42
397.90	3039.19
398.11	2924.50
398.32	2901.97
398.54	2832.34
398.75	2901.97
398.96	2969.55
399.18	3002.32
399.39	2889.68
399.60	3059.67
399.81	2953.17
400.03	2967.51
400.24	3147.73
400.45	2912.21
400.66	3061.71
400.88	3049.43
401.09	3231.69
401.30	3039.19
401.51	3121.10
401.73	3117.01
401.94	2973.65
402.15	3127.25
402.36	3110.86
402.58	3162.06
402.79	3112.91
403.00	3221.45
403.21	3108.82
403.43	3274.70
403.64	3301.33
403.85	3059.67
404.06	3254.22
404.27	3053.52
404.49	3084.24
404.70	3059.67
404.91	3297.23
405.12	3231.69
405.34	3303.37
405.55	3379.15
405.76	3018.71
405.97	3192.78
406.19	3346.38
406.40	3170.26
406.61	3479.50
406.82	3379.15
407.03	3330.00
407.25	3213.26
407.46	3452.88
407.67	3370.96
407.88	3502.03
408.09	3278.80
408.31	3340.24
408.52	3348.43
408.73	3432.40
408.94	3272.65
409.15	3401.68
409.37	3424.20
409.58	3553.23
409.79	3485.64
410.00	3585.99
410.21	3338.19
410.43	3368.91
410.64	3383.24
410.85	3567.56
411.06	3610.57
411.27	3504.07
411.48	3538.89
411.70	3473.36
411.91	3600.33
412.12	3577.80
412.33	3506.12
412.54	3502.03
412.76	3633.10
412.97	3633.10
413.18	3551.18
413.39	3747.78
413.60	3629.00
413.81	3739.59
414.03	3682.25
414.24	3702.73
414.45	3680.20
414.66	3495.88
414.87	3708.87
415.08	3735.50
415.30	3540.94
415.51	3637.19
415.72	3727.30
415.93	3715.02
416.14	3780.55
416.35	3801.03
416.56	3764.17
416.78	3909.57
416.99	3784.65
417.20	3729.35
417.41	3940.29
417.62	3977.16
417.83	3889.09
418.04	3809.22
418.26	3989.44
418.47	3833.80
418.68	3956.68
418.89	3915.72
419.10	4059.07
419.31	3960.77
419.52	3966.92
419.73	4046.79
419.95	4028.35
420.16	3985.35
420.37	4026.31
420.58	4054.98
420.79	3895.24
421.00	4011.97
421.21	3975.11
421.42	4194.24
421.63	4128.70
421.85	4149.18
422.06	4194.24
422.27	4192.19
422.48	4218.82
422.69	4165.57
422.90	4286.40
423.11	4229.06
423.32	4321.21
423.53	4343.74
423.75	4292.54
423.96	4478.91
424.17	4263.87
424.38	4464.57
424.59	4405.18
424.80	4652.98
425.01	4351.93
425.22	4390.84
425.43	4536.25
425.64	4698.04
425.85	4566.97
426.06	4450.24
426.28	4550.59
426.49	4450.24
426.70	4456.38
426.91	4476.86
427.12	4628.41
427.33	4556.73
427.54	4679.61
427.75	4591.55
427.96	4863.93
428.17	4763.58
428.38	4853.69
428.59	4702.14
428.80	4712.38
429.01	4939.70
429.23	4870.07
429.44	4990.90
429.65	4904.89
429.86	4947.89
430.07	4851.64
430.28	4759.48
430.49	5060.53
430.70	5064.63
430.91	5044.15
431.12	4997.04
431.33	5115.83
431.54	5083.06
431.75	4964.28
431.96	5121.97
432.17	5033.91
432.38	5003.19
432.59	5207.98
432.80	5164.98
433.01	5322.67
433.22	5330.86
433.43	5330.86
433.64	5302.19
433.85	5124.02
434.06	5408.69
434.27	5240.75
434.49	5330.86
434.70	5519.28
434.91	5476.27
435.12	5431.21
435.33	5359.53
435.54	5496.75
435.75	5304.24
435.96	5492.65
436.17	5447.60
436.38	5664.68
436.59	5687.21
436.80	5519.28
437.01	5799.85
437.22	5773.22
437.43	5627.82
437.64	5472.17
437.85	5595.05
438.06	5693.35
438.27	5609.39
438.48	5656.49
438.69	5873.57
438.90	5828.52
439.11	5775.27
439.32	5937.06
439.53	5615.53
439.74	5834.66
439.95	5826.47
440.16	5873.57
440.37	5869.48
440.57	5857.19
440.78	5894.05
440.99	5889.96
441.20	5935.01
441.41	5928.87
441.62	5865.38
441.83	5961.64
442.04	6008.74
442.25	6113.19
442.46	5922.73
442.67	6176.67
442.88	6412.19
443.09	6014.88
443.30	6088.61
443.51	6285.22
443.72	6334.37
443.93	5975.97
444.14	6457.25
444.35	6160.29
444.56	6250.40
444.77	6322.08
444.98	6277.02
445.19	6309.79
445.40	6279.07
445.61	6309.79
445.81	6479.77
446.02	6610.84
446.23	6344.61
446.44	6272.93
446.65	6533.02
446.86	6387.61
447.07	6518.68
447.28	6752.15
447.49	6647.71
447.70	6442.91
447.91	6590.36
448.12	6473.63
448.33	6807.45
448.54	6676.38
448.74	6551.45
448.95	6854.55
449.16	6533.02
449.37	6959.00
449.58	6692.76
449.79	6875.03
450.00	6674.33
450.21	6991.77
450.42	7079.83
450.63	6866.84
450.84	6803.35
451.05	7002.01
451.25	6782.87
451.46	6760.34
451.67	7051.16
451.88	6987.67
452.09	7124.88
452.30	7047.06
452.51	7104.40
452.72	7071.64
452.93	7403.41
453.13	7083.92
453.34	7094.16
453.55	7192.47
453.76	7116.69
453.97	7651.21
454.18	7319.44
454.39	7430.03
454.60	7378.83
454.81	7253.91
455.01	7528.33
455.22	7161.75
455.43	7626.64
455.64	7843.72
455.85	7692.17
456.06	7827.34
456.27	7741.32
456.48	7671.69
456.68	7759.75
456.89	7796.62
457.10	7980.93
457.31	7909.26
457.52	7896.97
457.73	7978.89
457.94	8015.75
458.14	7948.17
458.35	8269.70
458.56	7976.84
458.77	8140.68
458.98	8281.99
459.19	8189.83
459.39	8306.56
459.60	8277.89
459.81	8308.61
460.02	8322.94
460.23	8411.01
460.44	8560.51
460.65	8578.94
460.85	8654.72
461.06	8597.37
461.27	8370.05
461.48	8847.22
461.69	8843.13
461.89	8456.06
462.10	8839.03
462.31	8767.35
462.52	8759.16
462.73	9004.92
462.94	9262.96
463.14	8974.20
463.35	8980.34
463.56	9551.73
463.77	9297.78
463.98	9076.60
464.18	9308.02
464.39	9383.79
464.60	9617.26
464.81	9527.15
465.02	9391.98
465.23	9668.46
465.43	9631.60
465.64	9703.28
465.85	9916.26
466.06	9516.91
466.27	10143.59
466.47	9891.69
466.68	10071.91
466.89	10102.63
467.10	10000.23
467.30	9891.69
467.51	10250.08
467.72	10350.43
467.93	10014.57
468.14	10428.26
468.34	10528.61
468.55	10303.33
468.76	10461.02
468.97	10501.98
469.17	10751.84
469.38	10764.12
469.59	10805.08
469.80	10725.21
470.01	10790.75
470.21	10841.95
470.42	10995.54
470.63	11114.33
470.84	11071.32
471.04	11220.82
471.25	11263.83
471.46	11175.77
471.67	11716.43
471.87	11239.25
472.08	11552.59
472.29	11630.41
472.50	11308.88
472.70	11546.45
472.91	11626.32
473.12	11972.43
473.33	11878.22
473.53	11915.08
473.74	11861.84
473.95	12160.84
474.16	12349.25
474.36	12105.54
474.57	12443.46
474.78	12730.17
474.99	12365.64
475.19	12490.56
475.40	12797.76
475.61	12785.47
475.81	13076.28
476.02	13070.14
476.23	13117.24
476.44	13266.74
476.64	13365.04
476.85	13553.46
477.06	13510.45
477.27	13555.51
477.47	13696.82
477.68	13768.49
477.89	13803.31
478.09	13887.28
478.30	13946.67
478.51	13983.53
478.71	14229.29
478.92	14120.74
479.13	14333.73
479.34	14255.91
479.54	14442.28
479.75	14372.64
479.96	14497.57
480.16	14677.79
480.37	14688.03
480.58	14872.35
480.78	15122.20
480.99	14802.72
481.20	15228.70
481.41	15146.78
481.61	15281.94
481.82	15413.01
482.03	15587.09
482.23	15216.41
482.44	15728.40
482.65	16006.92
482.85	16119.56
483.06	15865.61
483.27	16109.32
483.47	15986.44
483.68	16307.98
483.89	16578.31
484.09	16539.40
484.30	16258.82
484.51	16662.27
484.71	16516.87
484.92	16551.68
485.13	16889.60
485.33	16973.56
485.54	16817.92
485.75	16951.04
485.95	17264.38
486.16	17299.19
486.37	17413.88
486.57	17422.07
486.78	17319.67
486.98	17436.41
487.19	17721.07
487.40	17839.86
487.60	17735.41
487.81	18159.34
488.02	18026.22
488.22	17919.73
488.43	18355.94
488.64	18138.86
488.84	18292.46
489.05	18489.06
489.25	18792.16
489.46	18622.18
489.67	18929.38
489.87	18829.02
490.08	18951.90
490.29	18912.99
490.49	19295.96
490.70	19054.30
490.90	19318.49
491.11	19050.21
491.32	19570.39
491.52	19427.03
491.73	19607.25
491.94	19590.87
492.14	19605.20
492.35	19574.49
492.55	20149.96
492.76	20233.93
492.97	20377.29
493.17	19955.41
493.38	20262.60
493.58	20365.00
493.79	20491.98
494.00	20508.36
494.20	20588.23
494.41	20750.02
494.61	20829.89
494.82	20778.69
495.02	20618.95
495.23	21061.31
495.44	21094.08
495.64	21143.23
495.85	21227.20
496.05	21499.58
496.26	21423.80
496.47	21845.68
496.67	21528.25
496.88	21749.43
497.08	21714.61
497.29	21952.18
497.49	21786.29
497.70	22161.07
497.91	22023.86
498.11	22331.05
498.32	22345.39
498.52	22134.45
498.73	22466.22
498.93	22634.15
499.14	22464.17
499.34	22621.86
499.55	22902.43
499.76	22408.87
499.96	23066.27
500.17	22935.20
500.37	23023.26
500.58	23189.15
500.78	23316.12
500.99	23133.86
501.19	23107.23
501.40	23238.30
501.60	23461.53
501.81	23531.16
502.02	23664.28
502.22	23508.63
502.43	23735.96
502.63	23756.44
502.84	24114.83
503.04	24071.82
503.25	24123.02
503.45	24071.82
503.66	24159.89
503.86	23998.10
504.07	24168.08
504.27	24315.53
504.48	24690.31
504.68	24352.40
504.89	24841.86
505.09	24737.41
505.30	24735.37
505.50	24766.09
505.71	24757.89
505.91	25120.38
506.12	24483.47
506.32	25001.60
506.53	25220.74
506.73	25159.30
506.94	25464.44
507.14	25003.65
507.35	25407.10
507.55	25312.89
507.76	25419.39
507.96	25396.86
508.17	25517.69
508.37	25591.42
508.58	25818.74
508.78	25745.02
508.99	25974.39
509.19	26119.79
509.40	26052.21
509.60	25986.68
509.81	26089.07
510.01	25816.69
510.22	26355.31
510.42	26187.38
510.63	26261.10
510.83	26177.14
511.04	25980.53
511.24	26404.46
511.44	26478.19
511.65	26447.47
511.85	26607.21
512.06	26586.73
512.26	26777.19
512.47	27027.04
512.67	26674.79
512.88	26873.45
513.08	26779.24
513.29	26945.12
513.49	26969.70
513.69	27111.01
513.90	27397.73
514.10	26893.93
514.31	27237.98
514.51	27557.47
514.72	27014.76
514.92	27272.80
515.13	27539.04
515.33	27260.51
515.53	27444.83
515.74	27600.47
515.94	27555.42
516.15	27536.99
516.35	27856.47
516.56	27987.54
516.76	27788.89
516.96	27866.71
517.17	28280.40
517.37	28225.11
517.58	28214.87
517.78	28192.34
517.99	28399.18
518.19	28352.08
518.39	28667.47
518.60	28599.88
518.80	28374.61
519.01	28857.93
519.21	28655.18
519.41	28814.92
519.62	28730.95
519.82	28884.55
520.03	28974.66
520.23	29111.88
520.43	28593.74
520.64	29156.93
520.84	29511.23
521.05	29118.02
521.25	29644.35
521.45	29408.83
521.66	29390.40
521.86	29396.54
522.07	29453.89
522.27	29759.03
522.47	30152.24
522.68	30121.52
522.88	29838.90
523.08	30209.59
523.29	29769.27
523.49	30101.04
523.70	30430.77
523.90	30756.39
524.10	30283.31
524.31	30428.72
524.51	30258.74
524.71	30484.01
524.92	30365.23
525.12	30922.28
525.33	30875.18
525.53	30305.84
525.73	31233.57
525.94	31030.82
526.14	31110.69
526.34	31176.23
526.55	31192.61
526.75	31063.59
526.95	31788.57
527.16	31467.04
527.36	31718.94
527.56	31692.32
527.77	32073.24
527.97	31933.98
528.17	31784.48
528.38	31979.03
528.58	31905.31
528.78	32335.38
528.99	31764.00
529.19	32515.60
529.39	32445.97
529.60	32867.85
529.80	32499.22
530.00	32282.13
530.21	32978.44
530.41	33037.83
530.61	32677.39
530.82	32923.15
531.02	32519.70
531.22	33166.85
531.43	32816.65
531.63	33230.34
531.83	33207.81
532.04	33734.14
532.24	33347.08
532.44	33809.92
532.64	33721.85
532.85	33940.99
533.05	33750.52
533.25	33934.84
533.46	33979.90
533.66	34039.29
533.86	34328.05
534.07	34426.35
534.27	34620.91
534.47	34739.69
534.67	34446.83
534.88	34381.30
535.08	34794.99
535.28	34924.01
535.49	35040.75
535.69	35313.13
535.89	35186.15
536.09	35286.50
536.30	35206.63
536.50	35247.59
536.70	35366.37
536.91	35266.02
537.11	35317.22
537.31	35759.58
537.51	35626.46
537.72	35694.05
537.92	36134.36
538.12	36406.74
538.32	36521.43
538.53	36367.83
538.73	36255.19
538.93	36115.93
539.13	36300.25
539.34	36396.50
539.54	36267.48
539.74	36533.71
539.94	36599.25
540.15	36767.18
540.35	37096.91
540.55	37031.37
540.75	36632.02
540.96	37053.90
541.16	37209.54
541.36	37309.89
541.56	37287.37
541.77	37801.41
541.97	37582.27
542.17	37617.09
542.37	37572.03
542.58	37563.84
542.78	37782.98
542.98	37701.06
543.18	37987.77
543.38	38276.54
543.59	37979.58
543.79	37848.51
543.99	38030.78
544.19	38337.98
544.40	37991.87
544.60	38245.82
544.80	38247.86
545.00	38309.30
545.20	38731.18
545.41	38653.36
545.61	38571.44
545.81	38432.18
546.01	38905.26
546.21	38888.88
546.42	38661.55
546.62	39349.67
546.82	38766.00
547.02	38862.26
547.22	38987.18
547.43	39044.52
547.63	39511.46
547.83	39335.34
548.03	39181.74
548.23	39404.97
548.44	39255.46
548.64	39656.87
548.84	39384.49
549.04	39574.95
549.24	39871.90
549.45	40226.20
549.65	39923.10
549.85	39476.65
550.05	40064.41
550.25	39851.42
550.45	40732.05
550.66	39853.47
550.86	40181.15
551.06	40732.05
551.26	40533.40
551.46	40494.49
551.66	40121.76
551.87	40476.05
552.07	40764.82
552.27	40265.11
552.47	40861.07
552.67	40867.22
552.87	40725.91
553.07	40596.88
553.28	40803.73
553.48	41074.06
553.68	40820.11
553.88	41403.78
554.08	41264.52
554.28	40965.52
554.48	40977.81
554.69	41213.32
554.89	41100.68
555.09	41467.27
555.29	41149.84
555.49	41409.93
555.69	41399.69
555.89	41067.92
556.10	41651.59
556.30	41530.76
556.50	41715.08
556.70	41500.04
556.90	41993.60
557.10	41850.24
557.30	41446.79
557.50	42139.00
557.70	41799.04
557.91	41823.62
558.11	42020.22
558.31	42104.19
558.51	42071.42
558.71	42001.79
558.91	42321.27
559.11	41753.99
559.31	42175.87
559.51	42280.31
559.72	41915.78
559.92	42239.36
560.12	42382.71
560.32	42483.06
560.52	42503.54
560.72	42818.93
560.92	42388.86
561.12	42567.03
561.32	42775.92
561.52	42863.99
561.72	43228.52
561.93	42747.25
562.13	42775.92
562.33	42823.03
562.53	43300.20
562.73	42614.13
562.93	42964.34
563.13	43117.93
563.33	42788.21
563.53	42966.38
563.73	43400.55
563.93	43337.07
564.13	43670.89
564.33	43279.72
564.53	43425.13
564.74	43502.95
564.94	43173.23
565.14	43664.74
565.34	43359.59
565.54	43814.24
565.74	43750.76
565.94	44229.98
566.14	43883.87
566.34	44066.14
566.54	44256.60
566.74	43591.01
566.94	43971.94
567.14	43832.68
567.34	43871.59
567.54	43767.14
567.74	43906.40
567.94	43937.12
568.14	44701.01
568.34	44363.10
568.54	44049.76
568.74	44152.16
568.94	44268.89
569.14	44619.10
569.34	44344.67
569.54	44801.36
569.75	44305.76
569.95	44641.62
570.15	44696.92
570.35	44916.05
570.55	44361.05
570.75	44467.55
570.95	44856.66
571.15	44399.96
571.35	44692.82
571.55	45198.67
571.75	44739.93
571.95	45106.51
572.15	44844.37
572.35	45223.25
572.55	45122.90
572.75	45024.59
572.95	45051.22
573.15	45573.45
573.35	45292.88
573.55	44961.11
573.75	45137.23
573.95	45786.44
574.15	45143.38
574.35	45614.41
574.55	45444.43
574.75	45440.33
574.95	45770.05
575.15	45722.95
575.34	45768.01
575.54	46089.54
575.74	45512.01
575.94	45745.48
576.14	45696.33
576.34	46409.02
576.54	46474.55
576.74	46081.34
576.94	46167.36
577.14	46175.55
577.34	46406.97
577.54	45864.26
577.74	46220.61
577.94	46185.79
578.14	46392.64
578.34	46863.67
578.54	45872.45
578.74	46292.29
578.94	46222.65
579.14	46417.21
579.34	46130.50
579.54	46740.79
579.74	46908.72
579.94	46763.32
580.13	46847.29
580.33	46984.50
580.53	47052.08
580.73	46937.40
580.93	47007.03
581.13	46746.93
581.33	47193.39
581.53	47273.26
581.73	47050.03
581.93	47191.34
582.13	47539.50
582.33	47433.00
582.53	47289.65
582.73	47076.66
582.92	47041.84
583.12	47494.44
583.32	47623.47
583.52	47521.07
583.72	47555.88
583.92	47699.24
584.12	48168.22
584.32	48399.65
584.52	47848.74
584.72	48190.75
584.92	47967.52
585.11	48473.37
585.31	48258.34
585.51	48139.55
585.71	48149.79
585.91	48491.80
586.11	48272.67
586.31	48059.68
586.51	48454.94
586.71	48368.93
586.91	48723.22
587.10	48639.26
587.30	48749.85
587.50	48428.32
587.70	48719.13
587.90	48944.41
588.10	48616.73
588.30	48774.42
588.50	49104.15
588.69	48796.95
588.89	48469.28
589.09	49210.64
589.29	49208.59
589.49	49042.71
589.69	48715.03
589.89	48997.65
590.08	48657.69
590.28	49169.68
590.48	49519.88
590.68	49149.20
590.88	49413.39
591.08	49558.80
591.28	49093.91
591.47	49300.75
591.67	49249.55
591.87	49429.77
592.07	49624.33
592.27	49575.18
592.47	49239.31
592.67	49644.81
592.86	49227.02
593.06	49440.01
593.26	49884.42
593.46	49775.88
593.66	49536.27
593.86	49818.89
594.05	50267.39
594.25	49835.27
594.45	49560.84
594.65	49929.48
594.85	49550.60
595.05	50113.80
595.24	50146.56
595.44	49982.73
595.64	49974.53
595.84	50070.79
596.04	49935.62
596.23	49812.74
596.43	50457.85
596.63	50111.75
596.83	50623.74
597.03	50820.34
597.22	51084.53
597.42	50507.01
597.62	50492.67
597.82	50662.65
598.02	50398.46
598.21	50828.54
598.41	50752.76
598.61	50554.11
598.81	51012.85
599.01	50992.37
599.20	51107.06
599.40	50437.37
599.60	51309.81
599.80	50832.63
600.00	51180.79
600.19	51320.05
600.39	51043.57
600.59	51473.65
600.79	51139.83
600.98	51027.19
601.18	51588.33
601.38	51537.13
601.58	51334.38
601.78	51379.44
601.97	51074.29
602.17	51660.01
602.37	51485.93
602.57	51430.64
602.76	51631.34
602.96	51801.32
603.16	52245.73
603.36	51868.90
603.55	52184.29
603.75	51799.27
603.95	51825.90
604.15	52303.07
604.34	52358.37
604.54	51791.08
604.74	52743.39
604.94	52354.27
605.13	52225.25
605.33	52509.92
605.53	52096.23
605.73	52475.10
605.92	52286.69
606.12	52927.70
606.32	52477.15
606.52	52526.30
606.71	52409.57
606.91	52622.56
607.11	52491.49
607.30	53114.07
607.50	52892.89
607.70	53359.83
607.90	52606.17
608.09	52839.64
608.29	53335.25
608.49	53249.24
608.68	53296.34
608.88	53097.69
609.08	53130.45
609.28	53501.14
609.47	53286.10
609.67	53654.73
609.87	53136.60
610.06	53828.81
610.26	53697.74
610.46	53402.83
610.66	53411.02
610.85	53449.94
611.05	52888.79
611.25	53417.17
611.44	53296.34
611.64	53638.35
611.84	53382.35
612.03	53470.42
612.23	54117.57
612.43	54064.33
612.62	53001.43
612.82	53888.20
613.02	53564.62
613.21	53714.12
613.41	53658.83
613.61	54240.45
613.80	53462.22
614.00	53621.97
614.20	53716.17
614.39	54131.91
614.59	54076.61
614.79	53904.59
614.98	53775.56
615.18	53970.12
615.38	53705.93
615.57	53789.90
615.77	54211.78
615.97	53724.36
616.16	53804.24
616.36	53671.12
616.56	54236.36
616.75	54287.56
616.95	53998.79
617.15	54095.05
617.34	54086.85
617.54	54564.03
617.74	54572.22
617.93	54293.70
618.13	53695.69
618.32	54557.89
618.52	54226.12
618.72	54119.62
618.91	54543.55
619.11	53454.03
619.31	54148.29
619.50	54207.68
619.70	53986.50
619.90	54260.93
620.09	53828.81
620.29	54224.07
620.48	53949.64
620.68	54805.69
620.88	54088.90
621.07	54131.91
621.27	54578.37
621.46	53599.44
621.66	54224.07
621.86	54314.18
622.05	53402.83
622.25	54686.91
622.44	53898.44
622.64	53972.17
622.84	54373.57
623.03	53771.47
623.23	53837.00
623.42	54340.80
623.62	54219.97
623.82	54965.43
624.01	54525.12
624.21	53988.55
624.40	54086.85
624.60	54252.74
624.80	54101.19
624.99	53970.12
625.19	54086.85
625.38	54701.25
625.58	54852.80
625.77	54455.49
625.97	54424.77
626.17	54144.20
626.36	54648.00
626.56	54535.36
626.75	53978.31
626.95	54764.73
627.14	54197.44
627.34	54508.74
627.54	54514.88
627.73	54226.12
627.93	54392.00
628.12	53863.63
628.32	54355.14
628.51	54351.04
628.71	54213.83
628.90	54478.02
629.10	54457.54
629.30	54498.50
629.49	54299.84
629.69	54871.23
629.88	54510.78
630.08	55037.11
630.27	54686.91
630.47	54555.84
630.66	54967.48
630.86	55096.50
631.05	54267.08
631.25	55196.85
631.44	54703.29
631.64	54518.98
631.84	54443.20
632.03	54754.49
632.23	55444.66
632.42	54830.27
632.62	55166.13
632.81	54566.08
633.01	54727.87
633.20	54987.96
633.40	55157.94
633.59	55008.44
633.79	54695.10
633.98	54711.49
634.18	54648.00
634.37	54916.28
634.57	54570.18
634.76	54789.31
634.96	54746.30
635.15	55112.89
635.35	54858.94
635.54	54893.75
635.74	55397.55
635.93	54881.47
636.13	55483.57
636.32	55243.96
636.52	54793.40
636.71	55123.13
636.91	54959.29
637.10	55129.27
637.30	54695.10
637.49	54920.38
637.69	54903.99
637.88	55422.13
638.08	54920.38
638.27	55280.82
638.46	55174.33
638.66	54994.10
638.85	55452.85
639.05	55706.80
639.24	55461.04
639.44	55041.21
639.63	54895.80
639.83	55309.49
640.02	55205.05
640.22	55237.81
640.41	55596.21
640.61	55018.68
640.80	55678.13
640.99	55233.72
641.19	55727.28
641.38	55448.75
641.58	55346.36
641.77	55182.52
641.97	55407.79
642.16	55395.51
642.36	55860.40
642.55	55991.47
642.74	54826.17
642.94	55792.81
643.13	55401.65
643.33	55807.15
643.52	55377.08
643.72	55932.07
643.91	55473.33
644.10	55985.32
644.30	55844.01
644.49	55968.94
644.69	55735.47
644.88	56054.95
645.08	55514.29
645.27	55829.68
645.46	55262.39
645.66	56046.76
645.85	55596.21
646.05	55612.59
646.24	56071.34
646.43	56218.79
646.63	56153.26
646.82	56165.54
647.02	56038.57
647.21	56374.44
647.40	55958.70
647.60	56104.10
647.79	55819.44
647.99	55964.84
648.18	55958.70
648.37	56624.29
648.57	56147.11
648.76	56339.62
648.96	55854.25
649.15	56931.48
649.34	56269.99
649.54	56661.15
649.73	56278.18
649.92	56233.13
650.12	56028.33
650.31	56376.48
650.51	56263.85
650.70	56534.18
650.89	56390.82
651.09	56525.99
651.28	56001.71
651.47	56482.98
651.67	56581.28
651.86	56716.45
652.06	56020.14
652.25	56730.78
652.44	56341.67
652.64	55794.86
652.83	56118.44
653.02	56179.88
653.22	56579.23
653.41	56161.45
653.60	56300.71
653.80	55940.27
653.99	56517.79
654.18	56079.53
654.38	56226.98
654.57	56394.92
654.76	56528.03
654.96	56224.93
655.15	56513.70
655.34	56388.77
655.54	56130.73
655.73	56370.34
655.92	56585.38
656.12	56317.09
656.31	56525.99
656.50	56245.41
656.70	56468.64
656.89	56286.37
657.08	56237.22
657.28	56356.00
657.47	56194.21
657.66	56505.51
657.86	56177.83
658.05	56177.83
658.24	56509.60
658.43	56206.50
658.63	56300.71
658.82	56751.26
659.01	56624.29
659.21	56403.11
659.40	56523.94
659.59	56120.49
659.79	56599.71
659.98	56546.47
660.17	56554.66
660.36	56491.17
660.56	56607.90
660.75	56589.47
660.94	56695.97
661.14	56267.94
661.33	56120.49
661.52	55989.42
661.71	56759.45
661.91	56452.26
662.10	56173.73
662.29	56476.83
662.49	56480.93
662.68	56605.86
662.87	56210.60
663.06	56349.86
663.26	56781.98
663.45	56140.97
663.64	56540.32
663.83	56947.87
664.03	56638.62
664.22	56521.89
664.41	56226.98
664.60	56284.33
664.80	56038.57
664.99	56566.94
665.18	56140.97
665.37	56284.33
665.57	56849.56
665.76	56251.56
665.95	56069.29
666.14	56368.29
666.34	56325.28
666.53	56413.35
666.72	56286.37
666.91	56020.14
667.11	55798.96
667.30	56394.92
667.49	56298.66
667.68	56462.50
667.87	56032.42
668.07	56310.95
668.26	55932.07
668.45	56140.97
668.64	56212.65
668.84	56630.43
669.03	56372.39
669.22	56145.06
669.41	56452.26
669.60	56456.35
669.80	55782.57
669.99	56292.52
670.18	56059.05
670.37	56339.62
670.57	56300.71
670.76	55948.46
670.95	56026.28
671.14	56065.19
671.33	56034.47
671.53	56718.49
671.72	56263.85
671.91	55833.77
672.10	56136.87
672.29	55719.09
672.48	56009.90
672.68	56665.25
672.87	55702.70
673.06	55712.94
673.25	55450.80
673.44	55962.79
673.64	56020.14
673.83	55633.07
674.02	55645.36
674.21	55639.22
674.40	55903.40
674.59	55639.22
674.79	55426.23
674.98	55440.56
675.17	56237.22
675.36	55415.99
675.55	55526.58
675.74	55610.54
675.94	55547.06
676.13	55313.59
676.32	55651.50
676.51	56009.90
676.70	56100.01
676.89	55588.02
677.08	56161.45
677.28	55661.74
677.47	55680.17
677.66	56075.43
677.85	55907.50
678.04	56020.14
678.23	55604.40
678.42	56052.90
678.62	55899.31
678.81	56200.36
679.00	55891.12
679.19	56106.15
679.38	55817.39
679.57	55557.30
679.76	55628.98
679.96	55866.54
680.15	55714.99
680.34	55407.79
680.53	55327.92
680.72	55776.43
680.91	55950.51
681.10	55264.44
681.29	55366.84
681.48	55678.13
681.68	55553.20
681.87	55284.92
682.06	55436.47
682.25	55073.98
682.44	54981.82
682.63	55583.92
682.82	55436.47
683.01	55014.58
683.20	55172.28
683.39	55575.73
683.59	55170.23
683.78	55510.19
683.97	55248.05
684.16	55266.48
684.35	54994.10
684.54	54985.91
684.73	54756.54
684.92	54981.82
685.11	55121.08
685.30	54494.40
685.49	55313.59
685.69	54912.19
685.88	55293.11
686.07	54670.53
686.26	55243.96
686.45	54951.10
686.64	55182.52
686.83	54770.88
687.02	54908.09
687.21	55045.30
687.40	54858.94
687.59	54889.66
687.78	55274.68
687.97	55168.18
688.16	54602.94
688.35	54594.75
688.54	54807.74
688.74	54940.86
688.93	54490.30
689.12	54949.05
689.31	55133.37
689.50	54738.11
689.69	54645.95
689.88	54621.37
690.07	54316.23
690.26	54832.32
690.45	55162.04
690.64	54811.84
690.83	54617.28
691.02	54537.41
691.21	54480.06
691.40	54441.15
691.59	54916.28
691.78	54525.12
691.97	54807.74
692.16	54547.65
692.35	54930.62
692.54	54392.00
692.73	54768.83
692.92	54348.99
693.11	54426.82
693.30	54613.18
693.49	54572.22
693.68	54465.73
693.87	54322.37
694.06	54176.97
694.25	54146.25
694.44	54199.49
694.63	54047.94
694.82	54293.70
695.01	54041.80
695.20	54303.94
695.39	54226.12
695.58	54318.28
695.77	54015.18
695.96	53949.64
696.15	54133.96
696.34	54019.27
696.53	53933.26
696.72	54285.51
696.91	53269.72
697.10	54203.59
697.29	53574.86
697.48	53976.26
697.67	53806.28
697.86	53761.23
698.05	53198.04
698.24	54242.50
698.43	53613.77
698.62	53458.13
698.81	53400.79
699.00	54168.77
699.19	53535.95
699.38	53720.27
699.57	53427.41
699.76	54314.18
699.95	53218.52
700.14	53736.65
700.32	53353.68
700.51	53550.29
700.70	53796.04
700.89	53945.54
701.08	53433.55
701.27	53302.48
701.46	53552.33
701.65	52714.72
701.84	53785.80
702.03	53679.31
702.22	53177.56
702.41	53458.13
702.60	53884.11
702.79	53228.76
702.98	53124.31
703.17	52849.88
703.35	53107.93
703.54	53083.35
703.73	53388.50
703.92	52946.14
704.11	53026.01
704.30	52989.14
704.49	52585.69
704.68	53048.53
704.87	53056.73
705.06	52765.91
705.25	52821.21
705.43	52671.71
705.62	53441.74
705.81	53077.21
706.00	52864.22
706.19	52450.53
706.38	52528.35
706.57	52028.65
706.76	53304.53
706.95	52810.97
707.14	52563.17
707.32	52489.44
707.51	52284.64
707.70	52317.41
707.89	52417.76
708.08	52669.66
708.27	52505.82
708.46	52778.20
708.65	52573.41
708.84	52794.59
709.02	52808.92
709.21	52659.42
709.40	52522.21
709.59	52739.29
709.78	52233.44
709.97	52665.56
710.16	52061.41
710.34	52452.58
710.53	52215.01
710.72	52233.44
710.91	52327.65
711.10	52534.49
711.29	52638.94
711.48	52452.58
711.66	52241.63
711.85	51721.45
712.04	52278.50
712.23	52286.69
712.42	52032.74
712.61	52180.20
712.80	51578.09
712.98	52059.37
713.17	51418.35
713.36	52290.79
713.55	51608.81
713.74	51674.35
713.93	51999.97
714.11	51819.75
714.30	51676.40
714.49	51600.62
714.68	51852.52
714.87	51969.26
715.06	51743.98
715.24	52036.84
715.43	51836.14
715.62	51246.32
715.81	51612.91
716.00	51678.44
716.18	51436.78
716.37	51123.44
716.56	51051.76
716.75	51508.46
716.94	51186.93
717.12	51311.86
717.31	51344.62
717.50	51217.65
717.69	51127.54
717.88	51459.31
718.06	51631.34
718.25	51401.97
718.44	51195.12
718.63	51207.41
718.82	50795.77
719.00	50828.54
719.19	50834.68
719.38	50777.34
719.57	50625.79
719.76	50181.38
719.94	50251.01
720.13	50887.93
720.32	50609.40
720.51	50316.54
720.69	50564.35
720.88	50263.30
721.07	50156.80
721.26	50136.32
721.44	50210.05
721.63	49644.81
721.82	49939.72
722.01	49968.39
722.20	50316.54
722.38	50171.14
722.57	49521.93
722.76	49716.49
722.95	49886.47
723.13	49214.74
723.32	49257.74
723.51	49779.98
723.70	49354.00
723.88	48921.88
724.07	49345.81
724.26	49689.87
724.44	48817.43
724.63	49782.02
724.82	49421.58
725.01	49374.48
725.19	49052.95
725.38	48706.84
725.57	49204.50
725.76	48852.25
725.94	48876.82
726.13	49333.52
726.32	48962.84
726.51	48704.79
726.69	49294.61
726.88	49132.82
727.07	49288.46
727.25	48878.87
727.44	49278.22
727.63	48948.50
727.82	49005.84
728.00	48989.46
728.19	48887.06
728.38	49286.42
728.56	48387.36
728.75	48842.01
728.94	48612.63
729.12	49153.30
729.31	48780.57
729.50	49044.76
729.69	48854.29
729.87	48479.52
730.06	48629.02
730.25	49181.97
730.43	49018.13
730.62	48469.28
730.81	48413.98
730.99	48655.64
731.18	48440.60
731.37	48659.74
731.55	48629.02
731.74	49288.46
731.93	48823.58
732.11	48706.84
732.30	48928.02
732.49	48520.48
732.67	48645.40
732.86	48809.24
733.05	48723.22
733.23	48344.35
733.42	48780.57
733.61	48428.32
733.79	48483.61
733.98	48422.17
734.17	48434.46
734.35	48184.61
734.54	48504.09
734.73	49100.05
734.91	48543.00
735.10	47875.37
735.29	48493.85
735.47	48131.36
735.66	48018.72
735.84	48227.62
736.03	48387.36
736.22	48543.00
736.40	47885.61
736.59	48280.86
736.78	48026.92
736.96	47916.32
737.15	48213.28
737.33	47998.24
737.52	48033.06
737.71	47715.62
737.89	47957.28
738.08	48055.59
738.27	47723.82
738.45	47891.75
738.64	47676.71
738.82	48037.16
739.01	47674.66
739.20	47590.70
739.38	47459.63
739.57	47711.53
739.75	47840.55
739.94	47473.96
740.13	47451.44
740.31	47922.47
740.50	47676.71
740.68	47607.08
740.87	47895.85
741.06	47584.55
741.24	47351.09
741.43	47226.16
741.61	47469.87
741.80	47365.42
741.99	47043.89
742.17	47428.91
742.36	47541.55
742.54	46984.50
742.73	47140.14
742.91	47295.79
743.10	47258.93
743.29	47533.35
743.47	47476.01
743.66	47549.74
743.84	47172.91
744.03	47349.04
744.21	46734.65
744.40	47682.86
744.59	47050.03
744.77	46775.61
744.96	46961.97
745.14	46402.88
745.33	47074.61
745.51	46861.62
745.70	46929.20
745.88	46931.25
746.07	46472.51
746.26	46073.15
746.44	46073.15
746.63	46421.31
746.81	46630.20
747.00	46351.68
747.18	46644.54
747.37	46546.23
747.55	46624.06
747.74	46595.38
747.92	46200.13
748.11	45923.65
748.29	46460.22
748.48	46030.15
748.66	45856.07
748.85	45628.74
749.03	46134.59
749.22	46204.22
749.41	46175.55
749.59	46177.60
749.78	45561.16
749.96	45725.00
750.15	46001.47
750.33	45856.07
750.52	45899.08
750.70	45868.36
750.89	45675.85
751.07	45401.42
751.26	45735.24
751.44	45692.23
751.63	45792.58
751.81	45432.14
752.00	45307.21
752.18	45495.63
752.37	45563.21
752.55	45163.85
752.74	44862.80
752.92	45219.15
753.10	45110.61
753.29	45307.21
753.47	45051.22
753.66	44381.53
753.84	45040.98
754.03	44707.16
754.21	44750.17
754.40	45264.21
754.58	45004.11
754.77	44866.90
754.95	44582.23
755.14	44541.27
755.32	44664.15
755.51	44576.09
755.69	44137.82
755.88	44914.00
756.06	44987.73
756.24	44551.51
756.43	44426.59
756.61	44303.71
756.80	44490.07
756.98	44070.24
757.17	44571.99
757.35	44285.28
757.54	44162.40
757.72	44156.25
757.90	44166.49
758.09	44080.48
758.27	43562.34
758.46	43595.11
758.64	44174.69
758.83	44438.87
759.01	43914.59
759.19	43758.95
759.38	43867.49
759.56	44127.58
759.75	43591.01
759.93	43390.31
760.12	43390.31
760.30	43656.55
760.48	43505.00
760.67	43826.53
760.85	43648.36
761.04	43582.82
761.22	43779.43
761.40	43439.47
761.59	43697.51
761.77	43242.86
761.96	43496.81
762.14	43048.30
762.32	42794.36
762.51	43310.44
762.69	42755.44
762.88	43246.96
763.06	43421.03
763.24	43060.59
763.43	43093.36
763.61	42800.50
763.80	42980.72
763.98	42775.92
764.16	42483.06
764.35	42517.88
764.53	42149.24
764.72	42421.62
764.90	42732.92
765.08	42526.07
765.27	42673.52
765.45	42478.97
765.63	41979.26
765.82	42212.73
766.00	41821.57
766.18	42169.72
766.37	42089.85
766.55	42227.07
766.74	41934.21
766.92	42083.71
767.10	41743.75
767.29	41405.83
767.47	41569.67
767.65	41563.53
767.84	41313.67
768.02	42038.65
768.20	41606.53
768.39	41944.45
768.57	41710.98
768.75	41459.08
768.94	41649.54
769.12	41936.26
769.30	41584.01
769.49	41450.89
769.67	41049.49
769.85	41024.91
770.04	41276.81
770.22	40781.20
770.40	40879.50
770.59	40713.62
770.77	41037.20
770.95	41184.65
771.14	40902.03
771.32	40523.16
771.50	40560.02
771.69	40633.75
771.87	40920.46
772.05	40824.21
772.24	40418.71
772.42	40287.64
772.60	40416.66
772.78	40414.62
772.97	40322.46
773.15	40648.08
773.33	40623.51
773.52	40250.78
773.70	40482.20
773.88	40207.77
774.07	40334.74
774.25	40242.59
774.43	40383.90
774.61	40476.05
774.80	40621.46
774.98	40324.50
775.16	40373.66
775.34	40453.53
775.53	40019.36
775.71	40488.34
775.89	40168.86
776.08	40154.52
776.26	40414.62
776.44	40543.64
776.62	40140.19
776.81	40123.80
776.99	40650.13
777.17	40220.06
777.35	40719.76
777.54	40736.15
777.72	40019.36
777.90	40506.77
778.08	40566.16
778.27	40408.47
778.45	40474.01
778.63	40654.23
778.81	40289.69
779.00	41000.33
779.18	40590.74
779.36	41110.92
779.54	40672.66
779.73	40764.82
779.91	40730.00
780.09	40543.64
780.27	41115.02
780.46	40449.43
780.64	41260.43
780.82	40807.83
781.00	40863.12
781.19	41272.71
781.37	41334.15
781.55	41309.58
781.73	41285.00
781.91	40875.41
782.10	41231.75
782.28	40807.83
782.46	40908.18
782.64	41424.26
782.82	40953.23
783.01	41045.39
783.19	41422.22
783.37	41209.23
783.55	40947.09
783.74	41221.52
783.92	40793.49
784.10	41610.63
784.28	40730.00
784.46	40924.56
784.64	40721.81
784.83	41076.11
785.01	41397.64
785.19	41399.69
785.37	41006.48
785.55	41012.62
785.74	40420.76
785.92	40797.59
786.10	41164.17
786.28	40916.37
786.46	40922.51
786.64	40621.46
786.83	40906.13
787.01	40902.03
787.19	40836.50
787.37	40474.01
787.55	40766.87
787.74	40662.42
787.92	40932.75
788.10	40310.17
788.28	40121.76
788.46	40596.88
788.64	40207.77
788.82	40721.81
789.01	40279.45
789.19	40433.05
789.37	40181.15
789.55	40261.02
789.73	39849.38
789.91	39968.16
790.09	39816.61
790.28	39769.51
790.46	39458.21
790.64	39902.62
790.82	40183.19
791.00	39411.11
791.18	39714.21
791.36	39617.96
791.55	40000.93
791.73	39470.50
791.91	39533.99
792.09	39316.90
792.27	39400.87
792.45	39341.48
792.63	39394.73
792.81	39183.79
793.00	39214.51
793.18	39392.68
793.36	39056.81
793.54	38821.30
793.72	38581.68
793.90	38747.57
794.08	38622.64
794.26	38872.49
794.44	37791.17
794.62	38114.75
794.81	38600.12
794.99	38280.63
795.17	38112.70
795.35	38364.60
795.53	38088.12
795.71	38280.63
795.89	37674.43
796.07	37809.60
796.25	37809.60
796.43	37477.83
796.61	37477.83
796.80	37443.01
796.98	37557.70
797.16	37338.57
797.34	37322.18
797.52	37258.70
797.70	37148.11
797.88	37062.09
798.06	36797.90
798.24	36758.99
798.42	37021.13
798.60	36746.70
798.78	36857.29
798.96	36820.43
799.14	36509.14
799.32	36408.79
799.51	35933.66
799.69	36494.80
799.87	36449.75
800.05	36160.98
800.23	36179.42
800.41	35872.22
800.59	36244.95
800.77	35767.77
800.95	35657.18
801.13	35694.05
801.31	35751.39
801.49	35515.87
801.67	35384.80
801.85	35595.74
802.03	35300.84
802.21	35358.18
802.39	34913.77
802.57	35014.12
802.75	34946.54
802.93	34969.07
803.11	34930.16
803.29	34700.78
803.47	34405.88
803.65	34465.27
803.83	34711.02
804.01	34690.54
804.19	34053.62
804.37	34047.48
804.55	34137.59
804.73	34039.29
804.91	34256.37
805.09	34182.65
805.27	33965.56
805.45	34209.27
805.63	34143.74
805.81	34203.13
805.99	34323.96
806.17	34002.43
806.35	33568.26
806.53	33543.68
806.71	33805.82
806.89	33431.04
807.07	33617.41
807.25	33689.09
807.43	33316.36
807.61	33719.81
807.79	32962.06
807.97	32894.47
808.15	33117.70
808.33	33086.98
808.51	32665.10
808.69	33101.32
808.87	32742.92
809.05	32665.10
809.23	32618.00
809.41	32628.24
809.59	32460.30
809.77	32710.16
809.95	32394.77
810.13	32564.75
810.31	32114.20
810.49	32402.96
810.67	32136.73
810.84	32351.76
811.02	32130.58
811.20	31931.93
811.38	31860.25
811.56	32044.57
811.74	31764.00
811.92	31667.74
812.10	31948.31
812.28	31766.04
812.46	31452.70
812.64	31798.81
812.82	31602.21
813.00	31729.18
813.18	31374.88
813.36	31102.50
813.53	31254.05
813.71	31553.05
813.89	31393.31
814.07	31331.87
814.25	31510.05
814.43	30932.52
814.61	31239.72
814.79	30998.06
814.97	30834.22
815.15	30905.90
815.33	30467.63
815.50	30869.03
815.68	30524.97
815.86	30928.42
816.04	30654.00
816.22	30588.46
816.40	30438.96
816.58	30557.74
816.76	30563.89
816.94	30660.14
817.11	30252.59
817.29	30182.96
817.47	29996.60
817.65	30037.56
817.83	30236.21
818.01	30041.65
818.19	29845.05
818.37	29888.06
818.54	29693.50
818.72	29515.33
818.90	29685.31
819.08	29886.01
819.26	29744.70
819.44	29779.51
819.62	29793.85
819.80	30060.09
819.97	29556.28
820.15	29517.37
820.33	29353.54
820.51	29732.41
820.69	29449.79
820.87	29636.16
821.05	29505.09
821.22	29218.37
821.40	29238.85
821.58	29036.10
821.76	29077.06
821.94	29036.10
822.12	29052.48
822.29	29064.77
822.47	28702.28
822.65	28956.23
822.83	28999.24
823.01	28880.46
823.19	28491.34
823.36	28536.40
823.54	28837.45
823.72	28270.16
823.90	28565.07
824.08	28216.91
824.25	28511.82
824.43	28427.85
824.61	28311.12
824.79	28298.83
824.97	28046.93
825.15	28624.46
825.32	28151.38
825.50	28286.54
825.68	28003.92
825.86	28356.18
826.04	28364.37
826.21	28134.99
826.39	28048.98
826.57	27958.87
826.75	27977.30
826.93	27745.88
827.10	27782.74
827.28	27950.68
827.46	28044.88
827.64	27604.57
827.81	27586.14
827.99	27766.36
828.17	27457.12
828.35	27301.47
828.53	27317.86
828.70	27319.90
828.88	27391.58
829.06	27502.17
829.24	27739.74
829.41	27289.18
829.59	27410.01
829.77	27342.43
829.95	27235.94
830.12	27250.27
830.30	27229.79
830.48	27407.97
830.66	27309.66
830.84	27086.43
831.01	27082.34
831.19	26996.32
831.37	27158.11
831.55	26920.55
831.72	26990.18
831.90	26908.26
832.08	26951.27
832.25	27051.62
832.43	26537.58
832.61	26871.40
832.79	26553.96
832.96	26678.89
833.14	26910.31
833.32	26820.20
833.50	26832.49
833.67	26832.49
833.85	26363.50
834.03	26547.82
834.20	26674.79
834.38	26783.34
834.56	26682.98
834.74	26424.94
834.91	26433.13
835.09	26463.85
835.27	26111.60
835.44	26351.21
835.62	26087.03
835.80	26021.49
835.98	26185.33
836.15	26089.07
836.33	25857.65
836.51	26017.40
836.68	25747.06
836.86	25620.09
837.04	25890.42
837.21	26140.27
837.39	26097.27
837.57	26003.06
837.75	25667.19
837.92	25253.50
838.10	25575.03
838.28	25253.50
838.45	25685.62
838.63	25292.41
838.81	25681.53
838.98	25302.65
839.16	25452.16
839.34	25333.37
839.51	25179.78
839.69	25144.96
839.87	25304.70
840.04	25095.81
840.22	25597.56
840.40	25294.46
840.57	24913.54
840.75	24983.17
840.93	24960.64
841.10	25130.62
841.28	25507.45
841.46	25239.17
841.63	24874.63
841.81	25161.34
841.98	24970.88
842.16	25020.03
842.34	25020.03
842.51	24811.14
842.69	25120.38
842.87	25003.65
843.04	25026.18
843.22	24782.47
843.40	24983.17
843.57	25020.03
843.75	25058.95
843.92	24792.71
844.10	24485.51
844.28	24827.53
844.45	24456.84
844.63	24860.29
844.81	24747.65
844.98	24577.67
845.16	24491.66
845.33	24553.10
845.51	24297.10
845.69	24383.12
845.86	24172.18
846.04	24274.57
846.21	24069.78
846.39	24379.02
846.57	23961.23
846.74	24229.52
846.92	24020.63
847.09	23985.81
847.27	23840.40
847.45	23844.50
847.62	24020.63
847.80	24331.92
847.97	23758.49
848.15	23729.81
848.32	23772.82
848.50	23842.45
848.68	23907.99
848.85	23641.75
849.03	23320.22
849.20	23842.45
849.38	23834.26
849.56	23656.09
849.73	23572.12
849.91	23496.35
850.08	23590.55
850.26	23340.70
850.43	23352.99
850.61	23549.59
850.78	23002.78
850.96	23525.02
851.14	23309.98
851.31	23469.72
851.49	23301.79
851.66	23361.18
851.84	23246.49
852.01	23428.76
852.19	23393.95
852.36	22951.59
852.54	23328.41
852.71	23119.52
852.89	22900.39
853.07	23008.93
853.24	23008.93
853.42	22765.22
853.59	23037.60
853.77	22910.63
853.94	22824.61
854.12	23140.00
854.29	22290.09
854.47	23115.42
854.64	22640.29
854.82	22890.15
854.99	22910.63
855.17	22646.44
855.34	22525.61
855.52	22595.24
855.69	22660.77
855.87	22486.70
856.04	22324.91
856.22	22300.33
856.39	22400.68
856.57	22404.78
856.74	22298.28
856.92	22519.46
857.09	22312.62
857.27	22439.59
857.44	22343.34
857.62	22308.52
857.79	22212.27
857.97	22095.53
858.14	22302.38
858.32	22240.94
858.49	22378.15
858.67	22228.65
858.84	22066.86
859.02	21913.27
859.19	21954.22
859.37	21667.51
859.54	22062.77
859.72	22273.71
859.89	21894.83
860.06	22066.86
860.24	21653.17
860.41	21968.56
860.59	21673.65
860.76	21644.98
860.94	21624.50
861.11	21663.41
861.29	21726.90
861.46	21513.91
861.64	21401.27
861.81	21329.59
861.98	21608.12
862.16	21472.95
862.33	21333.69
862.51	21393.08
862.68	21655.22
862.86	21223.10
863.03	21036.74
863.21	21319.35
863.38	21165.76
863.55	21135.04
863.73	21229.24
863.90	21096.13
864.08	21114.56
864.25	21094.08
864.43	21227.20
864.60	21255.87
864.77	20985.54
864.95	20891.33
865.12	20950.72
865.30	20995.78
865.47	21071.55
865.64	20883.14
865.82	20825.79
865.99	20991.68
866.17	20790.98
866.34	21167.80
866.51	20643.52
866.69	20870.85
866.86	20676.29
867.04	20815.55
867.21	20635.33
867.38	20307.66
867.56	20483.78
867.73	20379.34
867.91	20453.06
868.08	20432.58
868.25	20201.16
868.43	20418.25
868.60	20168.40
868.78	20207.31
868.95	20278.99
869.12	20115.15
869.30	20244.17
869.47	20195.02
869.64	19734.23
869.82	19793.62
869.99	20354.76
870.16	20010.70
870.34	19828.43
870.51	19992.27
870.69	19654.36
870.86	19961.55
871.03	19791.57
871.21	19627.73
871.38	19838.67
871.55	19590.87
871.73	19494.61
871.90	19490.52
872.07	19355.35
872.25	19308.25
872.42	19173.08
872.59	19304.15
872.77	19257.05
872.94	19072.73
873.11	19353.30
873.29	19183.32
873.46	19050.21
873.63	19044.06
873.81	19042.01
873.98	18833.12
874.15	18890.46
874.33	19121.88
874.50	18904.80
874.67	19060.45
874.85	19029.73
875.02	18824.93
875.19	18753.25
875.37	18687.71
875.54	18560.74
875.71	18892.51
875.88	18386.66
876.06	18556.64
876.23	18695.91
876.40	18435.81
876.58	18444.01
876.75	18595.56
876.92	18380.52
877.10	18579.17
877.27	18536.17
877.44	18282.22
877.61	18214.63
877.79	18534.12
877.96	18192.11
878.13	18181.87
878.31	18292.46
878.48	18122.48
878.65	17821.42
878.82	17547.00
879.00	18112.24
879.17	17737.46
879.34	17893.10
879.51	17716.98
879.69	17884.91
879.86	17379.06
880.03	17809.14
880.21	17465.08
880.38	17684.21
880.55	17749.75
880.72	17563.38
880.90	17485.56
881.07	17311.48
881.24	17403.64
881.41	17358.58
881.59	17362.68
881.76	17350.39
881.93	17049.34
882.10	17200.89
882.28	17204.99
882.45	17387.25
882.62	17190.65
882.79	17319.67
882.96	17047.29
883.14	17268.47
883.31	17362.68
883.48	17161.98
883.65	17141.50
883.83	17606.39
884.00	16793.34
884.17	17184.51
884.34	17235.70
884.51	17174.27
884.69	17217.27
884.86	17010.43
885.03	17069.82
885.20	16985.85
885.38	16826.11
885.55	16908.03
885.72	16797.44
885.89	16719.62
886.06	16854.78
886.24	16742.14
886.41	16598.79
886.58	16817.92
886.75	16752.38
886.92	16621.31
887.10	16752.38
887.27	16830.21
887.44	16570.12
887.61	16586.50
887.78	16838.40
887.95	16752.38
888.13	16514.82
888.30	16602.88
888.47	16228.10
888.64	16461.57
888.81	16279.30
888.99	16264.97
889.16	16109.32
889.33	16320.26
889.50	16166.67
889.67	16281.35
889.84	16117.51
890.01	16312.07
890.19	16172.81
890.36	16121.61
890.53	16037.64
890.70	15892.24
890.87	16019.21
891.04	15820.56
891.22	15994.64
891.39	15849.23
891.56	15902.48
891.73	15877.90
891.90	15738.64
892.07	15683.34
892.24	15605.52
892.42	15746.83
892.59	15738.64
892.76	15374.10
892.93	15791.89
893.10	15841.04
893.27	15720.21
893.44	15685.39
893.61	15505.17
893.79	15687.44
893.96	15615.76
894.13	15501.08
894.30	15636.24
894.47	15494.93
894.64	15480.60
894.81	15535.89
894.98	15503.12
895.15	15378.20
895.33	15449.88
895.50	15288.09
895.67	15435.54
895.84	15605.52
896.01	15556.37
896.18	15408.92
896.35	15644.43
896.52	15486.74
896.69	15339.29
896.86	15347.48
897.04	15611.67
897.21	15343.38
897.38	15150.87
897.55	15093.53
897.72	15288.09
897.89	15355.67
898.06	15390.49
898.23	15318.81
898.40	15238.94
898.57	15302.42
898.74	15232.79
898.91	15421.20
899.08	15275.80
899.26	15161.11
899.43	15372.05
899.60	15093.53
899.77	15259.42
899.94	15042.33
900.11	14870.30
900.28	15367.96
900.45	14925.60
900.62	14976.80
900.79	15232.79
900.96	15267.61
901.13	15208.22
901.30	14913.31
901.47	14976.80
901.64	15003.42
901.81	15005.47
901.98	15073.05
902.15	15068.95
902.32	14950.17
902.49	15116.06
902.66	15052.57
902.83	14966.56
903.01	14931.74
903.18	14860.06
903.35	15228.70
903.52	15093.53
903.69	15200.02
903.86	15144.73
904.03	15060.76
904.20	15038.23
904.37	15111.96
904.54	15134.49
904.71	15038.23
904.88	15144.73
905.05	15027.99
905.22	14966.56
905.39	15144.73
905.56	14851.87
905.73	14802.72
905.90	14935.84
906.07	14921.50
906.24	15142.68
906.41	14972.70
906.58	15179.54
906.75	14966.56
906.92	14817.05
907.09	14970.65
907.26	15114.01
907.43	14911.26
907.60	15013.66
907.77	15197.98
907.93	15023.90
908.10	15056.67
908.27	14987.04
908.44	14919.45
908.61	14901.02
908.78	14980.89
908.95	15089.43
909.12	14688.03
909.29	14759.71
909.46	15075.10
909.63	15011.61
909.80	15019.80
909.97	14984.99
910.14	14630.69
910.31	14808.86
910.48	14855.97
910.65	14827.29
910.82	14780.19
910.99	14593.83
911.16	14473.00
911.33	14636.83
911.50	14659.36
911.66	14683.94
911.83	14728.99
912.00	14714.66
912.17	14401.32
912.34	14556.96
912.51	14593.83
912.68	14450.47
912.85	14528.29
913.02	14446.37
913.19	14393.12
913.36	14516.00
913.53	14548.77
913.70	14239.53
913.86	14452.52
914.03	14262.05
914.20	14468.90
914.37	14202.66
914.54	14024.49
914.71	14272.29
914.88	14151.46
915.05	14167.85
915.22	14036.78
915.39	14096.17
915.55	14085.93
915.72	13971.24
915.89	13897.52
916.06	13725.49
916.23	13883.18
916.40	13930.28
916.57	13811.50
916.74	13762.35
916.91	13827.88
917.07	13688.62
917.24	13750.06
917.41	13897.52
917.58	13614.90
917.75	13580.08
917.92	13403.96
918.09	13702.96
918.26	13371.19
918.42	13551.41
918.59	13422.39
918.76	13449.01
918.93	13387.57
919.10	13262.65
919.27	13041.46
919.44	13471.54
919.60	13395.76
919.77	13252.41
919.94	13094.71
920.11	13104.95
920.28	13072.18
920.45	12881.72
920.61	12894.01
920.78	13043.51
920.95	12986.17
921.12	12916.54
921.29	12865.34
921.46	12822.33
921.62	12525.38
921.79	12769.09
921.96	12689.21
922.13	12484.42
922.30	12656.45
922.47	12398.40
922.63	12371.78
922.80	12349.25
922.97	12502.85
923.14	12187.46
923.31	12283.72
923.47	12283.72
923.64	12322.63
923.81	12105.54
923.98	12031.82
924.15	11921.23
924.32	12031.82
924.48	12052.30
924.65	12040.01
924.82	11982.67
924.99	11779.92
925.15	11683.66
925.32	11677.52
925.49	11552.59
925.66	11575.12
925.83	11638.61
925.99	11534.16
926.16	11548.50
926.33	11521.87
926.50	11325.27
926.67	11718.48
926.83	11583.31
927.00	11472.72
927.17	11337.56
927.34	11181.91
927.50	11368.27
927.67	11333.46
927.84	11124.57
928.01	11054.94
928.17	10964.82
928.34	10936.15
928.51	10962.78
928.68	10829.66
928.84	10686.30
929.01	10510.18
929.18	10690.40
929.35	10645.34
929.51	10583.90
929.68	10493.79
929.85	10542.94
930.02	10389.35
930.18	10559.33
930.35	10493.79
930.52	10319.71
930.69	10366.82
930.85	10297.19
931.02	10241.89
931.19	10096.49
931.36	10219.36
931.52	10323.81
931.69	10205.03
931.86	10016.62
932.02	10071.91
932.19	10016.62
932.36	9942.89
932.53	9977.70
932.69	9703.28
932.86	10008.42
933.03	9709.42
933.19	9709.42
933.36	9686.89
933.53	9805.67
933.70	9480.05
933.86	9592.69
934.03	9533.29
934.20	9191.28
934.36	9351.03
934.53	9277.30
934.70	9312.11
934.86	9308.02
935.03	9152.37
935.20	8996.73
935.36	8849.27
935.53	8814.46
935.70	8832.89
935.86	8822.65
936.03	8736.63
936.20	8703.87
936.36	8638.33
936.53	8402.82
936.70	8408.96
936.86	8421.25
937.03	8134.53
937.20	7987.08
937.36	8351.62
937.53	7888.78
937.70	7868.30
937.86	7862.15
938.03	7757.71
938.20	7767.95
938.36	7573.39
938.53	7626.64
938.70	7430.03
938.86	7559.05
939.03	7362.45
939.20	7096.21
939.36	7122.84
939.53	7051.16
939.70	7317.39
939.86	6903.70
940.03	6694.81
940.19	6791.06
940.36	6852.50
940.53	6739.87
940.69	6754.20
940.86	6727.58
941.03	6490.01
941.19	6281.12
941.36	6215.59
941.52	6408.09
941.69	6076.32
941.86	6279.07
942.02	6096.80
942.19	6127.52
942.35	6012.84
942.52	6082.47
942.69	5918.63
942.85	5859.24
943.02	5877.67
943.18	5724.07
943.35	5722.02
943.52	5654.44
943.68	5633.96
943.85	5668.78
944.01	5537.71
944.18	5498.80
944.35	5607.34
944.51	5418.93
944.68	5441.45
944.84	5310.38
945.01	5506.99
945.17	5447.60
945.34	5498.80
945.51	5412.78
945.67	5283.76
945.84	5543.85
946.00	5279.66
946.17	5189.55
946.33	5236.66
946.50	5318.57
946.67	5160.88
946.83	5179.31
947.00	5425.07
947.16	5244.85
947.33	5310.38
947.49	5207.98
947.66	5248.94
947.82	5304.24
947.99	5287.86
948.16	5394.35
948.32	5228.46
948.49	5273.52
948.65	5285.81
948.82	5191.60
948.98	5212.08
949.15	5203.89
949.31	5263.28
949.48	5337.01
949.64	5296.05
949.81	5171.12
949.97	5259.18
950.14	5363.63
950.30	5265.33
950.47	5414.83
950.63	5255.09
950.80	5298.10
950.96	5330.86
951.13	5425.07
951.30	5226.42
951.46	5212.08
951.63	5412.78
951.79	5255.09
951.96	5500.84
952.12	5228.46
952.29	5353.39
952.45	5369.77
952.62	5369.77
952.78	5349.29
952.94	5265.33
953.11	5273.52
953.27	5158.83
953.44	5380.01
953.60	5375.92
953.77	5568.43
953.93	5431.21
954.10	5242.80
954.26	5410.73
954.43	5361.58
954.59	5529.52
954.76	5429.17
954.92	5402.54
955.09	5418.93
955.25	5412.78
955.42	5509.04
955.58	5349.29
955.75	5431.21
955.91	5337.01
956.07	5498.80
956.24	5443.50
956.40	5445.55
956.57	5474.22
956.73	5396.40
956.90	5574.57
957.06	5414.83
957.23	5480.36
957.39	5492.65
957.56	5441.45
957.72	5283.76
957.88	5545.90
958.05	5660.59
958.21	5539.76
958.38	5523.37
958.54	5529.52
958.71	5578.67
958.87	5445.55
959.03	5455.79
959.20	5502.89
959.36	5402.54
959.53	5496.75
959.69	5449.64
959.85	5472.17
960.02	5361.58
960.18	5486.51
960.35	5445.55
960.51	5439.40
960.68	5396.40
960.84	5365.68
961.00	5457.84
961.17	5459.88
961.33	5357.49
961.50	5494.70
961.66	5423.02
961.82	5431.21
961.99	5656.49
962.15	5255.09
962.31	5380.01
962.48	5384.11
962.64	5453.74
962.81	5480.36
962.97	5492.65
963.13	5623.72
963.30	5418.93
963.46	5318.57
963.62	5427.12
963.79	5392.30
963.95	5515.18
964.12	5308.34
964.28	5468.08
964.44	5320.62
964.61	5384.11
964.77	5472.17
964.93	5506.99
965.10	5361.58
965.26	5244.85
965.42	5377.97
965.59	5242.80
965.75	5287.86
965.92	5255.09
966.08	5373.87
966.24	5294.00
966.41	5220.27
966.57	5324.72
966.73	5279.66
966.90	5334.96
967.06	5322.67
967.22	5177.26
967.39	5255.09
967.55	5238.70
967.71	5283.76
967.88	5156.79
968.04	5220.27
968.20	5121.97
968.37	5160.88
968.53	5365.68
968.69	5078.96
968.85	5228.46
969.02	5244.85
969.18	5140.40
969.34	5160.88
969.51	5316.53
969.67	5162.93
969.83	5124.02
970.00	5177.26
970.16	5066.67
970.32	5205.94
970.48	5320.62
970.65	5003.19
970.81	4943.80
970.97	5109.68
971.14	5064.63
971.30	5171.12
971.46	5107.63
971.63	5019.57
971.79	4925.36
971.95	5066.67
972.11	4880.31
972.28	5038.00
972.44	5218.22
972.60	4874.17
972.76	4949.94
972.93	4808.63
973.09	5033.91
973.25	4892.60
973.42	4818.87
973.58	4863.93
973.74	4908.98
973.90	5005.24
974.07	4843.45
974.23	4894.65
974.39	4853.69
974.55	4802.49
974.72	4712.38
974.88	4673.46
975.04	4882.36
975.20	4739.00
975.37	4874.17
975.53	4845.49
975.69	4784.06
975.85	4837.30
976.01	4808.63
976.18	4710.33
976.34	4753.34
976.50	4816.82
976.66	4743.10
976.83	4751.29
976.99	4759.48
977.15	4833.21
977.31	4550.59
977.47	4734.90
977.64	4667.32
977.80	4667.32
977.96	4597.69
978.12	4607.93
978.29	4777.91
978.45	4597.69
978.61	4587.45
978.77	4532.15
978.93	4515.77
979.10	4630.46
979.26	4575.16
979.42	4476.86
979.58	4458.43
979.74	4530.11
979.91	4542.39
980.07	4458.43
980.23	4511.68
980.39	4423.61
980.55	4554.68
980.71	4388.80
980.88	4392.89
981.04	4478.91
981.20	4370.37
981.36	4429.76
981.52	4399.04
981.68	4401.08
981.85	4433.85
982.01	4478.91
982.17	4364.22
982.33	4327.36
982.49	4409.28
982.65	4276.16
982.82	4429.76
982.98	4341.69
983.14	4151.23
983.30	4351.93
983.46	4292.54
983.62	4288.45
983.79	4294.59
983.95	4317.12
984.11	3997.64
984.27	4145.09
984.43	4227.01
984.59	4251.58
984.75	4218.82
984.91	4157.38
985.08	4190.14
985.24	4095.94
985.40	4112.32
985.56	4087.75
985.72	4136.90
985.88	4140.99
986.04	4032.45
986.20	4091.84
986.37	4110.27
986.53	4042.69
986.69	4124.61
986.85	4028.35
987.01	4083.65
987.17	4071.36
987.33	4067.27
987.49	3880.90
987.65	4108.23
987.82	4108.23
987.98	3971.01
988.14	4102.08
988.30	4089.79
988.46	3887.04
988.62	4061.12
988.78	4005.83
988.94	3938.24
989.10	3891.14
989.26	3885.00
989.42	3815.37
989.59	3825.61
989.75	3817.41
989.91	3932.10
990.07	3682.25
990.23	3749.83
990.39	3872.71
990.55	3958.72
990.71	3647.43
990.87	3968.96
991.03	3829.70
991.19	3782.60
991.35	3831.75
991.51	3764.17
991.67	3770.31
991.83	3864.52
992.00	3772.36
992.16	3704.78
992.32	3710.92
992.48	3829.70
992.64	3645.38
992.80	3798.98
992.96	3669.96
993.12	3739.59
993.28	3624.90
993.44	3653.58
993.60	3768.26
993.76	3719.11
993.92	3669.96
994.08	3629.00
994.24	3729.35
994.40	3659.72
994.56	3647.43
994.72	3645.38
994.88	3631.05
995.04	3585.99
995.20	3547.08
995.36	3590.09
995.52	3680.20
995.68	3575.75
995.84	3473.36
996.00	3766.21
996.16	3536.84
996.32	3497.93
996.48	3528.65
996.64	3459.02
996.80	3508.17
996.96	3549.13
997.12	3373.00
997.28	3377.10
997.44	3383.24
997.60	3364.81
997.76	3510.22
997.92	3502.03
998.08	3438.54
998.24	3391.44
998.40	3395.53
998.56	3485.64
998.72	3266.51
998.88	3346.38
999.04	3233.74
999.20	3502.03
999.36	3274.70
999.52	3330.00
999.68	3280.85
999.84	3235.79
1000.00	3317.71
1000.16	3348.43
1000.32	3293.13
1000.48	3411.92
1000.64	3141.58
1000.80	3205.07
1000.95	3207.12
1001.11	3313.61
1001.27	3184.59
1001.43	3235.79
1001.59	3041.23
1001.75	3207.12
1001.91	3254.22
1002.07	3205.07
1002.23	3180.50
1002.39	3155.92
1002.55	3125.20
1002.71	3133.39
1002.87	3153.87
1003.03	3018.71
1003.19	3127.25
1003.34	3082.19
1003.50	3176.40
1003.66	3133.39
1003.82	3074.00
1003.98	3061.71
1004.14	3067.86
1004.30	2957.27
1004.46	3100.62
1004.62	3061.71
1004.78	2934.74
1004.94	3119.06
1005.09	3080.14
1005.25	3092.43
1005.41	3061.71
1005.57	2932.69
1005.73	3016.66
1005.89	2904.02
1006.05	2959.31
1006.21	2924.50
1006.37	2940.88
1006.52	2967.51
1006.68	2885.59
1006.84	2994.13
1007.00	2924.50
1007.16	2932.69
1007.32	2777.05
1007.48	2861.01
1007.64	2906.07
1007.79	2934.74
1007.95	2858.96
1008.11	2961.36
1008.27	2949.08
1008.43	2805.72
1008.59	2897.88
1008.75	2994.13
1008.91	2869.20
1009.06	2838.48
1009.22	2844.63
1009.38	2822.10
1009.54	2912.21
1009.70	2828.24
1009.86	2820.05
1010.01	2824.15
1010.17	2828.24
1010.33	2811.86
1010.49	2752.47
1010.65	2807.77
1010.81	2815.96
1010.96	2736.09
1011.12	2721.75
1011.28	2684.89
1011.44	2688.98
1011.60	2691.03
1011.76	2684.89
1011.91	2719.70
1012.07	2623.45
1012.23	2707.41
1012.39	2662.36
1012.55	2756.57
1012.71	2643.93
1012.86	2658.26
1013.02	2586.58
1013.18	2629.59
1013.34	2584.54
1013.50	2666.46
1013.65	2650.07
1013.81	2574.30
1013.97	2668.50
1014.13	2633.69
1014.29	2664.41
1014.44	2674.65
1014.60	2613.21
1014.76	2576.34
1014.92	2600.92
1015.07	2570.20
1015.23	2588.63
1015.39	2580.44
1015.55	2537.43
1015.71	2605.02
1015.86	2465.75
1016.02	2525.15
1016.18	2418.65
1016.34	2590.68
1016.49	2492.38
1016.65	2586.58
1016.81	2602.97
1016.97	2475.99
1017.12	2478.04
1017.28	2336.73
1017.44	2428.89
1017.60	2541.53
1017.75	2508.76
1017.91	2445.27
1018.07	2510.81
1018.23	2435.03
1018.38	2400.22
1018.54	2508.76
1018.70	2480.09
1018.86	2502.62
1019.01	2369.50
1019.17	2496.47
1019.33	2535.39
1019.49	2379.74
1019.64	2428.89
1019.80	2367.45
1019.96	2406.36
1020.12	2377.69
1020.27	2277.34
1020.43	2387.93
1020.59	2424.80
1020.74	2379.74
1020.90	2451.42
1021.06	2371.55
1021.22	2342.88
1021.37	2377.69
1021.53	2369.50
1021.69	2351.07
1021.84	2226.14
1022.00	2291.68
1022.16	2322.40
1022.31	2267.10
1022.47	2342.88
1022.63	2367.45
1022.79	2189.28
1022.94	2224.09
1023.10	2457.56
1023.26	2340.83
1023.41	2289.63
1023.57	2252.77
1023.73	2254.81
1023.88	2275.29
1024.04	2209.76
1024.20	2248.67
1024.35	2320.35
1024.51	2258.91
1024.67	2230.24
1024.82	2281.44
1024.98	2144.22
1025.14	2277.34
1025.29	2109.41
1025.45	2301.92
1025.61	2174.94
1025.76	2222.05
1025.92	2220.00
1026.08	2090.98
1026.23	2181.09
1026.39	2293.72
1026.55	2203.61
1026.70	2148.32
1026.86	2222.05
1027.02	2275.29
1027.17	2256.86
1027.33	2133.98
1027.48	2123.74
1027.64	2183.13
1027.80	2129.89
1027.95	2199.52
1028.11	2058.21
1028.27	2164.70
1028.42	2215.90
1028.58	2183.13
1028.73	2074.59
1028.89	2039.78
1029.05	2136.03
1029.20	2193.37
>>>>>End Processed Spectral Data<<<<<
