SpectraSuite Data File
++++++++++++++++++++++++++++++++++++
Date: Fri Jun 02 14:47:58 CEST 2017
User: INFO_000
Dark Spectrum Present: No
Reference Spectrum Present: No
Number of Sampled Component Spectra: 1
Spectrometers: USB4H00879
Integration Time (usec): 80000 (USB4H00879)
Spectra Averaged: 1 (USB4H00879)
Boxcar Smoothing: 0 (USB4H00879)
Correct for Electrical Dark: No (USB4H00879)
Strobe/Lamp Enabled: No (USB4H00879)
Correct for Detector Non-linearity: No (USB4H00879)
Correct for Stray Light: No (USB4H00879)
Number of Pixels in Processed Spectrum: 3648
>>>>>Begin Processed Spectral Data<<<<<
345.13	1341.42
345.34	1341.42
345.56	1341.42
345.78	1282.03
345.99	1296.36
346.21	1619.94
346.42	1714.15
346.64	1632.23
346.86	1753.06
347.07	1658.85
347.29	1693.67
347.50	1646.57
347.72	1716.20
347.94	1736.68
348.15	1646.57
348.37	1656.81
348.59	1712.10
348.80	1720.29
349.02	1724.39
349.23	1880.04
349.45	1818.60
349.67	1959.91
349.88	1783.78
350.10	1929.19
350.31	1867.75
350.53	1847.27
350.75	2019.30
350.96	1714.15
351.18	1847.27
351.39	1773.54
351.61	1779.68
351.82	1910.75
352.04	1914.85
352.26	1830.88
352.47	1947.62
352.69	1933.28
352.90	1771.49
353.12	1789.92
353.34	1798.12
353.55	1910.75
353.77	1908.71
353.98	1841.12
354.20	1822.69
354.41	1912.80
354.63	1902.56
354.85	2011.11
355.06	1892.32
355.28	1826.79
355.49	1918.95
355.71	1851.36
355.92	1882.08
356.14	1918.95
356.35	1886.18
356.57	1884.13
356.79	1884.13
357.00	1871.84
357.22	1994.72
357.43	1916.90
357.65	1886.18
357.86	1855.46
358.08	1964.00
358.29	1951.71
358.51	2017.25
358.72	1970.15
358.94	1920.99
359.16	1927.14
359.37	1927.14
359.59	1966.05
359.80	2033.63
360.02	1898.47
360.23	1955.81
360.45	2025.44
360.66	1953.76
360.88	1865.70
361.09	1859.56
361.31	2062.30
361.52	1900.52
361.74	2043.87
361.95	1968.10
362.17	1986.53
362.38	2062.30
362.60	1998.82
362.81	2027.49
363.03	1949.67
363.24	2025.44
363.46	2068.45
363.67	2021.35
363.89	1937.38
364.10	1968.10
364.32	1941.47
364.53	2033.63
364.75	1910.75
364.96	2011.11
365.18	2041.82
365.39	1966.05
365.61	1941.47
365.82	2097.12
366.04	2023.39
366.25	2011.11
366.47	2056.16
366.68	2078.69
366.90	1992.67
367.11	2045.92
367.33	2076.64
367.54	2009.06
367.76	2002.91
367.97	2062.30
368.19	2047.97
368.40	2076.64
368.62	1875.94
368.83	1947.62
369.05	2023.39
369.26	2007.01
369.48	2052.06
369.69	1990.63
369.91	2131.94
370.12	2031.58
370.33	2217.95
370.55	1992.67
370.76	1986.53
370.98	2101.22
371.19	2027.49
371.41	1949.67
371.62	2056.16
371.84	2054.11
372.05	2179.04
372.27	2109.41
372.48	2060.26
372.69	2037.73
372.91	2105.31
373.12	2117.60
373.34	2082.78
373.55	2101.22
373.77	2183.13
373.98	2121.70
374.20	2115.55
374.41	2283.49
374.62	2050.02
374.84	2215.90
375.05	2168.80
375.27	2199.52
375.48	2097.12
375.70	2168.80
375.91	2226.14
376.12	2357.21
376.34	2207.71
376.55	2248.67
376.77	2150.37
376.98	2166.75
377.19	2123.74
377.41	2193.37
377.62	2199.52
377.84	2269.15
378.05	2314.20
378.27	2236.38
378.48	2277.34
378.69	2334.68
378.91	2342.88
379.12	2201.57
379.34	2164.70
379.55	2289.63
379.76	2260.96
379.98	2240.48
380.19	2267.10
380.41	2248.67
380.62	2234.33
380.83	2234.33
381.05	2156.51
381.26	2369.50
381.47	2197.47
381.69	2232.29
381.90	2365.40
382.12	2346.97
382.33	2314.20
382.54	2344.92
382.76	2406.36
382.97	2314.20
383.19	2277.34
383.40	2412.51
383.61	2306.01
383.83	2297.82
384.04	2279.39
384.25	2400.22
384.47	2424.80
384.68	2275.29
384.89	2371.55
385.11	2420.70
385.32	2322.40
385.54	2265.05
385.75	2396.12
385.96	2328.54
386.18	2371.55
386.39	2514.91
386.60	2293.72
386.82	2373.60
387.03	2408.41
387.24	2412.51
387.46	2514.91
387.67	2504.67
387.88	2428.89
388.10	2527.19
388.31	2473.95
388.52	2547.67
388.74	2533.34
388.95	2523.10
389.16	2553.82
389.38	2510.81
389.59	2580.44
389.80	2611.16
390.02	2519.00
390.23	2695.13
390.44	2639.83
390.66	2465.75
390.87	2420.70
391.08	2516.95
391.30	2656.22
391.51	2586.58
391.72	2656.22
391.94	2598.87
392.15	2588.63
392.36	2621.40
392.58	2619.35
392.79	2715.61
393.00	2664.41
393.22	2684.89
393.43	2680.79
393.64	2807.77
393.85	2717.65
394.07	2680.79
394.28	2672.60
394.49	2770.90
394.71	2779.09
394.92	2908.12
395.13	2717.65
395.35	2686.94
395.56	2682.84
395.77	2793.43
395.98	2828.24
396.20	2844.63
396.41	2805.72
396.62	2809.81
396.84	2951.12
397.05	2772.95
397.26	2867.16
397.47	2930.64
397.69	2938.84
397.90	3131.34
398.11	2918.36
398.32	2871.25
398.54	2918.36
398.75	2904.02
398.96	2904.02
399.18	3067.86
399.39	2895.83
399.60	3022.80
399.81	2908.12
400.03	2936.79
400.24	3160.02
400.45	2932.69
400.66	3035.09
400.88	3096.53
401.09	3121.10
401.30	3030.99
401.51	3243.98
401.73	3135.44
401.94	3143.63
402.15	3082.19
402.36	3147.73
402.58	3153.87
402.79	3180.50
403.00	3127.25
403.21	3231.69
403.43	3162.06
403.64	3203.02
403.85	3078.10
404.06	3254.22
404.27	3069.91
404.49	3172.30
404.70	3207.12
404.91	3286.99
405.12	3231.69
405.34	3252.17
405.55	3469.26
405.76	3168.21
405.97	3200.98
406.19	3440.59
406.40	3284.94
406.61	3334.09
406.82	3366.86
407.03	3299.28
407.25	3239.89
407.46	3491.79
407.67	3456.97
407.88	3416.01
408.09	3416.01
408.31	3393.48
408.52	3379.15
408.73	3356.62
408.94	3405.77
409.15	3444.68
409.37	3502.03
409.58	3375.05
409.79	3614.66
410.00	3479.50
410.21	3379.15
410.43	3393.48
410.64	3409.87
410.85	3477.45
411.06	3411.92
411.27	3592.14
411.48	3567.56
411.70	3420.11
411.91	3559.37
412.12	3540.94
412.33	3510.22
412.54	3585.99
412.76	3643.34
412.97	3547.08
413.18	3583.95
413.39	3686.34
413.60	3549.13
413.81	3563.47
414.03	3608.52
414.24	3545.03
414.45	3796.93
414.66	3538.89
414.87	3655.62
415.08	3809.22
415.30	3651.53
415.51	3758.02
415.72	3772.36
415.93	3708.87
416.14	3852.23
416.35	3839.94
416.56	3819.46
416.78	3817.41
416.99	3882.95
417.20	3846.09
417.41	3862.47
417.62	3887.04
417.83	3829.70
418.04	3919.81
418.26	3907.52
418.47	3952.58
418.68	4065.22
418.89	3964.87
419.10	4075.46
419.31	3917.76
419.52	4030.40
419.73	4100.03
419.95	4069.31
420.16	3952.58
420.37	4069.31
420.58	4067.27
420.79	3846.09
421.00	4077.51
421.21	4190.14
421.42	4071.36
421.63	4159.42
421.85	4095.94
422.06	4196.29
422.27	4194.24
422.48	4261.82
422.69	4196.29
422.90	4196.29
423.11	4272.06
423.32	4302.78
423.53	4460.48
423.75	4261.82
423.96	4413.37
424.17	4446.14
424.38	4540.35
424.59	4386.75
424.80	4603.83
425.01	4399.04
425.22	4466.62
425.43	4378.56
425.64	4663.22
425.85	4562.87
426.06	4591.55
426.28	4460.48
426.49	4550.59
426.70	4554.68
426.91	4702.14
427.12	4681.66
427.33	4749.24
427.54	4583.35
427.75	4863.93
427.96	4921.27
428.17	4775.86
428.38	4872.12
428.59	4933.56
428.80	4796.34
429.01	4915.12
429.23	4810.68
429.44	4958.13
429.65	4949.94
429.86	4894.65
430.07	4833.21
430.28	4847.54
430.49	4931.51
430.70	5031.86
430.91	5091.25
431.12	5013.43
431.33	5097.39
431.54	5136.31
431.75	5052.34
431.96	5058.48
432.17	5021.62
432.38	5072.82
432.59	5298.10
432.80	5353.39
433.01	5281.71
433.22	5349.29
433.43	5238.70
433.64	5304.24
433.85	5150.64
434.06	5261.23
434.27	5230.51
434.49	5328.81
434.70	5496.75
434.91	5453.74
435.12	5339.05
435.33	5453.74
435.54	5412.78
435.75	5326.77
435.96	5337.01
436.17	5261.23
436.38	5560.24
436.59	5562.28
436.80	5541.80
437.01	5736.36
437.22	5570.48
437.43	5509.04
437.64	5427.12
437.85	5810.09
438.06	5746.60
438.27	5590.95
438.48	5734.31
438.69	5787.56
438.90	5588.91
439.11	5689.26
439.32	5844.90
439.53	5687.21
439.74	5873.57
439.95	5990.31
440.16	5900.20
440.37	5879.72
440.57	5715.88
440.78	5904.29
440.99	5920.68
441.20	5879.72
441.41	5937.06
441.62	5937.06
441.83	5773.22
442.04	5877.67
442.25	6051.75
442.46	6055.84
442.67	6283.17
442.88	6442.91
443.09	6076.32
443.30	6143.91
443.51	5988.26
443.72	6377.37
443.93	6066.08
444.14	6385.57
444.35	6051.75
444.56	6285.22
444.77	6084.52
444.98	6264.74
445.19	6416.29
445.40	6356.90
445.61	6311.84
445.81	6700.95
446.02	6518.68
446.23	6414.24
446.44	6277.02
446.65	6397.85
446.86	6522.78
447.07	6401.95
447.28	6680.47
447.49	6475.68
447.70	6541.21
447.91	6637.47
448.12	6633.37
448.33	6764.44
448.54	6721.43
448.74	6623.13
448.95	6823.83
449.16	6735.77
449.37	6934.42
449.58	6727.58
449.79	7057.30
450.00	6762.39
450.21	6887.32
450.42	6965.14
450.63	6948.76
450.84	6862.74
451.05	6989.72
451.25	7055.25
451.46	7002.01
451.67	6971.29
451.88	7198.61
452.09	7198.61
452.30	7030.68
452.51	7114.64
452.72	7360.40
452.93	7423.89
453.13	7147.41
453.34	7098.26
453.55	7286.67
453.76	7247.76
453.97	7653.26
454.18	7399.31
454.39	7411.60
454.60	7542.67
454.81	7468.94
455.01	7698.31
455.22	7440.27
455.43	7720.84
455.64	7982.98
455.85	7817.10
456.06	8058.76
456.27	7862.15
456.48	7847.82
456.68	7823.24
456.89	7810.95
457.10	7915.40
457.31	7739.27
457.52	7917.45
457.73	7982.98
457.94	8249.22
458.14	7878.54
458.35	8368.00
458.56	8218.50
458.77	8062.85
458.98	8265.60
459.19	8261.51
459.39	8406.91
459.60	8419.20
459.81	8226.69
460.02	8433.54
460.23	8562.56
460.44	8621.95
460.65	8580.99
460.85	8767.35
461.06	8728.44
461.27	8617.85
461.48	8963.96
461.69	8834.94
461.89	8877.94
462.10	8879.99
462.31	8695.68
462.52	8783.74
462.73	8953.72
462.94	9170.80
463.14	8943.48
463.35	8953.72
463.56	9484.14
463.77	9275.25
463.98	9129.84
464.18	9187.19
464.39	9504.62
464.60	9539.44
464.81	9559.92
465.02	9488.24
465.23	9779.05
465.43	9688.94
465.64	9826.15
465.85	9727.85
466.06	9899.88
466.27	10063.72
466.47	9930.60
466.68	9996.14
466.89	10002.28
467.10	10100.58
467.30	9848.68
467.51	10250.08
467.72	10372.96
467.93	10131.30
468.14	10409.83
468.34	10485.60
468.55	10344.29
468.76	10268.52
468.97	10444.64
469.17	10592.09
469.38	10506.08
469.59	10710.88
469.80	10379.11
470.01	10788.70
470.21	10884.95
470.42	10958.68
470.63	11169.62
470.84	11067.22
471.04	11224.92
471.25	11261.78
471.46	11290.45
471.67	11429.71
471.87	11339.60
472.08	11521.87
472.29	11741.00
472.50	11231.06
472.70	11392.85
472.91	11495.25
473.12	11814.73
473.33	11792.20
473.53	12152.65
473.74	11792.20
473.95	12111.69
474.16	12453.70
474.36	12222.28
474.57	12160.84
474.78	12476.23
474.99	12541.76
475.19	12394.31
475.40	12676.93
475.61	12697.41
475.81	12875.58
476.02	13057.85
476.23	12810.04
476.44	13078.33
476.64	13338.42
476.85	13250.36
477.06	13483.83
477.27	13471.54
477.47	13618.99
477.68	13612.85
477.89	13770.54
478.09	13938.48
478.30	13862.70
478.51	13727.53
478.71	14071.59
478.92	14120.74
479.13	14313.25
479.34	14354.21
479.54	14454.56
479.75	14456.61
479.96	14642.98
480.16	14692.13
480.37	14554.91
480.58	14991.13
480.78	15204.12
480.99	15128.35
481.20	15187.74
481.41	15111.96
481.61	15300.37
481.82	15447.83
482.03	15388.44
482.23	15470.36
482.44	15879.95
482.65	15767.31
482.85	15707.92
483.06	15652.63
483.27	15644.43
483.47	16154.38
483.68	16037.64
483.89	16297.74
484.09	16273.16
484.30	16514.82
484.51	16570.12
484.71	16676.61
484.92	16502.53
485.13	17035.00
485.33	16998.14
485.54	16869.12
485.75	17086.20
485.95	17362.68
486.16	17231.61
486.37	17401.59
486.57	17295.10
486.78	17438.45
486.98	17463.03
487.19	17768.18
487.40	17862.38
487.60	17755.89
487.81	18276.07
488.02	18036.46
488.22	18050.80
488.43	18261.74
488.64	18134.76
488.84	18595.56
489.05	18933.47
489.25	18724.58
489.46	18599.65
489.67	18673.38
489.87	18814.69
490.08	19283.67
490.29	19119.84
490.49	19381.98
490.70	19349.21
490.90	19463.90
491.11	19281.63
491.32	19422.94
491.52	19435.22
491.73	19465.94
491.94	19848.91
492.14	19703.51
492.35	19863.25
492.55	20004.56
492.76	19932.88
492.97	20479.69
493.17	20324.04
493.38	20211.40
493.58	20629.19
493.79	20563.65
494.00	20647.62
494.20	20653.76
494.41	20811.46
494.61	20915.90
494.82	21040.83
495.02	20821.70
495.23	20901.57
495.44	21362.36
495.64	21446.33
495.85	21411.51
496.05	21614.26
496.26	21784.24
496.47	21860.02
496.67	21618.36
496.88	22027.95
497.08	21743.28
497.29	22095.53
497.49	22070.96
497.70	22312.62
497.91	22412.97
498.11	22402.73
498.32	22531.75
498.52	22740.64
498.73	22658.73
498.93	22482.60
499.14	22589.10
499.34	23025.31
499.55	23283.36
499.76	22890.15
499.96	22953.63
500.17	23174.81
500.37	23359.13
500.58	23277.21
500.78	23396.00
500.99	23133.86
501.19	23514.78
501.40	23561.88
501.60	23416.47
501.81	23821.97
502.02	24024.72
502.22	23731.86
502.43	23746.20
502.63	24182.42
502.84	24088.21
503.04	24108.69
503.25	24094.35
503.45	24149.65
503.66	24549.00
503.86	24176.27
504.07	24690.31
504.27	24510.09
504.48	24774.28
504.68	24698.50
504.89	25052.80
505.09	25233.02
505.30	25196.16
505.50	24841.86
505.71	24854.15
505.91	25097.86
506.12	25095.81
506.32	25308.80
506.53	25187.97
506.73	25480.83
506.94	25613.95
507.14	25308.80
507.35	25652.86
507.55	25656.95
507.76	25702.01
507.96	25720.44
508.17	25638.52
508.37	25439.87
508.58	25904.76
508.78	26039.92
508.99	26105.46
509.19	26150.51
509.40	26322.54
509.60	25949.81
509.81	26173.04
510.01	26330.73
510.22	26154.61
510.42	26510.96
510.63	26543.72
510.83	26517.10
511.04	26441.32
511.24	26478.19
511.44	26558.06
511.65	26662.51
511.85	26599.02
512.06	26590.83
512.26	26891.88
512.47	26875.49
512.67	26977.89
512.88	27022.95
513.08	26760.81
513.29	26875.49
513.49	27090.53
513.69	26875.49
513.90	27358.81
514.10	27471.45
514.31	27244.13
514.51	27412.06
514.72	27467.36
514.92	27278.94
515.13	27510.36
515.33	27424.35
515.53	27713.11
515.74	27573.85
515.94	27823.70
516.15	27860.57
516.35	27477.60
516.56	27627.10
516.76	27735.64
516.96	27872.85
517.17	27856.47
517.37	27876.95
517.58	28159.57
517.78	28223.06
517.99	28057.17
518.19	28427.85
518.39	28264.02
518.60	28266.06
518.80	28067.41
519.01	29091.40
519.21	28728.91
519.41	28642.89
519.62	28497.49
519.82	28628.56
520.03	29034.05
520.23	28835.40
520.43	29042.24
520.64	29011.53
520.84	29447.74
521.05	29263.43
521.25	29027.91
521.45	29259.33
521.66	29320.77
521.86	29232.71
522.07	29322.82
522.27	29562.43
522.47	29611.58
522.68	29722.17
522.88	29529.66
523.08	30070.33
523.29	29959.73
523.49	30004.79
523.70	30010.93
523.90	30508.59
524.10	30006.84
524.31	30453.30
524.51	30027.32
524.71	30371.38
524.92	30455.34
525.12	30541.36
525.33	30432.82
525.53	30817.83
525.73	31088.17
525.94	30414.38
526.14	31039.01
526.34	31153.70
526.55	30905.90
526.75	31155.75
526.95	31229.48
527.16	31329.83
527.36	31411.74
527.56	31434.27
527.77	31548.96
527.97	31626.78
528.17	31561.25
528.38	31612.45
528.58	31850.01
528.78	31976.98
528.99	31743.52
529.19	32566.80
529.39	31936.02
529.60	32259.60
529.80	32071.19
530.00	32484.88
530.21	32687.63
530.41	32296.47
530.61	32587.28
530.82	32599.57
531.02	32390.67
531.22	32994.82
531.43	32970.25
531.63	32962.06
531.83	33404.42
532.04	33850.88
532.24	33535.49
532.44	33523.20
532.64	33564.16
532.85	33793.53
533.05	33623.55
533.25	33711.61
533.46	33373.70
533.66	34379.25
533.86	34039.29
534.07	34665.97
534.27	34465.27
534.47	34328.05
534.67	34549.23
534.88	34250.23
535.08	34688.49
535.28	34950.63
535.49	35083.75
535.69	35120.62
535.89	34842.09
536.09	34913.77
536.30	35663.33
536.50	35235.30
536.70	35591.65
536.91	35571.17
537.11	35259.88
537.31	35618.27
537.51	35818.97
537.72	36312.53
537.92	35831.26
538.12	36091.35
538.32	36355.54
538.53	36347.35
538.73	36296.15
538.93	36388.31
539.13	36277.72
539.34	36580.82
539.54	36855.25
539.74	36992.46
539.94	36455.89
540.15	36507.09
540.35	36867.53
540.55	37017.04
540.75	37318.09
540.96	37266.89
541.16	37539.27
541.36	37516.74
541.56	37043.66
541.77	37803.46
541.97	37639.62
542.17	37504.45
542.37	37856.70
542.58	37909.95
542.78	38063.55
542.98	37922.24
543.18	38337.98
543.38	38432.18
543.59	38159.80
543.79	37926.33
543.99	38038.97
544.19	38493.62
544.40	38356.41
544.60	38712.75
544.80	38319.54
545.00	38366.65
545.20	39155.11
545.41	38520.24
545.61	38847.92
545.81	38938.03
546.01	39151.02
546.21	39163.31
546.42	39341.48
546.62	39210.41
546.82	38823.34
547.02	39464.36
547.22	39321.00
547.43	39450.02
547.63	39785.89
547.83	40299.93
548.03	39275.94
548.23	39730.59
548.44	39777.70
548.64	39812.51
548.84	39982.49
549.04	40121.76
549.24	40400.28
549.45	40383.90
549.65	39900.58
549.85	40347.03
550.05	40035.74
550.25	40424.86
550.45	41164.17
550.66	40627.60
550.86	40445.33
551.06	40789.39
551.26	40588.69
551.46	40715.67
551.66	40709.52
551.87	41051.53
552.07	41096.59
552.27	40779.15
552.47	41534.85
552.67	40953.23
552.87	41102.73
553.07	40951.18
553.28	41500.04
553.48	41538.95
553.68	41334.15
553.88	41461.13
554.08	41104.78
554.28	41182.60
554.48	41606.53
554.69	41467.27
554.89	41696.64
555.09	41784.71
555.29	41336.20
555.49	41991.55
555.69	41969.02
555.89	42016.13
556.10	42304.89
556.30	42030.46
556.50	42229.12
556.70	41856.39
556.90	42329.47
557.10	41966.98
557.30	41966.98
557.50	42431.86
557.70	42319.23
557.91	42407.29
558.11	42261.88
558.31	42730.87
558.51	42554.74
558.71	42464.63
558.91	42610.04
559.11	42159.48
559.31	42763.64
559.51	42841.46
559.72	42421.62
559.92	43160.94
560.12	42653.05
560.32	42710.39
560.52	42458.49
560.72	43046.26
560.92	43040.11
561.12	43146.61
561.32	43623.78
561.52	42894.71
561.72	43474.28
561.93	43267.44
562.13	43214.19
562.33	43156.85
562.53	43711.84
562.73	43103.60
562.93	43349.35
563.13	43599.21
563.33	43300.20
563.53	43615.59
563.73	43058.54
563.93	43253.10
564.13	43861.35
564.33	43253.10
564.53	42993.01
564.74	43582.82
564.94	43416.94
565.14	43793.76
565.34	43658.60
565.54	43824.48
565.74	43660.65
565.94	44025.18
566.14	43920.74
566.34	43836.77
566.54	44209.50
566.74	43621.73
566.94	44148.06
567.14	43828.58
567.34	43994.46
567.54	44494.17
567.74	44375.39
567.94	43900.26
568.14	44569.94
568.34	44455.26
568.54	44227.93
568.74	44334.43
568.94	44459.35
569.14	44752.21
569.34	44283.23
569.54	44696.92
569.75	43818.34
569.95	44623.19
570.15	44748.12
570.35	44438.87
570.55	44774.74
570.75	44504.41
570.95	44979.54
571.15	45186.38
571.35	44909.91
571.55	44993.87
571.75	45374.80
571.95	44856.66
572.15	44918.10
572.35	45032.78
572.55	44813.65
572.75	45155.66
572.95	44741.97
573.15	45159.76
573.35	45237.58
573.55	44922.19
573.75	45471.05
573.95	45323.60
574.15	45030.74
574.35	45520.20
574.55	45065.55
574.75	45243.73
574.95	45296.97
575.15	45577.54
575.34	45493.58
575.54	45784.39
575.74	45931.84
575.94	45432.14
576.14	45325.64
576.34	45952.32
576.54	45980.99
576.74	45827.40
576.94	45401.42
577.14	45821.25
577.34	46056.77
577.54	45698.37
577.74	46122.30
577.94	46638.39
578.14	45813.06
578.34	45892.93
578.54	45536.59
578.74	45817.16
578.94	46007.62
579.14	46300.48
579.34	46236.99
579.54	46150.98
579.74	46593.34
579.94	46501.18
580.13	47113.52
580.33	46714.17
580.53	46390.59
580.73	46669.11
580.93	46728.50
581.13	46329.15
581.33	46712.12
581.53	46914.87
581.73	46970.16
581.93	46863.67
582.13	46986.55
582.33	47310.13
582.53	47002.93
582.73	46791.99
582.92	47570.22
583.12	47713.58
583.32	46978.36
583.52	46884.15
583.72	47351.09
583.92	47217.97
584.12	47240.50
584.32	47803.69
584.52	47445.29
584.72	47412.52
584.92	47635.75
585.11	48041.25
585.31	47521.07
585.51	47691.05
585.71	47435.05
585.91	47754.54
586.11	47822.12
586.31	47510.83
586.51	47875.37
586.71	48069.92
586.91	48100.64
587.10	47934.76
587.30	48168.22
587.50	48254.24
587.70	48413.98
587.90	48022.82
588.10	48289.06
588.30	48467.23
588.50	48338.21
588.69	48192.80
588.89	48446.75
589.09	48332.06
589.29	48358.69
589.49	48649.50
589.69	48002.34
589.89	49163.54
590.08	48540.96
590.28	49040.66
590.48	48846.10
590.68	48620.83
590.88	48844.05
591.08	49151.25
591.28	48508.19
591.47	49237.26
591.67	49218.83
591.87	49454.35
592.07	49024.28
592.27	49046.80
592.47	48942.36
592.67	49530.12
592.86	49147.15
593.06	49741.06
593.26	49472.78
593.46	49521.93
593.66	49280.27
593.86	49175.83
594.05	49440.01
594.25	50085.12
594.45	49169.68
594.65	49655.05
594.85	49388.81
595.05	49745.16
595.24	49902.85
595.44	49849.61
595.64	50040.07
595.84	49939.72
596.04	50558.20
596.23	50048.26
596.43	50236.67
596.63	50074.88
596.83	50390.27
597.03	50208.00
597.22	50472.19
597.42	50124.04
597.62	50849.02
597.82	50388.22
598.02	50310.40
598.21	51148.02
598.41	50642.17
598.61	50797.82
598.81	50683.13
599.01	50748.67
599.20	50699.51
599.40	50869.50
599.60	51090.68
599.80	50703.61
600.00	51293.43
600.19	51471.60
600.39	51225.84
600.59	51827.95
600.79	51721.45
600.98	51352.82
601.18	51911.91
601.38	51750.12
601.58	51799.27
601.78	51522.80
601.97	51809.51
602.17	52036.84
602.37	52032.74
602.57	51760.36
602.76	52034.79
602.96	51907.82
603.16	52083.94
603.36	52323.55
603.55	52516.06
603.75	52233.44
603.95	52796.63
604.15	52528.35
604.34	52675.80
604.54	52655.32
604.74	52485.34
604.94	52987.10
605.13	53019.86
605.33	53173.46
605.53	52415.71
605.73	52837.59
605.92	52796.63
606.12	52933.85
606.32	53191.89
606.52	53056.73
606.71	53114.07
606.91	53011.67
607.11	53124.31
607.30	53218.52
607.50	53806.28
607.70	53877.96
607.90	53449.94
608.09	53271.76
608.29	53310.67
608.49	53236.95
608.68	53609.68
608.88	53439.70
609.08	53437.65
609.28	53654.73
609.47	53597.39
609.67	54099.14
609.87	53697.74
610.06	54084.81
610.26	53710.03
610.46	54037.70
610.66	53753.04
610.85	53990.60
611.05	53820.62
611.25	53869.77
611.44	53949.64
611.64	54015.18
611.84	53855.43
612.03	54246.60
612.23	54355.14
612.43	54265.03
612.62	54287.56
612.82	54564.03
613.02	54131.91
613.21	54344.90
613.41	54072.52
613.61	54418.63
613.80	54039.75
614.00	54273.22
614.20	54709.44
614.39	54518.98
614.59	54498.50
614.79	54424.77
614.98	54551.74
615.18	54502.59
615.38	54893.75
615.57	54375.62
615.77	54961.34
615.97	54801.60
616.16	54213.83
616.36	54815.93
616.56	54781.12
616.75	54842.56
616.95	54815.93
617.15	54879.42
617.34	54779.07
617.54	54836.41
617.74	54797.50
617.93	54918.33
618.13	54598.85
618.32	55059.64
618.52	54441.15
618.72	54572.22
618.91	54916.28
619.11	55192.76
619.31	54998.20
619.50	54754.49
619.70	54455.49
619.90	55022.78
620.09	54981.82
620.29	54645.95
620.48	54748.35
620.68	55172.28
620.88	54656.19
621.07	54584.51
621.27	55108.79
621.46	54557.89
621.66	54310.08
621.86	54828.22
622.05	54711.49
622.25	55180.47
622.44	54760.64
622.64	54650.05
622.84	54949.05
623.03	54508.74
623.23	54834.36
623.42	54832.32
623.62	54973.63
623.82	55266.48
624.01	54637.76
624.21	55153.85
624.40	54672.57
624.60	55047.35
624.80	54635.71
624.99	54846.65
625.19	54842.56
625.38	54783.16
625.58	55172.28
625.77	55014.58
625.97	54858.94
626.17	54494.40
626.36	55174.33
626.56	55467.19
626.75	54535.36
626.95	55311.54
627.14	54875.32
627.34	55758.00
627.54	54826.17
627.73	54594.75
627.93	55059.64
628.12	55059.64
628.32	55278.77
628.51	54334.66
628.71	55280.82
628.90	54719.68
629.10	54852.80
629.30	54830.27
629.49	55227.57
629.69	54768.83
629.88	54717.63
630.08	54990.01
630.27	55157.94
630.47	55233.72
630.66	54903.99
630.86	55182.52
631.05	54914.23
631.25	55555.25
631.44	55194.81
631.64	54981.82
631.84	55016.63
632.03	55477.43
632.23	55137.46
632.42	55203.00
632.62	55510.19
632.81	55137.46
633.01	55141.56
633.20	55418.03
633.40	55219.38
633.59	54940.86
633.79	54760.64
633.98	55336.12
634.18	55231.67
634.37	55100.60
634.57	55413.94
634.76	55164.09
634.96	55262.39
635.15	55465.14
635.35	54760.64
635.54	54910.14
635.74	55055.54
635.93	55100.60
636.13	55782.57
636.32	55606.45
636.52	54828.22
636.71	55313.59
636.91	55006.39
637.10	55448.75
637.30	55356.60
637.49	55221.43
637.69	55383.22
637.88	55901.36
638.08	54916.28
638.27	54797.50
638.46	55426.23
638.66	55252.15
638.85	55751.85
639.05	55448.75
639.24	55811.24
639.44	54990.01
639.63	55471.28
639.83	55348.40
640.02	55430.32
640.22	55471.28
640.41	55653.55
640.61	55086.26
640.80	55278.77
640.99	54846.65
641.19	56034.47
641.38	55358.64
641.58	54807.74
641.77	54836.41
641.97	54867.13
642.16	55272.63
642.36	55434.42
642.55	55882.92
642.74	55456.95
642.94	55973.03
643.13	55499.95
643.33	55604.40
643.52	55518.38
643.72	55440.56
643.91	55110.84
644.10	55749.81
644.30	55921.83
644.49	55411.89
644.69	56063.14
644.88	55811.24
645.08	55327.92
645.27	55686.32
645.46	55045.30
645.66	55456.95
645.85	55723.18
646.05	55506.10
646.24	55616.69
646.43	55700.65
646.63	55620.78
646.82	56024.23
647.02	55301.30
647.21	55850.16
647.40	55444.66
647.60	55370.93
647.79	56048.81
647.99	55710.89
648.18	55456.95
648.37	56136.87
648.57	56097.96
648.76	55743.66
648.96	55829.68
649.15	56308.90
649.34	56198.31
649.54	55964.84
649.73	55565.49
649.92	56243.37
650.12	55624.88
650.31	55854.25
650.51	55942.31
650.70	55960.75
650.89	55497.91
651.09	56648.86
651.28	55921.83
651.47	56358.05
651.67	56042.66
651.86	55747.76
652.06	55252.15
652.25	56202.41
652.44	55948.46
652.64	55962.79
652.83	55958.70
653.02	55514.29
653.22	55841.96
653.41	56091.82
653.60	55594.16
653.80	55506.10
653.99	56456.35
654.18	55555.25
654.38	55514.29
654.57	56104.10
654.76	55624.88
654.96	55960.75
655.15	55801.00
655.34	55461.04
655.54	55714.99
655.73	56257.70
655.92	56173.73
656.12	55680.17
656.31	55755.95
656.50	55336.12
656.70	55882.92
656.89	55723.18
657.08	55671.98
657.28	55510.19
657.47	55801.00
657.66	56097.96
657.86	55944.36
658.05	56089.77
658.24	55776.43
658.43	55714.99
658.63	56194.21
658.82	56057.00
659.01	55567.54
659.21	56198.31
659.40	56005.80
659.59	55868.59
659.79	56054.95
659.98	55870.64
660.17	56235.17
660.36	56079.53
660.56	55837.87
660.75	56106.15
660.94	56057.00
661.14	55831.72
661.33	55850.16
661.52	55671.98
661.71	56374.44
661.91	55469.23
662.10	55678.13
662.29	56235.17
662.49	55606.45
662.68	55698.61
662.87	55948.46
663.06	55801.00
663.26	55782.57
663.45	56358.05
663.64	55780.52
663.83	56132.78
664.03	56235.17
664.22	56022.19
664.41	56198.31
664.60	55866.54
664.80	55858.35
664.99	55794.86
665.18	55624.88
665.37	55657.65
665.57	56054.95
665.76	55569.58
665.95	55702.70
666.14	55792.81
666.34	55850.16
666.53	55948.46
666.72	55823.53
666.91	55927.98
667.11	55682.22
667.30	56308.90
667.49	55628.98
667.68	55532.72
667.87	55336.12
668.07	55991.47
668.26	56210.60
668.45	55899.31
668.64	55569.58
668.84	56181.93
669.03	55796.91
669.22	55882.92
669.41	56157.35
669.60	56026.28
669.80	55237.81
669.99	55889.07
670.18	55549.10
670.37	55915.69
670.57	56112.30
670.76	55639.22
670.95	55950.51
671.14	55952.55
671.33	55612.59
671.53	56194.21
671.72	55907.50
671.91	55585.97
672.10	55413.94
672.29	55641.26
672.48	55813.29
672.68	55844.01
672.87	55229.62
673.06	55620.78
673.25	55430.32
673.44	56009.90
673.64	55153.85
673.83	55741.61
674.02	55719.09
674.21	55063.74
674.40	55897.26
674.59	55770.28
674.79	55354.55
674.98	55401.65
675.17	56341.67
675.36	55563.44
675.55	56063.14
675.74	55352.50
675.94	55915.69
676.13	56046.76
676.32	55811.24
676.51	55977.13
676.70	56087.72
676.89	55637.17
677.08	55774.38
677.28	55297.20
677.47	55968.94
677.66	56145.06
677.85	55301.30
678.04	55745.71
678.23	55835.82
678.42	55936.17
678.62	55665.84
678.81	55921.83
679.00	55391.41
679.19	56147.11
679.38	55563.44
679.57	55465.14
679.76	55803.05
679.96	55620.78
680.15	55975.08
680.34	55862.44
680.53	55717.04
680.72	55989.42
680.91	55850.16
681.10	55870.64
681.29	55491.76
681.48	55497.91
681.68	55823.53
681.87	55780.52
682.06	55592.11
682.25	55145.65
682.44	55698.61
682.63	55684.27
682.82	55436.47
683.01	55035.06
683.20	55057.59
683.39	55510.19
683.59	55506.10
683.78	55557.30
683.97	55297.20
684.16	55841.96
684.35	54903.99
684.54	55350.45
684.73	55289.01
684.92	55313.59
685.11	55219.38
685.30	55227.57
685.49	55719.09
685.69	55018.68
685.88	55422.13
686.07	55389.36
686.26	55153.85
686.45	55514.29
686.64	55293.11
686.83	55243.96
687.02	55258.29
687.21	55502.00
687.40	55305.40
687.59	55233.72
687.78	55440.56
687.97	55616.69
688.16	55284.92
688.35	55248.05
688.54	55309.49
688.74	55366.84
688.93	54944.95
689.12	54969.53
689.31	54916.28
689.50	55198.90
689.69	54893.75
689.88	54707.39
690.07	55284.92
690.26	54979.77
690.45	55676.08
690.64	55116.98
690.83	54629.57
691.02	54942.91
691.21	54815.93
691.40	54957.24
691.59	55088.31
691.78	55035.06
691.97	54688.96
692.16	54797.50
692.35	55026.87
692.54	55170.23
692.73	55250.10
692.92	54934.71
693.11	55051.45
693.30	55092.41
693.49	55266.48
693.68	54799.55
693.87	55104.70
694.06	54420.67
694.25	54744.25
694.44	54772.92
694.63	54979.77
694.82	54549.70
695.01	54541.50
695.20	54678.72
695.39	54543.55
695.58	54443.20
695.77	54156.49
695.96	54242.50
696.15	54760.64
696.34	54412.48
696.53	54781.12
696.72	54512.83
696.91	54121.67
697.10	54181.06
697.29	54301.89
697.48	54449.35
697.67	54480.06
697.86	54033.61
698.05	54645.95
698.24	54856.89
698.43	54144.20
698.62	54445.25
698.81	54285.51
699.00	54545.60
699.19	54287.56
699.38	54209.73
699.57	54025.42
699.76	54580.42
699.95	53763.28
700.14	53871.82
700.32	54189.25
700.51	54127.81
700.70	54604.99
700.89	54154.44
701.08	53984.46
701.27	53843.15
701.46	54570.18
701.65	53650.64
701.84	54103.24
702.03	54039.75
702.22	53634.25
702.41	53699.79
702.60	54156.49
702.79	53554.38
702.98	53548.24
703.17	53941.45
703.35	53757.13
703.54	53535.95
703.73	54269.12
703.92	53757.13
704.11	54109.38
704.30	53638.35
704.49	53882.06
704.68	53851.34
704.87	53478.61
705.06	53282.00
705.25	53494.99
705.43	53716.17
705.62	53359.83
705.81	54211.78
706.00	53802.19
706.19	53517.52
706.38	53337.30
706.57	53134.55
706.76	53605.58
706.95	53445.84
707.14	53298.39
707.32	53703.88
707.51	53243.09
707.70	53179.60
707.89	53574.86
708.08	53124.31
708.27	53386.45
708.46	53705.93
708.65	53302.48
708.84	53683.40
709.02	53370.07
709.21	53331.15
709.40	53503.18
709.59	52966.62
709.78	53116.12
709.97	53466.32
710.16	53120.21
710.34	53585.10
710.53	52659.42
710.72	52593.89
710.91	53232.85
711.10	53189.84
711.29	53177.56
711.48	52706.52
711.66	52604.13
711.85	52708.57
712.04	52835.55
712.23	52491.49
712.42	52675.80
712.61	52567.26
712.80	52491.49
712.98	52888.79
713.17	52577.50
713.36	52649.18
713.55	52194.53
713.74	52458.72
713.93	52438.24
714.11	52491.49
714.30	52139.24
714.49	52288.74
714.68	52442.34
714.87	52466.91
715.06	52569.31
715.24	52143.33
715.43	51936.49
715.62	52092.13
715.81	51997.93
716.00	52499.68
716.18	51635.44
716.37	51827.95
716.56	51770.60
716.75	52055.27
716.94	51948.78
717.12	51643.63
717.31	51930.34
717.50	51913.96
717.69	51895.53
717.88	52030.69
718.06	51991.78
718.25	51891.43
718.44	51291.38
718.63	51698.92
718.82	51287.28
719.00	51483.89
719.19	51178.74
719.38	51193.07
719.57	51250.42
719.76	50756.86
719.94	50619.64
720.13	50967.80
720.32	51205.36
720.51	50787.58
720.69	50713.85
720.88	50803.96
721.07	50943.22
721.26	50257.15
721.44	50488.57
721.63	50261.25
721.82	50021.64
722.01	50435.33
722.20	50226.43
722.38	50007.30
722.57	49825.03
722.76	50377.98
722.95	49863.94
723.13	49655.05
723.32	49845.51
723.51	49921.29
723.70	49671.43
723.88	49468.69
724.07	49483.02
724.26	49569.04
724.44	49009.94
724.63	50046.21
724.82	49874.18
725.01	49472.78
725.19	49919.24
725.38	49560.84
725.57	49001.75
725.76	49728.78
725.94	49167.63
726.13	48985.36
726.32	49136.91
726.51	49300.75
726.69	49098.00
726.88	49159.44
727.07	49331.47
727.25	49032.47
727.44	49007.89
727.63	49349.90
727.82	49249.55
728.00	49192.21
728.19	48735.51
728.38	49270.03
728.56	48485.66
728.75	48706.84
728.94	49005.84
729.12	48903.45
729.31	49132.82
729.50	48821.53
729.69	49173.78
729.87	48606.49
730.06	48811.29
730.25	48985.36
730.43	49186.07
730.62	48543.00
730.81	48633.11
730.99	49020.18
731.18	48526.62
731.37	48809.24
731.55	48962.84
731.74	49007.89
731.93	48913.69
732.11	48598.30
732.30	49007.89
732.49	48520.48
732.67	48766.23
732.86	48694.55
733.05	48962.84
733.23	48483.61
733.42	48772.38
733.61	48348.45
733.79	48497.95
733.98	48518.43
734.17	48631.07
734.35	48383.26
734.54	48479.52
734.73	48463.13
734.91	48540.96
735.10	48127.27
735.29	48350.49
735.47	48055.59
735.66	47996.20
735.84	48260.38
736.03	47590.70
736.22	48127.27
736.40	47973.67
736.59	48430.36
736.78	48239.90
736.96	48110.88
737.15	48102.69
737.33	47797.54
737.52	48211.23
737.71	47379.76
737.89	47695.14
738.08	47471.92
738.27	47807.78
738.45	47885.61
738.64	47842.60
738.82	47674.66
739.01	47633.71
739.20	47228.21
739.38	47555.88
739.57	47217.97
739.75	47680.81
739.94	47222.06
740.13	47408.43
740.31	47293.74
740.50	47373.61
740.68	47799.59
740.87	47443.24
741.06	47338.80
741.24	47271.21
741.43	46826.81
741.61	47281.45
741.80	47031.60
741.99	46800.18
742.17	46650.68
742.36	47260.97
742.54	46767.41
742.73	46826.81
742.91	47086.90
743.10	46626.10
743.29	47166.77
743.47	47371.57
743.66	47303.98
743.84	46695.74
744.03	46673.21
744.21	46443.84
744.40	47007.03
744.59	46601.53
744.77	46460.22
744.96	46660.92
745.14	46458.17
745.33	46560.57
745.51	46570.81
745.70	46314.81
745.88	46112.06
746.07	46153.02
746.26	45882.69
746.44	46036.29
746.63	45784.39
746.81	46144.83
747.00	45935.94
747.18	46802.23
747.37	45528.39
747.55	45806.92
747.74	46220.61
747.92	45555.02
748.11	45684.04
748.29	45626.70
748.48	46054.72
748.66	45722.95
748.85	45710.66
749.03	45675.85
749.22	45804.87
749.41	45815.11
749.59	45522.25
749.78	45233.49
749.96	45249.87
750.15	45382.99
750.33	45471.05
750.52	45294.92
750.70	45442.38
750.89	45176.14
751.07	45184.33
751.26	45385.04
751.44	44684.63
751.63	45034.83
751.81	44598.62
752.00	45165.90
752.18	45303.12
752.37	44762.45
752.55	44592.47
752.74	44938.58
752.92	44582.23
753.10	44414.30
753.29	44770.64
753.47	44666.20
753.66	44389.72
753.84	44588.38
754.03	44721.49
754.21	44455.26
754.40	44404.06
754.58	44731.73
754.77	44582.23
754.95	44299.61
755.14	44129.63
755.32	44229.98
755.51	44463.45
755.69	44262.75
755.88	44049.76
756.06	43865.44
756.24	43828.58
756.43	44078.43
756.61	43892.07
756.80	44309.85
756.98	43392.36
757.17	43750.76
757.35	43509.10
757.54	43670.89
757.72	43799.91
757.90	43435.37
758.09	43795.81
758.27	43122.03
758.46	43382.12
758.64	43472.23
758.83	43545.96
759.01	43218.28
759.19	43306.35
759.38	43357.55
759.56	43863.39
759.75	43431.27
759.93	43437.42
760.12	42993.01
760.30	43687.27
760.48	42976.62
760.67	42952.05
760.85	43400.55
761.04	43103.60
761.22	43193.71
761.40	42673.52
761.59	42968.43
761.77	42972.53
761.96	43244.91
762.14	42485.11
762.32	42528.12
762.51	42620.28
762.69	42481.02
762.88	42626.42
763.06	42349.95
763.24	42694.00
763.43	42786.16
763.61	42337.66
763.80	42079.61
763.98	42308.99
764.16	41940.35
764.35	42042.75
764.53	41536.90
764.72	41899.39
764.90	41969.02
765.08	42288.51
765.27	41854.34
765.45	41891.20
765.63	41524.61
765.82	42030.46
766.00	41516.42
766.18	41508.23
766.37	41805.19
766.55	41590.15
766.74	41735.56
766.92	41620.87
767.10	41344.39
767.29	41469.32
767.47	41282.95
767.65	41393.54
767.84	41131.40
768.02	41500.04
768.20	40928.66
768.39	41977.22
768.57	41000.33
768.75	41385.35
768.94	40660.37
769.12	40869.26
769.30	41094.54
769.49	41278.86
769.67	40730.00
769.85	40375.70
770.04	40809.87
770.22	40627.60
770.40	40617.36
770.59	40715.67
770.77	41043.34
770.95	40785.30
771.14	40506.77
771.32	40433.05
771.50	40392.09
771.69	40308.12
771.87	40439.19
772.05	40695.19
772.24	40238.49
772.42	39945.63
772.60	40226.20
772.78	40295.83
772.97	40095.13
773.15	40371.61
773.33	40304.02
773.52	39937.44
773.70	40213.91
773.88	40043.93
774.07	39722.40
774.25	40041.88
774.43	40377.75
774.61	39900.58
774.80	40203.67
774.98	40193.43
775.16	39990.69
775.34	40353.18
775.53	40002.97
775.71	40052.12
775.89	40240.54
776.08	40387.99
776.26	40451.48
776.44	40156.57
776.62	40041.88
776.81	40066.46
776.99	40428.95
777.17	40129.95
777.35	40168.86
777.54	40295.83
777.72	39785.89
777.90	40306.07
778.08	40070.56
778.27	40271.26
778.45	40312.22
778.63	40658.32
778.81	39910.82
779.00	40773.01
779.18	40351.13
779.36	41059.73
779.54	40250.78
779.73	40637.84
779.91	40617.36
780.09	40654.23
780.27	40764.82
780.46	40740.24
780.64	40949.14
780.82	40242.59
781.00	40867.22
781.19	40932.75
781.37	40850.83
781.55	40699.28
781.73	41078.16
781.91	40553.88
782.10	41072.01
782.28	41002.38
782.46	40920.46
782.64	41139.60
782.82	40617.36
783.01	41121.16
783.19	41207.18
783.37	40779.15
783.55	40945.04
783.74	41141.64
783.92	41104.78
784.10	41309.58
784.28	41110.92
784.46	40711.57
784.64	40783.25
784.83	41340.30
785.01	41262.47
785.19	40826.26
785.37	41151.88
785.55	40791.44
785.74	40957.33
785.92	40404.38
786.10	41260.43
786.28	41440.65
786.46	40725.91
786.64	40390.04
786.83	40375.70
787.01	40942.99
787.19	40523.16
787.37	40445.33
787.55	40682.90
787.74	40459.67
787.92	40633.75
788.10	40463.77
788.28	40220.06
788.46	40441.24
788.64	40168.86
788.82	40676.76
789.01	40344.98
789.19	40803.73
789.37	39828.90
789.55	40564.12
789.73	40013.21
789.91	40023.45
790.09	39935.39
790.28	39935.39
790.46	39781.79
790.64	40152.48
790.82	40256.92
791.00	39607.72
791.18	39736.74
791.36	39519.65
791.55	39581.09
791.73	39736.74
791.91	39224.75
792.09	39396.77
792.27	39607.72
792.45	39368.10
792.63	39579.04
792.81	39286.18
793.00	39214.51
793.18	39372.20
793.36	39577.00
793.54	38878.64
793.72	38727.09
793.90	38860.21
794.08	38694.32
794.26	38999.47
794.44	38800.82
794.62	38331.83
794.81	38518.20
794.99	38620.59
795.17	38518.20
795.35	38563.25
795.53	38405.56
795.71	38323.64
795.89	37950.91
796.07	37854.65
796.25	37920.19
796.43	38149.56
796.61	37512.64
796.80	37551.56
796.98	37666.24
797.16	37621.19
797.34	37471.68
797.52	37508.55
797.70	37860.80
797.88	37381.57
798.06	36883.92
798.24	37330.37
798.42	37227.98
798.60	36777.42
798.78	36668.88
798.96	36861.39
799.14	36787.66
799.32	36511.19
799.51	36584.91
799.69	36963.79
799.87	36888.01
800.05	36152.79
800.23	36521.43
800.41	36267.48
800.59	36474.32
800.77	36195.80
800.95	35909.08
801.13	36122.07
801.31	35976.67
801.49	35720.67
801.67	35579.36
801.85	35419.62
802.03	35501.54
802.21	35823.07
802.39	35368.42
802.57	35532.26
802.75	35337.70
802.93	35188.20
803.11	35204.58
803.29	35073.51
803.47	35040.75
803.65	34936.30
803.83	34964.97
804.01	34780.65
804.19	34944.49
804.37	34842.09
804.55	34661.87
804.73	34524.66
804.91	34362.87
805.09	34213.37
805.27	34651.63
805.45	34848.24
805.63	34289.14
805.81	34391.54
805.99	34465.27
806.17	34217.46
806.35	34231.80
806.53	34014.71
806.71	33867.26
806.89	33519.10
807.07	34125.30
807.25	33830.40
807.43	33545.73
807.61	33748.48
807.79	33744.38
807.97	33543.68
808.15	33574.40
808.33	33437.19
808.51	33416.71
808.69	33416.71
808.87	33254.92
809.05	33234.44
809.23	33371.65
809.41	32654.86
809.59	32910.86
809.77	33336.84
809.95	32679.44
810.13	32927.24
810.31	32908.81
810.49	32564.75
810.67	32618.00
810.84	32673.29
811.02	32841.23
811.20	32622.09
811.38	32282.13
811.56	32216.60
811.74	32169.49
811.92	31817.24
812.10	32265.75
812.28	32290.32
812.46	32149.01
812.64	32192.02
812.82	31956.50
813.00	31856.15
813.18	31981.08
813.36	31694.36
813.53	31520.29
813.71	31673.88
813.89	31348.26
814.07	31880.73
814.25	31872.54
814.43	31401.50
814.61	31262.24
814.79	31114.79
814.97	31163.94
815.15	31252.00
815.33	31049.25
815.50	30885.42
815.68	31086.12
815.86	31557.15
816.04	30875.18
816.22	30844.46
816.40	31075.88
816.58	30760.49
816.76	30887.46
816.94	30578.22
817.11	30697.00
817.29	30840.36
817.47	30899.75
817.65	30531.12
817.83	30756.39
818.01	30441.01
818.19	30463.54
818.37	30328.37
818.54	29976.12
818.72	30178.87
818.90	30193.20
819.08	30174.77
819.26	30103.09
819.44	30090.80
819.62	30092.85
819.80	30131.76
819.97	29984.31
820.15	30117.43
820.33	29828.66
820.51	29824.57
820.69	29767.23
820.87	29939.26
821.05	29978.17
821.22	29820.47
821.40	29806.14
821.58	29511.23
821.76	29470.27
821.94	29537.85
822.12	29533.76
822.29	29273.67
822.47	29195.84
822.65	29427.26
822.83	29666.88
823.01	29206.08
823.19	29101.64
823.36	29072.96
823.54	28962.37
823.72	29290.05
823.90	28819.02
824.08	28872.26
824.25	28749.39
824.43	28671.56
824.61	28753.48
824.79	28929.61
824.97	28483.15
825.15	28360.27
825.32	28458.57
825.50	28513.87
825.68	28673.61
825.86	28925.51
826.04	28730.95
826.21	28503.63
826.39	28546.64
826.57	28565.07
826.75	28200.53
826.93	28134.99
827.10	27874.90
827.28	28116.56
827.46	28196.43
827.64	28063.32
827.81	28229.20
827.99	28085.84
828.17	27483.74
828.35	27840.09
828.53	28120.66
828.70	27864.66
828.88	28020.31
829.06	27913.81
829.24	28038.74
829.41	27426.40
829.59	27680.35
829.77	27792.98
829.95	27582.04
830.12	27600.47
830.30	27727.45
830.48	27526.75
830.66	27655.77
830.84	27485.79
831.01	27364.96
831.19	27528.80
831.37	27145.83
831.55	27317.86
831.72	27268.70
831.90	27338.33
832.08	27176.55
832.25	27055.72
832.43	27369.05
832.61	26877.54
832.79	27041.38
832.96	26883.69
833.14	27063.91
833.32	27530.84
833.50	27123.30
833.67	27084.39
833.85	26871.40
834.03	26740.33
834.20	26842.73
834.38	26981.99
834.56	26695.27
834.74	26742.38
834.91	26605.16
835.09	26521.20
835.27	26386.03
835.44	26476.14
835.62	26060.40
835.80	26388.08
835.98	26474.09
836.15	26170.99
836.33	26343.02
836.51	26314.35
836.68	26127.99
836.86	26056.31
837.04	26322.54
837.21	26015.35
837.39	26257.01
837.57	26627.69
837.75	26246.77
837.92	25450.11
838.10	25702.01
838.28	25775.73
838.45	25986.68
838.63	25755.26
838.81	25745.02
838.98	25781.88
839.16	25380.48
839.34	25464.44
839.51	25497.21
839.69	25460.35
839.87	25386.62
840.04	25413.24
840.22	25532.03
840.40	25384.57
840.57	25251.45
840.75	25554.55
840.93	25048.71
841.10	25136.77
841.28	25503.35
841.46	25521.79
841.63	25403.00
841.81	25202.30
841.98	25216.64
842.16	25218.69
842.34	24985.22
842.51	25065.09
842.69	25286.27
842.87	25046.66
843.04	25183.87
843.22	25058.95
843.40	24899.20
843.57	25030.27
843.75	25259.65
843.92	25110.14
844.10	24972.93
844.28	25052.80
844.45	24581.77
844.63	24641.16
844.81	24721.03
844.98	24657.54
845.16	24542.86
845.33	24708.74
845.51	24635.02
845.69	24497.80
845.86	24145.55
846.04	24448.65
846.21	24297.10
846.39	24434.32
846.57	24100.50
846.74	24583.82
846.92	24381.07
847.09	24147.60
847.27	24250.00
847.45	24139.41
847.62	24188.56
847.80	24147.60
847.97	24049.30
848.15	24022.67
848.32	24061.58
848.50	23977.62
848.68	24000.15
848.85	23711.38
849.03	23840.40
849.20	23975.57
849.38	23891.60
849.56	23666.33
849.73	23516.83
849.91	23627.42
850.08	23715.48
850.26	23422.62
850.43	23418.52
850.61	23570.07
850.78	23424.67
850.96	23344.80
851.14	23217.82
851.31	23600.79
851.49	23426.71
851.66	23668.37
851.84	23154.33
852.01	23488.15
852.19	23355.04
852.36	23191.20
852.54	23344.80
852.71	23260.83
852.89	22886.05
853.07	23140.00
853.24	23133.86
853.42	22884.00
853.59	22849.19
853.77	23096.99
853.94	23193.25
854.12	23383.71
854.29	22720.17
854.47	22890.15
854.64	23000.74
854.82	22980.26
854.99	22843.04
855.17	22566.57
855.34	22881.95
855.52	22455.98
855.69	22537.90
855.87	22433.45
856.04	22212.27
856.22	22591.14
856.39	22316.72
856.57	22347.44
856.74	22251.18
856.92	22382.25
857.09	22331.05
857.27	22365.87
857.44	22455.98
857.62	22138.54
857.79	22421.16
857.97	22267.56
858.14	22224.56
858.32	22068.91
858.49	22144.69
858.67	22015.66
858.84	21814.96
859.02	21751.48
859.19	21898.93
859.37	21884.59
859.54	21962.42
859.72	22085.30
859.89	21849.78
860.06	21943.99
860.24	21825.20
860.41	21839.54
860.59	21671.61
860.76	21687.99
860.94	21354.17
861.11	21743.28
861.29	21601.97
861.46	21663.41
861.64	21227.20
861.81	21534.39
861.98	21493.43
862.16	21333.69
862.33	21325.50
862.51	21014.21
862.68	21348.03
862.86	21008.06
863.03	21417.66
863.21	21020.35
863.38	21194.43
863.55	21077.69
863.73	21169.85
863.90	21298.88
864.08	21221.05
864.25	20989.63
864.43	20836.03
864.60	20915.90
864.77	20756.16
864.95	20629.19
865.12	20610.76
865.30	20692.68
865.47	20711.11
865.64	20543.17
865.82	20723.40
865.99	20700.87
866.17	20520.65
866.34	20905.66
866.51	20553.41
866.69	20817.60
866.86	20778.69
867.04	20487.88
867.21	20537.03
867.38	20344.52
867.56	20422.34
867.73	20135.63
867.91	20162.25
868.08	20240.08
868.25	20321.99
868.43	20303.56
868.60	20315.85
868.78	20068.05
868.95	20348.62
869.12	20082.38
869.30	20031.18
869.47	20315.85
869.64	19793.62
869.82	19875.54
869.99	20031.18
870.16	20063.95
870.34	19592.92
870.51	19754.71
870.69	19564.25
870.86	19574.49
871.03	19597.01
871.21	19443.42
871.38	19502.81
871.55	19476.18
871.73	19447.51
871.90	19480.28
872.07	19199.71
872.25	19128.03
872.42	19517.14
872.59	19369.69
872.77	18999.01
872.94	19099.36
873.11	19076.83
873.29	19138.27
873.46	18900.70
873.63	18960.09
873.81	18890.46
873.98	19052.25
874.15	18841.31
874.33	18657.00
874.50	18630.37
874.67	18927.33
874.85	18456.29
875.02	18761.44
875.19	18732.77
875.37	18704.10
875.54	18560.74
875.71	18558.69
875.88	18470.63
876.06	18624.23
876.23	18241.26
876.40	18222.83
876.58	18482.92
876.75	18329.32
876.92	18247.40
877.10	18499.30
877.27	18292.46
877.44	18198.25
877.61	18286.31
877.79	18214.63
877.96	18005.74
878.13	18009.84
878.31	17880.82
878.48	17796.85
878.65	17950.45
878.82	17741.55
879.00	17882.86
879.17	17737.46
879.34	17780.46
879.51	17725.17
879.69	17411.83
879.86	17733.36
880.03	17579.76
880.21	17489.65
880.38	17639.15
880.55	17452.79
880.72	17444.60
880.90	17362.68
881.07	17315.58
881.24	17276.66
881.41	17305.34
881.59	17086.20
881.76	17340.15
881.93	17063.68
882.10	17135.35
882.28	16803.58
882.45	16981.76
882.62	17059.58
882.79	17131.26
882.96	16852.73
883.14	17182.46
883.31	17170.17
883.48	17065.72
883.65	16887.55
883.83	16858.88
884.00	16948.99
884.17	17096.44
884.34	17198.84
884.51	16799.49
884.69	16959.23
884.86	16754.43
885.03	17006.33
885.20	16545.54
885.38	16723.71
885.55	16670.47
885.72	16688.90
885.89	16797.44
886.06	16754.43
886.24	16469.76
886.41	16658.18
886.58	16768.77
886.75	16721.66
886.92	16543.49
887.10	16615.17
887.27	16330.50
887.44	16342.79
887.61	16748.29
887.78	16563.97
887.95	16318.22
888.13	16242.44
888.30	16199.43
888.47	16455.43
888.64	16238.34
888.81	16252.68
888.99	16279.30
889.16	16117.51
889.33	15949.58
889.50	15869.71
889.67	15922.96
889.84	15947.53
890.01	16113.42
890.19	15871.76
890.36	16025.36
890.53	15810.32
890.70	15978.25
890.87	16191.24
891.04	15775.50
891.22	15656.72
891.39	15898.38
891.56	15724.30
891.73	15775.50
891.90	15372.05
892.07	15359.77
892.24	15646.48
892.42	15363.86
892.59	15513.36
892.76	15468.31
892.93	15288.09
893.10	15695.63
893.27	15384.34
893.44	15333.14
893.61	15279.89
893.79	15523.60
893.96	15324.95
894.13	15224.60
894.30	15341.33
894.47	15128.35
894.64	15343.38
894.81	15329.05
894.98	15445.78
895.15	15580.95
895.33	15298.33
895.50	15189.78
895.67	15212.31
895.84	15111.96
896.01	15413.01
896.18	15177.50
896.35	15353.62
896.52	15378.20
896.69	15185.69
896.86	15400.72
897.04	14987.04
897.21	15204.12
897.38	15249.18
897.55	15095.58
897.72	15165.21
897.89	15144.73
898.06	15283.99
898.23	14888.73
898.40	15157.02
898.57	14954.27
898.74	15101.72
898.91	14921.50
899.08	15054.62
899.26	15042.33
899.43	15146.78
899.60	15109.91
899.77	14993.18
899.94	15167.26
900.11	14894.88
900.28	14978.84
900.45	15111.96
900.62	15036.19
900.79	15052.57
900.96	14888.73
901.13	14939.93
901.30	15044.38
901.47	14790.43
901.64	15114.01
901.81	15195.93
901.98	14636.83
902.15	14802.72
902.32	14864.16
902.49	15060.76
902.66	14841.63
902.83	14718.75
903.01	14954.27
903.18	15007.52
903.35	15021.85
903.52	14827.29
903.69	14894.88
903.86	14946.08
904.03	15218.46
904.20	15058.71
904.37	15173.40
904.54	14960.41
904.71	14976.80
904.88	15173.40
905.05	14753.57
905.22	15079.19
905.39	14634.78
905.56	14853.92
905.73	14640.93
905.90	14757.66
906.07	14966.56
906.24	14821.15
906.41	14976.80
906.58	14835.49
906.75	14782.24
906.92	14804.77
907.09	14858.01
907.26	14946.08
907.43	14608.16
907.60	14901.02
907.77	14917.40
907.93	14935.84
908.10	14728.99
908.27	14710.56
908.44	14862.11
908.61	14659.36
908.78	14976.80
908.95	14726.94
909.12	14714.66
909.29	14636.83
909.46	14649.12
909.63	14937.88
909.80	14602.02
909.97	14788.38
910.14	14692.13
910.31	14632.74
910.48	14714.66
910.65	14524.19
910.82	14397.22
910.99	14673.70
911.16	14733.09
911.33	14470.95
911.50	14511.91
911.66	14372.64
911.83	14518.05
912.00	14272.29
912.17	14153.51
912.34	14264.10
912.51	14391.08
912.68	14382.88
912.85	14348.07
913.02	14446.37
913.19	14266.15
913.36	14391.08
913.53	14384.93
913.70	14180.14
913.86	14231.33
914.03	14296.87
914.20	14135.08
914.37	14268.20
914.54	14120.74
914.71	14120.74
914.88	13887.28
915.05	14006.06
915.22	14120.74
915.39	13924.14
915.55	13762.35
915.72	13926.19
915.89	13866.80
916.06	13713.20
916.23	13762.35
916.40	13780.78
916.57	13676.34
916.74	13723.44
916.91	13754.16
917.07	13602.61
917.24	13444.91
917.41	13600.56
917.58	13487.92
917.75	13575.98
917.92	13147.96
918.09	13395.76
918.26	13463.35
918.42	13524.79
918.59	13434.68
918.76	13356.85
918.93	13131.58
919.10	13266.74
919.27	13041.46
919.44	13088.57
919.60	13156.15
919.77	13291.32
919.94	12912.44
920.11	12975.93
920.28	13111.10
920.45	12797.76
920.61	13082.42
920.78	12848.96
920.95	12832.57
921.12	12699.45
921.29	12435.27
921.46	12549.95
921.62	12617.54
921.79	12629.82
921.96	12367.68
922.13	12386.12
922.30	12595.01
922.47	12402.50
922.63	12379.97
922.80	12238.66
922.97	12394.31
923.14	12244.81
923.31	12324.68
923.47	12150.60
923.64	12298.05
923.81	12087.11
923.98	12119.88
924.15	12042.06
924.32	11863.88
924.48	11892.55
924.65	11779.92
924.82	11910.99
924.99	11997.00
925.15	11734.86
925.32	11831.12
925.49	11519.82
925.66	11532.11
925.83	11661.13
925.99	11700.05
926.16	11644.75
926.33	11585.36
926.50	11325.27
926.67	11573.07
926.83	11575.12
927.00	11409.23
927.17	11226.96
927.34	11159.38
927.50	11280.21
927.67	11403.09
927.84	11116.37
928.01	11278.16
928.17	11075.42
928.34	11093.85
928.51	11050.84
928.68	11097.94
928.84	10932.06
929.01	10753.88
929.18	10674.01
929.35	10579.81
929.51	10559.33
929.68	10561.37
929.85	10487.65
930.02	10614.62
930.18	10422.11
930.35	10538.85
930.52	10325.86
930.69	10346.34
930.85	10262.37
931.02	10133.35
931.19	10323.81
931.36	10174.31
931.52	10307.43
931.69	10100.58
931.86	10329.95
932.02	10082.15
932.19	10164.07
932.36	9899.88
932.53	9924.46
932.69	9815.91
932.86	9959.27
933.03	9893.74
933.19	9654.12
933.36	9817.96
933.53	9604.97
933.70	9490.29
933.86	9738.09
934.03	9506.67
934.20	9490.29
934.36	9613.17
934.53	9187.19
934.70	9166.71
934.86	9222.00
935.03	9140.08
935.20	9135.99
935.36	9099.13
935.53	8931.19
935.70	8800.12
935.86	8939.38
936.03	8583.04
936.20	8701.82
936.36	8400.77
936.53	8425.34
936.70	8365.95
936.86	8486.78
937.03	8218.50
937.20	8097.67
937.36	8306.56
937.53	7972.74
937.70	7942.02
937.86	7636.88
938.03	7792.52
938.20	7980.93
938.36	7583.63
938.53	7638.92
938.70	7413.65
938.86	7235.47
939.03	7301.01
939.20	7317.39
939.36	7212.95
939.53	7167.89
939.70	7309.20
939.86	6907.80
940.03	6793.11
940.19	6793.11
940.36	6852.50
940.53	6668.19
940.69	6754.20
940.86	6561.69
941.03	6412.19
941.19	6342.56
941.36	6274.98
941.52	6272.93
941.69	6211.49
941.86	6195.11
942.02	6199.20
942.19	6047.65
942.35	6080.42
942.52	5969.83
942.69	5955.49
942.85	5865.38
943.02	5832.62
943.18	5840.81
943.35	5756.84
943.52	5879.72
943.68	5490.60
943.85	5687.21
944.01	5679.02
944.18	5629.87
944.35	5713.83
944.51	5523.37
944.68	5394.35
944.84	5431.21
945.01	5273.52
945.17	5513.13
945.34	5455.79
945.51	5420.97
945.67	5332.91
945.84	5300.14
946.00	5326.77
946.17	5283.76
946.33	5248.94
946.50	5236.66
946.67	5283.76
946.83	5093.30
947.00	5390.25
947.16	5175.22
947.33	5205.94
947.49	5412.78
947.66	5277.62
947.82	5271.47
947.99	5111.73
948.16	5337.01
948.32	5222.32
948.49	5427.12
948.65	5351.34
948.82	5359.53
948.98	5291.95
949.15	5246.90
949.31	5416.88
949.48	5468.08
949.64	5318.57
949.81	5250.99
949.97	5240.75
950.14	5298.10
950.30	5226.42
950.47	5222.32
950.63	5406.64
950.80	5267.38
950.96	5283.76
951.13	5390.25
951.30	5271.47
951.46	5343.15
951.63	5468.08
951.79	5339.05
951.96	5345.20
952.12	5283.76
952.29	5400.49
952.45	5334.96
952.62	5453.74
952.78	5425.07
952.94	5318.57
953.11	5390.25
953.27	5320.62
953.44	5441.45
953.60	5388.21
953.77	5418.93
953.93	5418.93
954.10	5437.36
954.26	5410.73
954.43	5398.45
954.59	5492.65
954.76	5400.49
954.92	5412.78
955.09	5531.56
955.25	5375.92
955.42	5361.58
955.58	5623.72
955.75	5394.35
955.91	5476.27
956.07	5509.04
956.24	5439.40
956.40	5472.17
956.57	5564.33
956.73	5478.32
956.90	5439.40
957.06	5435.31
957.23	5590.95
957.39	5435.31
957.56	5599.15
957.72	5468.08
957.88	5425.07
958.05	5636.01
958.21	5511.08
958.38	5509.04
958.54	5365.68
958.71	5662.63
958.87	5494.70
959.03	5476.27
959.20	5457.84
959.36	5433.26
959.53	5451.69
959.69	5357.49
959.85	5535.66
960.02	5468.08
960.18	5525.42
960.35	5533.61
960.51	5793.70
960.68	5420.97
960.84	5519.28
961.00	5476.27
961.17	5457.84
961.33	5535.66
961.50	5420.97
961.66	5535.66
961.82	5443.50
961.99	5560.24
962.15	5451.69
962.31	5367.73
962.48	5527.47
962.64	5500.84
962.81	5408.69
962.97	5463.98
963.13	5418.93
963.30	5570.48
963.46	5404.59
963.62	5433.26
963.79	5339.05
963.95	5414.83
964.12	5420.97
964.28	5500.84
964.44	5316.53
964.61	5470.12
964.77	5517.23
964.93	5556.14
965.10	5420.97
965.26	5310.38
965.42	5291.95
965.59	5420.97
965.75	5267.38
965.92	5502.89
966.08	5294.00
966.24	5351.34
966.41	5312.43
966.57	5423.02
966.73	5345.20
966.90	5320.62
967.06	5257.14
967.22	5214.13
967.39	5257.14
967.55	5380.01
967.71	5384.11
967.88	5187.50
968.04	5294.00
968.20	5255.09
968.37	5222.32
968.53	5345.20
968.69	5306.29
968.85	5294.00
969.02	5283.76
969.18	5171.12
969.34	5179.31
969.51	5154.74
969.67	5273.52
969.83	4990.90
970.00	5238.70
970.16	5144.50
970.32	5156.79
970.48	5287.86
970.65	5121.97
970.81	5027.76
970.97	5162.93
971.14	5031.86
971.30	5181.36
971.46	5009.33
971.63	5126.07
971.79	5058.48
971.95	5085.11
972.11	4997.04
972.28	5130.16
972.44	5089.20
972.60	4908.98
972.76	5101.49
972.93	4978.61
973.09	5025.72
973.25	4976.56
973.42	4913.08
973.58	4902.84
973.74	4925.36
973.90	4933.56
974.07	4974.52
974.23	4890.55
974.39	4976.56
974.55	4925.36
974.72	4913.08
974.88	4728.76
975.04	4927.41
975.20	4720.57
975.37	4908.98
975.53	4984.76
975.69	4827.06
975.85	4675.51
976.01	4822.97
976.18	4802.49
976.34	4700.09
976.50	4800.44
976.66	4730.81
976.83	4837.30
976.99	4777.91
977.15	4669.37
977.31	4675.51
977.47	4865.97
977.64	4782.01
977.80	4775.86
977.96	4763.58
978.12	4757.43
978.29	4626.36
978.45	4663.22
978.61	4673.46
978.77	4552.63
978.93	4532.15
979.10	4542.39
979.26	4534.20
979.42	4546.49
979.58	4550.59
979.74	4509.63
979.91	4528.06
980.07	4589.50
980.23	4562.87
980.39	4503.48
980.55	4483.00
980.71	4362.17
980.88	4507.58
981.04	4382.65
981.20	4306.88
981.36	4446.14
981.52	4437.95
981.68	4472.76
981.85	4464.57
982.01	4396.99
982.17	4401.08
982.33	4286.40
982.49	4526.01
982.65	4345.79
982.82	4227.01
982.98	4341.69
983.14	4341.69
983.30	4323.26
983.46	4423.61
983.62	4259.78
983.79	4255.68
983.95	4177.86
984.11	4243.39
984.27	4194.24
984.43	4241.34
984.59	4251.58
984.75	4257.73
984.91	4261.82
985.08	4280.25
985.24	4132.80
985.40	4212.67
985.56	4253.63
985.72	4300.73
985.88	4171.71
986.04	4153.28
986.20	4173.76
986.37	4087.75
986.53	4108.23
986.69	4231.10
986.85	4138.94
987.01	4153.28
987.17	4095.94
987.33	3981.25
987.49	4132.80
987.65	4212.67
987.82	4081.60
987.98	3934.15
988.14	3952.58
988.30	4065.22
988.46	4048.83
988.62	4030.40
988.78	4075.46
988.94	4048.83
989.10	3866.56
989.26	3973.06
989.42	3852.23
989.59	3846.09
989.75	3837.89
989.91	3864.52
990.07	3829.70
990.23	3848.13
990.39	3889.09
990.55	3866.56
990.71	3813.32
990.87	3850.18
991.03	3846.09
991.19	3973.06
991.35	3796.93
991.51	3850.18
991.67	3966.92
991.83	3809.22
992.00	3760.07
992.16	3856.33
992.32	3788.74
992.48	3817.41
992.64	3694.54
992.80	3792.84
992.96	3798.98
993.12	3747.78
993.28	3647.43
993.44	3774.41
993.60	3667.91
993.76	3731.40
993.92	3680.20
994.08	3753.93
994.24	3629.00
994.40	3645.38
994.56	3618.76
994.72	3665.86
994.88	3645.38
995.04	3534.79
995.20	3575.75
995.36	3542.99
995.52	3631.05
995.68	3493.83
995.84	3514.31
996.00	3624.90
996.16	3557.32
996.32	3612.62
996.48	3467.21
996.64	3622.86
996.80	3403.72
996.96	3536.84
997.12	3422.16
997.28	3430.35
997.44	3420.11
997.60	3434.44
997.76	3493.83
997.92	3473.36
998.08	3434.44
998.24	3321.81
998.40	3346.38
998.56	3405.77
998.72	3368.91
998.88	3366.86
999.04	3293.13
999.20	3495.88
999.36	3327.95
999.52	3385.29
999.68	3426.25
999.84	3360.72
1000.00	3243.98
1000.16	3471.31
1000.32	3227.60
1000.48	3325.90
1000.64	3291.09
1000.80	3188.69
1000.95	3162.06
1001.11	3315.66
1001.27	3182.54
1001.43	3231.69
1001.59	3141.58
1001.75	3176.40
1001.91	3289.04
1002.07	3207.12
1002.23	3129.30
1002.39	3180.50
1002.55	3155.92
1002.71	3024.85
1002.87	3190.74
1003.03	3102.67
1003.19	3190.74
1003.34	3205.07
1003.50	3184.59
1003.66	3172.30
1003.82	3229.65
1003.98	3053.52
1004.14	3039.19
1004.30	3041.23
1004.46	3106.77
1004.62	3143.63
1004.78	3147.73
1004.94	2977.75
1005.09	3055.57
1005.25	3129.30
1005.41	3051.47
1005.57	3086.29
1005.73	3024.85
1005.89	3088.34
1006.05	3055.57
1006.21	3055.57
1006.37	2963.41
1006.52	2928.60
1006.68	2750.42
1006.84	3059.67
1007.00	2994.13
1007.16	3071.95
1007.32	2891.73
1007.48	3037.14
1007.64	2858.96
1007.79	2963.41
1007.95	2906.07
1008.11	2992.08
1008.27	2863.06
1008.43	2873.30
1008.59	2809.81
1008.75	2852.82
1008.91	2861.01
1009.06	2801.62
1009.22	2854.87
1009.38	2883.54
1009.54	2873.30
1009.70	2746.33
1009.86	2746.33
1010.01	2811.86
1010.17	2791.38
1010.33	2869.20
1010.49	2797.53
1010.65	2820.05
1010.81	2672.60
1010.96	2736.09
1011.12	2672.60
1011.28	2703.32
1011.44	2820.05
1011.60	2742.23
1011.76	2781.14
1011.91	2779.09
1012.07	2658.26
1012.23	2631.64
1012.39	2688.98
1012.55	2809.81
1012.71	2713.56
1012.86	2648.02
1013.02	2656.22
1013.18	2650.07
1013.34	2635.74
1013.50	2662.36
1013.65	2623.45
1013.81	2551.77
1013.97	2605.02
1014.13	2713.56
1014.29	2611.16
1014.44	2738.13
1014.60	2635.74
1014.76	2633.69
1014.92	2619.35
1015.07	2590.68
1015.23	2555.86
1015.39	2576.34
1015.55	2510.81
1015.71	2566.10
1015.86	2572.25
1016.02	2453.47
1016.18	2494.43
1016.34	2590.68
1016.49	2510.81
1016.65	2662.36
1016.81	2541.53
1016.97	2594.78
1017.12	2641.88
1017.28	2475.99
1017.44	2449.37
1017.60	2430.94
1017.75	2426.84
1017.91	2529.24
1018.07	2478.04
1018.23	2377.69
1018.38	2289.63
1018.54	2449.37
1018.70	2430.94
1018.86	2437.08
1019.01	2295.77
1019.17	2494.43
1019.33	2445.27
1019.49	2445.27
1019.64	2420.70
1019.80	2547.67
1019.96	2408.41
1020.12	2375.64
1020.27	2336.73
1020.43	2369.50
1020.59	2306.01
1020.74	2301.92
1020.90	2379.74
1021.06	2332.64
1021.22	2318.30
1021.37	2408.41
1021.53	2310.11
1021.69	2303.96
1021.84	2281.44
1022.00	2326.49
1022.16	2248.67
1022.31	2248.67
1022.47	2285.53
1022.63	2404.32
1022.79	2207.71
1022.94	2373.60
1023.10	2418.65
1023.26	2330.59
1023.41	2240.48
1023.57	2193.37
1023.73	2244.57
1023.88	2293.72
1024.04	2154.46
1024.20	2244.57
1024.35	2324.44
1024.51	2279.39
1024.67	2267.10
1024.82	2320.35
1024.98	2256.86
1025.14	2295.77
1025.29	2213.85
1025.45	2279.39
1025.61	2170.85
1025.76	2246.62
1025.92	2250.72
1026.08	2191.33
1026.23	2183.13
1026.39	2240.48
1026.55	2193.37
1026.70	2142.18
1026.86	2226.14
1027.02	2170.85
1027.17	2215.90
1027.33	2166.75
1027.48	2205.66
1027.64	2039.78
1027.80	2133.98
1027.95	2191.33
1028.11	2056.16
1028.27	2156.51
1028.42	2201.57
1028.58	2076.64
1028.73	2082.78
1028.89	2125.79
1029.05	2172.89
1029.20	2170.85
>>>>>End Processed Spectral Data<<<<<
