SpectraSuite Data File
++++++++++++++++++++++++++++++++++++
Date: Fri Jun 02 14:47:58 CEST 2017
User: INFO_000
Dark Spectrum Present: No
Reference Spectrum Present: No
Number of Sampled Component Spectra: 1
Spectrometers: USB4H00879
Integration Time (usec): 80000 (USB4H00879)
Spectra Averaged: 1 (USB4H00879)
Boxcar Smoothing: 0 (USB4H00879)
Correct for Electrical Dark: No (USB4H00879)
Strobe/Lamp Enabled: No (USB4H00879)
Correct for Detector Non-linearity: No (USB4H00879)
Correct for Stray Light: No (USB4H00879)
Number of Pixels in Processed Spectrum: 3648
>>>>>Begin Processed Spectral Data<<<<<
345.13	1277.93
345.34	1277.93
345.56	1277.93
345.78	1271.79
345.99	1263.60
346.21	1716.20
346.42	1683.43
346.64	1679.33
346.86	1728.49
347.07	1642.47
347.29	1667.05
347.50	1628.14
347.72	1626.09
347.94	1839.08
348.15	1642.47
348.37	1574.89
348.59	1693.67
348.80	1636.33
349.02	1753.06
349.23	1935.33
349.45	1765.35
349.67	1843.17
349.88	1791.97
350.10	1961.95
350.31	1855.46
350.53	1851.36
350.75	1939.43
350.96	1824.74
351.18	1853.41
351.39	1847.27
351.61	1832.93
351.82	1873.89
352.04	1871.84
352.26	1753.06
352.47	1918.95
352.69	1875.94
352.90	1822.69
353.12	1859.56
353.34	1918.95
353.55	1865.70
353.77	1880.04
353.98	1855.46
354.20	1814.50
354.41	1933.28
354.63	1918.95
354.85	1998.82
355.06	1959.91
355.28	1802.21
355.49	1935.33
355.71	1884.13
355.92	1851.36
356.14	1951.71
356.35	1875.94
356.57	1869.80
356.79	1914.85
357.00	1832.93
357.22	1945.57
357.43	1794.02
357.65	1951.71
357.86	1912.80
358.08	1939.43
358.29	1970.15
358.51	1925.09
358.72	1927.14
358.94	1933.28
359.16	1916.90
359.37	1902.56
359.59	1908.71
359.80	1880.04
360.02	1918.95
360.23	1929.19
360.45	2019.30
360.66	1941.47
360.88	1837.03
361.09	1959.91
361.31	2007.01
361.52	1953.76
361.74	2021.35
361.95	2068.45
362.17	1910.75
362.38	2025.44
362.60	2052.06
362.81	2072.54
363.03	1920.99
363.24	1927.14
363.46	2031.58
363.67	2070.50
363.89	1984.48
364.10	1918.95
364.32	1949.67
364.53	2107.36
364.75	1882.08
364.96	1976.29
365.18	1968.10
365.39	2037.73
365.61	2052.06
365.82	2033.63
366.04	1998.82
366.25	1966.05
366.47	1970.15
366.68	1980.39
366.90	2002.91
367.11	2074.59
367.33	2070.50
367.54	2095.07
367.76	2013.15
367.97	2107.36
368.19	1994.72
368.40	2041.82
368.62	1912.80
368.83	1968.10
369.05	2011.11
369.26	2019.30
369.48	1984.48
369.69	2058.21
369.91	2074.59
370.12	2056.16
370.33	2152.42
370.55	2027.49
370.76	2000.87
370.98	2109.41
371.19	1978.34
371.41	2078.69
371.62	1998.82
371.84	2019.30
372.05	2150.37
372.27	1968.10
372.48	2068.45
372.69	2058.21
372.91	2146.27
373.12	2146.27
373.34	2068.45
373.55	2121.70
373.77	2150.37
373.98	2105.31
374.20	2123.74
374.41	2301.92
374.62	2121.70
374.84	2199.52
375.05	2189.28
375.27	2174.94
375.48	2248.67
375.70	2123.74
375.91	2238.43
376.12	2387.93
376.34	2146.27
376.55	2158.56
376.77	2207.71
376.98	2150.37
377.19	2078.69
377.41	2146.27
377.62	2164.70
377.84	2183.13
378.05	2318.30
378.27	2154.46
378.48	2318.30
378.69	2394.08
378.91	2244.57
379.12	2203.61
379.34	2220.00
379.55	2326.49
379.76	2256.86
379.98	2258.91
380.19	2258.91
380.41	2213.85
380.62	2306.01
380.83	2246.62
381.05	2224.09
381.26	2287.58
381.47	2248.67
381.69	2289.63
381.90	2420.70
382.12	2281.44
382.33	2234.33
382.54	2301.92
382.76	2295.77
382.97	2346.97
383.19	2308.06
383.40	2375.64
383.61	2379.74
383.83	2183.13
384.04	2293.72
384.25	2416.60
384.47	2328.54
384.68	2349.02
384.89	2377.69
385.11	2279.39
385.32	2365.40
385.54	2373.60
385.75	2314.20
385.96	2363.36
386.18	2387.93
386.39	2383.84
386.60	2310.11
386.82	2459.61
387.03	2406.36
387.24	2451.42
387.46	2422.75
387.67	2478.04
387.88	2441.18
388.10	2459.61
388.31	2484.19
388.52	2537.43
388.74	2492.38
388.95	2494.43
389.16	2609.11
389.38	2451.42
389.59	2527.19
389.80	2609.11
390.02	2594.78
390.23	2668.50
390.44	2514.91
390.66	2594.78
390.87	2496.47
391.08	2637.78
391.30	2645.98
391.51	2586.58
391.72	2662.36
391.94	2648.02
392.15	2629.59
392.36	2562.01
392.58	2559.96
392.79	2662.36
393.00	2729.94
393.22	2672.60
393.43	2803.67
393.64	2709.46
393.85	2807.77
394.07	2645.98
394.28	2715.61
394.49	2699.22
394.71	2697.17
394.92	2836.44
395.13	2707.41
395.35	2609.11
395.56	2764.76
395.77	2711.51
395.98	2867.16
396.20	2826.20
396.41	2838.48
396.62	2897.88
396.84	2863.06
397.05	2826.20
397.26	2781.14
397.47	2998.23
397.69	2719.70
397.90	3000.27
398.11	2932.69
398.32	2967.51
398.54	2836.44
398.75	2936.79
398.96	2869.20
399.18	3057.62
399.39	2977.75
399.60	2994.13
399.81	2914.26
400.03	2893.78
400.24	3241.93
400.45	3033.04
400.66	3026.90
400.88	3080.14
401.09	3016.66
401.30	3030.99
401.51	3174.35
401.73	3104.72
401.94	3035.09
402.15	3014.61
402.36	3184.59
402.58	3086.29
402.79	3196.88
403.00	2987.99
403.21	3186.64
403.43	3129.30
403.64	3309.52
403.85	3237.84
404.06	3276.75
404.27	3043.28
404.49	3258.32
404.70	3133.39
404.91	3166.16
405.12	3246.03
405.34	3239.89
405.55	3432.40
405.76	3119.06
405.97	3336.14
406.19	3362.76
406.40	3272.65
406.61	3442.64
406.82	3338.19
407.03	3248.08
407.25	3295.18
407.46	3362.76
407.67	3354.57
407.88	3485.64
408.09	3198.93
408.31	3352.52
408.52	3375.05
408.73	3284.94
408.94	3379.15
409.15	3366.86
409.37	3424.20
409.58	3536.84
409.79	3399.63
410.00	3440.59
410.21	3499.98
410.43	3469.26
410.64	3454.92
410.85	3512.27
411.06	3459.02
411.27	3559.37
411.48	3508.17
411.70	3553.23
411.91	3620.81
412.12	3665.86
412.33	3608.52
412.54	3581.90
412.76	3739.59
412.97	3672.01
413.18	3631.05
413.39	3626.95
413.60	3626.95
413.81	3672.01
414.03	3522.51
414.24	3577.80
414.45	3706.82
414.66	3563.47
414.87	3772.36
415.08	3692.49
415.30	3649.48
415.51	3788.74
415.72	3753.93
415.93	3794.89
416.14	3768.26
416.35	3774.41
416.56	3790.79
416.78	3837.89
416.99	3764.17
417.20	3788.74
417.41	3891.14
417.62	3766.21
417.83	3880.90
418.04	3821.51
418.26	3938.24
418.47	3854.28
418.68	3979.20
418.89	3952.58
419.10	4116.42
419.31	4128.70
419.52	3948.48
419.73	3981.25
419.95	4151.23
420.16	4007.87
420.37	3852.23
420.58	3999.68
420.79	3923.91
421.00	4071.36
421.21	4085.70
421.42	4046.79
421.63	4052.93
421.85	4020.16
422.06	4097.99
422.27	4220.86
422.48	4136.90
422.69	4188.10
422.90	4190.14
423.11	4249.54
423.32	4198.34
423.53	4380.61
423.75	4368.32
423.96	4444.09
424.17	4278.21
424.38	4353.98
424.59	4366.27
424.80	4474.81
425.01	4433.85
425.22	4351.93
425.43	4386.75
425.64	4534.20
425.85	4677.56
426.06	4519.87
426.28	4468.67
426.49	4317.12
426.70	4495.29
426.91	4507.58
427.12	4566.97
427.33	4573.11
427.54	4585.40
427.75	4607.93
427.96	4822.97
428.17	4669.37
428.38	4851.64
428.59	4831.16
428.80	4757.43
429.01	4794.29
429.23	4917.17
429.44	4962.23
429.65	4943.80
429.86	4976.56
430.07	4825.01
430.28	4868.02
430.49	4892.60
430.70	5068.72
430.91	5154.74
431.12	5064.63
431.33	5263.28
431.54	5107.63
431.75	5048.24
431.96	5287.86
432.17	5107.63
432.38	5236.66
432.59	5402.54
432.80	5214.13
433.01	5306.29
433.22	5355.44
433.43	5253.04
433.64	5380.01
433.85	5167.03
434.06	5203.89
434.27	5271.47
434.49	5482.41
434.70	5457.84
434.91	5394.35
435.12	5494.70
435.33	5396.40
435.54	5412.78
435.75	5234.61
435.96	5523.37
436.17	5416.88
436.38	5588.91
436.59	5533.61
436.80	5609.39
437.01	5681.07
437.22	5906.34
437.43	5605.29
437.64	5433.26
437.85	5844.90
438.06	5865.38
438.27	5705.64
438.48	5664.68
438.69	5859.24
438.90	5935.01
439.11	5724.07
439.32	5937.06
439.53	5969.83
439.74	5889.96
439.95	5814.18
440.16	5875.62
440.37	6041.51
440.57	5705.64
440.78	6107.04
440.99	5978.02
441.20	6010.79
441.41	5873.57
441.62	5935.01
441.83	5920.68
442.04	6029.22
442.25	6107.04
442.46	6109.09
442.67	6246.30
442.88	6320.03
443.09	6004.64
443.30	6150.05
443.51	6238.11
443.72	6342.56
443.93	6123.43
444.14	6436.77
444.35	6031.27
444.56	6320.03
444.77	6336.42
444.98	6295.46
445.19	6293.41
445.40	6363.04
445.61	6111.14
445.81	6365.09
446.02	6447.01
446.23	6389.66
446.44	6307.74
446.65	6545.31
446.86	6391.71
447.07	6397.85
447.28	6784.92
447.49	6627.23
447.70	6643.61
447.91	6582.17
448.12	6594.46
448.33	6664.09
448.54	6571.93
448.74	6582.17
448.95	6797.21
449.16	6684.57
449.37	6975.38
449.58	6655.90
449.79	7040.92
450.00	6825.88
450.21	6946.71
450.42	6819.74
450.63	6915.99
450.84	6913.94
451.05	6924.18
451.25	7014.29
451.46	6963.09
451.67	6965.14
451.88	7147.41
452.09	6987.67
452.30	7116.69
452.51	6901.65
452.72	7096.21
452.93	7432.08
453.13	7040.92
453.34	7124.88
453.55	7266.19
453.76	7231.38
453.97	7526.29
454.18	7245.71
454.39	7442.32
454.60	7423.89
454.81	7292.82
455.01	7589.77
455.22	7407.50
455.43	7503.76
455.64	7720.84
455.85	7720.84
456.06	7896.97
456.27	7755.66
456.48	7606.16
456.68	7827.34
456.89	7731.08
457.10	7786.38
457.31	7911.30
457.52	7851.91
457.73	7905.16
457.94	8228.74
458.14	7907.21
458.35	8234.88
458.56	8118.15
458.77	8036.23
458.98	8144.77
459.19	8093.57
459.39	8173.44
459.60	8488.83
459.81	8200.07
460.02	8439.68
460.23	8345.47
460.44	8703.87
460.65	8556.41
460.85	8605.56
461.06	8783.74
461.27	8372.10
461.48	8879.99
461.69	9011.06
461.89	8583.04
462.10	8826.75
462.31	8720.25
462.52	8808.31
462.73	9074.55
462.94	9111.41
463.14	8785.79
463.35	9043.83
463.56	9535.34
463.77	9262.96
463.98	9146.23
464.18	9156.47
464.39	9508.72
464.60	9574.25
464.81	9496.43
465.02	9441.14
465.23	9805.67
465.43	9516.91
465.64	9744.24
465.85	9688.94
466.06	9740.14
466.27	9865.07
466.47	10010.47
466.68	9918.31
466.89	9795.43
467.10	9994.09
467.30	9944.94
467.51	10311.52
467.72	10415.97
467.93	10069.86
468.14	10116.97
468.34	10461.02
468.55	10428.26
468.76	10448.74
468.97	10590.05
469.17	10872.67
469.38	10747.74
469.59	10856.28
469.80	10600.29
470.01	10954.58
470.21	10719.07
470.42	11030.36
470.63	11339.60
470.84	10919.77
471.04	11401.04
471.25	11507.54
471.46	11237.20
471.67	11691.85
471.87	11276.12
472.08	11673.42
472.29	11808.59
472.50	11202.39
472.70	11800.40
472.91	11640.65
473.12	11978.57
473.33	12115.78
473.53	12123.98
473.74	12013.38
473.95	12533.57
474.16	12359.49
474.36	12371.78
474.57	12506.95
474.78	12777.28
474.99	12629.82
475.19	12461.89
475.40	12818.24
475.61	13086.52
475.81	13107.00
476.02	13061.94
476.23	13215.54
476.44	13242.17
476.64	13238.07
476.85	13455.15
477.06	13545.27
477.27	13657.90
477.47	13938.48
477.68	13938.48
477.89	13954.86
478.09	13842.22
478.30	13823.79
478.51	13772.59
478.71	14456.61
478.92	14057.26
479.13	14456.61
479.34	14335.78
479.54	14540.58
479.75	14397.22
479.96	14358.31
480.16	14581.54
480.37	14772.00
480.58	14976.80
480.78	15245.08
480.99	15314.71
481.20	15142.68
481.41	15359.77
481.61	15642.39
481.82	15691.54
482.03	15351.57
482.23	15408.92
482.44	15566.61
482.65	15791.89
482.85	15945.48
483.06	16078.60
483.27	16092.94
483.47	16293.64
483.68	16107.27
483.89	16293.64
484.09	16582.40
484.30	16551.68
484.51	16721.66
484.71	16645.89
484.92	16740.10
485.13	16639.75
485.33	16758.53
485.54	16946.94
485.75	17151.74
485.95	17051.39
486.16	17397.49
486.37	17415.93
486.57	17303.29
486.78	17331.96
486.98	17452.79
487.19	17553.14
487.40	17868.53
487.60	17583.86
487.81	18188.01
488.02	17739.51
488.22	17862.38
488.43	18106.09
488.64	18134.76
488.84	18357.99
489.05	18544.36
489.25	18288.36
489.46	18763.49
489.67	18536.17
489.87	19181.28
490.08	19035.87
490.29	18769.63
490.49	19320.54
490.70	19044.06
490.90	19519.19
491.11	19322.59
491.32	19381.98
491.52	19289.82
491.73	19422.94
491.94	19795.67
492.14	19418.84
492.35	19814.10
492.55	19683.03
492.76	19914.45
492.97	20053.71
493.17	20160.20
493.38	20342.47
493.58	20504.26
493.79	20557.51
494.00	20281.03
494.20	20549.32
494.41	20758.21
494.61	20731.59
494.82	20528.84
495.02	20721.35
495.23	20958.91
495.44	20881.09
495.64	21110.46
495.85	21206.72
496.05	21423.80
496.26	21280.44
496.47	21429.94
496.67	21284.54
496.88	21849.78
497.08	21716.66
497.29	21454.52
497.49	21956.27
497.70	21827.25
497.91	21991.09
498.11	22034.10
498.32	22124.21
498.52	22097.58
498.73	22445.74
498.93	22558.38
499.14	22509.22
499.34	22474.41
499.55	22691.49
499.76	22668.97
499.96	22556.33
500.17	22658.73
500.37	22955.68
500.58	22816.42
500.78	22949.54
500.99	23258.78
501.19	23162.53
501.40	23361.18
501.60	23150.24
501.81	23520.92
502.02	23264.92
502.22	23611.03
502.43	23815.83
502.63	23748.25
502.84	23703.19
503.04	23697.05
503.25	23705.24
503.45	24123.02
503.66	23969.43
503.86	23967.38
504.07	24526.47
504.27	23973.52
504.48	24696.46
504.68	24630.92
504.89	24718.98
505.09	24817.29
505.30	24665.74
505.50	24725.13
505.71	24944.26
505.91	24852.10
506.12	24899.20
506.32	24950.40
506.53	25114.24
506.73	25282.17
506.94	25190.02
507.14	25099.90
507.35	25278.08
507.55	25466.49
507.76	25667.19
507.96	25550.46
508.17	25607.80
508.37	25566.84
508.58	25587.32
508.78	25777.78
508.99	26222.19
509.19	26046.07
509.40	25960.05
509.60	26117.75
509.81	26592.87
510.01	26130.03
510.22	26130.03
510.42	26218.10
510.63	26523.24
510.83	26478.19
511.04	26470.00
511.24	26766.95
511.44	26431.08
511.65	26668.65
511.85	26578.54
512.06	26838.63
512.26	27072.10
512.47	26848.87
512.67	27160.16
512.88	27004.52
513.08	26904.17
513.29	27094.63
513.49	27033.19
513.69	27254.37
513.90	27242.08
514.10	27477.60
514.31	27532.89
514.51	27616.86
514.72	27430.49
514.92	27633.24
515.13	27668.06
515.33	27645.53
515.53	27674.20
515.74	28233.30
515.94	27637.34
516.15	27913.81
516.35	27715.16
516.56	28380.75
516.76	27938.39
516.96	28130.90
517.17	28442.19
517.37	28321.36
517.58	28331.60
517.78	28501.58
517.99	28360.27
518.19	28839.50
518.39	28464.72
518.60	28970.57
518.80	28784.20
519.01	29011.53
519.21	28898.89
519.41	29234.75
519.62	28683.85
519.82	29091.40
520.03	29271.62
520.23	29079.11
520.43	28812.87
520.64	29457.98
520.84	29634.11
521.05	29232.71
521.25	29613.63
521.45	29591.10
521.66	29527.61
521.86	29500.99
522.07	29873.72
522.27	29939.26
522.47	29922.87
522.68	30082.61
522.88	29967.93
523.08	30223.92
523.29	30242.35
523.49	30613.04
523.70	30406.19
523.90	30436.91
524.10	30436.91
524.31	30484.01
524.51	30248.50
524.71	31045.16
524.92	30871.08
525.12	31221.28
525.33	31084.07
525.53	30942.76
525.73	31397.41
525.94	31053.35
526.14	31213.09
526.34	31456.80
526.55	31495.71
526.75	31469.09
526.95	31706.65
527.16	31495.71
527.36	31569.44
527.56	31938.07
527.77	31796.76
527.97	31643.17
528.17	32087.57
528.38	32040.47
528.58	32108.05
528.78	32122.39
528.99	32144.92
529.19	32873.99
529.39	32443.92
529.60	32761.36
529.80	32859.66
530.00	32273.94
530.21	33041.93
530.41	33089.03
530.61	32925.19
530.82	32933.39
531.02	32968.20
531.22	33455.62
531.43	33070.60
531.63	33256.96
531.83	33674.75
532.04	33654.27
532.24	33437.19
532.44	33627.65
532.64	33684.99
532.85	33771.00
533.05	33785.34
533.25	34039.29
533.46	33977.85
533.66	34387.44
533.86	33947.13
534.07	34719.21
534.27	34305.52
534.47	34688.49
534.67	34756.08
534.88	34528.75
535.08	34412.02
535.28	34784.75
535.49	35175.91
535.69	35153.38
535.89	35012.07
536.09	35114.47
536.30	35476.96
536.50	35681.76
536.70	35390.95
536.91	35245.54
537.11	35544.55
537.31	35874.27
537.51	35501.54
537.72	36087.26
537.92	36056.54
538.12	36349.40
538.32	35857.88
538.53	36629.97
538.73	36095.45
538.93	36185.56
539.13	36058.59
539.34	36255.19
539.54	36056.54
539.74	36720.08
539.94	36679.12
540.15	36156.89
540.35	36992.46
540.55	36845.01
540.75	36748.75
540.96	36922.83
541.16	36582.87
541.36	36933.07
541.56	36996.56
541.77	37057.99
541.97	37252.55
542.17	37279.18
542.37	37526.98
542.58	37080.52
542.78	37731.78
542.98	37465.54
543.18	37496.26
543.38	37950.91
543.59	37914.05
543.79	37879.23
543.99	37619.14
544.19	38022.59
544.40	38077.88
544.60	38348.21
544.80	38006.20
545.00	37946.81
545.20	38532.53
545.41	38403.51
545.61	38122.94
545.81	38528.44
546.01	38782.38
546.21	38647.22
546.42	38720.95
546.62	39234.99
546.82	38591.92
547.02	38426.04
547.22	38909.36
547.43	38841.78
547.63	38931.89
547.83	39687.59
548.03	38800.82
548.23	39548.32
548.44	39183.79
548.64	39392.68
548.84	39255.46
549.04	39404.97
549.24	39818.66
549.45	39697.83
549.65	39550.37
549.85	39732.64
550.05	40185.24
550.25	39904.67
550.45	40238.49
550.66	39798.18
550.86	39462.31
551.06	40752.53
551.26	40019.36
551.46	40060.32
551.66	40504.73
551.87	40121.76
552.07	40451.48
552.27	40375.70
552.47	40574.36
552.67	40512.92
552.87	40437.14
553.07	40752.53
553.28	40832.40
553.48	40912.27
553.68	40689.04
553.88	40936.85
554.08	40635.80
554.28	40856.98
554.48	40689.04
554.69	40877.46
554.89	40897.94
555.09	40955.28
555.29	41201.04
555.49	41325.96
555.69	41557.38
555.89	41262.47
556.10	41383.30
556.30	41106.83
556.50	41727.36
556.70	41448.84
556.90	41483.66
557.10	41809.28
557.30	41395.59
557.50	41743.75
557.70	42106.24
557.91	41944.45
558.11	41846.15
558.31	42345.85
558.51	42114.43
558.71	41864.58
558.91	42216.83
559.11	41950.59
559.31	41995.65
559.51	42038.65
559.72	42542.45
559.92	42509.69
560.12	42210.68
560.32	42562.93
560.52	42544.50
560.72	43070.83
560.92	42876.27
561.12	42753.40
561.32	43062.64
561.52	42843.51
561.72	43312.49
561.93	42814.83
562.13	42595.70
562.33	42820.98
562.53	43238.76
562.73	43005.30
562.93	43242.86
563.13	42923.38
563.33	43212.14
563.53	43251.05
563.73	43189.61
563.93	43283.82
564.13	43875.68
564.33	43249.00
564.53	43582.82
564.74	43939.17
564.94	43326.83
565.14	43769.19
565.34	43404.65
565.54	43640.17
565.74	43722.08
565.94	44209.50
566.14	43867.49
566.34	43941.22
566.54	44504.41
566.74	43785.57
566.94	43980.13
567.14	44547.42
567.34	43879.78
567.54	44336.48
567.74	43890.02
567.94	44277.08
568.14	44604.76
568.34	44692.82
568.54	44422.49
568.74	44621.14
568.94	44678.49
569.14	44623.19
569.34	44993.87
569.54	44875.09
569.75	44524.89
569.95	44713.30
570.15	45124.94
570.35	45372.75
570.55	44864.85
570.75	45086.03
570.95	44891.48
571.15	45024.59
571.35	45403.47
571.55	45116.75
571.75	44993.87
571.95	45180.24
572.15	45071.70
572.35	45575.50
572.55	45528.39
572.75	45499.72
572.95	45391.18
573.15	45587.78
573.35	45405.52
573.55	45454.67
573.75	45585.74
573.95	45725.00
574.15	45837.64
574.35	45651.27
574.55	45710.66
574.75	45462.86
574.95	45774.15
575.15	45948.23
575.34	45960.51
575.54	46046.53
575.74	46370.11
575.94	46105.92
576.14	46187.84
576.34	46454.08
576.54	46286.14
576.74	46415.16
576.94	46208.32
577.14	46546.23
577.34	46871.86
577.54	46794.04
577.74	46742.84
577.94	46777.65
578.14	46560.57
578.34	46875.96
578.54	45966.66
578.74	46796.09
578.94	46976.31
579.14	46171.46
579.34	46570.81
579.54	46818.61
579.74	47559.98
579.94	46923.06
580.13	47426.86
580.33	47074.61
580.53	47338.80
580.73	47232.30
580.93	47084.85
581.13	47453.48
581.33	47768.87
581.53	47875.37
581.73	47570.22
581.93	47373.61
582.13	47852.84
582.33	48141.60
582.53	47236.40
582.73	47645.99
582.92	47756.58
583.12	48114.98
583.32	47846.69
583.52	47609.13
583.72	47787.30
583.92	47756.58
584.12	47883.56
584.32	47914.28
584.52	48254.24
584.72	47875.37
584.92	48112.93
585.11	48866.58
585.31	48438.56
585.51	48055.59
585.71	47957.28
585.91	48383.26
586.11	48291.10
586.31	48715.03
586.51	48528.67
586.71	48518.43
586.91	48807.19
587.10	48833.81
587.30	48758.04
587.50	48852.25
587.70	48874.77
587.90	48692.50
588.10	49259.79
588.30	48846.10
588.50	48991.51
588.69	49122.58
588.89	48663.83
589.09	48762.14
589.29	48940.31
589.49	49171.73
589.69	48708.89
589.89	49405.20
590.08	49255.70
590.28	49526.03
590.48	48770.33
590.68	49313.04
590.88	49134.87
591.08	49069.33
591.28	49073.43
591.47	49616.14
591.67	49734.92
591.87	49276.18
592.07	49358.09
592.27	49040.66
592.47	49362.19
592.67	49452.30
592.86	49331.47
593.06	49939.72
593.26	50373.89
593.46	49689.87
593.66	49341.71
593.86	50078.98
594.05	49423.63
594.25	50156.80
594.45	49427.73
594.65	49874.18
594.85	49292.56
595.05	50126.08
595.24	49730.83
595.44	49632.52
595.64	50124.04
595.84	50093.32
596.04	49999.11
596.23	49808.65
596.43	50365.70
596.63	49906.95
596.83	50197.76
597.03	50638.08
597.22	50279.68
597.42	50670.84
597.62	50812.15
597.82	50318.59
598.02	50005.25
598.21	50642.17
598.41	50312.45
598.61	50758.91
598.81	50689.27
599.01	50496.77
599.20	50607.36
599.40	50885.88
599.60	50744.57
599.80	50732.28
600.00	50793.72
600.19	50896.12
600.39	50541.82
600.59	51107.06
600.79	51340.53
600.98	51297.52
601.18	51248.37
601.38	51336.43
601.58	51340.53
601.78	51635.44
601.97	51553.52
602.17	51537.13
602.37	51623.15
602.57	51289.33
602.76	51680.49
602.96	51453.17
603.16	51283.19
603.36	51762.41
603.55	51811.56
603.75	51832.04
603.95	52243.68
604.15	51975.40
604.34	51926.25
604.54	52137.19
604.74	52221.16
604.94	51952.87
605.13	52307.17
605.33	52118.76
605.53	52094.18
605.73	52511.97
605.92	52448.48
606.12	52622.56
606.32	52208.87
606.52	52194.53
606.71	52215.01
606.91	52557.02
607.11	52067.56
607.30	52571.36
607.50	52477.15
607.70	53058.77
607.90	52403.42
608.09	52391.14
608.29	52903.13
608.49	52815.07
608.68	52737.24
608.88	53210.32
609.08	52821.21
609.28	53130.45
609.47	52884.70
609.67	53314.77
609.87	53329.11
610.06	53376.21
610.26	52954.33
610.46	53261.52
610.66	53306.58
610.85	52974.81
611.05	53034.20
611.25	53259.48
611.44	52907.22
611.64	53236.95
611.84	53017.82
612.03	53073.11
612.23	53370.07
612.43	53449.94
612.62	53400.79
612.82	53550.29
613.02	53372.11
613.21	53134.55
613.41	53353.68
613.61	53597.39
613.80	53406.93
614.00	53675.21
614.20	53372.11
614.39	53773.52
614.59	53675.21
614.79	53654.73
614.98	53302.48
615.18	53540.05
615.38	54054.09
615.57	53236.95
615.77	53658.83
615.97	53687.50
616.16	54103.24
616.36	53658.83
616.56	54039.75
616.75	53992.65
616.95	53730.51
617.15	53859.53
617.34	54095.05
617.54	53992.65
617.74	54588.61
617.93	54072.52
618.13	53798.09
618.32	54219.97
618.52	53576.91
618.72	53896.39
618.91	54344.90
619.11	53769.42
619.31	54031.56
619.50	53945.54
619.70	53544.14
619.90	53847.24
620.09	53732.56
620.29	53738.70
620.48	53935.30
620.68	54422.72
620.88	54260.93
621.07	54269.12
621.27	53986.50
621.46	53652.69
621.66	54162.63
621.86	53941.45
622.05	53968.07
622.25	54181.06
622.44	54033.61
622.64	54154.44
622.84	54248.64
623.03	54142.15
623.23	54068.42
623.42	54125.77
623.62	54521.02
623.82	54093.00
624.01	54066.38
624.21	54328.52
624.40	54432.96
624.60	54318.28
624.80	54219.97
624.99	54424.77
625.19	53701.84
625.38	54615.23
625.58	54293.70
625.77	54512.83
625.97	54400.19
626.17	54328.52
626.36	54580.42
626.56	54465.73
626.75	54123.72
626.95	54451.39
627.14	54047.94
627.34	54742.20
627.54	54191.30
627.73	54758.59
627.93	54283.46
628.12	54410.43
628.32	54637.76
628.51	54815.93
628.71	54498.50
628.90	54621.37
629.10	54287.56
629.30	54566.08
629.49	54547.65
629.69	54492.35
629.88	54670.53
630.08	55174.33
630.27	55137.46
630.47	54330.56
630.66	55153.85
630.86	55141.56
631.05	54482.11
631.25	55446.71
631.44	55323.83
631.64	54985.91
631.84	55006.39
632.03	55379.12
632.23	54908.09
632.42	55385.27
632.62	54746.30
632.81	54817.98
633.01	55086.26
633.20	55352.50
633.40	55205.05
633.59	55229.62
633.79	55174.33
633.98	55458.99
634.18	55649.45
634.37	55420.08
634.57	55303.35
634.76	55436.47
634.96	55489.71
635.15	55950.51
635.35	54908.09
635.54	55059.64
635.74	55778.48
635.93	55520.43
636.13	55960.75
636.32	55751.85
636.52	55022.78
636.71	55266.48
636.91	55119.03
637.10	55631.02
637.30	55254.20
637.49	55397.55
637.69	55645.36
637.88	55760.05
638.08	55479.47
638.27	55874.73
638.46	55661.74
638.66	55555.25
638.85	55782.57
639.05	55981.23
639.24	55766.19
639.44	55483.57
639.63	55608.50
639.83	55782.57
640.02	55694.51
640.22	55624.88
640.41	55858.35
640.61	55727.28
640.80	55426.23
640.99	55776.43
641.19	56315.04
641.38	55489.71
641.58	55755.95
641.77	55286.96
641.97	55493.81
642.16	55874.73
642.36	56022.19
642.55	56163.50
642.74	55764.14
642.94	56239.27
643.13	55987.37
643.33	56136.87
643.52	55993.51
643.72	56274.09
643.91	56044.71
644.10	56089.77
644.30	56218.79
644.49	56374.44
644.69	56661.15
644.88	56415.40
645.08	56507.55
645.27	56202.41
645.46	56255.65
645.66	56288.42
645.85	56370.34
646.05	56497.31
646.24	56210.60
646.43	56356.00
646.63	56439.97
646.82	56448.16
647.02	56863.90
647.21	56382.63
647.40	55903.40
647.60	56810.65
647.79	56489.12
647.99	56384.68
648.18	56335.52
648.37	56896.67
648.57	56865.95
648.76	56710.30
648.96	56485.03
649.15	56489.12
649.34	56857.76
649.54	56341.67
649.73	56296.61
649.92	56554.66
650.12	56683.68
650.31	57027.74
650.51	56163.50
650.70	56366.24
650.89	56540.32
651.09	57515.15
651.28	56796.32
651.47	56695.97
651.67	56908.96
651.86	56906.91
652.06	56603.81
652.25	56800.41
652.44	56904.86
652.64	56671.39
652.83	56853.66
653.02	56210.60
653.22	56636.58
653.41	56480.93
653.60	56095.91
653.80	56632.48
653.99	56886.43
654.18	55954.60
654.38	56704.16
654.57	56861.85
654.76	56845.47
654.96	56171.69
655.15	56583.33
655.34	56667.30
655.54	56274.09
655.73	56495.27
655.92	56884.38
656.12	56411.30
656.31	57001.11
656.50	56476.83
656.70	56702.11
656.89	56771.74
657.08	56884.38
657.28	56530.08
657.47	56202.41
657.66	56947.87
657.86	56556.70
658.05	56325.28
658.24	56669.34
658.43	56546.47
658.63	56843.42
658.82	56939.68
659.01	56677.54
659.21	56661.15
659.40	56507.55
659.59	57031.83
659.79	56935.58
659.98	56720.54
660.17	56777.89
660.36	56501.41
660.56	56480.93
660.75	57115.80
660.94	56493.22
661.14	56575.14
661.33	56566.94
661.52	56566.94
661.71	56997.02
661.91	55942.31
662.10	56290.47
662.29	56845.47
662.49	56480.93
662.68	56718.49
662.87	56491.17
663.06	56865.95
663.26	56638.62
663.45	56980.63
663.64	56276.13
663.83	56857.76
664.03	56190.12
664.22	56497.31
664.41	56351.91
664.60	56259.75
664.80	56472.74
664.99	56206.50
665.18	56095.91
665.37	56179.88
665.57	56765.60
665.76	56269.99
665.95	55805.10
666.14	56378.53
666.34	56331.43
666.53	56261.80
666.72	56229.03
666.91	56042.66
667.11	56026.28
667.30	56071.34
667.49	56433.83
667.68	56040.62
667.87	56253.61
668.07	56208.55
668.26	56380.58
668.45	56212.65
668.64	55581.87
668.84	56534.18
669.03	56665.25
669.22	56214.69
669.41	56439.97
669.60	55909.55
669.80	55870.64
669.99	56226.98
670.18	56077.48
670.37	55921.83
670.57	56542.37
670.76	55821.48
670.95	55469.23
671.14	55833.77
671.33	55690.41
671.53	56519.84
671.72	55917.74
671.91	55833.77
672.10	55721.13
672.29	56188.07
672.48	55579.82
672.68	55940.27
672.87	55747.76
673.06	55719.09
673.25	55467.19
673.44	55655.60
673.64	55270.58
673.83	55778.48
674.02	55694.51
674.21	55536.82
674.40	56102.06
674.59	55360.69
674.79	55227.57
674.98	55073.98
675.17	55706.80
675.36	55321.78
675.55	55993.51
675.74	55833.77
675.94	55674.03
676.13	55743.66
676.32	55596.21
676.51	56001.71
676.70	55706.80
676.89	55000.25
677.08	55751.85
677.28	55600.30
677.47	55796.91
677.66	55653.55
677.85	55694.51
678.04	55602.35
678.23	55555.25
678.42	55411.89
678.62	55112.89
678.81	55852.20
679.00	55477.43
679.19	55899.31
679.38	55293.11
679.57	55237.81
679.76	55774.38
679.96	55274.68
680.15	55450.80
680.34	55080.12
680.53	55153.85
680.72	55450.80
680.91	55403.70
681.10	54973.63
681.29	54924.47
681.48	55409.84
681.68	55125.17
681.87	54973.63
682.06	54893.75
682.25	54793.40
682.44	54799.55
682.63	55399.60
682.82	54879.42
683.01	54654.14
683.20	54445.25
683.39	54834.36
683.59	54684.86
683.78	54371.52
683.97	54697.15
684.16	55293.11
684.35	54662.33
684.54	54906.04
684.73	54768.83
684.92	54824.12
685.11	54514.88
685.30	54932.67
685.49	54549.70
685.69	54273.22
685.88	54791.36
686.07	54738.11
686.26	54392.00
686.45	54682.81
686.64	54666.43
686.83	54713.53
687.02	54340.80
687.21	54394.05
687.40	54756.54
687.59	54445.25
687.78	54676.67
687.97	54713.53
688.16	53859.53
688.35	54656.19
688.54	54088.90
688.74	54478.02
688.93	54521.02
689.12	54209.73
689.31	54170.82
689.50	54598.85
689.69	54230.21
689.88	53636.30
690.07	54467.78
690.26	54115.53
690.45	54703.29
690.64	54138.05
690.83	54404.29
691.02	54031.56
691.21	54170.82
691.40	53925.07
691.59	54449.35
691.78	53814.47
691.97	54295.75
692.16	53798.09
692.35	54469.82
692.54	54299.84
692.73	54228.16
692.92	54238.40
693.11	54250.69
693.30	54035.66
693.49	54265.03
693.68	53847.24
693.87	54035.66
694.06	53812.43
694.25	53734.60
694.44	53927.11
694.63	53908.68
694.82	54076.61
695.01	53867.72
695.20	53556.43
695.39	53783.76
695.58	54004.94
695.77	53673.16
695.96	53380.31
696.15	53865.67
696.34	53654.73
696.53	53566.67
696.72	53892.30
696.91	53449.94
697.10	53325.01
697.29	53548.24
697.48	53687.50
697.67	53589.20
697.86	53540.05
698.05	53474.51
698.24	53503.18
698.43	53159.12
698.62	53441.74
698.81	53204.18
699.00	53619.92
699.19	52813.02
699.38	53282.00
699.57	53257.43
699.76	53818.57
699.95	53058.77
700.14	53171.41
700.32	53284.05
700.51	52999.38
700.70	53312.72
700.89	53359.83
701.08	53048.53
701.27	53130.45
701.46	53572.81
701.65	52606.17
701.84	53114.07
702.03	53382.35
702.22	53241.04
702.41	52997.34
702.60	53451.98
702.79	53165.27
702.98	52421.86
703.17	52716.76
703.35	52663.52
703.54	52853.98
703.73	53339.35
703.92	52706.52
704.11	52884.70
704.30	52817.11
704.49	52974.81
704.68	52616.41
704.87	52712.67
705.06	52944.09
705.25	52575.45
705.43	53075.16
705.62	53140.69
705.81	53105.88
706.00	52794.59
706.19	52409.57
706.38	52976.86
706.57	52741.34
706.76	53003.48
706.95	52888.79
707.14	52180.20
707.32	52540.64
707.51	52770.01
707.70	52399.33
707.89	52507.87
708.08	52597.98
708.27	52593.89
708.46	52606.17
708.65	52810.97
708.84	52788.44
709.02	52749.53
709.21	52516.06
709.40	52339.94
709.59	52612.32
709.78	51954.92
709.97	52788.44
710.16	52690.14
710.34	52262.11
710.53	52788.44
710.72	52114.66
710.91	52554.97
711.10	52309.22
711.29	52604.13
711.48	52706.52
711.66	52174.05
711.85	52331.75
712.04	51963.11
712.23	52212.96
712.42	51971.30
712.61	51920.10
712.80	52167.91
712.98	52606.17
713.17	51664.11
713.36	51897.58
713.55	52124.90
713.74	52018.41
713.93	52020.45
714.11	52032.74
714.30	51928.30
714.49	51864.81
714.68	52073.70
714.87	51918.06
715.06	52266.21
715.24	51811.56
715.43	52051.17
715.62	51530.99
715.81	51318.00
716.00	51721.45
716.18	51375.34
716.37	51549.42
716.56	51492.08
716.75	51832.04
716.94	51875.05
717.12	51500.27
717.31	51819.75
717.50	51883.24
717.69	50922.74
717.88	51639.53
718.06	51381.49
718.25	51727.59
718.44	51000.57
718.63	51332.34
718.82	50849.02
719.00	51246.32
719.19	51240.18
719.38	51127.54
719.57	51221.75
719.76	50992.37
719.94	50320.64
720.13	50781.43
720.32	50902.26
720.51	50892.02
720.69	50814.20
720.88	50638.08
721.07	50705.66
721.26	50468.09
721.44	50730.23
721.63	50732.28
721.82	50638.08
722.01	50330.88
722.20	50660.60
722.38	50363.65
722.57	50044.16
722.76	50152.71
722.95	49839.37
723.13	49997.06
723.32	50298.11
723.51	49810.70
723.70	49749.26
723.88	50128.13
724.07	49882.37
724.26	49702.15
724.44	49521.93
724.63	50222.34
724.82	49900.81
725.01	49997.06
725.19	49939.72
725.38	49575.18
725.57	49288.46
725.76	49691.91
725.94	49378.57
726.13	49290.51
726.32	49403.15
726.51	49192.21
726.69	49966.34
726.88	49386.77
727.07	49526.03
727.25	49208.59
727.44	49374.48
727.63	49515.79
727.82	49435.92
728.00	49538.32
728.19	48905.49
728.38	49630.47
728.56	49114.39
728.75	49423.63
728.94	48846.10
729.12	49456.40
729.31	49343.76
729.50	49227.02
729.69	49435.92
729.87	49540.36
730.06	49222.93
730.25	49407.25
730.43	49349.90
730.62	49329.42
730.81	49308.94
730.99	49151.25
731.18	49224.98
731.37	49374.48
731.55	49272.08
731.74	49722.63
731.93	49624.33
732.11	48784.66
732.30	48952.60
732.49	49259.79
732.67	49050.90
732.86	49237.26
733.05	48880.92
733.23	48862.49
733.42	49261.84
733.61	49202.45
733.79	49257.74
733.98	49034.52
734.17	48842.01
734.35	49376.53
734.54	49233.17
734.73	49251.60
734.91	49071.38
735.10	48686.36
735.29	49196.31
735.47	48401.69
735.66	48586.01
735.84	48633.11
736.03	48399.65
736.22	48712.98
736.40	48203.04
736.59	48999.70
736.78	48813.34
736.96	48719.13
737.15	48469.28
737.33	48581.91
737.52	48647.45
737.71	48403.74
737.89	48319.77
738.08	48096.55
738.27	48291.10
738.45	48434.46
738.64	48182.56
738.82	48143.65
739.01	48469.28
739.20	48235.81
739.38	48370.97
739.57	48100.64
739.75	48309.53
739.94	47961.38
740.13	47953.19
740.31	48155.94
740.50	47617.32
740.68	48403.74
740.87	48370.97
741.06	48215.33
741.24	48033.06
741.43	47811.88
741.61	48225.57
741.80	47592.75
741.99	47664.42
742.17	47572.27
742.36	48436.51
742.54	47650.09
742.73	47740.20
742.91	47854.89
743.10	47238.45
743.29	47576.36
743.47	47711.53
743.66	47490.35
743.84	47881.51
744.03	47875.37
744.21	47568.17
744.40	47840.55
744.59	47377.71
744.77	47289.65
744.96	46953.78
745.14	47101.23
745.33	47379.76
745.51	46675.26
745.70	47002.93
745.88	47009.07
746.07	46824.76
746.26	46523.71
746.44	46871.86
746.63	47078.71
746.81	46955.83
747.00	46421.31
747.18	46906.68
747.37	46486.84
747.55	46349.63
747.74	47224.11
747.92	46378.30
748.11	46486.84
748.29	46671.16
748.48	46599.48
748.66	46218.56
748.85	46417.21
749.03	46437.69
749.22	46603.58
749.41	46323.01
749.59	46472.51
749.78	45952.32
749.96	45675.85
750.15	45985.09
750.33	46310.72
750.52	46114.11
750.70	46312.77
750.89	46044.48
751.07	45833.54
751.26	45927.75
751.44	45911.36
751.63	45874.50
751.81	45802.82
752.00	45512.01
752.18	45954.37
752.37	45583.69
752.55	45348.17
752.74	45395.28
752.92	45309.26
753.10	45065.55
753.29	45626.70
753.47	45559.11
753.66	45047.12
753.84	45765.96
754.03	45129.04
754.21	44813.65
754.40	45401.42
754.58	45102.42
754.77	45108.56
754.95	44784.98
755.14	44682.58
755.32	44813.65
755.51	44877.14
755.69	44905.81
755.88	44608.86
756.06	44598.62
756.24	44631.38
756.43	44461.40
756.61	44856.66
756.80	44666.20
756.98	44090.72
757.17	44504.41
757.35	44578.14
757.54	44057.95
757.72	44633.43
757.90	44150.11
758.09	44053.86
758.27	44143.97
758.46	43814.24
758.64	44127.58
758.83	44062.05
759.01	44342.62
759.19	44023.14
759.38	43750.76
759.56	44256.60
759.75	43986.27
759.93	43709.80
760.12	43513.19
760.30	44266.84
760.48	43861.35
760.67	43390.31
760.85	43904.35
761.04	43701.61
761.22	43793.76
761.40	43640.17
761.59	43249.00
761.77	43658.60
761.96	43429.23
762.14	43347.31
762.32	43128.17
762.51	43081.07
762.69	43382.12
762.88	42634.61
763.06	43015.54
763.24	43142.51
763.43	43203.95
763.61	42743.16
763.80	43017.58
763.98	42751.35
764.16	42718.58
764.35	42726.77
764.53	42329.47
764.72	42515.83
764.90	42767.73
765.08	42847.60
765.27	42648.95
765.45	42259.84
765.63	41622.92
765.82	42306.94
766.00	41856.39
766.18	41842.05
766.37	42302.84
766.55	41807.23
766.74	41807.23
766.92	41790.85
767.10	41731.46
767.29	41704.84
767.47	41584.01
767.65	41899.39
767.84	41450.89
768.02	41528.71
768.20	41198.99
768.39	41674.12
768.57	41422.22
768.75	41272.71
768.94	41299.34
769.12	41416.07
769.30	41022.86
769.49	40811.92
769.67	41276.81
769.85	40736.15
770.04	41309.58
770.22	40584.60
770.40	40482.20
770.59	41131.40
770.77	41112.97
770.95	40689.04
771.14	40500.63
771.32	40490.39
771.50	40480.15
771.69	40383.90
771.87	40762.77
772.05	40646.04
772.24	40119.71
772.42	40342.94
772.60	40641.94
772.78	40054.17
772.97	40177.05
773.15	40521.11
773.33	39490.98
773.52	39953.82
773.70	40365.46
773.88	40291.74
774.07	39933.34
774.25	39804.32
774.43	39773.60
774.61	40263.07
774.80	40560.02
774.98	39949.73
775.16	40314.26
775.34	40093.08
775.53	39945.63
775.71	40443.29
775.89	40107.42
776.08	40199.58
776.26	39935.39
776.44	40125.85
776.62	40007.07
776.81	39992.73
776.99	40066.46
777.17	39441.83
777.35	40308.12
777.54	40600.98
777.72	39734.69
777.90	39933.34
778.08	40809.87
778.27	40091.04
778.45	40146.33
778.63	40545.69
778.81	39964.06
779.00	40942.99
779.18	40611.22
779.36	40797.59
779.54	40359.32
779.73	40545.69
779.91	40639.89
780.09	40334.74
780.27	40738.19
780.46	40392.09
780.64	40926.61
780.82	40218.01
781.00	40203.67
781.19	40517.01
781.37	41008.53
781.55	40672.66
781.73	41160.08
781.91	40658.32
782.10	40934.80
782.28	40705.43
782.46	40832.40
782.64	41246.09
782.82	40973.71
783.01	41088.40
783.19	40711.57
783.37	40777.11
783.55	40695.19
783.74	40660.37
783.92	40365.46
784.10	41203.08
784.28	40564.12
784.46	40553.88
784.64	40697.24
784.83	40662.42
785.01	41055.63
785.19	40713.62
785.37	40330.65
785.55	40385.94
785.74	40293.79
785.92	40125.85
786.10	40566.16
786.28	40953.23
786.46	40177.05
786.64	40101.28
786.83	40519.06
787.01	40560.02
787.19	40424.86
787.37	40381.85
787.55	40095.13
787.74	40115.61
787.92	40299.93
788.10	40185.24
788.28	39886.24
788.46	40246.68
788.64	39728.55
788.82	40453.53
789.01	39898.53
789.19	39468.45
789.37	39562.66
789.55	39581.09
789.73	39540.13
789.91	39558.56
790.09	39605.67
790.28	39693.73
790.46	39134.63
790.64	39751.07
790.82	39312.81
791.00	39065.00
791.18	38813.10
791.36	39153.07
791.55	39011.76
791.73	38993.32
791.91	38923.69
792.09	38837.68
792.27	38770.10
792.45	39097.77
792.63	38747.57
792.81	39048.62
793.00	38671.79
793.18	38378.93
793.36	38743.47
793.54	38624.69
793.72	38309.30
793.90	38120.89
794.08	37905.85
794.26	38292.92
794.44	38069.69
794.62	37838.27
794.81	37934.53
794.99	37993.92
795.17	37561.79
795.35	37916.09
795.53	37660.10
795.71	37604.80
795.89	37825.98
796.07	37385.67
796.25	37313.99
796.43	37049.80
796.61	36906.44
796.80	37098.95
796.98	37090.76
797.16	36455.89
797.34	36881.87
797.52	36529.62
797.70	37174.73
797.88	36789.71
798.06	36335.06
798.24	36589.01
798.42	36503.00
798.60	36376.02
798.78	36498.90
798.96	36267.48
799.14	36177.37
799.32	36326.87
799.51	35794.40
799.69	36425.17
799.87	36079.07
800.05	35915.23
800.23	36099.55
800.41	35530.21
800.59	35405.28
800.77	35407.33
800.95	35464.67
801.13	35376.61
801.31	35126.76
801.49	35296.74
801.67	35112.42
801.85	35487.20
802.03	34969.07
802.21	34899.44
802.39	35253.73
802.57	35110.38
802.75	34696.69
802.93	34727.41
803.11	34715.12
803.29	34422.26
803.47	34233.85
803.65	34283.00
803.83	34092.54
804.01	34246.13
804.19	33625.60
804.37	34102.78
804.55	34004.47
804.73	33965.56
804.91	33828.35
805.09	34156.02
805.27	34186.74
805.45	33472.00
805.63	33793.53
805.81	33912.31
805.99	33830.40
806.17	33263.11
806.35	33539.58
806.53	33031.69
806.71	33551.87
806.89	33377.79
807.07	33310.21
807.25	33445.38
807.43	33203.72
807.61	33062.41
807.79	33011.21
807.97	33150.47
808.15	33046.02
808.33	32882.19
808.51	32937.48
808.69	32927.24
808.87	32790.03
809.05	32413.20
809.23	32165.40
809.41	32454.16
809.59	32525.84
809.77	32501.26
809.95	32124.44
810.13	32579.09
810.31	32056.85
810.49	32454.16
810.67	32003.61
810.84	32306.71
811.02	32026.14
811.20	31620.64
811.38	31557.15
811.56	31569.44
811.74	31733.28
811.92	31415.84
812.10	31460.90
812.28	31847.96
812.46	31839.77
812.64	31456.80
812.82	31161.89
813.00	31401.50
813.18	31575.58
813.36	31471.14
813.53	31122.98
813.71	31223.33
813.89	31280.67
814.07	31227.43
814.25	31237.67
814.43	30803.50
814.61	30961.19
814.79	30907.94
814.97	30266.93
815.15	30903.85
815.33	30557.74
815.50	30553.65
815.68	30582.32
815.86	30752.30
816.04	30506.54
816.22	30481.97
816.40	30502.45
816.58	30262.83
816.76	30520.88
816.94	30230.07
817.11	30223.92
817.29	30303.79
817.47	30012.98
817.65	30021.17
817.83	29990.45
818.01	30043.70
818.19	29703.74
818.37	29367.87
818.54	29568.57
818.72	29244.99
818.90	29648.44
819.08	29611.58
819.26	29771.32
819.44	29736.51
819.62	29576.76
819.80	29814.33
819.97	29849.14
820.15	29298.24
820.33	29359.68
820.51	29904.44
820.69	29044.29
820.87	29439.55
821.05	29632.06
821.22	29412.93
821.40	29218.37
821.58	29052.48
821.76	29064.77
821.94	28849.74
822.12	28878.41
822.29	29107.78
822.47	28669.51
822.65	29251.14
822.83	28821.06
823.01	29029.96
823.19	28784.20
823.36	28642.89
823.54	28825.16
823.72	28603.98
823.90	28755.53
824.08	28227.15
824.25	28603.98
824.43	28083.80
824.61	28481.10
824.79	28399.18
824.97	28235.35
825.15	28319.31
825.32	28245.58
825.50	27987.54
825.68	28169.81
825.86	28196.43
826.04	28538.44
826.21	27883.09
826.39	28655.18
826.57	28208.72
826.75	28016.21
826.93	27903.57
827.10	28040.79
827.28	27924.05
827.46	28198.48
827.64	27903.57
827.81	27962.97
827.99	28087.89
828.17	27723.35
828.35	27694.68
828.53	27534.94
828.70	27608.67
828.88	27874.90
829.06	27700.83
829.24	27790.94
829.41	27680.35
829.59	27498.08
829.77	27545.18
829.95	27496.03
830.12	27117.15
830.30	27510.36
830.48	27342.43
830.66	27293.28
830.84	27412.06
831.01	26934.88
831.19	27553.37
831.37	27203.17
831.55	27139.68
831.72	27188.83
831.90	27307.62
832.08	27059.81
832.25	26883.69
832.43	27119.20
832.61	27113.06
832.79	26676.84
832.96	27035.24
833.14	26900.07
833.32	27174.50
833.50	27278.94
833.67	26867.30
833.85	26781.29
834.03	26646.12
834.20	26830.44
834.38	26734.18
834.56	26728.04
834.74	26375.79
834.91	26699.37
835.09	26572.39
835.27	26187.38
835.44	26451.56
835.62	25712.25
835.80	26312.30
835.98	26275.44
836.15	26392.17
836.33	26238.58
836.51	26400.37
836.68	26097.27
836.86	26259.06
837.04	26238.58
837.21	26240.62
837.39	25904.76
837.57	26082.93
837.75	26041.97
837.92	25831.03
838.10	25992.82
838.28	25663.10
838.45	25806.45
838.63	25798.26
838.81	25851.51
838.98	25785.97
839.16	25353.85
839.34	25294.46
839.51	25665.14
839.69	25329.28
839.87	25581.18
840.04	25661.05
840.22	25685.62
840.40	25421.44
840.57	25060.99
840.75	25286.27
840.93	25147.01
841.10	25548.41
841.28	25618.04
841.46	25216.64
841.63	25271.93
841.81	25259.65
841.98	25190.02
842.16	25384.57
842.34	25058.95
842.51	24958.60
842.69	25204.35
842.87	24792.71
843.04	25355.90
843.22	25302.65
843.40	25099.90
843.57	24942.21
843.75	25278.08
843.92	25040.51
844.10	25042.56
844.28	25237.12
844.45	25020.03
844.63	24780.42
844.81	24686.22
844.98	24934.02
845.16	24598.15
845.33	24563.34
845.51	24606.34
845.69	24522.38
845.86	24692.36
846.04	24557.19
846.21	24598.15
846.39	24569.48
846.57	24376.97
846.74	24422.03
846.92	24290.96
847.09	24190.61
847.27	23809.68
847.45	24071.82
847.62	24338.06
847.80	24403.60
847.97	24110.74
848.15	23971.47
848.32	24096.40
848.50	24293.01
848.68	23942.80
848.85	24155.79
849.03	23707.29
849.20	23912.08
849.38	24108.69
849.56	23891.60
849.73	23817.88
849.91	24065.68
850.08	24127.12
850.26	23690.90
850.43	23824.02
850.61	23697.05
850.78	23598.74
850.96	23604.89
851.14	23498.39
851.31	23989.91
851.49	23627.42
851.66	23721.62
851.84	23625.37
852.01	23682.71
852.19	23439.00
852.36	23697.05
852.54	23699.09
852.71	23223.97
852.89	23160.48
853.07	23336.60
853.24	23328.41
853.42	23465.63
853.59	23412.38
853.77	23156.38
853.94	23183.01
854.12	23508.63
854.29	23037.60
854.47	23045.79
854.64	22992.55
854.82	22906.53
854.99	22861.48
855.17	22939.30
855.34	22916.77
855.52	22927.01
855.69	23008.93
855.87	22896.29
856.04	22431.40
856.22	22896.29
856.39	22570.66
856.57	22544.04
856.74	22701.73
856.92	22769.32
857.09	22271.66
857.27	22691.49
857.44	22585.00
857.62	22666.92
857.79	22286.00
857.97	22335.15
858.14	22386.35
858.32	22310.57
858.49	22369.96
858.67	22476.46
858.84	22339.24
859.02	22202.03
859.19	22091.44
859.37	22134.45
859.54	21933.75
859.72	22329.00
859.89	22103.73
860.06	22017.71
860.24	21878.45
860.41	22167.21
860.59	21962.42
860.76	21915.31
860.94	21731.00
861.11	21776.05
861.29	22054.58
861.46	22101.68
861.64	21515.96
861.81	21806.77
861.98	22079.15
862.16	21835.44
862.33	21434.04
862.51	21692.08
862.68	21448.38
862.86	21438.14
863.03	21552.82
863.21	21585.59
863.38	21470.90
863.55	21448.38
863.73	21286.59
863.90	21569.21
864.08	21499.58
864.25	21335.74
864.43	21370.55
864.60	21053.12
864.77	21110.46
864.95	21259.96
865.12	21096.13
865.30	21130.94
865.47	21001.92
865.64	21065.41
865.82	21198.52
865.99	21010.11
866.17	20872.90
866.34	21044.93
866.51	20530.89
866.69	20829.89
866.86	20977.34
867.04	20725.44
867.21	20813.51
867.38	20709.06
867.56	20596.42
867.73	20680.39
867.91	20518.60
868.08	20774.60
868.25	20661.96
868.43	20621.00
868.60	20635.33
868.78	20477.64
868.95	20651.72
869.12	20217.55
869.30	20139.72
869.47	20324.04
869.64	20143.82
869.82	20162.25
869.99	19949.26
870.16	20379.34
870.34	19953.36
870.51	20211.40
870.69	19834.58
870.86	20145.87
871.03	20156.11
871.21	19766.99
871.38	19979.98
871.55	19687.12
871.73	19640.02
871.90	19740.37
872.07	19597.01
872.25	19637.97
872.42	19345.11
872.59	19676.88
872.77	19762.90
872.94	19521.24
873.11	19275.48
873.29	19427.03
873.46	19099.36
873.63	19175.13
873.81	19404.50
873.98	19152.60
874.15	19222.23
874.33	18753.25
874.50	18958.05
874.67	19214.04
874.85	18773.73
875.02	19338.97
875.19	18890.46
875.37	18951.90
875.54	18763.49
875.71	18620.13
875.88	18521.83
876.06	18810.59
876.23	18829.02
876.40	18734.82
876.58	18708.19
876.75	18642.66
876.92	18525.93
877.10	18638.56
877.27	18398.95
877.44	18120.43
877.61	18413.29
877.79	18314.98
877.96	18188.01
878.13	18245.35
878.31	18130.67
878.48	18134.76
878.65	18038.51
878.82	17952.49
879.00	17796.85
879.17	17958.64
879.34	18190.06
879.51	17889.01
879.69	17796.85
879.86	17647.35
880.03	17590.00
880.21	17784.56
880.38	17690.35
880.55	17776.37
880.72	17690.35
880.90	17665.78
881.07	17448.69
881.24	17454.84
881.41	17590.00
881.59	17327.86
881.76	17534.71
881.93	17309.43
882.10	17305.34
882.28	17727.22
882.45	17452.79
882.62	17313.53
882.79	17477.37
882.96	17157.88
883.14	17381.11
883.31	17432.31
883.48	17456.89
883.65	17469.17
883.83	17239.80
884.00	17073.92
884.17	17344.25
884.34	17372.92
884.51	17321.72
884.69	17112.83
884.86	17116.92
885.03	17241.85
885.20	17014.52
885.38	16908.03
885.55	16903.93
885.72	17088.25
885.89	16959.23
886.06	16971.52
886.24	16928.51
886.41	16977.66
886.58	16766.72
886.75	17022.72
886.92	16807.68
887.10	16887.55
887.27	16592.64
887.44	16893.69
887.61	16774.91
887.78	16529.16
887.95	16471.81
888.13	16467.72
888.30	16494.34
888.47	16377.61
888.64	16586.50
888.81	16387.85
888.99	16267.02
889.16	16051.98
889.33	16080.65
889.50	16111.37
889.67	16144.14
889.84	15910.67
890.01	16246.54
890.19	16189.19
890.36	16258.82
890.53	16013.07
890.70	16019.21
890.87	15925.00
891.04	15882.00
891.22	16023.31
891.39	15976.20
891.56	15857.42
891.73	15748.88
891.90	15728.40
892.07	15527.70
892.24	15795.98
892.42	15556.37
892.59	15689.49
892.76	15755.02
892.93	15677.20
893.10	15626.00
893.27	15392.53
893.44	15712.02
893.61	15671.06
893.79	15757.07
893.96	15394.58
894.13	15482.64
894.30	15582.99
894.47	15408.92
894.64	15863.57
894.81	15453.97
894.98	15755.02
895.15	15431.44
895.33	15480.60
895.50	15638.29
895.67	15636.24
895.84	15353.62
896.01	15126.30
896.18	15222.55
896.35	15470.36
896.52	15558.42
896.69	15181.59
896.86	15202.07
897.04	15142.68
897.21	15132.44
897.38	15419.16
897.55	15310.61
897.72	15443.73
897.89	15464.21
898.06	15331.09
898.23	15394.58
898.40	15558.42
898.57	15335.19
898.74	15228.70
898.91	14876.44
899.08	14876.44
899.26	15066.91
899.43	15351.57
899.60	15120.15
899.77	15208.22
899.94	15159.06
900.11	15175.45
900.28	15263.51
900.45	15183.64
900.62	15003.42
900.79	15175.45
900.96	15048.47
901.13	15114.01
901.30	15232.79
901.47	15181.59
901.64	15357.72
901.81	14962.46
901.98	14989.08
902.15	15275.80
902.32	15165.21
902.49	15320.85
902.66	14991.13
902.83	15226.65
903.01	15023.90
903.18	15453.97
903.35	15027.99
903.52	15085.34
903.69	15163.16
903.86	15097.63
904.03	14923.55
904.20	14980.89
904.37	15183.64
904.54	14950.17
904.71	14903.07
904.88	15019.80
905.05	15023.90
905.22	15064.86
905.39	14925.60
905.56	14839.58
905.73	14984.99
905.90	15097.63
906.07	14886.68
906.24	14853.92
906.41	14976.80
906.58	15005.47
906.75	14839.58
906.92	15091.48
907.09	14845.73
907.26	14960.41
907.43	14858.01
907.60	15007.52
907.77	15062.81
907.93	14587.68
908.10	14728.99
908.27	14837.53
908.44	14739.23
908.61	14929.69
908.78	14866.21
908.95	14956.32
909.12	14595.87
909.29	14616.35
909.46	14728.99
909.63	14772.00
909.80	14825.25
909.97	14888.73
910.14	14886.68
910.31	14751.52
910.48	14593.83
910.65	14788.38
910.82	14346.02
910.99	14640.93
911.16	14642.98
911.33	14518.05
911.50	14724.90
911.66	14606.11
911.83	14473.00
912.00	14288.68
912.17	14397.22
912.34	14350.12
912.51	14499.62
912.68	14268.20
912.85	14167.85
913.02	14630.69
913.19	14290.73
913.36	14303.01
913.53	14417.70
913.70	14440.23
913.86	14319.40
914.03	14427.94
914.20	14135.08
914.37	14167.85
914.54	14165.80
914.71	14266.15
914.88	13989.67
915.05	13948.72
915.22	13891.37
915.39	13768.49
915.55	13920.04
915.72	13623.09
915.89	13930.28
916.06	13709.10
916.23	13872.94
916.40	13520.69
916.57	13557.55
916.74	13633.33
916.91	13635.38
917.07	13496.11
917.24	13623.09
917.41	13672.24
917.58	13575.98
917.75	13526.83
917.92	13373.24
918.09	13299.51
918.26	13213.49
918.42	13328.18
918.59	13406.00
918.76	13268.79
918.93	13141.82
919.10	13262.65
919.27	13133.62
919.44	13236.02
919.60	13254.45
919.77	13367.09
919.94	12867.39
920.11	12975.93
920.28	13035.32
920.45	12980.03
920.61	12740.41
920.78	13020.99
920.95	12906.30
921.12	12810.04
921.29	12668.73
921.46	12470.08
921.62	12445.51
921.79	12603.20
921.96	12447.55
922.13	12492.61
922.30	12371.78
922.47	12375.88
922.63	12302.15
922.80	12236.61
922.97	12087.11
923.14	11935.56
923.31	12318.53
923.47	12160.84
923.64	12177.22
923.81	12048.20
923.98	12064.58
924.15	11929.42
924.32	11945.80
924.48	11913.03
924.65	11962.19
924.82	11634.51
924.99	11523.92
925.15	11603.79
925.32	11646.80
925.49	11493.20
925.66	11564.88
925.83	11493.20
925.99	11437.91
926.16	11577.17
926.33	11624.27
926.50	11423.57
926.67	11528.02
926.83	11186.01
927.00	11188.05
927.17	11317.08
927.34	10954.58
927.50	10940.25
927.67	11108.18
927.84	11179.86
928.01	11126.61
928.17	10973.02
928.34	10710.88
928.51	10669.92
928.68	10794.84
928.84	10784.60
929.01	10651.49
929.18	10354.53
929.35	10637.15
929.51	10588.00
929.68	10309.47
929.85	10317.67
930.02	10452.83
930.18	10366.82
930.35	10325.86
930.52	10362.72
930.69	10370.91
930.85	10307.43
931.02	10170.21
931.19	10047.33
931.36	10258.28
931.52	10014.57
931.69	10133.35
931.86	10061.67
932.02	10037.09
932.19	9783.15
932.36	9897.83
932.53	9617.26
932.69	9805.67
932.86	9856.87
933.03	9656.17
933.19	9541.49
933.36	9539.44
933.53	9785.19
933.70	9518.96
933.86	9353.07
934.03	9359.22
934.20	9265.01
934.36	9371.50
934.53	9129.84
934.70	9011.06
934.86	9219.96
935.03	8826.75
935.20	9041.78
935.36	8947.58
935.53	8703.87
935.70	8566.65
935.86	8882.04
936.03	8525.69
936.20	8550.27
936.36	8583.04
936.53	8423.30
936.70	8406.91
936.86	8472.45
937.03	8286.08
937.20	8124.29
937.36	8224.64
937.53	7829.38
937.70	7870.34
937.86	7690.12
938.03	7831.43
938.20	7860.10
938.36	7403.41
938.53	7518.09
938.70	7360.40
938.86	7384.98
939.03	7278.48
939.20	7237.52
939.36	7102.36
939.53	7137.17
939.70	7315.34
939.86	6690.71
940.03	6717.34
940.19	6737.82
940.36	6723.48
940.53	6692.76
940.69	6594.46
940.86	6541.21
941.03	6432.67
941.19	6279.07
941.36	6397.85
941.52	6317.98
941.69	6168.48
941.86	6162.34
942.02	6152.10
942.19	5990.31
942.35	6010.79
942.52	5877.67
942.69	5998.50
942.85	5785.51
943.02	5785.51
943.18	5765.03
943.35	5681.07
943.52	5631.91
943.68	5803.94
943.85	5576.62
944.01	5488.56
944.18	5441.45
944.35	5615.53
944.51	5625.77
944.68	5361.58
944.84	5472.17
945.01	5318.57
945.17	5316.53
945.34	5443.50
945.51	5427.12
945.67	5384.11
945.84	5302.19
946.00	5287.86
946.17	5337.01
946.33	5078.96
946.50	5363.63
946.67	5259.18
946.83	5162.93
947.00	5142.45
947.16	5246.90
947.33	5169.07
947.49	5230.51
947.66	5212.08
947.82	5320.62
947.99	5107.63
948.16	5214.13
948.32	5097.39
948.49	5341.10
948.65	5271.47
948.82	5138.35
948.98	5351.34
949.15	5126.07
949.31	5218.22
949.48	5148.59
949.64	5226.42
949.81	5226.42
949.97	5238.70
950.14	5296.05
950.30	5232.56
950.47	5361.58
950.63	5226.42
950.80	5164.98
950.96	5167.03
951.13	5253.04
951.30	5222.32
951.46	5310.38
951.63	5435.31
951.79	5396.40
951.96	5418.93
952.12	5197.74
952.29	5490.60
952.45	5287.86
952.62	5308.34
952.78	5339.05
952.94	5250.99
953.11	5320.62
953.27	5222.32
953.44	5367.73
953.60	5296.05
953.77	5492.65
953.93	5183.41
954.10	5275.57
954.26	5382.06
954.43	5267.38
954.59	5523.37
954.76	5396.40
954.92	5408.69
955.09	5367.73
955.25	5332.91
955.42	5271.47
955.58	5451.69
955.75	5457.84
955.91	5402.54
956.07	5511.08
956.24	5535.66
956.40	5578.67
956.57	5537.71
956.73	5328.81
956.90	5441.45
957.06	5433.26
957.23	5418.93
957.39	5296.05
957.56	5504.94
957.72	5371.82
957.88	5298.10
958.05	5539.76
958.21	5461.93
958.38	5365.68
958.54	5392.30
958.71	5435.31
958.87	5443.50
959.03	5294.00
959.20	5410.73
959.36	5363.63
959.53	5550.00
959.69	5287.86
959.85	5441.45
960.02	5400.49
960.18	5392.30
960.35	5269.42
960.51	5437.36
960.68	5353.39
960.84	5488.56
961.00	5373.87
961.17	5314.48
961.33	5275.57
961.50	5443.50
961.66	5470.12
961.82	5339.05
961.99	5332.91
962.15	5468.08
962.31	5308.34
962.48	5386.16
962.64	5361.58
962.81	5349.29
962.97	5414.83
963.13	5463.98
963.30	5308.34
963.46	5418.93
963.62	5328.81
963.79	5255.09
963.95	5216.18
964.12	5361.58
964.28	5363.63
964.44	5275.57
964.61	5382.06
964.77	5300.14
964.93	5490.60
965.10	5337.01
965.26	5228.46
965.42	5363.63
965.59	5255.09
965.75	5308.34
965.92	5361.58
966.08	5322.67
966.24	5265.33
966.41	5316.53
966.57	5377.97
966.73	5310.38
966.90	5294.00
967.06	5359.53
967.22	5279.66
967.39	5210.03
967.55	5132.21
967.71	5058.48
967.88	5255.09
968.04	5169.07
968.20	5203.89
968.37	5105.59
968.53	5027.76
968.69	5199.79
968.85	5162.93
969.02	5169.07
969.18	5255.09
969.34	5107.63
969.51	5201.84
969.67	5152.69
969.83	4990.90
970.00	5310.38
970.16	5162.93
970.32	5091.25
970.48	5173.17
970.65	5164.98
970.81	5017.52
970.97	5119.92
971.14	4935.60
971.30	5095.35
971.46	5048.24
971.63	5097.39
971.79	5058.48
971.95	5078.96
972.11	4970.42
972.28	4972.47
972.44	5046.20
972.60	4816.82
972.76	5058.48
972.93	4853.69
973.09	4937.65
973.25	5072.82
973.42	4859.83
973.58	5107.63
973.74	4849.59
973.90	4845.49
974.07	4972.47
974.23	4890.55
974.39	4837.30
974.55	5033.91
974.72	4845.49
974.88	4673.46
975.04	4798.39
975.20	4921.27
975.37	4763.58
975.53	4739.00
975.69	4861.88
975.85	4704.18
976.01	4706.23
976.18	4726.71
976.34	4677.56
976.50	4943.80
976.66	4845.49
976.83	4792.25
976.99	4591.55
977.15	4712.38
977.31	4581.31
977.47	4767.67
977.64	4724.66
977.80	4593.59
977.96	4603.83
978.12	4698.04
978.29	4794.29
978.45	4509.63
978.61	4573.11
978.77	4638.65
978.93	4485.05
979.10	4536.25
979.26	4536.25
979.42	4652.98
979.58	4446.14
979.74	4458.43
979.91	4605.88
980.07	4480.96
980.23	4442.04
980.39	4421.56
980.55	4421.56
980.71	4534.20
980.88	4333.50
981.04	4259.78
981.20	4333.50
981.36	4411.32
981.52	4413.37
981.68	4362.17
981.85	4396.99
982.01	4466.62
982.17	4292.54
982.33	4364.22
982.49	4378.56
982.65	4360.13
982.82	4327.36
982.98	4360.13
983.14	4263.87
983.30	4349.89
983.46	4392.89
983.62	4257.73
983.79	4274.11
983.95	4343.74
984.11	4251.58
984.27	4317.12
984.43	4425.66
984.59	4122.56
984.75	4413.37
984.91	4227.01
985.08	4276.16
985.24	4186.05
985.40	4140.99
985.56	4163.52
985.72	4194.24
985.88	4237.25
986.04	4118.47
986.20	4038.59
986.37	4169.66
986.53	4071.36
986.69	4114.37
986.85	4032.45
987.01	4067.27
987.17	4120.51
987.33	4054.98
987.49	3946.44
987.65	4069.31
987.82	4122.56
987.98	3977.16
988.14	3971.01
988.30	4040.64
988.46	3889.09
988.62	4044.74
988.78	3960.77
988.94	4001.73
989.10	3934.15
989.26	3891.14
989.42	3860.42
989.59	3819.46
989.75	3704.78
989.91	3887.04
990.07	3645.38
990.23	3889.09
990.39	3868.61
990.55	3788.74
990.71	3721.16
990.87	3725.26
991.03	3893.19
991.19	3780.55
991.35	3807.17
991.51	3770.31
991.67	3841.99
991.83	3749.83
992.00	3723.21
992.16	3805.13
992.32	3719.11
992.48	3682.25
992.64	3727.30
992.80	3684.30
992.96	3821.51
993.12	3626.95
993.28	3690.44
993.44	3688.39
993.60	3645.38
993.76	3674.06
993.92	3694.54
994.08	3682.25
994.24	3696.58
994.40	3665.86
994.56	3682.25
994.72	3624.90
994.88	3551.18
995.04	3594.19
995.20	3502.03
995.36	3469.26
995.52	3600.33
995.68	3575.75
995.84	3549.13
996.00	3719.11
996.16	3469.26
996.32	3440.59
996.48	3469.26
996.64	3522.51
996.80	3532.75
996.96	3524.55
997.12	3364.81
997.28	3364.81
997.44	3456.97
997.60	3385.29
997.76	3370.96
997.92	3434.44
998.08	3485.64
998.24	3330.00
998.40	3370.96
998.56	3614.66
998.72	3379.15
998.88	3393.48
999.04	3332.05
999.20	3461.07
999.36	3280.85
999.52	3430.35
999.68	3442.64
999.84	3301.33
1000.00	3362.76
1000.16	3327.95
1000.32	3303.37
1000.48	3370.96
1000.64	3317.71
1000.80	3172.30
1000.95	3176.40
1001.11	3227.60
1001.27	3246.03
1001.43	3137.49
1001.59	3149.78
1001.75	3186.64
1001.91	3215.31
1002.07	3219.41
1002.23	3121.10
1002.39	3174.35
1002.55	3114.96
1002.71	3123.15
1002.87	3198.93
1003.03	3137.49
1003.19	3084.24
1003.34	3076.05
1003.50	3133.39
1003.66	3256.27
1003.82	3157.97
1003.98	3035.09
1004.14	3061.71
1004.30	2959.31
1004.46	3092.43
1004.62	3102.67
1004.78	3098.58
1004.94	3074.00
1005.09	3094.48
1005.25	3088.34
1005.41	3010.51
1005.57	3084.24
1005.73	3030.99
1005.89	2940.88
1006.05	3076.05
1006.21	3076.05
1006.37	2998.23
1006.52	2904.02
1006.68	2918.36
1006.84	3026.90
1007.00	2865.11
1007.16	3028.95
1007.32	2926.55
1007.48	2822.10
1007.64	2881.49
1007.79	2805.72
1007.95	2947.03
1008.11	3000.27
1008.27	2867.16
1008.43	2897.88
1008.59	2863.06
1008.75	2932.69
1008.91	2973.65
1009.06	2813.91
1009.22	2850.77
1009.38	2803.67
1009.54	2940.88
1009.70	2834.39
1009.86	2852.82
1010.01	2848.72
1010.17	2834.39
1010.33	2861.01
1010.49	2795.48
1010.65	2822.10
1010.81	2748.37
1010.96	2764.76
1011.12	2650.07
1011.28	2691.03
1011.44	2895.83
1011.60	2699.22
1011.76	2684.89
1011.91	2779.09
1012.07	2564.06
1012.23	2666.46
1012.39	2627.54
1012.55	2707.41
1012.71	2725.85
1012.86	2713.56
1013.02	2672.60
1013.18	2598.87
1013.34	2590.68
1013.50	2711.51
1013.65	2656.22
1013.81	2564.06
1013.97	2576.34
1014.13	2580.44
1014.29	2584.54
1014.44	2729.94
1014.60	2484.19
1014.76	2590.68
1014.92	2574.30
1015.07	2666.46
1015.23	2602.97
1015.39	2570.20
1015.55	2615.26
1015.71	2557.91
1015.86	2533.34
1016.02	2492.38
1016.18	2437.08
1016.34	2539.48
1016.49	2562.01
1016.65	2500.57
1016.81	2475.99
1016.97	2510.81
1017.12	2543.58
1017.28	2480.09
1017.44	2373.60
1017.60	2564.06
1017.75	2463.71
1017.91	2508.76
1018.07	2414.56
1018.23	2508.76
1018.38	2510.81
1018.54	2482.14
1018.70	2508.76
1018.86	2480.09
1019.01	2441.18
1019.17	2404.32
1019.33	2461.66
1019.49	2459.61
1019.64	2498.52
1019.80	2392.03
1019.96	2371.55
1020.12	2369.50
1020.27	2422.75
1020.43	2367.45
1020.59	2396.12
1020.74	2359.26
1020.90	2445.27
1021.06	2402.27
1021.22	2377.69
1021.37	2394.08
1021.53	2199.52
1021.69	2379.74
1021.84	2220.00
1022.00	2256.86
1022.16	2316.25
1022.31	2310.11
1022.47	2414.56
1022.63	2312.16
1022.79	2189.28
1022.94	2355.16
1023.10	2359.26
1023.26	2361.31
1023.41	2254.81
1023.57	2256.86
1023.73	2385.88
1023.88	2338.78
1024.04	2201.57
1024.20	2279.39
1024.35	2312.16
1024.51	2320.35
1024.67	2322.40
1024.82	2320.35
1024.98	2144.22
1025.14	2252.77
1025.29	2207.71
1025.45	2293.72
1025.61	2260.96
1025.76	2215.90
1025.92	2277.34
1026.08	2150.37
1026.23	2230.24
1026.39	2285.53
1026.55	2176.99
1026.70	2090.98
1026.86	2252.77
1027.02	2156.51
1027.17	2187.23
1027.33	2207.71
1027.48	2115.55
1027.64	2154.46
1027.80	2152.42
1027.95	2166.75
1028.11	2070.50
1028.27	2209.76
1028.42	2183.13
1028.58	2215.90
1028.73	2183.13
1028.89	2078.69
1029.05	2168.80
1029.20	2172.89
>>>>>End Processed Spectral Data<<<<<
