SpectraSuite Data File
++++++++++++++++++++++++++++++++++++
Date: Fri Jun 02 14:47:59 CEST 2017
User: INFO_000
Dark Spectrum Present: No
Reference Spectrum Present: No
Number of Sampled Component Spectra: 1
Spectrometers: USB4H00879
Integration Time (usec): 80000 (USB4H00879)
Spectra Averaged: 1 (USB4H00879)
Boxcar Smoothing: 0 (USB4H00879)
Correct for Electrical Dark: No (USB4H00879)
Strobe/Lamp Enabled: No (USB4H00879)
Correct for Detector Non-linearity: No (USB4H00879)
Correct for Stray Light: No (USB4H00879)
Number of Pixels in Processed Spectrum: 3648
>>>>>Begin Processed Spectral Data<<<<<
345.13	1359.85
345.34	1359.85
345.56	1359.85
345.78	1273.84
345.99	1247.21
346.21	1679.33
346.42	1794.02
346.64	1630.18
346.86	1798.12
347.07	1574.89
347.29	1705.96
347.50	1630.18
347.72	1662.95
347.94	1708.01
348.15	1562.60
348.37	1671.14
348.59	1667.05
348.80	1671.14
349.02	1757.16
349.23	1871.84
349.45	1871.84
349.67	1843.17
349.88	1826.79
350.10	1984.48
350.31	1783.78
350.53	1841.12
350.75	1927.14
350.96	1779.68
351.18	1882.08
351.39	1791.97
351.61	1804.26
351.82	1914.85
352.04	1886.18
352.26	1791.97
352.47	1855.46
352.69	1882.08
352.90	1769.44
353.12	1748.97
353.34	1806.31
353.55	1886.18
353.77	1994.72
353.98	1847.27
354.20	1796.07
354.41	1843.17
354.63	1980.39
354.85	1959.91
355.06	1970.15
355.28	1769.44
355.49	1912.80
355.71	1886.18
355.92	1929.19
356.14	1957.86
356.35	1837.03
356.57	1839.08
356.79	1961.95
357.00	1806.31
357.22	2011.11
357.43	1929.19
357.65	1990.63
357.86	1873.89
358.08	1933.28
358.29	1961.95
358.51	1949.67
358.72	2011.11
358.94	1964.00
359.16	1859.56
359.37	1927.14
359.59	1931.23
359.80	2035.68
360.02	1984.48
360.23	1937.38
360.45	1998.82
360.66	1920.99
360.88	1863.65
361.09	1988.58
361.31	1976.29
361.52	2011.11
361.74	2068.45
361.95	1984.48
362.17	1961.95
362.38	2166.75
362.60	1947.62
362.81	1996.77
363.03	1904.61
363.24	2002.91
363.46	2039.78
363.67	1945.57
363.89	1978.34
364.10	2013.15
364.32	2029.54
364.53	2097.12
364.75	1912.80
364.96	2031.58
365.18	2023.39
365.39	2072.54
365.61	1929.19
365.82	2150.37
366.04	2043.87
366.25	1890.28
366.47	2074.59
366.68	2074.59
366.90	1984.48
367.11	2111.46
367.33	2058.21
367.54	2125.79
367.76	2025.44
367.97	2142.18
368.19	2041.82
368.40	2068.45
368.62	1902.56
368.83	2011.11
369.05	2025.44
369.26	2007.01
369.48	1992.67
369.69	1945.57
369.91	2117.60
370.12	2027.49
370.33	2142.18
370.55	1939.43
370.76	1959.91
370.98	2103.26
371.19	1982.43
371.41	1998.82
371.62	2047.97
371.84	2035.68
372.05	2154.46
372.27	2066.40
372.48	2152.42
372.69	2031.58
372.91	2160.61
373.12	2172.89
373.34	2025.44
373.55	2154.46
373.77	2125.79
373.98	2090.98
374.20	2082.78
374.41	2174.94
374.62	2150.37
374.84	2185.18
375.05	2211.81
375.27	2174.94
375.48	2164.70
375.70	2158.56
375.91	2185.18
376.12	2281.44
376.34	2131.94
376.55	2195.42
376.77	2238.43
376.98	2105.31
377.19	2131.94
377.41	2103.26
377.62	2193.37
377.84	2260.96
378.05	2336.73
378.27	2162.66
378.48	2285.53
378.69	2267.10
378.91	2256.86
379.12	2217.95
379.34	2265.05
379.55	2213.85
379.76	2230.24
379.98	2213.85
380.19	2244.57
380.41	2279.39
380.62	2377.69
380.83	2281.44
381.05	2201.57
381.26	2408.41
381.47	2273.25
381.69	2299.87
381.90	2359.26
382.12	2220.00
382.33	2295.77
382.54	2254.81
382.76	2295.77
382.97	2330.59
383.19	2252.77
383.40	2357.21
383.61	2281.44
383.83	2295.77
384.04	2375.64
384.25	2293.72
384.47	2301.92
384.68	2283.49
384.89	2373.60
385.11	2267.10
385.32	2392.03
385.54	2250.72
385.75	2308.06
385.96	2404.32
386.18	2344.92
386.39	2447.32
386.60	2326.49
386.82	2400.22
387.03	2426.84
387.24	2557.91
387.46	2406.36
387.67	2467.80
387.88	2564.06
388.10	2519.00
388.31	2516.95
388.52	2516.95
388.74	2508.76
388.95	2533.34
389.16	2611.16
389.38	2457.56
389.59	2607.06
389.80	2633.69
390.02	2543.58
390.23	2539.48
390.44	2582.49
390.66	2424.80
390.87	2545.63
391.08	2582.49
391.30	2633.69
391.51	2615.26
391.72	2627.54
391.94	2580.44
392.15	2666.46
392.36	2670.55
392.58	2586.58
392.79	2543.58
393.00	2586.58
393.22	2666.46
393.43	2789.33
393.64	2744.28
393.85	2809.81
394.07	2672.60
394.28	2678.74
394.49	2711.51
394.71	2777.05
394.92	2912.21
395.13	2695.13
395.35	2750.42
395.56	2820.05
395.77	2762.71
395.98	2861.01
396.20	2842.58
396.41	2883.54
396.62	2910.16
396.84	2858.96
397.05	2787.29
397.26	2918.36
397.47	2928.60
397.69	2781.14
397.90	3022.80
398.11	2895.83
398.32	2940.88
398.54	2885.59
398.75	2928.60
398.96	2846.68
399.18	3100.62
399.39	2922.45
399.60	3102.67
399.81	2953.17
400.03	2916.31
400.24	3182.54
400.45	2957.27
400.66	3057.62
400.88	3065.81
401.09	3168.21
401.30	2996.18
401.51	3125.20
401.73	3026.90
401.94	3071.95
402.15	3086.29
402.36	3127.25
402.58	3035.09
402.79	3203.02
403.00	3141.58
403.21	3096.53
403.43	3196.88
403.64	3284.94
403.85	3147.73
404.06	3166.16
404.27	3117.01
404.49	3155.92
404.70	3162.06
404.91	3379.15
405.12	3231.69
405.34	3155.92
405.55	3413.96
405.76	3117.01
405.97	3139.54
406.19	3364.81
406.40	3270.61
406.61	3174.35
406.82	3332.05
407.03	3266.51
407.25	3227.60
407.46	3295.18
407.67	3297.23
407.88	3422.16
408.09	3264.46
408.31	3301.33
408.52	3485.64
408.73	3389.39
408.94	3368.91
409.15	3413.96
409.37	3469.26
409.58	3459.02
409.79	3477.45
410.00	3549.13
410.21	3358.67
410.43	3377.10
410.64	3289.04
410.85	3514.31
411.06	3530.70
411.27	3432.40
411.48	3637.19
411.70	3510.22
411.91	3508.17
412.12	3655.62
412.33	3534.79
412.54	3487.69
412.76	3612.62
412.97	3616.71
413.18	3514.31
413.39	3448.78
413.60	3659.72
413.81	3645.38
414.03	3581.90
414.24	3667.91
414.45	3780.55
414.66	3555.27
414.87	3780.55
415.08	3661.77
415.30	3678.15
415.51	3774.41
415.72	3760.07
415.93	3686.34
416.14	3817.41
416.35	3792.84
416.56	3874.76
416.78	3882.95
416.99	3872.71
417.20	3868.61
417.41	3887.04
417.62	3825.61
417.83	3923.91
418.04	3956.68
418.26	3837.89
418.47	3893.19
418.68	4009.92
418.89	3932.10
419.10	4114.37
419.31	3973.06
419.52	4038.59
419.73	4038.59
419.95	4044.74
420.16	3944.39
420.37	4079.55
420.58	3999.68
420.79	3946.44
421.00	4034.50
421.21	4136.90
421.42	4061.12
421.63	4083.65
421.85	4095.94
422.06	4218.82
422.27	4163.52
422.48	4210.62
422.69	4292.54
422.90	4274.11
423.11	4255.68
423.32	4401.08
423.53	4386.75
423.75	4513.72
423.96	4396.99
424.17	4454.33
424.38	4573.11
424.59	4466.62
424.80	4497.34
425.01	4583.35
425.22	4532.15
425.43	4321.21
425.64	4671.42
425.85	4609.98
426.06	4560.83
426.28	4618.17
426.49	4528.06
426.70	4534.20
426.91	4632.51
427.12	4689.85
427.33	4689.85
427.54	4632.51
427.75	4634.55
427.96	4917.17
428.17	4712.38
428.38	4765.62
428.59	4818.87
428.80	4857.78
429.01	4804.53
429.23	4769.72
429.44	5046.20
429.65	4923.32
429.86	5019.57
430.07	4923.32
430.28	4779.96
430.49	5001.14
430.70	5187.50
430.91	5054.39
431.12	4976.56
431.33	5220.27
431.54	5164.98
431.75	5097.39
431.96	5099.44
432.17	5109.68
432.38	5054.39
432.59	5246.90
432.80	5146.55
433.01	5263.28
433.22	5314.48
433.43	5205.94
433.64	5162.93
433.85	5248.94
434.06	5382.06
434.27	5244.85
434.49	5216.18
434.70	5408.69
434.91	5330.86
435.12	5525.42
435.33	5253.04
435.54	5459.88
435.75	5296.05
435.96	5384.11
436.17	5275.57
436.38	5584.81
436.59	5515.18
436.80	5363.63
437.01	5687.21
437.22	5644.20
437.43	5543.85
437.64	5484.46
437.85	5736.36
438.06	5619.63
438.27	5535.66
438.48	5707.69
438.69	5738.41
438.90	5908.39
439.11	5597.10
439.32	5805.99
439.53	5738.41
439.74	5832.62
439.95	5736.36
440.16	5738.41
440.37	5738.41
440.57	5621.67
440.78	5828.52
440.99	5760.94
441.20	6000.55
441.41	5752.74
441.62	5857.19
441.83	5840.81
442.04	6027.17
442.25	5953.45
442.46	5842.85
442.67	6066.08
442.88	6444.96
443.09	6061.99
443.30	6053.80
443.51	5973.92
443.72	6328.22
443.93	6090.66
444.14	6197.15
444.35	6049.70
444.56	6188.96
444.77	6201.25
444.98	6344.61
445.19	6178.72
445.40	6166.43
445.61	6317.98
445.81	6342.56
446.02	6242.21
446.23	6356.90
446.44	6320.03
446.65	6326.18
446.86	6406.05
447.07	6526.88
447.28	6481.82
447.49	6672.28
447.70	6483.87
447.91	6516.64
448.12	6596.51
448.33	6610.84
448.54	6616.99
448.74	6565.79
448.95	6680.47
449.16	6516.64
449.37	6963.09
449.58	6635.42
449.79	6864.79
450.00	6631.32
450.21	6954.90
450.42	6905.75
450.63	6948.76
450.84	7032.72
451.05	6883.22
451.25	6864.79
451.46	7161.75
451.67	7071.64
451.88	7131.03
452.09	7094.16
452.30	7069.59
452.51	7102.36
452.72	7409.55
452.93	7499.66
453.13	7102.36
453.34	7352.21
453.55	7163.79
453.76	7253.91
453.97	7798.66
454.18	7419.79
454.39	7632.78
454.60	7444.37
454.81	7436.17
455.01	7610.25
455.22	7460.75
455.43	7624.59
455.64	7810.95
455.85	7903.11
456.06	7896.97
456.27	7821.19
456.48	7851.91
456.68	7909.26
456.89	7866.25
457.10	8128.39
457.31	7964.55
457.52	7962.50
457.73	8238.98
457.94	8245.12
458.14	8097.67
458.35	8568.70
458.56	8107.91
458.77	8261.51
458.98	8408.96
459.19	8347.52
459.39	8329.09
459.60	8630.14
459.81	8449.92
460.02	8578.94
460.23	8621.95
460.44	8865.66
460.65	8763.26
460.85	8804.22
461.06	8818.55
461.27	8529.79
461.48	8957.82
461.69	9015.16
461.89	8750.97
462.10	8976.25
462.31	8945.53
462.52	8826.75
462.73	9000.82
462.94	9238.39
463.14	9172.85
463.35	9062.26
463.56	9539.44
463.77	9369.46
463.98	9308.02
464.18	9375.60
464.39	9613.17
464.60	9574.25
464.81	9654.12
465.02	9723.76
465.23	9840.49
465.43	9604.97
465.64	9910.12
465.85	9791.34
466.06	9674.60
466.27	10082.15
466.47	9949.03
466.68	10127.21
466.89	10067.81
467.10	10100.58
467.30	9881.45
467.51	10086.25
467.72	10479.46
467.93	10164.07
468.14	10430.30
468.34	10544.99
468.55	10426.21
468.76	10485.60
468.97	10446.69
469.17	10696.54
469.38	10567.52
469.59	11011.93
469.80	10628.96
470.01	10628.96
470.21	10733.40
470.42	11095.89
470.63	11063.13
470.84	11063.13
471.04	11087.70
471.25	11226.96
471.46	11149.14
471.67	11470.67
471.87	11532.11
472.08	11523.92
472.29	11511.63
472.50	11269.97
472.70	11657.04
472.91	11571.02
473.12	11665.23
473.33	11917.13
473.53	11962.19
473.74	11980.62
473.95	12158.79
474.16	11994.95
474.36	12138.31
474.57	12535.62
474.78	12494.66
474.99	12244.81
475.19	12431.17
475.40	12582.72
475.61	12660.54
475.81	12977.98
476.02	13020.99
476.23	12932.92
476.44	13109.05
476.64	12822.33
476.85	13172.54
477.06	13119.29
477.27	13440.82
477.47	13377.33
477.68	13422.39
477.89	13588.27
478.09	13664.05
478.30	13745.97
478.51	13655.86
478.71	13991.72
478.92	14063.40
479.13	14073.64
479.34	14122.79
479.54	14098.22
479.75	14290.73
479.96	14200.62
480.16	14356.26
480.37	14780.19
480.58	14733.09
480.78	14833.44
480.99	14690.08
481.20	15027.99
481.41	15042.33
481.61	15157.02
481.82	15380.25
482.03	15359.77
482.23	15058.71
482.44	15322.90
482.65	15589.14
482.85	15955.72
483.06	15640.34
483.27	15703.82
483.47	15816.46
483.68	15853.33
483.89	15978.25
484.09	16076.55
484.30	16260.87
484.51	16410.37
484.71	16541.44
484.92	16502.53
485.13	16619.27
485.33	16514.82
485.54	16815.87
485.75	16903.93
485.95	16946.94
486.16	17010.43
486.37	17477.37
486.57	17180.41
486.78	17008.38
486.98	17018.62
487.19	17569.52
487.40	17604.34
487.60	17549.04
487.81	17774.32
488.02	17958.64
488.22	17508.08
488.43	18132.72
488.64	18067.18
488.84	18134.76
489.05	18521.83
489.25	18433.77
489.46	18687.71
489.67	18564.84
489.87	18912.99
490.08	18702.05
490.29	18939.62
490.49	19119.84
490.70	18978.53
490.90	19320.54
491.11	19160.80
491.32	19295.96
491.52	19508.95
491.73	19361.50
491.94	19623.64
492.14	19492.57
492.35	19857.10
492.55	19830.48
492.76	19893.97
492.97	19879.63
493.17	20203.21
493.38	20395.72
493.58	20713.16
493.79	20426.44
494.00	20692.68
494.20	20690.63
494.41	20870.85
494.61	20885.19
494.82	20950.72
495.02	21171.90
495.23	21237.44
495.44	21112.51
495.64	21391.03
495.85	21606.07
496.05	21518.01
496.26	21536.44
496.47	21855.92
496.67	21606.07
496.88	22103.73
497.08	21761.72
497.29	22197.93
497.49	22134.45
497.70	22394.54
497.91	22134.45
498.11	22464.17
498.32	22351.53
498.52	22541.99
498.73	22972.07
498.93	22513.32
499.14	23074.46
499.34	22824.61
499.55	22990.50
499.76	23205.53
499.96	23019.17
500.17	23195.29
500.37	23424.67
500.58	23332.51
500.78	23623.32
500.99	23439.00
501.19	23721.62
501.40	23996.05
501.60	23725.72
501.81	23611.03
502.02	24086.16
502.22	24016.53
502.43	24153.74
502.63	24176.27
502.84	24405.64
503.04	24637.06
503.25	24268.43
503.45	24411.79
503.66	24567.43
503.86	24852.10
504.07	24989.31
504.27	24592.01
504.48	24950.40
504.68	24874.63
504.89	25151.10
505.09	25063.04
505.30	25120.38
505.50	25372.28
505.71	25282.17
505.91	25398.91
506.12	25527.93
506.32	25749.11
506.53	25792.12
506.73	25712.25
506.94	25691.77
507.14	25669.24
507.35	25867.89
507.55	25669.24
507.76	25976.44
507.96	25697.91
508.17	25951.86
508.37	26048.11
508.58	26240.62
508.78	26261.10
508.99	26189.42
509.19	26447.47
509.40	26308.21
509.60	26697.32
509.81	26502.76
510.01	26170.99
510.22	26572.39
510.42	26492.52
510.63	26580.59
510.83	26762.86
511.04	26637.93
511.24	26928.74
511.44	26541.68
511.65	26834.53
511.85	26793.58
512.06	26486.38
512.26	26941.03
512.47	26912.36
512.67	27025.00
512.88	27096.67
513.08	27080.29
513.29	27362.91
513.49	27453.02
513.69	27319.90
513.90	27506.27
514.10	27403.87
514.31	27446.88
514.51	27526.75
514.72	27502.17
514.92	27369.05
515.13	27612.76
515.33	27903.57
515.53	27696.73
515.74	27692.63
515.94	27571.80
516.15	28022.36
516.35	27780.70
516.56	27907.67
516.76	27731.54
516.96	28130.90
517.17	28225.11
517.37	28014.16
517.58	28323.41
517.78	28374.61
517.99	28151.38
518.19	28276.30
518.39	28239.44
518.60	28507.72
518.80	28315.22
519.01	28601.93
519.21	28530.25
519.41	28528.20
519.62	28409.42
519.82	28788.30
520.03	28517.96
520.23	28905.03
520.43	28708.43
520.64	29087.30
520.84	28784.20
521.05	28925.51
521.25	29095.49
521.45	29371.97
521.66	29224.51
521.86	29279.81
522.07	29466.17
522.27	29408.83
522.47	29232.71
522.68	29476.41
522.88	29154.88
523.08	29664.83
523.29	29544.00
523.49	29730.36
523.70	29660.73
523.90	29863.48
524.10	29804.09
524.31	29836.86
524.51	29554.24
524.71	30549.55
524.92	29863.48
525.12	30420.53
525.33	30189.11
525.53	30756.39
525.73	30973.48
525.94	30520.88
526.14	30623.28
526.34	30508.59
526.55	30762.54
526.75	30959.14
526.95	31245.86
527.16	31041.06
527.36	30750.25
527.56	31051.30
527.77	31364.64
527.97	31053.35
528.17	31249.96
528.38	31288.87
528.58	31176.23
528.78	31514.14
528.99	31819.29
529.19	31766.04
529.39	31524.38
529.60	32019.99
529.80	31809.05
530.00	31823.39
530.21	32001.56
530.41	32181.78
530.61	31866.39
530.82	32345.62
531.02	32151.06
531.22	32542.22
531.43	32235.03
531.63	32529.94
531.83	32665.10
532.04	33054.22
532.24	32757.26
532.44	32861.71
532.64	33103.37
532.85	33152.52
533.05	33312.26
533.25	33316.36
533.46	33443.33
533.66	33668.61
533.86	33775.10
534.07	33981.95
534.27	33916.41
534.47	33965.56
534.67	33900.03
534.88	33861.12
535.08	34072.06
535.28	34319.86
535.49	34299.38
535.69	34784.75
535.89	34993.64
536.09	34389.49
536.30	35067.37
536.50	34727.41
536.70	35159.53
536.91	35214.82
537.11	34944.49
537.31	35403.24
537.51	35069.42
537.72	35366.37
537.92	35618.27
538.12	35857.88
538.32	35630.56
538.53	35837.41
538.73	35567.07
538.93	35569.12
539.13	35829.21
539.34	36132.31
539.54	36058.59
539.74	36462.04
539.94	36480.47
540.15	36398.55
540.35	36697.55
540.55	36556.24
540.75	36814.29
540.96	36679.12
541.16	36529.62
541.36	37080.52
541.56	36963.79
541.77	37041.61
541.97	37178.82
542.17	37381.57
542.37	37649.86
542.58	37418.44
542.78	37445.06
542.98	37547.46
543.18	37651.91
543.38	38155.71
543.59	38143.42
543.79	37868.99
543.99	37807.55
544.19	38122.94
544.40	38280.63
544.60	38364.60
544.80	38467.00
545.00	38419.89
545.20	38634.93
545.41	38458.81
545.61	38815.15
545.81	38755.76
546.01	39015.85
546.21	38737.33
546.42	39003.56
546.62	39456.17
546.82	39146.92
547.02	39212.46
547.22	39271.85
547.43	39161.26
547.63	39667.11
547.83	39577.00
548.03	39798.18
548.23	40015.26
548.44	39896.48
548.64	39888.29
548.84	40011.17
549.04	39878.05
549.24	40443.29
549.45	40340.89
549.65	40074.65
549.85	40465.81
550.05	40457.62
550.25	40404.38
550.45	41358.73
550.66	40510.87
550.86	40244.63
551.06	40988.05
551.26	40826.26
551.46	40719.76
551.66	40846.74
551.87	41018.77
552.07	41117.07
552.27	40758.67
552.47	40979.85
552.67	41670.02
552.87	41538.95
553.07	41659.78
553.28	41950.59
553.48	41698.69
553.68	41403.78
553.88	41641.35
554.08	41874.82
554.28	41786.75
554.48	41731.46
554.69	42096.00
554.89	42462.58
555.09	42089.85
555.29	41653.64
555.49	42268.03
555.69	42237.31
555.89	42257.79
556.10	42767.73
556.30	42200.44
556.50	42284.41
556.70	42298.75
556.90	42386.81
557.10	42513.78
557.30	42374.52
557.50	42874.23
557.70	42884.47
557.91	43081.07
558.11	42837.36
558.31	43312.49
558.51	42958.19
558.71	42915.19
558.91	43287.92
559.11	42972.53
559.31	43046.26
559.51	42825.07
559.72	43060.59
559.92	43595.11
560.12	43052.40
560.32	43707.75
560.52	43171.18
560.72	43488.62
560.92	43570.54
561.12	43619.69
561.32	43801.96
561.52	43601.25
561.72	43935.07
561.93	43347.31
562.13	43877.73
562.33	43578.73
562.53	43906.40
562.73	43752.80
562.93	44154.21
563.13	43804.00
563.33	44051.81
563.53	43906.40
563.73	43550.06
563.93	43906.40
564.13	44703.06
564.33	43703.65
564.53	43810.15
564.74	44346.72
564.94	43998.56
565.14	44111.20
565.34	44209.50
565.54	43990.37
565.74	44535.13
565.94	44324.19
566.14	44311.90
566.34	43984.22
566.54	44551.51
566.74	43984.22
566.94	44483.93
567.14	44436.83
567.34	44000.61
567.54	44735.83
567.74	44369.24
567.94	44469.59
568.14	44498.26
568.34	45002.07
568.54	44868.95
568.74	44860.76
568.94	44744.02
569.14	45008.21
569.34	44590.42
569.54	44977.49
569.75	44451.16
569.95	44666.20
570.15	45317.45
570.35	44875.09
570.55	44840.28
570.75	45131.09
570.95	44754.26
571.15	44881.24
571.35	44959.06
571.55	44772.69
571.75	44803.41
571.95	45657.42
572.15	44922.19
572.35	45585.74
572.55	45159.76
572.75	45374.80
572.95	45083.98
573.15	45364.56
573.35	45344.08
573.55	45086.03
573.75	45233.49
573.95	45333.84
574.15	45108.56
574.35	45387.08
574.55	45122.90
574.75	45323.60
574.95	45581.64
575.15	45137.23
575.34	45847.88
575.54	45901.12
575.74	46099.78
575.94	45694.28
576.14	45456.71
576.34	45843.78
576.54	45835.59
576.74	45884.74
576.94	45514.06
577.14	46075.20
577.34	46153.02
577.54	45561.16
577.74	45886.79
577.94	46230.85
578.14	46048.58
578.34	45860.16
578.54	45548.87
578.74	45667.66
578.94	46325.05
579.14	46298.43
579.34	46112.06
579.54	46236.99
579.74	46636.34
579.94	46548.28
580.13	46748.98
580.33	46507.32
580.53	46687.54
580.73	46470.46
580.93	46386.49
581.13	46550.33
581.33	46945.59
581.53	46720.31
581.73	46847.29
581.93	46886.20
582.13	46681.40
582.33	46791.99
582.53	46576.95
582.73	46769.46
582.92	46845.24
583.12	46949.68
583.32	46789.94
583.52	46404.92
583.72	46865.72
583.92	46791.99
584.12	47326.51
584.32	47351.09
584.52	47037.75
584.72	46966.07
584.92	47433.00
585.11	47897.89
585.31	47303.98
585.51	47381.80
585.71	47007.03
585.91	47899.94
586.11	47490.35
586.31	47557.93
586.51	47256.88
586.71	47723.82
586.91	47639.85
587.10	47584.55
587.30	47637.80
587.50	48031.01
587.70	47727.91
587.90	47760.68
588.10	47631.66
588.30	47928.61
588.50	48035.11
588.69	47957.28
588.89	48149.79
589.09	48184.61
589.29	47969.57
589.49	48012.58
589.69	47828.26
589.89	48094.50
590.08	48088.35
590.28	48033.06
590.48	48366.88
590.68	48168.22
590.88	48295.20
591.08	48520.48
591.28	47920.42
591.47	48698.65
591.67	48233.76
591.87	48731.42
592.07	48674.07
592.27	48276.77
592.47	48700.70
592.67	49098.00
592.86	48792.86
593.06	48809.24
593.26	48911.64
593.46	48669.98
593.66	49071.38
593.86	48690.46
594.05	48932.12
594.25	49526.03
594.45	48917.78
594.65	49028.37
594.85	48682.27
595.05	49530.12
595.24	49300.75
595.44	49130.77
595.64	49388.81
595.84	49534.22
596.04	49495.31
596.23	49566.99
596.43	49534.22
596.63	49665.29
596.83	49714.44
597.03	49931.53
597.22	50248.96
597.42	49798.41
597.62	49880.33
597.82	49827.08
598.02	50087.17
598.21	49890.57
598.41	49904.90
598.61	49896.71
598.81	49988.87
599.01	50257.15
599.20	50408.70
599.40	50345.22
599.60	50455.81
599.80	50273.54
600.00	50054.40
600.19	50932.98
600.39	50453.76
600.59	50611.45
600.79	51131.64
600.98	50521.34
601.18	50904.31
601.38	51076.34
601.58	51127.54
601.78	50894.07
601.97	51248.37
602.17	51365.10
602.37	51412.21
602.57	51107.06
602.76	51789.03
602.96	51358.96
603.16	51348.72
603.36	51868.90
603.55	51852.52
603.75	51672.30
603.95	52233.44
604.15	51750.12
604.34	52036.84
604.54	52307.17
604.74	52374.75
604.94	52051.17
605.13	52532.45
605.33	52286.69
605.53	52016.36
605.73	52698.33
605.92	52468.96
606.12	52706.52
606.32	52716.76
606.52	52544.73
606.71	52688.09
606.91	52958.42
607.11	52331.75
607.30	52819.16
607.50	53120.21
607.70	53171.41
607.90	53212.37
608.09	52962.52
608.29	53296.34
608.49	53587.15
608.68	53486.80
608.88	53103.83
609.08	53533.90
609.28	53437.65
609.47	53173.46
609.67	53976.26
609.87	53890.25
610.06	53941.45
610.26	53411.02
610.46	53882.06
610.66	53765.32
610.85	53853.39
611.05	53980.36
611.25	53906.63
611.44	53220.56
611.64	53798.09
611.84	53892.30
612.03	53892.30
612.23	54138.05
612.43	54357.19
612.62	54109.38
612.82	54533.31
613.02	54195.40
613.21	54162.63
613.41	54140.10
613.61	54668.48
613.80	53624.01
614.00	54324.42
614.20	54025.42
614.39	53839.05
614.59	54604.99
614.79	54813.88
614.98	54033.61
615.18	54408.39
615.38	54539.46
615.57	54441.15
615.77	54570.18
615.97	54924.47
616.16	54490.30
616.36	55174.33
616.56	54826.17
616.75	54914.23
616.95	54834.36
617.15	54695.10
617.34	55262.39
617.54	54836.41
617.74	55397.55
617.93	55041.21
618.13	54199.49
618.32	54918.33
618.52	54785.21
618.72	55262.39
618.91	55203.00
619.11	54736.06
619.31	55311.54
619.50	54944.95
619.70	54717.63
619.90	54674.62
620.09	55194.81
620.29	55178.42
620.48	54631.61
620.68	55581.87
620.88	54711.49
621.07	54967.48
621.27	55561.39
621.46	55063.74
621.66	55063.74
621.86	55049.40
622.05	54678.72
622.25	55327.92
622.44	54768.83
622.64	54969.53
622.84	55471.28
623.03	55248.05
623.23	55125.17
623.42	55334.07
623.62	55338.16
623.82	55289.01
624.01	55078.07
624.21	55502.00
624.40	54961.34
624.60	55438.51
624.80	55278.77
624.99	55049.40
625.19	55014.58
625.38	55432.37
625.58	55346.36
625.77	55051.45
625.97	55178.42
626.17	54758.59
626.36	55346.36
626.56	55145.65
626.75	54764.73
626.95	55477.43
627.14	55243.96
627.34	55790.76
627.54	55379.12
627.73	55522.48
627.93	55315.64
628.12	55323.83
628.32	55397.55
628.51	55239.86
628.71	55278.77
628.90	55618.74
629.10	55364.79
629.30	55352.50
629.49	55671.98
629.69	55399.60
629.88	55276.72
630.08	55809.20
630.27	55364.79
630.47	55366.84
630.66	55235.77
630.86	55997.61
631.05	55475.38
631.25	56239.27
631.44	55596.21
631.64	55381.17
631.84	55375.03
632.03	55790.76
632.23	55520.43
632.42	55825.58
632.62	55643.31
632.81	55506.10
633.01	55299.25
633.20	55719.09
633.40	55887.02
633.59	55653.55
633.79	55325.88
633.98	55563.44
634.18	55731.37
634.37	55731.37
634.57	55692.46
634.76	55778.48
634.96	55772.33
635.15	55805.10
635.35	55651.50
635.54	55393.46
635.74	55760.05
635.93	55479.47
636.13	55825.58
636.32	55696.56
636.52	55250.10
636.71	55301.30
636.91	55825.58
637.10	55872.68
637.30	55686.32
637.49	55448.75
637.69	55801.00
637.88	55970.99
638.08	55465.14
638.27	56040.62
638.46	55454.90
638.66	55899.31
638.85	55372.98
639.05	55764.14
639.24	55649.45
639.44	55479.47
639.63	55342.26
639.83	56009.90
640.02	55600.30
640.22	55153.85
640.41	55811.24
640.61	55364.79
640.80	55342.26
640.99	55252.15
641.19	56181.93
641.38	55106.74
641.58	55426.23
641.77	55153.85
641.97	55475.38
642.16	55368.88
642.36	55862.44
642.55	55833.77
642.74	55577.78
642.94	56079.53
643.13	55508.14
643.33	55882.92
643.52	55753.90
643.72	55854.25
643.91	55553.20
644.10	55776.43
644.30	55989.42
644.49	55542.96
644.69	55428.27
644.88	56167.59
645.08	55641.26
645.27	55635.12
645.46	55305.40
645.66	56194.21
645.85	55530.67
646.05	55764.14
646.24	55493.81
646.43	55786.67
646.63	56077.48
646.82	56128.68
647.02	56044.71
647.21	55893.16
647.40	55448.75
647.60	56251.56
647.79	56280.23
647.99	55813.29
648.18	55614.64
648.37	55915.69
648.57	56048.81
648.76	55719.09
648.96	55807.15
649.15	55975.08
649.34	56108.20
649.54	55997.61
649.73	55616.69
649.92	55559.34
650.12	55579.82
650.31	55686.32
650.51	55999.66
650.70	55827.63
650.89	55934.12
651.09	56140.97
651.28	55944.36
651.47	56013.99
651.67	55801.00
651.86	56188.07
652.06	55780.52
652.25	56136.87
652.44	55966.89
652.64	56065.19
652.83	55700.65
653.02	55121.08
653.22	55788.72
653.41	55219.38
653.60	55571.63
653.80	55350.45
653.99	55553.20
654.18	55850.16
654.38	55493.81
654.57	55549.10
654.76	55489.71
654.96	55583.92
655.15	55622.83
655.34	55758.00
655.54	55190.71
655.73	55448.75
655.92	56173.73
656.12	55731.37
656.31	55747.76
656.50	55456.95
656.70	55737.52
656.89	55469.23
657.08	55751.85
657.28	55432.37
657.47	55452.85
657.66	55741.61
657.86	55680.17
658.05	55633.07
658.24	55807.15
658.43	55547.06
658.63	55964.84
658.82	55645.36
659.01	55747.76
659.21	55735.47
659.40	55538.86
659.59	55393.46
659.79	55563.44
659.98	55635.12
660.17	55844.01
660.36	55452.85
660.56	55835.82
660.75	55612.59
660.94	55676.08
661.14	55917.74
661.33	55747.76
661.52	55282.87
661.71	55489.71
661.91	55465.14
662.10	55573.68
662.29	55645.36
662.49	55692.46
662.68	55844.01
662.87	55817.39
663.06	55993.51
663.26	55383.22
663.45	56237.22
663.64	55694.51
663.83	55841.96
664.03	55895.21
664.22	55743.66
664.41	55686.32
664.60	55280.82
664.80	55680.17
664.99	55276.72
665.18	55157.94
665.37	55579.82
665.57	55649.45
665.76	55596.21
665.95	55522.48
666.14	55461.04
666.34	55157.94
666.53	55405.75
666.72	55532.72
666.91	55796.91
667.11	55129.27
667.30	55620.78
667.49	55415.99
667.68	55334.07
667.87	55250.10
668.07	55286.96
668.26	55545.01
668.45	55309.49
668.64	55086.26
668.84	55735.47
669.03	55571.63
669.22	55628.98
669.41	55063.74
669.60	55860.40
669.80	55229.62
669.99	55514.29
670.18	55313.59
670.37	55174.33
670.57	55616.69
670.76	55219.38
670.95	55764.14
671.14	55063.74
671.33	55157.94
671.53	55682.22
671.72	55735.47
671.91	55002.30
672.10	55170.23
672.29	55086.26
672.48	55211.19
672.68	55497.91
672.87	55393.46
673.06	55076.02
673.25	54981.82
673.44	54875.32
673.64	55073.98
673.83	55354.55
674.02	55059.64
674.21	55121.08
674.40	55948.46
674.59	55325.88
674.79	54639.81
674.98	55039.16
675.17	55309.49
675.36	55055.54
675.55	55620.78
675.74	55176.37
675.94	55329.97
676.13	54981.82
676.32	55440.56
676.51	55268.53
676.70	55624.88
676.89	55041.21
677.08	55246.00
677.28	55256.24
677.47	55166.13
677.66	55784.62
677.85	55475.38
678.04	55731.37
678.23	55604.40
678.42	55624.88
678.62	55035.06
678.81	55502.00
679.00	55360.69
679.19	56165.54
679.38	55338.16
679.57	55268.53
679.76	55162.04
679.96	55010.49
680.15	55286.96
680.34	55366.84
680.53	55057.59
680.72	55112.89
680.91	55620.78
681.10	54701.25
681.29	55563.44
681.48	55131.32
681.68	55379.12
681.87	55440.56
682.06	55145.65
682.25	54949.05
682.44	55116.98
682.63	55125.17
682.82	54942.91
683.01	54947.00
683.20	54906.04
683.39	55424.18
683.59	55178.42
683.78	55018.68
683.97	54740.16
684.16	55368.88
684.35	55116.98
684.54	54568.13
684.73	54867.13
684.92	54822.08
685.11	55276.72
685.30	54863.03
685.49	55071.93
685.69	54985.91
685.88	54961.34
686.07	55051.45
686.26	54903.99
686.45	54815.93
686.64	54742.20
686.83	55071.93
687.02	54983.86
687.21	54856.89
687.40	55104.70
687.59	54936.76
687.78	55350.45
687.97	55243.96
688.16	55059.64
688.35	55030.97
688.54	54940.86
688.74	54969.53
688.93	55076.02
689.12	54645.95
689.31	54799.55
689.50	55223.48
689.69	54723.77
689.88	54574.27
690.07	54725.82
690.26	54670.53
690.45	55008.44
690.64	54740.16
690.83	54232.26
691.02	54467.78
691.21	54199.49
691.40	54809.79
691.59	55104.70
691.78	55135.41
691.97	55166.13
692.16	54764.73
692.35	54682.81
692.54	54719.68
692.73	54408.39
692.92	54514.88
693.11	54682.81
693.30	54586.56
693.49	54998.20
693.68	54916.28
693.87	54727.87
694.06	54719.68
694.25	54430.91
694.44	54727.87
694.63	54570.18
694.82	54613.18
695.01	54613.18
695.20	55047.35
695.39	54488.26
695.58	54400.19
695.77	54357.19
695.96	54406.34
696.15	54955.19
696.34	54146.25
696.53	54244.55
696.72	53916.87
696.91	54047.94
697.10	54439.11
697.29	54318.28
697.48	54516.93
697.67	54271.17
697.86	53861.58
698.05	54107.33
698.24	54203.59
698.43	54043.85
698.62	54396.10
698.81	54105.29
699.00	54437.06
699.19	53720.27
699.38	54285.51
699.57	53861.58
699.76	54885.56
699.95	53624.01
700.14	53480.66
700.32	54154.44
700.51	54113.48
700.70	54588.61
700.89	53937.35
701.08	53794.00
701.27	54125.77
701.46	54281.41
701.65	53761.23
701.84	54572.22
702.03	53456.08
702.22	54107.33
702.41	53900.49
702.60	54195.40
702.79	53832.91
702.98	53748.94
703.17	53861.58
703.35	53769.42
703.54	53343.44
703.73	54211.78
703.92	53875.91
704.11	53869.77
704.30	53554.38
704.49	53912.78
704.68	53216.47
704.87	53671.12
705.06	53900.49
705.25	53949.64
705.43	53654.73
705.62	53810.38
705.81	53576.91
706.00	53742.80
706.19	53372.11
706.38	53351.63
706.57	53619.92
706.76	53282.00
706.95	53787.85
707.14	53697.74
707.32	53664.97
707.51	53421.26
707.70	53687.50
707.89	53277.91
708.08	53206.23
708.27	53210.32
708.46	53658.83
708.65	53034.20
708.84	53396.69
709.02	53298.39
709.21	53714.12
709.40	53189.84
709.59	53337.30
709.78	53265.62
709.97	53327.06
710.16	53198.04
710.34	52915.42
710.53	53013.72
710.72	52929.75
710.91	53245.14
711.10	52708.57
711.29	53224.66
711.48	53298.39
711.66	52964.57
711.85	52958.42
712.04	53157.08
712.23	52798.68
712.42	52546.78
712.61	52319.46
712.80	53062.87
712.98	52843.74
713.17	52755.68
713.36	52679.90
713.55	52749.53
713.74	52802.78
713.93	52786.39
714.11	52325.60
714.30	52221.16
714.49	52624.60
714.68	52661.47
714.87	52624.60
715.06	52663.52
715.24	52122.85
715.43	52149.48
715.62	52231.40
715.81	52180.20
716.00	52307.17
716.18	52206.82
716.37	52016.36
716.56	51821.80
716.75	52374.75
716.94	52188.39
717.12	51934.44
717.31	52313.31
717.50	52165.86
717.69	51674.35
717.88	51391.73
718.06	51795.18
718.25	51873.00
718.44	51295.47
718.63	51221.75
718.82	51885.29
719.00	51733.74
719.19	51055.86
719.38	51391.73
719.57	51541.23
719.76	51045.62
719.94	50719.99
720.13	51053.81
720.32	51176.69
720.51	50582.78
720.69	50803.96
720.88	50709.75
721.07	50842.87
721.26	50384.13
721.44	50812.15
721.63	50838.78
721.82	50455.81
722.01	50392.32
722.20	51023.09
722.38	50873.59
722.57	49896.71
722.76	50300.16
722.95	50291.97
723.13	50119.94
723.32	49997.06
723.51	49870.09
723.70	49700.11
723.88	49798.41
724.07	49755.40
724.26	49870.09
724.44	49386.77
724.63	50173.19
724.82	49743.11
725.01	49730.83
725.19	49679.63
725.38	49315.09
725.57	49290.51
725.76	49591.56
725.94	49327.38
726.13	49534.22
726.32	49605.90
726.51	48985.36
726.69	49564.94
726.88	49730.83
727.07	49341.71
727.25	49360.14
727.44	49618.19
727.63	49124.63
727.82	49208.59
728.00	49255.70
728.19	49048.85
728.38	49671.43
728.56	49005.84
728.75	49169.68
728.94	49126.67
729.12	49276.18
729.31	48850.20
729.50	48776.47
729.69	49364.24
729.87	49095.95
730.06	48690.46
730.25	48850.20
730.43	49464.59
730.62	49157.39
730.81	49136.91
730.99	49192.21
731.18	48723.22
731.37	48981.27
731.55	48755.99
731.74	49141.01
731.93	49020.18
732.11	48776.47
732.30	48901.40
732.49	48821.53
732.67	48643.35
732.86	48680.22
733.05	48282.91
733.23	48364.83
733.42	48954.64
733.61	48518.43
733.79	48842.01
733.98	49141.01
734.17	48321.82
734.35	48141.60
734.54	48944.41
734.73	48854.29
734.91	48518.43
735.10	48348.45
735.29	48229.66
735.47	48297.25
735.66	48094.50
735.84	48424.22
736.03	48108.83
736.22	48657.69
736.40	48262.43
736.59	48315.68
736.78	48323.87
736.96	48086.31
737.15	47988.00
737.33	48186.66
737.52	47961.38
737.71	47736.10
737.89	47770.92
738.08	47551.79
738.27	47916.32
738.45	47994.15
738.64	47801.64
738.82	47766.82
739.01	47672.62
739.20	47396.14
739.38	47494.44
739.57	47549.74
739.75	47783.21
739.94	47676.71
740.13	47797.54
740.31	47056.18
740.50	47820.07
740.68	47551.79
740.87	47291.69
741.06	47600.94
741.24	47453.48
741.43	47174.96
741.61	47564.07
741.80	47082.80
741.99	46748.98
742.17	46964.02
742.36	47697.19
742.54	47232.30
742.73	47281.45
742.91	47265.07
743.10	46732.60
743.29	47510.83
743.47	46966.07
743.66	46882.10
743.84	47449.39
744.03	47035.70
744.21	46544.19
744.40	47019.31
744.59	46224.70
744.77	46210.37
744.96	46345.53
745.14	46380.35
745.33	46376.25
745.51	45972.80
745.70	46630.20
745.88	46052.67
746.07	46292.29
746.26	45872.45
746.44	46058.82
746.63	46425.40
746.81	46447.93
747.00	45598.02
747.18	46296.38
747.37	45866.31
747.55	45778.25
747.74	46419.26
747.92	45704.52
748.11	45620.55
748.29	45651.27
748.48	45784.39
748.66	45796.68
748.85	45813.06
749.03	45684.04
749.22	45921.60
749.41	45419.85
749.59	45552.97
749.78	45284.68
749.96	44598.62
750.15	45317.45
750.33	45735.24
750.52	45479.24
750.70	45544.78
750.89	45081.94
751.07	45346.12
751.26	45278.54
751.44	44961.11
751.63	45313.36
751.81	45067.60
752.00	44703.06
752.18	44901.71
752.37	45237.58
752.55	44490.07
752.74	44479.83
752.92	44416.35
753.10	44447.07
753.29	45018.45
753.47	44551.51
753.66	44293.47
753.84	44827.99
754.03	44055.90
754.21	44395.87
754.40	44555.61
754.58	44440.92
754.77	44533.08
754.95	44537.18
755.14	44295.52
755.32	44086.62
755.51	44082.53
755.69	44037.47
755.88	44080.48
756.06	44201.31
756.24	44143.97
756.43	43720.04
756.61	43672.93
756.80	43763.04
756.98	43949.41
757.17	43832.68
757.35	43674.98
757.54	43681.13
757.72	44096.86
757.90	43253.10
758.09	43306.35
758.27	43773.28
758.46	43296.11
758.64	43064.69
758.83	43461.99
759.01	43693.41
759.19	43292.01
759.38	43330.92
759.56	43742.56
759.75	43031.92
759.93	43445.61
760.12	42923.38
760.30	43595.11
760.48	43267.44
760.67	42841.46
760.85	43183.47
761.04	43353.45
761.22	43349.35
761.40	42790.26
761.59	42644.85
761.77	42452.34
761.96	43195.76
762.14	43011.44
762.32	42653.05
762.51	42663.28
762.69	42577.27
762.88	42521.98
763.06	42960.24
763.24	43029.87
763.43	42425.72
763.61	42286.46
763.80	42222.97
763.98	42175.87
764.16	42288.51
764.35	42012.03
764.53	41690.50
764.72	42247.55
764.90	42024.32
765.08	42065.28
765.27	41840.00
765.45	41766.27
765.63	40945.04
765.82	41911.68
766.00	41551.24
766.18	41477.51
766.37	42083.71
766.55	41796.99
766.74	41479.56
766.92	41522.57
767.10	41536.90
767.29	41796.99
767.47	40996.24
767.65	41362.82
767.84	41211.28
768.02	41229.71
768.20	41119.12
768.39	41135.50
768.57	41041.29
768.75	40816.02
768.94	41018.77
769.12	41100.68
769.30	40277.40
769.49	41119.12
769.67	40809.87
769.85	40592.79
770.04	40502.68
770.22	40930.70
770.40	40658.32
770.59	40437.14
770.77	40746.39
770.95	40682.90
771.14	40148.38
771.32	40410.52
771.50	40324.50
771.69	40240.54
771.87	40392.09
772.05	40154.52
772.24	40179.10
772.42	40265.11
772.60	40121.76
772.78	40041.88
772.97	39929.25
773.15	40150.43
773.33	39974.30
773.52	39789.98
773.70	40107.42
773.88	40105.37
774.07	39959.97
774.25	40048.03
774.43	40330.65
774.61	39990.69
774.80	40086.94
774.98	40261.02
775.16	40064.41
775.34	40052.12
775.53	39746.98
775.71	40007.07
775.89	40201.63
776.08	39962.01
776.26	39994.78
776.44	39841.18
776.62	39599.52
776.81	39771.55
776.99	40113.56
777.17	39933.34
777.35	40068.51
777.54	40134.04
777.72	39708.07
777.90	40183.19
778.08	39876.00
778.27	40091.04
778.45	40471.96
778.63	40373.66
778.81	40009.12
779.00	40719.76
779.18	40482.20
779.36	40635.80
779.54	40310.17
779.73	40336.79
779.91	40619.41
780.09	40543.64
780.27	40752.53
780.46	40224.15
780.64	40742.29
780.82	40535.45
781.00	40297.88
781.19	40641.94
781.37	40570.26
781.55	40668.56
781.73	41057.68
781.91	40879.50
782.10	40482.20
782.28	40605.08
782.46	40889.74
782.64	41069.97
782.82	40555.93
783.01	41143.69
783.19	41106.83
783.37	41096.59
783.55	40498.58
783.74	41330.06
783.92	40535.45
784.10	41401.74
784.28	40537.49
784.46	40789.39
784.64	40803.73
784.83	40799.63
785.01	41254.28
785.19	41112.97
785.37	41248.14
785.55	40912.27
785.74	40801.68
785.92	40770.96
786.10	41065.87
786.28	40912.27
786.46	40791.44
786.64	40328.60
786.83	40664.47
787.01	40822.16
787.19	40568.21
787.37	40652.18
787.55	40656.28
787.74	40437.14
787.92	40523.16
788.10	40353.18
788.28	40097.18
788.46	40306.07
788.64	39935.39
788.82	40492.44
789.01	40474.01
789.19	40295.83
789.37	39812.51
789.55	40672.66
789.73	39720.35
789.91	39857.57
790.09	39685.54
790.28	39703.97
790.46	39503.27
790.64	39861.66
790.82	39574.95
791.00	39822.75
791.18	39431.59
791.36	39620.00
791.55	39691.68
791.73	39314.86
791.91	39224.75
792.09	39050.67
792.27	39353.77
792.45	39153.07
792.63	39181.74
792.81	38864.30
793.00	39308.71
793.18	38864.30
793.36	39026.09
793.54	39073.20
793.72	38692.27
793.90	38886.83
794.08	38923.69
794.26	38610.35
794.44	38512.05
794.62	38102.46
794.81	38327.74
794.99	38307.26
795.17	38340.02
795.35	38251.96
795.53	38311.35
795.71	38389.17
795.89	37946.81
796.07	37811.65
796.25	38098.36
796.43	37561.79
796.61	37322.18
796.80	37524.93
796.98	37690.82
797.16	37293.51
797.34	37361.09
797.52	37250.50
797.70	37469.64
797.88	37062.09
798.06	36785.61
798.24	37004.75
798.42	36756.94
798.60	36890.06
798.78	36376.02
798.96	36845.01
799.14	36738.51
799.32	36967.88
799.51	36181.46
799.69	36507.09
799.87	36660.69
800.05	36050.39
800.23	36376.02
800.41	36093.40
800.59	36236.76
800.77	35833.31
800.95	35763.68
801.13	36050.39
801.31	35479.01
801.49	35567.07
801.67	35511.78
801.85	35337.70
802.03	35442.15
802.21	35286.50
802.39	35124.71
802.57	35460.58
802.75	35091.94
802.93	35096.04
803.11	34792.94
803.29	34960.87
803.47	34842.09
803.65	35061.22
803.83	34803.18
804.01	34764.27
804.19	34575.86
804.37	34319.86
804.55	34575.86
804.73	34293.24
804.91	34739.69
805.09	34227.70
805.27	34430.45
805.45	34364.92
805.63	34631.15
805.81	34043.38
805.99	34164.21
806.17	34113.02
806.35	33625.60
806.53	33830.40
806.71	33885.69
806.89	33717.76
807.07	33795.58
807.25	33549.82
807.43	33383.94
807.61	34065.91
807.79	33611.26
807.97	33232.39
808.15	33410.56
808.33	33269.25
808.51	33093.13
808.69	33267.20
808.87	33041.93
809.05	32609.81
809.23	32704.01
809.41	32964.10
809.59	32863.75
809.77	32730.64
809.95	32652.81
810.13	32953.87
810.31	32454.16
810.49	32556.56
810.67	32372.24
810.84	32509.46
811.02	32794.12
811.20	32112.15
811.38	32425.49
811.56	31946.26
811.74	32005.66
811.92	31852.06
812.10	31784.48
812.28	32017.94
812.46	32103.96
812.64	32378.39
812.82	31737.37
813.00	32130.58
813.18	31886.87
813.36	31743.52
813.53	31622.69
813.71	31802.91
813.89	31282.72
814.07	31483.42
814.25	31540.77
814.43	31151.65
814.61	31518.24
814.79	31092.26
814.97	31237.67
815.15	31295.01
815.33	30860.84
815.50	31061.54
815.68	31049.25
815.86	30901.80
816.04	31010.34
816.22	30848.55
816.40	30834.22
816.58	30873.13
816.76	30541.36
816.94	30471.73
817.11	30529.07
817.29	30389.81
817.47	30311.99
817.65	30311.99
817.83	30404.14
818.01	30238.26
818.19	30164.53
818.37	30230.07
818.54	30164.53
818.72	29890.10
818.90	29992.50
819.08	30152.24
819.26	29832.76
819.44	29969.97
819.62	29957.69
819.80	30051.89
819.97	30037.56
820.15	29845.05
820.33	29554.24
820.51	30068.28
820.69	29451.84
820.87	29967.93
821.05	29853.24
821.22	29664.83
821.40	29521.47
821.58	29683.26
821.76	29361.73
821.94	29310.53
822.12	29646.40
822.29	29079.11
822.47	29226.56
822.65	29386.30
822.83	29353.54
823.01	29005.38
823.19	29070.92
823.36	28689.99
823.54	28995.14
823.72	29060.68
823.90	29109.83
824.08	28315.22
824.25	28763.72
824.43	28427.85
824.61	28466.77
824.79	28737.10
824.97	28477.01
825.15	28704.33
825.32	28388.94
825.50	28384.85
825.68	28581.45
825.86	28614.22
826.04	28544.59
826.21	28286.54
826.39	28347.98
826.57	28282.45
826.75	28223.06
826.93	27942.49
827.10	28096.08
827.28	28112.47
827.46	28216.91
827.64	28059.22
827.81	27975.25
827.99	28495.44
828.17	27936.34
828.35	28008.02
828.53	27786.84
828.70	27788.89
828.88	28026.45
829.06	27864.66
829.24	27944.53
829.41	27625.05
829.59	27678.30
829.77	27762.26
829.95	27602.52
830.12	27903.57
830.30	27504.22
830.48	27565.66
830.66	27778.65
830.84	27399.77
831.01	27629.15
831.19	27610.71
831.37	27172.45
831.55	27199.07
831.72	26895.97
831.90	27201.12
832.08	27016.80
832.25	26992.23
832.43	27166.31
832.61	27203.17
832.79	26599.02
832.96	27004.52
833.14	26893.93
833.32	27137.63
833.50	27143.78
833.67	27145.83
833.85	26703.46
834.03	26517.10
834.20	26967.65
834.38	26658.41
834.56	26936.93
834.74	26392.17
834.91	26592.87
835.09	26789.48
835.27	26257.01
835.44	26467.95
835.62	26123.89
835.80	26297.97
835.98	26162.80
836.15	26441.32
836.33	26302.06
836.51	26420.84
836.68	26302.06
836.86	26250.86
837.04	26121.84
837.21	25896.56
837.39	26289.77
837.57	25968.24
837.75	26300.01
837.92	25753.21
838.10	25939.57
838.28	25583.23
838.45	25871.99
838.63	26013.30
838.81	25947.76
838.98	25693.82
839.16	25497.21
839.34	25648.76
839.51	25333.37
839.69	25403.00
839.87	25462.40
840.04	25134.72
840.22	25755.26
840.40	25056.90
840.57	25450.11
840.75	25634.42
840.93	25245.31
841.10	25271.93
841.28	25427.58
841.46	25333.37
841.63	25536.12
841.81	25017.99
841.98	25593.47
842.16	25300.61
842.34	25036.42
842.51	25165.44
842.69	25351.81
842.87	24983.17
843.04	25321.09
843.22	24759.94
843.40	24727.17
843.57	24839.81
843.75	24712.84
843.92	25190.02
844.10	24954.50
844.28	25159.30
844.45	24876.68
844.63	24872.58
844.81	24510.09
844.98	24811.14
845.16	24585.86
845.33	24594.06
845.51	24796.81
845.69	24530.57
845.86	24260.24
846.04	24243.85
846.21	24104.59
846.39	24385.16
846.57	24137.36
846.74	24487.56
846.92	24108.69
847.09	24229.52
847.27	23832.21
847.45	24067.73
847.62	24047.25
847.80	24166.03
847.97	24456.84
848.15	23893.65
848.32	24133.26
848.50	24039.06
848.68	23895.70
848.85	24147.60
849.03	23621.27
849.20	23828.12
849.38	23850.64
849.56	23785.11
849.73	23633.56
849.91	23940.75
850.08	23965.33
850.26	23619.22
850.43	23545.50
850.61	23461.53
850.78	23305.88
850.96	23688.85
851.14	23514.78
851.31	23203.49
851.49	23416.47
851.66	23682.71
851.84	23197.34
852.01	23516.83
852.19	23393.95
852.36	22959.78
852.54	23283.36
852.71	23262.88
852.89	23150.24
853.07	23221.92
853.24	23148.19
853.42	23090.85
853.59	23015.07
853.77	23010.98
853.94	22806.18
854.12	23332.51
854.29	22640.29
854.47	23201.44
854.64	22924.96
854.82	22607.53
854.99	22951.59
855.17	22605.48
855.34	22597.29
855.52	22591.14
855.69	22716.07
855.87	22564.52
856.04	22476.46
856.22	22560.42
856.39	22365.87
856.57	22415.02
856.74	22718.12
856.92	22693.54
857.09	22230.70
857.27	22249.13
857.44	22587.05
857.62	22312.62
857.79	22460.07
857.97	22357.67
858.14	22400.68
858.32	22079.15
858.49	22150.83
858.67	22009.52
858.84	22054.58
859.02	21890.74
859.19	22009.52
859.37	21903.03
859.54	22032.05
859.72	22126.25
859.89	21831.35
860.06	22120.11
860.24	21798.58
860.41	22083.25
860.59	21726.90
860.76	21839.54
860.94	21520.06
861.11	21769.91
861.29	21788.34
861.46	21837.49
861.64	21335.74
861.81	21821.11
861.98	21540.54
862.16	21751.48
862.33	21006.02
862.51	21298.88
862.68	21372.60
862.86	21114.56
863.03	20977.34
863.21	21298.88
863.38	21225.15
863.55	21065.41
863.73	21421.75
863.90	21147.33
864.08	21059.26
864.25	21110.46
864.43	20895.43
864.60	21094.08
864.77	20909.76
864.95	20762.31
865.12	20770.50
865.30	20856.51
865.47	21087.93
865.64	20795.07
865.82	20809.41
865.99	21087.93
866.17	20932.29
866.34	20950.72
866.51	20391.62
866.69	20811.46
866.86	20459.21
867.04	20567.75
867.21	20293.32
867.38	20393.67
867.56	20451.02
867.73	20301.51
867.91	20291.27
868.08	20211.40
868.25	20311.75
868.43	20391.62
868.60	20178.64
868.78	20225.74
868.95	20311.75
869.12	20190.92
869.30	20063.95
869.47	20174.54
869.64	19943.12
869.82	19838.67
869.99	19826.39
870.16	20328.14
870.34	19941.07
870.51	20078.29
870.69	19584.73
870.86	19656.40
871.03	19769.04
871.21	19687.12
871.38	19799.76
871.55	19625.68
871.73	19511.00
871.90	19486.42
872.07	19140.32
872.25	19142.36
872.42	19400.41
872.59	19146.46
872.77	19388.12
872.94	19027.68
873.11	19310.30
873.29	19250.91
873.46	18937.57
873.63	18988.77
873.81	18956.00
873.98	18849.50
874.15	18896.61
874.33	19078.88
874.50	19101.40
874.67	18745.06
874.85	18814.69
875.02	18773.73
875.19	18855.65
875.37	18804.45
875.54	18603.75
875.71	18607.84
875.88	18544.36
876.06	18710.24
876.23	18487.01
876.40	18401.00
876.58	18456.29
876.75	18376.42
876.92	18136.81
877.10	18364.14
877.27	18263.79
877.44	17936.11
877.61	17972.97
877.79	17905.39
877.96	17995.50
878.13	18142.96
878.31	17997.55
878.48	17843.95
878.65	17936.11
878.82	17815.28
879.00	17676.02
879.17	17653.49
879.34	17802.99
879.51	17694.45
879.69	17571.57
879.86	17682.16
880.03	17532.66
880.21	17524.47
880.38	17465.08
880.55	17587.96
880.72	17389.30
880.90	17432.31
881.07	17624.82
881.24	17444.60
881.41	17274.62
881.59	17331.96
881.76	17311.48
881.93	17198.84
882.10	17141.50
882.28	17200.89
882.45	17180.41
882.62	17121.02
882.79	17067.77
882.96	16932.61
883.14	17366.78
883.31	17190.65
883.48	16844.54
883.65	16957.18
883.83	17334.01
884.00	17012.48
884.17	16930.56
884.34	17004.28
884.51	17047.29
884.69	17000.19
884.86	16963.33
885.03	16856.83
885.20	16617.22
885.38	16946.94
885.55	16781.06
885.72	16787.20
885.89	16961.28
886.06	16848.64
886.24	16539.40
886.41	16639.75
886.58	16649.99
886.75	16727.81
886.92	16328.45
887.10	16762.62
887.27	16281.35
887.44	16588.55
887.61	16682.75
887.78	16303.88
887.95	16520.96
888.13	16217.86
888.30	16168.71
888.47	16559.88
888.64	16258.82
888.81	16244.49
888.99	16187.14
889.16	16013.07
889.33	16103.18
889.50	16082.70
889.67	15968.01
889.84	16070.41
890.01	15982.35
890.19	16197.38
890.36	15976.20
890.53	16203.53
890.70	15906.57
890.87	15879.95
891.04	15812.37
891.22	15851.28
891.39	15750.93
891.56	15537.94
891.73	15869.71
891.90	15626.00
892.07	15451.92
892.24	15800.08
892.42	15617.81
892.59	15769.36
892.76	15441.68
892.93	15451.92
893.10	15761.17
893.27	15433.49
893.44	15220.50
893.61	15312.66
893.79	15669.01
893.96	15322.90
894.13	15441.68
894.30	15470.36
894.47	15304.47
894.64	15456.02
894.81	15363.86
894.98	15208.22
895.15	15335.19
895.33	15367.96
895.50	15249.18
895.67	15245.08
895.84	15208.22
896.01	15218.46
896.18	15089.43
896.35	15505.17
896.52	15251.22
896.69	15066.91
896.86	15109.91
897.04	15273.75
897.21	15304.47
897.38	15286.04
897.55	15320.85
897.72	15206.17
897.89	15013.66
898.06	15247.13
898.23	15122.20
898.40	15120.15
898.57	15220.50
898.74	14974.75
898.91	15161.11
899.08	15208.22
899.26	15107.87
899.43	14993.18
899.60	15101.72
899.77	15157.02
899.94	15238.94
900.11	15038.23
900.28	15159.06
900.45	15003.42
900.62	14970.65
900.79	15109.91
900.96	14991.13
901.13	14907.16
901.30	14927.64
901.47	14935.84
901.64	15101.72
901.81	15171.35
901.98	14841.63
902.15	14970.65
902.32	14929.69
902.49	14946.08
902.66	15185.69
902.83	15068.95
903.01	15013.66
903.18	15159.06
903.35	15027.99
903.52	15116.06
903.69	15021.85
903.86	15148.82
904.03	14872.35
904.20	15183.64
904.37	15341.33
904.54	14694.18
904.71	15032.09
904.88	14941.98
905.05	14968.60
905.22	15226.65
905.39	15111.96
905.56	14874.40
905.73	14798.62
905.90	15046.43
906.07	14966.56
906.24	14964.51
906.41	15048.47
906.58	15122.20
906.75	14892.83
906.92	14503.71
907.09	14757.66
907.26	14929.69
907.43	14487.33
907.60	14960.41
907.77	15054.62
907.93	14968.60
908.10	14952.22
908.27	14966.56
908.44	14638.88
908.61	14628.64
908.78	14671.65
908.95	14800.67
909.12	14685.98
909.29	14915.36
909.46	14677.79
909.63	14733.09
909.80	14915.36
909.97	14655.26
910.14	14786.33
910.31	14595.87
910.48	14524.19
910.65	14593.83
910.82	14540.58
910.99	14636.83
911.16	14421.80
911.33	14618.40
911.50	14788.38
911.66	14423.84
911.83	14376.74
912.00	14470.95
912.17	14288.68
912.34	14393.12
912.51	14436.13
912.68	14315.30
912.85	14429.99
913.02	14569.25
913.19	14552.87
913.36	14462.76
913.53	14348.07
913.70	14331.69
913.86	14516.00
914.03	14356.26
914.20	14413.60
914.37	14112.55
914.54	14219.05
914.71	13834.03
914.88	14098.22
915.05	13864.75
915.22	14014.25
915.39	13922.09
915.55	13889.32
915.72	13827.88
915.89	13752.11
916.06	13676.34
916.23	13715.25
916.40	13897.52
916.57	13453.11
916.74	13719.34
916.91	13541.17
917.07	13633.33
917.24	13723.44
917.41	13573.94
917.58	13659.95
917.75	13393.72
917.92	13508.40
918.09	13403.96
918.26	13508.40
918.42	13401.91
918.59	13584.18
918.76	13287.22
918.93	13453.11
919.10	13135.67
919.27	13088.57
919.44	13430.58
919.60	13225.78
919.77	13027.13
919.94	13031.23
920.11	13049.66
920.28	13135.67
920.45	13066.04
920.61	12879.68
920.78	12867.39
920.95	12896.06
921.12	12801.85
921.29	12654.40
921.46	12515.14
921.62	12394.31
921.79	12552.00
921.96	12463.94
922.13	12730.17
922.30	12373.83
922.47	12472.13
922.63	12386.12
922.80	12234.57
922.97	12427.07
923.14	12201.80
923.31	12162.89
923.47	12103.50
923.64	12547.90
923.81	12027.72
923.98	12107.59
924.15	12052.30
924.32	11994.95
924.48	11943.75
924.65	12011.34
924.82	11771.72
924.99	11816.78
925.15	11693.90
925.32	11837.26
925.49	11540.30
925.66	11530.06
925.83	11632.46
925.99	11458.39
926.16	11528.02
926.33	11456.34
926.50	11415.38
926.67	11497.30
926.83	11630.41
927.00	11482.96
927.17	11325.27
927.34	11188.05
927.50	11267.92
927.67	11239.25
927.84	11163.48
928.01	11118.42
928.17	10964.82
928.34	11069.27
928.51	10721.12
928.68	10796.89
928.84	10712.92
929.01	10717.02
929.18	10606.43
929.35	10676.06
929.51	10639.20
929.68	10469.22
929.85	10399.59
930.02	10522.46
930.18	10622.81
930.35	10424.16
930.52	10266.47
930.69	10276.71
930.85	10346.34
931.02	10202.98
931.19	10286.95
931.36	10110.82
931.52	10243.94
931.69	10145.64
931.86	9967.46
932.02	9957.22
932.19	9928.55
932.36	9949.03
932.53	10002.28
932.69	9840.49
932.86	9783.15
933.03	9867.11
933.19	9549.68
933.36	9826.15
933.53	9836.39
933.70	9607.02
933.86	9451.38
934.03	9543.53
934.20	9293.68
934.36	9332.59
934.53	9135.99
934.70	9174.90
934.86	9146.23
935.03	9006.97
935.20	8869.75
935.36	8918.90
935.53	8707.96
935.70	8689.53
935.86	8882.04
936.03	8441.73
936.20	8593.28
936.36	8728.44
936.53	8288.13
936.70	8349.57
936.86	8322.94
937.03	8259.46
937.20	8050.57
937.36	8243.07
937.53	7884.68
937.70	7856.01
937.86	7919.50
938.03	7821.19
938.20	7837.58
938.36	7712.65
938.53	7626.64
938.70	7382.93
938.86	7333.78
939.03	7266.19
939.20	7180.18
939.36	7239.57
939.53	7204.75
939.70	7163.79
939.86	6907.80
940.03	6772.63
940.19	6690.71
940.36	6709.15
940.53	6680.47
940.69	6524.83
940.86	6676.38
941.03	6510.49
941.19	6238.11
941.36	6332.32
941.52	6164.39
941.69	6223.78
941.86	6207.39
942.02	6178.72
942.19	6127.52
942.35	6027.17
942.52	6031.27
942.69	5808.04
942.85	5754.79
943.02	5705.64
943.18	5824.42
943.35	5621.67
943.52	5760.94
943.68	5715.88
943.85	5685.16
944.01	5709.74
944.18	5605.29
944.35	5681.07
944.51	5451.69
944.68	5580.71
944.84	5466.03
945.01	5355.44
945.17	5396.40
945.34	5449.64
945.51	5527.47
945.67	5343.15
945.84	5463.98
946.00	5330.86
946.17	5218.22
946.33	5244.85
946.50	5369.77
946.67	5337.01
946.83	5298.10
947.00	5400.49
947.16	5267.38
947.33	5167.03
947.49	5146.55
947.66	5150.64
947.82	5517.23
947.99	5244.85
948.16	5365.68
948.32	5173.17
948.49	5359.53
948.65	5234.61
948.82	5201.84
948.98	5253.04
949.15	5218.22
949.31	5375.92
949.48	5185.46
949.64	5238.70
949.81	5287.86
949.97	5359.53
950.14	5369.77
950.30	5291.95
950.47	5375.92
950.63	5261.23
950.80	5222.32
950.96	5365.68
951.13	5234.61
951.30	5398.45
951.46	5332.91
951.63	5359.53
951.79	5334.96
951.96	5337.01
952.12	5287.86
952.29	5541.80
952.45	5281.71
952.62	5316.53
952.78	5427.12
952.94	5425.07
953.11	5291.95
953.27	5300.14
953.44	5521.32
953.60	5439.40
953.77	5386.16
953.93	5384.11
954.10	5367.73
954.26	5427.12
954.43	5451.69
954.59	5388.21
954.76	5552.04
954.92	5351.34
955.09	5402.54
955.25	5437.36
955.42	5433.26
955.58	5504.94
955.75	5425.07
955.91	5349.29
956.07	5506.99
956.24	5502.89
956.40	5629.87
956.57	5435.31
956.73	5418.93
956.90	5502.89
957.06	5423.02
957.23	5511.08
957.39	5443.50
957.56	5398.45
957.72	5320.62
957.88	5504.94
958.05	5427.12
958.21	5646.25
958.38	5533.61
958.54	5453.74
958.71	5605.29
958.87	5492.65
959.03	5451.69
959.20	5463.98
959.36	5408.69
959.53	5361.58
959.69	5414.83
959.85	5472.17
960.02	5480.36
960.18	5480.36
960.35	5574.57
960.51	5531.56
960.68	5390.25
960.84	5337.01
961.00	5496.75
961.17	5361.58
961.33	5461.93
961.50	5449.64
961.66	5433.26
961.82	5394.35
961.99	5425.07
962.15	5578.67
962.31	5466.03
962.48	5535.66
962.64	5488.56
962.81	5398.45
962.97	5420.97
963.13	5617.58
963.30	5427.12
963.46	5386.16
963.62	5375.92
963.79	5529.52
963.95	5334.96
964.12	5308.34
964.28	5472.17
964.44	5384.11
964.61	5326.77
964.77	5308.34
964.93	5427.12
965.10	5310.38
965.26	5287.86
965.42	5423.02
965.59	5478.32
965.75	5224.37
965.92	5384.11
966.08	5431.21
966.24	5400.49
966.41	5201.84
966.57	5363.63
966.73	5177.26
966.90	5302.19
967.06	5160.88
967.22	5279.66
967.39	5248.94
967.55	5230.51
967.71	5255.09
967.88	5205.94
968.04	5203.89
968.20	5248.94
968.37	5257.14
968.53	5138.35
968.69	5226.42
968.85	5308.34
969.02	5140.40
969.18	5154.74
969.34	5240.75
969.51	5253.04
969.67	5269.42
969.83	5148.59
970.00	5281.71
970.16	5183.41
970.32	5250.99
970.48	5212.08
970.65	4984.76
970.81	4935.60
970.97	5023.67
971.14	4949.94
971.30	5277.62
971.46	5023.67
971.63	5044.15
971.79	5185.46
971.95	5060.53
972.11	4935.60
972.28	4974.52
972.44	5103.54
972.60	5011.38
972.76	5130.16
972.93	5091.25
973.09	5062.58
973.25	4982.71
973.42	4808.63
973.58	4894.65
973.74	4988.85
973.90	5046.20
974.07	4810.68
974.23	4855.73
974.39	4845.49
974.55	4956.08
974.72	4943.80
974.88	4708.28
975.04	4849.59
975.20	4802.49
975.37	4902.84
975.53	4927.41
975.69	4825.01
975.85	4863.93
976.01	4702.14
976.18	4886.45
976.34	4730.81
976.50	4837.30
976.66	4788.15
976.83	4816.82
976.99	4812.73
977.15	4657.08
977.31	4661.18
977.47	4753.34
977.64	4859.83
977.80	4599.74
977.96	4657.08
978.12	4679.61
978.29	4657.08
978.45	4585.40
978.61	4550.59
978.77	4716.47
978.93	4507.58
979.10	4515.77
979.26	4665.27
979.42	4589.50
979.58	4472.76
979.74	4489.15
979.91	4538.30
980.07	4501.44
980.23	4569.02
980.39	4372.41
980.55	4435.90
980.71	4427.71
980.88	4421.56
981.04	4470.72
981.20	4509.63
981.36	4497.34
981.52	4458.43
981.68	4370.37
981.85	4532.15
982.01	4442.04
982.17	4380.61
982.33	4394.94
982.49	4417.47
982.65	4347.84
982.82	4286.40
982.98	4358.08
983.14	4247.49
983.30	4411.32
983.46	4493.24
983.62	4304.83
983.79	4390.84
983.95	4300.73
984.11	4229.06
984.27	4227.01
984.43	4192.19
984.59	4202.43
984.75	4333.50
984.91	4181.95
985.08	4376.51
985.24	4171.71
985.40	4173.76
985.56	4272.06
985.72	4155.33
985.88	4353.98
986.04	4100.03
986.20	4134.85
986.37	4114.37
986.53	4054.98
986.69	4054.98
986.85	4069.31
987.01	4063.17
987.17	4190.14
987.33	4040.64
987.49	4018.11
987.65	4136.90
987.82	4136.90
987.98	3930.05
988.14	3913.67
988.30	4085.70
988.46	3909.57
988.62	3958.72
988.78	3872.71
988.94	4036.55
989.10	4026.31
989.26	3835.85
989.42	3913.67
989.59	3882.95
989.75	3911.62
989.91	3895.24
990.07	3764.17
990.23	3829.70
990.39	3874.76
990.55	3944.39
990.71	3874.76
990.87	3862.47
991.03	3807.17
991.19	3735.50
991.35	3821.51
991.51	3737.54
991.67	3819.46
991.83	3637.19
992.00	3696.58
992.16	3852.23
992.32	3696.58
992.48	3764.17
992.64	3614.66
992.80	3717.06
992.96	3665.86
993.12	3674.06
993.28	3682.25
993.44	3669.96
993.60	3631.05
993.76	3661.77
993.92	3657.67
994.08	3702.73
994.24	3604.42
994.40	3610.57
994.56	3645.38
994.72	3581.90
994.88	3571.66
995.04	3590.09
995.20	3614.66
995.36	3407.82
995.52	3649.48
995.68	3600.33
995.84	3551.18
996.00	3729.35
996.16	3555.27
996.32	3514.31
996.48	3456.97
996.64	3602.38
996.80	3485.64
996.96	3510.22
997.12	3499.98
997.28	3375.05
997.44	3463.12
997.60	3440.59
997.76	3379.15
997.92	3424.20
998.08	3420.11
998.24	3395.53
998.40	3405.77
998.56	3434.44
998.72	3315.66
998.88	3354.57
999.04	3387.34
999.20	3387.34
999.36	3260.37
999.52	3426.25
999.68	3297.23
999.84	3377.10
1000.00	3270.61
1000.16	3305.42
1000.32	3274.70
1000.48	3409.87
1000.64	3289.04
1000.80	3217.36
1000.95	3229.65
1001.11	3207.12
1001.27	3219.41
1001.43	3289.04
1001.59	3170.26
1001.75	3266.51
1001.91	3239.89
1002.07	3186.64
1002.23	3168.21
1002.39	3147.73
1002.55	3209.17
1002.71	3098.58
1002.87	3098.58
1003.03	3028.95
1003.19	3067.86
1003.34	3209.17
1003.50	3139.54
1003.66	3198.93
1003.82	3325.90
1003.98	3209.17
1004.14	3149.78
1004.30	3149.78
1004.46	2990.03
1004.62	3061.71
1004.78	3071.95
1004.94	3028.95
1005.09	3071.95
1005.25	3004.37
1005.41	3098.58
1005.57	3114.96
1005.73	2979.79
1005.89	2969.55
1006.05	3074.00
1006.21	3061.71
1006.37	2895.83
1006.52	2914.26
1006.68	2850.77
1006.84	3063.76
1007.00	2944.98
1007.16	3041.23
1007.32	2918.36
1007.48	2877.40
1007.64	2971.60
1007.79	2973.65
1007.95	2873.30
1008.11	2969.55
1008.27	2879.44
1008.43	2877.40
1008.59	2846.68
1008.75	2811.86
1008.91	2873.30
1009.06	2865.11
1009.22	2887.64
1009.38	2992.08
1009.54	2787.29
1009.70	2772.95
1009.86	2908.12
1010.01	2924.50
1010.17	2783.19
1010.33	2846.68
1010.49	2777.05
1010.65	2895.83
1010.81	2680.79
1010.96	2787.29
1011.12	2750.42
1011.28	2715.61
1011.44	2846.68
1011.60	2711.51
1011.76	2707.41
1011.91	2770.90
1012.07	2701.27
1012.23	2746.33
1012.39	2723.80
1012.55	2754.52
1012.71	2674.65
1012.86	2684.89
1013.02	2688.98
1013.18	2617.30
1013.34	2680.79
1013.50	2721.75
1013.65	2770.90
1013.81	2617.30
1013.97	2617.30
1014.13	2576.34
1014.29	2656.22
1014.44	2633.69
1014.60	2631.64
1014.76	2609.11
1014.92	2584.54
1015.07	2543.58
1015.23	2557.91
1015.39	2574.30
1015.55	2572.25
1015.71	2637.78
1015.86	2551.77
1016.02	2500.57
1016.18	2480.09
1016.34	2658.26
1016.49	2519.00
1016.65	2656.22
1016.81	2496.47
1016.97	2459.61
1017.12	2564.06
1017.28	2502.62
1017.44	2486.23
1017.60	2392.03
1017.75	2570.20
1017.91	2443.23
1018.07	2465.75
1018.23	2469.85
1018.38	2441.18
1018.54	2494.43
1018.70	2457.56
1018.86	2408.41
1019.01	2365.40
1019.17	2445.27
1019.33	2490.33
1019.49	2500.57
1019.64	2475.99
1019.80	2412.51
1019.96	2408.41
1020.12	2398.17
1020.27	2289.63
1020.43	2420.70
1020.59	2404.32
1020.74	2398.17
1020.90	2455.51
1021.06	2322.40
1021.22	2387.93
1021.37	2406.36
1021.53	2342.88
1021.69	2377.69
1021.84	2273.25
1022.00	2344.92
1022.16	2250.72
1022.31	2346.97
1022.47	2322.40
1022.63	2435.03
1022.79	2230.24
1022.94	2232.29
1023.10	2351.07
1023.26	2248.67
1023.41	2375.64
1023.57	2250.72
1023.73	2217.95
1023.88	2291.68
1024.04	2228.19
1024.20	2287.58
1024.35	2267.10
1024.51	2355.16
1024.67	2252.77
1024.82	2303.96
1024.98	2164.70
1025.14	2238.43
1025.29	2244.57
1025.45	2285.53
1025.61	2154.46
1025.76	2168.80
1025.92	2183.13
1026.08	2213.85
1026.23	2277.34
1026.39	2197.47
1026.55	2168.80
1026.70	2209.76
1026.86	2123.74
1027.02	2254.81
1027.17	2252.77
1027.33	2269.15
1027.48	2179.04
1027.64	2172.89
1027.80	2185.18
1027.95	2148.32
1028.11	2131.94
1028.27	2181.09
1028.42	2203.61
1028.58	2097.12
1028.73	2150.37
1028.89	2056.16
1029.05	2150.37
1029.20	2138.08
>>>>>End Processed Spectral Data<<<<<
