SpectraSuite Data File
++++++++++++++++++++++++++++++++++++
Date: Fri Jun 02 14:48:00 CEST 2017
User: INFO_000
Dark Spectrum Present: No
Reference Spectrum Present: No
Number of Sampled Component Spectra: 1
Spectrometers: USB4H00879
Integration Time (usec): 80000 (USB4H00879)
Spectra Averaged: 1 (USB4H00879)
Boxcar Smoothing: 0 (USB4H00879)
Correct for Electrical Dark: No (USB4H00879)
Strobe/Lamp Enabled: No (USB4H00879)
Correct for Detector Non-linearity: No (USB4H00879)
Correct for Stray Light: No (USB4H00879)
Number of Pixels in Processed Spectrum: 3648
>>>>>Begin Processed Spectral Data<<<<<
345.13	1271.79
345.34	1271.79
345.56	1271.79
345.78	1286.12
345.99	1312.75
346.21	1695.72
346.42	1802.21
346.64	1619.94
346.86	1724.39
347.07	1714.15
347.29	1705.96
347.50	1597.42
347.72	1660.90
347.94	1714.15
348.15	1583.08
348.37	1626.09
348.59	1699.81
348.80	1681.38
349.02	1787.88
349.23	1859.56
349.45	1843.17
349.67	1925.09
349.88	1689.57
350.10	1894.37
350.31	1828.84
350.53	1742.82
350.75	1990.63
350.96	1820.64
351.18	1927.14
351.39	1796.07
351.61	1783.78
351.82	1933.28
352.04	1929.19
352.26	1798.12
352.47	1830.88
352.69	1998.82
352.90	1710.05
353.12	1875.94
353.34	1810.40
353.55	1890.28
353.77	1933.28
353.98	1945.57
354.20	1882.08
354.41	1880.04
354.63	1886.18
354.85	2039.78
355.06	1949.67
355.28	1779.68
355.49	1933.28
355.71	1857.51
355.92	1906.66
356.14	1961.95
356.35	1832.93
356.57	1871.84
356.79	1972.19
357.00	1830.88
357.22	1923.04
357.43	1904.61
357.65	1896.42
357.86	1908.71
358.08	1986.53
358.29	1937.38
358.51	2002.91
358.72	2013.15
358.94	2004.96
359.16	1957.86
359.37	1943.52
359.59	1927.14
359.80	2019.30
360.02	1855.46
360.23	1920.99
360.45	2015.20
360.66	1978.34
360.88	1916.90
361.09	1931.23
361.31	1961.95
361.52	1929.19
361.74	2027.49
361.95	2103.26
362.17	1890.28
362.38	2068.45
362.60	1964.00
362.81	2021.35
363.03	1947.62
363.24	1923.04
363.46	2080.74
363.67	2007.01
363.89	2013.15
364.10	1970.15
364.32	2009.06
364.53	2109.41
364.75	1933.28
364.96	2121.70
365.18	2107.36
365.39	1988.58
365.61	1949.67
365.82	2133.98
366.04	2004.96
366.25	2002.91
366.47	2007.01
366.68	2043.87
366.90	1982.43
367.11	2103.26
367.33	2101.22
367.54	2039.78
367.76	2068.45
367.97	2125.79
368.19	1994.72
368.40	2066.40
368.62	1990.63
368.83	2000.87
369.05	2041.82
369.26	1920.99
369.48	2033.63
369.69	1955.81
369.91	2093.02
370.12	2027.49
370.33	2162.66
370.55	1957.86
370.76	2084.83
370.98	2017.25
371.19	2031.58
371.41	2095.07
371.62	2068.45
371.84	2002.91
372.05	2195.42
372.27	2047.97
372.48	2078.69
372.69	2127.84
372.91	2174.94
373.12	2252.77
373.34	2084.83
373.55	2152.42
373.77	2226.14
373.98	2119.65
374.20	2099.17
374.41	2250.72
374.62	2191.33
374.84	2215.90
375.05	2269.15
375.27	2164.70
375.48	2238.43
375.70	2193.37
375.91	2232.29
376.12	2283.49
376.34	2197.47
376.55	2191.33
376.77	2174.94
376.98	2090.98
377.19	2158.56
377.41	2156.51
377.62	2232.29
377.84	2234.33
378.05	2271.20
378.27	2252.77
378.48	2318.30
378.69	2467.80
378.91	2328.54
379.12	2310.11
379.34	2303.96
379.55	2228.19
379.76	2316.25
379.98	2230.24
380.19	2279.39
380.41	2295.77
380.62	2308.06
380.83	2256.86
381.05	2244.57
381.26	2404.32
381.47	2224.09
381.69	2246.62
381.90	2459.61
382.12	2285.53
382.33	2269.15
382.54	2359.26
382.76	2346.97
382.97	2312.16
383.19	2277.34
383.40	2400.22
383.61	2293.72
383.83	2299.87
384.04	2353.12
384.25	2361.31
384.47	2441.18
384.68	2349.02
384.89	2318.30
385.11	2320.35
385.32	2371.55
385.54	2346.97
385.75	2424.80
385.96	2320.35
386.18	2371.55
386.39	2408.41
386.60	2467.80
386.82	2432.99
387.03	2482.14
387.24	2465.75
387.46	2494.43
387.67	2478.04
387.88	2566.10
388.10	2527.19
388.31	2455.51
388.52	2594.78
388.74	2521.05
388.95	2527.19
389.16	2584.54
389.38	2531.29
389.59	2574.30
389.80	2611.16
390.02	2617.30
390.23	2633.69
390.44	2594.78
390.66	2555.86
390.87	2627.54
391.08	2605.02
391.30	2752.47
391.51	2650.07
391.72	2795.48
391.94	2754.52
392.15	2674.65
392.36	2715.61
392.58	2570.20
392.79	2627.54
393.00	2674.65
393.22	2815.96
393.43	2772.95
393.64	2838.48
393.85	2762.71
394.07	2648.02
394.28	2719.70
394.49	2762.71
394.71	2770.90
394.92	2815.96
395.13	2713.56
395.35	2731.99
395.56	2758.61
395.77	2875.35
395.98	2875.35
396.20	2908.12
396.41	2830.29
396.62	2938.84
396.84	2842.58
397.05	2846.68
397.26	2936.79
397.47	3000.27
397.69	2867.16
397.90	3092.43
398.11	2953.17
398.32	2883.54
398.54	2953.17
398.75	2895.83
398.96	2932.69
399.18	3076.05
399.39	3022.80
399.60	3057.62
399.81	3033.04
400.03	2987.99
400.24	3311.57
400.45	2998.23
400.66	3215.31
400.88	3088.34
401.09	3278.80
401.30	3094.48
401.51	3233.74
401.73	3180.50
401.94	3200.98
402.15	3090.38
402.36	3203.02
402.58	3219.41
402.79	3198.93
403.00	3254.22
403.21	3270.61
403.43	3127.25
403.64	3262.41
403.85	3192.78
404.06	3411.92
404.27	3162.06
404.49	3243.98
404.70	3254.22
404.91	3375.05
405.12	3264.46
405.34	3321.81
405.55	3387.34
405.76	3256.27
405.97	3264.46
406.19	3456.97
406.40	3280.85
406.61	3323.85
406.82	3334.09
407.03	3219.41
407.25	3350.48
407.46	3418.06
407.67	3497.93
407.88	3426.25
408.09	3446.73
408.31	3370.96
408.52	3420.11
408.73	3444.68
408.94	3360.72
409.15	3450.83
409.37	3614.66
409.58	3516.36
409.79	3534.79
410.00	3612.62
410.21	3471.31
410.43	3502.03
410.64	3547.08
410.85	3631.05
411.06	3725.26
411.27	3762.12
411.48	3672.01
411.70	3510.22
411.91	3733.45
412.12	3819.46
412.33	3637.19
412.54	3657.67
412.76	3762.12
412.97	3745.73
413.18	3633.10
413.39	3751.88
413.60	3667.91
413.81	3708.87
414.03	3577.80
414.24	3725.26
414.45	3858.37
414.66	3692.49
414.87	3745.73
415.08	3755.97
415.30	3772.36
415.51	3917.76
415.72	3803.08
415.93	3735.50
416.14	3936.20
416.35	3905.48
416.56	3794.89
416.78	3878.85
416.99	3966.92
417.20	3813.32
417.41	3962.82
417.62	3966.92
417.83	3956.68
418.04	3874.76
418.26	3987.40
418.47	4040.64
418.68	4091.84
418.89	4044.74
419.10	4214.72
419.31	4026.31
419.52	4175.81
419.73	4114.37
419.95	4093.89
420.16	4052.93
420.37	4173.76
420.58	4165.57
420.79	3983.30
421.00	4134.85
421.21	4147.14
421.42	4048.83
421.63	4302.78
421.85	4216.77
422.06	4237.25
422.27	4294.59
422.48	4331.45
422.69	4396.99
422.90	4327.36
423.11	4245.44
423.32	4403.13
423.53	4577.21
423.75	4270.01
423.96	4638.65
424.17	4566.97
424.38	4501.44
424.59	4519.87
424.80	4716.47
425.01	4607.93
425.22	4540.35
425.43	4454.33
425.64	4775.86
425.85	4700.09
426.06	4628.41
426.28	4648.89
426.49	4732.86
426.70	4698.04
426.91	4669.37
427.12	4720.57
427.33	4739.00
427.54	4771.77
427.75	4825.01
427.96	4792.25
428.17	4913.08
428.38	4976.56
428.59	4794.29
428.80	4906.93
429.01	4976.56
429.23	4949.94
429.44	5115.83
429.65	4988.85
429.86	5121.97
430.07	5171.12
430.28	5064.63
430.49	5261.23
430.70	5265.33
430.91	5197.74
431.12	5013.43
431.33	5308.34
431.54	5113.78
431.75	5322.67
431.96	5343.15
432.17	5337.01
432.38	5380.01
432.59	5494.70
432.80	5339.05
433.01	5318.57
433.22	5394.35
433.43	5539.76
433.64	5322.67
433.85	5423.02
434.06	5443.50
434.27	5334.96
434.49	5496.75
434.70	5519.28
434.91	5752.74
435.12	5457.84
435.33	5621.67
435.54	5621.67
435.75	5343.15
435.96	5541.80
436.17	5588.91
436.38	5648.30
436.59	5674.92
436.80	5617.58
437.01	5861.29
437.22	5826.47
437.43	5904.29
437.64	5640.11
437.85	5920.68
438.06	5902.25
438.27	5746.60
438.48	5873.57
438.69	6045.60
438.90	5908.39
439.11	5824.42
439.32	6061.99
439.53	5887.91
439.74	5834.66
439.95	6027.17
440.16	5953.45
440.37	6064.04
440.57	6004.64
440.78	6213.54
440.99	6082.47
441.20	6047.65
441.41	5990.31
441.62	6061.99
441.83	5945.25
442.04	6197.15
442.25	6301.60
442.46	6121.38
442.67	6375.33
442.88	6772.63
443.09	6164.39
443.30	6320.03
443.51	6418.33
443.72	6565.79
443.93	6246.30
444.14	6662.04
444.35	6231.97
444.56	6440.86
444.77	6430.62
444.98	6526.88
445.19	6668.19
445.40	6453.15
445.61	6533.02
445.81	6473.63
446.02	6735.77
446.23	6610.84
446.44	6496.16
446.65	6713.24
446.86	6657.95
447.07	6590.36
447.28	6848.41
447.49	6801.30
447.70	6694.81
447.91	6866.84
448.12	6840.22
448.33	7051.16
448.54	6860.70
448.74	6832.02
448.95	6895.51
449.16	6807.45
449.37	7268.24
449.58	6954.90
449.79	7344.02
450.00	6926.23
450.21	7034.77
450.42	7094.16
450.63	7102.36
450.84	7237.52
451.05	7325.58
451.25	7131.03
451.46	7057.30
451.67	7305.10
451.88	7413.65
452.09	7413.65
452.30	7296.91
452.51	7348.11
452.72	7509.90
452.93	7706.51
453.13	7368.59
453.34	7380.88
453.55	7419.79
453.76	7514.00
453.97	7749.51
454.18	7575.44
454.39	7634.83
454.60	7741.32
454.81	7647.12
455.01	7810.95
455.22	7589.77
455.43	7915.40
455.64	8001.41
455.85	8087.43
456.06	8302.47
456.27	7915.40
456.48	7884.68
456.68	7939.97
456.89	8140.68
457.10	8337.28
457.31	8218.50
457.52	8062.85
457.73	8376.19
457.94	8548.22
458.14	8136.58
458.35	8712.06
458.56	8525.69
458.77	8374.14
458.98	8695.68
459.19	8439.68
459.39	8667.00
459.60	8777.59
459.81	8607.61
460.02	8892.28
460.23	8621.95
460.44	8976.25
460.65	8710.01
460.85	8798.07
461.06	8955.77
461.27	8710.01
461.48	9181.04
461.69	9283.44
461.89	8830.84
462.10	9054.07
462.31	8935.29
462.52	9056.12
462.73	9310.07
462.94	9414.51
463.14	9316.21
463.35	9287.54
463.56	9764.72
463.77	9744.24
463.98	9582.45
464.18	9723.76
464.39	9457.52
464.60	9961.32
464.81	9856.87
465.02	9881.45
465.23	10159.97
465.43	9951.08
465.64	10104.68
465.85	10018.66
466.06	10088.29
466.27	10395.49
466.47	10211.17
466.68	10190.69
466.89	10102.63
467.10	10422.11
467.30	10213.22
467.51	10475.36
467.72	10768.22
467.93	10284.90
468.14	10669.92
468.34	10811.23
468.55	10815.32
468.76	11001.69
468.97	10821.47
469.17	11171.67
469.38	11218.77
469.59	11376.47
469.80	10950.49
470.01	11300.69
470.21	11208.53
470.42	11528.02
470.63	11640.65
470.84	11323.22
471.04	11650.89
471.25	11661.13
471.46	11444.05
471.67	12128.07
471.87	11718.48
472.08	11857.74
472.29	12341.06
472.50	11702.09
472.70	12072.78
472.91	12066.63
473.12	12265.28
473.33	12308.29
473.53	12416.83
473.74	12474.18
473.95	12859.20
474.16	12676.93
474.36	12715.84
474.57	12775.23
474.78	13010.75
474.99	12777.28
475.19	12838.72
475.40	13262.65
475.61	13444.91
475.81	13522.74
476.02	13602.61
476.23	13512.50
476.44	13549.36
476.64	13770.54
476.85	14071.59
477.06	13807.41
477.27	14227.24
477.47	14188.33
477.68	14116.65
477.89	14423.84
478.09	14374.69
478.30	14376.74
478.51	14450.47
478.71	14563.11
478.92	14665.50
479.13	14780.19
479.34	14950.17
479.54	14937.88
479.75	14808.86
479.96	15204.12
480.16	15316.76
480.37	15286.04
480.58	15240.98
480.78	15650.58
480.99	15716.11
481.20	15628.05
481.41	15808.27
481.61	16099.08
481.82	16056.08
482.03	15804.17
482.23	16088.84
482.44	16408.33
482.65	16365.32
482.85	16844.54
483.06	16543.49
483.27	16932.61
483.47	16705.28
483.68	16699.14
483.89	16944.89
484.09	17149.69
484.30	17170.17
484.51	17297.14
484.71	17243.90
484.92	17315.58
485.13	17630.96
485.33	17653.49
485.54	17590.00
485.75	17927.92
485.95	18050.80
486.16	18200.30
486.37	18054.89
486.57	17958.64
486.78	18296.55
486.98	18308.84
487.19	18464.49
487.40	18335.46
487.60	18659.04
487.81	18812.64
488.02	18808.54
488.22	18757.35
488.43	18857.70
488.64	18747.11
488.84	19193.56
489.05	19453.66
489.25	19205.85
489.46	19513.05
489.67	19508.95
489.87	19762.90
490.08	19785.43
490.29	19570.39
490.49	20008.65
490.70	20078.29
490.90	20307.66
491.11	20197.07
491.32	20221.64
491.52	20211.40
491.73	20338.38
491.94	20440.78
492.14	20616.90
492.35	20657.86
492.55	20788.93
492.76	21055.17
492.97	21110.46
493.17	21317.31
493.38	21204.67
493.58	21479.10
493.79	21292.73
494.00	21661.37
494.20	21296.83
494.41	21692.08
494.61	21829.30
494.82	21601.97
495.02	21307.07
495.23	21886.64
495.44	22173.36
495.64	22189.74
495.85	22050.48
496.05	22120.11
496.26	22402.73
496.47	22765.22
496.67	22513.32
496.88	22625.96
497.08	22705.83
497.29	22783.65
497.49	22793.89
497.70	23035.55
497.91	23017.12
498.11	23064.22
498.32	23199.39
498.52	23146.14
498.73	23516.83
498.93	23252.64
499.14	23473.82
499.34	23406.23
499.55	23781.01
499.76	23541.40
499.96	23561.88
500.17	23703.19
500.37	24153.74
500.58	23776.92
500.78	23891.60
500.99	24145.55
501.19	24247.95
501.40	24206.99
501.60	24352.40
501.81	24528.52
502.02	24530.57
502.22	24333.96
502.43	24843.91
502.63	25048.71
502.84	24864.39
503.04	24602.25
503.25	24622.73
503.45	25054.85
503.66	25226.88
503.86	24845.96
504.07	25482.88
504.27	25214.59
504.48	25644.66
504.68	25489.02
504.89	25605.75
505.09	25652.86
505.30	25532.03
505.50	25642.62
505.71	25871.99
505.91	26082.93
506.12	26070.64
506.32	26035.83
506.53	25908.85
506.73	26146.42
506.94	26480.24
507.14	26246.77
507.35	26248.82
507.55	26406.51
507.76	26785.38
507.96	26242.67
508.17	26678.89
508.37	26377.84
508.58	26637.93
508.78	27082.34
508.99	26730.09
509.19	26842.73
509.40	27008.61
509.60	27086.43
509.81	27244.13
510.01	27147.87
510.22	27170.40
510.42	27213.41
510.63	27215.46
510.83	27237.98
511.04	27389.53
511.24	27606.62
511.44	27344.48
511.65	27586.14
511.85	27446.88
512.06	27414.11
512.26	27799.13
512.47	27780.70
512.67	27983.44
512.88	27690.59
513.08	27864.66
513.29	28104.28
513.49	27942.49
513.69	27987.54
513.90	28061.27
514.10	28112.47
514.31	28149.33
514.51	28542.54
514.72	28368.46
514.92	28341.84
515.13	28456.53
515.33	28356.18
515.53	28343.89
515.74	28614.22
515.94	28634.70
516.15	29072.96
516.35	28536.40
516.56	29212.23
516.76	28759.63
516.96	28970.57
517.17	29187.65
517.37	28839.50
517.58	28835.40
517.78	29290.05
517.99	29154.88
518.19	29433.41
518.39	29478.46
518.60	29638.20
518.80	29122.12
519.01	29517.37
519.21	29814.33
519.41	29875.77
519.62	29558.33
519.82	29976.12
520.03	29951.54
520.23	29859.38
520.43	30191.16
520.64	30387.76
520.84	30469.68
521.05	30260.79
521.25	30342.70
521.45	30348.85
521.66	30803.50
521.86	30625.32
522.07	30610.99
522.27	30488.11
522.47	30776.87
522.68	31102.50
522.88	30635.56
523.08	31172.13
523.29	31272.48
523.49	31417.89
523.70	31360.55
523.90	31452.70
524.10	31401.50
524.31	31692.32
524.51	31575.58
524.71	31929.88
524.92	31837.72
525.12	31905.31
525.33	31931.93
525.53	31948.31
525.73	32196.12
525.94	32030.23
526.14	32515.60
526.34	32128.53
526.55	32550.42
526.75	32374.29
526.95	32675.34
527.16	32661.01
527.36	32581.13
527.56	33000.97
527.77	33173.00
527.97	32896.52
528.17	32960.01
528.38	33273.35
528.58	33136.13
528.78	33414.66
528.99	33150.47
529.19	33529.34
529.39	33449.47
529.60	33936.89
529.80	33596.93
530.00	33320.45
530.21	34436.59
530.41	34174.45
530.61	34360.82
530.82	33922.55
531.02	34057.72
531.22	34649.58
531.43	34258.42
531.63	34661.87
531.83	34620.91
532.04	35038.70
532.24	34573.81
532.44	35220.97
532.64	35282.41
532.85	35481.06
533.05	35395.04
533.25	35347.94
533.46	35339.75
533.66	35874.27
533.86	35749.34
534.07	35993.05
534.27	35304.93
534.47	36015.58
534.67	36181.46
534.88	36105.69
535.08	36142.55
535.28	36580.82
535.49	36449.75
535.69	36363.73
535.89	36791.76
536.09	36732.37
536.30	36699.60
536.50	36836.81
536.70	37057.99
536.91	37131.72
537.11	37160.39
537.31	37109.19
537.51	37316.04
537.72	37574.08
537.92	37617.09
538.12	37705.15
538.32	37752.26
538.53	37983.68
538.73	37928.38
538.93	37819.84
539.13	37987.77
539.34	37862.85
539.54	37400.01
539.74	38548.92
539.94	38139.32
540.15	38030.78
540.35	39093.68
540.55	38475.19
540.75	38753.71
540.96	38759.86
541.16	38794.67
541.36	38880.69
541.56	39095.72
541.77	39388.58
541.97	39138.73
542.17	39595.43
542.37	39118.25
542.58	39398.82
542.78	39081.39
542.98	39148.97
543.18	39646.63
543.38	40134.04
543.59	39810.46
543.79	39822.75
543.99	39847.33
544.19	39949.73
544.40	39708.07
544.60	39781.79
544.80	39941.53
545.00	40179.10
545.20	40547.73
545.41	40390.04
545.61	40107.42
545.81	40803.73
546.01	40811.92
546.21	40928.66
546.42	40308.12
546.62	40383.90
546.82	40420.76
547.02	40732.05
547.22	40609.17
547.43	40859.02
547.63	40578.45
547.83	41432.46
548.03	41074.06
548.23	41086.35
548.44	41196.94
548.64	41438.60
548.84	41407.88
549.04	41457.03
549.24	41608.58
549.45	41735.56
549.65	41409.93
549.85	41418.12
550.05	41684.36
550.25	41344.39
550.45	42308.99
550.66	42184.06
550.86	41686.40
551.06	42335.61
551.26	41807.23
551.46	42120.57
551.66	42120.57
551.87	41985.41
552.07	42798.45
552.27	42132.86
552.47	42132.86
552.67	42487.16
552.87	42513.78
553.07	42632.57
553.28	42876.27
553.48	42677.62
553.68	42339.71
553.88	43285.87
554.08	42962.29
554.28	42202.49
554.48	42870.13
554.69	42999.15
554.89	42464.63
555.09	42909.04
555.29	42767.73
555.49	43046.26
555.69	42851.70
555.89	43210.09
556.10	43726.18
556.30	43033.97
556.50	43228.52
556.70	42937.71
556.90	43554.15
557.10	43822.44
557.30	43769.19
557.50	43459.94
557.70	43828.58
557.91	43697.51
558.11	43736.42
558.31	43656.55
558.51	43435.37
558.71	43742.56
558.91	43890.02
559.11	44025.18
559.31	44275.04
559.51	43853.15
559.72	43992.42
559.92	44074.34
560.12	43820.39
560.32	44354.91
560.52	44057.95
560.72	44563.80
560.92	44619.10
561.12	44514.65
561.32	44512.60
561.52	44146.01
561.72	44600.66
561.93	44148.06
562.13	44447.07
562.33	44373.34
562.53	45208.91
562.73	44533.08
562.93	44520.79
563.13	44680.53
563.33	44412.25
563.53	45094.22
563.73	44424.54
563.93	44965.20
564.13	45165.90
564.33	45071.70
564.53	44752.21
564.74	45276.49
564.94	44879.19
565.14	45086.03
565.34	45399.37
565.54	45360.46
565.74	45032.78
565.94	45499.72
566.14	45143.38
566.34	45292.88
566.54	45475.15
566.74	45073.74
566.94	45479.24
567.14	45479.24
567.34	45417.80
567.54	45378.89
567.74	45741.38
567.94	45497.67
568.14	45516.11
568.34	45952.32
568.54	45858.12
568.74	46142.78
568.94	45675.85
569.14	46013.76
569.34	46427.45
569.54	46232.89
569.75	45987.14
569.95	45913.41
570.15	46310.72
570.35	46519.61
570.55	46067.01
570.75	46224.70
570.95	46224.70
571.15	46683.45
571.35	46196.03
571.55	46437.69
571.75	46576.95
571.95	46568.76
572.15	46179.65
572.35	46378.30
572.55	46402.88
572.75	46585.15
572.95	46736.69
573.15	46785.85
573.35	46585.15
573.55	46613.82
573.75	46495.03
573.95	47060.27
574.15	46716.22
574.35	46937.40
574.55	46826.81
574.75	46810.42
574.95	46961.97
575.15	46890.29
575.34	46863.67
575.54	47508.78
575.74	47578.41
575.94	47383.85
576.14	47301.93
576.34	47205.68
576.54	47715.62
576.74	47584.55
576.94	47371.57
577.14	47654.18
577.34	47666.47
577.54	47619.37
577.74	48053.54
577.94	48133.41
578.14	48059.68
578.34	47969.57
578.54	47740.20
578.74	48074.02
578.94	48074.02
579.14	48125.22
579.34	47865.13
579.54	48373.02
579.74	48405.79
579.94	48221.47
580.13	48502.04
580.33	48512.28
580.53	49057.04
580.73	48344.35
580.93	48506.14
581.13	48502.04
581.33	49007.89
581.53	48971.03
581.73	48975.12
581.93	48977.17
582.13	48938.26
582.33	48848.15
582.53	48821.53
582.73	49057.04
582.92	49288.46
583.12	49253.65
583.32	49118.48
583.52	48919.83
583.72	49814.79
583.92	49278.22
584.12	49261.84
584.32	49841.42
584.52	50111.75
584.72	49644.81
584.92	49448.21
585.11	50310.40
585.31	49620.23
585.51	49460.49
585.71	49892.61
585.91	50296.06
586.11	49909.00
586.31	50019.59
586.51	49718.54
586.71	50117.89
586.91	50509.05
587.10	50664.70
587.30	50271.49
587.50	50345.22
587.70	50457.85
587.90	50607.36
588.10	50511.10
588.30	50595.07
588.50	50791.67
588.69	50795.77
588.89	50539.77
589.09	51027.19
589.29	50871.54
589.49	51420.40
589.69	50486.53
589.89	51289.33
590.08	51045.62
590.28	50705.66
590.48	51418.35
590.68	50627.84
590.88	50978.04
591.08	51266.80
591.28	51078.39
591.47	51557.61
591.67	51107.06
591.87	51430.64
592.07	51569.90
592.27	51442.93
592.47	51805.42
592.67	51516.65
592.86	51242.23
593.06	51776.75
593.26	51864.81
593.46	51404.02
593.66	51584.24
593.86	51987.69
594.05	51633.39
594.25	52157.67
594.45	51801.32
594.65	51913.96
594.85	51553.52
595.05	52401.38
595.24	52532.45
595.44	52192.48
595.64	52022.50
595.84	51916.01
596.04	52370.66
596.23	51959.02
596.43	52438.24
596.63	52518.11
596.83	52772.06
597.03	53054.68
597.22	53134.55
597.42	52968.66
597.62	52966.62
597.82	52841.69
598.02	53093.59
598.21	53122.26
598.41	52688.09
598.61	52784.35
598.81	52798.68
599.01	53069.01
599.20	53114.07
599.40	53157.08
599.60	53165.27
599.80	53163.22
600.00	52952.28
600.19	53507.28
600.39	53198.04
600.59	53812.43
600.79	53511.38
600.98	53660.88
601.18	53920.97
601.38	53374.16
601.58	53923.02
601.78	53615.82
601.97	53951.69
602.17	54402.24
602.37	54154.44
602.57	54219.97
602.76	54295.75
602.96	53867.72
603.16	55039.16
603.36	54172.87
603.55	54691.01
603.75	53912.78
603.95	54701.25
604.15	54748.35
604.34	54727.87
604.54	54936.76
604.74	54928.57
604.94	54658.24
605.13	55022.78
605.33	54903.99
605.53	54893.75
605.73	55065.78
605.92	54600.89
606.12	54879.42
606.32	55250.10
606.52	55284.92
606.71	55358.64
606.91	55119.03
607.11	54631.61
607.30	55610.54
607.50	55346.36
607.70	55551.15
607.90	55129.27
608.09	55469.23
608.29	55393.46
608.49	55458.99
608.68	55401.65
608.88	55690.41
609.08	55360.69
609.28	55755.95
609.47	55340.21
609.67	55817.39
609.87	56063.14
610.06	55768.24
610.26	55858.35
610.46	55770.28
610.66	55909.55
610.85	55858.35
611.05	55121.08
611.25	56106.15
611.44	55780.52
611.64	56016.04
611.84	55561.39
612.03	55698.61
612.23	56188.07
612.43	56202.41
612.62	55989.42
612.82	56370.34
613.02	56360.10
613.21	56288.42
613.41	55878.83
613.61	56648.86
613.80	56036.52
614.00	56116.39
614.20	56011.95
614.39	56302.76
614.59	56706.21
614.79	56114.34
614.98	56155.30
615.18	56145.06
615.38	56364.20
615.57	55819.44
615.77	56110.25
615.97	56202.41
616.16	55999.66
616.36	55977.13
616.56	56470.69
616.75	56622.24
616.95	55786.67
617.15	56212.65
617.34	56302.76
617.54	56331.43
617.74	56796.32
617.93	56458.40
618.13	56124.58
618.32	56329.38
618.52	56239.27
618.72	56534.18
618.91	56540.32
619.11	55942.31
619.31	56485.03
619.50	56296.61
619.70	56054.95
619.90	56399.01
620.09	56575.14
620.29	56112.30
620.48	56282.28
620.68	56392.87
620.88	56132.78
621.07	56464.55
621.27	56267.94
621.46	56009.90
621.66	56149.16
621.86	56069.29
622.05	55887.02
622.25	56341.67
622.44	56075.43
622.64	56124.58
622.84	56388.77
623.03	56513.70
623.23	56308.90
623.42	56216.74
623.62	56257.70
623.82	56194.21
624.01	56665.25
624.21	56421.54
624.40	56382.63
624.60	56179.88
624.80	56263.85
624.99	56290.47
625.19	55999.66
625.38	56585.38
625.58	56337.57
625.77	56093.86
625.97	56417.44
626.17	55907.50
626.36	56446.11
626.56	56388.77
626.75	56048.81
626.95	56341.67
627.14	55893.16
627.34	56515.75
627.54	56306.85
627.73	56548.51
627.93	56020.14
628.12	56362.15
628.32	56249.51
628.51	56065.19
628.71	56388.77
628.90	56628.38
629.10	56155.30
629.30	56216.74
629.49	56581.28
629.69	56327.33
629.88	56288.42
630.08	56401.06
630.27	56624.29
630.47	55948.46
630.66	56620.19
630.86	56534.18
631.05	56237.22
631.25	57005.21
631.44	56612.00
631.64	56507.55
631.84	56632.48
632.03	57128.09
632.23	56349.86
632.42	56976.54
632.62	56179.88
632.81	56661.15
633.01	56145.06
633.20	56726.69
633.40	56501.41
633.59	56597.66
633.79	56310.95
633.98	56546.47
634.18	56753.31
634.37	56644.77
634.57	56704.16
634.76	56595.62
634.96	56644.77
635.15	56892.57
635.35	56284.33
635.54	56577.18
635.74	56992.92
635.93	56016.04
636.13	57123.99
636.32	57263.25
636.52	56640.67
636.71	56808.61
636.91	56734.88
637.10	57027.74
637.30	56392.87
637.49	57238.68
637.69	56829.08
637.88	57220.25
638.08	56620.19
638.27	57334.93
638.46	56878.24
638.66	56562.85
638.85	56853.66
639.05	56874.14
639.24	57144.47
639.44	56775.84
639.63	56978.59
639.83	56751.26
640.02	57322.65
640.22	57007.26
640.41	57156.76
640.61	56788.13
640.80	57167.00
640.99	57324.69
641.19	57767.05
641.38	56816.80
641.58	56868.00
641.77	56730.78
641.97	56597.66
642.16	57238.68
642.36	57285.78
642.55	57308.31
642.74	56937.63
642.94	57644.18
643.13	56890.52
643.33	57156.76
643.52	57408.66
643.72	57697.42
643.91	56947.87
644.10	57271.45
644.30	57701.52
644.49	57259.16
644.69	57515.15
644.88	57357.46
645.08	57267.35
645.27	57296.02
645.46	57193.62
645.66	57234.58
645.85	57279.64
646.05	57869.45
646.24	57750.67
646.43	57586.83
646.63	57783.44
646.82	57738.38
647.02	57496.72
647.21	57574.55
647.40	57656.46
647.60	57799.82
647.79	57795.73
647.99	57767.05
648.18	57298.07
648.37	58109.07
648.57	57726.10
648.76	57873.55
648.96	57392.28
649.15	58131.59
649.34	58403.97
649.54	57775.25
649.73	57742.48
649.92	58287.24
650.12	57695.38
650.31	58047.63
650.51	57707.66
650.70	58137.74
650.89	58244.23
651.09	58305.67
651.28	57754.77
651.47	58092.68
651.67	58489.99
651.86	58111.11
652.06	58027.15
652.25	58328.20
652.44	57990.28
652.64	57894.03
652.83	57982.09
653.02	57545.87
653.22	58180.74
653.41	58012.81
653.60	57650.32
653.80	57934.99
653.99	57734.29
654.18	57873.55
654.38	57926.80
654.57	58107.02
654.76	58332.29
654.96	58021.00
655.15	57709.71
655.34	58195.08
655.54	57726.10
655.73	58221.70
655.92	58360.97
656.12	57971.85
656.31	58279.05
656.50	58213.51
656.70	58231.94
656.89	58279.05
657.08	58381.45
657.28	58049.67
657.47	58082.44
657.66	58555.52
657.86	58344.58
658.05	58053.77
658.24	58227.85
658.43	58152.07
658.63	58016.91
658.82	58094.73
659.01	58440.84
659.21	58465.41
659.40	58446.98
659.59	58508.42
659.79	58408.07
659.98	58397.83
660.17	58657.92
660.36	58500.23
660.56	58446.98
660.75	58610.82
660.94	58463.36
661.14	58365.06
661.33	58164.36
661.52	58184.84
661.71	58807.42
661.91	57891.98
662.10	58186.89
662.29	58594.43
662.49	58365.06
662.68	58350.73
662.87	58627.20
663.06	58479.75
663.26	58178.70
663.45	58875.01
663.64	58430.60
663.83	58780.80
664.03	58688.64
664.22	58981.50
664.41	58698.88
664.60	58348.68
664.80	58514.56
664.99	57926.80
665.18	58342.53
665.37	58408.07
665.57	58610.82
665.76	58266.76
665.95	58573.95
666.14	58414.21
666.34	58489.99
666.53	58500.23
666.72	58246.28
666.91	58463.36
667.11	58463.36
667.30	58662.02
667.49	58270.85
667.68	58395.78
667.87	58209.42
668.07	58555.52
668.26	58483.84
668.45	58334.34
668.64	57982.09
668.84	59014.27
669.03	58541.19
669.22	58782.85
669.41	58795.13
669.60	58680.45
669.80	58002.57
669.99	58471.56
670.18	58625.15
670.37	58594.43
670.57	58922.11
670.76	58455.17
670.95	58713.22
671.14	58373.25
671.33	58137.74
671.53	58662.02
671.72	58420.36
671.91	57990.28
672.10	58115.21
672.29	58406.02
672.48	57967.76
672.68	58446.98
672.87	58317.96
673.06	58238.09
673.25	58516.61
673.44	58303.62
673.64	58573.95
673.83	58281.09
674.02	58004.62
674.21	58074.25
674.40	58684.54
674.59	57957.52
674.79	57992.33
674.98	58197.13
675.17	58336.39
675.36	58203.27
675.55	58524.80
675.74	58195.08
675.94	57883.79
676.13	58264.71
676.32	58729.60
676.51	58565.76
676.70	58418.31
676.89	58610.82
677.08	58811.52
677.28	58293.38
677.47	58696.83
677.66	58729.60
677.85	58363.01
678.04	58422.40
678.23	58576.00
678.42	58438.79
678.62	58205.32
678.81	58102.92
679.00	58176.65
679.19	58612.87
679.38	58029.19
679.57	57896.08
679.76	58160.26
679.96	58827.90
680.15	58199.18
680.34	57699.47
680.53	58168.46
680.72	58381.45
680.91	58266.76
681.10	58225.80
681.29	58408.07
681.48	58006.67
681.68	57625.74
681.87	57883.79
682.06	57566.35
682.25	57795.73
682.44	57930.89
682.63	58176.65
682.82	57726.10
683.01	57722.00
683.20	57691.28
683.39	58481.80
683.59	57701.52
683.78	57754.77
683.97	57609.36
684.16	57805.97
684.35	57887.88
684.54	57830.54
684.73	57752.72
684.92	57160.86
685.11	57638.03
685.30	57791.63
685.49	57939.08
685.69	57601.17
685.88	57402.52
686.07	57713.81
686.26	57263.25
686.45	57431.19
686.64	57638.03
686.83	57396.37
687.02	57240.73
687.21	57740.43
687.40	57459.86
687.59	57136.28
687.78	57267.35
687.97	57556.11
688.16	57511.06
688.35	57353.36
688.54	57353.36
688.74	57003.16
688.93	57228.44
689.12	57169.05
689.31	57115.80
689.50	57492.63
689.69	57431.19
689.88	56534.18
690.07	56859.80
690.26	57087.13
690.45	57140.38
690.64	56632.48
690.83	57099.42
691.02	56808.61
691.21	57033.88
691.40	57164.95
691.59	57232.53
691.78	57042.07
691.97	57392.28
692.16	56919.20
692.35	57312.41
692.54	57109.66
692.73	56794.27
692.92	56851.61
693.11	56865.95
693.30	57040.03
693.49	56788.13
693.68	56896.67
693.87	56530.08
694.06	56603.81
694.25	56868.00
694.44	56755.36
694.63	56865.95
694.82	56790.17
695.01	56255.65
695.20	56761.50
695.39	55862.44
695.58	56394.92
695.77	56374.44
695.96	56165.54
696.15	56028.33
696.34	56093.86
696.53	56313.00
696.72	56308.90
696.91	56040.62
697.10	56824.99
697.29	55839.92
697.48	56362.15
697.67	55907.50
697.86	56173.73
698.05	55940.27
698.24	55889.07
698.43	55284.92
698.62	56026.28
698.81	55667.89
699.00	56202.41
699.19	55659.69
699.38	55966.89
699.57	56042.66
699.76	56364.20
699.95	55755.95
700.14	55717.04
700.32	55977.13
700.51	55903.40
700.70	56091.82
700.89	55514.29
701.08	55960.75
701.27	55571.63
701.46	55659.69
701.65	54971.58
701.84	55440.56
702.03	55497.91
702.22	55067.83
702.41	55383.22
702.60	55504.05
702.79	55254.20
702.98	55082.17
703.17	55669.93
703.35	54977.72
703.54	54961.34
703.73	55549.10
703.92	55321.78
704.11	55274.68
704.30	55116.98
704.49	55219.38
704.68	54758.59
704.87	55170.23
705.06	55018.68
705.25	54566.08
705.43	54795.45
705.62	55375.03
705.81	55180.47
706.00	54901.95
706.19	54797.50
706.38	55121.08
706.57	55000.25
706.76	54725.82
706.95	55231.67
707.14	54916.28
707.32	54312.13
707.51	54539.46
707.70	54764.73
707.89	54353.09
708.08	54240.45
708.27	54596.80
708.46	55055.54
708.65	54301.89
708.84	54789.31
709.02	54953.15
709.21	54521.02
709.40	54359.23
709.59	54230.21
709.78	54373.57
709.97	54666.43
710.16	54154.44
710.34	54013.13
710.53	54154.44
710.72	53970.12
710.91	54252.74
711.10	54435.01
711.29	53861.58
711.48	54170.82
711.66	53927.11
711.85	53834.95
712.04	53898.44
712.23	53834.95
712.42	53552.33
712.61	53880.01
712.80	53843.15
712.98	53564.62
713.17	53794.00
713.36	53476.56
713.55	53384.40
713.74	53949.64
713.93	53673.16
714.11	53544.14
714.30	53560.53
714.49	53521.62
714.68	53069.01
714.87	53810.38
715.06	53619.92
715.24	53179.60
715.43	53357.78
715.62	53071.06
715.81	53124.31
716.00	53249.24
716.18	52958.42
716.37	52835.55
716.56	53101.78
716.75	53224.66
716.94	52937.94
717.12	52765.91
717.31	53146.84
717.50	53114.07
717.69	52622.56
717.88	52724.96
718.06	52823.26
718.25	53009.62
718.44	52788.44
718.63	52655.32
718.82	52354.27
719.00	52786.39
719.19	52307.17
719.38	52471.01
719.57	52276.45
719.76	51780.84
719.94	52040.93
720.13	51907.82
720.32	52131.04
720.51	51827.95
720.69	52428.00
720.88	52022.50
721.07	51934.44
721.26	51711.21
721.44	51498.22
721.63	51805.42
721.82	51293.43
722.01	51436.78
722.20	51674.35
722.38	51074.29
722.57	50957.56
722.76	51291.38
722.95	51029.24
723.13	51008.76
723.32	51223.79
723.51	50695.42
723.70	50754.81
723.88	50593.02
724.07	50545.92
724.26	50914.55
724.44	50642.17
724.63	50967.80
724.82	50760.95
725.01	50550.01
725.19	50744.57
725.38	49894.66
725.57	50148.61
725.76	50410.75
725.94	50162.95
726.13	50226.43
726.32	50527.48
726.51	50304.26
726.69	50636.03
726.88	51053.81
727.07	50162.95
727.25	50404.61
727.44	50349.31
727.63	50437.37
727.82	50455.81
728.00	50277.63
728.19	50216.19
728.38	50433.28
728.56	50183.43
728.75	50631.93
728.94	50273.54
729.12	50361.60
729.31	49898.76
729.50	50158.85
729.69	50482.43
729.87	50058.50
730.06	50074.88
730.25	49763.59
730.43	50676.99
730.62	50048.26
730.81	50433.28
730.99	49954.05
731.18	49554.70
731.37	50461.95
731.55	50382.08
731.74	50197.76
731.93	50255.11
732.11	50107.65
732.30	50314.50
732.49	49681.67
732.67	50382.08
732.86	49890.57
733.05	50169.09
733.23	49452.30
733.42	49765.64
733.61	49644.81
733.79	49970.44
733.98	49792.26
734.17	50003.20
734.35	49845.51
734.54	49612.04
734.73	50246.91
734.91	49460.49
735.10	49689.87
735.29	49640.71
735.47	49141.01
735.66	49378.57
735.84	49499.40
736.03	49407.25
736.22	49513.74
736.40	49038.61
736.59	49603.85
736.78	49566.99
736.96	49423.63
737.15	49476.88
737.33	49313.04
737.52	49194.26
737.71	49233.17
737.89	49331.47
738.08	49290.51
738.27	49085.72
738.45	49538.32
738.64	49509.64
738.82	49118.48
739.01	49263.89
739.20	49104.15
739.38	48778.52
739.57	48790.81
739.75	49431.82
739.94	49130.77
740.13	49171.73
740.31	49167.63
740.50	48811.29
740.68	49427.73
740.87	49300.75
741.06	48913.69
741.24	48821.53
741.43	48489.76
741.61	49200.40
741.80	48504.09
741.99	48463.13
742.17	48366.88
742.36	48731.42
742.54	48792.86
742.73	48563.48
742.91	48913.69
743.10	48338.21
743.29	48633.11
743.47	48743.70
743.66	48436.51
743.84	48842.01
744.03	48565.53
744.21	48147.75
744.40	48760.09
744.59	48266.53
744.77	47858.98
744.96	47840.55
745.14	48090.40
745.33	48504.09
745.51	48160.03
745.70	48213.28
745.88	48090.40
746.07	48280.86
746.26	47734.06
746.44	47596.84
746.63	47807.78
746.81	48264.48
747.00	47942.95
747.18	47990.05
747.37	48170.27
747.55	47713.58
747.74	47983.91
747.92	47824.17
748.11	47754.54
748.29	48006.44
748.48	47478.06
748.66	47676.71
748.85	47484.20
749.03	47600.94
749.22	47672.62
749.41	47179.06
749.59	47682.86
749.78	47582.51
749.96	47244.59
750.15	47207.73
750.33	47482.16
750.52	47314.22
750.70	47289.65
750.89	47430.96
751.07	46843.19
751.26	47303.98
751.44	47017.27
751.63	47027.51
751.81	46771.51
752.00	46810.42
752.18	47215.92
752.37	46986.55
752.55	46740.79
752.74	47000.88
752.92	46460.22
753.10	46609.72
753.29	46890.29
753.47	46660.92
753.66	46423.36
753.84	47054.13
754.03	46619.96
754.21	46525.75
754.40	46748.98
754.58	46671.16
754.77	46660.92
754.95	46112.06
755.14	46216.51
755.32	46097.73
755.51	46087.49
755.69	46021.95
755.88	46409.02
756.06	46593.34
756.24	46732.60
756.43	46357.82
756.61	46230.85
756.80	46040.39
756.98	45469.00
757.17	45843.78
757.35	46267.71
757.54	45798.73
757.72	45649.22
757.90	45909.32
758.09	45540.68
758.27	45600.07
758.46	45186.38
758.64	45688.13
758.83	45759.81
759.01	45552.97
759.19	45423.95
759.38	45620.55
759.56	45669.70
759.75	45208.91
759.93	45288.78
760.12	45458.76
760.30	45577.54
760.48	45356.36
760.67	45391.18
760.85	45489.48
761.04	45331.79
761.22	45544.78
761.40	45434.19
761.59	45028.69
761.77	44799.32
761.96	45040.98
762.14	45002.07
762.32	44866.90
762.51	44840.28
762.69	44875.09
762.88	44608.86
763.06	45167.95
763.24	45094.22
763.43	45059.41
763.61	44690.77
763.80	44569.94
763.98	44541.27
764.16	44311.90
764.35	44379.48
764.53	43758.95
764.72	44479.83
764.90	43892.07
765.08	44617.05
765.27	44166.49
765.45	43916.64
765.63	43468.14
765.82	43933.03
766.00	43791.72
766.18	43894.11
766.37	44279.13
766.55	43894.11
766.74	43756.90
766.92	43701.61
767.10	43541.86
767.29	43674.98
767.47	43017.58
767.65	43642.21
767.84	43048.30
768.02	44029.28
768.20	43378.03
768.39	43601.25
768.57	43668.84
768.75	43468.14
768.94	43509.10
769.12	43341.16
769.30	42958.19
769.49	43214.19
769.67	43070.83
769.85	42732.92
770.04	42962.29
770.22	42734.96
770.40	42640.76
770.59	42481.02
770.77	43036.02
770.95	42988.91
771.14	42599.80
771.32	42696.05
771.50	42153.34
771.69	42282.36
771.87	42863.99
772.05	42481.02
772.24	42057.09
772.42	42243.45
772.60	42001.79
772.78	42354.04
772.97	42446.20
773.15	42802.55
773.33	42259.84
773.52	41989.50
773.70	42274.17
773.88	42368.38
774.07	42139.00
774.25	42503.54
774.43	42427.77
774.61	42261.88
774.80	42231.16
774.98	42087.81
775.16	42343.80
775.34	42290.55
775.53	41743.75
775.71	42630.52
775.89	41893.25
776.08	42190.20
776.26	42313.08
776.44	42167.68
776.62	42079.61
776.81	42210.68
776.99	42466.68
777.17	41969.02
777.35	42442.10
777.54	42763.64
777.72	42208.64
777.90	42456.44
778.08	42575.22
778.27	42308.99
778.45	42573.17
778.63	42849.65
778.81	42263.93
779.00	42882.42
779.18	43029.87
779.36	43070.83
779.54	42452.34
779.73	42218.88
779.91	42732.92
780.09	42517.88
780.27	43005.30
780.46	42853.75
780.64	43341.16
780.82	42689.91
781.00	42509.69
781.19	43083.12
781.37	43111.79
781.55	43175.28
781.73	43390.31
781.91	42913.14
782.10	42984.82
782.28	43146.61
782.46	42968.43
782.64	43672.93
782.82	42849.65
783.01	43328.87
783.19	43353.45
783.37	43320.68
783.55	43281.77
783.74	43500.90
783.92	42886.51
784.10	43396.46
784.28	43238.76
784.46	43402.60
784.64	42962.29
784.83	43167.09
785.01	43668.84
785.19	43033.97
785.37	43457.90
785.55	43249.00
785.74	42610.04
785.92	42974.58
786.10	42771.83
786.28	42816.88
786.46	42714.48
786.64	42552.69
786.83	42794.36
787.01	43101.55
787.19	42673.52
787.37	42868.08
787.55	42825.07
787.74	42583.41
787.92	42874.23
788.10	42048.89
788.28	42251.64
788.46	42759.54
788.64	42161.53
788.82	42358.14
789.01	42988.91
789.19	42380.67
789.37	42509.69
789.55	42243.45
789.73	42081.66
789.91	41981.31
790.09	41698.69
790.28	41930.11
790.46	41979.26
790.64	41946.50
790.82	41670.02
791.00	41512.33
791.18	41336.20
791.36	41536.90
791.55	41424.26
791.73	41139.60
791.91	41340.30
792.09	41424.26
792.27	41209.23
792.45	41268.62
792.63	41135.50
792.81	40897.94
793.00	40899.98
793.18	41041.29
793.36	40910.22
793.54	40693.14
793.72	40449.43
793.90	40486.29
794.08	40492.44
794.26	40383.90
794.44	39859.62
794.62	39869.86
794.81	40248.73
794.99	39925.15
795.17	40215.96
795.35	40013.21
795.53	40052.12
795.71	40039.84
795.89	39454.12
796.07	39681.44
796.25	39527.84
796.43	39396.77
796.61	39159.21
796.80	39234.99
796.98	39206.31
797.16	39175.59
797.34	39288.23
797.52	38788.53
797.70	39212.46
797.88	38501.81
798.06	38477.24
798.24	38522.29
798.42	38321.59
798.60	38385.08
798.78	38399.41
798.96	38372.79
799.14	38256.06
799.32	38329.78
799.51	38114.75
799.69	38290.87
799.87	38081.98
800.05	37838.27
800.23	37602.75
800.41	38014.40
800.59	37664.19
800.77	37389.77
800.95	37103.05
801.13	37520.84
801.31	36933.07
801.49	36931.02
801.67	37225.93
801.85	37451.20
802.03	36736.46
802.21	36746.70
802.39	36656.59
802.57	36459.99
802.75	36253.14
802.93	36464.08
803.11	36603.35
803.29	36279.77
803.47	36066.78
803.65	36328.92
803.83	36179.42
804.01	35919.32
804.19	35886.56
804.37	36040.15
804.55	35796.45
804.73	35677.66
804.91	35624.42
805.09	35882.46
805.27	35605.98
805.45	35630.56
805.63	35804.64
805.81	35689.95
805.99	35204.58
806.17	35245.54
806.35	35442.15
806.53	34969.07
806.71	35155.43
806.89	34891.24
807.07	34997.74
807.25	34776.56
807.43	34610.67
807.61	34764.27
807.79	34749.93
807.97	34481.65
808.15	34452.98
808.33	34397.68
808.51	34401.78
808.69	34391.54
808.87	34203.13
809.05	34428.40
809.23	33902.07
809.41	33902.07
809.59	33680.89
809.77	34387.44
809.95	33695.23
810.13	33910.27
810.31	33508.86
810.49	33764.86
810.67	33543.68
810.84	33617.41
811.02	33707.52
811.20	32990.73
811.38	33680.89
811.56	33117.70
811.74	33154.57
811.92	33064.46
812.10	32802.32
812.28	33025.54
812.46	33117.70
812.64	33007.11
812.82	32765.45
813.00	32677.39
813.18	32701.96
813.36	32589.33
813.53	32120.34
813.71	32708.11
813.89	32566.80
814.07	32495.12
814.25	32308.76
814.43	32640.53
814.61	31923.74
814.79	32140.82
814.97	31542.81
815.15	32493.07
815.33	31710.75
815.50	31815.19
815.68	31761.95
815.86	32103.96
816.04	31870.49
816.22	31630.88
816.40	31575.58
816.58	31352.35
816.76	31436.32
816.94	31673.88
817.11	31516.19
817.29	31438.37
817.47	31311.39
817.65	31086.12
817.83	31239.72
818.01	30934.57
818.19	31014.44
818.37	30860.84
818.54	30717.48
818.72	30674.48
818.90	30916.14
819.08	31057.45
819.26	31118.89
819.44	30406.19
819.62	30391.86
819.80	30885.42
819.97	30379.57
820.15	30721.58
820.33	30193.20
820.51	30879.27
820.69	30250.55
820.87	30551.60
821.05	30717.48
821.22	30391.86
821.40	30318.13
821.58	30191.16
821.76	30076.47
821.94	30015.03
822.12	29986.36
822.29	29894.20
822.47	29953.59
822.65	29783.61
822.83	30070.33
823.01	29673.02
823.19	29638.20
823.36	29316.67
823.54	29544.00
823.72	29357.63
823.90	29353.54
824.08	29253.19
824.25	29500.99
824.43	29355.58
824.61	29337.15
824.79	29525.57
824.97	29224.51
825.15	29449.79
825.32	29298.24
825.50	29044.29
825.68	29134.40
825.86	29427.26
826.04	29349.44
826.21	28982.85
826.39	28849.74
826.57	28833.35
826.75	28689.99
826.93	28534.35
827.10	28726.86
827.28	28767.82
827.46	28913.22
827.64	28739.15
827.81	28270.16
827.99	28788.30
828.17	28448.33
828.35	28356.18
828.53	28423.76
828.70	28470.86
828.88	28458.57
829.06	28644.94
829.24	28427.85
829.41	28411.47
829.59	28542.54
829.77	28112.47
829.95	28012.12
830.12	28008.02
830.30	28292.69
830.48	28290.64
830.66	27965.01
830.84	27926.10
831.01	27674.20
831.19	28001.88
831.37	27854.42
831.55	27666.01
831.72	27571.80
831.90	27797.08
832.08	27471.45
832.25	27561.56
832.43	27629.15
832.61	27309.66
832.79	27496.03
832.96	27313.76
833.14	27645.53
833.32	27737.69
833.50	27856.47
833.67	27518.56
833.85	27233.89
834.03	27383.39
834.20	27407.97
834.38	27489.88
834.56	27422.30
834.74	27072.10
834.91	27082.34
835.09	27074.15
835.27	26869.35
835.44	27174.50
835.62	26564.20
835.80	26639.98
835.98	26758.76
836.15	26680.94
836.33	26725.99
836.51	26910.31
836.68	26556.01
836.86	26562.15
837.04	26465.90
837.21	26605.16
837.39	26859.11
837.57	26752.62
837.75	26381.93
837.92	26154.61
838.10	26316.40
838.28	26277.49
838.45	26281.58
838.63	26019.44
838.81	26140.27
838.98	25828.98
839.16	26127.99
839.34	26037.87
839.51	25958.00
839.69	25937.52
839.87	25869.94
840.04	26144.37
840.22	26134.13
840.40	25878.13
840.57	25462.40
840.75	26267.25
840.93	25687.67
841.10	25867.89
841.28	25656.95
841.46	25839.22
841.63	25814.65
841.81	25681.53
841.98	25824.89
842.16	25771.64
842.34	25501.31
842.51	25505.40
842.69	25556.60
842.87	25523.83
843.04	25853.56
843.22	25507.45
843.40	25308.80
843.57	25415.29
843.75	25583.23
843.92	25368.19
844.10	25323.13
844.28	25398.91
844.45	25419.39
844.63	25091.71
844.81	25192.06
844.98	25423.48
845.16	24911.49
845.33	25159.30
845.51	25128.58
845.69	25007.75
845.86	25134.72
846.04	24718.98
846.21	25020.03
846.39	24934.02
846.57	24817.29
846.74	24598.15
846.92	24870.53
847.09	24706.70
847.27	24776.33
847.45	24704.65
847.62	24833.67
847.80	24544.91
847.97	24364.68
848.15	24645.26
848.32	24114.83
848.50	24514.19
848.68	24051.34
848.85	24358.54
849.03	24061.58
849.20	24383.12
849.38	24231.57
849.56	24254.09
849.73	23977.62
849.91	24157.84
850.08	24419.98
850.26	23895.70
850.43	23858.84
850.61	24151.70
850.78	23803.54
850.96	24133.26
851.14	23901.84
851.31	24225.42
851.49	24002.19
851.66	24051.34
851.84	24047.25
852.01	24032.91
852.19	24106.64
852.36	23826.07
852.54	23627.42
852.71	23688.85
852.89	23545.50
853.07	23178.91
853.24	23309.98
853.42	23449.24
853.59	23441.05
853.77	23647.90
853.94	23549.59
854.12	23682.71
854.29	23269.02
854.47	23508.63
854.64	23277.21
854.82	23352.99
854.99	23492.25
855.17	23170.72
855.34	23041.70
855.52	22943.39
855.69	23385.76
855.87	23256.73
856.04	23174.81
856.22	23144.09
856.39	23060.13
856.57	23115.42
856.74	22961.83
856.92	23084.70
857.09	22793.89
857.27	22836.90
857.44	23070.37
857.62	22959.78
857.79	22763.17
857.97	23013.02
858.14	22779.56
858.32	22482.60
858.49	22597.29
858.67	22757.03
858.84	22576.81
859.02	22615.72
859.19	22503.08
859.37	22523.56
859.54	22273.71
859.72	22634.15
859.89	22365.87
860.06	22396.59
860.24	22351.53
860.41	22484.65
860.59	21995.18
860.76	22523.56
860.94	22046.38
861.11	22255.28
861.29	22173.36
861.46	22304.43
861.64	22017.71
861.81	22193.84
861.98	21997.23
862.16	22249.13
862.33	22267.56
862.51	21917.36
862.68	22101.68
862.86	21798.58
863.03	21948.08
863.21	21702.32
863.38	21644.98
863.55	21620.41
863.73	21974.70
863.90	21745.33
864.08	21679.80
864.25	21905.07
864.43	21624.50
864.60	21735.09
864.77	21518.01
864.95	21544.63
865.12	21343.93
865.30	21460.66
865.47	21315.26
865.64	21298.88
865.82	21552.82
865.99	21616.31
866.17	21313.21
866.34	21472.95
866.51	20913.86
866.69	21184.19
866.86	21401.27
867.04	21253.82
867.21	20973.25
867.38	21171.90
867.56	21034.69
867.73	21038.78
867.91	20754.12
868.08	20854.47
868.25	21120.70
868.43	21044.93
868.60	20821.70
868.78	20801.22
868.95	20977.34
869.12	20614.85
869.30	20582.09
869.47	20641.48
869.64	20377.29
869.82	20483.78
869.99	20362.95
870.16	20639.43
870.34	20621.00
870.51	20424.39
870.69	20270.79
870.86	20256.46
871.03	20317.90
871.21	20121.29
871.38	20477.64
871.55	20158.16
871.73	20143.82
871.90	20358.86
872.07	19832.53
872.25	20129.48
872.42	20207.31
872.59	20055.76
872.77	19824.34
872.94	20129.48
873.11	19838.67
873.29	19748.56
873.46	19470.04
873.63	19920.59
873.81	19764.95
873.98	19566.29
874.15	19627.73
874.33	19496.66
874.50	19277.53
874.67	19457.75
874.85	19715.80
875.02	19623.64
875.19	19308.25
875.37	19314.39
875.54	19205.85
875.71	19613.40
875.88	19134.17
876.06	19341.02
876.23	19117.79
876.40	19042.01
876.58	19080.92
876.75	19312.35
876.92	19042.01
877.10	19015.39
877.27	18951.90
877.44	18845.41
877.61	18783.97
877.79	18802.40
877.96	18728.67
878.13	18556.64
878.31	18747.11
878.48	18689.76
878.65	18372.33
878.82	18419.43
879.00	18896.61
879.17	18659.04
879.34	18411.24
879.51	18372.33
879.69	18450.15
879.86	18284.26
880.03	18216.68
880.21	18204.39
880.38	18509.54
880.55	18198.25
880.72	18167.53
880.90	18357.99
881.07	18112.24
881.24	18179.82
881.41	18032.36
881.59	18063.08
881.76	17942.25
881.93	18210.54
882.10	17737.46
882.28	17862.38
882.45	17786.61
882.62	17880.82
882.79	17837.81
882.96	17456.89
883.14	17839.86
883.31	17903.34
883.48	17727.22
883.65	17727.22
883.83	17741.55
884.00	17843.95
884.17	17846.00
884.34	17794.80
884.51	17864.43
884.69	17780.46
884.86	17755.89
885.03	17428.21
885.20	17397.49
885.38	17723.12
885.55	17501.94
885.72	17460.98
885.89	17438.45
886.06	17497.84
886.24	17512.18
886.41	17293.05
886.58	17616.63
886.75	17506.04
886.92	17354.49
887.10	17336.06
887.27	17299.19
887.44	17295.10
887.61	17325.82
887.78	17532.66
887.95	17352.44
888.13	16901.89
888.30	17086.20
888.47	17008.38
888.64	16975.61
888.81	17018.62
888.99	16940.80
889.16	16672.51
889.33	16842.50
889.50	16836.35
889.67	16918.27
889.84	16692.99
890.01	16830.21
890.19	16887.55
890.36	16494.34
890.53	16572.16
890.70	16688.90
890.87	16437.00
891.04	16516.87
891.22	16584.45
891.39	16506.63
891.56	16451.33
891.73	16527.11
891.90	16393.99
892.07	16353.03
892.24	16346.89
892.42	16508.68
892.59	16457.48
892.76	16377.61
892.93	16258.82
893.10	16398.09
893.27	16459.52
893.44	16211.72
893.61	16097.03
893.79	16271.11
893.96	16037.64
894.13	16277.26
894.30	16246.54
894.47	15963.92
894.64	16332.55
894.81	16125.71
894.98	16148.23
895.15	16047.88
895.33	16125.71
895.50	16080.65
895.67	16400.13
895.84	15869.71
896.01	15920.91
896.18	16019.21
896.35	16148.23
896.52	16094.99
896.69	15902.48
896.86	16101.13
897.04	15982.35
897.21	16088.84
897.38	16197.38
897.55	15843.09
897.72	16011.02
897.89	16090.89
898.06	15984.40
898.23	16090.89
898.40	16252.68
898.57	15984.40
898.74	15832.85
898.91	15728.40
899.08	15984.40
899.26	15867.66
899.43	16037.64
899.60	15664.91
899.77	15890.19
899.94	15699.73
900.11	15820.56
900.28	15718.16
900.45	15795.98
900.62	15814.41
900.79	16015.12
900.96	15943.44
901.13	15849.23
901.30	15728.40
901.47	15705.87
901.64	15585.04
901.81	15927.05
901.98	15802.13
902.15	15933.20
902.32	15814.41
902.49	15812.37
902.66	15849.23
902.83	15855.37
903.01	15740.69
903.18	15752.98
903.35	15798.03
903.52	15623.95
903.69	15750.93
903.86	15795.98
904.03	15744.78
904.20	15832.85
904.37	15982.35
904.54	15877.90
904.71	15544.08
904.88	15982.35
905.05	15560.47
905.22	15859.47
905.39	15607.57
905.56	15568.66
905.73	15539.99
905.90	15746.83
906.07	15722.26
906.24	15611.67
906.41	15664.91
906.58	15836.94
906.75	15537.94
906.92	15644.43
907.09	15599.38
907.26	15793.94
907.43	15511.32
907.60	15552.27
907.77	15838.99
907.93	15927.05
908.10	15785.74
908.27	15757.07
908.44	15365.91
908.61	15480.60
908.78	15474.45
908.95	15523.60
909.12	15367.96
909.29	15578.90
909.46	15564.56
909.63	15402.77
909.80	15691.54
909.97	15501.08
910.14	15263.51
910.31	15382.29
910.48	15406.87
910.65	15501.08
910.82	15361.81
910.99	15200.02
911.16	15474.45
911.33	15365.91
911.50	15525.65
911.66	15263.51
911.83	15306.52
912.00	15329.05
912.17	15009.56
912.34	15200.02
912.51	15214.36
912.68	14989.08
912.85	15169.30
913.02	15265.56
913.19	15232.79
913.36	15167.26
913.53	15222.55
913.70	15034.14
913.86	15054.62
914.03	15034.14
914.20	14858.01
914.37	14909.21
914.54	14790.43
914.71	15017.75
914.88	14575.39
915.05	14677.79
915.22	14614.30
915.39	14718.75
915.55	14769.95
915.72	14583.59
915.89	14628.64
916.06	14315.30
916.23	14440.23
916.40	14571.30
916.57	14581.54
916.74	14403.36
916.91	14305.06
917.07	14561.06
917.24	14251.81
917.41	14337.83
917.58	14421.80
917.75	14143.27
917.92	14200.62
918.09	14169.90
918.26	13977.39
918.42	14245.67
918.59	14020.39
918.76	13961.00
918.93	13864.75
919.10	13709.10
919.27	13954.86
919.44	14075.69
919.60	13965.10
919.77	13850.41
919.94	13831.98
920.11	13676.34
920.28	13827.88
920.45	13502.26
920.61	13436.72
920.78	13578.03
920.95	13555.51
921.12	13580.08
921.29	13389.62
921.46	13319.99
921.62	13057.85
921.79	13281.08
921.96	13104.95
922.13	13025.08
922.30	13139.77
922.47	12994.36
922.63	12808.00
922.80	12928.83
922.97	12932.92
923.14	12734.27
923.31	12836.67
923.47	12851.00
923.64	12916.54
923.81	12584.77
923.98	12828.48
924.15	12508.99
924.32	12678.97
924.48	12492.61
924.65	12406.59
924.82	12773.18
924.99	12212.04
925.15	12422.98
925.32	12605.25
925.49	12193.61
925.66	12111.69
925.83	12105.54
925.99	11988.81
926.16	12066.63
926.33	12306.24
926.50	11865.93
926.67	11990.86
926.83	12003.14
927.00	11894.60
927.17	11753.29
927.34	11773.77
927.50	11847.50
927.67	11941.71
927.84	11902.79
928.01	11706.19
928.17	11517.78
928.34	11489.10
928.51	11278.16
928.68	11495.25
928.84	11433.81
929.01	11253.59
929.18	11370.32
929.35	11208.53
929.51	11173.72
929.68	11048.79
929.85	10874.71
930.02	10997.59
930.18	10932.06
930.35	10993.50
930.52	10913.63
930.69	10866.52
930.85	10610.53
931.02	10633.05
931.19	10596.19
931.36	10698.59
931.52	10829.66
931.69	10579.81
931.86	10645.34
932.02	10602.33
932.19	10461.02
932.36	10426.21
932.53	10489.70
932.69	10248.04
932.86	10346.34
933.03	10282.85
933.19	9967.46
933.36	9996.14
933.53	10229.60
933.70	10006.38
933.86	9944.94
934.03	9858.92
934.20	9777.00
934.36	9971.56
934.53	9559.92
934.70	9600.88
934.86	9635.69
935.03	9406.32
935.20	9357.17
935.36	9461.62
935.53	9359.22
935.70	9144.18
935.86	9172.85
936.03	9135.99
936.20	8890.23
936.36	8859.51
936.53	8859.51
936.70	8650.62
936.86	8744.83
937.03	8712.06
937.20	8572.80
937.36	8589.18
937.53	8236.93
937.70	8064.90
937.86	8210.31
938.03	8243.07
938.20	8112.00
938.36	8038.28
938.53	7858.06
938.70	7813.00
938.86	7806.86
939.03	7507.85
939.20	7550.86
939.36	7538.57
939.53	7503.76
939.70	7602.06
939.86	7198.61
940.03	7169.94
940.19	7042.96
940.36	6913.94
940.53	6932.37
940.69	6981.53
940.86	6803.35
941.03	6752.15
941.19	6508.44
941.36	6512.54
941.52	6584.22
941.69	6459.29
941.86	6406.05
942.02	6360.99
942.19	6397.85
942.35	6309.79
942.52	6299.55
942.69	6197.15
942.85	6096.80
943.02	6047.65
943.18	6090.66
943.35	5990.31
943.52	5892.01
943.68	5894.05
943.85	5951.40
944.01	5824.42
944.18	5742.50
944.35	5865.38
944.51	5699.50
944.68	5552.04
944.84	5672.87
945.01	5572.52
945.17	5574.57
945.34	5689.26
945.51	5640.11
945.67	5480.36
945.84	5574.57
946.00	5506.99
946.17	5502.89
946.33	5410.73
946.50	5447.60
946.67	5590.95
946.83	5459.88
947.00	5636.01
947.16	5466.03
947.33	5496.75
947.49	5425.07
947.66	5382.06
947.82	5492.65
947.99	5334.96
948.16	5545.90
948.32	5439.40
948.49	5554.09
948.65	5638.06
948.82	5500.84
948.98	5265.33
949.15	5312.43
949.31	5398.45
949.48	5398.45
949.64	5375.92
949.81	5474.22
949.97	5365.68
950.14	5470.12
950.30	5484.46
950.47	5511.08
950.63	5652.39
950.80	5459.88
950.96	5337.01
951.13	5486.51
951.30	5459.88
951.46	5580.71
951.63	5552.04
951.79	5408.69
951.96	5691.31
952.12	5517.23
952.29	5697.45
952.45	5466.03
952.62	5580.71
952.78	5543.85
952.94	5658.54
953.11	5543.85
953.27	5427.12
953.44	5660.59
953.60	5441.45
953.77	5562.28
953.93	5562.28
954.10	5529.52
954.26	5517.23
954.43	5554.09
954.59	5650.35
954.76	5578.67
954.92	5787.56
955.09	5615.53
955.25	5648.30
955.42	5640.11
955.58	5877.67
955.75	5676.97
955.91	5658.54
956.07	5623.72
956.24	5599.15
956.40	5656.49
956.57	5570.48
956.73	5633.96
956.90	5638.06
957.06	5539.76
957.23	5619.63
957.39	5693.35
957.56	5642.15
957.72	5623.72
957.88	5552.04
958.05	5457.84
958.21	5719.98
958.38	5681.07
958.54	5525.42
958.71	5664.68
958.87	5537.71
959.03	5705.64
959.20	5724.07
959.36	5617.58
959.53	5574.57
959.69	5670.83
959.85	5611.43
960.02	5607.34
960.18	5547.95
960.35	5509.04
960.51	5679.02
960.68	5576.62
960.84	5566.38
961.00	5578.67
961.17	5640.11
961.33	5656.49
961.50	5560.24
961.66	5734.31
961.82	5570.48
961.99	5595.05
962.15	5527.47
962.31	5437.36
962.48	5662.63
962.64	5519.28
962.81	5636.01
962.97	5558.19
963.13	5627.82
963.30	5642.15
963.46	5521.32
963.62	5590.95
963.79	5588.91
963.95	5648.30
964.12	5576.62
964.28	5707.69
964.44	5562.28
964.61	5556.14
964.77	5490.60
964.93	5490.60
965.10	5498.80
965.26	5478.32
965.42	5414.83
965.59	5531.56
965.75	5402.54
965.92	5398.45
966.08	5619.63
966.24	5410.73
966.41	5427.12
966.57	5332.91
966.73	5365.68
966.90	5447.60
967.06	5439.40
967.22	5506.99
967.39	5322.67
967.55	5390.25
967.71	5441.45
967.88	5312.43
968.04	5314.48
968.20	5318.57
968.37	5193.65
968.53	5244.85
968.69	5412.78
968.85	5332.91
969.02	5337.01
969.18	5353.39
969.34	5197.74
969.51	5312.43
969.67	5281.71
969.83	5173.17
970.00	5359.53
970.16	5328.81
970.32	5263.28
970.48	5406.64
970.65	5187.50
970.81	5240.75
970.97	5250.99
971.14	5173.17
971.30	5236.66
971.46	5074.87
971.63	5177.26
971.79	5257.14
971.95	5226.42
972.11	5074.87
972.28	5058.48
972.44	5173.17
972.60	5113.78
972.76	5017.52
972.93	5038.00
973.09	5197.74
973.25	5050.29
973.42	5115.83
973.58	4956.08
973.74	5158.83
973.90	5138.35
974.07	5091.25
974.23	5085.11
974.39	5058.48
974.55	5048.24
974.72	4927.41
974.88	4876.21
975.04	4958.13
975.20	5042.10
975.37	4951.99
975.53	4980.66
975.69	4902.84
975.85	5017.52
976.01	4954.04
976.18	4958.13
976.34	4841.40
976.50	4931.51
976.66	5007.28
976.83	4872.12
976.99	4902.84
977.15	4894.65
977.31	4693.94
977.47	4751.29
977.64	4736.95
977.80	4757.43
977.96	4642.75
978.12	4724.66
978.29	4517.82
978.45	4663.22
978.61	4743.10
978.77	4814.77
978.93	4583.35
979.10	4763.58
979.26	4726.71
979.42	4739.00
979.58	4558.78
979.74	4726.71
979.91	4640.70
980.07	4517.82
980.23	4573.11
980.39	4616.12
980.55	4587.45
980.71	4642.75
980.88	4470.72
981.04	4366.27
981.20	4564.92
981.36	4575.16
981.52	4386.75
981.68	4540.35
981.85	4526.01
982.01	4384.70
982.17	4425.66
982.33	4407.23
982.49	4528.06
982.65	4376.51
982.82	4411.32
982.98	4446.14
983.14	4329.41
983.30	4456.38
983.46	4276.16
983.62	4329.41
983.79	4327.36
983.95	4274.11
984.11	4245.44
984.27	4280.25
984.43	4327.36
984.59	4284.35
984.75	4329.41
984.91	4292.54
985.08	4394.94
985.24	4167.62
985.40	4143.04
985.56	4128.70
985.72	4231.10
985.88	4155.33
986.04	4173.76
986.20	4073.41
986.37	4200.38
986.53	4145.09
986.69	4227.01
986.85	4167.62
987.01	4089.79
987.17	4274.11
987.33	4128.70
987.49	4140.99
987.65	4276.16
987.82	4089.79
987.98	4038.59
988.14	4007.87
988.30	4081.60
988.46	3891.14
988.62	3975.11
988.78	3942.34
988.94	4005.83
989.10	3874.76
989.26	3868.61
989.42	3983.30
989.59	3833.80
989.75	3925.96
989.91	3911.62
990.07	3821.51
990.23	3903.43
990.39	3891.14
990.55	3960.77
990.71	3878.85
990.87	3960.77
991.03	3913.67
991.19	3868.61
991.35	3897.28
991.51	3848.13
991.67	3913.67
991.83	3887.04
992.00	3880.90
992.16	3815.37
992.32	3790.79
992.48	3786.69
992.64	3813.32
992.80	3809.22
992.96	3786.69
993.12	3692.49
993.28	3700.68
993.44	3755.97
993.60	3688.39
993.76	3809.22
993.92	3790.79
994.08	3764.17
994.24	3776.45
994.40	3723.21
994.56	3657.67
994.72	3651.53
994.88	3682.25
995.04	3629.00
995.20	3569.61
995.36	3542.99
995.52	3708.87
995.68	3606.47
995.84	3569.61
996.00	3710.92
996.16	3592.14
996.32	3524.55
996.48	3647.43
996.64	3639.24
996.80	3514.31
996.96	3575.75
997.12	3506.12
997.28	3526.60
997.44	3360.72
997.60	3465.16
997.76	3526.60
997.92	3508.17
998.08	3526.60
998.24	3319.76
998.40	3551.18
998.56	3448.78
998.72	3377.10
998.88	3428.30
999.04	3393.48
999.20	3465.16
999.36	3282.89
999.52	3397.58
999.68	3411.92
999.84	3334.09
1000.00	3442.64
1000.16	3432.40
1000.32	3352.52
1000.48	3465.16
1000.64	3260.37
1000.80	3180.50
1000.95	3198.93
1001.11	3297.23
1001.27	3233.74
1001.43	3262.41
1001.59	3178.45
1001.75	3205.07
1001.91	3270.61
1002.07	3270.61
1002.23	3160.02
1002.39	3182.54
1002.55	3231.69
1002.71	3139.54
1002.87	3211.22
1003.03	3157.97
1003.19	3272.65
1003.34	3219.41
1003.50	3151.82
1003.66	3155.92
1003.82	3231.69
1003.98	3102.67
1004.14	3194.83
1004.30	3082.19
1004.46	2998.23
1004.62	3143.63
1004.78	3035.09
1004.94	3067.86
1005.09	3043.28
1005.25	3061.71
1005.41	3106.77
1005.57	3039.19
1005.73	3000.27
1005.89	2947.03
1006.05	3080.14
1006.21	2977.75
1006.37	2932.69
1006.52	3076.05
1006.68	2936.79
1006.84	2998.23
1007.00	2959.31
1007.16	3037.14
1007.32	2803.67
1007.48	3069.91
1007.64	2842.58
1007.79	2965.46
1007.95	2867.16
1008.11	2975.70
1008.27	2809.81
1008.43	2877.40
1008.59	2871.25
1008.75	2873.30
1008.91	2979.79
1009.06	2932.69
1009.22	2924.50
1009.38	2869.20
1009.54	2879.44
1009.70	2901.97
1009.86	2717.65
1010.01	2893.78
1010.17	2834.39
1010.33	2766.81
1010.49	2779.09
1010.65	2953.17
1010.81	2717.65
1010.96	2838.48
1011.12	2750.42
1011.28	2645.98
1011.44	2795.48
1011.60	2785.24
1011.76	2789.33
1011.91	2750.42
1012.07	2734.04
1012.23	2756.57
1012.39	2703.32
1012.55	2836.44
1012.71	2731.99
1012.86	2600.92
1013.02	2727.89
1013.18	2701.27
1013.34	2598.87
1013.50	2703.32
1013.65	2701.27
1013.81	2680.79
1013.97	2688.98
1014.13	2629.59
1014.29	2559.96
1014.44	2662.36
1014.60	2621.40
1014.76	2607.06
1014.92	2576.34
1015.07	2658.26
1015.23	2672.60
1015.39	2600.92
1015.55	2574.30
1015.71	2572.25
1015.86	2494.43
1016.02	2582.49
1016.18	2465.75
1016.34	2596.82
1016.49	2607.06
1016.65	2576.34
1016.81	2492.38
1016.97	2551.77
1017.12	2455.51
1017.28	2533.34
1017.44	2498.52
1017.60	2496.47
1017.75	2414.56
1017.91	2541.53
1018.07	2484.19
1018.23	2557.91
1018.38	2426.84
1018.54	2510.81
1018.70	2437.08
1018.86	2430.94
1019.01	2295.77
1019.17	2459.61
1019.33	2543.58
1019.49	2465.75
1019.64	2488.28
1019.80	2414.56
1019.96	2541.53
1020.12	2412.51
1020.27	2375.64
1020.43	2453.47
1020.59	2336.73
1020.74	2494.43
1020.90	2488.28
1021.06	2426.84
1021.22	2320.35
1021.37	2406.36
1021.53	2338.78
1021.69	2355.16
1021.84	2224.09
1022.00	2359.26
1022.16	2332.64
1022.31	2375.64
1022.47	2408.41
1022.63	2344.92
1022.79	2269.15
1022.94	2320.35
1023.10	2310.11
1023.26	2295.77
1023.41	2344.92
1023.57	2310.11
1023.73	2332.64
1023.88	2320.35
1024.04	2328.54
1024.20	2318.30
1024.35	2295.77
1024.51	2279.39
1024.67	2256.86
1024.82	2297.82
1024.98	2207.71
1025.14	2283.49
1025.29	2242.53
1025.45	2293.72
1025.61	2174.94
1025.76	2299.87
1025.92	2170.85
1026.08	2330.59
1026.23	2279.39
1026.39	2287.58
1026.55	2220.00
1026.70	2269.15
1026.86	2213.85
1027.02	2217.95
1027.17	2160.61
1027.33	2181.09
1027.48	2193.37
1027.64	2238.43
1027.80	2105.31
1027.95	2095.07
1028.11	2115.55
1028.27	2205.66
1028.42	2150.37
1028.58	2154.46
1028.73	2168.80
1028.89	2099.17
1029.05	2197.47
1029.20	2183.13
>>>>>End Processed Spectral Data<<<<<
