SpectraSuite Data File
++++++++++++++++++++++++++++++++++++
Date: Fri Jun 02 14:47:56 CEST 2017
User: INFO_000
Dark Spectrum Present: No
Reference Spectrum Present: No
Number of Sampled Component Spectra: 1
Spectrometers: USB4H00879
Integration Time (usec): 80000 (USB4H00879)
Spectra Averaged: 1 (USB4H00879)
Boxcar Smoothing: 0 (USB4H00879)
Correct for Electrical Dark: No (USB4H00879)
Strobe/Lamp Enabled: No (USB4H00879)
Correct for Detector Non-linearity: No (USB4H00879)
Correct for Stray Light: No (USB4H00879)
Number of Pixels in Processed Spectrum: 3648
>>>>>Begin Processed Spectral Data<<<<<
345.13	1337.32
345.34	1337.32
345.56	1337.32
345.78	1314.80
345.99	1298.41
346.21	1712.10
346.42	1630.18
346.64	1683.43
346.86	1794.02
347.07	1638.38
347.29	1748.97
347.50	1644.52
347.72	1656.81
347.94	1703.91
348.15	1564.65
348.37	1626.09
348.59	1712.10
348.80	1646.57
349.02	1791.97
349.23	1785.83
349.45	1822.69
349.67	1890.28
349.88	1744.87
350.10	1970.15
350.31	1900.52
350.53	1834.98
350.75	2023.39
350.96	1843.17
351.18	1918.95
351.39	1910.75
351.61	1814.50
351.82	1865.70
352.04	1914.85
352.26	1796.07
352.47	1880.04
352.69	1933.28
352.90	1732.58
353.12	1787.88
353.34	1880.04
353.55	1918.95
353.77	1898.47
353.98	1939.43
354.20	1871.84
354.41	1923.04
354.63	1964.00
354.85	1918.95
355.06	1929.19
355.28	1771.49
355.49	1851.36
355.71	1849.32
355.92	1867.75
356.14	1861.60
356.35	1867.75
356.57	1847.27
356.79	1935.33
357.00	1945.57
357.22	1961.95
357.43	1882.08
357.65	1920.99
357.86	1861.60
358.08	1933.28
358.29	1918.95
358.51	1998.82
358.72	2019.30
358.94	1931.23
359.16	1910.75
359.37	1949.67
359.59	1875.94
359.80	2070.50
360.02	1964.00
360.23	1992.67
360.45	2045.92
360.66	1935.33
360.88	1884.13
361.09	1970.15
361.31	1959.91
361.52	1990.63
361.74	2068.45
361.95	2105.31
362.17	1910.75
362.38	2090.98
362.60	2050.02
362.81	1986.53
363.03	1982.43
363.24	2070.50
363.46	2068.45
363.67	2072.54
363.89	2025.44
364.10	2097.12
364.32	1986.53
364.53	2054.11
364.75	1875.94
364.96	2021.35
365.18	2052.06
365.39	1964.00
365.61	2052.06
365.82	2119.65
366.04	2002.91
366.25	1966.05
366.47	1976.29
366.68	2072.54
366.90	1943.52
367.11	2117.60
367.33	2033.63
367.54	2035.68
367.76	1982.43
367.97	2086.88
368.19	2035.68
368.40	2007.01
368.62	2011.11
368.83	1949.67
369.05	2105.31
369.26	1990.63
369.48	2035.68
369.69	1957.86
369.91	2109.41
370.12	2037.73
370.33	1947.62
370.55	1972.19
370.76	2043.87
370.98	2105.31
371.19	1996.77
371.41	2023.39
371.62	2052.06
371.84	1949.67
372.05	2191.33
372.27	1982.43
372.48	2107.36
372.69	2138.08
372.91	2211.81
373.12	2156.51
373.34	2056.16
373.55	2158.56
373.77	2101.22
373.98	2074.59
374.20	2111.46
374.41	2207.71
374.62	2150.37
374.84	2125.79
375.05	2222.05
375.27	2183.13
375.48	2203.61
375.70	2090.98
375.91	2166.75
376.12	2222.05
376.34	2107.36
376.55	2170.85
376.77	2203.61
376.98	2144.22
377.19	2084.83
377.41	2011.11
377.62	2220.00
377.84	2232.29
378.05	2351.07
378.27	2207.71
378.48	2201.57
378.69	2449.37
378.91	2318.30
379.12	2232.29
379.34	2228.19
379.55	2322.40
379.76	2334.68
379.98	2328.54
380.19	2252.77
380.41	2205.66
380.62	2293.72
380.83	2228.19
381.05	2285.53
381.26	2338.78
381.47	2174.94
381.69	2328.54
381.90	2346.97
382.12	2357.21
382.33	2226.14
382.54	2238.43
382.76	2379.74
382.97	2322.40
383.19	2248.67
383.40	2365.40
383.61	2269.15
383.83	2248.67
384.04	2324.44
384.25	2332.64
384.47	2426.84
384.68	2383.84
384.89	2306.01
385.11	2236.38
385.32	2306.01
385.54	2312.16
385.75	2312.16
385.96	2473.95
386.18	2473.95
386.39	2392.03
386.60	2418.65
386.82	2510.81
387.03	2404.32
387.24	2400.22
387.46	2453.47
387.67	2447.32
387.88	2453.47
388.10	2443.23
388.31	2496.47
388.52	2562.01
388.74	2488.28
388.95	2519.00
389.16	2465.75
389.38	2447.32
389.59	2582.49
389.80	2641.88
390.02	2574.30
390.23	2582.49
390.44	2572.25
390.66	2508.76
390.87	2539.48
391.08	2621.40
391.30	2613.21
391.51	2723.80
391.72	2699.22
391.94	2699.22
392.15	2615.26
392.36	2519.00
392.58	2537.43
392.79	2594.78
393.00	2654.17
393.22	2754.52
393.43	2793.43
393.64	2877.40
393.85	2674.65
394.07	2578.39
394.28	2668.50
394.49	2734.04
394.71	2719.70
394.92	2820.05
395.13	2785.24
395.35	2719.70
395.56	2695.13
395.77	2668.50
395.98	2813.91
396.20	2846.68
396.41	2760.66
396.62	2795.48
396.84	2856.92
397.05	2758.61
397.26	2856.92
397.47	2981.84
397.69	2789.33
397.90	2983.89
398.11	2807.77
398.32	2775.00
398.54	2785.24
398.75	2889.68
398.96	3006.42
399.18	3065.81
399.39	2885.59
399.60	2985.94
399.81	2899.92
400.03	2930.64
400.24	3246.03
400.45	2963.41
400.66	3045.33
400.88	2887.64
401.09	3215.31
401.30	2906.07
401.51	3110.86
401.73	3090.38
401.94	3018.71
402.15	3131.34
402.36	3053.52
402.58	3119.06
402.79	3227.60
403.00	3123.15
403.21	3190.74
403.43	3162.06
403.64	3280.85
403.85	3133.39
404.06	3188.69
404.27	3184.59
404.49	3098.58
404.70	3194.83
404.91	3305.42
405.12	3289.04
405.34	3313.61
405.55	3362.76
405.76	3166.16
405.97	3143.63
406.19	3327.95
406.40	3262.41
406.61	3264.46
406.82	3315.66
407.03	3340.24
407.25	3307.47
407.46	3362.76
407.67	3381.20
407.88	3540.94
408.09	3426.25
408.31	3375.05
408.52	3350.48
408.73	3370.96
408.94	3358.67
409.15	3377.10
409.37	3442.64
409.58	3538.89
409.79	3422.16
410.00	3516.36
410.21	3411.92
410.43	3444.68
410.64	3383.24
410.85	3461.07
411.06	3547.08
411.27	3530.70
411.48	3534.79
411.70	3493.83
411.91	3547.08
412.12	3645.38
412.33	3518.41
412.54	3549.13
412.76	3645.38
412.97	3575.75
413.18	3520.46
413.39	3657.67
413.60	3661.77
413.81	3614.66
414.03	3581.90
414.24	3583.95
414.45	3729.35
414.66	3592.14
414.87	3731.40
415.08	3649.48
415.30	3661.77
415.51	3739.59
415.72	3618.76
415.93	3811.27
416.14	3686.34
416.35	3733.45
416.56	3809.22
416.78	3811.27
416.99	3807.17
417.20	3837.89
417.41	3917.76
417.62	3870.66
417.83	3776.45
418.04	3878.85
418.26	3925.96
418.47	3815.37
418.68	4036.55
418.89	3977.16
419.10	4063.17
419.31	3968.96
419.52	4011.97
419.73	3989.44
419.95	4132.80
420.16	3952.58
420.37	4022.21
420.58	4069.31
420.79	3803.08
421.00	4073.41
421.21	4040.64
421.42	4032.45
421.63	4075.46
421.85	4130.75
422.06	4108.23
422.27	4175.81
422.48	4159.42
422.69	4210.62
422.90	4292.54
423.11	4220.86
423.32	4155.33
423.53	4409.28
423.75	4423.61
423.96	4411.32
424.17	4325.31
424.38	4421.56
424.59	4327.36
424.80	4579.26
425.01	4319.17
425.22	4425.66
425.43	4265.92
425.64	4597.69
425.85	4603.83
426.06	4597.69
426.28	4513.72
426.49	4466.62
426.70	4405.18
426.91	4575.16
427.12	4698.04
427.33	4638.65
427.54	4620.22
427.75	4646.84
427.96	4868.02
428.17	4683.70
428.38	4843.45
428.59	4779.96
428.80	4646.84
429.01	4863.93
429.23	4822.97
429.44	4882.36
429.65	5040.05
429.86	4837.30
430.07	4908.98
430.28	4845.49
430.49	4972.47
430.70	5091.25
430.91	5121.97
431.12	4966.32
431.33	5222.32
431.54	5119.92
431.75	5105.59
431.96	5083.06
432.17	5128.11
432.38	5148.59
432.59	5400.49
432.80	5195.70
433.01	5230.51
433.22	5162.93
433.43	5341.10
433.64	5187.50
433.85	5181.36
434.06	5461.93
434.27	5148.59
434.49	5373.87
434.70	5537.71
434.91	5406.64
435.12	5484.46
435.33	5445.55
435.54	5472.17
435.75	5345.20
435.96	5433.26
436.17	5304.24
436.38	5713.83
436.59	5631.91
436.80	5586.86
437.01	5660.59
437.22	5750.70
437.43	5754.79
437.64	5377.97
437.85	5799.85
438.06	5750.70
438.27	5736.36
438.48	5642.15
438.69	5855.14
438.90	5861.29
439.11	5738.41
439.32	5902.25
439.53	5916.58
439.74	5775.27
439.95	5824.42
440.16	5779.37
440.37	5920.68
440.57	5765.03
440.78	5973.92
440.99	5955.49
441.20	5939.11
441.41	5851.05
441.62	5949.35
441.83	6031.27
442.04	6125.47
442.25	6076.32
442.46	6123.43
442.67	6201.25
442.88	6461.34
443.09	5990.31
443.30	6133.67
443.51	6168.48
443.72	6455.20
443.93	6066.08
444.14	6549.40
444.35	6293.41
444.56	6209.44
444.77	6346.66
444.98	6371.23
445.19	6485.92
445.40	6442.91
445.61	6326.18
445.81	6473.63
446.02	6524.83
446.23	6430.62
446.44	6123.43
446.65	6610.84
446.86	6522.78
447.07	6553.50
447.28	6709.15
447.49	6680.47
447.70	6481.82
447.91	6719.39
448.12	6719.39
448.33	6635.42
448.54	6903.70
448.74	6608.80
448.95	6815.64
449.16	6631.32
449.37	6799.26
449.58	6631.32
449.79	6817.69
450.00	6703.00
450.21	6952.85
450.42	7053.20
450.63	7030.68
450.84	7014.29
451.05	7014.29
451.25	7016.34
451.46	6975.38
451.67	7223.19
451.88	7346.06
452.09	7045.01
452.30	7065.49
452.51	7063.44
452.72	7233.43
452.93	7479.18
453.13	7223.19
453.34	7196.56
453.55	7270.29
453.76	7163.79
453.97	7544.72
454.18	7421.84
454.39	7499.66
454.60	7620.49
454.81	7370.64
455.01	7700.36
455.22	7446.41
455.43	7440.27
455.64	7751.56
455.85	7726.99
456.06	8023.94
456.27	7597.96
456.48	7800.71
456.68	7792.52
456.89	7821.19
457.10	7763.85
457.31	7800.71
457.52	7925.64
457.73	7997.32
457.94	8206.21
458.14	7923.59
458.35	8363.90
458.56	8134.53
458.77	7944.07
458.98	8195.97
459.19	8230.79
459.39	8320.90
459.60	8423.30
459.81	8183.68
460.02	8382.34
460.23	8492.93
460.44	8611.71
460.65	8550.27
460.85	8652.67
461.06	8667.00
461.27	8484.73
461.48	8845.18
461.69	8998.77
461.89	8605.56
462.10	9060.21
462.31	8615.80
462.52	8728.44
462.73	8879.99
462.94	9168.76
463.14	9084.79
463.35	8963.96
463.56	9394.03
463.77	9457.52
463.98	9262.96
464.18	9396.08
464.39	9400.18
464.60	9658.22
464.81	9576.30
465.02	9539.44
465.23	9770.86
465.43	9471.86
465.64	9693.04
465.85	9707.37
466.06	9566.06
466.27	10067.81
466.47	9809.77
466.68	10082.15
466.89	10131.30
467.10	10147.69
467.30	9781.10
467.51	10219.36
467.72	10254.18
467.93	9969.51
468.14	10254.18
468.34	10483.55
468.55	10327.91
468.76	10446.69
468.97	10485.60
469.17	10434.40
469.38	10760.03
469.59	10784.60
469.80	10735.45
470.01	10768.22
470.21	10792.80
470.42	11210.58
470.63	11304.79
470.84	11102.04
471.04	11173.72
471.25	11218.77
471.46	11327.32
471.67	11470.67
471.87	11284.31
472.08	11560.78
472.29	11515.73
472.50	11466.58
472.70	11611.98
472.91	11579.22
473.12	11882.31
473.33	11999.05
473.53	12070.73
473.74	11929.42
473.95	12304.20
474.16	12353.35
474.36	12275.52
474.57	12400.45
474.78	12566.34
474.99	12484.42
475.19	12484.42
475.40	12838.72
475.61	12916.54
475.81	12867.39
476.02	13229.88
476.23	13057.85
476.44	13150.01
476.64	13205.30
476.85	13305.65
477.06	13434.68
477.27	13520.69
477.47	13735.73
477.68	13719.34
477.89	14098.22
478.09	13899.56
478.30	13948.72
478.51	14120.74
478.71	14325.54
478.92	14339.88
479.13	14554.91
479.34	14520.10
479.54	14401.32
479.75	14333.73
479.96	14610.21
480.16	15034.14
480.37	14966.56
480.58	14964.51
480.78	15275.80
480.99	15159.06
481.20	15343.38
481.41	15249.18
481.61	15566.61
481.82	15607.57
482.03	15568.66
482.23	15740.69
482.44	15830.80
482.65	15834.89
482.85	16176.91
483.06	15791.89
483.27	16056.08
483.47	16350.98
483.68	16160.52
483.89	16527.11
484.09	16578.31
484.30	16434.95
484.51	16826.11
484.71	16674.56
484.92	16576.26
485.13	16840.45
485.33	17094.40
485.54	17096.44
485.75	17520.37
485.95	17274.62
486.16	17366.78
486.37	17260.28
486.57	17616.63
486.78	17657.59
486.98	17551.09
487.19	17776.37
487.40	17952.49
487.60	17864.43
487.81	18259.69
488.02	17950.45
488.22	17962.73
488.43	18192.11
488.64	18415.34
488.84	18611.94
489.05	18349.80
489.25	18675.43
489.46	18786.02
489.67	18646.76
489.87	18912.99
490.08	18943.71
490.29	18956.00
490.49	19306.20
490.70	19371.74
490.90	19506.90
491.11	19402.46
491.32	19461.85
491.52	19312.35
491.73	19635.92
491.94	19609.30
492.14	19558.10
492.35	19963.60
492.55	20168.40
492.76	20047.57
492.97	20164.30
493.17	20008.65
493.38	20262.60
493.58	20672.20
493.79	20698.82
494.00	20584.13
494.20	20575.94
494.41	20623.05
494.61	20915.90
494.82	20741.83
495.02	20917.95
495.23	20897.47
495.44	21135.04
495.64	21315.26
495.85	21223.10
496.05	21388.99
496.26	21282.49
496.47	21720.76
496.67	21440.18
496.88	21878.45
497.08	21425.85
497.29	21753.52
497.49	21640.89
497.70	22062.77
497.91	22044.34
498.11	22132.40
498.32	22529.70
498.52	22263.47
498.73	22597.29
498.93	22673.06
499.14	22472.36
499.34	22705.83
499.55	22781.60
499.76	22437.55
499.96	22695.59
500.17	22689.45
500.37	22884.00
500.58	23060.13
500.78	22732.45
500.99	23027.36
501.19	23406.23
501.40	23355.04
501.60	23295.64
501.81	23426.71
502.02	23496.35
502.22	23176.86
502.43	23991.95
502.63	23803.54
502.84	24090.26
503.04	23910.04
503.25	23946.90
503.45	23828.12
503.66	24149.65
503.86	24016.53
504.07	24250.00
504.27	23936.66
504.48	24559.24
504.68	24665.74
504.89	24567.43
505.09	24735.37
505.30	24483.47
505.50	24761.99
505.71	25022.08
505.91	24938.12
506.12	25024.13
506.32	25249.41
506.53	25155.20
506.73	25028.23
506.94	25382.52
507.14	24981.12
507.35	25339.52
507.55	25032.32
507.76	25214.59
507.96	25353.85
508.17	25443.96
508.37	25599.61
508.58	25572.99
508.78	25435.77
508.99	26048.11
509.19	25755.26
509.40	26082.93
509.60	25917.04
509.81	26087.03
510.01	26099.31
510.22	26115.70
510.42	26125.94
510.63	26173.04
510.83	26115.70
511.04	26394.22
511.24	26383.98
511.44	26486.38
511.65	26338.93
511.85	26459.76
512.06	26627.69
512.26	26682.98
512.47	26758.76
512.67	26906.21
512.88	26775.14
513.08	26900.07
513.29	26523.24
513.49	27010.66
513.69	26992.23
513.90	26961.51
514.10	27297.38
514.31	27268.70
514.51	27305.57
514.72	27278.94
514.92	27307.62
515.13	27467.36
515.33	27487.84
515.53	27807.32
515.74	27686.49
515.94	27635.29
516.15	27909.72
516.35	27692.63
516.56	27919.96
516.76	27934.29
516.96	28169.81
517.17	28268.11
517.37	27854.42
517.58	28206.67
517.78	28223.06
517.99	28350.03
518.19	28370.51
518.39	28560.97
518.60	28743.24
518.80	28567.12
519.01	28388.94
519.21	28720.71
519.41	29070.92
519.62	28735.05
519.82	28841.54
520.03	28915.27
520.23	28976.71
520.43	28964.42
520.64	29363.78
520.84	29355.58
521.05	29431.36
521.25	29701.69
521.45	29503.04
521.66	29894.20
521.86	29558.33
522.07	29974.07
522.27	29687.36
522.47	30133.81
522.68	30000.69
522.88	30088.76
523.08	30203.44
523.29	30408.24
523.49	30225.97
523.70	30369.33
523.90	30670.38
524.10	30260.79
524.31	30793.26
524.51	30346.80
524.71	31049.25
524.92	30547.50
525.12	30873.13
525.33	30742.06
525.53	30662.19
525.73	31122.98
525.94	31266.34
526.14	31297.06
526.34	31282.72
526.55	31458.85
526.75	31618.59
526.95	31536.67
527.16	31784.48
527.36	31686.17
527.56	31956.50
527.77	32269.84
527.97	31890.97
528.17	32044.57
528.38	32472.59
528.58	32396.82
528.78	32482.83
528.99	32314.90
529.19	32935.43
529.39	32466.45
529.60	32947.72
529.80	32767.50
530.00	32638.48
530.21	32890.38
530.41	33168.90
530.61	32759.31
530.82	33068.55
531.02	33037.83
531.22	33029.64
531.43	33332.74
531.63	33547.78
531.83	33728.00
532.04	33945.08
532.24	33699.33
532.44	34229.75
532.64	34020.86
532.85	34022.90
533.05	33908.22
533.25	34211.32
533.46	34483.70
533.66	34629.10
533.86	34149.88
534.07	34735.60
534.27	34266.61
534.47	34807.28
534.67	34928.11
534.88	34483.70
535.08	34749.93
535.28	35263.97
535.49	35155.43
535.69	35022.31
535.89	35247.59
536.09	35139.05
536.30	35597.79
536.50	35495.39
536.70	35526.11
536.91	35485.15
537.11	35393.00
537.31	36507.09
537.51	35597.79
537.72	36240.86
537.92	36335.06
538.12	36330.97
538.32	35960.28
538.53	36353.49
538.73	36396.50
538.93	36582.87
539.13	36373.97
539.34	36357.59
539.54	36509.14
539.74	36965.84
539.94	36779.47
540.15	36771.28
540.35	36828.62
540.55	37049.80
540.75	37047.75
540.96	37184.97
541.16	37391.81
541.36	37500.36
541.56	37209.54
541.77	37416.39
541.97	37117.39
542.17	37533.12
542.37	37752.26
542.58	37397.96
542.78	37750.21
542.98	37799.36
543.18	37629.38
543.38	38256.06
543.59	38280.63
543.79	37551.56
543.99	38010.30
544.19	38344.12
544.40	37832.13
544.60	38624.69
544.80	38428.09
545.00	38503.86
545.20	38643.12
545.41	38442.42
545.61	38366.65
545.81	38514.10
546.01	38366.65
546.21	38763.95
546.42	38815.15
546.62	39191.98
546.82	38827.44
547.02	38806.96
547.22	38862.26
547.43	39544.23
547.63	39204.27
547.83	39499.17
548.03	38989.23
548.23	39355.82
548.44	39435.69
548.64	39636.39
548.84	39249.32
549.04	39304.62
549.24	39716.26
549.45	40002.97
549.65	39765.41
549.85	39468.45
550.05	39925.15
550.25	39490.98
550.45	40377.75
550.66	40068.51
550.86	39923.10
551.06	40400.28
551.26	40283.55
551.46	40240.54
551.66	40359.32
551.87	40625.56
552.07	40254.87
552.27	40285.59
552.47	40332.70
552.67	40752.53
552.87	40893.84
553.07	40910.22
553.28	40850.83
553.48	40666.52
553.68	40873.36
553.88	41006.48
554.08	40924.56
554.28	40701.33
554.48	41084.30
554.69	41141.64
554.89	41133.45
555.09	41481.61
555.29	40994.19
555.49	41508.23
555.69	41299.34
555.89	41317.77
556.10	41516.42
556.30	41403.78
556.50	41670.02
556.70	41420.17
556.90	41747.84
557.10	41700.74
557.30	41780.61
557.50	41655.68
557.70	42036.61
557.91	41907.58
558.11	41680.26
558.31	42284.41
558.51	41620.87
558.71	42020.22
558.91	41842.05
559.11	41883.01
559.31	41899.39
559.51	42003.84
559.72	42478.97
559.92	42505.59
560.12	42022.27
560.32	42511.74
560.52	42214.78
560.72	42653.05
560.92	42440.06
561.12	42749.30
561.32	43054.45
561.52	42655.09
561.72	42866.03
561.93	42812.79
562.13	42739.06
562.33	42648.95
562.53	43449.70
562.73	42796.40
562.93	43003.25
563.13	42767.73
563.33	43228.52
563.53	43482.47
563.73	42820.98
563.93	43283.82
564.13	43513.19
564.33	43050.35
564.53	43132.27
564.74	43638.12
564.94	43083.12
565.14	43539.82
565.34	43308.40
565.54	43636.07
565.74	43347.31
565.94	43916.64
566.14	44170.59
566.34	43568.49
566.54	44397.91
566.74	43691.37
566.94	43904.35
567.14	43982.18
567.34	43986.27
567.54	44307.80
567.74	43896.16
567.94	44156.25
568.14	44471.64
568.34	44504.41
568.54	44012.90
568.74	44248.41
568.94	44541.27
569.14	44619.10
569.34	44719.45
569.54	44375.39
569.75	44402.01
569.95	44545.37
570.15	44881.24
570.35	44692.82
570.55	44744.02
570.75	44725.59
570.95	44952.91
571.15	45106.51
571.35	44774.74
571.55	45360.46
571.75	44864.85
571.95	44871.00
572.15	45047.12
572.35	45647.18
572.55	45198.67
572.75	45086.03
572.95	45409.61
573.15	45454.67
573.35	45409.61
573.55	45446.47
573.75	45200.72
573.95	45585.74
574.15	45071.70
574.35	45800.77
574.55	45661.51
574.75	45569.35
574.95	46122.30
575.15	45763.91
575.34	45868.36
575.54	45909.32
575.74	46245.18
575.94	46067.01
576.14	46212.41
576.34	46220.61
576.54	46474.55
576.74	46605.62
576.94	46298.43
577.14	46398.78
577.34	46601.53
577.54	46562.62
577.74	46675.26
577.94	46816.57
578.14	46708.02
578.34	47271.21
578.54	46316.86
578.74	46449.98
578.94	46695.74
579.14	46587.19
579.34	46728.50
579.54	46941.49
579.74	47271.21
579.94	47060.27
580.13	47488.30
580.33	47318.32
580.53	47478.06
580.73	47324.46
580.93	47314.22
581.13	47156.53
581.33	47373.61
581.53	47711.53
581.73	47420.72
581.93	47781.16
582.13	47414.57
582.33	48014.63
582.53	47807.78
582.73	47895.85
582.92	48317.73
583.12	48196.90
583.32	47920.42
583.52	47906.08
583.72	48203.04
583.92	47988.00
584.12	47689.00
584.32	48545.05
584.52	48104.74
584.72	48155.94
584.92	48207.14
585.11	48770.33
585.31	48629.02
585.51	48583.96
585.71	48291.10
585.91	49116.43
586.11	48641.31
586.31	48538.91
586.51	48397.60
586.71	49044.76
586.91	48755.99
587.10	48911.64
587.30	49263.89
587.50	49186.07
587.70	48618.78
587.90	49222.93
588.10	49306.90
588.30	48813.34
588.50	48993.56
588.69	49095.95
588.89	49356.05
589.09	49534.22
589.29	49569.04
589.49	49452.30
589.69	49167.63
589.89	49569.04
590.08	49429.77
590.28	49272.08
590.48	49263.89
590.68	48936.21
590.88	49476.88
591.08	49669.39
591.28	49358.09
591.47	49827.08
591.67	49921.29
591.87	49454.35
592.07	49861.90
592.27	49970.44
592.47	49685.77
592.67	49861.90
592.86	49759.50
593.06	49900.81
593.26	50547.96
593.46	49964.29
593.66	50160.90
593.86	50111.75
594.05	49685.77
594.25	50689.27
594.45	50117.89
594.65	50119.94
594.85	50183.43
595.05	50443.52
595.24	50603.26
595.44	50304.26
595.64	50758.91
595.84	50447.61
596.04	50339.07
596.23	50627.84
596.43	50967.80
596.63	50623.74
596.83	50816.25
597.03	51082.48
597.22	51160.31
597.42	50984.18
597.62	51123.44
597.82	50584.83
598.02	51102.96
598.21	51152.12
598.41	50654.46
598.61	51070.20
598.81	50957.56
599.01	51141.88
599.20	51170.55
599.40	50920.70
599.60	51481.84
599.80	51197.17
600.00	51221.75
600.19	51643.63
600.39	51059.96
600.59	51289.33
600.79	51614.96
600.98	51350.77
601.18	51832.04
601.38	51647.72
601.58	51729.64
601.78	51952.87
601.97	51512.56
602.17	51940.58
602.37	51963.11
602.57	51991.78
602.76	52251.87
602.96	51827.95
603.16	52444.38
603.36	52151.52
603.55	52231.40
603.75	52223.20
603.95	52380.90
604.15	52212.96
604.34	52346.08
604.54	52401.38
604.74	52362.46
604.94	52212.96
605.13	52452.58
605.33	52647.13
605.53	51907.82
605.73	52618.46
605.92	52354.27
606.12	52440.29
606.32	52503.77
606.52	52772.06
606.71	52411.62
606.91	52827.35
607.11	52712.67
607.30	52970.71
607.50	53099.73
607.70	53333.20
607.90	52649.18
608.09	52944.09
608.29	53048.53
608.49	53335.25
608.68	52546.78
608.88	52966.62
609.08	53032.15
609.28	53122.26
609.47	53294.29
609.67	53554.38
609.87	52798.68
610.06	53396.69
610.26	53419.22
610.46	53177.56
610.66	53112.02
610.85	53408.98
611.05	53177.56
611.25	53556.43
611.44	53245.14
611.64	53347.54
611.84	53040.34
612.03	52780.25
612.23	53673.16
612.43	53581.01
612.62	53259.48
612.82	53822.67
613.02	53810.38
613.21	53517.52
613.41	52847.83
613.61	53454.03
613.80	53083.35
614.00	53587.15
614.20	53243.09
614.39	53898.44
614.59	54082.76
614.79	53689.55
614.98	53556.43
615.18	53667.02
615.38	53408.98
615.57	53720.27
615.77	53810.38
615.97	53650.64
616.16	53677.26
616.36	53843.15
616.56	53710.03
616.75	53777.61
616.95	53650.64
617.15	54041.80
617.34	53789.90
617.54	53591.25
617.74	54187.21
617.93	54133.96
618.13	53368.02
618.32	53812.43
618.52	53908.68
618.72	54082.76
618.91	53902.54
619.11	53548.24
619.31	53671.12
619.50	53847.24
619.70	53478.61
619.90	54101.19
620.09	53884.11
620.29	53736.65
620.48	53712.08
620.68	54170.82
620.88	53777.61
621.07	53779.66
621.27	53966.02
621.46	53421.26
621.66	53888.20
621.86	53869.77
622.05	53718.22
622.25	54250.69
622.44	53597.39
622.64	53601.49
622.84	54119.62
623.03	53798.09
623.23	53839.05
623.42	54228.16
623.62	54125.77
623.82	54232.26
624.01	53863.63
624.21	54136.01
624.40	53961.93
624.60	54404.29
624.80	54068.42
624.99	54271.17
625.19	53855.43
625.38	53959.88
625.58	54082.76
625.77	54215.88
625.97	54082.76
626.17	53785.80
626.36	54019.27
626.56	54475.97
626.75	53906.63
626.95	54201.54
627.14	54045.90
627.34	54121.67
627.54	54213.83
627.73	54269.12
627.93	54240.45
628.12	54068.42
628.32	54408.39
628.51	54439.11
628.71	54199.49
628.90	54123.72
629.10	54287.56
629.30	54445.25
629.49	54428.87
629.69	54305.99
629.88	54262.98
630.08	54990.01
630.27	54637.76
630.47	54486.21
630.66	54803.64
630.86	54691.01
631.05	54174.92
631.25	54873.27
631.44	54525.12
631.64	54623.42
631.84	54543.55
632.03	54893.75
632.23	54404.29
632.42	55030.97
632.62	55153.85
632.81	54457.54
633.01	54566.08
633.20	55266.48
633.40	54727.87
633.59	54998.20
633.79	54447.30
633.98	55104.70
634.18	54895.80
634.37	55260.34
634.57	54940.86
634.76	55340.21
634.96	54881.47
635.15	55307.44
635.35	55047.35
635.54	54793.40
635.74	54942.91
635.93	55182.52
636.13	55260.34
636.32	55420.08
636.52	54592.70
636.71	55129.27
636.91	55014.58
637.10	55338.16
637.30	54932.67
637.49	54674.62
637.69	55086.26
637.88	55844.01
638.08	55340.21
638.27	55456.95
638.46	55080.12
638.66	55512.24
638.85	55223.48
639.05	55714.99
639.24	55751.85
639.44	54875.32
639.63	55153.85
639.83	55692.46
640.02	55534.77
640.22	55395.51
640.41	55727.28
640.61	55112.89
640.80	55563.44
640.99	55667.89
641.19	55811.24
641.38	55780.52
641.58	55815.34
641.77	55497.91
641.97	55624.88
642.16	55301.30
642.36	55837.87
642.55	56112.30
642.74	55329.97
642.94	56224.93
643.13	55266.48
643.33	55913.64
643.52	55874.73
643.72	55981.23
643.91	55714.99
644.10	56288.42
644.30	56016.04
644.49	56155.30
644.69	56304.80
644.88	56272.04
645.08	55870.64
645.27	56079.53
645.46	56042.66
645.66	56388.77
645.85	56030.38
646.05	56577.18
646.24	56269.99
646.43	56089.77
646.63	56571.04
646.82	56075.43
647.02	56405.16
647.21	56556.70
647.40	56280.23
647.60	56644.77
647.79	56798.37
647.99	56732.83
648.18	56054.95
648.37	56243.37
648.57	56841.37
648.76	56378.53
648.96	56509.60
649.15	56890.52
649.34	56716.45
649.54	56669.34
649.73	56505.51
649.92	56935.58
650.12	56620.19
650.31	56521.89
650.51	56743.07
650.70	57121.94
650.89	56702.11
651.09	57138.33
651.28	57001.11
651.47	57027.74
651.67	57281.69
651.86	57197.72
652.06	56573.09
652.25	56986.78
652.44	57044.12
652.64	56546.47
652.83	56612.00
653.02	56992.92
653.22	57300.12
653.41	56812.70
653.60	56849.56
653.80	56923.29
653.99	56939.68
654.18	56472.74
654.38	56648.86
654.57	56898.72
654.76	56818.84
654.96	56720.54
655.15	56712.35
655.34	56738.97
655.54	56476.83
655.73	56597.66
655.92	57011.35
656.12	56978.59
656.31	56853.66
656.50	56435.87
656.70	56915.10
656.89	57009.31
657.08	56880.28
657.28	56753.31
657.47	56833.18
657.66	56843.42
657.86	57062.55
658.05	57298.07
658.24	57017.50
658.43	56730.78
658.63	57207.96
658.82	57285.78
659.01	57185.43
659.21	56908.96
659.40	56700.06
659.59	56794.27
659.79	57373.84
659.98	57064.60
660.17	57400.47
660.36	57099.42
660.56	57031.83
660.75	57279.64
660.94	56974.49
661.14	56517.79
661.33	56661.15
661.52	56949.92
661.71	56878.24
661.91	56544.42
662.10	56620.19
662.29	57136.28
662.49	57066.65
662.68	56595.62
662.87	56837.28
663.06	57293.97
663.26	56745.12
663.45	57336.98
663.64	56714.40
663.83	57375.89
664.03	57144.47
664.22	57300.12
664.41	57117.85
664.60	56501.41
664.80	57044.12
664.99	56519.84
665.18	56718.49
665.37	57005.21
665.57	56827.04
665.76	56294.56
665.95	56669.34
666.14	57048.22
666.34	56757.41
666.53	56806.56
666.72	56890.52
666.91	56804.51
667.11	56714.40
667.30	57113.75
667.49	56558.75
667.68	56923.29
667.87	56732.83
668.07	56669.34
668.26	56827.04
668.45	56693.92
668.64	56474.79
668.84	56913.05
669.03	56640.67
669.22	56691.87
669.41	56861.85
669.60	56767.65
669.80	56886.43
669.99	56188.07
670.18	56855.71
670.37	56403.11
670.57	56476.83
670.76	56513.70
670.95	56855.71
671.14	56018.09
671.33	56034.47
671.53	56571.04
671.72	56530.08
671.91	56177.83
672.10	56323.24
672.29	56063.14
672.48	56153.26
672.68	56534.18
672.87	56513.70
673.06	56292.52
673.25	56163.50
673.44	56071.34
673.64	56269.99
673.83	55981.23
674.02	55674.03
674.21	56073.38
674.40	56245.41
674.59	56007.85
674.79	55991.47
674.98	55469.23
675.17	56106.15
675.36	55573.68
675.55	56059.05
675.74	55786.67
675.94	55768.24
676.13	56030.38
676.32	56028.33
676.51	56085.67
676.70	55895.21
676.89	55831.72
677.08	56100.01
677.28	56200.36
677.47	56482.98
677.66	56044.71
677.85	55884.97
678.04	56358.05
678.23	55772.33
678.42	55717.04
678.62	55442.61
678.81	56075.43
679.00	55475.38
679.19	56269.99
679.38	55495.86
679.57	55897.26
679.76	56073.38
679.96	55739.57
680.15	55721.13
680.34	55606.45
680.53	55817.39
680.72	55678.13
680.91	56054.95
681.10	55430.32
681.29	55788.72
681.48	55579.82
681.68	55135.41
681.87	55993.51
682.06	55657.65
682.25	55487.67
682.44	54867.13
682.63	55596.21
682.82	54711.49
683.01	55256.24
683.20	55542.96
683.39	55514.29
683.59	55213.24
683.78	55104.70
683.97	55010.49
684.16	55268.53
684.35	55178.42
684.54	54715.58
684.73	55033.02
684.92	55030.97
685.11	54740.16
685.30	54834.36
685.49	55282.87
685.69	55024.82
685.88	54795.45
686.07	54674.62
686.26	54834.36
686.45	55086.26
686.64	55076.02
686.83	54834.36
687.02	54850.75
687.21	54772.92
687.40	54723.77
687.59	54506.69
687.78	54942.91
687.97	54752.44
688.16	54695.10
688.35	54508.74
688.54	54103.24
688.74	54678.72
688.93	54707.39
689.12	55106.74
689.31	54453.44
689.50	55073.98
689.69	54179.01
689.88	54031.56
690.07	54510.78
690.26	54174.92
690.45	54711.49
690.64	54516.93
690.83	54340.80
691.02	54170.82
691.21	53927.11
691.40	54164.68
691.59	54045.90
691.78	54006.98
691.97	54295.75
692.16	54408.39
692.35	54336.71
692.54	54029.51
692.73	53943.50
692.92	53945.54
693.11	54277.32
693.30	53787.85
693.49	54346.95
693.68	53914.83
693.87	54154.44
694.06	54006.98
694.25	53632.21
694.44	53630.16
694.63	53697.74
694.82	53941.45
695.01	53673.16
695.20	53603.53
695.39	53652.69
695.58	53642.45
695.77	53849.29
695.96	53454.03
696.15	53628.11
696.34	53298.39
696.53	53794.00
696.72	53628.11
696.91	53671.12
697.10	53460.18
697.29	53546.19
697.48	53718.22
697.67	53308.63
697.86	53251.28
698.05	52962.52
698.24	54006.98
698.43	52622.56
698.62	53427.41
698.81	52923.61
699.00	53732.56
699.19	53079.25
699.38	53189.84
699.57	52901.08
699.76	53548.24
699.95	53105.88
700.14	52788.44
700.32	53155.03
700.51	52731.10
700.70	53470.42
700.89	53214.42
701.08	53015.77
701.27	52960.47
701.46	53003.48
701.65	52335.84
701.84	52913.37
702.03	53044.44
702.22	52651.23
702.41	53048.53
702.60	52987.10
702.79	52468.96
702.98	52495.58
703.17	52835.55
703.35	52868.31
703.54	52640.99
703.73	52995.29
703.92	53044.44
704.11	52690.14
704.30	52835.55
704.49	52180.20
704.68	52647.13
704.87	52417.76
705.06	52747.48
705.25	52649.18
705.43	52339.94
705.62	52753.63
705.81	52544.73
706.00	52159.72
706.19	52221.16
706.38	52440.29
706.57	52458.72
706.76	52505.82
706.95	52368.61
707.14	52239.59
707.32	52151.52
707.51	52061.41
707.70	52159.72
707.89	52163.81
708.08	52460.77
708.27	51954.92
708.46	52411.62
708.65	52262.11
708.84	52903.13
709.02	52384.99
709.21	52411.62
709.40	51977.45
709.59	52421.86
709.78	51954.92
709.97	52321.51
710.16	52010.21
710.34	52241.63
710.53	52448.48
710.72	51756.27
710.91	51991.78
711.10	52055.27
711.29	51647.72
711.48	52092.13
711.66	51672.30
711.85	52008.17
712.04	51959.02
712.23	51909.86
712.42	51795.18
712.61	51682.54
712.80	51709.16
712.98	51770.60
713.17	51733.74
713.36	51901.67
713.55	51410.16
713.74	51696.88
713.93	51733.74
714.11	51870.95
714.30	51401.97
714.49	51412.21
714.68	51705.07
714.87	52024.55
715.06	51672.30
715.24	51219.70
715.43	51770.60
715.62	51238.13
715.81	51131.64
716.00	51739.88
716.18	50826.49
716.37	50889.98
716.56	51205.36
716.75	51463.41
716.94	50975.99
717.12	51107.06
717.31	51350.77
717.50	50777.34
717.69	51422.45
717.88	51033.33
718.06	50853.11
718.25	51268.85
718.44	50652.41
718.63	51252.47
718.82	50750.71
719.00	51068.15
719.19	50889.98
719.38	50953.46
719.57	50429.18
719.76	50543.87
719.94	50406.65
720.13	50650.36
720.32	50732.28
720.51	50328.83
720.69	50273.54
720.88	50009.35
721.07	50009.35
721.26	50226.43
721.44	49970.44
721.63	49941.77
721.82	49714.44
722.01	49687.82
722.20	50033.92
722.38	49489.16
722.57	49167.63
722.76	49954.05
722.95	49712.39
723.13	50105.60
723.32	49542.41
723.51	49812.74
723.70	49153.30
723.88	49679.63
724.07	49452.30
724.26	49603.85
724.44	49243.41
724.63	49575.18
724.82	49259.79
725.01	49349.90
725.19	49501.45
725.38	49157.39
725.57	49259.79
725.76	49542.41
725.94	48583.96
726.13	48555.29
726.32	49444.11
726.51	48536.86
726.69	49462.54
726.88	49517.84
727.07	49116.43
727.25	49089.81
727.44	49259.79
727.63	49181.97
727.82	49059.09
728.00	48987.41
728.19	48848.15
728.38	49257.74
728.56	48373.02
728.75	49290.51
728.94	48868.63
729.12	49351.95
729.31	49329.42
729.50	49034.52
729.69	48784.66
729.87	49161.49
730.06	48858.39
730.25	49210.64
730.43	49286.42
730.62	48647.45
730.81	49208.59
730.99	49128.72
731.18	48475.42
731.37	48889.11
731.55	49153.30
731.74	49280.27
731.93	49042.71
732.11	49116.43
732.30	49157.39
732.49	49075.48
732.67	49124.63
732.86	48934.17
733.05	48833.81
733.23	48981.27
733.42	48874.77
733.61	48954.64
733.79	48669.98
733.98	48940.31
734.17	48727.32
734.35	48680.22
734.54	48489.76
734.73	49366.29
734.91	48891.16
735.10	48850.20
735.29	49384.72
735.47	48452.89
735.66	48600.35
735.84	48495.90
736.03	48493.85
736.22	48774.42
736.40	48170.27
736.59	48291.10
736.78	48645.40
736.96	48665.88
737.15	48747.80
737.33	48674.07
737.52	48141.60
737.71	48264.48
737.89	48461.08
738.08	47942.95
738.27	47807.78
738.45	48608.54
738.64	48461.08
738.82	47686.95
739.01	47949.09
739.20	48315.68
739.38	47920.42
739.57	48194.85
739.75	48004.39
739.94	48129.31
740.13	48248.10
740.31	47799.59
740.50	48233.76
740.68	47953.19
740.87	48026.92
741.06	48362.78
741.24	47942.95
741.43	48194.85
741.61	47928.61
741.80	47885.61
741.99	47273.26
742.17	48121.12
742.36	47883.56
742.54	47625.51
742.73	47744.30
742.91	48155.94
743.10	47490.35
743.29	47885.61
743.47	47654.18
743.66	47830.31
743.84	47768.87
744.03	47942.95
744.21	47285.55
744.40	48063.78
744.59	47510.83
744.77	47142.19
744.96	47441.20
745.14	47359.28
745.33	47013.17
745.51	47187.25
745.70	47152.43
745.88	46873.91
746.07	46980.40
746.26	46888.24
746.44	47177.01
746.63	47234.35
746.81	46714.17
747.00	46847.29
747.18	47211.82
747.37	46570.81
747.55	46535.99
747.74	47258.93
747.92	46683.45
748.11	46896.44
748.29	46427.45
748.48	46492.99
748.66	46316.86
748.85	46904.63
749.03	46738.74
749.22	47150.38
749.41	46415.16
749.59	46855.48
749.78	46363.96
749.96	46124.35
750.15	46052.67
750.33	46310.72
750.52	46091.58
750.70	46476.60
750.89	46118.21
751.07	46011.71
751.26	46314.81
751.44	46208.32
751.63	46036.29
751.81	45884.74
752.00	45745.48
752.18	45839.68
752.37	45638.98
752.55	45491.53
752.74	45847.88
752.92	45925.70
753.10	45395.28
753.29	46155.07
753.47	45561.16
753.66	45471.05
753.84	45751.62
754.03	45776.20
754.21	45442.38
754.40	45602.12
754.58	45499.72
754.77	45665.61
754.95	44868.95
755.14	45565.26
755.32	45399.37
755.51	44844.37
755.69	45215.05
755.88	45522.25
756.06	45376.84
756.24	45079.89
756.43	44997.97
756.61	45012.31
756.80	45000.02
756.98	44602.71
757.17	44574.04
757.35	44944.72
757.54	44580.18
757.72	44647.77
757.90	44664.15
758.09	44422.49
758.27	44377.43
758.46	44615.00
758.64	44508.50
758.83	44471.64
759.01	44434.78
759.19	44021.09
759.38	44356.96
759.56	44365.15
759.75	44121.44
759.93	44324.19
760.12	43951.46
760.30	44125.53
760.48	43928.93
760.67	44049.76
760.85	44096.86
761.04	44440.92
761.22	44105.06
761.40	43611.49
761.59	43576.68
761.77	43959.65
761.96	43670.89
762.14	43787.62
762.32	43564.39
762.51	43543.91
762.69	43697.51
762.88	43695.46
763.06	43668.84
763.24	43349.35
763.43	43214.19
763.61	43132.27
763.80	43095.41
763.98	43074.93
764.16	43271.53
764.35	42694.00
764.53	42595.70
764.72	43021.68
764.90	42919.28
765.08	42849.65
765.27	43001.20
765.45	42478.97
765.63	42335.61
765.82	42454.39
766.00	42370.43
766.18	42521.98
766.37	42812.79
766.55	42337.66
766.74	42358.14
766.92	42378.62
767.10	42274.17
767.29	42218.88
767.47	41543.05
767.65	41985.41
767.84	41760.13
768.02	41717.12
768.20	41530.76
768.39	41987.46
768.57	41880.96
768.75	41272.71
768.94	41772.42
769.12	41729.41
769.30	41594.25
769.49	41545.09
769.67	41440.65
769.85	41219.47
770.04	41565.57
770.22	41035.15
770.40	41035.15
770.59	41080.21
770.77	41115.02
770.95	41266.57
771.14	40930.70
771.32	41047.44
771.50	40787.35
771.69	40500.63
771.87	41041.29
772.05	40818.07
772.24	40390.04
772.42	40773.01
772.60	40752.53
772.78	40723.86
772.97	40523.16
773.15	40588.69
773.33	40478.10
773.52	40783.25
773.70	40492.44
773.88	40494.49
774.07	40400.28
774.25	40807.83
774.43	40641.94
774.61	40220.06
774.80	40529.30
774.98	40557.97
775.16	40279.45
775.34	40551.83
775.53	40068.51
775.71	40746.39
775.89	40371.61
776.08	40396.18
776.26	40488.34
776.44	40375.70
776.62	40506.77
776.81	40416.66
776.99	40428.95
777.17	40338.84
777.35	41006.48
777.54	40672.66
777.72	40703.38
777.90	40510.87
778.08	40953.23
778.27	40514.97
778.45	40490.39
778.63	40775.06
778.81	40314.26
779.00	40990.09
779.18	40813.97
779.36	41295.24
779.54	40641.94
779.73	40525.21
779.91	40928.66
780.09	40701.33
780.27	40740.24
780.46	40469.91
780.64	41051.53
780.82	40629.65
781.00	40613.27
781.19	41137.55
781.37	41188.75
781.55	41123.21
781.73	41127.31
781.91	40713.62
782.10	40904.08
782.28	41166.22
782.46	40756.63
782.64	40965.52
782.82	40850.83
783.01	41190.80
783.19	41350.54
783.37	41022.86
783.55	40940.94
783.74	41383.30
783.92	40973.71
784.10	41192.84
784.28	40953.23
784.46	40641.94
784.64	40689.04
784.83	41006.48
785.01	41301.39
785.19	41053.58
785.37	41031.05
785.55	41074.06
785.74	40709.52
785.92	40902.03
786.10	41278.86
786.28	40551.83
786.46	40773.01
786.64	40293.79
786.83	40529.30
787.01	40637.84
787.19	40676.76
787.37	40748.43
787.55	40746.39
787.74	40109.47
787.92	40506.77
788.10	40240.54
788.28	40359.32
788.46	40291.74
788.64	40179.10
788.82	40424.86
789.01	40013.21
789.19	40418.71
789.37	39691.68
789.55	39959.97
789.73	39595.43
789.91	39718.31
790.09	39749.03
790.28	39771.55
790.46	39665.06
790.64	39732.64
790.82	39288.23
791.00	39335.34
791.18	38737.33
791.36	39372.20
791.55	39116.20
791.73	39327.14
791.91	38829.49
792.09	38786.48
792.27	38919.60
792.45	38915.50
792.63	38938.03
792.81	39065.00
793.00	39112.11
793.18	38645.17
793.36	38710.71
793.54	38669.75
793.72	38423.99
793.90	38567.35
794.08	37946.81
794.26	38532.53
794.44	37926.33
794.62	37780.93
794.81	37993.92
794.99	37465.54
795.17	37995.96
795.35	37811.65
795.53	37692.86
795.71	38112.70
795.89	37397.96
796.07	37135.82
796.25	37203.40
796.43	37154.25
796.61	37027.28
796.80	36851.15
796.98	37057.99
797.16	37293.51
797.34	36961.74
797.52	36748.75
797.70	36959.69
797.88	36816.33
798.06	36107.74
798.24	36589.01
798.42	36324.82
798.60	36060.63
798.78	36398.55
798.96	36259.29
799.14	36103.64
799.32	36097.50
799.51	36060.63
799.69	35993.05
799.87	35868.12
800.05	35651.04
800.23	35884.51
800.41	35620.32
800.59	35833.31
800.77	35423.72
800.95	35067.37
801.13	35216.87
801.31	34950.63
801.49	35188.20
801.67	34919.92
801.85	35251.69
802.03	35007.98
802.21	34803.18
802.39	34473.46
802.57	34770.41
802.75	34436.59
802.93	34549.23
803.11	34579.95
803.29	34299.38
803.47	34223.61
803.65	34446.83
803.83	34102.78
804.01	34293.24
804.19	33854.97
804.37	33959.42
804.55	33951.23
804.73	33592.83
804.91	33920.51
805.09	33709.57
805.27	33646.08
805.45	33828.35
805.63	33811.96
805.81	33734.14
805.99	33703.42
806.17	33512.96
806.35	33496.58
806.53	33521.15
806.71	33000.97
806.89	33289.73
807.07	33173.00
807.25	32990.73
807.43	33154.57
807.61	33408.51
807.79	32939.53
807.97	33003.02
808.15	32570.90
808.33	32601.61
808.51	32900.62
808.69	32658.96
808.87	32349.71
809.05	32566.80
809.23	32142.87
809.41	32214.55
809.59	32052.76
809.77	32470.54
809.95	32060.95
810.13	32067.09
810.31	31981.08
810.49	31913.50
810.67	31927.83
810.84	31888.92
811.02	32202.26
811.20	31440.42
811.38	31741.47
811.56	31473.18
811.74	31700.51
811.92	31350.31
812.10	31202.85
812.28	31401.50
812.46	31225.38
812.64	31258.15
812.82	31094.31
813.00	31434.27
813.18	30928.42
813.36	31227.43
813.53	31104.55
813.71	31143.46
813.89	30819.88
814.07	31252.00
814.25	31014.44
814.43	30559.79
814.61	30434.86
814.79	30563.89
814.97	30801.45
815.15	30740.01
815.33	30490.16
815.50	30299.70
815.68	30459.44
815.86	30492.21
816.04	30242.35
816.22	30037.56
816.40	30369.33
816.58	30137.91
816.76	29929.02
816.94	30189.11
817.11	30070.33
817.29	30260.79
817.47	29822.52
817.65	29644.35
817.83	29660.73
818.01	29554.24
818.19	29814.33
818.37	29703.74
818.54	29355.58
818.72	29386.30
818.90	29095.49
819.08	29300.29
819.26	29480.51
819.44	29562.43
819.62	29220.42
819.80	29298.24
819.97	29437.50
820.15	29355.58
820.33	29326.91
820.51	29449.79
820.69	28882.50
820.87	29007.43
821.05	29511.23
821.22	29091.40
821.40	29269.57
821.58	28989.00
821.76	28546.64
821.94	28622.41
822.12	28694.09
822.29	28745.29
822.47	28470.86
822.65	29056.58
822.83	28681.80
823.01	28642.89
823.19	28560.97
823.36	28497.49
823.54	28509.77
823.72	28352.08
823.90	28552.78
824.08	28032.60
824.25	28270.16
824.43	28210.77
824.61	28474.96
824.79	28417.61
824.97	27788.89
825.15	27876.95
825.32	28210.77
825.50	27819.61
825.68	27899.48
825.86	28223.06
826.04	28208.72
826.21	28259.92
826.39	27770.46
826.57	27700.83
826.75	27498.08
826.93	27510.36
827.10	27518.56
827.28	27661.91
827.46	27803.22
827.64	27625.05
827.81	27541.08
827.99	27848.28
828.17	27483.74
828.35	27334.24
828.53	27455.07
828.70	27303.52
828.88	27465.31
829.06	27625.05
829.24	27547.23
829.41	26932.84
829.59	27375.20
829.77	27049.57
829.95	27133.54
830.12	27119.20
830.30	26963.56
830.48	27287.14
830.66	27311.71
830.84	27184.74
831.01	27033.19
831.19	26973.80
831.37	26689.13
831.55	26988.13
831.72	27068.00
831.90	26893.93
832.08	26973.80
832.25	26828.39
832.43	26777.19
832.61	26551.91
832.79	26541.68
832.96	26795.62
833.14	26756.71
833.32	26916.45
833.50	26574.44
833.67	26797.67
833.85	26426.99
834.03	26179.18
834.20	26297.97
834.38	26639.98
834.56	26801.77
834.74	26386.03
834.91	26381.93
835.09	26201.71
835.27	26523.24
835.44	26396.27
835.62	25810.55
835.80	25970.29
835.98	26103.41
836.15	26314.35
836.33	25970.29
836.51	25980.53
836.68	25843.32
836.86	25964.15
837.04	25978.48
837.21	26179.18
837.39	25986.68
837.57	26046.07
837.75	25939.57
837.92	25677.43
838.10	25652.86
838.28	25202.30
838.45	25386.62
838.63	25474.68
838.81	25409.15
838.98	25816.69
839.16	25466.49
839.34	25257.60
839.51	25552.51
839.69	25413.24
839.87	25376.38
840.04	25267.84
840.22	25325.18
840.40	25450.11
840.57	25220.74
840.75	25372.28
840.93	24751.75
841.10	25298.56
841.28	25558.65
841.46	24936.07
841.63	25466.49
841.81	25241.21
841.98	25169.54
842.16	25013.89
842.34	25282.17
842.51	25083.52
842.69	25087.62
842.87	25210.50
843.04	24981.12
843.22	25034.37
843.40	24974.98
843.57	24848.00
843.75	25093.76
843.92	24974.98
844.10	24743.56
844.28	24495.75
844.45	24864.39
844.63	24911.49
844.81	24473.23
844.98	24938.12
845.16	24475.27
845.33	24778.37
845.51	24364.68
845.69	24450.70
845.86	24415.88
846.04	24358.54
846.21	24286.86
846.39	24120.98
846.57	24192.65
846.74	24432.27
846.92	24202.89
847.09	23856.79
847.27	23936.66
847.45	24401.55
847.62	24319.63
847.80	24161.94
847.97	24465.03
848.15	24026.77
848.32	23946.90
848.50	24139.41
848.68	23754.39
848.85	23893.65
849.03	23615.13
849.20	23836.31
849.38	23787.16
849.56	23770.77
849.73	23641.75
849.91	23709.33
850.08	23746.20
850.26	23488.15
850.43	23770.77
850.61	23738.01
850.78	23240.35
850.96	23803.54
851.14	23328.41
851.31	23586.46
851.49	23572.12
851.66	23568.02
851.84	23467.67
852.01	23707.29
852.19	23639.70
852.36	23291.55
852.54	23332.51
852.71	23334.56
852.89	23318.17
853.07	23307.93
853.24	23283.36
853.42	23219.87
853.59	22955.68
853.77	22945.44
853.94	23402.14
854.12	23078.56
854.29	22853.28
854.47	22976.16
854.64	23131.81
854.82	22830.76
854.99	23092.90
855.17	23074.46
855.34	22789.80
855.52	22716.07
855.69	23248.54
855.87	22783.65
856.04	22746.79
856.22	22750.88
856.39	22541.99
856.57	22746.79
856.74	22896.29
856.92	22689.45
857.09	22673.06
857.27	22632.10
857.44	22603.43
857.62	22562.47
857.79	22388.39
857.97	22480.55
858.14	22347.44
858.32	22118.06
858.49	22525.61
858.67	22255.28
858.84	22273.71
859.02	22116.01
859.19	22216.36
859.37	21937.84
859.54	22263.47
859.72	22503.08
859.89	22290.09
860.06	21831.35
860.24	21782.20
860.41	22122.16
860.59	21788.34
860.76	21966.51
860.94	21823.16
861.11	21970.61
861.29	21833.39
861.46	21927.60
861.64	21706.42
861.81	21731.00
861.98	21911.22
862.16	21601.97
862.33	21626.55
862.51	21536.44
862.68	21573.30
862.86	21571.25
863.03	21393.08
863.21	21431.99
863.38	21448.38
863.55	21382.84
863.73	21704.37
863.90	21632.69
864.08	21266.11
864.25	21542.58
864.43	21044.93
864.60	21284.54
864.77	21294.78
864.95	21171.90
865.12	21182.14
865.30	21128.89
865.47	21018.30
865.64	21077.69
865.82	21407.42
865.99	21440.18
866.17	21085.89
866.34	20999.87
866.51	20897.47
866.69	20954.82
866.86	21180.09
867.04	20790.98
867.21	20629.19
867.38	20899.52
867.56	20846.27
867.73	20565.70
867.91	20680.39
868.08	20702.92
868.25	20559.56
868.43	20391.62
868.60	20524.74
868.78	20657.86
868.95	20528.84
869.12	20623.05
869.30	20475.59
869.47	20459.21
869.64	19971.79
869.82	20289.23
869.99	20436.68
870.16	20219.60
870.34	20414.15
870.51	20180.68
870.69	19941.07
870.86	20076.24
871.03	20109.01
871.21	19928.78
871.38	20248.27
871.55	19711.70
871.73	20123.34
871.90	19979.98
872.07	19945.17
872.25	19625.68
872.42	19564.25
872.59	19820.24
872.77	19697.36
872.94	19504.85
873.11	19572.44
873.29	19754.71
873.46	19572.44
873.63	19246.81
873.81	19384.02
873.98	19211.99
874.15	19310.30
874.33	18837.22
874.50	19033.82
874.67	19238.62
874.85	19152.60
875.02	19183.32
875.19	19066.59
875.37	18931.42
875.54	18968.29
875.71	19039.97
875.88	18595.56
876.06	18773.73
876.23	19111.64
876.40	18781.92
876.58	18802.40
876.75	18794.21
876.92	18695.91
877.10	18886.37
877.27	18398.95
877.44	18503.40
877.61	18697.95
877.79	18401.00
877.96	18185.96
878.13	18523.88
878.31	18206.44
878.48	18321.13
878.65	18317.03
878.82	18067.18
879.00	18347.75
879.17	18183.91
879.34	17843.95
879.51	17825.52
879.69	17841.90
879.86	17911.53
880.03	17815.28
880.21	17764.08
880.38	17977.07
880.55	17874.67
880.72	17805.04
880.90	17805.04
881.07	17772.27
881.24	17565.43
881.41	17676.02
881.59	17651.44
881.76	17676.02
881.93	17872.62
882.10	17553.14
882.28	17454.84
882.45	17708.79
882.62	17405.69
882.79	17706.74
882.96	17596.15
883.14	17653.49
883.31	17626.87
883.48	17356.54
883.65	17317.62
883.83	17405.69
884.00	17204.99
884.17	17407.73
884.34	17491.70
884.51	17293.05
884.69	17030.91
884.86	17135.35
885.03	17155.83
885.20	17014.52
885.38	17241.85
885.55	17213.18
885.72	16877.31
885.89	16985.85
886.06	17176.31
886.24	16899.84
886.41	16629.51
886.58	17129.21
886.75	17207.03
886.92	16762.62
887.10	16854.78
887.27	16666.37
887.44	16822.02
887.61	17096.44
887.78	16973.56
887.95	16717.57
888.13	16912.13
888.30	16461.57
888.47	16824.06
888.64	16525.06
888.81	16393.99
888.99	16598.79
889.16	16297.74
889.33	16455.43
889.50	16453.38
889.67	16361.22
889.84	16221.96
890.01	16490.24
890.19	16252.68
890.36	16307.98
890.53	16281.35
890.70	16047.88
890.87	16221.96
891.04	16039.69
891.22	16084.75
891.39	16107.27
891.56	16017.16
891.73	15888.14
891.90	15965.96
892.07	15953.68
892.24	15802.13
892.42	15716.11
892.59	15804.17
892.76	15699.73
892.93	15959.82
893.10	15843.09
893.27	15851.28
893.44	15591.19
893.61	15662.86
893.79	15740.69
893.96	15728.40
894.13	15785.74
894.30	15656.72
894.47	15544.08
894.64	15767.31
894.81	15748.88
894.98	15630.10
895.15	15685.39
895.33	15542.03
895.50	15384.34
895.67	15533.84
895.84	15468.31
896.01	15519.51
896.18	15283.99
896.35	15804.17
896.52	15560.47
896.69	15531.80
896.86	15353.62
897.04	15556.37
897.21	15380.25
897.38	15511.32
897.55	15206.17
897.72	15525.65
897.89	15675.15
898.06	15542.03
898.23	15333.14
898.40	15619.86
898.57	15445.78
898.74	15449.88
898.91	15357.72
899.08	15281.94
899.26	15558.42
899.43	15251.22
899.60	15210.26
899.77	15544.08
899.94	15281.94
900.11	15281.94
900.28	15427.35
900.45	15101.72
900.62	15146.78
900.79	15345.43
900.96	15277.85
901.13	15179.54
901.30	15091.48
901.47	15081.24
901.64	15075.10
901.81	15267.61
901.98	15056.67
902.15	15294.23
902.32	15193.88
902.49	15171.35
902.66	15228.70
902.83	15019.80
903.01	15093.53
903.18	14925.60
903.35	15105.82
903.52	15101.72
903.69	15042.33
903.86	15392.53
904.03	15261.46
904.20	15159.06
904.37	15423.25
904.54	15058.71
904.71	15134.49
904.88	15361.81
905.05	15093.53
905.22	15071.00
905.39	14890.78
905.56	15136.54
905.73	15097.63
905.90	15175.45
906.07	15023.90
906.24	15048.47
906.41	14978.84
906.58	14941.98
906.75	15021.85
906.92	14931.74
907.09	15077.15
907.26	14993.18
907.43	15101.72
907.60	14898.97
907.77	15109.91
907.93	15195.93
908.10	15154.97
908.27	14948.12
908.44	14923.55
908.61	14823.20
908.78	14907.16
908.95	15120.15
909.12	14860.06
909.29	14964.51
909.46	14761.76
909.63	15001.37
909.80	14921.50
909.97	14892.83
910.14	14833.44
910.31	14763.81
910.48	14622.50
910.65	14782.24
910.82	14444.32
910.99	14806.81
911.16	14358.31
911.33	14563.11
911.50	14610.21
911.66	14497.57
911.83	14634.78
912.00	14563.11
912.17	14602.02
912.34	14339.88
912.51	14485.28
912.68	14386.98
912.85	14386.98
913.02	14569.25
913.19	14602.02
913.36	14360.36
913.53	14403.36
913.70	14264.10
913.86	14540.58
914.03	14176.04
914.20	14448.42
914.37	14497.57
914.54	14296.87
914.71	14249.77
914.88	14362.40
915.05	14114.60
915.22	13811.50
915.39	14067.50
915.55	14169.90
915.72	13954.86
915.89	13840.17
916.06	13715.25
916.23	13813.55
916.40	13700.91
916.57	13690.67
916.74	13784.88
916.91	13754.16
917.07	13580.08
917.24	13731.63
917.41	13492.02
917.58	13455.15
917.75	13334.32
917.92	13516.59
918.09	13512.50
918.26	13485.87
918.42	13481.78
918.59	13545.27
918.76	13512.50
918.93	13354.80
919.10	13287.22
919.27	13274.93
919.44	13524.79
919.60	13242.17
919.77	13246.26
919.94	12758.85
920.11	13104.95
920.28	12965.69
920.45	12924.73
920.61	12996.41
920.78	12873.53
920.95	12898.11
921.12	12867.39
921.29	12658.49
921.46	12781.37
921.62	12470.08
921.79	12672.83
921.96	12523.33
922.13	12754.75
922.30	12455.75
922.47	12392.26
922.63	12345.16
922.80	12558.14
922.97	12193.61
923.14	12121.93
923.31	12318.53
923.47	11949.90
923.64	12410.69
923.81	12066.63
923.98	12209.99
924.15	11968.33
924.32	11812.68
924.48	12021.58
924.65	11904.84
924.82	11870.03
924.99	11763.53
925.15	11757.39
925.32	11747.15
925.49	11511.63
925.66	11616.08
925.83	11425.62
925.99	11317.08
926.16	11405.14
926.33	11515.73
926.50	11415.38
926.67	11411.28
926.83	11355.99
927.00	11341.65
927.17	11415.38
927.34	11235.16
927.50	11175.77
927.67	11218.77
927.84	11132.76
928.01	11059.03
928.17	10868.57
928.34	10825.56
928.51	10751.84
928.68	10739.55
928.84	10831.71
929.01	10788.70
929.18	10798.94
929.35	10528.61
929.51	10497.89
929.68	10389.35
929.85	10665.82
930.02	10440.54
930.18	10497.89
930.35	10590.05
930.52	10499.94
930.69	10332.00
930.85	10346.34
931.02	10129.25
931.19	10055.53
931.36	10241.89
931.52	10080.10
931.69	10186.60
931.86	9906.02
932.02	9920.36
932.19	10059.62
932.36	9834.35
932.53	10069.86
932.69	9736.04
932.86	9774.95
933.03	9912.17
933.19	9510.77
933.36	9490.29
933.53	9768.81
933.70	9496.43
933.86	9576.30
934.03	9453.42
934.20	9222.00
934.36	9502.58
934.53	9154.42
934.70	8955.77
934.86	9058.17
935.03	8947.58
935.20	9217.91
935.36	8953.72
935.53	8847.22
935.70	8777.59
935.86	8814.46
936.03	8699.77
936.20	8605.56
936.36	8451.97
936.53	8331.14
936.70	8443.78
936.86	8433.54
937.03	8232.83
937.20	8095.62
937.36	8005.51
937.53	7866.25
937.70	7894.92
937.86	7858.06
938.03	7589.77
938.20	7901.06
938.36	7612.30
938.53	7544.72
938.70	7372.69
938.86	7358.35
939.03	7227.28
939.20	7153.55
939.36	7104.40
939.53	7053.20
939.70	7387.02
939.86	6936.47
940.03	6741.91
940.19	6711.19
940.36	6778.78
940.53	6592.41
940.69	6643.61
940.86	6535.07
941.03	6272.93
941.19	6496.16
941.36	6234.02
941.52	6197.15
941.69	6033.32
941.86	6078.37
942.02	6102.95
942.19	5984.16
942.35	6125.47
942.52	6016.93
942.69	5871.53
942.85	5752.74
943.02	5785.51
943.18	5965.73
943.35	5679.02
943.52	5736.36
943.68	5535.66
943.85	5646.25
944.01	5611.43
944.18	5562.28
944.35	5580.71
944.51	5570.48
944.68	5314.48
944.84	5318.57
945.01	5238.70
945.17	5261.23
945.34	5355.44
945.51	5326.77
945.67	5263.28
945.84	5386.16
946.00	5230.51
946.17	5201.84
946.33	5193.65
946.50	5302.19
946.67	5234.61
946.83	5281.71
947.00	5220.27
947.16	5310.38
947.33	5351.34
947.49	5302.19
947.66	5095.35
947.82	5207.98
947.99	5212.08
948.16	5203.89
948.32	5283.76
948.49	5232.56
948.65	5408.69
948.82	5089.20
948.98	5115.83
949.15	5115.83
949.31	5281.71
949.48	5121.97
949.64	5230.51
949.81	5169.07
949.97	5218.22
950.14	5205.94
950.30	5173.17
950.47	5263.28
950.63	5214.13
950.80	5220.27
950.96	5179.31
951.13	5140.40
951.30	5195.70
951.46	5263.28
951.63	5390.25
951.79	5371.82
951.96	5414.83
952.12	5228.46
952.29	5375.92
952.45	5369.77
952.62	5332.91
952.78	5173.17
952.94	5273.52
953.11	5236.66
953.27	5222.32
953.44	5472.17
953.60	5441.45
953.77	5392.30
953.93	5224.37
954.10	5339.05
954.26	5347.25
954.43	5363.63
954.59	5431.21
954.76	5394.35
954.92	5369.77
955.09	5408.69
955.25	5324.72
955.42	5310.38
955.58	5627.82
955.75	5427.12
955.91	5279.66
956.07	5291.95
956.24	5402.54
956.40	5388.21
956.57	5398.45
956.73	5375.92
956.90	5382.06
957.06	5353.39
957.23	5291.95
957.39	5294.00
957.56	5433.26
957.72	5273.52
957.88	5392.30
958.05	5392.30
958.21	5418.93
958.38	5386.16
958.54	5365.68
958.71	5488.56
958.87	5472.17
959.03	5318.57
959.20	5445.55
959.36	5294.00
959.53	5490.60
959.69	5222.32
959.85	5578.67
960.02	5384.11
960.18	5386.16
960.35	5363.63
960.51	5312.43
960.68	5287.86
960.84	5427.12
961.00	5408.69
961.17	5339.05
961.33	5447.60
961.50	5384.11
961.66	5414.83
961.82	5320.62
961.99	5316.53
962.15	5373.87
962.31	5302.19
962.48	5408.69
962.64	5480.36
962.81	5330.86
962.97	5423.02
963.13	5400.49
963.30	5306.29
963.46	5390.25
963.62	5263.28
963.79	5484.46
963.95	5339.05
964.12	5457.84
964.28	5394.35
964.44	5375.92
964.61	5388.21
964.77	5281.71
964.93	5445.55
965.10	5189.55
965.26	5187.50
965.42	5205.94
965.59	5281.71
965.75	5328.81
965.92	5365.68
966.08	5347.25
966.24	5351.34
966.41	5195.70
966.57	5320.62
966.73	5275.57
966.90	5291.95
967.06	5373.87
967.22	5326.77
967.39	5148.59
967.55	5033.91
967.71	5224.37
967.88	5185.46
968.04	5164.98
968.20	5066.67
968.37	5027.76
968.53	5142.45
968.69	5111.73
968.85	5304.24
969.02	5154.74
969.18	5095.35
969.34	5195.70
969.51	5238.70
969.67	5060.53
969.83	5087.15
970.00	5181.36
970.16	5056.43
970.32	5097.39
970.48	5234.61
970.65	5015.48
970.81	5031.86
970.97	4868.02
971.14	4890.55
971.30	5121.97
971.46	4966.32
971.63	4986.80
971.79	5117.87
971.95	5017.52
972.11	4730.81
972.28	4921.27
972.44	4999.09
972.60	4833.21
972.76	4880.31
972.93	4890.55
973.09	4980.66
973.25	4872.12
973.42	4855.73
973.58	4917.17
973.74	4947.89
973.90	4779.96
974.07	4812.73
974.23	4777.91
974.39	4878.26
974.55	4775.86
974.72	4827.06
974.88	4718.52
975.04	4833.21
975.20	4757.43
975.37	4949.94
975.53	4876.21
975.69	4796.34
975.85	4671.42
976.01	4652.98
976.18	4822.97
976.34	4704.18
976.50	4788.15
976.66	4831.16
976.83	4614.07
976.99	4722.62
977.15	4657.08
977.31	4466.62
977.47	4743.10
977.64	4558.78
977.80	4630.46
977.96	4671.42
978.12	4638.65
978.29	4698.04
978.45	4485.05
978.61	4581.31
978.77	4634.55
978.93	4331.45
979.10	4544.44
979.26	4687.80
979.42	4612.03
979.58	4380.61
979.74	4356.03
979.91	4452.28
980.07	4587.45
980.23	4380.61
980.39	4442.04
980.55	4407.23
980.71	4372.41
980.88	4444.09
981.04	4351.93
981.20	4435.90
981.36	4399.04
981.52	4460.48
981.68	4317.12
981.85	4384.70
982.01	4358.08
982.17	4380.61
982.33	4294.59
982.49	4276.16
982.65	4366.27
982.82	4290.49
982.98	4358.08
983.14	4157.38
983.30	4339.65
983.46	4313.02
983.62	4134.85
983.79	4304.83
983.95	4304.83
984.11	4153.28
984.27	4132.80
984.43	4214.72
984.59	4104.13
984.75	4214.72
984.91	4175.81
985.08	4265.92
985.24	4061.12
985.40	4167.62
985.56	4102.08
985.72	4181.95
985.88	4214.72
986.04	4095.94
986.20	4083.65
986.37	4177.86
986.53	4022.21
986.69	4079.55
986.85	3979.20
987.01	4112.32
987.17	4124.61
987.33	4034.50
987.49	4153.28
987.65	4063.17
987.82	4016.07
987.98	3852.23
988.14	4083.65
988.30	4042.69
988.46	3934.15
988.62	3999.68
988.78	4075.46
988.94	3901.38
989.10	3837.89
989.26	3872.71
989.42	3833.80
989.59	3774.41
989.75	3837.89
989.91	3790.79
990.07	3659.72
990.23	3735.50
990.39	3821.51
990.55	3860.42
990.71	3829.70
990.87	3852.23
991.03	3839.94
991.19	3741.64
991.35	3733.45
991.51	3841.99
991.67	3798.98
991.83	3817.41
992.00	3760.07
992.16	3721.16
992.32	3680.20
992.48	3745.73
992.64	3622.86
992.80	3735.50
992.96	3704.78
993.12	3772.36
993.28	3729.35
993.44	3622.86
993.60	3694.54
993.76	3749.83
993.92	3661.77
994.08	3674.06
994.24	3631.05
994.40	3657.67
994.56	3745.73
994.72	3557.32
994.88	3504.07
995.04	3547.08
995.20	3547.08
995.36	3461.07
995.52	3600.33
995.68	3473.36
995.84	3497.93
996.00	3520.46
996.16	3606.47
996.32	3524.55
996.48	3483.59
996.64	3649.48
996.80	3526.60
996.96	3479.50
997.12	3493.83
997.28	3485.64
997.44	3373.00
997.60	3452.88
997.76	3409.87
997.92	3442.64
998.08	3436.49
998.24	3325.90
998.40	3262.41
998.56	3428.30
998.72	3387.34
998.88	3399.63
999.04	3366.86
999.20	3383.24
999.36	3258.32
999.52	3473.36
999.68	3270.61
999.84	3373.00
1000.00	3403.72
1000.16	3368.91
1000.32	3276.75
1000.48	3418.06
1000.64	3127.25
1000.80	3334.09
1000.95	3153.87
1001.11	3321.81
1001.27	3160.02
1001.43	3391.44
1001.59	3190.74
1001.75	3149.78
1001.91	3112.91
1002.07	3053.52
1002.23	3082.19
1002.39	3141.58
1002.55	3139.54
1002.71	3149.78
1002.87	3147.73
1003.03	3098.58
1003.19	3102.67
1003.34	3172.30
1003.50	3092.43
1003.66	3131.34
1003.82	3102.67
1003.98	3141.58
1004.14	3108.82
1004.30	3065.81
1004.46	3110.86
1004.62	3026.90
1004.78	3047.38
1004.94	3084.24
1005.09	3037.14
1005.25	3090.38
1005.41	3022.80
1005.57	2891.73
1005.73	2932.69
1005.89	2981.84
1006.05	3035.09
1006.21	3061.71
1006.37	2942.93
1006.52	2893.78
1006.68	2858.96
1006.84	3049.43
1007.00	2918.36
1007.16	2951.12
1007.32	2856.92
1007.48	2820.05
1007.64	2912.21
1007.79	2904.02
1007.95	2936.79
1008.11	2957.27
1008.27	2787.29
1008.43	2809.81
1008.59	2826.20
1008.75	2861.01
1008.91	2918.36
1009.06	2813.91
1009.22	2983.89
1009.38	2895.83
1009.54	2848.72
1009.70	2717.65
1009.86	2805.72
1010.01	2750.42
1010.17	2691.03
1010.33	2863.06
1010.49	2797.53
1010.65	2858.96
1010.81	2680.79
1010.96	2701.27
1011.12	2688.98
1011.28	2736.09
1011.44	2801.62
1011.60	2775.00
1011.76	2717.65
1011.91	2846.68
1012.07	2609.11
1012.23	2705.37
1012.39	2723.80
1012.55	2715.61
1012.71	2785.24
1012.86	2662.36
1013.02	2674.65
1013.18	2705.37
1013.34	2658.26
1013.50	2766.81
1013.65	2629.59
1013.81	2648.02
1013.97	2617.30
1014.13	2625.50
1014.29	2559.96
1014.44	2789.33
1014.60	2602.97
1014.76	2574.30
1014.92	2557.91
1015.07	2586.58
1015.23	2584.54
1015.39	2576.34
1015.55	2621.40
1015.71	2586.58
1015.86	2475.99
1016.02	2486.23
1016.18	2549.72
1016.34	2617.30
1016.49	2590.68
1016.65	2543.58
1016.81	2482.14
1016.97	2478.04
1017.12	2531.29
1017.28	2410.46
1017.44	2381.79
1017.60	2480.09
1017.75	2480.09
1017.91	2469.85
1018.07	2435.03
1018.23	2519.00
1018.38	2394.08
1018.54	2467.80
1018.70	2504.67
1018.86	2422.75
1019.01	2322.40
1019.17	2437.08
1019.33	2510.81
1019.49	2404.32
1019.64	2428.89
1019.80	2338.78
1019.96	2459.61
1020.12	2426.84
1020.27	2318.30
1020.43	2383.84
1020.59	2355.16
1020.74	2478.04
1020.90	2398.17
1021.06	2346.97
1021.22	2357.21
1021.37	2420.70
1021.53	2314.20
1021.69	2254.81
1021.84	2236.38
1022.00	2371.55
1022.16	2328.54
1022.31	2328.54
1022.47	2342.88
1022.63	2349.02
1022.79	2265.05
1022.94	2215.90
1023.10	2404.32
1023.26	2299.87
1023.41	2279.39
1023.57	2242.53
1023.73	2326.49
1023.88	2365.40
1024.04	2281.44
1024.20	2127.84
1024.35	2224.09
1024.51	2230.24
1024.67	2232.29
1024.82	2263.01
1024.98	2203.61
1025.14	2211.81
1025.29	2127.84
1025.45	2248.67
1025.61	2183.13
1025.76	2203.61
1025.92	2234.33
1026.08	2236.38
1026.23	2133.98
1026.39	2220.00
1026.55	2156.51
1026.70	2263.01
1026.86	2201.57
1027.02	2181.09
1027.17	2250.72
1027.33	2191.33
1027.48	2095.07
1027.64	2101.22
1027.80	2131.94
1027.95	2199.52
1028.11	2056.16
1028.27	2191.33
1028.42	2224.09
1028.58	2181.09
1028.73	2158.56
1028.89	2060.26
1029.05	2265.05
1029.20	2254.81
>>>>>End Processed Spectral Data<<<<<
