SpectraSuite Data File
++++++++++++++++++++++++++++++++++++
Date: Fri Jun 02 14:47:56 CEST 2017
User: INFO_000
Dark Spectrum Present: No
Reference Spectrum Present: No
Number of Sampled Component Spectra: 1
Spectrometers: USB4H00879
Integration Time (usec): 80000 (USB4H00879)
Spectra Averaged: 1 (USB4H00879)
Boxcar Smoothing: 0 (USB4H00879)
Correct for Electrical Dark: No (USB4H00879)
Strobe/Lamp Enabled: No (USB4H00879)
Correct for Detector Non-linearity: No (USB4H00879)
Correct for Stray Light: No (USB4H00879)
Number of Pixels in Processed Spectrum: 3648
>>>>>Begin Processed Spectral Data<<<<<
345.13	1255.40
345.34	1255.40
345.56	1255.40
345.78	1224.69
345.99	1339.37
346.21	1724.39
346.42	1675.24
346.64	1611.75
346.86	1832.93
347.07	1656.81
347.29	1703.91
347.50	1632.23
347.72	1654.76
347.94	1748.97
348.15	1556.46
348.37	1669.09
348.59	1687.53
348.80	1630.18
349.02	1781.73
349.23	1849.32
349.45	1843.17
349.67	1888.23
349.88	1814.50
350.10	1972.19
350.31	1789.92
350.53	1796.07
350.75	1955.81
350.96	1791.97
351.18	1853.41
351.39	1804.26
351.61	1824.74
351.82	1877.99
352.04	1935.33
352.26	1902.56
352.47	1925.09
352.69	1806.31
352.90	1837.03
353.12	1787.88
353.34	1759.21
353.55	1873.89
353.77	1912.80
353.98	1855.46
354.20	1873.89
354.41	1910.75
354.63	1912.80
354.85	1996.77
355.06	1820.64
355.28	1763.30
355.49	1834.98
355.71	1943.52
355.92	1877.99
356.14	1867.75
356.35	1896.42
356.57	1832.93
356.79	1918.95
357.00	1904.61
357.22	1910.75
357.43	1826.79
357.65	1945.57
357.86	1851.36
358.08	1855.46
358.29	1972.19
358.51	2002.91
358.72	1898.47
358.94	1970.15
359.16	1896.42
359.37	1886.18
359.59	1959.91
359.80	2015.20
360.02	1984.48
360.23	1933.28
360.45	1996.77
360.66	1964.00
360.88	1851.36
361.09	1884.13
361.31	2027.49
361.52	1957.86
361.74	2056.16
361.95	2035.68
362.17	1968.10
362.38	2025.44
362.60	2056.16
362.81	1980.39
363.03	2009.06
363.24	2007.01
363.46	2054.11
363.67	1982.43
363.89	2025.44
364.10	1978.34
364.32	1947.62
364.53	2064.35
364.75	1890.28
364.96	2039.78
365.18	2017.25
365.39	2066.40
365.61	2004.96
365.82	2064.35
366.04	1970.15
366.25	1986.53
366.47	1982.43
366.68	2117.60
366.90	1945.57
367.11	2019.30
367.33	2121.70
367.54	2021.35
367.76	2011.11
367.97	2070.50
368.19	2056.16
368.40	2088.93
368.62	2011.11
368.83	1976.29
369.05	2025.44
369.26	2013.15
369.48	1929.19
369.69	2047.97
369.91	2121.70
370.12	2072.54
370.33	2066.40
370.55	1945.57
370.76	2031.58
370.98	2086.88
371.19	2050.02
371.41	2041.82
371.62	2023.39
371.84	1933.28
372.05	2136.03
372.27	2027.49
372.48	2019.30
372.69	2115.55
372.91	2148.32
373.12	2105.31
373.34	2072.54
373.55	2185.18
373.77	2156.51
373.98	2115.55
374.20	2138.08
374.41	2244.57
374.62	2181.09
374.84	2101.22
375.05	2115.55
375.27	2158.56
375.48	2185.18
375.70	2072.54
375.91	2181.09
376.12	2224.09
376.34	2150.37
376.55	2267.10
376.77	2148.32
376.98	2107.36
377.19	2103.26
377.41	2162.66
377.62	2156.51
377.84	2172.89
378.05	2246.62
378.27	2222.05
378.48	2338.78
378.69	2381.79
378.91	2310.11
379.12	2203.61
379.34	2295.77
379.55	2297.82
379.76	2269.15
379.98	2158.56
380.19	2254.81
380.41	2269.15
380.62	2254.81
380.83	2275.29
381.05	2271.20
381.26	2383.84
381.47	2213.85
381.69	2263.01
381.90	2459.61
382.12	2336.73
382.33	2244.57
382.54	2267.10
382.76	2461.66
382.97	2353.12
383.19	2353.12
383.40	2389.98
383.61	2351.07
383.83	2238.43
384.04	2320.35
384.25	2400.22
384.47	2529.24
384.68	2357.21
384.89	2312.16
385.11	2334.68
385.32	2338.78
385.54	2308.06
385.75	2246.62
385.96	2369.50
386.18	2387.93
386.39	2459.61
386.60	2383.84
386.82	2398.17
387.03	2346.97
387.24	2379.74
387.46	2525.15
387.67	2469.85
387.88	2469.85
388.10	2437.08
388.31	2465.75
388.52	2529.24
388.74	2525.15
388.95	2494.43
389.16	2480.09
389.38	2514.91
389.59	2555.86
389.80	2674.65
390.02	2523.10
390.23	2643.93
390.44	2523.10
390.66	2514.91
390.87	2473.95
391.08	2555.86
391.30	2652.12
391.51	2625.50
391.72	2621.40
391.94	2568.15
392.15	2633.69
392.36	2625.50
392.58	2588.63
392.79	2637.78
393.00	2748.37
393.22	2801.62
393.43	2719.70
393.64	2777.05
393.85	2711.51
394.07	2660.31
394.28	2605.02
394.49	2863.06
394.71	2758.61
394.92	2848.72
395.13	2715.61
395.35	2695.13
395.56	2715.61
395.77	2748.37
395.98	2779.09
396.20	2877.40
396.41	2854.87
396.62	2983.89
396.84	2738.13
397.05	2715.61
397.26	2822.10
397.47	2924.50
397.69	2805.72
397.90	2975.70
398.11	2895.83
398.32	2828.24
398.54	2848.72
398.75	2979.79
398.96	2867.16
399.18	3061.71
399.39	2893.78
399.60	2897.88
399.81	3000.27
400.03	2795.48
400.24	3112.91
400.45	2877.40
400.66	3162.06
400.88	2983.89
401.09	3151.82
401.30	3014.61
401.51	2998.23
401.73	3080.14
401.94	3102.67
402.15	3135.44
402.36	3129.30
402.58	3086.29
402.79	3096.53
403.00	3049.43
403.21	3125.20
403.43	3133.39
403.64	3258.32
403.85	3100.62
404.06	3246.03
404.27	3010.51
404.49	3194.83
404.70	3157.97
404.91	3198.93
405.12	3268.56
405.34	3147.73
405.55	3403.72
405.76	3139.54
405.97	3252.17
406.19	3172.30
406.40	3252.17
406.61	3319.76
406.82	3358.67
407.03	3303.37
407.25	3203.02
407.46	3377.10
407.67	3348.43
407.88	3379.15
408.09	3291.09
408.31	3354.57
408.52	3332.05
408.73	3315.66
408.94	3368.91
409.15	3442.64
409.37	3375.05
409.58	3428.30
409.79	3573.71
410.00	3530.70
410.21	3418.06
410.43	3438.54
410.64	3411.92
410.85	3526.60
411.06	3481.55
411.27	3502.03
411.48	3616.71
411.70	3542.99
411.91	3532.75
412.12	3684.30
412.33	3506.12
412.54	3698.63
412.76	3538.89
412.97	3641.29
413.18	3600.33
413.39	3629.00
413.60	3577.80
413.81	3719.11
414.03	3534.79
414.24	3635.14
414.45	3819.46
414.66	3680.20
414.87	3655.62
415.08	3704.78
415.30	3674.06
415.51	3821.51
415.72	3751.88
415.93	3690.44
416.14	3835.85
416.35	3907.52
416.56	3801.03
416.78	3817.41
416.99	3837.89
417.20	3870.66
417.41	3876.80
417.62	4044.74
417.83	3981.25
418.04	4052.93
418.26	3835.85
418.47	3899.33
418.68	3989.44
418.89	3977.16
419.10	4028.35
419.31	3909.57
419.52	4116.42
419.73	3954.63
419.95	4235.20
420.16	3958.72
420.37	3997.64
420.58	4114.37
420.79	3835.85
421.00	4091.84
421.21	4067.27
421.42	4054.98
421.63	4194.24
421.85	4118.47
422.06	4095.94
422.27	4222.91
422.48	4229.06
422.69	4327.36
422.90	4063.17
423.11	4272.06
423.32	4286.40
423.53	4325.31
423.75	4249.54
423.96	4485.05
424.17	4345.79
424.38	4390.84
424.59	4296.64
424.80	4523.96
425.01	4419.52
425.22	4442.04
425.43	4431.80
425.64	4632.51
425.85	4640.70
426.06	4612.03
426.28	4501.44
426.49	4448.19
426.70	4396.99
426.91	4526.01
427.12	4652.98
427.33	4620.22
427.54	4599.74
427.75	4650.94
427.96	4677.56
428.17	4585.40
428.38	4665.27
428.59	4951.99
428.80	4573.11
429.01	4730.81
429.23	4558.78
429.44	5017.52
429.65	4833.21
429.86	4861.88
430.07	4685.75
430.28	4900.79
430.49	4880.31
430.70	4906.93
430.91	5033.91
431.12	4806.58
431.33	4984.76
431.54	5070.77
431.75	5035.96
431.96	5072.82
432.17	5081.01
432.38	5038.00
432.59	5377.97
432.80	5187.50
433.01	5179.31
433.22	5326.77
433.43	5279.66
433.64	5337.01
433.85	5076.91
434.06	5377.97
434.27	5242.80
434.49	5158.83
434.70	5543.85
434.91	5398.45
435.12	5584.81
435.33	5474.22
435.54	5570.48
435.75	5304.24
435.96	5470.12
436.17	5363.63
436.38	5672.87
436.59	5533.61
436.80	5492.65
437.01	5701.54
437.22	5603.24
437.43	5506.99
437.64	5500.84
437.85	5762.98
438.06	5699.50
438.27	5691.31
438.48	5685.16
438.69	5865.38
438.90	5760.94
439.11	5865.38
439.32	5900.20
439.53	5719.98
439.74	5859.24
439.95	5918.63
440.16	5832.62
440.37	5799.85
440.57	5799.85
440.78	6111.14
440.99	6006.69
441.20	6000.55
441.41	5975.97
441.62	5814.18
441.83	5699.50
442.04	6113.19
442.25	5973.92
442.46	6098.85
442.67	6053.80
442.88	6367.13
443.09	5961.64
443.30	6131.62
443.51	6035.36
443.72	6291.36
443.93	6012.84
444.14	6434.72
444.35	6215.59
444.56	6342.56
444.77	6320.03
444.98	6246.30
445.19	6475.68
445.40	6432.67
445.61	6381.47
445.81	6481.82
446.02	6614.94
446.23	6381.47
446.44	6385.57
446.65	6487.96
446.86	6498.20
447.07	6639.51
447.28	6608.80
447.49	6795.16
447.70	6614.94
447.91	6703.00
448.12	6551.45
448.33	6913.94
448.54	7010.20
448.74	6602.65
448.95	6809.50
449.16	6754.20
449.37	7008.15
449.58	6707.10
449.79	6952.85
450.00	6774.68
450.21	6875.03
450.42	6959.00
450.63	7016.34
450.84	6858.65
451.05	6922.13
451.25	6979.48
451.46	6942.61
451.67	7282.58
451.88	7241.62
452.09	7088.02
452.30	7106.45
452.51	7188.37
452.72	7262.10
452.93	7608.20
453.13	7124.88
453.34	7219.09
453.55	7149.46
453.76	7331.73
453.97	7673.74
454.18	7341.97
454.39	7741.32
454.60	7231.38
454.81	7413.65
455.01	7337.87
455.22	7247.76
455.43	7473.04
455.64	7655.31
455.85	7741.32
456.06	8023.94
456.27	7774.09
456.48	7790.47
456.68	7726.99
456.89	7866.25
457.10	7982.98
457.31	7958.41
457.52	7866.25
457.73	7966.60
457.94	8114.05
458.14	7966.60
458.35	8259.46
458.56	8005.51
458.77	8019.85
458.98	8136.58
459.19	8312.71
459.39	8253.31
459.60	8417.15
459.81	8333.18
460.02	8382.34
460.23	8533.89
460.44	8515.45
460.65	8583.04
460.85	8503.17
461.06	8742.78
461.27	8501.12
461.48	8906.62
461.69	8777.59
461.89	8521.60
462.10	8879.99
462.31	8677.24
462.52	8744.83
462.73	8884.09
462.94	9228.15
463.14	8802.17
463.35	9142.13
463.56	9318.26
463.77	9277.30
463.98	8900.47
464.18	9244.53
464.39	9363.31
464.60	9365.36
464.81	9424.75
465.02	9441.14
465.23	9834.35
465.43	9738.09
465.64	9607.02
465.85	9719.66
466.06	9494.38
466.27	10022.76
466.47	9916.26
466.68	9932.65
466.89	9697.13
467.10	10082.15
467.30	9752.43
467.51	10041.19
467.72	10297.19
467.93	9869.16
468.14	10028.90
468.34	10395.49
468.55	10551.14
468.76	10532.70
468.97	10301.28
469.17	10463.07
469.38	10692.44
469.59	10688.35
469.80	10751.84
470.01	10473.31
470.21	10766.17
470.42	11081.56
470.63	11136.85
470.84	10938.20
471.04	11196.25
471.25	11202.39
471.46	11329.36
471.67	11337.56
471.87	11308.88
472.08	11519.82
472.29	11677.52
472.50	11257.68
472.70	11542.35
472.91	11607.89
473.12	11827.02
473.33	11673.42
473.53	12119.88
473.74	11786.06
473.95	12166.98
474.16	12287.81
474.36	12166.98
474.57	12463.94
474.78	12447.55
474.99	12515.14
475.19	12603.20
475.40	12894.01
475.61	13158.20
475.81	13184.82
476.02	13221.69
476.23	12988.22
476.44	13115.19
476.64	13410.10
476.85	13612.85
477.06	13233.97
477.27	13657.90
477.47	13702.96
477.68	13956.91
477.89	13766.45
478.09	13797.17
478.30	14059.31
478.51	14038.83
478.71	14153.51
478.92	14217.00
479.13	14651.17
479.34	14487.33
479.54	14511.91
479.75	14640.93
479.96	14589.73
480.16	15017.75
480.37	14937.88
480.58	14855.97
480.78	15238.94
480.99	15083.29
481.20	15193.88
481.41	15646.48
481.61	15632.15
481.82	15683.34
482.03	15423.25
482.23	15701.78
482.44	15834.89
482.65	16131.85
482.85	16234.25
483.06	16148.23
483.27	16154.38
483.47	16412.42
483.68	16443.14
483.89	16547.59
484.09	16586.50
484.30	16699.14
484.51	17041.15
484.71	16994.04
484.92	16846.59
485.13	16987.90
485.33	17161.98
485.54	17069.82
485.75	17436.41
485.95	17518.32
486.16	17544.95
486.37	17649.39
486.57	17483.51
486.78	17633.01
486.98	17528.56
487.19	17893.10
487.40	18061.04
487.60	17790.70
487.81	18228.97
488.02	18179.82
488.22	18288.36
488.43	18460.39
488.64	18446.05
488.84	18542.31
489.05	18738.91
489.25	18341.61
489.46	18994.91
489.67	18996.96
489.87	19115.74
490.08	18923.23
490.29	19025.63
490.49	19513.05
490.70	19392.22
490.90	19629.78
491.11	19289.82
491.32	19574.49
491.52	19424.98
491.73	19693.27
491.94	19965.65
492.14	19646.16
492.35	20272.84
492.55	20166.35
492.76	20094.67
492.97	20498.12
493.17	20408.01
493.38	20561.61
493.58	20414.15
493.79	20321.99
494.00	20661.96
494.20	20674.24
494.41	20543.17
494.61	20821.70
494.82	21032.64
495.02	20809.41
495.23	20881.09
495.44	21143.23
495.64	21350.07
495.85	21358.27
496.05	21290.68
496.26	21290.68
496.47	21958.32
496.67	21687.99
496.88	21847.73
497.08	21628.60
497.29	22179.50
497.49	21759.67
497.70	21984.94
497.91	22111.92
498.11	22214.32
498.32	22236.84
498.52	22312.62
498.73	22374.06
498.93	22451.88
499.14	22808.23
499.34	22730.41
499.55	22957.73
499.76	22369.96
499.96	22884.00
500.17	22933.15
500.37	23033.50
500.58	22783.65
500.78	23064.22
500.99	22931.11
501.19	23230.11
501.40	23639.70
501.60	23365.28
501.81	23291.55
502.02	23443.10
502.22	23277.21
502.43	23613.08
502.63	23832.21
502.84	23918.23
503.04	23897.75
503.25	23869.08
503.45	23998.10
503.66	24235.66
503.86	23877.27
504.07	24245.90
504.27	23758.49
504.48	24389.26
504.68	24239.76
504.89	24733.32
505.09	24336.01
505.30	24551.05
505.50	24327.82
505.71	24501.90
505.91	24934.02
506.12	24764.04
506.32	24800.90
506.53	24827.53
506.73	25101.95
506.94	24962.69
507.14	24956.55
507.35	24807.05
507.55	25296.51
507.76	25020.03
507.96	24913.54
508.17	25153.15
508.37	25075.33
508.58	25310.85
508.78	25841.27
508.99	25740.92
509.19	25489.02
509.40	25757.30
509.60	25876.09
509.81	25800.31
510.01	25767.54
510.22	25898.61
510.42	25923.19
510.63	26310.25
510.83	25939.57
511.04	26107.51
511.24	26170.99
511.44	26224.24
511.65	26244.72
511.85	26482.28
512.06	26453.61
512.26	26816.10
512.47	26492.52
512.67	26687.08
512.88	26547.82
513.08	26631.79
513.29	26859.11
513.49	26791.53
513.69	26963.56
513.90	26871.40
514.10	27174.50
514.31	26707.56
514.51	27319.90
514.72	27190.88
514.92	27113.06
515.13	27225.70
515.33	27217.50
515.53	27678.30
515.74	27471.45
515.94	27551.32
516.15	27739.74
516.35	27702.87
516.56	28130.90
516.76	27897.43
516.96	27678.30
517.17	28116.56
517.37	27991.64
517.58	28063.32
517.78	28184.15
517.99	27983.44
518.19	28581.45
518.39	28253.78
518.60	28692.04
518.80	28544.59
519.01	28726.86
519.21	28628.56
519.41	28567.12
519.62	28792.39
519.82	28872.26
520.03	28907.08
520.23	29230.66
520.43	29025.86
520.64	29517.37
520.84	29308.48
521.05	29394.50
521.25	29699.64
521.45	29429.31
521.66	29537.85
521.86	29361.73
522.07	30119.48
522.27	29685.31
522.47	29687.36
522.68	29789.75
522.88	29900.34
523.08	30043.70
523.29	30033.46
523.49	30416.43
523.70	30594.61
523.90	30877.22
524.10	30436.91
524.31	30606.89
524.51	30350.90
524.71	31008.29
524.92	30537.26
525.12	30932.52
525.33	31243.81
525.53	31118.89
525.73	31555.10
525.94	30969.38
526.14	31397.41
526.34	31333.92
526.55	31602.21
526.75	31598.11
526.95	31872.54
527.16	31731.23
527.36	32067.09
527.56	31948.31
527.77	32378.39
527.97	32038.42
528.17	31983.13
528.38	32642.57
528.58	32519.70
528.78	32620.05
528.99	32224.79
529.19	32775.69
529.39	32368.15
529.60	32718.35
529.80	32841.23
530.00	32943.63
530.21	33224.20
530.41	33095.18
530.61	33093.13
530.82	33347.08
531.02	33353.22
531.22	33302.02
531.43	33328.64
531.63	33396.23
531.83	33777.15
532.04	34002.43
532.24	33959.42
532.44	34543.09
532.64	34149.88
532.85	34268.66
533.05	34131.45
533.25	34338.29
533.46	34186.74
533.66	34534.90
533.86	34487.79
534.07	34921.96
534.27	34565.62
534.47	35151.34
534.67	35077.61
534.88	35077.61
535.08	34760.17
535.28	35288.55
535.49	35018.22
535.69	35528.16
535.89	35124.71
536.09	36052.44
536.30	35968.48
536.50	35683.81
536.70	35909.08
536.91	35904.99
537.11	36130.26
537.31	35821.02
537.51	36068.83
537.72	36347.35
537.92	36234.71
538.12	36191.70
538.32	36472.28
538.53	36652.50
538.73	36570.58
538.93	36779.47
539.13	36476.37
539.34	36818.38
539.54	36902.35
539.74	37045.71
539.94	36935.12
540.15	36312.53
540.35	37322.18
540.55	37158.34
540.75	37275.08
540.96	37164.49
541.16	37463.49
541.36	37428.68
541.56	37416.39
541.77	37574.08
541.97	37668.29
542.17	37926.33
542.37	38055.36
542.58	38092.22
542.78	37719.49
542.98	37868.99
543.18	38200.76
543.38	38417.85
543.59	38223.29
543.79	37875.13
543.99	38217.14
544.19	38671.79
544.40	38522.29
544.60	38512.05
544.80	38114.75
545.00	38696.37
545.20	38991.28
545.41	38712.75
545.61	38419.89
545.81	38618.55
546.01	39120.30
546.21	38696.37
546.42	38911.41
546.62	39245.23
546.82	38845.87
547.02	38954.41
547.22	39024.04
547.43	39196.07
547.63	39241.13
547.83	39425.45
548.03	39056.81
548.23	39595.43
548.44	39054.76
548.64	39945.63
548.84	39345.58
549.04	39531.94
549.24	39738.79
549.45	39708.07
549.65	39402.92
549.85	39562.66
550.05	39794.08
550.25	39386.54
550.45	40512.92
550.66	39476.65
550.86	39789.98
551.06	40060.32
551.26	39853.47
551.46	40115.61
551.66	40175.00
551.87	39824.80
552.07	40390.04
552.27	40172.96
552.47	40412.57
552.67	40885.65
552.87	40660.37
553.07	40721.81
553.28	40617.36
553.48	40748.43
553.68	40338.84
553.88	40770.96
554.08	40426.90
554.28	40701.33
554.48	40574.36
554.69	40881.55
554.89	41168.27
555.09	41031.05
555.29	40453.53
555.49	41151.88
555.69	40623.51
555.89	41022.86
556.10	41235.85
556.30	41006.48
556.50	41612.68
556.70	40928.66
556.90	41162.12
557.10	41756.03
557.30	41317.77
557.50	41637.25
557.70	41565.57
557.91	41573.77
558.11	41686.40
558.31	41837.95
558.51	41715.08
558.71	41616.77
558.91	41794.95
559.11	41678.21
559.31	41526.66
559.51	41772.42
559.72	42071.42
559.92	41958.78
560.12	41821.57
560.32	41868.67
560.52	42157.44
560.72	42351.99
560.92	42395.00
561.12	42433.91
561.32	42689.91
561.52	42177.92
561.72	42632.57
561.93	42448.25
562.13	42096.00
562.33	42192.25
562.53	42866.03
562.73	42155.39
562.93	42333.56
563.13	42802.55
563.33	42378.62
563.53	42603.89
563.73	42603.89
563.93	42759.54
564.13	43249.00
564.33	42751.35
564.53	42927.47
564.74	43398.51
564.94	42827.12
565.14	43515.24
565.34	42913.14
565.54	43191.66
565.74	43138.41
565.94	43767.14
566.14	43167.09
566.34	43308.40
566.54	43967.84
566.74	43459.94
566.94	43443.56
567.14	43744.61
567.34	43214.19
567.54	43617.64
567.74	43552.10
567.94	43756.90
568.14	44141.92
568.34	43910.50
568.54	43566.44
568.74	43918.69
568.94	44127.58
569.14	44336.48
569.34	44277.08
569.54	44229.98
569.75	43885.92
569.95	44115.29
570.15	44690.77
570.35	44619.10
570.55	44547.42
570.75	44504.41
570.95	44334.43
571.15	44547.42
571.35	45079.89
571.55	44905.81
571.75	44596.57
571.95	45069.65
572.15	44631.38
572.35	45557.06
572.55	45243.73
572.75	45045.07
572.95	45389.13
573.15	45167.95
573.35	45469.00
573.55	45471.05
573.75	45299.02
573.95	45843.78
574.15	45581.64
574.35	45479.24
574.55	45776.20
574.75	45675.85
574.95	45745.48
575.15	45460.81
575.34	45954.37
575.54	46101.82
575.74	45966.66
575.94	45671.75
576.14	45989.19
576.34	46417.21
576.54	46290.24
576.74	46232.89
576.94	46208.32
577.14	46570.81
577.34	46384.44
577.54	46216.51
577.74	46871.86
577.94	46556.47
578.14	46755.13
578.34	47177.01
578.54	46341.44
578.74	46687.54
578.94	46581.05
579.14	46734.65
579.34	46562.62
579.54	46957.88
579.74	47269.17
579.94	47000.88
580.13	47187.25
580.33	47217.97
580.53	47437.10
580.73	47011.12
580.93	47265.07
581.13	47435.05
581.33	47471.92
581.53	47756.58
581.73	47588.65
581.93	48020.77
582.13	47775.02
582.33	48534.81
582.53	47367.47
582.73	47916.32
582.92	47764.78
583.12	47887.65
583.32	47760.68
583.52	47643.94
583.72	48190.75
583.92	48223.52
584.12	48092.45
584.32	48764.18
584.52	48522.52
584.72	48567.58
584.92	48663.83
585.11	48645.40
585.31	48289.06
585.51	48940.31
585.71	48745.75
585.91	49173.78
586.11	48831.77
586.31	48786.71
586.51	49044.76
586.71	49153.30
586.91	48999.70
587.10	48919.83
587.30	49517.84
587.50	48987.41
587.70	49087.76
587.90	49550.60
588.10	49589.52
588.30	49622.28
588.50	49265.94
588.69	49681.67
588.89	49440.01
589.09	49804.55
589.29	49577.23
589.49	49927.43
589.69	49409.29
589.89	49773.83
590.08	49276.18
590.28	49849.61
590.48	49812.74
590.68	49546.51
590.88	49665.29
591.08	49868.04
591.28	49964.29
591.47	50416.89
591.67	49984.77
591.87	50171.14
592.07	50392.32
592.27	50334.98
592.47	50582.78
592.67	50251.01
592.86	50007.30
593.06	50117.89
593.26	50337.02
593.46	50298.11
593.66	50210.05
593.86	50392.32
594.05	50224.39
594.25	50803.96
594.45	50279.68
594.65	50863.35
594.85	50349.31
595.05	50619.64
595.24	50582.78
595.44	50763.00
595.64	50763.00
595.84	50740.47
596.04	50681.08
596.23	50844.92
596.43	50971.89
596.63	50758.91
596.83	50717.95
597.03	51133.68
597.22	51363.06
597.42	51229.94
597.62	51223.79
597.82	51100.92
598.02	50875.64
598.21	51580.14
598.41	51172.60
598.61	51297.52
598.81	51088.63
599.01	51266.80
599.20	51029.24
599.40	51129.59
599.60	51621.10
599.80	51363.06
600.00	51647.72
600.19	51713.26
600.39	51295.47
600.59	51410.16
600.79	51932.39
600.98	51260.66
601.18	51561.71
601.38	52065.51
601.58	51952.87
601.78	52258.02
601.97	51856.62
602.17	52139.24
602.37	52313.31
602.57	52010.21
602.76	52282.59
602.96	51934.44
603.16	51997.93
603.36	52141.28
603.55	52147.43
603.75	52126.95
603.95	52290.79
604.15	52208.87
604.34	52446.43
604.54	52640.99
604.74	52180.20
604.94	52335.84
605.13	52837.59
605.33	52509.92
605.53	52907.22
605.73	52927.70
605.92	52753.63
606.12	52700.38
606.32	52833.50
606.52	52727.00
606.71	52669.66
606.91	53228.76
607.11	52677.85
607.30	52663.52
607.50	52983.00
607.70	53339.35
607.90	52800.73
608.09	52827.35
608.29	52954.33
608.49	52784.35
608.68	52604.13
608.88	52919.51
609.08	52991.19
609.28	53220.56
609.47	53099.73
609.67	53388.50
609.87	53515.47
610.06	53664.97
610.26	53263.57
610.46	53355.73
610.66	53036.25
610.85	52991.19
611.05	53136.60
611.25	53460.18
611.44	53353.68
611.64	52993.24
611.84	53073.11
612.03	53101.78
612.23	53165.27
612.43	53802.19
612.62	52896.98
612.82	53488.85
613.02	52968.66
613.21	53542.10
613.41	53200.08
613.61	53468.37
613.80	53183.70
614.00	53322.96
614.20	53572.81
614.39	53394.64
614.59	53267.67
614.79	53462.22
614.98	53535.95
615.18	53480.66
615.38	53861.58
615.57	53347.54
615.77	53716.17
615.97	53904.59
616.16	53527.76
616.36	54047.94
616.56	54052.04
616.75	53740.75
616.95	53402.83
617.15	53687.50
617.34	53869.77
617.54	53810.38
617.74	54031.56
617.93	53722.32
618.13	53251.28
618.32	53382.35
618.52	53224.66
618.72	53722.32
618.91	53773.52
619.11	53236.95
619.31	53476.56
619.50	53494.99
619.70	53572.81
619.90	53581.01
620.09	53578.96
620.29	53695.69
620.48	53761.23
620.68	53855.43
620.88	53699.79
621.07	53667.02
621.27	53775.56
621.46	53394.64
621.66	53834.95
621.86	53712.08
622.05	53581.01
622.25	53605.58
622.44	53408.98
622.64	53732.56
622.84	53456.08
623.03	53331.15
623.23	53361.87
623.42	53591.25
623.62	53634.25
623.82	54252.74
624.01	53435.60
624.21	53535.95
624.40	53667.02
624.60	53771.47
624.80	53556.43
624.99	53384.40
625.19	52784.35
625.38	54064.33
625.58	53738.70
625.77	53810.38
625.97	54064.33
626.17	53839.05
626.36	53540.05
626.56	54117.57
626.75	53404.88
626.95	53982.41
627.14	53712.08
627.34	53957.83
627.54	53943.50
627.73	53892.30
627.93	54142.15
628.12	53533.90
628.32	53953.74
628.51	53732.56
628.71	53871.82
628.90	53597.39
629.10	54035.66
629.30	54185.16
629.49	53812.43
629.69	53910.73
629.88	53972.17
630.08	53886.15
630.27	53953.74
630.47	53660.88
630.66	53945.54
630.86	54754.49
631.05	53812.43
631.25	54357.19
631.44	54238.40
631.64	54312.13
631.84	54547.65
632.03	54566.08
632.23	54607.04
632.42	54785.21
632.62	54744.25
632.81	53927.11
633.01	54305.99
633.20	54666.43
633.40	54502.59
633.59	54967.48
633.79	53970.12
633.98	54795.45
634.18	55121.08
634.37	54461.63
634.57	54820.03
634.76	54779.07
634.96	54490.30
635.15	54723.77
635.35	54674.62
635.54	54992.06
635.74	54813.88
635.93	54566.08
636.13	54824.12
636.32	54777.02
636.52	54371.52
636.71	54719.68
636.91	54734.01
637.10	54977.72
637.30	54815.93
637.49	55012.54
637.69	55446.71
637.88	55381.17
638.08	54643.90
638.27	55258.29
638.46	55248.05
638.66	55444.66
638.85	55475.38
639.05	55139.51
639.24	55276.72
639.44	55203.00
639.63	55243.96
639.83	55278.77
640.02	55598.26
640.22	55172.28
640.41	56022.19
640.61	54738.11
640.80	55295.16
640.99	55157.94
641.19	55483.57
641.38	55436.47
641.58	55317.68
641.77	55172.28
641.97	55317.68
642.16	55647.41
642.36	55444.66
642.55	55815.34
642.74	55506.10
642.94	55948.46
643.13	55430.32
643.33	55938.22
643.52	55735.47
643.72	55694.51
643.91	55747.76
644.10	55714.99
644.30	55954.60
644.49	56071.34
644.69	56153.26
644.88	56237.22
645.08	56091.82
645.27	56186.02
645.46	55686.32
645.66	56499.36
645.85	55540.91
646.05	56321.19
646.24	56177.83
646.43	56138.92
646.63	56360.10
646.82	56724.64
647.02	56411.30
647.21	56138.92
647.40	56366.24
647.60	56745.12
647.79	56161.45
647.99	56794.27
648.18	56011.95
648.37	56427.68
648.57	56652.96
648.76	56792.22
648.96	56630.43
649.15	56632.48
649.34	56732.83
649.54	56616.10
649.73	56075.43
649.92	56747.17
650.12	56736.93
650.31	56687.78
650.51	57072.79
650.70	56781.98
650.89	56603.81
651.09	57175.19
651.28	57042.07
651.47	57005.21
651.67	56880.28
651.86	57205.91
652.06	56253.61
652.25	56827.04
652.44	57158.81
652.64	56706.21
652.83	56566.94
653.02	56620.19
653.22	56923.29
653.41	56417.44
653.60	56468.64
653.80	56747.17
653.99	56718.49
654.18	56736.93
654.38	57013.40
654.57	57420.95
654.76	56851.61
654.96	56829.08
655.15	57040.03
655.34	57099.42
655.54	57013.40
655.73	56683.68
655.92	57074.84
656.12	57152.66
656.31	56956.06
656.50	57158.81
656.70	57007.26
656.89	56997.02
657.08	56898.72
657.28	57001.11
657.47	57095.32
657.66	57349.27
657.86	56843.42
658.05	57273.49
658.24	57574.55
658.43	57072.79
658.63	57179.29
658.82	57537.68
659.01	57226.39
659.21	57373.84
659.40	57482.39
659.59	57154.71
659.79	57767.05
659.98	57420.95
660.17	57238.68
660.36	57062.55
660.56	57011.35
660.75	57719.95
660.94	57386.13
661.14	56974.49
661.33	57111.70
661.52	57134.23
661.71	57844.88
661.91	57349.27
662.10	56767.65
662.29	57662.61
662.49	57474.20
662.68	56663.20
662.87	57332.89
663.06	57439.38
663.26	57177.24
663.45	57300.12
663.64	56992.92
663.83	57635.98
664.03	57717.90
664.22	57240.73
664.41	57265.30
664.60	56956.06
664.80	57146.52
664.99	56876.19
665.18	57087.13
665.37	57314.45
665.57	56890.52
665.76	56628.38
665.95	56898.72
666.14	56917.15
666.34	56773.79
666.53	57031.83
666.72	57443.48
666.91	57058.46
667.11	57054.36
667.30	57048.22
667.49	57050.27
667.68	57265.30
667.87	56747.17
668.07	57279.64
668.26	56546.47
668.45	56992.92
668.64	56636.58
668.84	57439.38
669.03	56908.96
669.22	57023.64
669.41	57236.63
669.60	56982.68
669.80	56343.72
669.99	57148.57
670.18	56751.26
670.37	57060.51
670.57	57091.22
670.76	56775.84
670.95	57054.36
671.14	56272.04
671.33	56626.34
671.53	56923.29
671.72	56966.30
671.91	56812.70
672.10	56519.84
672.29	56591.52
672.48	56831.13
672.68	56919.20
672.87	55944.36
673.06	56605.86
673.25	56259.75
673.44	56208.55
673.64	56546.47
673.83	56278.18
674.02	56063.14
674.21	56106.15
674.40	56833.18
674.59	56077.48
674.79	56202.41
674.98	56186.02
675.17	56333.48
675.36	56310.95
675.55	56317.09
675.74	55897.26
675.94	56489.12
676.13	56274.09
676.32	56386.72
676.51	56681.63
676.70	56335.52
676.89	56468.64
677.08	56233.13
677.28	55647.41
677.47	56507.55
677.66	56349.86
677.85	56276.13
678.04	55889.07
678.23	56190.12
678.42	56118.44
678.62	55837.87
678.81	56540.32
679.00	56159.40
679.19	55786.67
679.38	56114.34
679.57	55682.22
679.76	55835.82
679.96	55983.27
680.15	55565.49
680.34	55809.20
680.53	55489.71
680.72	56022.19
680.91	56079.53
681.10	55569.58
681.29	55651.50
681.48	55917.74
681.68	55878.83
681.87	55684.27
682.06	55653.55
682.25	55291.06
682.44	55215.29
682.63	55641.26
682.82	55514.29
683.01	55225.53
683.20	55256.24
683.39	55057.59
683.59	55073.98
683.78	55508.14
683.97	55327.92
684.16	55395.51
684.35	55131.32
684.54	55334.07
684.73	55426.23
684.92	54826.17
685.11	54949.05
685.30	54691.01
685.49	55194.81
685.69	55112.89
685.88	54826.17
686.07	55049.40
686.26	54674.62
686.45	55026.87
686.64	54871.23
686.83	54645.95
687.02	54768.83
687.21	54842.56
687.40	54863.03
687.59	54910.14
687.78	54834.36
687.97	55071.93
688.16	54949.05
688.35	54852.80
688.54	54297.80
688.74	54445.25
688.93	54142.15
689.12	54232.26
689.31	55004.34
689.50	54613.18
689.69	54064.33
689.88	53882.06
690.07	54133.96
690.26	54031.56
690.45	54852.80
690.64	54412.48
690.83	54150.34
691.02	54373.57
691.21	54355.14
691.40	54262.98
691.59	54289.60
691.78	53998.79
691.97	54021.32
692.16	54113.48
692.35	54068.42
692.54	53875.91
692.73	53886.15
692.92	54064.33
693.11	53798.09
693.30	54131.91
693.49	53753.04
693.68	53806.28
693.87	53556.43
694.06	53736.65
694.25	53556.43
694.44	53357.78
694.63	53423.31
694.82	54062.28
695.01	53925.07
695.20	53679.31
695.39	53351.63
695.58	53740.75
695.77	53679.31
695.96	53157.08
696.15	53171.41
696.34	53253.33
696.53	53392.59
696.72	53611.73
696.91	53193.94
697.10	53368.02
697.29	53130.45
697.48	53417.17
697.67	52896.98
697.86	52966.62
698.05	53329.11
698.24	52976.86
698.43	52622.56
698.62	53269.72
698.81	52892.89
699.00	53712.08
699.19	52952.28
699.38	52688.09
699.57	52770.01
699.76	53263.57
699.95	52663.52
700.14	52954.33
700.32	52917.46
700.51	52751.58
700.70	52896.98
700.89	52899.03
701.08	52786.39
701.27	52692.19
701.46	53038.29
701.65	51997.93
701.84	52401.38
702.03	52780.25
702.22	52126.95
702.41	52944.09
702.60	52557.02
702.79	52262.11
702.98	52597.98
703.17	52630.75
703.35	52395.23
703.54	52196.58
703.73	52616.41
703.92	52212.96
704.11	52522.21
704.30	52114.66
704.49	52827.35
704.68	52028.65
704.87	52229.35
705.06	52204.77
705.25	52155.62
705.43	52421.86
705.62	52679.90
705.81	51916.01
706.00	51897.58
706.19	52090.09
706.38	51821.80
706.57	52133.09
706.76	52192.48
706.95	51967.21
707.14	52073.70
707.32	51797.23
707.51	51420.40
707.70	51846.38
707.89	51840.23
708.08	51565.81
708.27	51991.78
708.46	51948.78
708.65	51660.01
708.84	52053.22
709.02	51748.07
709.21	52182.24
709.40	51836.14
709.59	52106.47
709.78	51236.08
709.97	51739.88
710.16	51025.14
710.34	51547.37
710.53	51610.86
710.72	51401.97
710.91	51922.15
711.10	51465.45
711.29	51737.83
711.48	51416.30
711.66	51346.67
711.85	51119.35
712.04	51074.29
712.23	51295.47
712.42	51404.02
712.61	51633.39
712.80	51727.59
712.98	51508.46
713.17	51477.74
713.36	51227.89
713.55	51625.20
713.74	51356.91
713.93	51299.57
714.11	51492.08
714.30	51141.88
714.49	50947.32
714.68	51408.11
714.87	51178.74
715.06	51340.53
715.24	50769.15
715.43	50935.03
715.62	50760.95
715.81	50943.22
716.00	50951.41
716.18	50226.43
716.37	50707.71
716.56	50722.04
716.75	51043.57
716.94	50875.64
717.12	50386.18
717.31	50978.04
717.50	50449.66
717.69	50578.68
717.88	50783.48
718.06	50898.17
718.25	50517.25
718.44	50314.50
718.63	50717.95
718.82	50509.05
719.00	50158.85
719.19	50263.30
719.38	50527.48
719.57	50267.39
719.76	50232.58
719.94	49992.97
720.13	50128.13
720.32	49933.57
720.51	50015.49
720.69	49861.90
720.88	50033.92
721.07	49976.58
721.26	49241.36
721.44	49773.83
721.63	49747.21
721.82	49433.87
722.01	49757.45
722.20	49802.50
722.38	49693.96
722.57	49333.52
722.76	49257.74
722.95	49110.29
723.13	49157.39
723.32	49335.57
723.51	49261.84
723.70	48825.62
723.88	49356.05
724.07	49278.22
724.26	49503.50
724.44	48966.93
724.63	49386.77
724.82	49489.16
725.01	49100.05
725.19	49147.15
725.38	48782.62
725.57	48651.55
725.76	49026.32
725.94	48737.56
726.13	49151.25
726.32	49132.82
726.51	48461.08
726.69	49454.35
726.88	49546.51
727.07	48870.68
727.25	49116.43
727.44	48919.83
727.63	48925.97
727.82	49132.82
728.00	48889.11
728.19	49034.52
728.38	49218.83
728.56	48524.57
728.75	49231.12
728.94	48631.07
729.12	48846.10
729.31	48866.58
729.50	48846.10
729.69	49181.97
729.87	48768.28
730.06	48739.61
730.25	48596.25
730.43	48878.87
730.62	48788.76
730.81	49083.67
730.99	48977.17
731.18	48622.87
731.37	48606.49
731.55	49284.37
731.74	49159.44
731.93	48903.45
732.11	48956.69
732.30	49132.82
732.49	48968.98
732.67	49347.86
732.86	48717.08
733.05	48948.50
733.23	48364.83
733.42	48661.79
733.61	48608.54
733.79	48950.55
733.98	49247.50
734.17	48284.96
734.35	48731.42
734.54	48815.38
734.73	48866.58
734.91	48801.05
735.10	48325.92
735.29	48807.19
735.47	48375.07
735.66	48338.21
735.84	48565.53
736.03	48153.89
736.22	48639.26
736.40	48661.79
736.59	48823.58
736.78	48413.98
736.96	48538.91
737.15	48682.27
737.33	48719.13
737.52	48405.79
737.71	48526.62
737.89	48555.29
738.08	48307.49
738.27	48076.07
738.45	48338.21
738.64	48272.67
738.82	48332.06
739.01	48500.00
739.20	48162.08
739.38	48330.01
739.57	47990.05
739.75	48563.48
739.94	48276.77
740.13	48350.49
740.31	47885.61
740.50	48137.51
740.68	48172.32
740.87	47867.17
741.06	48190.75
741.24	48096.55
741.43	48260.38
741.61	47971.62
741.80	47598.89
741.99	47764.78
742.17	47789.35
742.36	47957.28
742.54	48051.49
742.73	48076.07
742.91	48166.18
743.10	47250.74
743.29	48112.93
743.47	47809.83
743.66	48026.92
743.84	48022.82
744.03	47801.64
744.21	47828.26
744.40	48313.63
744.59	47822.12
744.77	47461.68
744.96	47273.26
745.14	47543.59
745.33	47320.37
745.51	47142.19
745.70	47670.57
745.88	47248.69
746.07	47105.33
746.26	46996.79
746.44	46923.06
746.63	47000.88
746.81	46871.86
747.00	46933.30
747.18	47201.58
747.37	46966.07
747.55	46849.33
747.74	47271.21
747.92	46898.48
748.11	46929.20
748.29	46822.71
748.48	46720.31
748.66	46677.30
748.85	46806.33
749.03	47193.39
749.22	46873.91
749.41	46906.68
749.59	46589.24
749.78	46701.88
749.96	46572.86
750.15	46595.38
750.33	46708.02
750.52	46382.40
750.70	46675.26
750.89	46214.46
751.07	46374.20
751.26	46144.83
751.44	46173.50
751.63	46529.85
751.81	46089.54
752.00	45927.75
752.18	46511.42
752.37	46259.52
752.55	45600.07
752.74	45802.82
752.92	45856.07
753.10	45610.31
753.29	45774.15
753.47	45770.05
753.66	45405.52
753.84	46093.63
754.03	45700.42
754.21	45720.90
754.40	45675.85
754.58	45729.09
754.77	45673.80
754.95	45555.02
755.14	45825.35
755.32	45233.49
755.51	45540.68
755.69	45487.43
755.88	45294.92
756.06	45702.47
756.24	45258.06
756.43	45065.55
756.61	45180.24
756.80	45163.85
756.98	44938.58
757.17	45030.74
757.35	44854.61
757.54	44735.83
757.72	44977.49
757.90	44838.23
758.09	44778.84
758.27	44957.01
758.46	44672.34
758.64	44756.31
758.83	44756.31
759.01	44815.70
759.19	44721.49
759.38	44272.99
759.56	44580.18
759.75	44631.38
759.93	44381.53
760.12	44252.51
760.30	44877.14
760.48	44283.23
760.67	44326.24
760.85	44342.62
761.04	44305.76
761.22	44277.08
761.40	44172.64
761.59	44109.15
761.77	43853.15
761.96	44062.05
762.14	44324.19
762.32	43756.90
762.51	43672.93
762.69	43713.89
762.88	43890.02
763.06	44006.75
763.24	43984.22
763.43	43775.33
763.61	43550.06
763.80	43359.59
763.98	43423.08
764.16	43568.49
764.35	43027.82
764.53	42925.42
764.72	43183.47
764.90	43212.14
765.08	43451.75
765.27	43173.23
765.45	42796.40
765.63	42655.09
765.82	42909.04
766.00	42343.80
766.18	43009.39
766.37	42806.64
766.55	42644.85
766.74	42687.86
766.92	42268.03
767.10	42247.55
767.29	42403.19
767.47	41960.83
767.65	42593.65
767.84	42173.82
768.02	42423.67
768.20	42087.81
768.39	42173.82
768.57	42212.73
768.75	41573.77
768.94	42065.28
769.12	42335.61
769.30	41860.48
769.49	41792.90
769.67	41457.03
769.85	41411.98
770.04	41676.16
770.22	41223.56
770.40	41399.69
770.59	41461.13
770.77	41643.40
770.95	41424.26
771.14	41530.76
771.32	41287.05
771.50	41022.86
771.69	40871.31
771.87	41293.19
772.05	40617.36
772.24	40856.98
772.42	40981.90
772.60	40920.46
772.78	41086.35
772.97	40803.73
773.15	41272.71
773.33	40625.56
773.52	40621.46
773.70	41094.54
773.88	40400.28
774.07	40557.97
774.25	40537.49
774.43	40828.30
774.61	40932.75
774.80	40926.61
774.98	40865.17
775.16	40680.85
775.34	40736.15
775.53	40770.96
775.71	40813.97
775.89	40854.93
776.08	40617.36
776.26	40725.91
776.44	40854.93
776.62	40551.83
776.81	40545.69
776.99	40908.18
777.17	40871.31
777.35	40834.45
777.54	40789.39
777.72	40650.13
777.90	40422.81
778.08	40785.30
778.27	40277.40
778.45	40922.51
778.63	41266.57
778.81	40404.38
779.00	41004.43
779.18	40500.63
779.36	41102.73
779.54	40994.19
779.73	40750.48
779.91	41215.37
780.09	41045.39
780.27	41354.63
780.46	40875.41
780.64	41248.14
780.82	40791.44
781.00	40924.56
781.19	41330.06
781.37	41270.67
781.55	41379.21
781.73	41352.58
781.91	40969.61
782.10	40932.75
782.28	41516.42
782.46	41287.05
782.64	41471.37
782.82	40945.04
783.01	41192.84
783.19	41346.44
783.37	41121.16
783.55	40586.64
783.74	41440.65
783.92	40996.24
784.10	41158.03
784.28	41186.70
784.46	40975.76
784.64	40920.46
784.83	40813.97
785.01	41553.29
785.19	40947.09
785.37	41235.85
785.55	41223.56
785.74	40662.42
785.92	40783.25
786.10	41123.21
786.28	41405.83
786.46	40910.22
786.64	40234.39
786.83	40551.83
787.01	40617.36
787.19	40476.05
787.37	40572.31
787.55	40897.94
787.74	40705.43
787.92	40617.36
788.10	40152.48
788.28	40547.73
788.46	40433.05
788.64	39959.97
788.82	40412.57
789.01	39880.10
789.19	40555.93
789.37	40093.08
789.55	39792.03
789.73	39769.51
789.91	39400.87
790.09	39816.61
790.28	39646.63
790.46	39851.42
790.64	39701.92
790.82	39484.84
791.00	39476.65
791.18	39411.11
791.36	39169.45
791.55	39564.71
791.73	39028.14
791.91	38831.54
792.09	39132.59
792.27	38972.85
792.45	39265.70
792.63	39024.04
792.81	38598.07
793.00	38581.68
793.18	38999.47
793.36	38469.04
793.54	38444.47
793.72	38675.89
793.90	38440.37
794.08	37907.90
794.26	38591.92
794.44	37840.32
794.62	37635.52
794.81	37615.04
794.99	38004.16
795.17	37469.64
795.35	37744.06
795.53	37823.93
795.71	37975.48
795.89	37578.18
796.07	37412.29
796.25	37307.85
796.43	37219.78
796.61	37275.08
796.80	37088.71
796.98	36804.05
797.16	37023.18
797.34	36947.40
797.52	36990.41
797.70	37137.87
797.88	36562.39
798.06	36574.67
798.24	36130.26
798.42	36384.21
798.60	36066.78
798.78	36275.67
798.96	36353.49
799.14	36099.55
799.32	36011.48
799.51	35890.65
799.69	36193.75
799.87	35616.22
800.05	35706.34
800.23	35917.28
800.41	35458.53
800.59	35438.05
800.77	35354.08
800.95	35003.88
801.13	35081.70
801.31	34942.44
801.49	35526.11
801.67	34969.07
801.85	35087.85
802.03	34870.76
802.21	34536.94
802.39	34846.19
802.57	34598.38
802.75	34612.72
802.93	34395.64
803.11	34516.47
803.29	34383.35
803.47	34041.34
803.65	34375.16
803.83	34446.83
804.01	33885.69
804.19	33488.38
804.37	33627.65
804.55	33594.88
804.73	33728.00
804.91	33527.30
805.09	33748.48
805.27	33613.31
805.45	33857.02
805.63	33523.20
805.81	33183.24
805.99	33381.89
806.17	33101.32
806.35	33265.16
806.53	32810.51
806.71	33400.32
806.89	32996.87
807.07	32742.92
807.25	32867.85
807.43	32876.04
807.61	32978.44
807.79	32837.13
807.97	32427.54
808.15	32288.28
808.33	32394.77
808.51	32611.85
808.69	32429.59
808.87	32273.94
809.05	32255.51
809.23	32511.50
809.41	31841.82
809.59	31976.98
809.77	32439.82
809.95	32069.14
810.13	32097.81
810.31	31856.15
810.49	32069.14
810.67	31342.11
810.84	31675.93
811.02	31614.49
811.20	31503.90
811.38	31503.90
811.56	31368.74
811.74	31184.42
811.92	31252.00
812.10	31137.32
812.28	31276.58
812.46	31307.30
812.64	31411.74
812.82	30926.38
813.00	31125.03
813.18	31106.60
813.36	30993.96
813.53	30647.85
813.71	30807.59
813.89	30721.58
814.07	30772.78
814.25	30527.02
814.43	30600.75
814.61	30547.50
814.79	30438.96
814.97	30416.43
815.15	30193.20
815.33	30291.51
815.50	29914.68
815.68	30205.49
815.86	30240.31
816.04	29941.30
816.22	30383.66
816.40	30170.68
816.58	29775.42
816.76	29730.36
816.94	29912.63
817.11	29562.43
817.29	29701.69
817.47	29523.52
817.65	29480.51
817.83	29644.35
818.01	29138.50
818.19	29314.62
818.37	29091.40
818.54	28939.85
818.72	29263.43
818.90	29636.16
819.08	29369.92
819.26	29179.46
819.44	29064.77
819.62	29124.16
819.80	28730.95
819.97	29322.82
820.15	28800.58
820.33	28864.07
820.51	29142.60
820.69	28864.07
820.87	28771.91
821.05	28956.23
821.22	28978.76
821.40	29107.78
821.58	28749.39
821.76	28409.42
821.94	28251.73
822.12	28628.56
822.29	28503.63
822.47	28364.37
822.65	28407.37
822.83	28409.42
823.01	28540.49
823.19	28124.75
823.36	28096.08
823.54	28122.71
823.72	28302.93
823.90	28139.09
824.08	28022.36
824.25	28044.88
824.43	27852.38
824.61	27891.29
824.79	27897.43
824.97	27735.64
825.15	27983.44
825.32	27809.37
825.50	27553.37
825.68	27733.59
825.86	27956.82
826.04	27881.05
826.21	27620.95
826.39	27772.50
826.57	27541.08
826.75	27825.75
826.93	27567.71
827.10	27227.74
827.28	27637.34
827.46	27741.78
827.64	27555.42
827.81	27237.98
827.99	27299.42
828.17	27166.31
828.35	27221.60
828.53	27215.46
828.70	27297.38
828.88	27317.86
829.06	27536.99
829.24	27330.14
829.41	27127.39
829.59	27039.33
829.77	26877.54
829.95	26879.59
830.12	26869.35
830.30	26867.30
830.48	27055.72
830.66	26949.22
830.84	26891.88
831.01	26809.96
831.19	26723.94
831.37	26513.00
831.55	26560.11
831.72	26809.96
831.90	26431.08
832.08	26463.85
832.25	26560.11
832.43	26570.35
832.61	26314.35
832.79	26254.96
832.96	26453.61
833.14	26566.25
833.32	26375.79
833.50	26418.80
833.67	26408.56
833.85	26545.77
834.03	26377.84
834.20	26078.83
834.38	26498.67
834.56	26201.71
834.74	26248.82
834.91	26390.13
835.09	26070.64
835.27	25915.00
835.44	26105.46
835.62	25722.49
835.80	25726.58
835.98	25730.68
836.15	25669.24
836.33	25869.94
836.51	25882.23
836.68	25681.53
836.86	25716.34
837.04	25652.86
837.21	25536.12
837.39	25697.91
837.57	25781.88
837.75	25742.97
837.92	25464.44
838.10	25396.86
838.28	25046.66
838.45	25323.13
838.63	25153.15
838.81	25345.66
838.98	25306.75
839.16	25222.78
839.34	25255.55
839.51	25147.01
839.69	25239.17
839.87	24968.84
840.04	25093.76
840.22	25609.85
840.40	25120.38
840.57	24852.10
840.75	25142.91
840.93	25118.34
841.10	24938.12
841.28	25308.80
841.46	24587.91
841.63	25042.56
841.81	24907.40
841.98	24811.14
842.16	24960.64
842.34	24802.95
842.51	24757.89
842.69	24710.79
842.87	24663.69
843.04	24895.11
843.22	25030.27
843.40	24927.88
843.57	24458.89
843.75	25083.52
843.92	25028.23
844.10	24704.65
844.28	24635.02
844.45	24678.02
844.63	24180.37
844.81	24309.39
844.98	24442.51
845.16	24575.62
845.33	24243.85
845.51	24465.03
845.69	24194.70
845.86	24331.92
846.04	24141.46
846.21	24444.56
846.39	24127.12
846.57	24290.96
846.74	24512.14
846.92	24239.76
847.09	23965.33
847.27	23950.99
847.45	24206.99
847.62	24303.25
847.80	24235.66
847.97	23799.44
848.15	23967.38
848.32	23895.70
848.50	23844.50
848.68	23633.56
848.85	24018.58
849.03	23680.66
849.20	23979.67
849.38	23832.21
849.56	23819.92
849.73	23709.33
849.91	24055.44
850.08	23844.50
850.26	23586.46
850.43	23789.20
850.61	23447.19
850.78	23430.81
850.96	23496.35
851.14	23383.71
851.31	23506.59
851.49	23369.37
851.66	23342.75
851.84	23490.20
852.01	23385.76
852.19	23461.53
852.36	23264.92
852.54	23162.53
852.71	23207.58
852.89	23117.47
853.07	23066.27
853.24	23189.15
853.42	22978.21
853.59	23047.84
853.77	23363.23
853.94	22976.16
854.12	23228.06
854.29	22812.32
854.47	23053.98
854.64	22759.08
854.82	23056.03
854.99	22769.32
855.17	23086.75
855.34	22951.59
855.52	22746.79
855.69	22824.61
855.87	22820.52
856.04	22785.70
856.22	22656.68
856.39	22724.26
856.57	22535.85
856.74	22412.97
856.92	22646.44
857.09	22433.45
857.27	22691.49
857.44	22599.34
857.62	22369.96
857.79	22556.33
857.97	22361.77
858.14	22199.98
858.32	22304.43
858.49	22771.36
858.67	22541.99
858.84	22277.80
859.02	21888.69
859.19	22226.60
859.37	22189.74
859.54	22109.87
859.72	22185.65
859.89	22054.58
860.06	22267.56
860.24	22046.38
860.41	22015.66
860.59	21661.37
860.76	22197.93
860.94	21845.68
861.11	22007.47
861.29	21964.46
861.46	22034.10
861.64	21708.47
861.81	21757.62
861.98	22007.47
862.16	21589.69
862.33	21515.96
862.51	21687.99
862.68	21595.83
862.86	21606.07
863.03	21632.69
863.21	21442.23
863.38	21561.02
863.55	21438.14
863.73	21503.67
863.90	21628.60
864.08	21345.98
864.25	21309.11
864.43	21259.96
864.60	21335.74
864.77	20969.15
864.95	21231.29
865.12	21368.51
865.30	21124.80
865.47	21214.91
865.64	21149.37
865.82	21155.52
865.99	21345.98
866.17	20870.85
866.34	21485.24
866.51	20698.82
866.69	21016.26
866.86	21008.06
867.04	21167.80
867.21	20860.61
867.38	20637.38
867.56	20782.79
867.73	20547.27
867.91	20561.61
868.08	20895.43
868.25	20723.40
868.43	20664.00
868.60	20557.51
868.78	20455.11
868.95	21046.97
869.12	20467.40
869.30	20401.86
869.47	20379.34
869.64	20408.01
869.82	20473.54
869.99	20332.23
870.16	20307.66
870.34	20176.59
870.51	20176.59
870.69	19773.14
870.86	20174.54
871.03	20074.19
871.21	19904.21
871.38	20326.09
871.55	19771.09
871.73	20186.83
871.90	19824.34
872.07	19793.62
872.25	19664.60
872.42	19717.84
872.59	19588.82
872.77	19652.31
872.94	19730.13
873.11	19586.77
873.29	19515.09
873.46	19531.48
873.63	19572.44
873.81	19390.17
873.98	19285.72
874.15	19222.23
874.33	19062.49
874.50	19355.35
874.67	19453.66
874.85	19189.47
875.02	19218.14
875.19	18992.86
875.37	19119.84
875.54	18947.81
875.71	19189.47
875.88	18693.86
876.06	18996.96
876.23	18943.71
876.40	18753.25
876.58	19171.04
876.75	18867.94
876.92	18751.20
877.10	18622.18
877.27	18898.66
877.44	18671.33
877.61	18595.56
877.79	18519.78
877.96	18278.12
878.13	18601.70
878.31	18542.31
878.48	18341.61
878.65	18648.80
878.82	18278.12
879.00	18491.11
879.17	17991.41
879.34	18464.49
879.51	18018.03
879.69	18226.92
879.86	17970.93
880.03	17876.72
880.21	17938.16
880.38	18310.89
880.55	18147.05
880.72	17817.33
880.90	17669.87
881.07	17999.60
881.24	17901.29
881.41	17878.77
881.59	17934.06
881.76	17942.25
881.93	17581.81
882.10	17667.83
882.28	17456.89
882.45	17782.51
882.62	17420.02
882.79	17536.76
882.96	17532.66
883.14	17665.78
883.31	17469.17
883.48	17440.50
883.65	17483.51
883.83	17506.04
884.00	17626.87
884.17	17534.71
884.34	17336.06
884.51	17254.14
884.69	17420.02
884.86	17282.81
885.03	17415.93
885.20	17266.42
885.38	17219.32
885.55	17301.24
885.72	17303.29
885.89	17100.54
886.06	17116.92
886.24	17172.22
886.41	17153.79
886.58	17444.60
886.75	17125.11
886.92	16955.13
887.10	17196.79
887.27	16867.07
887.44	16758.53
887.61	17043.20
887.78	17039.10
887.95	16932.61
888.13	16867.07
888.30	16537.35
888.47	16676.61
888.64	16641.79
888.81	16690.95
888.99	16738.05
889.16	16344.84
889.33	16570.12
889.50	16469.76
889.67	16670.47
889.84	16455.43
890.01	16340.74
890.19	16068.36
890.36	16283.40
890.53	16391.94
890.70	16217.86
890.87	16457.48
891.04	16303.88
891.22	16195.34
891.39	16066.31
891.56	16129.80
891.73	16099.08
891.90	16045.84
892.07	15771.41
892.24	16049.93
892.42	15904.53
892.59	16045.84
892.76	15683.34
892.93	15841.04
893.10	16178.95
893.27	15882.00
893.44	15832.85
893.61	15845.13
893.79	15951.63
893.96	15703.82
894.13	15787.79
894.30	15918.86
894.47	15585.04
894.64	15789.84
894.81	15736.59
894.98	15861.52
895.15	15482.64
895.33	15705.87
895.50	15558.42
895.67	15722.26
895.84	15511.32
896.01	15443.73
896.18	15554.32
896.35	15681.30
896.52	15630.10
896.69	15654.67
896.86	15634.19
897.04	15648.53
897.21	15654.67
897.38	15666.96
897.55	15349.53
897.72	15697.68
897.89	15492.88
898.06	15472.40
898.23	15388.44
898.40	15669.01
898.57	15447.83
898.74	15382.29
898.91	15472.40
899.08	15462.16
899.26	15324.95
899.43	15531.80
899.60	15566.61
899.77	15441.68
899.94	15386.39
900.11	15380.25
900.28	15322.90
900.45	15271.70
900.62	15097.63
900.79	15388.44
900.96	15429.40
901.13	15386.39
901.30	15218.46
901.47	15218.46
901.64	15298.33
901.81	15288.09
901.98	15308.57
902.15	15413.01
902.32	15337.24
902.49	15468.31
902.66	15114.01
902.83	14958.36
903.01	15161.11
903.18	15402.77
903.35	15429.40
903.52	15140.63
903.69	15171.35
903.86	15355.67
904.03	15212.31
904.20	15193.88
904.37	15501.08
904.54	15091.48
904.71	15064.86
904.88	15310.61
905.05	15208.22
905.22	15157.02
905.39	15320.85
905.56	15259.42
905.73	14952.22
905.90	15253.27
906.07	15197.98
906.24	15261.46
906.41	15054.62
906.58	15443.73
906.75	14937.88
906.92	15111.96
907.09	15349.53
907.26	15320.85
907.43	15032.09
907.60	14997.28
907.77	15200.02
907.93	15013.66
908.10	14968.60
908.27	15064.86
908.44	14825.25
908.61	15060.76
908.78	15224.60
908.95	14950.17
909.12	14741.28
909.29	15111.96
909.46	14855.97
909.63	15073.05
909.80	14837.53
909.97	14976.80
910.14	15034.14
910.31	14692.13
910.48	15027.99
910.65	14794.53
910.82	14452.52
910.99	14845.73
911.16	14982.94
911.33	14739.23
911.50	14874.40
911.66	14651.17
911.83	14747.42
912.00	14561.06
912.17	14341.93
912.34	14487.33
912.51	14653.22
912.68	14323.49
912.85	14667.55
913.02	14536.48
913.19	14425.89
913.36	14559.01
913.53	14509.86
913.70	14233.38
913.86	14503.71
914.03	14196.52
914.20	14391.08
914.37	14559.01
914.54	14294.82
914.71	14229.29
914.88	14337.83
915.05	14245.67
915.22	14008.11
915.39	14327.59
915.55	14257.96
915.72	14053.16
915.89	13920.04
916.06	13942.57
916.23	13721.39
916.40	13907.76
916.57	13819.69
916.74	13809.45
916.91	13967.15
917.07	13532.98
917.24	13846.32
917.41	13848.36
917.58	13684.53
917.75	13672.24
917.92	13408.05
918.09	13803.31
918.26	13528.88
918.42	13539.12
918.59	13618.99
918.76	13276.98
918.93	13244.21
919.10	13129.53
919.27	13393.72
919.44	13401.91
919.60	13211.45
919.77	13076.28
919.94	13170.49
920.11	13143.86
920.28	13176.63
920.45	12967.74
920.61	12877.63
920.78	12863.29
920.95	12842.81
921.12	12851.00
921.29	12846.91
921.46	12695.36
921.62	12685.12
921.79	12623.68
921.96	12394.31
922.13	12478.27
922.30	12625.73
922.47	12375.88
922.63	12240.71
922.80	12347.20
922.97	12291.91
923.14	12166.98
923.31	12291.91
923.47	12236.61
923.64	12214.09
923.81	12078.92
923.98	12033.86
924.15	12029.77
924.32	12093.26
924.48	11939.66
924.65	11874.12
924.82	11841.36
924.99	11759.44
925.15	11505.49
925.32	11618.13
925.49	11628.37
925.66	11620.17
925.83	11538.26
925.99	11466.58
926.16	11607.89
926.33	11611.98
926.50	11489.10
926.67	11450.19
926.83	11501.39
927.00	11329.36
927.17	11358.03
927.34	11102.04
927.50	11177.81
927.67	11257.68
927.84	11192.15
928.01	11132.76
928.17	11210.58
928.34	10995.54
928.51	10958.68
928.68	10772.32
928.84	10817.37
929.01	10708.83
929.18	10467.17
929.35	10729.31
929.51	10667.87
929.68	10522.46
929.85	10551.14
930.02	10491.74
930.18	10463.07
930.35	10440.54
930.52	10387.30
930.69	10303.33
930.85	10303.33
931.02	10112.87
931.19	10088.29
931.36	10151.78
931.52	10170.21
931.69	10186.60
931.86	10153.83
932.02	10047.33
932.19	9824.11
932.36	9889.64
932.53	9867.11
932.69	9650.03
932.86	9940.84
933.03	9613.17
933.19	9650.03
933.36	9666.41
933.53	9652.08
933.70	9348.98
933.86	9357.17
934.03	9434.99
934.20	9164.66
934.36	9353.07
934.53	9111.41
934.70	9090.93
934.86	9084.79
935.03	8908.66
935.20	8847.22
935.36	8910.71
935.53	8630.14
935.70	8836.99
935.86	8935.29
936.03	8626.04
936.20	8374.14
936.36	8458.11
936.53	8437.63
936.70	8298.37
936.86	8386.43
937.03	8171.40
937.20	7985.03
937.36	8021.89
937.53	7827.34
937.70	7864.20
937.86	7722.89
938.03	7724.94
938.20	7759.75
938.36	7505.81
938.53	7710.60
938.70	7413.65
938.86	7563.15
939.03	7085.97
939.20	7206.80
939.36	7028.63
939.53	7092.12
939.70	7114.64
939.86	6881.18
940.03	6639.51
940.19	6590.36
940.36	6629.27
940.53	6674.33
940.69	6512.54
940.86	6424.48
941.03	6414.24
941.19	6414.24
941.36	6473.63
941.52	6395.81
941.69	6111.14
941.86	6248.35
942.02	6055.84
942.19	6043.56
942.35	6158.24
942.52	6014.88
942.69	5959.59
942.85	5654.44
943.02	5742.50
943.18	5765.03
943.35	5676.97
943.52	5609.39
943.68	5523.37
943.85	5576.62
944.01	5574.57
944.18	5468.08
944.35	5644.20
944.51	5509.04
944.68	5365.68
944.84	5404.59
945.01	5427.12
945.17	5435.31
945.34	5453.74
945.51	5375.92
945.67	5375.92
945.84	5449.64
946.00	5226.42
946.17	5322.67
946.33	5240.75
946.50	5222.32
946.67	5232.56
946.83	5271.47
947.00	5394.35
947.16	5228.46
947.33	5189.55
947.49	5115.83
947.66	5246.90
947.82	5130.16
947.99	5185.46
948.16	5181.36
948.32	5126.07
948.49	5308.34
948.65	5169.07
948.82	5287.86
948.98	5306.29
949.15	5214.13
949.31	5228.46
949.48	5205.94
949.64	5320.62
949.81	5222.32
949.97	5121.97
950.14	5162.93
950.30	5228.46
950.47	5138.35
950.63	5285.81
950.80	5279.66
950.96	5195.70
951.13	5244.85
951.30	5349.29
951.46	5273.52
951.63	5349.29
951.79	5326.77
951.96	5289.90
952.12	5232.56
952.29	5414.83
952.45	5232.56
952.62	5300.14
952.78	5294.00
952.94	5380.01
953.11	5298.10
953.27	5189.55
953.44	5541.80
953.60	5287.86
953.77	5363.63
953.93	5279.66
954.10	5359.53
954.26	5400.49
954.43	5357.49
954.59	5384.11
954.76	5590.95
954.92	5349.29
955.09	5468.08
955.25	5250.99
955.42	5349.29
955.58	5552.04
955.75	5423.02
955.91	5179.31
956.07	5509.04
956.24	5443.50
956.40	5463.98
956.57	5496.75
956.73	5345.20
956.90	5525.42
957.06	5351.34
957.23	5398.45
957.39	5248.94
957.56	5353.39
957.72	5201.84
957.88	5294.00
958.05	5382.06
958.21	5451.69
958.38	5349.29
958.54	5277.62
958.71	5459.88
958.87	5365.68
959.03	5289.90
959.20	5164.98
959.36	5334.96
959.53	5382.06
959.69	5439.40
959.85	5306.29
960.02	5328.81
960.18	5302.19
960.35	5275.57
960.51	5437.36
960.68	5345.20
960.84	5394.35
961.00	5289.90
961.17	5414.83
961.33	5400.49
961.50	5445.55
961.66	5361.58
961.82	5212.08
961.99	5357.49
962.15	5351.34
962.31	5343.15
962.48	5250.99
962.64	5394.35
962.81	5214.13
962.97	5427.12
963.13	5388.21
963.30	5359.53
963.46	5263.28
963.62	5267.38
963.79	5334.96
963.95	5308.34
964.12	5283.76
964.28	5316.53
964.44	5212.08
964.61	5433.26
964.77	5300.14
964.93	5453.74
965.10	5218.22
965.26	5304.24
965.42	5308.34
965.59	5244.85
965.75	5181.36
965.92	5463.98
966.08	5201.84
966.24	5158.83
966.41	5117.87
966.57	5271.47
966.73	5289.90
966.90	5234.61
967.06	5171.12
967.22	5154.74
967.39	5218.22
967.55	5113.78
967.71	5220.27
967.88	5081.01
968.04	5181.36
968.20	5121.97
968.37	5009.33
968.53	5091.25
968.69	5058.48
968.85	5197.74
969.02	5175.22
969.18	5099.44
969.34	5060.53
969.51	5132.21
969.67	5103.54
969.83	4976.56
970.00	5124.02
970.16	4978.61
970.32	5083.06
970.48	5160.88
970.65	5046.20
970.81	5050.29
970.97	5050.29
971.14	4958.13
971.30	5015.48
971.46	4861.88
971.63	5025.72
971.79	5081.01
971.95	4902.84
972.11	4925.36
972.28	4956.08
972.44	4982.71
972.60	4931.51
972.76	4911.03
972.93	4906.93
973.09	4958.13
973.25	4902.84
973.42	4911.03
973.58	4874.17
973.74	4816.82
973.90	4898.74
974.07	4691.90
974.23	4777.91
974.39	4773.82
974.55	4874.17
974.72	4794.29
974.88	4749.24
975.04	4743.10
975.20	4853.69
975.37	4792.25
975.53	4644.79
975.69	4761.53
975.85	4693.94
976.01	4673.46
976.18	4642.75
976.34	4605.88
976.50	4665.27
976.66	4739.00
976.83	4507.58
976.99	4597.69
977.15	4630.46
977.31	4646.84
977.47	4554.68
977.64	4566.97
977.80	4566.97
977.96	4538.30
978.12	4517.82
978.29	4599.74
978.45	4440.00
978.61	4497.34
978.77	4642.75
978.93	4364.22
979.10	4501.44
979.26	4542.39
979.42	4487.10
979.58	4327.36
979.74	4362.17
979.91	4394.94
980.07	4503.48
980.23	4540.35
980.39	4526.01
980.55	4384.70
980.71	4466.62
980.88	4235.20
981.04	4288.45
981.20	4333.50
981.36	4409.28
981.52	4409.28
981.68	4304.83
981.85	4427.71
982.01	4399.04
982.17	4325.31
982.33	4263.87
982.49	4417.47
982.65	4241.34
982.82	4343.74
982.98	4302.78
983.14	4065.22
983.30	4257.73
983.46	4319.17
983.62	4175.81
983.79	4181.95
983.95	4194.24
984.11	4091.84
984.27	4222.91
984.43	4186.05
984.59	4169.66
984.75	4233.15
984.91	4255.68
985.08	4147.14
985.24	4032.45
985.40	4079.55
985.56	4222.91
985.72	4153.28
985.88	4102.08
986.04	3917.76
986.20	3932.10
986.37	4083.65
986.53	3997.64
986.69	4024.26
986.85	4067.27
987.01	3975.11
987.17	4065.22
987.33	3911.62
987.49	3930.05
987.65	4048.83
987.82	4007.87
987.98	3876.80
988.14	4001.73
988.30	3946.44
988.46	3930.05
988.62	3903.43
988.78	3868.61
988.94	3903.43
989.10	3858.37
989.26	3825.61
989.42	3788.74
989.59	3696.58
989.75	3887.04
989.91	3870.66
990.07	3686.34
990.23	3889.09
990.39	3760.07
990.55	3911.62
990.71	3782.60
990.87	3743.69
991.03	3872.71
991.19	3696.58
991.35	3721.16
991.51	3887.04
991.67	3809.22
991.83	3844.04
992.00	3813.32
992.16	3827.65
992.32	3786.69
992.48	3731.40
992.64	3706.82
992.80	3639.24
992.96	3753.93
993.12	3829.70
993.28	3708.87
993.44	3704.78
993.60	3702.73
993.76	3626.95
993.92	3659.72
994.08	3598.28
994.24	3585.99
994.40	3557.32
994.56	3663.82
994.72	3588.04
994.88	3581.90
995.04	3549.13
995.20	3620.81
995.36	3567.56
995.52	3622.86
995.68	3547.08
995.84	3530.70
996.00	3549.13
996.16	3491.79
996.32	3381.20
996.48	3536.84
996.64	3657.67
996.80	3542.99
996.96	3487.69
997.12	3428.30
997.28	3379.15
997.44	3342.28
997.60	3485.64
997.76	3426.25
997.92	3413.96
998.08	3461.07
998.24	3256.27
998.40	3399.63
998.56	3356.62
998.72	3370.96
998.88	3307.47
999.04	3411.92
999.20	3446.73
999.36	3301.33
999.52	3391.44
999.68	3299.28
999.84	3342.28
1000.00	3264.46
1000.16	3397.58
1000.32	3297.23
1000.48	3217.36
1000.64	3293.13
1000.80	3157.97
1000.95	3174.35
1001.11	3194.83
1001.27	3088.34
1001.43	3221.45
1001.59	3215.31
1001.75	3231.69
1001.91	3239.89
1002.07	3176.40
1002.23	3104.72
1002.39	3149.78
1002.55	3196.88
1002.71	3203.02
1002.87	3090.38
1003.03	3141.58
1003.19	3061.71
1003.34	3098.58
1003.50	3059.67
1003.66	3172.30
1003.82	3196.88
1003.98	3010.51
1004.14	3080.14
1004.30	3071.95
1004.46	3100.62
1004.62	2973.65
1004.78	3022.80
1004.94	3045.33
1005.09	3074.00
1005.25	2985.94
1005.41	2934.74
1005.57	3117.01
1005.73	2904.02
1005.89	2885.59
1006.05	2934.74
1006.21	3045.33
1006.37	2947.03
1006.52	2893.78
1006.68	2965.46
1006.84	2994.13
1007.00	2893.78
1007.16	3117.01
1007.32	2914.26
1007.48	2951.12
1007.64	2854.87
1007.79	2908.12
1007.95	2875.35
1008.11	3065.81
1008.27	2893.78
1008.43	2904.02
1008.59	2736.09
1008.75	2920.40
1008.91	2922.45
1009.06	2824.15
1009.22	2840.53
1009.38	2899.92
1009.54	2879.44
1009.70	2822.10
1009.86	2861.01
1010.01	2746.33
1010.17	2822.10
1010.33	2854.87
1010.49	2744.28
1010.65	2895.83
1010.81	2758.61
1010.96	2826.20
1011.12	2641.88
1011.28	2699.22
1011.44	2717.65
1011.60	2758.61
1011.76	2664.41
1011.91	2662.36
1012.07	2676.70
1012.23	2598.87
1012.39	2584.54
1012.55	2600.92
1012.71	2611.16
1012.86	2625.50
1013.02	2654.17
1013.18	2623.45
1013.34	2605.02
1013.50	2664.41
1013.65	2686.94
1013.81	2605.02
1013.97	2537.43
1014.13	2699.22
1014.29	2682.84
1014.44	2625.50
1014.60	2586.58
1014.76	2633.69
1014.92	2680.79
1015.07	2582.49
1015.23	2621.40
1015.39	2465.75
1015.55	2514.91
1015.71	2539.48
1015.86	2566.10
1016.02	2574.30
1016.18	2428.89
1016.34	2623.45
1016.49	2494.43
1016.65	2600.92
1016.81	2549.72
1016.97	2467.80
1017.12	2529.24
1017.28	2500.57
1017.44	2394.08
1017.60	2480.09
1017.75	2588.63
1017.91	2473.95
1018.07	2375.64
1018.23	2484.19
1018.38	2428.89
1018.54	2510.81
1018.70	2469.85
1018.86	2396.12
1019.01	2416.60
1019.17	2451.42
1019.33	2535.39
1019.49	2428.89
1019.64	2410.46
1019.80	2371.55
1019.96	2498.52
1020.12	2402.27
1020.27	2385.88
1020.43	2303.96
1020.59	2389.98
1020.74	2514.91
1020.90	2469.85
1021.06	2287.58
1021.22	2367.45
1021.37	2346.97
1021.53	2318.30
1021.69	2301.92
1021.84	2265.05
1022.00	2365.40
1022.16	2320.35
1022.31	2244.57
1022.47	2297.82
1022.63	2342.88
1022.79	2275.29
1022.94	2283.49
1023.10	2308.06
1023.26	2256.86
1023.41	2322.40
1023.57	2244.57
1023.73	2269.15
1023.88	2301.92
1024.04	2170.85
1024.20	2252.77
1024.35	2344.92
1024.51	2205.66
1024.67	2269.15
1024.82	2277.34
1024.98	2109.41
1025.14	2312.16
1025.29	2201.57
1025.45	2310.11
1025.61	2166.75
1025.76	2142.18
1025.92	2146.27
1026.08	2162.66
1026.23	2174.94
1026.39	2295.77
1026.55	2248.67
1026.70	2123.74
1026.86	2254.81
1027.02	2201.57
1027.17	2166.75
1027.33	2181.09
1027.48	2148.32
1027.64	2164.70
1027.80	2136.03
1027.95	2263.01
1028.11	2084.83
1028.27	2129.89
1028.42	2232.29
1028.58	2158.56
1028.73	2117.60
1028.89	2027.49
1029.05	2217.95
1029.20	2191.33
>>>>>End Processed Spectral Data<<<<<
