SpectraSuite Data File
++++++++++++++++++++++++++++++++++++
Date: Fri Jun 02 14:47:56 CEST 2017
User: INFO_000
Dark Spectrum Present: No
Reference Spectrum Present: No
Number of Sampled Component Spectra: 1
Spectrometers: USB4H00879
Integration Time (usec): 80000 (USB4H00879)
Spectra Averaged: 1 (USB4H00879)
Boxcar Smoothing: 0 (USB4H00879)
Correct for Electrical Dark: No (USB4H00879)
Strobe/Lamp Enabled: No (USB4H00879)
Correct for Detector Non-linearity: No (USB4H00879)
Correct for Stray Light: No (USB4H00879)
Number of Pixels in Processed Spectrum: 3648
>>>>>Begin Processed Spectral Data<<<<<
345.13	1273.84
345.34	1273.84
345.56	1273.84
345.78	1290.22
345.99	1286.12
346.21	1665.00
346.42	1730.53
346.64	1609.70
346.86	1847.27
347.07	1617.90
347.29	1710.05
347.50	1634.28
347.72	1673.19
347.94	1748.97
348.15	1568.74
348.37	1634.28
348.59	1742.82
348.80	1621.99
349.02	1763.30
349.23	1826.79
349.45	1837.03
349.67	1933.28
349.88	1867.75
350.10	1986.53
350.31	1847.27
350.53	1732.58
350.75	1988.58
350.96	1763.30
351.18	1880.04
351.39	1787.88
351.61	1720.29
351.82	1923.04
352.04	1888.23
352.26	1853.41
352.47	1894.37
352.69	1918.95
352.90	1732.58
353.12	1859.56
353.34	1841.12
353.55	1951.71
353.77	1845.22
353.98	1767.40
354.20	1765.35
354.41	1914.85
354.63	1927.14
354.85	2002.91
355.06	1880.04
355.28	1777.64
355.49	1886.18
355.71	1884.13
355.92	1818.60
356.14	1914.85
356.35	1873.89
356.57	1892.32
356.79	1822.69
357.00	1912.80
357.22	1980.39
357.43	1920.99
357.65	1966.05
357.86	1945.57
358.08	1902.56
358.29	1994.72
358.51	1992.67
358.72	1927.14
358.94	1916.90
359.16	1906.66
359.37	1937.38
359.59	1976.29
359.80	2009.06
360.02	1953.76
360.23	1894.37
360.45	1918.95
360.66	1951.71
360.88	1865.70
361.09	1937.38
361.31	2070.50
361.52	2066.40
361.74	2050.02
361.95	2058.21
362.17	2017.25
362.38	2115.55
362.60	2023.39
362.81	1935.33
363.03	2017.25
363.24	1988.58
363.46	2033.63
363.67	1988.58
363.89	2025.44
364.10	1968.10
364.32	1966.05
364.53	2045.92
364.75	1900.52
364.96	2021.35
365.18	2054.11
365.39	2009.06
365.61	1912.80
365.82	2142.18
366.04	1918.95
366.25	1951.71
366.47	2037.73
366.68	2058.21
366.90	1982.43
367.11	2029.54
367.33	2068.45
367.54	2074.59
367.76	2000.87
367.97	2127.84
368.19	2052.06
368.40	2099.17
368.62	1972.19
368.83	1929.19
369.05	2000.87
369.26	2066.40
369.48	2029.54
369.69	2023.39
369.91	1994.72
370.12	1970.15
370.33	2086.88
370.55	1941.47
370.76	2043.87
370.98	2097.12
371.19	2043.87
371.41	2080.74
371.62	2045.92
371.84	2062.30
372.05	2156.51
372.27	2084.83
372.48	2158.56
372.69	2082.78
372.91	2146.27
373.12	2119.65
373.34	2056.16
373.55	2148.32
373.77	2166.75
373.98	2109.41
374.20	2207.71
374.41	2265.05
374.62	2131.94
374.84	2207.71
375.05	2162.66
375.27	2164.70
375.48	2191.33
375.70	2213.85
375.91	2213.85
376.12	2308.06
376.34	2166.75
376.55	2166.75
376.77	2217.95
376.98	2131.94
377.19	2226.14
377.41	2197.47
377.62	2164.70
377.84	2203.61
378.05	2285.53
378.27	2144.22
378.48	2355.16
378.69	2369.50
378.91	2336.73
379.12	2254.81
379.34	2215.90
379.55	2320.35
379.76	2199.52
379.98	2168.80
380.19	2220.00
380.41	2267.10
380.62	2361.31
380.83	2334.68
381.05	2152.42
381.26	2375.64
381.47	2220.00
381.69	2287.58
381.90	2432.99
382.12	2205.66
382.33	2316.25
382.54	2289.63
382.76	2306.01
382.97	2336.73
383.19	2314.20
383.40	2375.64
383.61	2322.40
383.83	2330.59
384.04	2338.78
384.25	2303.96
384.47	2371.55
384.68	2346.97
384.89	2295.77
385.11	2330.59
385.32	2293.72
385.54	2334.68
385.75	2377.69
385.96	2365.40
386.18	2359.26
386.39	2447.32
386.60	2293.72
386.82	2416.60
387.03	2484.19
387.24	2498.52
387.46	2463.71
387.67	2394.08
387.88	2533.34
388.10	2475.99
388.31	2494.43
388.52	2596.82
388.74	2504.67
388.95	2428.89
389.16	2529.24
389.38	2500.57
389.59	2553.82
389.80	2535.39
390.02	2459.61
390.23	2576.34
390.44	2533.34
390.66	2523.10
390.87	2566.10
391.08	2566.10
391.30	2650.07
391.51	2594.78
391.72	2643.93
391.94	2574.30
392.15	2588.63
392.36	2609.11
392.58	2535.39
392.79	2660.31
393.00	2664.41
393.22	2701.27
393.43	2625.50
393.64	2748.37
393.85	2668.50
394.07	2621.40
394.28	2717.65
394.49	2820.05
394.71	2707.41
394.92	2820.05
395.13	2666.46
395.35	2697.17
395.56	2699.22
395.77	2707.41
395.98	2809.81
396.20	2764.76
396.41	2861.01
396.62	2875.35
396.84	2805.72
397.05	2863.06
397.26	2826.20
397.47	2887.64
397.69	2752.47
397.90	2969.55
398.11	2875.35
398.32	2899.92
398.54	2852.82
398.75	2975.70
398.96	2891.73
399.18	3051.47
399.39	2951.12
399.60	3094.48
399.81	2932.69
400.03	3049.43
400.24	3239.89
400.45	2928.60
400.66	3078.10
400.88	3063.76
401.09	3239.89
401.30	3043.28
401.51	3155.92
401.73	3119.06
401.94	3114.96
402.15	3043.28
402.36	3100.62
402.58	3157.97
402.79	3004.37
403.00	3180.50
403.21	3248.08
403.43	3262.41
403.64	3196.88
403.85	3047.38
404.06	3264.46
404.27	3078.10
404.49	3213.26
404.70	3186.64
404.91	3291.09
405.12	3231.69
405.34	3309.52
405.55	3434.44
405.76	3196.88
405.97	3358.67
406.19	3450.83
406.40	3131.34
406.61	3397.58
406.82	3393.48
407.03	3317.71
407.25	3334.09
407.46	3442.64
407.67	3340.24
407.88	3530.70
408.09	3317.71
408.31	3227.60
408.52	3440.59
408.73	3215.31
408.94	3444.68
409.15	3336.14
409.37	3420.11
409.58	3557.32
409.79	3438.54
410.00	3526.60
410.21	3420.11
410.43	3352.52
410.64	3440.59
410.85	3493.83
411.06	3592.14
411.27	3536.84
411.48	3567.56
411.70	3456.97
411.91	3702.73
412.12	3612.62
412.33	3657.67
412.54	3633.10
412.76	3715.02
412.97	3629.00
413.18	3502.03
413.39	3739.59
413.60	3733.45
413.81	3780.55
414.03	3641.29
414.24	3542.99
414.45	3788.74
414.66	3565.51
414.87	3717.06
415.08	3647.43
415.30	3672.01
415.51	3688.39
415.72	3729.35
415.93	3747.78
416.14	3782.60
416.35	3766.21
416.56	3788.74
416.78	3878.85
416.99	3852.23
417.20	3788.74
417.41	3823.56
417.62	3788.74
417.83	3819.46
418.04	3844.04
418.26	3860.42
418.47	3768.26
418.68	3921.86
418.89	3891.14
419.10	4044.74
419.31	3928.00
419.52	4104.13
419.73	3946.44
419.95	4122.56
420.16	3954.63
420.37	4091.84
420.58	4032.45
420.79	3911.62
421.00	4014.02
421.21	4069.31
421.42	3917.76
421.63	4214.72
421.85	4116.42
422.06	4194.24
422.27	4116.42
422.48	4288.45
422.69	4167.62
422.90	4347.84
423.11	4200.38
423.32	4216.77
423.53	4300.73
423.75	4317.12
423.96	4409.28
424.17	4403.13
424.38	4493.24
424.59	4370.37
424.80	4433.85
425.01	4474.81
425.22	4296.64
425.43	4294.59
425.64	4603.83
425.85	4579.26
426.06	4583.35
426.28	4700.09
426.49	4419.52
426.70	4437.95
426.91	4411.32
427.12	4745.14
427.33	4542.39
427.54	4628.41
427.75	4685.75
427.96	4730.81
428.17	4777.91
428.38	4747.19
428.59	4890.55
428.80	4759.48
429.01	4640.70
429.23	4808.63
429.44	5009.33
429.65	4947.89
429.86	4906.93
430.07	4790.20
430.28	4886.45
430.49	4935.60
430.70	5046.20
430.91	5099.44
431.12	5074.87
431.33	5132.21
431.54	5091.25
431.75	5015.48
431.96	4982.71
432.17	5175.22
432.38	5132.21
432.59	5316.53
432.80	5377.97
433.01	5371.82
433.22	5359.53
433.43	5248.94
433.64	5345.20
433.85	5310.38
434.06	5451.69
434.27	5312.43
434.49	5443.50
434.70	5515.18
434.91	5478.32
435.12	5437.36
435.33	5482.41
435.54	5414.83
435.75	5314.48
435.96	5535.66
436.17	5367.73
436.38	5527.47
436.59	5603.24
436.80	5607.34
437.01	5902.25
437.22	5801.90
437.43	5672.87
437.64	5541.80
437.85	5683.11
438.06	5881.77
438.27	5590.95
438.48	5705.64
438.69	5869.48
438.90	5683.11
439.11	5836.71
439.32	5910.44
439.53	5973.92
439.74	6068.13
439.95	5881.77
440.16	5871.53
440.37	5935.01
440.57	5810.09
440.78	5965.73
440.99	5887.91
441.20	5924.77
441.41	5867.43
441.62	6082.47
441.83	5842.85
442.04	6121.38
442.25	6070.18
442.46	5939.11
442.67	6156.19
442.88	6498.20
443.09	6033.32
443.30	6080.42
443.51	6150.05
443.72	6414.24
443.93	6084.52
444.14	6426.53
444.35	6049.70
444.56	6363.04
444.77	6240.16
444.98	6356.90
445.19	6619.04
445.40	6412.19
445.61	6358.94
445.81	6418.33
446.02	6475.68
446.23	6334.37
446.44	6299.55
446.65	6508.44
446.86	6487.96
447.07	6487.96
447.28	6858.65
447.49	6643.61
447.70	6475.68
447.91	6674.33
448.12	6625.18
448.33	6703.00
448.54	6713.24
448.74	6565.79
448.95	6670.23
449.16	6590.36
449.37	6938.52
449.58	6739.87
449.79	6846.36
450.00	6659.99
450.21	6784.92
450.42	7141.27
450.63	6918.04
450.84	6893.46
451.05	6743.96
451.25	6868.89
451.46	6809.50
451.67	7102.36
451.88	7229.33
452.09	7225.23
452.30	7153.55
452.51	6852.50
452.72	7120.79
452.93	7352.21
453.13	7002.01
453.34	7143.32
453.55	7202.71
453.76	7251.86
453.97	7419.79
454.18	7235.47
454.39	7487.37
454.60	7270.29
454.81	7387.02
455.01	7528.33
455.22	7313.30
455.43	7557.00
455.64	7708.55
455.85	7776.14
456.06	7774.09
456.27	7618.44
456.48	7606.16
456.68	7722.89
456.89	7688.07
457.10	8062.85
457.31	7905.16
457.52	7982.98
457.73	7876.49
457.94	8169.35
458.14	7921.54
458.35	8406.91
458.56	7950.21
458.77	8120.20
458.98	8085.38
459.19	8214.40
459.39	8243.07
459.60	8423.30
459.81	8294.27
460.02	8525.69
460.23	8392.58
460.44	8562.56
460.65	8578.94
460.85	8529.79
461.06	8830.84
461.27	8474.49
461.48	8898.42
461.69	8906.62
461.89	8580.99
462.10	8867.70
462.31	8701.82
462.52	8785.79
462.73	8904.57
462.94	9146.23
463.14	9023.35
463.35	8935.29
463.56	9455.47
463.77	9326.45
463.98	9189.24
464.18	9168.76
464.39	9451.38
464.60	9400.18
464.81	9533.29
465.02	9422.70
465.23	9688.94
465.43	9631.60
465.64	9989.99
465.85	9621.36
466.06	9686.89
466.27	9963.37
466.47	9967.46
466.68	10024.81
466.89	9942.89
467.10	10209.12
467.30	9949.03
467.51	10207.08
467.72	10569.57
467.93	10219.36
468.14	10381.15
468.34	10366.82
468.55	10411.87
468.76	10596.19
468.97	10344.29
469.17	10800.99
469.38	10907.48
469.59	10921.82
469.80	10784.60
470.01	10995.54
470.21	11040.60
470.42	11304.79
470.63	11224.92
470.84	10897.24
471.04	11247.44
471.25	11378.51
471.46	11349.84
471.67	11841.36
471.87	11505.49
472.08	11474.77
472.29	11794.25
472.50	11493.20
472.70	11749.20
472.91	11810.64
473.12	12035.91
473.33	11984.71
473.53	12238.66
473.74	12109.64
473.95	12398.40
474.16	12449.60
474.36	12511.04
474.57	12599.10
474.78	12777.28
474.99	12478.27
475.19	12629.82
475.40	12951.35
475.61	12996.41
475.81	13115.19
476.02	13049.66
476.23	12980.03
476.44	13291.32
476.64	13649.71
476.85	13565.74
477.06	13408.05
477.27	13913.90
477.47	13971.24
477.68	13705.01
477.89	14188.33
478.09	14040.87
478.30	14141.22
478.51	14004.01
478.71	14171.94
478.92	14343.97
479.13	14524.19
479.34	14618.40
479.54	14624.54
479.75	14624.54
479.96	14708.51
480.16	14763.81
480.37	15275.80
480.58	14855.97
480.78	15275.80
480.99	15214.36
481.20	15441.68
481.41	15435.54
481.61	15529.75
481.82	15515.41
482.03	15439.64
482.23	15576.85
482.44	15718.16
482.65	15941.39
482.85	16033.55
483.06	15949.58
483.27	16068.36
483.47	16006.92
483.68	16332.55
483.89	16572.16
484.09	16277.26
484.30	16320.26
484.51	16600.83
484.71	16684.80
484.92	16492.29
485.13	16918.27
485.33	16697.09
485.54	16934.65
485.75	17090.30
485.95	17221.37
486.16	17669.87
486.37	17614.58
486.57	17352.44
486.78	17487.61
486.98	17407.73
487.19	17743.60
487.40	17970.93
487.60	17749.75
487.81	18046.70
488.02	17721.07
488.22	17927.92
488.43	18196.20
488.64	18149.10
488.84	18243.31
489.05	18556.64
489.25	18460.39
489.46	18761.44
489.67	18558.69
489.87	18536.17
490.08	18831.07
490.29	18763.49
490.49	18999.01
490.70	19146.46
490.90	19021.53
491.11	19064.54
491.32	19433.18
491.52	19197.66
491.73	19607.25
491.94	19658.45
492.14	19443.42
492.35	19893.97
492.55	19906.26
492.76	19807.95
492.97	19986.13
493.17	19982.03
493.38	20201.16
493.58	20229.84
493.79	20643.52
494.00	20246.22
494.20	20582.09
494.41	20346.57
494.61	20682.44
494.82	20608.71
495.02	20739.78
495.23	21014.21
495.44	20762.31
495.64	20784.83
495.85	21157.57
496.05	21292.73
496.26	21077.69
496.47	21427.90
496.67	21317.31
496.88	21683.89
497.08	21237.44
497.29	21606.07
497.49	21612.21
497.70	21634.74
497.91	21907.12
498.11	21882.55
498.32	21892.79
498.52	22251.18
498.73	22570.66
498.93	22478.50
499.14	22343.34
499.34	22345.39
499.55	22754.98
499.76	22802.08
499.96	22779.56
500.17	22693.54
500.37	22867.62
500.58	22804.13
500.78	22947.49
500.99	23074.46
501.19	23221.92
501.40	23312.03
501.60	23080.61
501.81	23150.24
502.02	23209.63
502.22	23355.04
502.43	23488.15
502.63	24008.34
502.84	23830.16
503.04	23639.70
503.25	23803.54
503.45	23807.64
503.66	24331.92
503.86	24114.83
504.07	24204.94
504.27	24297.10
504.48	24254.09
504.68	24401.55
504.89	24530.57
505.09	24444.56
505.30	24526.47
505.50	24915.59
505.71	24692.36
505.91	25081.47
506.12	25159.30
506.32	24856.20
506.53	24940.16
506.73	25237.12
506.94	25048.71
507.14	25347.71
507.35	25296.51
507.55	25288.32
507.76	25534.07
507.96	25134.72
508.17	25521.79
508.37	25802.36
508.58	25523.83
508.78	25847.41
508.99	26076.79
509.19	25919.09
509.40	25980.53
509.60	26074.74
509.81	26013.30
510.01	26103.41
510.22	25874.04
510.42	26230.38
510.63	26343.02
510.83	26478.19
511.04	26465.90
511.24	26574.44
511.44	26689.13
511.65	26482.28
511.85	26582.63
512.06	26513.00
512.26	26930.79
512.47	26859.11
512.67	27268.70
512.88	26979.94
513.08	26846.82
513.29	27264.61
513.49	27414.11
513.69	27326.05
513.90	27434.59
514.10	27639.39
514.31	27801.18
514.51	27493.98
514.72	27821.66
514.92	27555.42
515.13	27641.43
515.33	27852.38
515.53	27596.38
515.74	28005.97
515.94	27891.29
516.15	28161.62
516.35	28065.36
516.56	28472.91
516.76	27858.52
516.96	28178.00
517.17	28538.44
517.37	28421.71
517.58	28393.04
517.78	28575.31
517.99	28565.07
518.19	28659.27
518.39	28659.27
518.60	29113.92
518.80	28827.21
519.01	28941.89
519.21	28915.27
519.41	29025.86
519.62	29087.30
519.82	29161.03
520.03	29619.77
520.23	29648.44
520.43	29337.15
520.64	29656.64
520.84	29269.57
521.05	29498.94
521.25	29832.76
521.45	29892.15
521.66	29978.17
521.86	29851.19
522.07	30037.56
522.27	29941.30
522.47	30062.13
522.68	30590.51
522.88	30086.71
523.08	30574.13
523.29	30430.77
523.49	30516.78
523.70	30584.37
523.90	30840.36
524.10	30963.24
524.31	30697.00
524.51	30459.44
524.71	31165.99
524.92	30549.55
525.12	30946.86
525.33	31157.80
525.53	31067.69
525.73	31303.20
525.94	31383.07
526.14	31434.27
526.34	31745.56
526.55	31651.36
526.75	31897.11
526.95	32081.43
527.16	31626.78
527.36	31680.03
527.56	31800.86
527.77	32257.56
527.97	32355.86
528.17	32118.29
528.38	32101.91
528.58	32200.21
528.78	32425.49
528.99	32626.19
529.19	32747.02
529.39	32370.19
529.60	32781.84
529.80	32691.73
530.00	32513.55
530.21	33011.21
530.41	33123.85
530.61	33064.46
530.82	33068.55
531.02	33033.74
531.22	33158.66
531.43	33256.96
531.63	33484.29
531.83	33549.82
532.04	33787.39
532.24	33191.43
532.44	33873.40
532.64	34033.14
532.85	33910.27
533.05	34244.09
533.25	33969.66
533.46	34160.12
533.66	34489.84
533.86	34287.09
534.07	34409.97
534.27	34338.29
534.47	34602.48
534.67	34584.05
534.88	34471.41
535.08	34377.20
535.28	34821.61
535.49	35218.92
535.69	34874.86
535.89	34940.39
536.09	35345.89
536.30	35294.69
536.50	35104.23
536.70	35415.52
536.91	35331.56
537.11	35341.80
537.31	35401.19
537.51	35661.28
537.72	35925.47
537.92	35853.79
538.12	36009.43
538.32	35866.08
538.53	36195.80
538.73	36193.75
538.93	36292.05
539.13	36328.92
539.34	36113.88
539.54	35978.72
539.74	36537.81
539.94	36601.30
540.15	36271.57
540.35	36687.31
540.55	36754.90
540.75	36695.50
540.96	36963.79
541.16	36822.48
541.36	36621.78
541.56	36795.85
541.77	37172.68
541.97	37402.05
542.17	37492.16
542.37	37359.05
542.58	37232.07
542.78	37275.08
542.98	37236.17
543.18	37457.35
543.38	38450.61
543.59	37922.24
543.79	37471.68
543.99	37543.36
544.19	37694.91
544.40	37643.71
544.60	38204.86
544.80	38069.69
545.00	37936.57
545.20	38303.16
545.41	38186.43
545.61	38030.78
545.81	38413.75
546.01	38593.97
546.21	38239.67
546.42	38137.27
546.62	38571.44
546.82	38450.61
547.02	38450.61
547.22	38602.16
547.43	38852.02
547.63	38743.47
547.83	38837.68
548.03	38892.97
548.23	38964.65
548.44	38786.48
548.64	39314.86
548.84	39470.50
549.04	39226.79
549.24	39460.26
549.45	39933.34
549.65	39341.48
549.85	39079.34
550.05	39681.44
550.25	39378.34
550.45	40000.93
550.66	39339.43
550.86	40203.67
551.06	40240.54
551.26	40236.44
551.46	39921.05
551.66	39976.35
551.87	40183.19
552.07	40062.36
552.27	40502.68
552.47	40691.09
552.67	40381.85
552.87	40291.74
553.07	40500.63
553.28	40338.84
553.48	40977.81
553.68	40541.59
553.88	41049.49
554.08	40768.91
554.28	41223.56
554.48	40830.35
554.69	40670.61
554.89	40676.76
555.09	41018.77
555.29	40742.29
555.49	41411.98
555.69	41180.56
555.89	41409.93
556.10	41420.17
556.30	41278.86
556.50	41629.06
556.70	41405.83
556.90	41715.08
557.10	41409.93
557.30	41657.73
557.50	41835.91
557.70	41784.71
557.91	42292.60
558.11	41969.02
558.31	42227.07
558.51	41821.57
558.71	41919.87
558.91	42175.87
559.11	42009.98
559.31	42030.46
559.51	41981.31
559.72	42091.90
559.92	42689.91
560.12	42235.26
560.32	42390.91
560.52	42403.19
560.72	42802.55
560.92	42694.00
561.12	42194.30
561.32	42999.15
561.52	42585.46
561.72	43044.21
561.93	42892.66
562.13	43242.86
562.33	42669.43
562.53	43089.26
562.73	42771.83
562.93	43425.13
563.13	43384.17
563.33	43189.61
563.53	43654.50
563.73	43459.94
563.93	43687.27
564.13	43875.68
564.33	43466.09
564.53	43756.90
564.74	43429.23
564.94	43648.36
565.14	44242.27
565.34	43535.72
565.54	43822.44
565.74	44051.81
565.94	44316.00
566.14	44031.33
566.34	44164.45
566.54	44340.57
566.74	44064.10
566.94	44117.34
567.14	44565.85
567.34	44344.67
567.54	44365.15
567.74	44232.03
567.94	44404.06
568.14	44801.36
568.34	44852.56
568.54	44555.61
568.74	45221.20
568.94	44717.40
569.14	44860.76
569.34	45118.80
569.54	44715.35
569.75	44598.62
569.95	44877.14
570.15	45741.38
570.35	44959.06
570.55	45501.77
570.75	45135.18
570.95	45401.42
571.15	45450.57
571.35	45475.15
571.55	45581.64
571.75	45464.91
571.95	45878.60
572.15	45389.13
572.35	45583.69
572.55	45647.18
572.75	45843.78
572.95	45868.36
573.15	46001.47
573.35	45768.01
573.55	45970.75
573.75	45479.24
573.95	45958.47
574.15	46032.19
574.35	46140.74
574.55	46298.43
574.75	45866.31
574.95	46628.15
575.15	46306.62
575.34	46431.55
575.54	45993.28
575.74	46353.72
575.94	46630.20
576.14	46251.33
576.34	46976.31
576.54	46759.22
576.74	46884.15
576.94	46994.74
577.14	46904.63
577.34	46918.96
577.54	46617.91
577.74	47359.28
577.94	46849.33
578.14	47297.84
578.34	47553.83
578.54	46480.70
578.74	46992.69
578.94	47424.81
579.14	47260.97
579.34	47316.27
579.54	47330.61
579.74	47983.91
579.94	47402.28
580.13	47459.63
580.33	47553.83
580.53	47416.62
580.73	47717.67
580.93	47803.69
581.13	48162.08
581.33	48020.77
581.53	47869.22
581.73	47652.14
581.93	48303.39
582.13	47936.80
582.33	48309.53
582.53	47662.38
582.73	47951.14
582.92	48098.59
583.12	48141.60
583.32	47879.46
583.52	47863.08
583.72	48543.00
583.92	48223.52
584.12	48456.99
584.32	48852.25
584.52	48358.69
584.72	48518.43
584.92	48700.70
585.11	48983.32
585.31	48815.38
585.51	48559.39
585.71	48557.34
585.91	49388.81
586.11	48686.36
586.31	48747.80
586.51	48540.96
586.71	49003.80
586.91	49288.46
587.10	49181.97
587.30	49282.32
587.50	49300.75
587.70	49196.31
587.90	49360.14
588.10	49452.30
588.30	49331.47
588.50	49575.18
588.69	49057.04
588.89	49132.82
589.09	49503.50
589.29	49298.70
589.49	49456.40
589.69	48915.73
589.89	49368.33
590.08	49452.30
590.28	49411.34
590.48	49235.22
590.68	49265.94
590.88	49440.01
591.08	49351.95
591.28	49503.50
591.47	49808.65
591.67	49599.76
591.87	49464.59
592.07	49771.78
592.27	49489.16
592.47	49528.08
592.67	49356.05
592.86	49755.40
593.06	49802.50
593.26	49962.25
593.46	49898.76
593.66	50167.04
593.86	49923.33
594.05	49788.17
594.25	50046.21
594.45	49845.51
594.65	49984.77
594.85	49739.02
595.05	50230.53
595.24	50345.22
595.44	49954.05
595.64	50382.08
595.84	50468.09
596.04	50058.50
596.23	50302.21
596.43	50433.28
596.63	49710.35
596.83	50279.68
597.03	50730.23
597.22	50861.30
597.42	50447.61
597.62	50695.42
597.82	50455.81
598.02	50107.65
598.21	50869.50
598.41	50666.75
598.61	50511.10
598.81	50388.22
599.01	50574.59
599.20	50599.16
599.40	50580.73
599.60	50953.46
599.80	50492.67
600.00	51014.90
600.19	51045.62
600.39	50437.37
600.59	51066.10
600.79	50711.80
600.98	51029.24
601.18	51420.40
601.38	51389.68
601.58	51614.96
601.78	51637.48
601.97	51098.87
602.17	51365.10
602.37	51363.06
602.57	51377.39
602.76	51627.24
602.96	51135.73
603.16	51846.38
603.36	51492.08
603.55	51557.61
603.75	51444.98
603.95	51756.27
604.15	51672.30
604.34	51840.23
604.54	52141.28
604.74	51758.31
604.94	51991.78
605.13	52249.83
605.33	52215.01
605.53	52331.75
605.73	52032.74
605.92	52481.25
606.12	52204.77
606.32	52307.17
606.52	52106.47
606.71	51860.71
606.91	52526.30
607.11	51827.95
607.30	52659.42
607.50	51938.54
607.70	52344.03
607.90	52522.21
608.09	52229.35
608.29	52528.35
608.49	52679.90
608.68	52413.66
608.88	52614.37
609.08	52303.07
609.28	52452.58
609.47	52341.99
609.67	53523.66
609.87	52968.66
610.06	52847.83
610.26	52292.83
610.46	52841.69
610.66	53085.40
610.85	52856.03
611.05	52591.84
611.25	53042.39
611.44	52962.52
611.64	52505.82
611.84	52827.35
612.03	53210.32
612.23	52841.69
612.43	53331.15
612.62	52860.12
612.82	53187.80
613.02	53208.28
613.21	53071.06
613.41	52903.13
613.61	53552.33
613.80	52702.43
614.00	53138.65
614.20	53294.29
614.39	52845.79
614.59	53384.40
614.79	53646.54
614.98	53656.78
615.18	53320.91
615.38	53546.19
615.57	53169.36
615.77	53662.93
615.97	53210.32
616.16	53683.40
616.36	53581.01
616.56	53703.88
616.75	53531.86
616.95	53443.79
617.15	53578.96
617.34	53564.62
617.54	53335.25
617.74	53857.48
617.93	53755.08
618.13	53404.88
618.32	53777.61
618.52	53433.55
618.72	53576.91
618.91	54140.10
619.11	53415.12
619.31	53673.16
619.50	53716.17
619.70	53540.05
619.90	53822.67
620.09	53798.09
620.29	53818.57
620.48	53650.64
620.68	54236.36
620.88	53474.51
621.07	53523.66
621.27	53802.19
621.46	53247.19
621.66	53826.76
621.86	53540.05
622.05	53650.64
622.25	53773.52
622.44	53474.51
622.64	53681.36
622.84	54473.92
623.03	53445.84
623.23	53853.39
623.42	53953.74
623.62	54174.92
623.82	54375.62
624.01	54160.58
624.21	54310.08
624.40	53740.75
624.60	54301.89
624.80	54119.62
624.99	54191.30
625.19	53617.87
625.38	54330.56
625.58	54080.71
625.77	54144.20
625.97	54662.33
626.17	54082.76
626.36	54205.64
626.56	54738.11
626.75	53705.93
626.95	53882.06
627.14	54613.18
627.34	55000.25
627.54	54088.90
627.73	54654.14
627.93	54856.89
628.12	54293.70
628.32	54531.26
628.51	54801.60
628.71	54465.73
628.90	54764.73
629.10	54920.38
629.30	54944.95
629.49	54981.82
629.69	54637.76
629.88	54527.17
630.08	54957.24
630.27	55137.46
630.47	55082.17
630.66	54764.73
630.86	54973.63
631.05	54555.84
631.25	55106.74
631.44	54901.95
631.64	54889.66
631.84	55354.55
632.03	55719.09
632.23	54877.37
632.42	55264.44
632.62	55106.74
632.81	54650.05
633.01	55073.98
633.20	55608.50
633.40	55278.77
633.59	54779.07
633.79	55174.33
633.98	55127.22
634.18	55850.16
634.37	55436.47
634.57	55211.19
634.76	55749.81
634.96	55686.32
635.15	55571.63
635.35	55213.24
635.54	55061.69
635.74	55628.98
635.93	55747.76
636.13	55137.46
636.32	55868.59
636.52	55383.22
636.71	55649.45
636.91	55917.74
637.10	56042.66
637.30	55661.74
637.49	55346.36
637.69	55772.33
637.88	55825.58
638.08	55891.12
638.27	56042.66
638.46	56173.73
638.66	55739.57
638.85	55944.36
639.05	55727.28
639.24	55772.33
639.44	55604.40
639.63	55833.77
639.83	55958.70
640.02	56308.90
640.22	55821.48
640.41	56159.40
640.61	55473.33
640.80	55692.46
640.99	55702.70
641.19	55966.89
641.38	55948.46
641.58	55936.17
641.77	55927.98
641.97	55981.23
642.16	55909.55
642.36	56317.09
642.55	56495.27
642.74	55927.98
642.94	56505.51
643.13	56222.89
643.33	56738.97
643.52	56493.22
643.72	56634.53
643.91	56169.64
644.10	56515.75
644.30	56820.89
644.49	56231.08
644.69	56573.09
644.88	56841.37
645.08	56472.74
645.27	56603.81
645.46	56605.86
645.66	56904.86
645.85	56554.66
646.05	56902.81
646.24	56734.88
646.43	56898.72
646.63	57117.85
646.82	57212.06
647.02	56784.03
647.21	56622.24
647.40	56597.66
647.60	57064.60
647.79	57402.52
647.99	56874.14
648.18	56579.23
648.37	56956.06
648.57	56716.45
648.76	57289.88
648.96	57130.14
649.15	57056.41
649.34	57261.21
649.54	57517.20
649.73	56845.47
649.92	57148.57
650.12	57021.59
650.31	57341.08
650.51	56954.01
650.70	57201.82
650.89	56695.97
651.09	57226.39
651.28	57031.83
651.47	57320.60
651.67	56765.60
651.86	57193.62
652.06	56956.06
652.25	57089.18
652.44	57230.49
652.64	57099.42
652.83	56921.24
653.02	57029.79
653.22	57066.65
653.41	57074.84
653.60	56773.79
653.80	57025.69
653.99	56818.84
654.18	56644.77
654.38	56771.74
654.57	57509.01
654.76	57197.72
654.96	56890.52
655.15	57502.87
655.34	56925.34
655.54	56595.62
655.73	56988.83
655.92	57210.01
656.12	57029.79
656.31	57326.74
656.50	56978.59
656.70	57083.03
656.89	57250.97
657.08	56974.49
657.28	57130.14
657.47	56990.87
657.66	57402.52
657.86	56800.41
658.05	56931.48
658.24	57232.53
658.43	56857.76
658.63	57271.45
658.82	57384.08
659.01	57080.98
659.21	57304.21
659.40	56886.43
659.59	56990.87
659.79	57267.35
659.98	57281.69
660.17	57181.34
660.36	57048.22
660.56	57285.78
660.75	57113.75
660.94	57506.96
661.14	56521.89
661.33	56949.92
661.52	56540.32
661.71	57253.01
661.91	56777.89
662.10	56499.36
662.29	57189.53
662.49	57105.56
662.68	56736.93
662.87	56974.49
663.06	57048.22
663.26	56636.58
663.45	57259.16
663.64	56738.97
663.83	57461.91
664.03	57334.93
664.22	56536.23
664.41	57169.05
664.60	56616.10
664.80	56935.58
664.99	56710.30
665.18	56595.62
665.37	56779.93
665.57	57201.82
665.76	56300.71
665.95	56591.52
666.14	56323.24
666.34	56267.94
666.53	56698.01
666.72	56595.62
666.91	56370.34
667.11	56249.51
667.30	56323.24
667.49	56425.64
667.68	56601.76
667.87	56186.02
668.07	56458.40
668.26	56274.09
668.45	56456.35
668.64	56179.88
668.84	57171.10
669.03	56761.50
669.22	56618.14
669.41	56026.28
669.60	56249.51
669.80	56077.48
669.99	56603.81
670.18	56147.11
670.37	56138.92
670.57	56743.07
670.76	56028.33
670.95	56153.26
671.14	56167.59
671.33	55420.08
671.53	56507.55
671.72	55839.92
671.91	56130.73
672.10	56169.64
672.29	56431.78
672.48	55925.93
672.68	55866.54
672.87	55702.70
673.06	55760.05
673.25	55903.40
673.44	55739.57
673.64	55590.06
673.83	56001.71
674.02	55702.70
674.21	55622.83
674.40	56136.87
674.59	55770.28
674.79	55606.45
674.98	55393.46
675.17	55700.65
675.36	55532.72
675.55	56202.41
675.74	55356.60
675.94	55522.48
676.13	55547.06
676.32	55532.72
676.51	55815.34
676.70	55532.72
676.89	55473.33
677.08	56067.24
677.28	55458.99
677.47	55573.68
677.66	55207.09
677.85	55725.23
678.04	55622.83
678.23	55635.12
678.42	55520.43
678.62	55424.18
678.81	55590.06
679.00	55002.30
679.19	55809.20
679.38	55014.58
679.57	55364.79
679.76	55458.99
679.96	55168.18
680.15	55153.85
680.34	55342.26
680.53	55086.26
680.72	55831.72
680.91	55784.62
681.10	55203.00
681.29	55110.84
681.48	54895.80
681.68	55102.65
681.87	54987.96
682.06	55139.51
682.25	54740.16
682.44	54940.86
682.63	55323.83
682.82	54772.92
683.01	55428.27
683.20	54588.61
683.39	54932.67
683.59	54768.83
683.78	54822.08
683.97	55026.87
684.16	54744.25
684.35	54529.22
684.54	54334.66
684.73	54445.25
684.92	54383.81
685.11	54473.92
685.30	54478.02
685.49	54813.88
685.69	54523.07
685.88	54420.67
686.07	54396.10
686.26	54604.99
686.45	54412.48
686.64	54293.70
686.83	54074.57
687.02	54539.46
687.21	54383.81
687.40	54416.58
687.59	54043.85
687.78	54297.80
687.97	54398.15
688.16	54254.79
688.35	53855.43
688.54	53896.39
688.74	54252.74
688.93	54154.44
689.12	54203.59
689.31	54064.33
689.50	54279.36
689.69	53695.69
689.88	53832.91
690.07	53867.72
690.26	54238.40
690.45	54355.14
690.64	53925.07
690.83	53982.41
691.02	53200.08
691.21	54256.84
691.40	54174.92
691.59	54213.83
691.78	53861.58
691.97	54179.01
692.16	53990.60
692.35	54209.73
692.54	53685.45
692.73	53683.40
692.92	53822.67
693.11	53861.58
693.30	53720.27
693.49	53587.15
693.68	54088.90
693.87	53867.72
694.06	53173.46
694.25	53638.35
694.44	53820.62
694.63	53353.68
694.82	53447.89
695.01	53685.45
695.20	53581.01
695.39	53490.90
695.58	53118.17
695.77	53404.88
695.96	53077.21
696.15	53718.22
696.34	53431.50
696.53	53374.16
696.72	53046.49
696.91	53296.34
697.10	53077.21
697.29	53540.05
697.48	53165.27
697.67	53122.26
697.86	53150.93
698.05	53277.91
698.24	53351.63
698.43	52301.03
698.62	53193.94
698.81	53023.96
699.00	53482.70
699.19	53021.91
699.38	53023.96
699.57	52294.88
699.76	53329.11
699.95	52747.48
700.14	52755.68
700.32	52677.85
700.51	52587.74
700.70	53533.90
700.89	53228.76
701.08	52655.32
701.27	52215.01
701.46	53288.15
701.65	52544.73
701.84	52921.56
702.03	52722.91
702.22	52868.31
702.41	52944.09
702.60	52655.32
702.79	52798.68
702.98	52313.31
703.17	52077.80
703.35	52487.39
703.54	52479.20
703.73	52856.03
703.92	52542.69
704.11	52546.78
704.30	52602.08
704.49	52446.43
704.68	52524.25
704.87	52157.67
705.06	52505.82
705.25	52901.08
705.43	52684.00
705.62	52835.55
705.81	52126.95
706.00	52489.44
706.19	52520.16
706.38	52423.90
706.57	52249.83
706.76	52675.80
706.95	52430.05
707.14	52311.27
707.32	52448.48
707.51	51789.03
707.70	52344.03
707.89	52184.29
708.08	52503.77
708.27	52239.59
708.46	52460.77
708.65	52073.70
708.84	52473.06
709.02	52462.82
709.21	52489.44
709.40	52245.73
709.59	52597.98
709.78	52002.02
709.97	52198.63
710.16	51766.51
710.34	51956.97
710.53	52278.50
710.72	52065.51
710.91	52174.05
711.10	51889.38
711.29	52473.06
711.48	52370.66
711.66	52116.71
711.85	51846.38
712.04	51926.25
712.23	51860.71
712.42	51733.74
712.61	51743.98
712.80	51688.68
712.98	52049.13
713.17	52100.32
713.36	51512.56
713.55	51803.37
713.74	52077.80
713.93	51434.74
714.11	52384.99
714.30	51682.54
714.49	51688.68
714.68	51883.24
714.87	52090.09
715.06	52085.99
715.24	51559.66
715.43	51975.40
715.62	51172.60
715.81	51576.04
716.00	51795.18
716.18	51365.10
716.37	51324.14
716.56	50746.62
716.75	51526.89
716.94	51459.31
717.12	51215.60
717.31	51909.86
717.50	51651.82
717.69	51277.04
717.88	51483.89
718.06	51180.79
718.25	51424.50
718.44	50713.85
718.63	51440.88
718.82	50996.47
719.00	51006.71
719.19	50683.13
719.38	50812.15
719.57	50703.61
719.76	50513.15
719.94	50820.34
720.13	50701.56
720.32	50738.43
720.51	51043.57
720.69	50844.92
720.88	50746.62
721.07	50617.60
721.26	50414.85
721.44	50533.63
721.63	50279.68
721.82	50576.64
722.01	50478.33
722.20	50248.96
722.38	50205.95
722.57	50025.73
722.76	50154.75
722.95	50111.75
723.13	49952.01
723.32	49960.20
723.51	49786.12
723.70	49888.52
723.88	49669.39
724.07	49767.69
724.26	49906.95
724.44	49505.55
724.63	49919.24
724.82	50132.23
725.01	49874.18
725.19	50087.17
725.38	49626.38
725.57	49345.81
725.76	49964.29
725.94	49669.39
726.13	49542.41
726.32	49362.19
726.51	49038.61
726.69	49704.20
726.88	49775.88
727.07	49650.95
727.25	49546.51
727.44	49628.43
727.63	49544.46
727.82	49276.18
728.00	49970.44
728.19	49222.93
728.38	49530.12
728.56	48950.55
728.75	49566.99
728.94	49251.60
729.12	49765.64
729.31	49501.45
729.50	49489.16
729.69	49536.27
729.87	49427.73
730.06	49030.42
730.25	49370.38
730.43	49911.05
730.62	49218.83
730.81	49386.77
730.99	49620.23
731.18	49378.57
731.37	48909.59
731.55	49683.72
731.74	49566.99
731.93	49667.34
732.11	49730.83
732.30	49487.12
732.49	49401.10
732.67	49001.75
732.86	49208.59
733.05	49055.00
733.23	49163.54
733.42	49560.84
733.61	49186.07
733.79	49437.97
733.98	49743.11
734.17	49616.14
734.35	49548.56
734.54	49386.77
734.73	49282.32
734.91	48866.58
735.10	48991.51
735.29	49294.61
735.47	48495.90
735.66	49333.52
735.84	48913.69
736.03	48975.12
736.22	49237.26
736.40	48938.26
736.59	48782.62
736.78	49075.48
736.96	49042.71
737.15	48803.10
737.33	49210.64
737.52	48872.73
737.71	48799.00
737.89	48782.62
738.08	48923.93
738.27	48573.72
738.45	49286.42
738.64	49214.74
738.82	49014.04
739.01	48440.60
739.20	48375.07
739.38	48561.44
739.57	48917.78
739.75	48639.26
739.94	48739.61
740.13	48395.55
740.31	48289.06
740.50	48215.33
740.68	48223.52
740.87	48852.25
741.06	48516.38
741.24	48123.17
741.43	48157.99
741.61	48096.55
741.80	48016.68
741.99	47887.65
742.17	48051.49
742.36	48084.26
742.54	48067.87
742.73	48043.30
742.91	48395.55
743.10	48207.14
743.29	47895.85
743.47	48346.40
743.66	47625.51
743.84	48188.70
744.03	47959.33
744.21	47924.52
744.40	48024.87
744.59	47809.83
744.77	47758.63
744.96	47783.21
745.14	47297.84
745.33	47527.21
745.51	47551.79
745.70	47269.17
745.88	47252.78
746.07	47383.85
746.26	47174.96
746.44	47224.11
746.63	47043.89
746.81	46890.29
747.00	46814.52
747.18	47138.10
747.37	47420.72
747.55	46718.26
747.74	47375.66
747.92	46767.41
748.11	46824.76
748.29	46980.40
748.48	47242.54
748.66	46824.76
748.85	46882.10
749.03	46851.38
749.22	46800.18
749.41	46632.25
749.59	46656.82
749.78	46687.54
749.96	46112.06
750.15	46806.33
750.33	46445.88
750.52	46564.67
750.70	46503.23
750.89	46275.90
751.07	46624.06
751.26	46056.77
751.44	45931.84
751.63	45987.14
751.81	46150.98
752.00	46046.53
752.18	46318.91
752.37	46030.15
752.55	45735.24
752.74	45737.29
752.92	45921.60
753.10	45417.80
753.29	45475.15
753.47	45593.93
753.66	45798.73
753.84	46155.07
754.03	45530.44
754.21	45331.79
754.40	45690.18
754.58	45471.05
754.77	45471.05
754.95	45317.45
755.14	45196.62
755.32	45348.17
755.51	45190.48
755.69	45335.88
755.88	45153.62
756.06	45495.63
756.24	44959.06
756.43	44731.73
756.61	44952.91
756.80	44977.49
756.98	44524.89
757.17	44531.03
757.35	44791.12
757.54	44479.83
757.72	44840.28
757.90	44528.98
758.09	44410.20
758.27	44330.33
758.46	44592.47
758.64	44414.30
758.83	44971.35
759.01	44258.65
759.19	44096.86
759.38	44184.93
759.56	44553.56
759.75	44348.76
759.93	44086.62
760.12	44152.16
760.30	44016.99
760.48	44215.65
760.67	43990.37
760.85	44078.43
761.04	44096.86
761.22	43898.21
761.40	44125.53
761.59	43814.24
761.77	43715.94
761.96	43689.32
762.14	43251.05
762.32	43416.94
762.51	43111.79
762.69	43373.93
762.88	43294.06
763.06	43343.21
763.24	43394.41
763.43	43652.45
763.61	43648.36
763.80	43310.44
763.98	42743.16
764.16	42956.14
764.35	42775.92
764.53	42263.93
764.72	42384.76
764.90	42792.31
765.08	42593.65
765.27	42610.04
765.45	42579.32
765.63	41829.76
765.82	42190.20
766.00	42435.96
766.18	42208.64
766.37	42548.60
766.55	42112.38
766.74	42112.38
766.92	42184.06
767.10	42083.71
767.29	42096.00
767.47	41575.81
767.65	41926.02
767.84	41549.19
768.02	41940.35
768.20	41553.29
768.39	41827.71
768.57	41602.44
768.75	41497.99
768.94	41577.86
769.12	41497.99
769.30	41346.44
769.49	41471.37
769.67	41252.23
769.85	40809.87
770.04	41192.84
770.22	40981.90
770.40	40930.70
770.59	41092.49
770.77	41072.01
770.95	41098.64
771.14	40828.30
771.32	40730.00
771.50	40867.22
771.69	40777.11
771.87	40897.94
772.05	40527.25
772.24	40361.37
772.42	40523.16
772.60	40310.17
772.78	40318.36
772.97	40150.43
773.15	40494.49
773.33	40529.30
773.52	40396.18
773.70	40449.43
773.88	40215.96
774.07	40043.93
774.25	40383.90
774.43	40394.14
774.61	40111.52
774.80	40279.45
774.98	40091.04
775.16	40490.39
775.34	40242.59
775.53	39896.48
775.71	40678.80
775.89	40013.21
776.08	40510.87
776.26	40367.51
776.44	40291.74
776.62	40088.99
776.81	39990.69
776.99	40349.08
777.17	40088.99
777.35	40025.50
777.54	40308.12
777.72	40306.07
777.90	40150.43
778.08	40052.12
778.27	40267.16
778.45	40523.16
778.63	40596.88
778.81	39980.45
779.00	40764.82
779.18	40474.01
779.36	40789.39
779.54	40285.59
779.73	40402.33
779.91	40572.31
780.09	40392.09
780.27	40678.80
780.46	40537.49
780.64	40926.61
780.82	40476.05
781.00	40424.86
781.19	40531.35
781.37	40727.95
781.55	40805.78
781.73	40725.91
781.91	40918.42
782.10	40596.88
782.28	40936.85
782.46	40607.12
782.64	40971.66
782.82	40482.20
783.01	40703.38
783.19	40891.79
783.37	40744.34
783.55	40650.13
783.74	40895.89
783.92	40136.09
784.10	41119.12
784.28	40717.71
784.46	40324.50
784.64	40435.10
784.83	40762.77
785.01	40541.59
785.19	40883.60
785.37	40588.69
785.55	40490.39
785.74	40586.64
785.92	40322.46
786.10	40752.53
786.28	40342.94
786.46	40437.14
786.64	39986.59
786.83	40492.44
787.01	40357.27
787.19	40291.74
787.37	40697.24
787.55	40252.83
787.74	40109.47
787.92	40299.93
788.10	40148.38
788.28	39937.44
788.46	39976.35
788.64	39581.09
788.82	40195.48
789.01	40164.76
789.19	39585.19
789.37	39454.12
789.55	39773.60
789.73	39591.33
789.91	39472.55
790.09	39601.57
790.28	39546.28
790.46	39171.50
790.64	39861.66
790.82	39191.98
791.00	38925.74
791.18	38940.08
791.36	39134.63
791.55	39181.74
791.73	39073.20
791.91	38696.37
792.09	38606.26
792.27	39030.19
792.45	38772.14
792.63	38968.75
792.81	38706.61
793.00	38673.84
793.18	38446.52
793.36	38430.13
793.54	38553.01
793.72	37815.74
793.90	37903.81
794.08	38151.61
794.26	38241.72
794.44	37768.64
794.62	37758.40
794.81	37821.89
794.99	37952.96
795.17	37590.47
795.35	37422.53
795.53	37518.79
795.71	37875.13
795.89	36928.97
796.07	37057.99
796.25	36906.44
796.43	37209.54
796.61	36799.95
796.80	36920.78
796.98	36992.46
797.16	36455.89
797.34	36752.85
797.52	36558.29
797.70	36369.88
797.88	36586.96
798.06	36263.38
798.24	36836.81
798.42	36335.06
798.60	36122.07
798.78	36257.24
798.96	35993.05
799.14	36257.24
799.32	35870.17
799.51	35749.34
799.69	36244.95
799.87	35712.48
800.05	35628.51
800.23	35462.63
800.41	35302.89
800.59	35503.59
800.77	35382.76
800.95	34805.23
801.13	35114.47
801.31	35065.32
801.49	35157.48
801.67	35214.82
801.85	34950.63
802.03	34823.66
802.21	34584.05
802.39	34442.74
802.57	34756.08
802.75	34403.83
802.93	34207.22
803.11	34168.31
803.29	34131.45
803.47	33904.12
803.65	34113.02
803.83	34283.00
804.01	34522.61
804.19	33871.36
804.37	33754.62
804.55	33633.79
804.73	33916.41
804.91	33875.45
805.09	33771.00
805.27	33543.68
805.45	33265.16
805.63	33521.15
805.81	34168.31
805.99	33459.71
806.17	33220.10
806.35	33342.98
806.53	32986.63
806.71	33379.84
806.89	33216.01
807.07	33218.05
807.25	33201.67
807.43	32734.73
807.61	33035.78
807.79	32699.92
807.97	32886.28
808.15	32589.33
808.33	32540.18
808.51	32720.40
808.69	32364.05
808.87	32237.08
809.05	32046.62
809.23	32140.82
809.41	32159.25
809.59	32046.62
809.77	32093.72
809.95	31700.51
810.13	32187.92
810.31	31962.65
810.49	32019.99
810.67	31831.58
810.84	31903.26
811.02	31538.72
811.20	31479.33
811.38	31774.24
811.56	31643.17
811.74	31508.00
811.92	31178.28
812.10	31262.24
812.28	31454.75
812.46	31272.48
812.64	31333.92
812.82	31030.82
813.00	31335.97
813.18	31540.77
813.36	30944.81
813.53	30737.96
813.71	30754.35
813.89	30901.80
814.07	31049.25
814.25	30766.63
814.43	30721.58
814.61	30676.52
814.79	30588.46
814.97	30547.50
815.15	30676.52
815.33	30185.01
815.50	30127.67
815.68	30346.80
815.86	30680.62
816.04	30379.57
816.22	30379.57
816.40	30469.68
816.58	30240.31
816.76	29931.06
816.94	30178.87
817.11	30416.43
817.29	29857.34
817.47	29972.02
817.65	29851.19
817.83	29595.20
818.01	29787.71
818.19	29460.03
818.37	29466.17
818.54	29392.45
818.72	29173.31
818.90	29521.47
819.08	29550.14
819.26	29912.63
819.44	29603.39
819.62	29306.43
819.80	29689.40
819.97	29460.03
820.15	29316.67
820.33	29308.48
820.51	29187.65
820.69	29066.82
820.87	29367.87
821.05	29331.01
821.22	29208.13
821.40	29220.42
821.58	28907.08
821.76	28773.96
821.94	28710.47
822.12	29036.10
822.29	28804.68
822.47	28546.64
822.65	28954.18
822.83	28769.86
823.01	28966.47
823.19	28628.56
823.36	28520.01
823.54	28622.41
823.72	28714.57
823.90	28644.94
824.08	28264.02
824.25	28501.58
824.43	28221.01
824.61	28048.98
824.79	28319.31
824.97	28229.20
825.15	28669.51
825.32	28419.66
825.50	27790.94
825.68	28048.98
825.86	28331.60
826.04	28352.08
826.21	27860.57
826.39	27747.93
826.57	28057.17
826.75	27917.91
826.93	27727.45
827.10	27643.48
827.28	27461.21
827.46	27876.95
827.64	28178.00
827.81	27758.17
827.99	27725.40
828.17	27469.40
828.35	27715.16
828.53	27563.61
828.70	27301.47
828.88	27459.16
829.06	27293.28
829.24	27598.43
829.41	27342.43
829.59	27557.47
829.77	27512.41
829.95	27283.04
830.12	26900.07
830.30	27485.79
830.48	27459.16
830.66	27414.11
830.84	27270.75
831.01	26685.03
831.19	27217.50
831.37	27043.43
831.55	27049.57
831.72	27029.09
831.90	26857.06
832.08	27254.37
832.25	26625.64
832.43	26871.40
832.61	26785.38
832.79	26711.66
832.96	26572.39
833.14	26736.23
833.32	27192.93
833.50	26941.03
833.67	26787.43
833.85	26674.79
834.03	26756.71
834.20	26779.24
834.38	26539.63
834.56	26502.76
834.74	26572.39
834.91	26394.22
835.09	26422.89
835.27	26244.72
835.44	26646.12
835.62	25966.20
835.80	26039.92
835.98	26564.20
836.15	26234.48
836.33	26312.30
836.51	26142.32
836.68	25814.65
836.86	25853.56
837.04	26166.90
837.21	26383.98
837.39	26078.83
837.57	26259.06
837.75	26154.61
837.92	25601.66
838.10	25538.17
838.28	25558.65
838.45	25960.05
838.63	25826.93
838.81	25740.92
838.98	25659.00
839.16	25368.19
839.34	25497.21
839.51	25802.36
839.69	25558.65
839.87	25597.56
840.04	25308.80
840.22	25673.34
840.40	25370.24
840.57	25454.20
840.75	25353.85
840.93	25040.51
841.10	25419.39
841.28	25695.86
841.46	25517.69
841.63	25382.52
841.81	25656.95
841.98	25151.10
842.16	25333.37
842.34	25210.50
842.51	25267.84
842.69	25140.86
842.87	24790.66
843.04	25194.11
843.22	25003.65
843.40	24858.24
843.57	24985.22
843.75	25435.77
843.92	25349.76
844.10	24774.28
844.28	24991.36
844.45	25087.62
844.63	24946.31
844.81	24561.29
844.98	24864.39
845.16	24821.38
845.33	24888.96
845.51	24960.64
845.69	24614.54
845.86	24788.61
846.04	24495.75
846.21	24704.65
846.39	24573.58
846.57	24295.05
846.74	24481.42
846.92	24362.64
847.09	24200.85
847.27	24405.64
847.45	24278.67
847.62	24446.60
847.80	24405.64
847.97	24204.94
848.15	24422.03
848.32	23860.88
848.50	24073.87
848.68	23799.44
848.85	24247.95
849.03	23664.28
849.20	24245.90
849.38	24284.81
849.56	24215.18
849.73	23594.65
849.91	23621.27
850.08	23946.90
850.26	23695.00
850.43	23695.00
850.61	23471.77
850.78	23557.78
850.96	23744.15
851.14	23750.29
851.31	23795.35
851.49	23598.74
851.66	23975.57
851.84	23803.54
852.01	23602.84
852.19	23449.24
852.36	23662.23
852.54	23248.54
852.71	23393.95
852.89	23385.76
853.07	23402.14
853.24	23164.57
853.42	23015.07
853.59	23205.53
853.77	23260.83
853.94	23391.90
854.12	23326.36
854.29	22845.09
854.47	23396.00
854.64	23164.57
854.82	23056.03
854.99	23236.25
855.17	23156.38
855.34	22947.49
855.52	23092.90
855.69	23129.76
855.87	22828.71
856.04	22816.42
856.22	22957.73
856.39	22595.24
856.57	22544.04
856.74	22800.04
856.92	22689.45
857.09	22365.87
857.27	22773.41
857.44	22709.93
857.62	22828.71
857.79	22834.85
857.97	22791.84
858.14	22787.75
858.32	22589.10
858.49	22310.57
858.67	22535.85
858.84	22552.23
859.02	22447.79
859.19	22433.45
859.37	22437.55
859.54	22144.69
859.72	22398.63
859.89	22273.71
860.06	22210.22
860.24	22316.72
860.41	22286.00
860.59	21860.02
860.76	22255.28
860.94	21657.27
861.11	22150.83
861.29	21939.89
861.46	21798.58
861.64	21862.07
861.81	21997.23
861.98	21962.42
862.16	21651.13
862.33	21833.39
862.51	21847.73
862.68	21886.64
862.86	21577.40
863.03	21759.67
863.21	21604.02
863.38	21663.41
863.55	21567.16
863.73	21659.32
863.90	21481.14
864.08	21634.74
864.25	21515.96
864.43	21339.83
864.60	21610.17
864.77	21294.78
864.95	21239.48
865.12	21178.04
865.30	21225.15
865.47	21370.55
865.64	21417.66
865.82	21350.07
865.99	21395.13
866.17	20952.77
866.34	21317.31
866.51	21219.00
866.69	21100.22
866.86	21003.97
867.04	21038.78
867.21	20973.25
867.38	20807.36
867.56	20938.43
867.73	21147.33
867.91	20713.16
868.08	20932.29
868.25	20641.48
868.43	20641.48
868.60	20649.67
868.78	20520.65
868.95	20704.96
869.12	20670.15
869.30	20481.74
869.47	20575.94
869.64	20326.09
869.82	20391.62
869.99	20389.58
870.16	20201.16
870.34	20098.77
870.51	20448.97
870.69	20344.52
870.86	20197.07
871.03	20391.62
871.21	20135.63
871.38	20111.05
871.55	19857.10
871.73	19875.54
871.90	19865.30
872.07	19881.68
872.25	19750.61
872.42	19455.70
872.59	19973.84
872.77	19689.17
872.94	19420.89
873.11	19642.07
873.29	19461.85
873.46	19476.18
873.63	19230.43
873.81	19439.32
873.98	19158.75
874.15	19459.80
874.33	18966.24
874.50	19326.68
874.67	19257.05
874.85	19205.85
875.02	19068.64
875.19	18962.14
875.37	18953.95
875.54	18876.13
875.71	18994.91
875.88	19039.97
876.06	19017.44
876.23	18718.43
876.40	18812.64
876.58	18675.43
876.75	18898.66
876.92	18779.87
877.10	19054.30
877.27	18462.44
877.44	18331.37
877.61	18456.29
877.79	18378.47
877.96	18444.01
878.13	18542.31
878.31	18173.67
878.48	18226.92
878.65	18202.35
878.82	18233.07
879.00	18226.92
879.17	18237.16
879.34	18163.43
879.51	18095.85
879.69	17993.45
879.86	17768.18
880.03	18050.80
880.21	17901.29
880.38	18005.74
880.55	17909.49
880.72	18013.93
880.90	17932.01
881.07	17692.40
881.24	17999.60
881.41	17585.91
881.59	17604.34
881.76	17776.37
881.93	17616.63
882.10	17538.80
882.28	17297.14
882.45	17499.89
882.62	17721.07
882.79	17790.70
882.96	17428.21
883.14	17395.45
883.31	17520.37
883.48	17424.12
883.65	17348.34
883.83	17528.56
884.00	17297.14
884.17	17262.33
884.34	17460.98
884.51	17350.39
884.69	17243.90
884.86	17239.80
885.03	17440.50
885.20	16996.09
885.38	17096.44
885.55	17188.60
885.72	16938.75
885.89	17129.21
886.06	16865.02
886.24	16856.83
886.41	17094.40
886.58	16936.70
886.75	17086.20
886.92	16744.19
887.10	16959.23
887.27	16867.07
887.44	16865.02
887.61	16703.23
887.78	16875.26
887.95	16803.58
888.13	16537.35
888.30	16701.19
888.47	16480.00
888.64	16408.33
888.81	16545.54
888.99	16295.69
889.16	16279.30
889.33	16310.02
889.50	16238.34
889.67	16342.79
889.84	16115.47
890.01	16289.54
890.19	16449.28
890.36	16350.98
890.53	16242.44
890.70	16058.12
890.87	16058.12
891.04	16025.36
891.22	15871.76
891.39	15994.64
891.56	15873.81
891.73	15734.54
891.90	16103.18
892.07	15582.99
892.24	15920.91
892.42	15785.74
892.59	15847.18
892.76	15666.96
892.93	15804.17
893.10	15750.93
893.27	15609.62
893.44	15699.73
893.61	15550.23
893.79	15671.06
893.96	15605.52
894.13	15492.88
894.30	15771.41
894.47	15517.46
894.64	15652.63
894.81	15757.07
894.98	15724.30
895.15	15683.34
895.33	15550.23
895.50	15550.23
895.67	15507.22
895.84	15566.61
896.01	15331.09
896.18	15193.88
896.35	15413.01
896.52	15404.82
896.69	15421.20
896.86	15419.16
897.04	15558.42
897.21	15564.56
897.38	15410.96
897.55	15556.37
897.72	15558.42
897.89	15329.05
898.06	15380.25
898.23	15273.75
898.40	15304.47
898.57	15521.56
898.74	15105.82
898.91	15396.63
899.08	15277.85
899.26	15406.87
899.43	15388.44
899.60	15494.93
899.77	15181.59
899.94	15167.26
900.11	15142.68
900.28	15286.04
900.45	15066.91
900.62	14901.02
900.79	15367.96
900.96	15187.74
901.13	15308.57
901.30	15277.85
901.47	15097.63
901.64	15273.75
901.81	14995.23
901.98	15015.71
902.15	15105.82
902.32	14966.56
902.49	15247.13
902.66	15179.54
902.83	15124.25
903.01	14974.75
903.18	15236.89
903.35	15077.15
903.52	15197.98
903.69	15386.39
903.86	15286.04
904.03	15202.07
904.20	15265.56
904.37	15181.59
904.54	15226.65
904.71	15294.23
904.88	15275.80
905.05	15034.14
905.22	15073.05
905.39	15038.23
905.56	15148.82
905.73	14952.22
905.90	15109.91
906.07	15032.09
906.24	14882.59
906.41	15083.29
906.58	15015.71
906.75	14870.30
906.92	14956.32
907.09	14952.22
907.26	15183.64
907.43	14751.52
907.60	14905.12
907.77	14980.89
907.93	15054.62
908.10	14927.64
908.27	15171.35
908.44	14802.72
908.61	14812.96
908.78	14827.29
908.95	15048.47
909.12	14722.85
909.29	14827.29
909.46	14819.10
909.63	14991.13
909.80	15044.38
909.97	14966.56
910.14	14843.68
910.31	14921.50
910.48	14731.04
910.65	14706.46
910.82	14585.63
910.99	14634.78
911.16	14522.15
911.33	14649.12
911.50	14477.09
911.66	14319.40
911.83	14728.99
912.00	14407.46
912.17	14393.12
912.34	14417.70
912.51	14378.79
912.68	14280.49
912.85	14212.90
913.02	14403.36
913.19	14176.04
913.36	14425.89
913.53	14253.86
913.70	14241.57
913.86	14202.66
914.03	14389.03
914.20	14231.33
914.37	14294.82
914.54	14094.12
914.71	14090.02
914.88	13918.00
915.05	14143.27
915.22	13799.21
915.39	14012.20
915.55	13889.32
915.72	13862.70
915.89	13915.95
916.06	13922.09
916.23	13827.88
916.40	13825.84
916.57	13756.21
916.74	13766.45
916.91	13774.64
917.07	13567.79
917.24	13356.85
917.41	13829.93
917.58	13582.13
917.75	13369.14
917.92	13463.35
918.09	13408.05
918.26	13397.81
918.42	13371.19
918.59	13141.82
918.76	13352.76
918.93	13037.37
919.10	13182.77
919.27	13047.61
919.44	13221.69
919.60	13266.74
919.77	13049.66
919.94	13018.94
920.11	13078.33
920.28	13111.10
920.45	13047.61
920.61	12654.40
920.78	12660.54
920.95	12685.12
921.12	12719.93
921.29	12556.10
921.46	12566.34
921.62	12508.99
921.79	12588.86
921.96	12365.64
922.13	12494.66
922.30	12384.07
922.47	12293.96
922.63	12097.35
922.80	12336.96
922.97	12056.39
923.14	11990.86
923.31	12261.19
923.47	12207.94
923.64	12152.65
923.81	12033.86
923.98	12078.92
924.15	11837.26
924.32	11812.68
924.48	12054.34
924.65	11939.66
924.82	11663.18
924.99	11792.20
925.15	11622.22
925.32	11712.33
925.49	11353.94
925.66	11671.37
925.83	11394.90
925.99	11462.48
926.16	11396.95
926.33	11495.25
926.50	11319.12
926.67	11472.72
926.83	11151.19
927.00	11034.46
927.17	11067.22
927.34	10983.26
927.50	11282.26
927.67	11208.53
927.84	11188.05
928.01	10923.87
928.17	11044.70
928.34	10958.68
928.51	10950.49
928.68	10665.82
928.84	10585.95
929.01	10418.02
929.18	10415.97
929.35	10598.24
929.51	10454.88
929.68	10536.80
929.85	10377.06
930.02	10356.58
930.18	10313.57
930.35	10268.52
930.52	10317.67
930.69	10444.64
930.85	10276.71
931.02	10311.52
931.19	10116.97
931.36	10168.16
931.52	9998.18
931.69	10196.84
931.86	9951.08
932.02	9856.87
932.19	9967.46
932.36	9981.80
932.53	9811.82
932.69	9625.45
932.86	9727.85
933.03	9635.69
933.19	9355.12
933.36	9568.11
933.53	9641.84
933.70	9535.34
933.86	9447.28
934.03	9379.70
934.20	9203.57
934.36	9363.31
934.53	9047.93
934.70	9092.98
934.86	9060.21
935.03	9056.12
935.20	8900.47
935.36	8830.84
935.53	8925.05
935.70	8699.77
935.86	8699.77
936.03	8650.62
936.20	8517.50
936.36	8331.14
936.53	8433.54
936.70	8417.15
936.86	8372.10
937.03	8183.68
937.20	8003.46
937.36	8105.86
937.53	7747.47
937.70	7686.03
937.86	7761.80
938.03	7673.74
938.20	7882.63
938.36	7307.15
938.53	7460.75
938.70	7384.98
938.86	7458.70
939.03	7227.28
939.20	7122.84
939.36	7008.15
939.53	7128.98
939.70	7147.41
939.86	6770.58
940.03	6844.31
940.19	6791.06
940.36	6729.63
940.53	6639.51
940.69	6338.46
940.86	6645.66
941.03	6416.29
941.19	6201.25
941.36	6360.99
941.52	6238.11
941.69	6174.63
941.86	6045.60
942.02	6154.15
942.19	6068.13
942.35	6080.42
942.52	5844.90
942.69	5820.33
942.85	5722.02
943.02	5836.71
943.18	5793.70
943.35	5775.27
943.52	5711.78
943.68	5660.59
943.85	5664.68
944.01	5519.28
944.18	5439.40
944.35	5504.94
944.51	5550.00
944.68	5351.34
944.84	5318.57
945.01	5240.75
945.17	5435.31
945.34	5361.58
945.51	5382.06
945.67	5318.57
945.84	5218.22
946.00	5171.12
946.17	5197.74
946.33	5212.08
946.50	5228.46
946.67	5289.90
946.83	5081.01
947.00	5349.29
947.16	5040.05
947.33	5230.51
947.49	5195.70
947.66	5087.15
947.82	5332.91
947.99	5199.79
948.16	5126.07
948.32	5238.70
948.49	5248.94
948.65	5189.55
948.82	5173.17
948.98	5101.49
949.15	5074.87
949.31	5226.42
949.48	5244.85
949.64	5214.13
949.81	5218.22
949.97	5287.86
950.14	5253.04
950.30	5167.03
950.47	5353.39
950.63	5191.60
950.80	5218.22
950.96	5216.18
951.13	5150.64
951.30	5224.37
951.46	5326.77
951.63	5304.24
951.79	5334.96
951.96	5439.40
952.12	5312.43
952.29	5246.90
952.45	5097.39
952.62	5281.71
952.78	5474.22
952.94	5361.58
953.11	5400.49
953.27	5162.93
953.44	5533.61
953.60	5283.76
953.77	5433.26
953.93	5451.69
954.10	5306.29
954.26	5447.60
954.43	5291.95
954.59	5414.83
954.76	5380.01
954.92	5289.90
955.09	5412.78
955.25	5279.66
955.42	5392.30
955.58	5466.03
955.75	5463.98
955.91	5396.40
956.07	5343.15
956.24	5367.73
956.40	5466.03
956.57	5328.81
956.73	5287.86
956.90	5525.42
957.06	5472.17
957.23	5334.96
957.39	5425.07
957.56	5455.79
957.72	5263.28
957.88	5373.87
958.05	5480.36
958.21	5547.95
958.38	5576.62
958.54	5533.61
958.71	5537.71
958.87	5380.01
959.03	5197.74
959.20	5410.73
959.36	5410.73
959.53	5408.69
959.69	5355.44
959.85	5447.60
960.02	5455.79
960.18	5375.92
960.35	5398.45
960.51	5496.75
960.68	5308.34
960.84	5373.87
961.00	5312.43
961.17	5400.49
961.33	5398.45
961.50	5513.13
961.66	5302.19
961.82	5365.68
961.99	5427.12
962.15	5447.60
962.31	5427.12
962.48	5380.01
962.64	5398.45
962.81	5343.15
962.97	5416.88
963.13	5511.08
963.30	5359.53
963.46	5441.45
963.62	5281.71
963.79	5255.09
963.95	5324.72
964.12	5463.98
964.28	5318.57
964.44	5210.03
964.61	5322.67
964.77	5222.32
964.93	5494.70
965.10	5365.68
965.26	5267.38
965.42	5345.20
965.59	5267.38
965.75	5148.59
965.92	5314.48
966.08	5386.16
966.24	5320.62
966.41	5234.61
966.57	5304.24
966.73	5361.58
966.90	5310.38
967.06	5253.04
967.22	5156.79
967.39	5189.55
967.55	5214.13
967.71	5171.12
967.88	5130.16
968.04	5173.17
968.20	5205.94
968.37	5048.24
968.53	5148.59
968.69	5285.81
968.85	5130.16
969.02	5105.59
969.18	5076.91
969.34	5087.15
969.51	5212.08
969.67	5121.97
969.83	4915.12
970.00	5107.63
970.16	5173.17
970.32	5197.74
970.48	5115.83
970.65	4968.37
970.81	4923.32
970.97	4980.66
971.14	4878.26
971.30	4986.80
971.46	5023.67
971.63	5091.25
971.79	5095.35
971.95	4997.04
972.11	4892.60
972.28	4908.98
972.44	4945.84
972.60	4908.98
972.76	4906.93
972.93	4798.39
973.09	4923.32
973.25	4874.17
973.42	4857.78
973.58	4894.65
973.74	4917.17
973.90	4833.21
974.07	4947.89
974.23	4798.39
974.39	4874.17
974.55	4861.88
974.72	4720.57
974.88	4716.47
975.04	4884.41
975.20	4720.57
975.37	4841.40
975.53	4755.38
975.69	4779.96
975.85	4743.10
976.01	4800.44
976.18	4691.90
976.34	4800.44
976.50	4765.62
976.66	4708.28
976.83	4808.63
976.99	4730.81
977.15	4669.37
977.31	4614.07
977.47	4779.96
977.64	4698.04
977.80	4626.36
977.96	4640.70
978.12	4534.20
978.29	4683.70
978.45	4511.68
978.61	4661.18
978.77	4603.83
978.93	4483.00
979.10	4509.63
979.26	4583.35
979.42	4552.63
979.58	4351.93
979.74	4423.61
979.91	4458.43
980.07	4413.37
980.23	4472.76
980.39	4362.17
980.55	4550.59
980.71	4380.61
980.88	4313.02
981.04	4444.09
981.20	4310.97
981.36	4413.37
981.52	4515.77
981.68	4382.65
981.85	4323.26
982.01	4249.54
982.17	4286.40
982.33	4286.40
982.49	4360.13
982.65	4247.49
982.82	4372.41
982.98	4274.11
983.14	4179.90
983.30	4296.64
983.46	4335.55
983.62	4343.74
983.79	4198.34
983.95	4216.77
984.11	4153.28
984.27	4280.25
984.43	4196.29
984.59	4321.21
984.75	4227.01
984.91	4261.82
985.08	4222.91
985.24	4169.66
985.40	4140.99
985.56	4122.56
985.72	4224.96
985.88	4222.91
986.04	4079.55
986.20	4075.46
986.37	4192.19
986.53	4038.59
986.69	4057.03
986.85	4122.56
987.01	4020.16
987.17	4016.07
987.33	4026.31
987.49	4009.92
987.65	4057.03
987.82	4085.70
987.98	4030.40
988.14	4022.21
988.30	4001.73
988.46	3897.28
988.62	3975.11
988.78	3915.72
988.94	4026.31
989.10	3944.39
989.26	3891.14
989.42	3858.37
989.59	3950.53
989.75	3807.17
989.91	3985.35
990.07	3729.35
990.23	3825.61
990.39	3807.17
990.55	3917.76
990.71	3876.80
990.87	3801.03
991.03	3811.27
991.19	3727.30
991.35	3758.02
991.51	3704.78
991.67	3878.85
991.83	3893.19
992.00	3778.50
992.16	3827.65
992.32	3825.61
992.48	3766.21
992.64	3626.95
992.80	3594.19
992.96	3719.11
993.12	3784.65
993.28	3809.22
993.44	3624.90
993.60	3669.96
993.76	3825.61
993.92	3600.33
994.08	3719.11
994.24	3682.25
994.40	3624.90
994.56	3698.63
994.72	3483.59
994.88	3549.13
995.04	3506.12
995.20	3563.47
995.36	3467.21
995.52	3657.67
995.68	3438.54
995.84	3499.98
996.00	3729.35
996.16	3522.51
996.32	3481.55
996.48	3598.28
996.64	3518.41
996.80	3524.55
996.96	3549.13
997.12	3403.72
997.28	3463.12
997.44	3401.68
997.60	3444.68
997.76	3381.20
997.92	3510.22
998.08	3504.07
998.24	3401.68
998.40	3393.48
998.56	3393.48
998.72	3262.41
998.88	3313.61
999.04	3348.43
999.20	3405.77
999.36	3375.05
999.52	3432.40
999.68	3350.48
999.84	3336.14
1000.00	3225.55
1000.16	3452.88
1000.32	3252.17
1000.48	3350.48
1000.64	3303.37
1000.80	3213.26
1000.95	3186.64
1001.11	3305.42
1001.27	3266.51
1001.43	3276.75
1001.59	3112.91
1001.75	3164.11
1001.91	3151.82
1002.07	3241.93
1002.23	3067.86
1002.39	3223.50
1002.55	3133.39
1002.71	3043.28
1002.87	3123.15
1003.03	3090.38
1003.19	3110.86
1003.34	3131.34
1003.50	3135.44
1003.66	3221.45
1003.82	3194.83
1003.98	3041.23
1004.14	3112.91
1004.30	3080.14
1004.46	3051.47
1004.62	3080.14
1004.78	3043.28
1004.94	2904.02
1005.09	3180.50
1005.25	3076.05
1005.41	3030.99
1005.57	2996.18
1005.73	2932.69
1005.89	2955.22
1006.05	3067.86
1006.21	2920.40
1006.37	2961.36
1006.52	2996.18
1006.68	2858.96
1006.84	3121.10
1007.00	2944.98
1007.16	3071.95
1007.32	2795.48
1007.48	2889.68
1007.64	2985.94
1007.79	2944.98
1007.95	2836.44
1008.11	2994.13
1008.27	2863.06
1008.43	2928.60
1008.59	2983.89
1008.75	2811.86
1008.91	3010.51
1009.06	2877.40
1009.22	2824.15
1009.38	2959.31
1009.54	2818.00
1009.70	2795.48
1009.86	2883.54
1010.01	2809.81
1010.17	2734.04
1010.33	2869.20
1010.49	2797.53
1010.65	2775.00
1010.81	2801.62
1010.96	2760.66
1011.12	2797.53
1011.28	2609.11
1011.44	2822.10
1011.60	2713.56
1011.76	2652.12
1011.91	2736.09
1012.07	2564.06
1012.23	2709.46
1012.39	2576.34
1012.55	2703.32
1012.71	2672.60
1012.86	2617.30
1013.02	2709.46
1013.18	2664.41
1013.34	2654.17
1013.50	2713.56
1013.65	2793.43
1013.81	2664.41
1013.97	2627.54
1014.13	2654.17
1014.29	2531.29
1014.44	2777.05
1014.60	2596.82
1014.76	2662.36
1014.92	2525.15
1015.07	2625.50
1015.23	2672.60
1015.39	2564.06
1015.55	2549.72
1015.71	2596.82
1015.86	2555.86
1016.02	2496.47
1016.18	2455.51
1016.34	2572.25
1016.49	2494.43
1016.65	2682.84
1016.81	2516.95
1016.97	2525.15
1017.12	2586.58
1017.28	2449.37
1017.44	2435.03
1017.60	2424.80
1017.75	2539.48
1017.91	2449.37
1018.07	2461.66
1018.23	2510.81
1018.38	2387.93
1018.54	2516.95
1018.70	2478.04
1018.86	2500.57
1019.01	2361.31
1019.17	2414.56
1019.33	2527.19
1019.49	2418.65
1019.64	2453.47
1019.80	2369.50
1019.96	2420.70
1020.12	2320.35
1020.27	2367.45
1020.43	2437.08
1020.59	2412.51
1020.74	2459.61
1020.90	2521.05
1021.06	2351.07
1021.22	2428.89
1021.37	2355.16
1021.53	2287.58
1021.69	2322.40
1021.84	2263.01
1022.00	2398.17
1022.16	2373.60
1022.31	2320.35
1022.47	2365.40
1022.63	2340.83
1022.79	2230.24
1022.94	2328.54
1023.10	2385.88
1023.26	2295.77
1023.41	2230.24
1023.57	2285.53
1023.73	2297.82
1023.88	2263.01
1024.04	2156.51
1024.20	2324.44
1024.35	2277.34
1024.51	2346.97
1024.67	2252.77
1024.82	2355.16
1024.98	2224.09
1025.14	2199.52
1025.29	2211.81
1025.45	2220.00
1025.61	2174.94
1025.76	2242.53
1025.92	2215.90
1026.08	2285.53
1026.23	2271.20
1026.39	2226.14
1026.55	2220.00
1026.70	2207.71
1026.86	2240.48
1027.02	2197.47
1027.17	2215.90
1027.33	2199.52
1027.48	2191.33
1027.64	2211.81
1027.80	2136.03
1027.95	2179.04
1028.11	2054.11
1028.27	2199.52
1028.42	2174.94
1028.58	2181.09
1028.73	2109.41
1028.89	2082.78
1029.05	2211.81
1029.20	2215.90
>>>>>End Processed Spectral Data<<<<<
