SpectraSuite Data File
++++++++++++++++++++++++++++++++++++
Date: Fri Jun 02 14:47:59 CEST 2017
User: INFO_000
Dark Spectrum Present: No
Reference Spectrum Present: No
Number of Sampled Component Spectra: 1
Spectrometers: USB4H00879
Integration Time (usec): 80000 (USB4H00879)
Spectra Averaged: 1 (USB4H00879)
Boxcar Smoothing: 0 (USB4H00879)
Correct for Electrical Dark: No (USB4H00879)
Strobe/Lamp Enabled: No (USB4H00879)
Correct for Detector Non-linearity: No (USB4H00879)
Correct for Stray Light: No (USB4H00879)
Number of Pixels in Processed Spectrum: 3648
>>>>>Begin Processed Spectral Data<<<<<
345.13	1228.78
345.34	1228.78
345.56	1228.78
345.78	1304.56
345.99	1251.31
346.21	1693.67
346.42	1660.90
346.64	1603.56
346.86	1865.70
347.07	1554.41
347.29	1673.19
347.50	1535.98
347.72	1636.33
347.94	1816.55
348.15	1593.32
348.37	1650.66
348.59	1691.62
348.80	1605.61
349.02	1820.64
349.23	1847.27
349.45	1785.83
349.67	1925.09
349.88	1820.64
350.10	1933.28
350.31	1796.07
350.53	1802.21
350.75	1970.15
350.96	1822.69
351.18	1779.68
351.39	1875.94
351.61	1742.82
351.82	1906.66
352.04	1937.38
352.26	1753.06
352.47	1837.03
352.69	1925.09
352.90	1777.64
353.12	1830.88
353.34	1880.04
353.55	1929.19
353.77	1890.28
353.98	1894.37
354.20	1822.69
354.41	1871.84
354.63	1941.47
354.85	1998.82
355.06	1900.52
355.28	1785.83
355.49	1966.05
355.71	1816.55
355.92	1906.66
356.14	1945.57
356.35	1849.32
356.57	1867.75
356.79	1951.71
357.00	1853.41
357.22	1894.37
357.43	1779.68
357.65	1927.14
357.86	1822.69
358.08	1894.37
358.29	1968.10
358.51	1976.29
358.72	1957.86
358.94	1859.56
359.16	1943.52
359.37	1992.67
359.59	1961.95
359.80	2027.49
360.02	1931.23
360.23	1976.29
360.45	2035.68
360.66	1877.99
360.88	1892.32
361.09	1902.56
361.31	2009.06
361.52	1943.52
361.74	2043.87
361.95	2127.84
362.17	1918.95
362.38	2097.12
362.60	2115.55
362.81	1945.57
363.03	1912.80
363.24	2019.30
363.46	1970.15
363.67	2019.30
363.89	1994.72
364.10	1945.57
364.32	2000.87
364.53	2070.50
364.75	1880.04
364.96	2140.13
365.18	2017.25
365.39	2011.11
365.61	1855.46
365.82	2082.78
366.04	2033.63
366.25	1955.81
366.47	2039.78
366.68	1996.77
366.90	2002.91
367.11	2054.11
367.33	2101.22
367.54	2136.03
367.76	2011.11
367.97	2125.79
368.19	1976.29
368.40	2007.01
368.62	2101.22
368.83	2056.16
369.05	2078.69
369.26	1959.91
369.48	2019.30
369.69	1978.34
369.91	2035.68
370.12	1978.34
370.33	2039.78
370.55	2011.11
370.76	1970.15
370.98	2025.44
371.19	2054.11
371.41	1961.95
371.62	2025.44
371.84	1957.86
372.05	2185.18
372.27	2007.01
372.48	2082.78
372.69	2064.35
372.91	2123.74
373.12	2133.98
373.34	2056.16
373.55	2117.60
373.77	2142.18
373.98	2107.36
374.20	2140.13
374.41	2248.67
374.62	2105.31
374.84	2076.64
375.05	2172.89
375.27	2197.47
375.48	2140.13
375.70	2111.46
375.91	2222.05
376.12	2258.91
376.34	2138.08
376.55	2088.93
376.77	2150.37
376.98	2070.50
377.19	2170.85
377.41	2183.13
377.62	2217.95
377.84	2236.38
378.05	2318.30
378.27	2242.53
378.48	2271.20
378.69	2375.64
378.91	2316.25
379.12	2224.09
379.34	2205.66
379.55	2342.88
379.76	2359.26
379.98	2263.01
380.19	2238.43
380.41	2189.28
380.62	2275.29
380.83	2226.14
381.05	2211.81
381.26	2338.78
381.47	2279.39
381.69	2260.96
381.90	2369.50
382.12	2260.96
382.33	2322.40
382.54	2162.66
382.76	2342.88
382.97	2314.20
383.19	2291.68
383.40	2318.30
383.61	2293.72
383.83	2328.54
384.04	2303.96
384.25	2338.78
384.47	2412.51
384.68	2389.98
384.89	2236.38
385.11	2379.74
385.32	2371.55
385.54	2279.39
385.75	2346.97
385.96	2398.17
386.18	2398.17
386.39	2392.03
386.60	2441.18
386.82	2385.88
387.03	2486.23
387.24	2502.62
387.46	2463.71
387.67	2535.39
387.88	2547.67
388.10	2443.23
388.31	2428.89
388.52	2615.26
388.74	2543.58
388.95	2531.29
389.16	2461.66
389.38	2404.32
389.59	2580.44
389.80	2580.44
390.02	2541.53
390.23	2621.40
390.44	2602.97
390.66	2578.39
390.87	2551.77
391.08	2531.29
391.30	2623.45
391.51	2672.60
391.72	2691.03
391.94	2668.50
392.15	2545.63
392.36	2580.44
392.58	2672.60
392.79	2662.36
393.00	2631.64
393.22	2736.09
393.43	2740.18
393.64	2738.13
393.85	2834.39
394.07	2680.79
394.28	2674.65
394.49	2650.07
394.71	2852.82
394.92	2832.34
395.13	2686.94
395.35	2686.94
395.56	2805.72
395.77	2775.00
395.98	2836.44
396.20	2953.17
396.41	2861.01
396.62	2867.16
396.84	2822.10
397.05	2807.77
397.26	2912.21
397.47	2922.45
397.69	2916.31
397.90	3020.75
398.11	2932.69
398.32	2852.82
398.54	2899.92
398.75	2881.49
398.96	2981.84
399.18	2975.70
399.39	2944.98
399.60	3102.67
399.81	3061.71
400.03	2897.88
400.24	3346.38
400.45	2973.65
400.66	3047.38
400.88	3086.29
401.09	3129.30
401.30	3041.23
401.51	3190.74
401.73	3055.57
401.94	3080.14
402.15	3065.81
402.36	3096.53
402.58	3213.26
402.79	3147.73
403.00	3186.64
403.21	3117.01
403.43	3207.12
403.64	3323.85
403.85	3125.20
404.06	3194.83
404.27	3108.82
404.49	3225.55
404.70	3200.98
404.91	3258.32
405.12	3397.58
405.34	3186.64
405.55	3344.33
405.76	3215.31
405.97	3166.16
406.19	3260.37
406.40	3229.65
406.61	3379.15
406.82	3305.42
407.03	3233.74
407.25	3293.13
407.46	3393.48
407.67	3356.62
407.88	3407.82
408.09	3342.28
408.31	3350.48
408.52	3407.82
408.73	3377.10
408.94	3299.28
409.15	3416.01
409.37	3409.87
409.58	3409.87
409.79	3436.49
410.00	3514.31
410.21	3348.43
410.43	3389.39
410.64	3375.05
410.85	3516.36
411.06	3512.27
411.27	3540.94
411.48	3534.79
411.70	3559.37
411.91	3508.17
412.12	3547.08
412.33	3477.45
412.54	3473.36
412.76	3649.48
412.97	3547.08
413.18	3532.75
413.39	3495.88
413.60	3702.73
413.81	3655.62
414.03	3536.84
414.24	3608.52
414.45	3833.80
414.66	3514.31
414.87	3704.78
415.08	3651.53
415.30	3649.48
415.51	3678.15
415.72	3612.62
415.93	3686.34
416.14	3776.45
416.35	3819.46
416.56	3753.93
416.78	3778.50
416.99	3903.43
417.20	3696.58
417.41	3891.14
417.62	3930.05
417.83	3835.85
418.04	3868.61
418.26	3921.86
418.47	3893.19
418.68	4046.79
418.89	3944.39
419.10	4005.83
419.31	4011.97
419.52	3960.77
419.73	3997.64
419.95	4059.07
420.16	3917.76
420.37	4009.92
420.58	3794.89
420.79	3917.76
421.00	4054.98
421.21	4089.79
421.42	4018.11
421.63	4229.06
421.85	4005.83
422.06	4104.13
422.27	4173.76
422.48	4046.79
422.69	4337.60
422.90	4251.58
423.11	4181.95
423.32	4403.13
423.53	4427.71
423.75	4470.72
423.96	4505.53
424.17	4280.25
424.38	4523.96
424.59	4458.43
424.80	4603.83
425.01	4405.18
425.22	4427.71
425.43	4419.52
425.64	4624.31
425.85	4648.89
426.06	4523.96
426.28	4618.17
426.49	4399.04
426.70	4642.75
426.91	4468.67
427.12	4630.46
427.33	4577.21
427.54	4607.93
427.75	4728.76
427.96	4908.98
428.17	4575.16
428.38	4818.87
428.59	4870.07
428.80	4876.21
429.01	4859.83
429.23	4732.86
429.44	5062.58
429.65	4992.95
429.86	4931.51
430.07	4802.49
430.28	4847.54
430.49	5052.34
430.70	5011.38
430.91	5072.82
431.12	5054.39
431.33	5210.03
431.54	5169.07
431.75	5220.27
431.96	5076.91
432.17	5068.72
432.38	5154.74
432.59	5365.68
432.80	5142.45
433.01	5263.28
433.22	5214.13
433.43	5093.30
433.64	5443.50
433.85	5207.98
434.06	5455.79
434.27	5373.87
434.49	5384.11
434.70	5420.97
434.91	5398.45
435.12	5556.14
435.33	5416.88
435.54	5490.60
435.75	5332.91
435.96	5408.69
436.17	5382.06
436.38	5533.61
436.59	5685.16
436.80	5529.52
437.01	5875.62
437.22	5728.17
437.43	5638.06
437.64	5357.49
437.85	5740.46
438.06	5685.16
438.27	5427.12
438.48	5552.04
438.69	5726.12
438.90	5795.75
439.11	5801.90
439.32	5908.39
439.53	5801.90
439.74	5851.05
439.95	5957.54
440.16	5844.90
440.37	5834.66
440.57	5769.13
440.78	5902.25
440.99	5975.97
441.20	5873.57
441.41	5793.70
441.62	5930.92
441.83	5967.78
442.04	6053.80
442.25	6059.94
442.46	6049.70
442.67	6170.53
442.88	6557.60
443.09	5941.16
443.30	6066.08
443.51	6061.99
443.72	6240.16
443.93	6051.75
444.14	6291.36
444.35	6074.28
444.56	6303.65
444.77	6217.63
444.98	6201.25
445.19	6238.11
445.40	6211.49
445.61	6416.29
445.81	6293.41
446.02	6490.01
446.23	6354.85
446.44	6320.03
446.65	6465.44
446.86	6557.60
447.07	6356.90
447.28	6623.13
447.49	6619.04
447.70	6490.01
447.91	6406.05
448.12	6438.81
448.33	6721.43
448.54	6631.32
448.74	6649.75
448.95	6651.80
449.16	6530.97
449.37	6948.76
449.58	6569.88
449.79	6891.41
450.00	6711.19
450.21	6733.72
450.42	6973.33
450.63	7067.54
450.84	6834.07
451.05	6950.81
451.25	6895.51
451.46	6889.37
451.67	7192.47
451.88	7227.28
452.09	7128.98
452.30	6944.66
452.51	7071.64
452.72	7237.52
452.93	7516.05
453.13	7106.45
453.34	7118.74
453.55	7194.51
453.76	7380.88
453.97	7614.35
454.18	7325.58
454.39	7421.84
454.60	7520.14
454.81	7387.02
455.01	7411.60
455.22	7366.54
455.43	7507.85
455.64	7841.67
455.85	7901.06
456.06	7931.78
456.27	7833.48
456.48	7782.28
456.68	7890.82
456.89	7729.03
457.10	8028.04
457.31	8105.86
457.52	7894.92
457.73	8124.29
457.94	8249.22
458.14	7980.93
458.35	8275.84
458.56	8054.66
458.77	8179.59
458.98	8206.21
459.19	8243.07
459.39	8529.79
459.60	8509.31
459.81	8275.84
460.02	8497.02
460.23	8349.57
460.44	8744.83
460.65	8763.26
460.85	8753.02
461.06	8769.40
461.27	8697.72
461.48	8890.23
461.69	9054.07
461.89	8730.49
462.10	9064.31
462.31	8736.63
462.52	8859.51
462.73	8970.10
462.94	9183.09
463.14	9246.58
463.35	8978.30
463.56	9496.43
463.77	9293.68
463.98	9164.66
464.18	9320.31
464.39	9410.42
464.60	9635.69
464.81	9580.40
465.02	9461.62
465.23	9848.68
465.43	9688.94
465.64	9836.39
465.85	9764.72
466.06	9822.06
466.27	10110.82
466.47	10096.49
466.68	9957.22
466.89	9822.06
467.10	10157.92
467.30	10065.77
467.51	10078.05
467.72	10583.90
467.93	10110.82
468.14	10450.78
468.34	10395.49
468.55	10401.63
468.76	10579.81
468.97	10487.65
469.17	10942.30
469.38	10800.99
469.59	10911.58
469.80	10825.56
470.01	10895.19
470.21	10774.36
470.42	11034.46
470.63	11165.53
470.84	10948.44
471.04	11276.12
471.25	11358.03
471.46	11493.20
471.67	11454.29
471.87	11511.63
472.08	11562.83
472.29	11976.52
472.50	11306.84
472.70	11700.05
472.91	11540.30
473.12	11931.47
473.33	12160.84
473.53	12060.49
473.74	12021.58
473.95	12142.41
474.16	12470.08
474.36	12451.65
474.57	12564.29
474.78	12670.78
474.99	12543.81
475.19	12459.84
475.40	12709.69
475.61	12797.76
475.81	12824.38
476.02	13047.61
476.23	12904.25
476.44	12949.31
476.64	13410.10
476.85	13483.83
477.06	13285.17
477.27	13571.89
477.47	13623.09
477.68	13543.22
477.89	13700.91
478.09	13690.67
478.30	13821.74
478.51	13788.97
478.71	13864.75
478.92	14165.80
479.13	14167.85
479.34	14167.85
479.54	14327.59
479.75	14393.12
479.96	14606.11
480.16	14614.30
480.37	14718.75
480.58	14847.77
480.78	14802.72
480.99	15148.82
481.20	15030.04
481.41	15224.60
481.61	15132.44
481.82	15292.18
482.03	15140.63
482.23	15146.78
482.44	15838.99
482.65	15736.59
482.85	15765.26
483.06	15654.67
483.27	15949.58
483.47	16031.50
483.68	15904.53
483.89	15896.33
484.09	16099.08
484.30	16322.31
484.51	16520.96
484.71	16498.44
484.92	16576.26
485.13	16723.71
485.33	16682.75
485.54	16885.50
485.75	17092.35
485.95	17137.40
486.16	17069.82
486.37	17374.97
486.57	17219.32
486.78	17518.32
486.98	17188.60
487.19	17641.20
487.40	17753.84
487.60	17532.66
487.81	17962.73
488.02	17929.97
488.22	17776.37
488.43	18210.54
488.64	18122.48
488.84	18171.63
489.05	18456.29
489.25	18384.62
489.46	18702.05
489.67	18550.50
489.87	18630.37
490.08	18726.63
490.29	18822.88
490.49	18990.81
490.70	19054.30
490.90	19099.36
491.11	18984.67
491.32	19267.29
491.52	19085.02
491.73	19554.01
491.94	19580.63
492.14	19467.99
492.35	20004.56
492.55	19678.93
492.76	19637.97
492.97	20186.83
493.17	20149.96
493.38	20180.68
493.58	19988.18
493.79	20348.62
494.00	20594.37
494.20	20518.60
494.41	20453.06
494.61	20807.36
494.82	20760.26
495.02	20793.03
495.23	20821.70
495.44	20905.66
495.64	21067.45
495.85	21362.36
496.05	21173.95
496.26	21219.00
496.47	21825.20
496.67	21522.10
496.88	21702.32
497.08	21405.37
497.29	21675.70
497.49	22066.86
497.70	21974.70
497.91	22099.63
498.11	22097.58
498.32	22374.06
498.52	22329.00
498.73	22466.22
498.93	22591.14
499.14	22683.30
499.34	22566.57
499.55	23021.22
499.76	22873.76
499.96	23154.33
500.17	22924.96
500.37	23021.22
500.58	23180.96
500.78	23072.42
500.99	22996.64
501.19	23492.25
501.40	23678.61
501.60	23500.44
501.81	23651.99
502.02	23684.76
502.22	23727.77
502.43	23672.47
502.63	23545.50
502.84	24190.61
503.04	23989.91
503.25	24145.55
503.45	24147.60
503.66	24362.64
503.86	24211.09
504.07	24788.61
504.27	24424.08
504.48	24641.16
504.68	24647.30
504.89	24915.59
505.09	25073.28
505.30	25007.75
505.50	24919.68
505.71	25161.34
505.91	25026.18
506.12	25294.46
506.32	25060.99
506.53	25357.95
506.73	25491.07
506.94	25341.57
507.14	25321.09
507.35	25732.73
507.55	25400.96
507.76	25636.47
507.96	25396.86
508.17	25714.30
508.37	25452.16
508.58	26037.87
508.78	26007.16
508.99	26445.42
509.19	26054.26
509.40	26310.25
509.60	26377.84
509.81	26605.16
510.01	26224.24
510.22	26338.93
510.42	26662.51
510.63	26476.14
510.83	26625.64
511.04	26717.80
511.24	27084.39
511.44	26771.05
511.65	26873.45
511.85	26738.28
512.06	27037.28
512.26	26801.77
512.47	26912.36
512.67	27129.44
512.88	27078.24
513.08	26965.60
513.29	27205.22
513.49	26990.18
513.69	27121.25
513.90	27324.00
514.10	27455.07
514.31	27504.22
514.51	27645.53
514.72	27778.65
514.92	27457.12
515.13	27420.25
515.33	27840.09
515.53	27885.14
515.74	27596.38
515.94	27842.14
516.15	27821.66
516.35	27975.25
516.56	28235.35
516.76	27774.55
516.96	28030.55
517.17	28266.06
517.37	28155.47
517.58	28313.17
517.78	28221.01
517.99	28397.13
518.19	28524.11
518.39	28438.09
518.60	28587.60
518.80	28536.40
519.01	29077.06
519.21	28667.47
519.41	28989.00
519.62	28689.99
519.82	29232.71
520.03	28724.81
520.23	28773.96
520.43	29109.83
520.64	29222.47
520.84	29374.02
521.05	29253.19
521.25	29652.54
521.45	29341.25
521.66	29648.44
521.86	29503.04
522.07	29341.25
522.27	29539.90
522.47	29539.90
522.68	29797.95
522.88	29808.19
523.08	30111.28
523.29	29685.31
523.49	29912.63
523.70	30113.33
523.90	30449.20
524.10	30049.85
524.31	30373.42
524.51	30250.55
524.71	30748.20
524.92	30537.26
525.12	30615.08
525.33	30504.49
525.53	30539.31
525.73	30879.27
525.94	30680.62
526.14	30930.47
526.34	30740.01
526.55	31122.98
526.75	31393.31
526.95	31399.46
527.16	31307.30
527.36	30893.61
527.56	31876.63
527.77	31591.97
527.97	31372.83
528.17	31333.92
528.38	31608.35
528.58	31684.12
528.78	32036.38
528.99	31823.39
529.19	31960.60
529.39	31997.46
529.60	32144.92
529.80	32171.54
530.00	32304.66
530.21	32572.94
530.41	32716.30
530.61	32292.37
530.82	32558.61
531.02	32525.84
531.22	32646.67
531.43	32712.20
531.63	33039.88
531.83	32923.15
532.04	33676.80
532.24	33152.52
532.44	33508.86
532.64	33760.76
532.85	33682.94
533.05	33582.59
533.25	33205.77
533.46	33648.13
533.66	33754.62
533.86	33828.35
534.07	34010.62
534.27	34221.56
534.47	34149.88
534.67	34342.39
534.88	34115.06
535.08	34215.41
535.28	34366.96
535.49	34592.24
535.69	34653.68
535.89	34856.43
536.09	34858.48
536.30	35194.34
536.50	34919.92
536.70	35118.57
536.91	34936.30
537.11	35196.39
537.31	35198.44
537.51	35360.23
537.72	35659.23
537.92	35857.88
538.12	35933.66
538.32	35468.77
538.53	36203.99
538.73	35495.39
538.93	35778.01
539.13	36199.90
539.34	36306.39
539.54	35866.08
539.74	36814.29
539.94	36187.61
540.15	36365.78
540.35	36548.05
540.55	36431.32
540.75	36392.40
540.96	36896.20
541.16	36810.19
541.36	37029.32
541.56	36951.50
541.77	37250.50
541.97	37131.72
542.17	37201.35
542.37	37516.74
542.58	37101.00
542.78	37111.24
542.98	37385.67
543.18	37553.60
543.38	37793.22
543.59	37789.12
543.79	37402.05
543.99	37647.81
544.19	37903.81
544.40	37664.19
544.60	38143.42
544.80	37848.51
545.00	38170.04
545.20	38561.20
545.41	38186.43
545.61	38282.68
545.81	38514.10
546.01	38337.98
546.21	38579.64
546.42	38591.92
546.62	38862.26
546.82	38802.86
547.02	38923.69
547.22	39126.44
547.43	39134.63
547.63	39206.31
547.83	39331.24
548.03	39022.00
548.23	39654.82
548.44	39421.35
548.64	39515.56
548.84	39583.14
549.04	39617.96
549.24	39972.25
549.45	39949.73
549.65	39650.72
549.85	39591.33
550.05	40205.72
550.25	39847.33
550.45	40646.04
550.66	40240.54
550.86	40136.09
551.06	40279.45
551.26	40455.57
551.46	39781.79
551.66	40359.32
551.87	40402.33
552.07	40680.85
552.27	40977.81
552.47	40957.33
552.67	40942.99
552.87	40687.00
553.07	40785.30
553.28	41225.61
553.48	41264.52
553.68	40928.66
553.88	41473.42
554.08	41489.80
554.28	41454.98
554.48	41125.26
554.69	41426.31
554.89	41424.26
555.09	41465.22
555.29	41338.25
555.49	41727.36
555.69	41586.05
555.89	41684.36
556.10	41817.47
556.30	41680.26
556.50	42120.57
556.70	41710.98
556.90	41764.23
557.10	41983.36
557.30	41944.45
557.50	42530.17
557.70	42472.82
557.91	42595.70
558.11	42243.45
558.31	42859.89
558.51	42036.61
558.71	42689.91
558.91	42493.30
559.11	41885.06
559.31	42560.89
559.51	42390.91
559.72	42542.45
559.92	42603.89
560.12	42546.55
560.32	42950.00
560.52	42868.08
560.72	42759.54
560.92	43175.28
561.12	42808.69
561.32	43451.75
561.52	42720.63
561.72	43591.01
561.93	42829.17
562.13	43427.18
562.33	42952.05
562.53	44025.18
562.73	43341.16
562.93	43672.93
563.13	43461.99
563.33	43455.85
563.53	43568.49
563.73	43433.32
563.93	43631.97
564.13	44178.78
564.33	43734.37
564.53	43724.13
564.74	43990.37
564.94	43474.28
565.14	43988.32
565.34	43840.87
565.54	43988.32
565.74	44115.29
565.94	44301.66
566.14	44146.01
566.34	44387.67
566.54	44442.97
566.74	43826.53
566.94	44684.63
567.14	44569.94
567.34	43830.63
567.54	44369.24
567.74	44285.28
567.94	44133.73
568.14	44266.84
568.34	44741.97
568.54	44709.21
568.74	44948.82
568.94	44666.20
569.14	44887.38
569.34	44791.12
569.54	45069.65
569.75	44971.35
569.95	44705.11
570.15	45139.28
570.35	45151.57
570.55	45028.69
570.75	45374.80
570.95	45428.04
571.15	44975.44
571.35	45208.91
571.55	45002.07
571.75	45253.97
571.95	45221.20
572.15	45272.40
572.35	45307.21
572.55	45583.69
572.75	45227.34
572.95	45188.43
573.15	45518.15
573.35	45671.75
573.55	45188.43
573.75	45503.82
573.95	45733.19
574.15	45573.45
574.35	45823.30
574.55	45516.11
574.75	45532.49
574.95	45884.74
575.15	45589.83
575.34	45647.18
575.54	46378.30
575.74	45976.90
575.94	45866.31
576.14	45739.33
576.34	46288.19
576.54	46067.01
576.74	46056.77
576.94	46144.83
577.14	46320.96
577.34	46484.79
577.54	45851.97
577.74	46019.91
577.94	46187.84
578.14	46245.18
578.34	46456.12
578.54	45878.60
578.74	46191.94
578.94	46830.90
579.14	46320.96
579.34	46529.85
579.54	46378.30
579.74	46568.76
579.94	46957.88
580.13	46996.79
580.33	46601.53
580.53	46798.13
580.73	47174.96
580.93	46839.09
581.13	46822.71
581.33	47146.29
581.53	46812.47
581.73	47209.78
581.93	47097.14
582.13	47031.60
582.33	47832.36
582.53	47248.69
582.73	47330.61
582.92	47080.75
583.12	47500.59
583.32	47291.69
583.52	47203.63
583.72	47365.42
583.92	46863.67
584.12	47553.83
584.32	47627.56
584.52	47482.16
584.72	47416.62
584.92	47760.68
585.11	48307.49
585.31	47641.90
585.51	47846.69
585.71	47594.79
585.91	48373.02
586.11	47689.00
586.31	47971.62
586.51	48209.18
586.71	47971.62
586.91	47990.05
587.10	47766.82
587.30	48004.39
587.50	48143.65
587.70	48530.72
587.90	48428.32
588.10	48260.38
588.30	48010.53
588.50	48379.17
588.69	48819.48
588.89	48117.03
589.09	48518.43
589.29	48418.08
589.49	48749.85
589.69	48565.53
589.89	48837.91
590.08	48344.35
590.28	48514.33
590.48	48653.59
590.68	48405.79
590.88	48782.62
591.08	48643.35
591.28	48780.57
591.47	49071.38
591.67	48985.36
591.87	48907.54
592.07	48842.01
592.27	48723.22
592.47	49011.99
592.67	49173.78
592.86	48753.94
593.06	48968.98
593.26	49186.07
593.46	49192.21
593.66	49194.26
593.86	49399.05
594.05	49337.62
594.25	49437.97
594.45	48835.86
594.65	49673.48
594.85	49079.57
595.05	49493.26
595.24	49397.01
595.44	49730.83
595.64	49550.60
595.84	49364.24
596.04	49896.71
596.23	49755.40
596.43	50300.16
596.63	49403.15
596.83	49632.52
597.03	50191.62
597.22	49941.77
597.42	50261.25
597.62	50513.15
597.82	49937.67
598.02	50310.40
598.21	50482.43
598.41	50283.78
598.61	49718.54
598.81	50511.10
599.01	50494.72
599.20	50283.78
599.40	50423.04
599.60	50578.68
599.80	50373.89
600.00	50791.67
600.19	50986.23
600.39	50611.45
600.59	51004.66
600.79	50785.53
600.98	50599.16
601.18	50726.14
601.38	51135.73
601.58	51109.11
601.78	51191.03
601.97	51459.31
602.17	51416.30
602.37	51055.86
602.57	51358.96
602.76	51498.22
602.96	51414.26
603.16	51338.48
603.36	51377.39
603.55	52319.46
603.75	51717.35
603.95	51508.46
604.15	52153.57
604.34	51598.57
604.54	51578.09
604.74	51883.24
604.94	51832.04
605.13	51860.71
605.33	52172.00
605.53	52215.01
605.73	52227.30
605.92	52067.56
606.12	52542.69
606.32	52770.01
606.52	52430.05
606.71	52790.49
606.91	52309.22
607.11	52165.86
607.30	53150.93
607.50	52896.98
607.70	53286.10
607.90	52681.95
608.09	52921.56
608.29	52729.05
608.49	52892.89
608.68	53148.88
608.88	52684.00
609.08	53159.12
609.28	53353.68
609.47	52712.67
609.67	53681.36
609.87	53251.28
610.06	53568.72
610.26	53298.39
610.46	53282.00
610.66	53394.64
610.85	53370.07
611.05	53128.41
611.25	53419.22
611.44	53476.56
611.64	53615.82
611.84	53021.91
612.03	53476.56
612.23	53615.82
612.43	53810.38
612.62	53785.80
612.82	53998.79
613.02	53568.72
613.21	53867.72
613.41	53585.10
613.61	53951.69
613.80	53499.09
614.00	53681.36
614.20	54017.22
614.39	53818.57
614.59	54133.96
614.79	53904.59
614.98	53947.59
615.18	53871.82
615.38	53783.76
615.57	53466.32
615.77	54021.32
615.97	54187.21
616.16	54113.48
616.36	54197.44
616.56	54109.38
616.75	54344.90
616.95	54054.09
617.15	54543.55
617.34	54355.14
617.54	54394.05
617.74	54901.95
617.93	54295.75
618.13	54641.85
618.32	54250.69
618.52	53957.83
618.72	54133.96
618.91	54381.76
619.11	54174.92
619.31	54518.98
619.50	53966.02
619.70	53988.55
619.90	54539.46
620.09	54183.11
620.29	54580.42
620.48	54570.18
620.68	54940.86
620.88	54310.08
621.07	54629.57
621.27	54232.26
621.46	54121.67
621.66	54332.61
621.86	54277.32
622.05	54674.62
622.25	54518.98
622.44	54504.64
622.64	53992.65
622.84	54437.06
623.03	54244.55
623.23	54531.26
623.42	54484.16
623.62	54850.75
623.82	55452.85
624.01	54375.62
624.21	54817.98
624.40	54744.25
624.60	54561.98
624.80	54232.26
624.99	54817.98
625.19	54371.52
625.38	54901.95
625.58	54809.79
625.77	54600.89
625.97	54979.77
626.17	54707.39
626.36	54490.30
626.56	55065.78
626.75	54543.55
626.95	55354.55
627.14	54705.34
627.34	55205.05
627.54	54529.22
627.73	54860.99
627.93	55313.59
628.12	54883.51
628.32	54854.84
628.51	54959.29
628.71	54883.51
628.90	55422.13
629.10	54795.45
629.30	54867.13
629.49	55063.74
629.69	54912.19
629.88	55080.12
630.08	55020.73
630.27	54699.20
630.47	55340.21
630.66	54889.66
630.86	55514.29
631.05	54768.83
631.25	55299.25
631.44	54963.39
631.64	54944.95
631.84	55112.89
632.03	55456.95
632.23	55305.40
632.42	55407.79
632.62	55473.33
632.81	55274.68
633.01	55475.38
633.20	55502.00
633.40	55526.58
633.59	55252.15
633.79	54717.63
633.98	55835.82
634.18	55579.82
634.37	55190.71
634.57	55284.92
634.76	55510.19
634.96	55571.63
635.15	55817.39
635.35	55043.26
635.54	55153.85
635.74	55563.44
635.93	55121.08
636.13	55985.32
636.32	55481.52
636.52	55127.22
636.71	55248.05
636.91	55588.02
637.10	55415.99
637.30	55358.64
637.49	55338.16
637.69	55784.62
637.88	56003.75
638.08	55116.98
638.27	55350.45
638.46	55610.54
638.66	55651.50
638.85	55235.77
639.05	55639.22
639.24	55993.51
639.44	55223.48
639.63	55739.57
639.83	55694.51
640.02	55796.91
640.22	55454.90
640.41	55921.83
640.61	55344.31
640.80	55622.83
640.99	55434.42
641.19	56036.52
641.38	55745.71
641.58	55628.98
641.77	55508.14
641.97	55317.68
642.16	55592.11
642.36	55493.81
642.55	55946.41
642.74	55428.27
642.94	55913.64
643.13	55483.57
643.33	56161.45
643.52	55835.82
643.72	55608.50
643.91	55452.85
644.10	55655.60
644.30	55973.03
644.49	56005.80
644.69	56399.01
644.88	56329.38
645.08	55483.57
645.27	56069.29
645.46	55987.37
645.66	56349.86
645.85	56028.33
646.05	56194.21
646.24	55768.24
646.43	55751.85
646.63	56134.82
646.82	56003.75
647.02	55985.32
647.21	56108.20
647.40	56245.41
647.60	56317.09
647.79	56059.05
647.99	56241.32
648.18	56265.89
648.37	56503.46
648.57	55960.75
648.76	56212.65
648.96	56106.15
649.15	56226.98
649.34	56200.36
649.54	56046.76
649.73	55846.06
649.92	55942.31
650.12	56128.68
650.31	56302.76
650.51	56263.85
650.70	56530.08
650.89	55694.51
651.09	56591.52
651.28	56183.97
651.47	56329.38
651.67	56470.69
651.86	56784.03
652.06	55727.28
652.25	56167.59
652.44	56161.45
652.64	56151.21
652.83	56034.47
653.02	55952.55
653.22	56335.52
653.41	56026.28
653.60	55766.19
653.80	55739.57
653.99	56333.48
654.18	55907.50
654.38	55643.31
654.57	56231.08
654.76	55919.79
654.96	55854.25
655.15	55710.89
655.34	56120.49
655.54	55440.56
655.73	56005.80
655.92	56077.48
656.12	56480.93
656.31	56487.07
656.50	55930.03
656.70	56188.07
656.89	55567.54
657.08	56132.78
657.28	56206.50
657.47	56120.49
657.66	56022.19
657.86	56104.10
658.05	56050.86
658.24	56130.73
658.43	56405.16
658.63	56007.85
658.82	56018.09
659.01	56349.86
659.21	56140.97
659.40	56042.66
659.59	55923.88
659.79	56122.54
659.98	56147.11
660.17	56222.89
660.36	55940.27
660.56	55958.70
660.75	56216.74
660.94	55893.16
661.14	55823.53
661.33	55780.52
661.52	55649.45
661.71	55960.75
661.91	55837.87
662.10	55905.45
662.29	56317.09
662.49	55743.66
662.68	55981.23
662.87	56439.97
663.06	55858.35
663.26	55887.02
663.45	56364.20
663.64	56009.90
663.83	56194.21
664.03	56190.12
664.22	55762.09
664.41	55794.86
664.60	55635.12
664.80	55862.44
664.99	55852.20
665.18	55678.13
665.37	56319.14
665.57	56091.82
665.76	55688.37
665.95	55643.31
666.14	55481.52
666.34	55741.61
666.53	55866.54
666.72	55977.13
666.91	55758.00
667.11	55782.57
667.30	55821.48
667.49	55555.25
667.68	55678.13
667.87	55645.36
668.07	55631.02
668.26	55893.16
668.45	56116.39
668.64	55588.02
668.84	56024.23
669.03	55577.78
669.22	55700.65
669.41	55608.50
669.60	55651.50
669.80	55520.43
669.99	55850.16
670.18	55880.88
670.37	55403.70
670.57	55801.00
670.76	55727.28
670.95	55794.86
671.14	55655.60
671.33	55608.50
671.53	55999.66
671.72	55760.05
671.91	55835.82
672.10	55616.69
672.29	55303.35
672.48	55475.38
672.68	55880.88
672.87	55168.18
673.06	55704.75
673.25	55671.98
673.44	55375.03
673.64	55694.51
673.83	55665.84
674.02	55297.20
674.21	55411.89
674.40	55575.73
674.59	55616.69
674.79	55452.85
674.98	54944.95
675.17	55311.54
675.36	55024.82
675.55	55575.73
675.74	55313.59
675.94	54990.01
676.13	55563.44
676.32	55821.48
676.51	55770.28
676.70	55301.30
676.89	55495.86
677.08	55694.51
677.28	55088.31
677.47	54940.86
677.66	56007.85
677.85	55532.72
678.04	55618.74
678.23	55555.25
678.42	55436.47
678.62	55196.85
678.81	55512.24
679.00	55059.64
679.19	55774.38
679.38	55657.65
679.57	55309.49
679.76	55186.61
679.96	55456.95
680.15	55016.63
680.34	55266.48
680.53	55145.65
680.72	55493.81
680.91	55680.17
681.10	54940.86
681.29	55192.76
681.48	55712.94
681.68	55325.88
681.87	55250.10
682.06	55190.71
682.25	54842.56
682.44	54834.36
682.63	55680.17
682.82	54719.68
683.01	55342.26
683.20	55055.54
683.39	54863.03
683.59	54826.17
683.78	55164.09
683.97	54901.95
684.16	55035.06
684.35	54604.99
684.54	55215.29
684.73	54797.50
684.92	54820.03
685.11	54676.67
685.30	54437.06
685.49	55022.78
685.69	54762.68
685.88	55203.00
686.07	55055.54
686.26	54908.09
686.45	55178.42
686.64	54586.56
686.83	54797.50
687.02	54838.46
687.21	54813.88
687.40	54885.56
687.59	54555.84
687.78	54715.58
687.97	54914.23
688.16	54670.53
688.35	54459.58
688.54	54490.30
688.74	54738.11
688.93	54617.28
689.12	54543.55
689.31	54547.65
689.50	54781.12
689.69	54394.05
689.88	54623.42
690.07	54551.74
690.26	54424.77
690.45	55200.95
690.64	54312.13
690.83	54029.51
691.02	54269.12
691.21	54226.12
691.40	54774.97
691.59	54498.50
691.78	54486.21
691.97	54824.12
692.16	54320.32
692.35	54764.73
692.54	54361.28
692.73	54965.43
692.92	54826.17
693.11	54416.58
693.30	53994.70
693.49	54179.01
693.68	54523.07
693.87	54447.30
694.06	53671.12
694.25	54269.12
694.44	54093.00
694.63	54312.13
694.82	54533.31
695.01	54023.37
695.20	54197.44
695.39	53755.08
695.58	54408.39
695.77	54066.38
695.96	54183.11
696.15	53894.35
696.34	54342.85
696.53	54402.24
696.72	54041.80
696.91	53712.08
697.10	53849.29
697.29	54093.00
697.48	54219.97
697.67	54113.48
697.86	53542.10
698.05	54240.45
698.24	53830.86
698.43	53538.00
698.62	53976.26
698.81	53820.62
699.00	53984.46
699.19	53509.33
699.38	53662.93
699.57	53683.40
699.76	54058.18
699.95	53720.27
700.14	53523.66
700.32	52970.71
700.51	53544.14
700.70	53804.24
700.89	54019.27
701.08	53906.63
701.27	53320.91
701.46	53679.31
701.65	52903.13
701.84	53699.79
702.03	53296.34
702.22	53406.93
702.41	53564.62
702.60	53425.36
702.79	53105.88
702.98	53071.06
703.17	53689.55
703.35	52892.89
703.54	53333.20
703.73	53411.02
703.92	53611.73
704.11	53337.30
704.30	53175.51
704.49	53179.60
704.68	53202.13
704.87	53310.67
705.06	53179.60
705.25	53009.62
705.43	53257.43
705.62	53234.90
705.81	53337.30
706.00	53191.89
706.19	52761.82
706.38	53001.43
706.57	52919.51
706.76	53107.93
706.95	52712.67
707.14	52931.80
707.32	52917.46
707.51	52632.80
707.70	52997.34
707.89	52788.44
708.08	52624.60
708.27	53011.67
708.46	53040.34
708.65	52927.70
708.84	53101.78
709.02	52790.49
709.21	52978.90
709.40	52870.36
709.59	53038.29
709.78	52495.58
709.97	52806.87
710.16	52518.11
710.34	52487.39
710.53	52675.80
710.72	52643.04
710.91	52751.58
711.10	52675.80
711.29	52542.69
711.48	52215.01
711.66	52352.23
711.85	52077.80
712.04	52942.04
712.23	52511.97
712.42	52006.12
712.61	52122.85
712.80	51946.73
712.98	52329.70
713.17	51866.86
713.36	52266.21
713.55	52286.69
713.74	52364.51
713.93	51916.01
714.11	52288.74
714.30	51856.62
714.49	52004.07
714.68	52292.83
714.87	52188.39
715.06	52319.46
715.24	51868.90
715.43	51807.47
715.62	51533.04
715.81	51617.00
716.00	52350.18
716.18	51541.23
716.37	51406.06
716.56	51637.48
716.75	52126.95
716.94	51868.90
717.12	51123.44
717.31	51883.24
717.50	51737.83
717.69	51559.66
717.88	51105.01
718.06	51457.26
718.25	51606.76
718.44	51279.09
718.63	51522.80
718.82	51356.91
719.00	51152.12
719.19	50701.56
719.38	51270.90
719.57	50939.13
719.76	50722.04
719.94	50873.59
720.13	51223.79
720.32	50382.08
720.51	50662.65
720.69	50257.15
720.88	50613.50
721.07	50431.23
721.26	50081.03
721.44	50339.07
721.63	50140.42
721.82	50556.16
722.01	50255.11
722.20	50193.67
722.38	49761.54
722.57	50011.40
722.76	50277.63
722.95	50097.41
723.13	49775.88
723.32	49788.17
723.51	49665.29
723.70	49509.64
723.88	50035.97
724.07	49386.77
724.26	49829.13
724.44	49270.03
724.63	50011.40
724.82	49616.14
725.01	49745.16
725.19	49317.14
725.38	49534.22
725.57	49335.57
725.76	49480.97
725.94	49071.38
726.13	49222.93
726.32	49714.44
726.51	48762.14
726.69	49583.37
726.88	49118.48
727.07	49354.00
727.25	49290.51
727.44	49485.07
727.63	49282.32
727.82	49083.67
728.00	48891.16
728.19	48870.68
728.38	49161.49
728.56	48321.82
728.75	49194.26
728.94	48727.32
729.12	48977.17
729.31	48919.83
729.50	48725.27
729.69	48950.55
729.87	48768.28
730.06	49009.94
730.25	48848.15
730.43	49724.68
730.62	48958.74
730.81	49069.33
730.99	49235.22
731.18	48987.41
731.37	48751.90
731.55	49110.29
731.74	49296.66
731.93	49276.18
732.11	48811.29
732.30	48895.25
732.49	48758.04
732.67	48903.45
732.86	49157.39
733.05	49024.28
733.23	48311.58
733.42	49077.52
733.61	47985.96
733.79	49040.66
733.98	48579.87
734.17	48901.40
734.35	48768.28
734.54	48450.84
734.73	48710.94
734.91	48799.00
735.10	48416.03
735.29	48870.68
735.47	48174.37
735.66	48370.97
735.84	48624.92
736.03	47908.13
736.22	48645.40
736.40	48174.37
736.59	48260.38
736.78	48248.10
736.96	48448.80
737.15	48311.58
737.33	48043.30
737.52	48237.86
737.71	47863.08
737.89	48090.40
738.08	47643.94
738.27	47701.29
738.45	48200.99
738.64	47584.55
738.82	47725.86
739.01	47404.33
739.20	47457.58
739.38	48014.63
739.57	47709.48
739.75	47828.26
739.94	47547.69
740.13	47486.25
740.31	47357.23
740.50	47662.38
740.68	47516.97
740.87	47697.19
741.06	47715.62
741.24	47289.65
741.43	47121.71
741.61	47461.68
741.80	47189.30
741.99	47252.78
742.17	47193.39
742.36	47465.77
742.54	47146.29
742.73	47230.26
742.91	47387.95
743.10	46980.40
743.29	47500.59
743.47	47461.68
743.66	47113.52
743.84	47322.41
744.03	47150.38
744.21	46712.12
744.40	47021.36
744.59	46839.09
744.77	46775.61
744.96	46994.74
745.14	46613.82
745.33	46642.49
745.51	46363.96
745.70	46302.53
745.88	46546.23
746.07	46533.95
746.26	46003.52
746.44	46153.02
746.63	46064.96
746.81	46445.88
747.00	46470.46
747.18	46189.89
747.37	46429.50
747.55	46085.44
747.74	46445.88
747.92	46069.06
748.11	46173.50
748.29	45884.74
748.48	46241.09
748.66	46050.63
748.85	46026.05
749.03	45989.19
749.22	45880.64
749.41	45548.87
749.59	45923.65
749.78	45837.64
749.96	45385.04
750.15	45540.68
750.33	45716.81
750.52	45620.55
750.70	45950.27
750.89	45456.71
751.07	44936.53
751.26	45509.96
751.44	44936.53
751.63	45270.35
751.81	44952.91
752.00	45282.64
752.18	45161.81
752.37	45151.57
752.55	44911.95
752.74	44856.66
752.92	44713.30
753.10	44565.85
753.29	45251.92
753.47	45000.02
753.66	44551.51
753.84	44961.11
754.03	44639.57
754.21	44864.85
754.40	44799.32
754.58	45129.04
754.77	44655.96
754.95	44455.26
755.14	44420.44
755.32	44547.42
755.51	43988.32
755.69	44285.28
755.88	44631.38
756.06	44639.57
756.24	44264.80
756.43	44524.89
756.61	44291.42
756.80	43941.22
756.98	43996.51
757.17	43986.27
757.35	44143.97
757.54	44129.63
757.72	44199.26
757.90	43939.17
758.09	43652.45
758.27	43847.01
758.46	43365.74
758.64	43879.78
758.83	44060.00
759.01	43957.60
759.19	43787.62
759.38	43457.90
759.56	43605.35
759.75	43595.11
759.93	43042.16
760.12	43011.44
760.30	43824.48
760.48	43373.93
760.67	43142.51
760.85	43218.28
761.04	43435.37
761.22	43607.40
761.40	43031.92
761.59	43160.94
761.77	42818.93
761.96	42950.00
762.14	43087.21
762.32	43048.30
762.51	42909.04
762.69	43107.69
762.88	42499.45
763.06	42737.01
763.24	42876.27
763.43	42984.82
763.61	42335.61
763.80	42339.71
763.98	42567.03
764.16	42358.14
764.35	42409.34
764.53	42245.50
764.72	42358.14
764.90	42167.68
765.08	42378.62
765.27	42390.91
765.45	41784.71
765.63	41706.88
765.82	42091.90
766.00	41647.49
766.18	41860.48
766.37	42034.56
766.55	41633.16
766.74	41815.43
766.92	41452.94
767.10	41469.32
767.29	41383.30
767.47	41112.97
767.65	41532.81
767.84	41297.29
768.02	41680.26
768.20	40981.90
768.39	41371.02
768.57	41495.94
768.75	41137.55
768.94	41098.64
769.12	41448.84
769.30	41174.41
769.49	41045.39
769.67	40779.15
769.85	40635.80
770.04	40713.62
770.22	40586.64
770.40	40682.90
770.59	40359.32
770.77	40912.27
770.95	40801.68
771.14	40572.31
771.32	40375.70
771.50	40324.50
771.69	40099.23
771.87	40678.80
772.05	40639.89
772.24	39755.17
772.42	40267.16
772.60	39898.53
772.78	40273.31
772.97	39816.61
773.15	40527.25
773.33	40070.56
773.52	40258.97
773.70	39906.72
773.88	40129.95
774.07	39919.01
774.25	40037.79
774.43	39933.34
774.61	39964.06
774.80	40445.33
774.98	40218.01
775.16	39966.11
775.34	40322.46
775.53	40428.95
775.71	40492.44
775.89	40576.40
776.08	40295.83
776.26	39937.44
776.44	39890.34
776.62	39990.69
776.81	40043.93
776.99	40218.01
777.17	40209.82
777.35	40275.35
777.54	40244.63
777.72	40396.18
777.90	39925.15
778.08	40809.87
778.27	39914.91
778.45	40535.45
778.63	40584.60
778.81	40058.27
779.00	40455.57
779.18	40338.84
779.36	41059.73
779.54	40476.05
779.73	40609.17
779.91	41063.82
780.09	40336.79
780.27	40854.93
780.46	40783.25
780.64	40971.66
780.82	40492.44
781.00	40560.02
781.19	40836.50
781.37	41004.43
781.55	40736.15
781.73	41139.60
781.91	40813.97
782.10	40947.09
782.28	40707.47
782.46	40981.90
782.64	40736.15
782.82	40723.86
783.01	41006.48
783.19	40981.90
783.37	40859.02
783.55	41002.38
783.74	41213.32
783.92	40899.98
784.10	41231.75
784.28	41282.95
784.46	40697.24
784.64	40883.60
784.83	41100.68
785.01	41145.74
785.19	41090.44
785.37	41125.26
785.55	40916.37
785.74	40695.19
785.92	40621.46
786.10	41090.44
786.28	40965.52
786.46	40377.75
786.64	40316.31
786.83	40488.34
787.01	40668.56
787.19	41057.68
787.37	40648.08
787.55	40664.47
787.74	40361.37
787.92	40705.43
788.10	40543.64
788.28	40011.17
788.46	40527.25
788.64	40019.36
788.82	40590.74
789.01	40301.98
789.19	40695.19
789.37	39826.85
789.55	40402.33
789.73	39699.87
789.91	40375.70
790.09	40025.50
790.28	39953.82
790.46	39798.18
790.64	39722.40
790.82	39964.06
791.00	39777.70
791.18	39028.14
791.36	39697.83
791.55	39245.23
791.73	39179.69
791.91	39146.92
792.09	39441.83
792.27	39089.58
792.45	39277.99
792.63	39337.38
792.81	39212.46
793.00	39306.66
793.18	38999.47
793.36	39234.99
793.54	38811.06
793.72	38710.71
793.90	38528.44
794.08	38247.86
794.26	38747.57
794.44	38436.28
794.62	38368.69
794.81	38380.98
794.99	38358.45
795.17	38249.91
795.35	38258.10
795.53	38036.92
795.71	38102.46
795.89	37371.33
796.07	37696.96
796.25	37569.99
796.43	37678.53
796.61	37311.94
796.80	37225.93
796.98	37514.69
797.16	37240.26
797.34	37541.32
797.52	37180.87
797.70	37123.53
797.88	36871.63
798.06	36789.71
798.24	36847.05
798.42	37092.81
798.60	36746.70
798.78	36492.76
798.96	36802.00
799.14	36283.86
799.32	36607.44
799.51	35993.05
799.69	36648.40
799.87	36482.52
800.05	36201.94
800.23	35921.37
800.41	35993.05
800.59	35775.97
800.77	35919.32
800.95	35694.05
801.13	35964.38
801.31	35538.40
801.49	35489.25
801.67	35393.00
801.85	35542.50
802.03	34842.09
802.21	35427.81
802.39	35239.40
802.57	35313.13
802.75	35124.71
802.93	34964.97
803.11	34790.89
803.29	34698.73
803.47	34803.18
803.65	34719.21
803.83	34907.63
804.01	34715.12
804.19	34008.57
804.37	34219.51
804.55	34504.18
804.73	34350.58
804.91	34354.68
805.09	34479.60
805.27	34123.26
805.45	34067.96
805.63	33990.14
805.81	33924.60
805.99	33838.59
806.17	34262.52
806.35	33568.26
806.53	33547.78
806.71	33633.79
806.89	33611.26
807.07	33783.29
807.25	33824.25
807.43	33398.27
807.61	33560.06
807.79	33330.69
807.97	33428.99
808.15	33435.14
808.33	33246.72
808.51	33107.46
808.69	33191.43
808.87	32505.36
809.05	32681.49
809.23	32566.80
809.41	32830.99
809.59	32800.27
809.77	32701.96
809.95	32200.21
810.13	32345.62
810.31	32374.29
810.49	32357.91
810.67	32353.81
810.84	32171.54
811.02	32325.14
811.20	31987.22
811.38	32099.86
811.56	31958.55
811.74	31913.50
811.92	31938.07
812.10	32208.40
812.28	32249.36
812.46	31706.65
812.64	31835.67
812.82	31510.05
813.00	31919.64
813.18	31581.73
813.36	31391.26
813.53	31206.95
813.71	31061.54
813.89	31170.08
814.07	31118.89
814.25	31350.31
814.43	30787.11
814.61	30801.45
814.79	31120.93
814.97	31055.40
815.15	31415.84
815.33	30959.14
815.50	30510.64
815.68	30699.05
815.86	30768.68
816.04	30639.66
816.22	30735.92
816.40	30731.82
816.58	30637.61
816.76	30436.91
816.94	30234.16
817.11	30135.86
817.29	30236.21
817.47	30451.25
817.65	30107.19
817.83	29969.97
818.01	29943.35
818.19	29429.31
818.37	29810.23
818.54	29589.05
818.72	29763.13
818.90	29640.25
819.08	29677.12
819.26	30021.17
819.44	29722.17
819.62	29677.12
819.80	29793.85
819.97	29744.70
820.15	29636.16
820.33	29779.51
820.51	29328.96
820.69	29509.18
820.87	29486.65
821.05	29734.46
821.22	29646.40
821.40	29455.93
821.58	29386.30
821.76	29079.11
821.94	28806.73
822.12	29142.60
822.29	29128.26
822.47	28792.39
822.65	29236.80
822.83	28956.23
823.01	28843.59
823.19	28857.93
823.36	28718.67
823.54	28339.79
823.72	28538.44
823.90	28530.25
824.08	28216.91
824.25	28485.20
824.43	28223.06
824.61	28509.77
824.79	28489.29
824.97	28315.22
825.15	28743.24
825.32	28286.54
825.50	28085.84
825.68	28038.74
825.86	28380.75
826.04	28470.86
826.21	28268.11
826.39	28194.39
826.57	28089.94
826.75	27840.09
826.93	27723.35
827.10	27856.47
827.28	27840.09
827.46	28008.02
827.64	27780.70
827.81	27940.44
827.99	27766.36
828.17	27539.04
828.35	27321.95
828.53	27817.56
828.70	27641.43
828.88	27706.97
829.06	27813.46
829.24	27731.54
829.41	27315.81
829.59	27631.19
829.77	27235.94
829.95	27510.36
830.12	27502.17
830.30	27203.17
830.48	27358.81
830.66	26955.36
830.84	27074.15
831.01	27205.22
831.19	27174.50
831.37	27127.39
831.55	27076.19
831.72	26959.46
831.90	27022.95
832.08	27053.67
832.25	27080.29
832.43	26902.12
832.61	26713.70
832.79	26879.59
832.96	26906.21
833.14	26865.25
833.32	27014.76
833.50	26875.49
833.67	26758.76
833.85	26758.76
834.03	26513.00
834.20	26558.06
834.38	26721.90
834.56	26797.67
834.74	26084.98
834.91	26265.20
835.09	26093.17
835.27	26123.89
835.44	26273.39
835.62	25906.80
835.80	26197.62
835.98	26074.74
836.15	26287.73
836.33	25900.66
836.51	26359.41
836.68	26027.63
836.86	25949.81
837.04	25923.19
837.21	25884.28
837.39	25855.61
837.57	26205.81
837.75	25947.76
837.92	25450.11
838.10	25652.86
838.28	25163.39
838.45	25697.91
838.63	25542.27
838.81	25595.51
838.98	25525.88
839.16	25276.03
839.34	25271.93
839.51	25529.98
839.69	25417.34
839.87	25357.95
840.04	25360.00
840.22	25499.26
840.40	25230.98
840.57	24936.07
840.75	25316.99
840.93	24882.82
841.10	25370.24
841.28	25192.06
841.46	25101.95
841.63	24974.98
841.81	25409.15
841.98	25060.99
842.16	25263.74
842.34	24829.57
842.51	24675.98
842.69	25597.56
842.87	24968.84
843.04	25065.09
843.22	24821.38
843.40	24669.83
843.57	24989.31
843.75	24702.60
843.92	24692.36
844.10	24694.41
844.28	24884.87
844.45	24589.96
844.63	24718.98
844.81	24387.21
844.98	24487.56
845.16	24542.86
845.33	24350.35
845.51	24395.40
845.69	24342.16
845.86	24338.06
846.04	24526.47
846.21	24348.30
846.39	24264.33
846.57	24149.65
846.74	24118.93
846.92	23967.38
847.09	24147.60
847.27	24032.91
847.45	24131.22
847.62	24067.73
847.80	24034.96
847.97	24032.91
848.15	23738.01
848.32	23633.56
848.50	23981.71
848.68	23582.36
848.85	23543.45
849.03	23443.10
849.20	23946.90
849.38	23871.12
849.56	23666.33
849.73	23389.85
849.91	23473.82
850.08	23715.48
850.26	23119.52
850.43	23518.87
850.61	23602.84
850.78	23342.75
850.96	23400.09
851.14	23199.39
851.31	23512.73
851.49	23203.49
851.66	23381.66
851.84	23312.03
852.01	23426.71
852.19	23457.43
852.36	23309.98
852.54	23170.72
852.71	22949.54
852.89	22927.01
853.07	23287.45
853.24	23004.83
853.42	23062.18
853.59	22843.04
853.77	22875.81
853.94	22587.05
854.12	22742.69
854.29	22711.97
854.47	22732.45
854.64	22494.89
854.82	22935.20
854.99	22847.14
855.17	22824.61
855.34	22492.84
855.52	23000.74
855.69	22748.84
855.87	22343.34
856.04	22218.41
856.22	22238.89
856.39	22331.05
856.57	22498.98
856.74	22425.26
856.92	22349.48
857.09	22347.44
857.27	22109.87
857.44	22529.70
857.62	22408.87
857.79	22410.92
857.97	22136.49
858.14	22286.00
858.32	21776.05
858.49	22105.77
858.67	21724.85
858.84	21978.80
859.02	22081.20
859.19	21900.98
859.37	21817.01
859.54	21583.54
859.72	22146.73
859.89	21970.61
860.06	21749.43
860.24	21614.26
860.41	21825.20
860.59	21745.33
860.76	21794.48
860.94	21360.31
861.11	21513.91
861.29	21515.96
861.46	21526.20
861.64	21272.25
861.81	21454.52
861.98	21343.93
862.16	21327.55
862.33	21343.93
862.51	21522.10
862.68	21274.30
862.86	21180.09
863.03	21612.21
863.21	21206.72
863.38	21204.67
863.55	21262.01
863.73	21169.85
863.90	21098.17
864.08	20967.10
864.25	21016.26
864.43	21089.98
864.60	21071.55
864.77	20745.92
864.95	21044.93
865.12	20506.31
865.30	20897.47
865.47	20682.44
865.64	20805.31
865.82	20940.48
865.99	21008.06
866.17	20887.23
866.34	20666.05
866.51	20387.53
866.69	20874.95
866.86	20764.36
867.04	20567.75
867.21	20633.29
867.38	20270.79
867.56	20469.45
867.73	20301.51
867.91	20211.40
868.08	20383.43
868.25	20270.79
868.43	20352.71
868.60	20428.49
868.78	20127.44
868.95	20309.71
869.12	20313.80
869.30	20125.39
869.47	20037.33
869.64	19701.46
869.82	19979.98
869.99	19560.15
870.16	20289.23
870.34	20049.61
870.51	20250.32
870.69	19934.93
870.86	19345.11
871.03	19533.53
871.21	19568.34
871.38	19838.67
871.55	19527.38
871.73	19449.56
871.90	19449.56
872.07	19150.56
872.25	19191.52
872.42	19154.65
872.59	19003.10
872.77	19242.71
872.94	19271.39
873.11	19177.18
873.29	19453.66
873.46	18843.36
873.63	19019.49
873.81	19064.54
873.98	18935.52
874.15	18896.61
874.33	18675.43
874.50	19060.45
874.67	18806.50
874.85	18716.39
875.02	18736.87
875.19	18462.44
875.37	18933.47
875.54	18624.23
875.71	18577.12
875.88	18503.40
876.06	18450.15
876.23	18200.30
876.40	18319.08
876.58	18423.53
876.75	18577.12
876.92	18335.46
877.10	18216.68
877.27	18073.32
877.44	18132.72
877.61	18112.24
877.79	18161.39
877.96	18153.20
878.13	17925.87
878.31	17815.28
878.48	17942.25
878.65	17866.48
878.82	17800.94
879.00	18038.51
879.17	17809.14
879.34	17997.55
879.51	17538.80
879.69	17876.72
879.86	17649.39
880.03	17708.79
880.21	17454.84
880.38	17573.62
880.55	17897.20
880.72	17469.17
880.90	17567.48
881.07	17538.80
881.24	17182.46
881.41	17665.78
881.59	17360.63
881.76	17520.37
881.93	17153.79
882.10	17276.66
882.28	17340.15
882.45	17211.13
882.62	17229.56
882.79	17331.96
882.96	16965.37
883.14	17157.88
883.31	17397.49
883.48	17155.83
883.65	16946.94
883.83	17221.37
884.00	17170.17
884.17	17229.56
884.34	17182.46
884.51	17043.20
884.69	17078.01
884.86	16826.11
885.03	17022.72
885.20	16688.90
885.38	16873.21
885.55	16967.42
885.72	16838.40
885.89	16598.79
886.06	16819.97
886.24	16701.19
886.41	16819.97
886.58	16809.73
886.75	16832.26
886.92	16592.64
887.10	16846.59
887.27	16465.67
887.44	16471.81
887.61	16797.44
887.78	16518.92
887.95	16781.06
888.13	16639.75
888.30	16185.10
888.47	16146.19
888.64	16244.49
888.81	16328.45
888.99	16123.66
889.16	16324.36
889.33	16090.89
889.50	15832.85
889.67	15957.77
889.84	15916.81
890.01	16082.70
890.19	16117.51
890.36	16246.54
890.53	15742.74
890.70	15972.11
890.87	15838.99
891.04	15771.41
891.22	15873.81
891.39	15771.41
891.56	15748.88
891.73	15689.49
891.90	15550.23
892.07	15861.52
892.24	15720.21
892.42	15560.47
892.59	15683.34
892.76	15611.67
892.93	15576.85
893.10	15853.33
893.27	15585.04
893.44	15425.30
893.61	15554.32
893.79	15736.59
893.96	15339.29
894.13	15632.15
894.30	15433.49
894.47	15560.47
894.64	15648.53
894.81	15501.08
894.98	15595.28
895.15	15558.42
895.33	15501.08
895.50	15456.02
895.67	15632.15
895.84	15529.75
896.01	15531.80
896.18	15310.61
896.35	15451.92
896.52	15230.74
896.69	15238.94
896.86	15435.54
897.04	15159.06
897.21	15447.83
897.38	15347.48
897.55	15228.70
897.72	15453.97
897.89	15245.08
898.06	15349.53
898.23	15308.57
898.40	15216.41
898.57	15114.01
898.74	15310.61
898.91	15202.07
899.08	15419.16
899.26	15357.72
899.43	15288.09
899.60	15290.13
899.77	15359.77
899.94	14972.70
900.11	14987.04
900.28	14927.64
900.45	14890.78
900.62	15003.42
900.79	15095.58
900.96	15183.64
901.13	15136.54
901.30	15068.95
901.47	14948.12
901.64	14882.59
901.81	14939.93
901.98	14866.21
902.15	15120.15
902.32	14835.49
902.49	15144.73
902.66	15157.02
902.83	14970.65
903.01	15025.95
903.18	15005.47
903.35	15046.43
903.52	15302.42
903.69	15314.71
903.86	14882.59
904.03	15027.99
904.20	15169.30
904.37	15249.18
904.54	15132.44
904.71	14819.10
904.88	14960.41
905.05	15019.80
905.22	15105.82
905.39	14944.03
905.56	14819.10
905.73	14982.94
905.90	14909.21
906.07	15030.04
906.24	14944.03
906.41	14868.25
906.58	14960.41
906.75	14939.93
906.92	14812.96
907.09	14788.38
907.26	15138.58
907.43	14806.81
907.60	14870.30
907.77	15062.81
907.93	14911.26
908.10	14927.64
908.27	14845.73
908.44	14706.46
908.61	14704.42
908.78	14774.05
908.95	14933.79
909.12	14933.79
909.29	14862.11
909.46	14855.97
909.63	15019.80
909.80	14606.11
909.97	14878.49
910.14	14649.12
910.31	14677.79
910.48	14772.00
910.65	14866.21
910.82	14825.25
910.99	14694.18
911.16	14747.42
911.33	14501.67
911.50	14667.55
911.66	14604.07
911.83	14540.58
912.00	14534.43
912.17	14282.53
912.34	14376.74
912.51	14235.43
912.68	14317.35
912.85	14524.19
913.02	14503.71
913.19	14384.93
913.36	14360.36
913.53	14663.46
913.70	14249.77
913.86	14473.00
914.03	14145.32
914.20	14010.15
914.37	14171.94
914.54	14208.81
914.71	14004.01
914.88	14083.88
915.05	13918.00
915.22	14034.73
915.39	13920.04
915.55	13928.24
915.72	13940.52
915.89	14049.07
916.06	13866.80
916.23	14112.55
916.40	13823.79
916.57	13645.62
916.74	13702.96
916.91	13788.97
917.07	13381.43
917.24	13510.45
917.41	13772.59
917.58	13872.94
917.75	13741.87
917.92	13356.85
918.09	13446.96
918.26	13463.35
918.42	13557.55
918.59	13514.55
918.76	13381.43
918.93	13432.63
919.10	13240.12
919.27	13279.03
919.44	13334.32
919.60	13592.37
919.77	13174.58
919.94	13008.70
920.11	12990.27
920.28	13100.86
920.45	12994.36
920.61	12812.09
920.78	13012.79
920.95	12977.98
921.12	12791.61
921.29	12556.10
921.46	12820.28
921.62	12812.09
921.79	12611.39
921.96	12904.25
922.13	12576.58
922.30	12576.58
922.47	12574.53
922.63	12506.95
922.80	12404.55
922.97	12275.52
923.14	12087.11
923.31	12302.15
923.47	12236.61
923.64	12289.86
923.81	12263.24
923.98	12169.03
924.15	11978.57
924.32	12173.13
924.48	12201.80
924.65	11984.71
924.82	11790.16
924.99	11880.27
925.15	11568.98
925.32	11845.45
925.49	11538.26
925.66	11630.41
925.83	11616.08
925.99	11605.84
926.16	11628.37
926.33	11511.63
926.50	11220.82
926.67	11585.36
926.83	11398.99
927.00	11280.21
927.17	11229.01
927.34	11231.06
927.50	11159.38
927.67	11458.39
927.84	11003.74
928.01	11351.89
928.17	11054.94
928.34	10962.78
928.51	11065.18
928.68	10854.23
928.84	10792.80
929.01	10747.74
929.18	10798.94
929.35	10714.97
929.51	10624.86
929.68	10440.54
929.85	10624.86
930.02	10608.48
930.18	10395.49
930.35	10413.92
930.52	10323.81
930.69	10418.02
930.85	10315.62
931.02	10215.27
931.19	10065.77
931.36	10227.56
931.52	10196.84
931.69	10245.99
931.86	10121.06
932.02	9934.70
932.19	10143.59
932.36	9979.75
932.53	9938.79
932.69	9977.70
932.86	10162.02
933.03	9852.78
933.19	9508.72
933.36	9754.48
933.53	9744.24
933.70	9602.93
933.86	9381.74
934.03	9533.29
934.20	9334.64
934.36	9551.73
934.53	9404.27
934.70	9052.02
934.86	9127.80
935.03	9088.89
935.20	9152.37
935.36	9166.71
935.53	8847.22
935.70	8978.30
935.86	8585.08
936.03	8705.92
936.20	8523.65
936.36	8492.93
936.53	8451.97
936.70	8482.69
936.86	8513.41
937.03	8304.51
937.20	8114.05
937.36	8124.29
937.53	7956.36
937.70	7802.76
937.86	7937.93
938.03	7870.34
938.20	7837.58
938.36	7681.93
938.53	7448.46
938.70	7382.93
938.86	7454.61
939.03	7288.72
939.20	7090.07
939.36	7225.23
939.53	7061.40
939.70	7153.55
939.86	6901.65
940.03	6823.83
940.19	6778.78
940.36	6686.62
940.53	6768.54
940.69	6682.52
940.86	6668.19
941.03	6354.85
941.19	6285.22
941.36	6360.99
941.52	6514.59
941.69	6266.78
941.86	6143.91
942.02	6127.52
942.19	6156.19
942.35	6012.84
942.52	6033.32
942.69	5955.49
942.85	5842.85
943.02	5775.27
943.18	5945.25
943.35	5732.26
943.52	5724.07
943.68	5676.97
943.85	5578.67
944.01	5711.78
944.18	5496.75
944.35	5578.67
944.51	5560.24
944.68	5398.45
944.84	5480.36
945.01	5394.35
945.17	5506.99
945.34	5484.46
945.51	5380.01
945.67	5328.81
945.84	5296.05
946.00	5300.14
946.17	5509.04
946.33	5203.89
946.50	5431.21
946.67	5371.82
946.83	5277.62
947.00	5361.58
947.16	5283.76
947.33	5298.10
947.49	5281.71
947.66	5279.66
947.82	5308.34
947.99	5406.64
948.16	5418.93
948.32	5201.84
948.49	5253.04
948.65	5500.84
948.82	5287.86
948.98	5277.62
949.15	5132.21
949.31	5267.38
949.48	5232.56
949.64	5250.99
949.81	5406.64
949.97	5322.67
950.14	5431.21
950.30	5167.03
950.47	5435.31
950.63	5240.75
950.80	5289.90
950.96	5240.75
951.13	5207.98
951.30	5273.52
951.46	5423.02
951.63	5388.21
951.79	5384.11
951.96	5443.50
952.12	5271.47
952.29	5326.77
952.45	5330.86
952.62	5296.05
952.78	5445.55
952.94	5380.01
953.11	5345.20
953.27	5298.10
953.44	5425.07
953.60	5365.68
953.77	5425.07
953.93	5353.39
954.10	5380.01
954.26	5437.36
954.43	5400.49
954.59	5457.84
954.76	5506.99
954.92	5406.64
955.09	5617.58
955.25	5361.58
955.42	5308.34
955.58	5541.80
955.75	5459.88
955.91	5470.12
956.07	5355.44
956.24	5472.17
956.40	5402.54
956.57	5547.95
956.73	5410.73
956.90	5472.17
957.06	5463.98
957.23	5533.61
957.39	5449.64
957.56	5617.58
957.72	5506.99
957.88	5472.17
958.05	5525.42
958.21	5603.24
958.38	5459.88
958.54	5380.01
958.71	5627.82
958.87	5445.55
959.03	5382.06
959.20	5486.51
959.36	5361.58
959.53	5341.10
959.69	5420.97
959.85	5427.12
960.02	5420.97
960.18	5474.22
960.35	5496.75
960.51	5468.08
960.68	5593.00
960.84	5414.83
961.00	5523.37
961.17	5478.32
961.33	5443.50
961.50	5466.03
961.66	5517.23
961.82	5300.14
961.99	5545.90
962.15	5443.50
962.31	5255.09
962.48	5382.06
962.64	5502.89
962.81	5398.45
962.97	5296.05
963.13	5509.04
963.30	5365.68
963.46	5277.62
963.62	5345.20
963.79	5476.27
963.95	5349.29
964.12	5371.82
964.28	5451.69
964.44	5314.48
964.61	5425.07
964.77	5414.83
964.93	5463.98
965.10	5181.36
965.26	5226.42
965.42	5263.28
965.59	5142.45
965.75	5461.93
965.92	5324.72
966.08	5287.86
966.24	5173.17
966.41	5304.24
966.57	5377.97
966.73	5328.81
966.90	5373.87
967.06	5152.69
967.22	5201.84
967.39	5214.13
967.55	5171.12
967.71	5152.69
967.88	5312.43
968.04	5050.29
968.20	5091.25
968.37	5291.95
968.53	5201.84
968.69	5234.61
968.85	5324.72
969.02	5179.31
969.18	5177.26
969.34	5277.62
969.51	5119.92
969.67	5212.08
969.83	5046.20
970.00	5173.17
970.16	5148.59
970.32	5072.82
970.48	5050.29
970.65	5050.29
970.81	5064.63
970.97	5040.05
971.14	5058.48
971.30	5238.70
971.46	5023.67
971.63	4933.56
971.79	4992.95
971.95	5027.76
972.11	4978.61
972.28	5056.43
972.44	5117.87
972.60	4927.41
972.76	4984.76
972.93	4833.21
973.09	4992.95
973.25	5009.33
973.42	4870.07
973.58	5003.19
973.74	4941.75
973.90	4874.17
974.07	4845.49
974.23	4745.14
974.39	5001.14
974.55	4755.38
974.72	4831.16
974.88	4724.66
975.04	4915.12
975.20	4886.45
975.37	4814.77
975.53	4620.22
975.69	4806.58
975.85	4614.07
976.01	4868.02
976.18	4695.99
976.34	4722.62
976.50	4747.19
976.66	4851.64
976.83	4722.62
976.99	4644.79
977.15	4575.16
977.31	4550.59
977.47	4790.20
977.64	4560.83
977.80	4681.66
977.96	4564.92
978.12	4667.32
978.29	4626.36
978.45	4507.58
978.61	4485.05
978.77	4679.61
978.93	4571.07
979.10	4519.87
979.26	4601.79
979.42	4468.67
979.58	4444.09
979.74	4497.34
979.91	4501.44
980.07	4452.28
980.23	4511.68
980.39	4405.18
980.55	4388.80
980.71	4489.15
980.88	4425.66
981.04	4306.88
981.20	4329.41
981.36	4415.42
981.52	4399.04
981.68	4429.76
981.85	4442.04
982.01	4343.74
982.17	4374.46
982.33	4300.73
982.49	4466.62
982.65	4368.32
982.82	4341.69
982.98	4478.91
983.14	4175.81
983.30	4333.50
983.46	4380.61
983.62	4323.26
983.79	4175.81
983.95	4206.53
984.11	4140.99
984.27	4220.86
984.43	4227.01
984.59	4308.93
984.75	4222.91
984.91	4124.61
985.08	4321.21
985.24	4095.94
985.40	4143.04
985.56	4220.86
985.72	4220.86
985.88	4136.90
986.04	4114.37
986.20	3960.77
986.37	4075.46
986.53	4040.64
986.69	4077.51
986.85	3991.49
987.01	3991.49
987.17	4077.51
987.33	3973.06
987.49	4044.74
987.65	4200.38
987.82	4052.93
987.98	3899.33
988.14	3968.96
988.30	3964.87
988.46	3999.68
988.62	3928.00
988.78	3844.04
988.94	3936.20
989.10	3887.04
989.26	3860.42
989.42	3815.37
989.59	3778.50
989.75	3801.03
989.91	3891.14
990.07	3790.79
990.23	3958.72
990.39	3782.60
990.55	3882.95
990.71	3852.23
990.87	3858.37
991.03	3876.80
991.19	3801.03
991.35	3758.02
991.51	3801.03
991.67	3749.83
991.83	3649.48
992.00	3758.02
992.16	3715.02
992.32	3786.69
992.48	3807.17
992.64	3626.95
992.80	3725.26
992.96	3663.82
993.12	3831.75
993.28	3706.82
993.44	3665.86
993.60	3715.02
993.76	3641.29
993.92	3704.78
994.08	3563.47
994.24	3633.10
994.40	3618.76
994.56	3575.75
994.72	3651.53
994.88	3559.37
995.04	3596.23
995.20	3575.75
995.36	3411.92
995.52	3645.38
995.68	3637.19
995.84	3510.22
996.00	3680.20
996.16	3450.83
996.32	3442.64
996.48	3467.21
996.64	3516.36
996.80	3385.29
996.96	3489.74
997.12	3389.39
997.28	3426.25
997.44	3364.81
997.60	3411.92
997.76	3366.86
997.92	3518.41
998.08	3381.20
998.24	3186.64
998.40	3461.07
998.56	3473.36
998.72	3358.67
998.88	3362.76
999.04	3248.08
999.20	3334.09
999.36	3276.75
999.52	3495.88
999.68	3229.65
999.84	3375.05
1000.00	3321.81
1000.16	3360.72
1000.32	3186.64
1000.48	3469.26
1000.64	3157.97
1000.80	3235.79
1000.95	3143.63
1001.11	3211.22
1001.27	3276.75
1001.43	3301.33
1001.59	3166.16
1001.75	3182.54
1001.91	3184.59
1002.07	3194.83
1002.23	3137.49
1002.39	3096.53
1002.55	3305.42
1002.71	3198.93
1002.87	3139.54
1003.03	3112.91
1003.19	3119.06
1003.34	3041.23
1003.50	3102.67
1003.66	3205.07
1003.82	3121.10
1003.98	3129.30
1004.14	3018.71
1004.30	3112.91
1004.46	3053.52
1004.62	3004.37
1004.78	3067.86
1004.94	3147.73
1005.09	2998.23
1005.25	3114.96
1005.41	2973.65
1005.57	3117.01
1005.73	3022.80
1005.89	3004.37
1006.05	2961.36
1006.21	3049.43
1006.37	2944.98
1006.52	2957.27
1006.68	2961.36
1006.84	3055.57
1007.00	2809.81
1007.16	2967.51
1007.32	2883.54
1007.48	2953.17
1007.64	2942.93
1007.79	2867.16
1007.95	2863.06
1008.11	3088.34
1008.27	2805.72
1008.43	2904.02
1008.59	2861.01
1008.75	2871.25
1008.91	2822.10
1009.06	2863.06
1009.22	2873.30
1009.38	2840.53
1009.54	2820.05
1009.70	2803.67
1009.86	2764.76
1010.01	2861.01
1010.17	2729.94
1010.33	2879.44
1010.49	2867.16
1010.65	2795.48
1010.81	2846.68
1010.96	2803.67
1011.12	2756.57
1011.28	2625.50
1011.44	2783.19
1011.60	2680.79
1011.76	2693.08
1011.91	2742.23
1012.07	2686.94
1012.23	2666.46
1012.39	2721.75
1012.55	2738.13
1012.71	2715.61
1012.86	2772.95
1013.02	2643.93
1013.18	2625.50
1013.34	2707.41
1013.50	2709.46
1013.65	2635.74
1013.81	2617.30
1013.97	2541.53
1014.13	2650.07
1014.29	2566.10
1014.44	2676.70
1014.60	2605.02
1014.76	2602.97
1014.92	2510.81
1015.07	2600.92
1015.23	2654.17
1015.39	2545.63
1015.55	2502.62
1015.71	2527.19
1015.86	2562.01
1016.02	2467.80
1016.18	2533.34
1016.34	2467.80
1016.49	2549.72
1016.65	2607.06
1016.81	2480.09
1016.97	2531.29
1017.12	2469.85
1017.28	2492.38
1017.44	2437.08
1017.60	2420.70
1017.75	2451.42
1017.91	2502.62
1018.07	2502.62
1018.23	2514.91
1018.38	2377.69
1018.54	2461.66
1018.70	2404.32
1018.86	2404.32
1019.01	2412.51
1019.17	2428.89
1019.33	2471.90
1019.49	2338.78
1019.64	2404.32
1019.80	2367.45
1019.96	2445.27
1020.12	2426.84
1020.27	2316.25
1020.43	2383.84
1020.59	2416.60
1020.74	2301.92
1020.90	2437.08
1021.06	2279.39
1021.22	2379.74
1021.37	2336.73
1021.53	2285.53
1021.69	2449.37
1021.84	2273.25
1022.00	2281.44
1022.16	2402.27
1022.31	2301.92
1022.47	2443.23
1022.63	2332.64
1022.79	2230.24
1022.94	2398.17
1023.10	2346.97
1023.26	2215.90
1023.41	2322.40
1023.57	2310.11
1023.73	2254.81
1023.88	2273.25
1024.04	2238.43
1024.20	2248.67
1024.35	2265.05
1024.51	2244.57
1024.67	2181.09
1024.82	2273.25
1024.98	2222.05
1025.14	2254.81
1025.29	2152.42
1025.45	2281.44
1025.61	2209.76
1025.76	2269.15
1025.92	2181.09
1026.08	2232.29
1026.23	2220.00
1026.39	2279.39
1026.55	2193.37
1026.70	2187.23
1026.86	2207.71
1027.02	2203.61
1027.17	2150.37
1027.33	2146.27
1027.48	2097.12
1027.64	2179.04
1027.80	2215.90
1027.95	2156.51
1028.11	2084.83
1028.27	2226.14
1028.42	2191.33
1028.58	2070.50
1028.73	2058.21
1028.89	2054.11
1029.05	2289.63
1029.20	2121.70
>>>>>End Processed Spectral Data<<<<<
