SpectraSuite Data File
++++++++++++++++++++++++++++++++++++
Date: Fri Jun 02 14:47:54 CEST 2017
User: INFO_000
Dark Spectrum Present: No
Reference Spectrum Present: No
Number of Sampled Component Spectra: 1
Spectrometers: USB4H00879
Integration Time (usec): 80000 (USB4H00879)
Spectra Averaged: 1 (USB4H00879)
Boxcar Smoothing: 0 (USB4H00879)
Correct for Electrical Dark: No (USB4H00879)
Strobe/Lamp Enabled: No (USB4H00879)
Correct for Detector Non-linearity: No (USB4H00879)
Correct for Stray Light: No (USB4H00879)
Number of Pixels in Processed Spectrum: 3648
>>>>>Begin Processed Spectral Data<<<<<
345.13	1251.31
345.34	1251.31
345.56	1251.31
345.78	1316.84
345.99	1245.16
346.21	1746.92
346.42	1683.43
346.64	1685.48
346.86	1822.69
347.07	1658.85
347.29	1630.18
347.50	1601.51
347.72	1689.57
347.94	1798.12
348.15	1550.31
348.37	1560.55
348.59	1734.63
348.80	1646.57
349.02	1818.60
349.23	1787.88
349.45	1687.53
349.67	1759.21
349.88	1710.05
350.10	1939.43
350.31	1837.03
350.53	1771.49
350.75	1912.80
350.96	1677.29
351.18	1796.07
351.39	1724.39
351.61	1751.01
351.82	1898.47
352.04	1869.80
352.26	1728.49
352.47	1871.84
352.69	1869.80
352.90	1660.90
353.12	1814.50
353.34	1824.74
353.55	1890.28
353.77	1841.12
353.98	1804.26
354.20	1732.58
354.41	1906.66
354.63	1820.64
354.85	2050.02
355.06	1896.42
355.28	1726.44
355.49	1802.21
355.71	1867.75
355.92	1781.73
356.14	1808.36
356.35	1761.25
356.57	1810.40
356.79	1822.69
357.00	1816.55
357.22	1908.71
357.43	1732.58
357.65	1861.60
357.86	1810.40
358.08	1847.27
358.29	1865.70
358.51	1955.81
358.72	1904.61
358.94	1826.79
359.16	1867.75
359.37	1851.36
359.59	1875.94
359.80	1900.52
360.02	1837.03
360.23	1918.95
360.45	1902.56
360.66	1853.41
360.88	1748.97
361.09	1863.65
361.31	1892.32
361.52	1763.30
361.74	1908.71
361.95	2099.17
362.17	1904.61
362.38	2072.54
362.60	1916.90
362.81	1937.38
363.03	1777.64
363.24	1849.32
363.46	2066.40
363.67	1980.39
363.89	1898.47
364.10	1943.52
364.32	1857.51
364.53	1966.05
364.75	1810.40
364.96	1894.37
365.18	1931.23
365.39	1970.15
365.61	1920.99
365.82	2027.49
366.04	2021.35
366.25	1884.13
366.47	2078.69
366.68	1886.18
366.90	1837.03
367.11	2033.63
367.33	2056.16
367.54	2050.02
367.76	1982.43
367.97	2095.07
368.19	1916.90
368.40	1994.72
368.62	1920.99
368.83	1904.61
369.05	1916.90
369.26	1923.04
369.48	1953.76
369.69	1976.29
369.91	2060.26
370.12	1947.62
370.33	1945.57
370.55	1941.47
370.76	1886.18
370.98	2076.64
371.19	1968.10
371.41	1968.10
371.62	2033.63
371.84	1953.76
372.05	2064.35
372.27	1996.77
372.48	2074.59
372.69	2015.20
372.91	2115.55
373.12	2072.54
373.34	1916.90
373.55	2004.96
373.77	2109.41
373.98	2138.08
374.20	2117.60
374.41	2146.27
374.62	2099.17
374.84	2146.27
375.05	2191.33
375.27	2166.75
375.48	2060.26
375.70	2156.51
375.91	2195.42
376.12	2242.53
376.34	2068.45
376.55	2080.74
376.77	2158.56
376.98	2047.97
377.19	2121.70
377.41	2146.27
377.62	2080.74
377.84	2279.39
378.05	2285.53
378.27	2115.55
378.48	2312.16
378.69	2398.17
378.91	2328.54
379.12	2158.56
379.34	2168.80
379.55	2256.86
379.76	2269.15
379.98	2121.70
380.19	2158.56
380.41	2203.61
380.62	2263.01
380.83	2254.81
381.05	2148.32
381.26	2424.80
381.47	2121.70
381.69	2213.85
381.90	2392.03
382.12	2285.53
382.33	2293.72
382.54	2193.37
382.76	2265.05
382.97	2293.72
383.19	2224.09
383.40	2381.79
383.61	2310.11
383.83	2303.96
384.04	2295.77
384.25	2432.99
384.47	2375.64
384.68	2363.36
384.89	2248.67
385.11	2283.49
385.32	2314.20
385.54	2285.53
385.75	2324.44
385.96	2406.36
386.18	2412.51
386.39	2338.78
386.60	2355.16
386.82	2408.41
387.03	2320.35
387.24	2484.19
387.46	2463.71
387.67	2465.75
387.88	2467.80
388.10	2559.96
388.31	2451.42
388.52	2641.88
388.74	2490.33
388.95	2461.66
389.16	2412.51
389.38	2502.62
389.59	2543.58
389.80	2559.96
390.02	2590.68
390.23	2693.08
390.44	2545.63
390.66	2559.96
390.87	2465.75
391.08	2645.98
391.30	2617.30
391.51	2592.73
391.72	2572.25
391.94	2570.20
392.15	2650.07
392.36	2654.17
392.58	2572.25
392.79	2635.74
393.00	2750.42
393.22	2721.75
393.43	2682.84
393.64	2707.41
393.85	2768.85
394.07	2676.70
394.28	2617.30
394.49	2648.02
394.71	2674.65
394.92	2756.57
395.13	2678.74
395.35	2725.85
395.56	2650.07
395.77	2795.48
395.98	2723.80
396.20	2805.72
396.41	2861.01
396.62	2848.72
396.84	2699.22
397.05	2840.53
397.26	2881.49
397.47	2936.79
397.69	2830.29
397.90	2971.60
398.11	2889.68
398.32	2836.44
398.54	2973.65
398.75	2815.96
398.96	2992.08
399.18	3102.67
399.39	3014.61
399.60	2990.03
399.81	2936.79
400.03	2783.19
400.24	3248.08
400.45	2842.58
400.66	3039.19
400.88	2947.03
401.09	3104.72
401.30	3082.19
401.51	3141.58
401.73	3102.67
401.94	3112.91
402.15	3125.20
402.36	3102.67
402.58	3049.43
402.79	3129.30
403.00	3155.92
403.21	3274.70
403.43	3205.07
403.64	3198.93
403.85	3041.23
404.06	3188.69
404.27	3123.15
404.49	3274.70
404.70	3108.82
404.91	3186.64
405.12	3332.05
405.34	3149.78
405.55	3428.30
405.76	3307.47
405.97	3180.50
406.19	3518.41
406.40	3299.28
406.61	3409.87
406.82	3360.72
407.03	3215.31
407.25	3297.23
407.46	3452.88
407.67	3434.44
407.88	3407.82
408.09	3227.60
408.31	3375.05
408.52	3338.19
408.73	3350.48
408.94	3309.52
409.15	3405.77
409.37	3512.27
409.58	3538.89
409.79	3606.47
410.00	3493.83
410.21	3403.72
410.43	3456.97
410.64	3364.81
410.85	3459.02
411.06	3538.89
411.27	3469.26
411.48	3493.83
411.70	3528.65
411.91	3487.69
412.12	3688.39
412.33	3532.75
412.54	3506.12
412.76	3694.54
412.97	3692.49
413.18	3540.94
413.39	3479.50
413.60	3712.97
413.81	3643.34
414.03	3516.36
414.24	3598.28
414.45	3725.26
414.66	3710.92
414.87	3663.82
415.08	3590.09
415.30	3776.45
415.51	3811.27
415.72	3610.57
415.93	3704.78
416.14	3725.26
416.35	3809.22
416.56	3805.13
416.78	3837.89
416.99	3811.27
417.20	3815.37
417.41	3772.36
417.62	3915.72
417.83	3882.95
418.04	3876.80
418.26	4009.92
418.47	3819.46
418.68	3952.58
418.89	3848.13
419.10	4069.31
419.31	3942.34
419.52	4087.75
419.73	4024.26
419.95	4007.87
420.16	3915.72
420.37	3975.11
420.58	4001.73
420.79	3928.00
421.00	4081.60
421.21	4081.60
421.42	3991.49
421.63	4212.67
421.85	4042.69
422.06	4257.73
422.27	4122.56
422.48	4110.27
422.69	4247.49
422.90	4218.82
423.11	4286.40
423.32	4220.86
423.53	4431.80
423.75	4310.97
423.96	4390.84
424.17	4425.66
424.38	4585.40
424.59	4341.69
424.80	4646.84
425.01	4396.99
425.22	4368.32
425.43	4396.99
425.64	4589.50
425.85	4501.44
426.06	4521.92
426.28	4554.68
426.49	4493.24
426.70	4425.66
426.91	4618.17
427.12	4638.65
427.33	4581.31
427.54	4548.54
427.75	4786.10
427.96	4800.44
428.17	4562.87
428.38	4818.87
428.59	4779.96
428.80	4825.01
429.01	4822.97
429.23	4839.35
429.44	5064.63
429.65	4960.18
429.86	4847.54
430.07	4878.26
430.28	4861.88
430.49	4956.08
430.70	5107.63
430.91	4990.90
431.12	4937.65
431.33	5181.36
431.54	5052.34
431.75	5011.38
431.96	5015.48
432.17	5117.87
432.38	5228.46
432.59	5287.86
432.80	5150.64
433.01	5250.99
433.22	5205.94
433.43	5164.98
433.64	5359.53
433.85	5304.24
434.06	5359.53
434.27	5271.47
434.49	5441.45
434.70	5533.61
434.91	5275.57
435.12	5423.02
435.33	5320.62
435.54	5466.03
435.75	5152.69
435.96	5384.11
436.17	5316.53
436.38	5586.86
436.59	5615.53
436.80	5451.69
437.01	5691.31
437.22	5738.41
437.43	5666.73
437.64	5550.00
437.85	5652.39
438.06	5623.72
438.27	5601.19
438.48	5590.95
438.69	5719.98
438.90	5728.17
439.11	5633.96
439.32	5801.90
439.53	5666.73
439.74	5810.09
439.95	5857.19
440.16	5812.14
440.37	5777.32
440.57	5722.02
440.78	5910.44
440.99	6059.94
441.20	5957.54
441.41	5787.56
441.62	5937.06
441.83	5896.10
442.04	5947.30
442.25	5930.92
442.46	5982.12
442.67	6174.63
442.88	6467.49
443.09	5926.82
443.30	5980.07
443.51	6211.49
443.72	6401.95
443.93	6143.91
444.14	6410.14
444.35	5990.31
444.56	6242.21
444.77	6391.71
444.98	6195.11
445.19	6172.58
445.40	6340.51
445.61	6172.58
445.81	6352.80
446.02	6596.51
446.23	6422.43
446.44	6215.59
446.65	6508.44
446.86	6412.19
447.07	6553.50
447.28	6549.40
447.49	6672.28
447.70	6557.60
447.91	6643.61
448.12	6619.04
448.33	6797.21
448.54	6774.68
448.74	6582.17
448.95	6719.39
449.16	6498.20
449.37	6979.48
449.58	6860.70
449.79	7075.73
450.00	6582.17
450.21	6821.78
450.42	7008.15
450.63	6973.33
450.84	6926.23
451.05	6961.05
451.25	6842.26
451.46	6756.25
451.67	7106.45
451.88	7214.99
452.09	7065.49
452.30	7059.35
452.51	7094.16
452.72	7309.20
452.93	7344.02
453.13	7049.11
453.34	7182.23
453.55	7217.04
453.76	7442.32
453.97	7636.88
454.18	7405.46
454.39	7368.59
454.60	7602.06
454.81	7524.24
455.01	7671.69
455.22	7288.72
455.43	7571.34
455.64	7772.04
455.85	7833.48
456.06	7782.28
456.27	7778.19
456.48	7622.54
456.68	7974.79
456.89	7856.01
457.10	7884.68
457.31	7874.44
457.52	7866.25
457.73	8015.75
457.94	7925.64
458.14	8023.94
458.35	8439.68
458.56	8144.77
458.77	8060.80
458.98	8216.45
459.19	8191.88
459.39	8222.59
459.60	8314.75
459.81	8320.90
460.02	8529.79
460.23	8386.43
460.44	8650.62
460.65	8626.04
460.85	8818.55
461.06	8699.77
461.27	8468.35
461.48	8976.25
461.69	8888.18
461.89	8591.23
462.10	9023.35
462.31	8699.77
462.52	8814.46
462.73	8976.25
462.94	9072.50
463.14	8990.58
463.35	8826.75
463.56	9650.03
463.77	9211.76
463.98	9125.75
464.18	9381.74
464.39	9457.52
464.60	9521.01
464.81	9359.22
465.02	9416.56
465.23	9611.12
465.43	9502.58
465.64	9717.61
465.85	9770.86
466.06	9549.68
466.27	9897.83
466.47	9957.22
466.68	9981.80
466.89	9867.11
467.10	10047.33
467.30	9924.46
467.51	10129.25
467.72	10495.84
467.93	10225.51
468.14	10219.36
468.34	10395.49
468.55	10098.53
468.76	10487.65
468.97	10377.06
469.17	10626.91
469.38	10727.26
469.59	10778.46
469.80	10497.89
470.01	10563.42
470.21	10753.88
470.42	10919.77
470.63	11169.62
470.84	11013.98
471.04	11128.66
471.25	11159.38
471.46	11083.61
471.67	11614.03
471.87	11093.85
472.08	11448.15
472.29	11501.39
472.50	11294.55
472.70	11560.78
472.91	11482.96
473.12	11663.18
473.33	11771.72
473.53	11976.52
473.74	12042.06
473.95	11919.18
474.16	12308.29
474.36	12232.52
474.57	12449.60
474.78	12633.92
474.99	12478.27
475.19	12377.92
475.40	12674.88
475.61	12801.85
475.81	12939.07
476.02	13012.79
476.23	12808.00
476.44	13223.73
476.64	13434.68
476.85	13356.85
477.06	13274.93
477.27	13440.82
477.47	13668.14
477.68	13754.16
477.89	13700.91
478.09	13739.82
478.30	13737.77
478.51	13918.00
478.71	13950.76
478.92	14196.52
479.13	14286.63
479.34	14473.00
479.54	14255.91
479.75	14458.66
479.96	14690.08
480.16	14565.15
480.37	14481.19
480.58	14944.03
480.78	15216.41
480.99	15132.44
481.20	15253.27
481.41	15316.76
481.61	15539.99
481.82	15521.56
482.03	15580.95
482.23	15206.17
482.44	15769.36
482.65	15978.25
482.85	16252.68
483.06	15802.13
483.27	16137.99
483.47	15972.11
483.68	16092.94
483.89	16156.43
484.09	16244.49
484.30	16623.36
484.51	16531.20
484.71	16916.22
484.92	16635.65
485.13	16824.06
485.33	17139.45
485.54	17057.53
485.75	17229.56
485.95	17184.51
486.16	17569.52
486.37	17563.38
486.57	17495.80
486.78	17626.87
486.98	17542.90
487.19	17671.92
487.40	17880.82
487.60	17891.06
487.81	18081.52
488.02	18056.94
488.22	17952.49
488.43	18667.24
488.64	18335.46
488.84	18362.09
489.05	18671.33
489.25	18624.23
489.46	18747.11
489.67	18786.02
489.87	19136.22
490.08	18990.81
490.29	19193.56
490.49	19424.98
490.70	19259.10
490.90	19404.50
491.11	19205.85
491.32	19451.61
491.52	19740.37
491.73	19646.16
491.94	19869.39
492.14	19670.74
492.35	20057.81
492.55	20182.73
492.76	20070.09
492.97	20436.68
493.17	20426.44
493.38	20399.82
493.58	20639.43
493.79	20543.17
494.00	20369.10
494.20	20633.29
494.41	20653.76
494.61	20811.46
494.82	21329.59
495.02	20979.39
495.23	21049.02
495.44	21024.45
495.64	21280.44
495.85	21321.40
496.05	21819.06
496.26	21364.41
496.47	21610.17
496.67	21528.25
496.88	22042.29
497.08	21665.46
497.29	21864.11
497.49	22064.82
497.70	21884.59
497.91	22171.31
498.11	22136.49
498.32	22306.48
498.52	22421.16
498.73	22394.54
498.93	22488.74
499.14	22515.37
499.34	22662.82
499.55	22728.36
499.76	22879.91
499.96	22744.74
500.17	22843.04
500.37	23008.93
500.58	23025.31
500.78	22851.24
500.99	23410.33
501.19	23555.74
501.40	23281.31
501.60	23160.48
501.81	23664.28
502.02	23660.18
502.22	23226.01
502.43	23852.69
502.63	23942.80
502.84	23963.28
503.04	23858.84
503.25	23664.28
503.45	23899.80
503.66	24159.89
503.86	24043.15
504.07	24204.94
504.27	24037.01
504.48	24532.62
504.68	24340.11
504.89	24761.99
505.09	24698.50
505.30	24487.56
505.50	24700.55
505.71	24954.50
505.91	24977.03
506.12	25026.18
506.32	24884.87
506.53	24938.12
506.73	24938.12
506.94	25357.95
507.14	25110.14
507.35	25003.65
507.55	25511.55
507.76	25226.88
507.96	25110.14
508.17	25669.24
508.37	25568.89
508.58	25620.09
508.78	26039.92
508.99	25792.12
509.19	25851.51
509.40	26019.44
509.60	25912.95
509.81	26273.39
510.01	26029.68
510.22	26115.70
510.42	26035.83
510.63	26332.78
510.83	26136.18
511.04	26222.19
511.24	26576.49
511.44	26459.76
511.65	26646.12
511.85	26222.19
512.06	26664.55
512.26	26769.00
512.47	26642.03
512.67	26744.42
512.88	26775.14
513.08	26639.98
513.29	27188.83
513.49	27012.71
513.69	26932.84
513.90	26871.40
514.10	26957.41
514.31	27125.35
514.51	27280.99
514.72	27156.07
514.92	27457.12
515.13	27471.45
515.33	27373.15
515.53	27629.15
515.74	27367.01
515.94	27795.03
516.15	27778.65
516.35	27702.87
516.56	27960.92
516.76	27493.98
516.96	27784.79
517.17	28057.17
517.37	28210.77
517.58	28032.60
517.78	28225.11
517.99	28239.44
518.19	28302.93
518.39	28362.32
518.60	28718.67
518.80	28421.71
519.01	28356.18
519.21	28395.09
519.41	28687.95
519.62	28657.23
519.82	28816.97
520.03	28970.57
520.23	28751.43
520.43	29048.39
520.64	29210.18
520.84	29240.90
521.05	29314.62
521.25	29296.19
521.45	29562.43
521.66	29713.98
521.86	29324.86
522.07	29726.27
522.27	29517.37
522.47	29816.38
522.68	29976.12
522.88	29859.38
523.08	29920.82
523.29	30254.64
523.49	30211.64
523.70	29978.17
523.90	30225.97
524.10	30045.75
524.31	30477.87
524.51	30651.95
524.71	30596.65
524.92	30684.72
525.12	30856.75
525.33	30635.56
525.53	30844.46
525.73	30883.37
525.94	31022.63
526.14	30946.86
526.34	31020.58
526.55	31288.87
526.75	31141.41
526.95	31374.88
527.16	31135.27
527.36	31424.03
527.56	31524.38
527.77	31823.39
527.97	31663.64
528.17	31710.75
528.38	31843.87
528.58	32120.34
528.78	32278.04
528.99	32028.18
529.19	32263.70
529.39	32013.85
529.60	32622.09
529.80	32460.30
530.00	32431.63
530.21	32720.40
530.41	32880.14
530.61	32876.04
530.82	32830.99
531.02	32996.87
531.22	32982.54
531.43	32833.04
531.63	33189.38
531.83	33414.66
532.04	33539.58
532.24	33259.01
532.44	33773.05
532.64	33734.14
532.85	34018.81
533.05	33697.28
533.25	34192.89
533.46	33809.92
533.66	33883.64
533.86	34446.83
534.07	34145.78
534.27	34299.38
534.47	34512.37
534.67	34661.87
534.88	34330.10
535.08	34860.52
535.28	34686.45
535.49	34711.02
535.69	35233.25
535.89	35161.58
536.09	35145.19
536.30	35337.70
536.50	35257.83
536.70	35347.94
536.91	35540.45
537.11	35349.99
537.31	35626.46
537.51	35737.05
537.72	35988.95
537.92	36265.43
538.12	36111.83
538.32	36240.86
538.53	36445.65
538.73	35968.48
538.93	36249.05
539.13	36169.18
539.34	36396.50
539.54	36546.00
539.74	36881.87
539.94	36840.91
540.15	36906.44
540.35	36943.31
540.55	36619.73
540.75	37182.92
540.96	36969.93
541.16	37066.19
541.36	37129.67
541.56	37494.21
541.77	37825.98
541.97	37389.77
542.17	37649.86
542.37	37846.46
542.58	37602.75
542.78	37758.40
542.98	37699.01
543.18	37731.78
543.38	38170.04
543.59	38176.19
543.79	37713.34
543.99	38043.07
544.19	38231.48
544.40	38626.74
544.60	38456.76
544.80	38315.45
545.00	38344.12
545.20	38751.66
545.41	38540.72
545.61	38663.60
545.81	38811.06
546.01	38929.84
546.21	38690.23
546.42	39232.94
546.62	39331.24
546.82	39228.84
547.02	39456.17
547.22	39177.64
547.43	39065.00
547.63	38993.32
547.83	39443.88
548.03	39058.86
548.23	39593.38
548.44	39411.11
548.64	39753.12
548.84	39826.85
549.04	39591.33
549.24	39902.62
549.45	40064.41
549.65	39792.03
549.85	39929.25
550.05	40142.24
550.25	39632.29
550.45	40400.28
550.66	40326.55
550.86	40183.19
551.06	40539.54
551.26	40697.24
551.46	40908.18
551.66	40498.58
551.87	40623.51
552.07	40687.00
552.27	40777.11
552.47	40424.86
552.67	40969.61
552.87	40738.19
553.07	40994.19
553.28	40924.56
553.48	41076.11
553.68	40879.50
553.88	41241.99
554.08	40928.66
554.28	40910.22
554.48	40965.52
554.69	41418.12
554.89	41383.30
555.09	41635.20
555.29	41344.39
555.49	41614.72
555.69	41422.22
555.89	41487.75
556.10	41805.19
556.30	41659.78
556.50	41809.28
556.70	41747.84
556.90	42198.40
557.10	42122.62
557.30	41790.85
557.50	41827.71
557.70	42366.33
557.91	42524.02
558.11	41987.46
558.31	42204.54
558.51	41698.69
558.71	42476.92
558.91	42642.81
559.11	42206.59
559.31	42149.24
559.51	42218.88
559.72	42169.72
559.92	42351.99
560.12	42380.67
560.32	42474.87
560.52	42679.67
560.72	42769.78
560.92	42532.22
561.12	42861.94
561.32	42939.76
561.52	42669.43
561.72	43017.58
561.93	42362.23
562.13	43169.13
562.33	42593.65
562.53	43328.87
562.73	43062.64
562.93	42581.37
563.13	43103.60
563.33	43079.02
563.53	43279.72
563.73	43060.59
563.93	43322.73
564.13	43631.97
564.33	43042.16
564.53	43289.96
564.74	43609.45
564.94	43357.55
565.14	43488.62
565.34	43115.89
565.54	43515.24
565.74	43527.53
565.94	43836.77
566.14	43750.76
566.34	43877.73
566.54	44010.85
566.74	43595.11
566.94	44328.28
567.14	44035.42
567.34	43744.61
567.54	44260.70
567.74	43660.65
567.94	43824.48
568.14	43924.83
568.34	43906.40
568.54	43861.35
568.74	44504.41
568.94	43914.59
569.14	44580.18
569.34	44283.23
569.54	44141.92
569.75	43953.51
569.95	44356.96
570.15	44662.10
570.35	44150.11
570.55	44545.37
570.75	44381.53
570.95	44197.21
571.15	44733.78
571.35	44737.88
571.55	44715.35
571.75	44178.78
571.95	44590.42
572.15	44645.72
572.35	45069.65
572.55	44770.64
572.75	44750.17
572.95	44846.42
573.15	45247.82
573.35	44918.10
573.55	44965.20
573.75	44840.28
573.95	44909.91
574.15	44717.40
574.35	45374.80
574.55	45102.42
574.75	45151.57
574.95	45098.32
575.15	45155.66
575.34	45221.20
575.54	45344.08
575.74	45634.89
575.94	45487.43
576.14	45253.97
576.34	45665.61
576.54	45458.76
576.74	45794.63
576.94	45421.90
577.14	45909.32
577.34	45663.56
577.54	45632.84
577.74	45677.90
577.94	45770.05
578.14	45612.36
578.34	46144.83
578.54	45634.89
578.74	45899.08
578.94	46290.24
579.14	46126.40
579.34	46011.71
579.54	45872.45
579.74	46425.40
579.94	46251.33
580.13	46497.08
580.33	46824.76
580.53	46785.85
580.73	46302.53
580.93	46437.69
581.13	46746.93
581.33	46531.90
581.53	46603.58
581.73	46779.70
581.93	47109.43
582.13	46925.11
582.33	47336.75
582.53	46925.11
582.73	46906.68
582.92	47224.11
583.12	47441.20
583.32	47459.63
583.52	46949.68
583.72	47404.33
583.92	47240.50
584.12	47340.85
584.32	47842.60
584.52	47516.97
584.72	47664.42
584.92	47600.94
585.11	48174.37
585.31	47492.40
585.51	47686.95
585.71	47693.10
585.91	48162.08
586.11	48055.59
586.31	47754.54
586.51	47979.81
586.71	48196.90
586.91	48401.69
587.10	48456.99
587.30	47930.66
587.50	48446.75
587.70	48278.82
587.90	48729.37
588.10	48356.64
588.30	48028.96
588.50	48829.72
588.69	48782.62
588.89	48450.84
589.09	48678.17
589.29	49009.94
589.49	48985.36
589.69	48250.14
589.89	49241.36
590.08	48559.39
590.28	48868.63
590.48	48989.46
590.68	48856.34
590.88	48891.16
591.08	49331.47
591.28	48899.35
591.47	49122.58
591.67	49200.40
591.87	49554.70
592.07	49253.65
592.27	49890.57
592.47	49456.40
592.67	49636.62
592.86	49325.33
593.06	49626.38
593.26	49806.60
593.46	49980.68
593.66	49343.76
593.86	49796.36
594.05	50033.92
594.25	50087.17
594.45	50013.44
594.65	50038.02
594.85	49577.23
595.05	50175.23
595.24	50023.68
595.44	50537.72
595.64	50476.29
595.84	50296.06
596.04	50572.54
596.23	50582.78
596.43	50877.69
596.63	50867.45
596.83	50560.25
597.03	50887.93
597.22	51119.35
597.42	51213.55
597.62	51092.72
597.82	51031.29
598.02	50855.16
598.21	51297.52
598.41	50857.21
598.61	51172.60
598.81	51318.00
599.01	51141.88
599.20	51250.42
599.40	51254.51
599.60	51109.11
599.80	51518.70
600.00	51700.97
600.19	51655.92
600.39	51262.71
600.59	51709.16
600.79	51600.62
600.98	52063.46
601.18	51723.50
601.38	51725.55
601.58	51922.15
601.78	51975.40
601.97	52202.72
602.17	52458.72
602.37	52401.38
602.57	52262.11
602.76	52952.28
602.96	51930.34
603.16	52694.24
603.36	52464.86
603.55	52958.42
603.75	52442.34
603.95	52921.56
604.15	52853.98
604.34	52751.58
604.54	52675.80
604.74	52933.85
604.94	53034.20
605.13	53230.80
605.33	52835.55
605.53	53179.60
605.73	52933.85
605.92	52751.58
606.12	53017.82
606.32	53220.56
606.52	53265.62
606.71	53232.85
606.91	53667.02
607.11	53681.36
607.30	53327.06
607.50	53288.15
607.70	53673.16
607.90	53382.35
608.09	53320.91
608.29	53726.41
608.49	53492.94
608.68	53290.19
608.88	53673.16
609.08	54097.09
609.28	53976.26
609.47	53581.01
609.67	54293.70
609.87	53572.81
610.06	53882.06
610.26	53621.97
610.46	54265.03
610.66	54025.42
610.85	53822.67
611.05	53990.60
611.25	54013.13
611.44	53884.11
611.64	54174.92
611.84	53882.06
612.03	53712.08
612.23	54174.92
612.43	53775.56
612.62	54062.28
612.82	54303.94
613.02	54076.61
613.21	54320.32
613.41	53974.22
613.61	54484.16
613.80	53767.37
614.00	54373.57
614.20	54281.41
614.39	54230.21
614.59	54125.77
614.79	54189.25
614.98	54236.36
615.18	54248.64
615.38	54344.90
615.57	54000.84
615.77	54817.98
615.97	54285.51
616.16	54062.28
616.36	54381.76
616.56	54725.82
616.75	54004.94
616.95	53990.60
617.15	54033.61
617.34	54826.17
617.54	54457.54
617.74	54895.80
617.93	54488.26
618.13	53929.16
618.32	54375.62
618.52	54488.26
618.72	54273.22
618.91	54762.68
619.11	54379.71
619.31	54142.15
619.50	54062.28
619.70	54301.89
619.90	54346.95
620.09	54295.75
620.29	54254.79
620.48	54154.44
620.68	54457.54
620.88	54080.71
621.07	54217.92
621.27	54166.73
621.46	54049.99
621.66	54047.94
621.86	54113.48
622.05	53859.53
622.25	54113.48
622.44	53720.27
622.64	53861.58
622.84	54203.59
623.03	54035.66
623.23	54168.77
623.42	54422.72
623.62	54422.72
623.82	53957.83
624.01	54056.14
624.21	54187.21
624.40	54318.28
624.60	54265.03
624.80	53810.38
624.99	53916.87
625.19	53826.76
625.38	54506.69
625.58	53685.45
625.77	54170.82
625.97	53634.25
626.17	53880.01
626.36	54275.27
626.56	54160.58
626.75	53570.77
626.95	54441.15
627.14	54142.15
627.34	54152.39
627.54	54185.16
627.73	54193.35
627.93	54207.68
628.12	53652.69
628.32	53908.68
628.51	54254.79
628.71	53992.65
628.90	54148.29
629.10	53929.16
629.30	54054.09
629.49	54346.95
629.69	53804.24
629.88	53925.07
630.08	54148.29
630.27	54170.82
630.47	54449.35
630.66	54289.60
630.86	54078.66
631.05	53888.20
631.25	54262.98
631.44	53982.41
631.64	54078.66
631.84	54441.15
632.03	54367.43
632.23	54338.75
632.42	54465.73
632.62	53966.02
632.81	54179.01
633.01	54539.46
633.20	54547.65
633.40	54375.62
633.59	53877.96
633.79	54258.88
633.98	54355.14
634.18	54211.78
634.37	54064.33
634.57	54162.63
634.76	54486.21
634.96	54293.70
635.15	54607.04
635.35	54131.91
635.54	54410.43
635.74	54828.22
635.93	53953.74
636.13	54764.73
636.32	54781.12
636.52	53976.26
636.71	54897.85
636.91	54463.68
637.10	54795.45
637.30	54447.30
637.49	54232.26
637.69	54367.43
637.88	54590.66
638.08	54500.54
638.27	54736.06
638.46	54656.19
638.66	54512.83
638.85	54645.95
639.05	54740.16
639.24	55178.42
639.44	54815.93
639.63	54631.61
639.83	54650.05
640.02	54736.06
640.22	54840.51
640.41	54426.82
640.61	54211.78
640.80	54879.42
640.99	54480.06
641.19	55143.61
641.38	54437.06
641.58	54850.75
641.77	55162.04
641.97	54525.12
642.16	54662.33
642.36	55116.98
642.55	55030.97
642.74	54910.14
642.94	55542.96
643.13	55016.63
643.33	55002.30
643.52	55426.23
643.72	55391.41
643.91	55065.78
644.10	55200.95
644.30	55391.41
644.49	55176.37
644.69	55442.61
644.88	55217.33
645.08	55080.12
645.27	55372.98
645.46	55231.67
645.66	55215.29
645.85	55037.11
646.05	55493.81
646.24	55522.48
646.43	55497.91
646.63	55440.56
646.82	55911.59
647.02	55706.80
647.21	55481.52
647.40	55235.77
647.60	56106.15
647.79	55487.67
647.99	55727.28
648.18	55676.08
648.37	55821.48
648.57	55628.98
648.76	55755.95
648.96	55694.51
649.15	56208.55
649.34	56132.78
649.54	55766.19
649.73	55762.09
649.92	55649.45
650.12	55499.95
650.31	56233.13
650.51	55944.36
650.70	56241.32
650.89	55866.54
651.09	56747.17
651.28	56497.31
651.47	56124.58
651.67	56208.55
651.86	56718.49
652.06	55876.78
652.25	56237.22
652.44	56005.80
652.64	56421.54
652.83	56153.26
653.02	55846.06
653.22	56181.93
653.41	56306.85
653.60	56181.93
653.80	56267.94
653.99	56042.66
654.18	56372.39
654.38	56114.34
654.57	56261.80
654.76	56376.48
654.96	56181.93
655.15	56525.99
655.34	56222.89
655.54	55698.61
655.73	56081.58
655.92	56546.47
656.12	56009.90
656.31	56544.42
656.50	56143.02
656.70	56450.21
656.89	56419.49
657.08	56210.60
657.28	55895.21
657.47	56532.13
657.66	56345.76
657.86	56302.76
658.05	56816.80
658.24	56650.91
658.43	56222.89
658.63	57001.11
658.82	56282.28
659.01	56562.85
659.21	56698.01
659.40	56951.96
659.59	56456.35
659.79	56781.98
659.98	56911.00
660.17	56751.26
660.36	56485.03
660.56	56765.60
660.75	56405.16
660.94	57035.93
661.14	56296.61
661.33	56435.87
661.52	56097.96
661.71	56595.62
661.91	56093.86
662.10	56695.97
662.29	57201.82
662.49	56532.13
662.68	56562.85
662.87	56544.42
663.06	56816.80
663.26	56609.95
663.45	56851.61
663.64	56415.40
663.83	57191.58
664.03	56997.02
664.22	56669.34
664.41	56988.83
664.60	56822.94
664.80	56745.12
664.99	56313.00
665.18	56589.47
665.37	56382.63
665.57	57005.21
665.76	56218.79
665.95	56427.68
666.14	56663.20
666.34	56550.56
666.53	56751.26
666.72	56485.03
666.91	56650.91
667.11	56468.64
667.30	56538.27
667.49	56511.65
667.68	56614.05
667.87	56325.28
668.07	56904.86
668.26	56624.29
668.45	56493.22
668.64	56349.86
668.84	57210.01
669.03	56693.92
669.22	56614.05
669.41	56083.62
669.60	56628.38
669.80	56011.95
669.99	56349.86
670.18	56403.11
670.37	56550.56
670.57	56931.48
670.76	56140.97
670.95	56788.13
671.14	56534.18
671.33	55868.59
671.53	56718.49
671.72	56409.25
671.91	56272.04
672.10	56206.50
672.29	56837.28
672.48	55747.76
672.68	56755.36
672.87	56319.14
673.06	56016.04
673.25	56347.81
673.44	56407.20
673.64	56095.91
673.83	56087.72
674.02	56681.63
674.21	55977.13
674.40	56272.04
674.59	56407.20
674.79	56450.21
674.98	56335.52
675.17	56679.58
675.36	56226.98
675.55	56358.05
675.74	56116.39
675.94	56605.86
676.13	55962.79
676.32	56294.56
676.51	56220.84
676.70	56071.34
676.89	56384.68
677.08	56335.52
677.28	56165.54
677.47	56216.74
677.66	56057.00
677.85	56079.53
678.04	56456.35
678.23	55985.32
678.42	56218.79
678.62	55794.86
678.81	56173.73
679.00	55817.39
679.19	56603.81
679.38	56147.11
679.57	56028.33
679.76	55938.22
679.96	56331.43
680.15	55915.69
680.34	55977.13
680.53	55764.14
680.72	56300.71
680.91	56485.03
681.10	55631.02
681.29	55794.86
681.48	55923.88
681.68	55532.72
681.87	55895.21
682.06	55659.69
682.25	55305.40
682.44	55948.46
682.63	55033.02
682.82	55473.33
683.01	55925.93
683.20	55164.09
683.39	55805.10
683.59	55616.69
683.78	55850.16
683.97	55424.18
684.16	55801.00
684.35	55598.26
684.54	55655.60
684.73	55186.61
684.92	55456.95
685.11	55274.68
685.30	55217.33
685.49	55362.74
685.69	55489.71
685.88	55041.21
686.07	55426.23
686.26	55350.45
686.45	54906.04
686.64	55772.33
686.83	55309.49
687.02	55035.06
687.21	55528.62
687.40	55129.27
687.59	55041.21
687.78	55108.79
687.97	55166.13
688.16	55094.46
688.35	55016.63
688.54	54725.82
688.74	54887.61
688.93	54449.35
689.12	54568.13
689.31	55342.26
689.50	55059.64
689.69	54363.33
689.88	54637.76
690.07	54949.05
690.26	54557.89
690.45	55258.29
690.64	54727.87
690.83	54764.73
691.02	54211.78
691.21	54711.49
691.40	54697.15
691.59	54949.05
691.78	54387.91
691.97	54736.06
692.16	54191.30
692.35	54817.98
692.54	54379.71
692.73	54918.33
692.92	54205.64
693.11	54744.25
693.30	54185.16
693.49	53982.41
693.68	54441.15
693.87	54353.09
694.06	54015.18
694.25	54432.96
694.44	53800.14
694.63	54432.96
694.82	54174.92
695.01	54209.73
695.20	54023.37
695.39	54021.32
695.58	53925.07
695.77	54068.42
695.96	53515.47
696.15	54414.53
696.34	54127.81
696.53	54197.44
696.72	54109.38
696.91	53830.86
697.10	53947.59
697.29	53800.14
697.48	54064.33
697.67	54101.19
697.86	53386.45
698.05	53464.27
698.24	53900.49
698.43	53417.17
698.62	53822.67
698.81	53535.95
699.00	53933.26
699.19	53189.84
699.38	53794.00
699.57	53361.87
699.76	53992.65
699.95	52798.68
700.14	53267.67
700.32	53691.60
700.51	53601.49
700.70	53535.95
700.89	53359.83
701.08	53544.14
701.27	53337.30
701.46	53357.78
701.65	52753.63
701.84	53204.18
702.03	53267.67
702.22	52833.50
702.41	53163.22
702.60	53150.93
702.79	53173.46
702.98	52876.51
703.17	52892.89
703.35	52878.55
703.54	52874.46
703.73	53335.25
703.92	53116.12
704.11	52903.13
704.30	52681.95
704.49	52657.37
704.68	53095.64
704.87	53130.45
705.06	52985.05
705.25	52747.48
705.43	53105.88
705.62	53394.64
705.81	52880.60
706.00	53212.37
706.19	52471.01
706.38	52782.30
706.57	52825.31
706.76	52604.13
706.95	53005.53
707.14	52653.28
707.32	52878.55
707.51	52294.88
707.70	52264.16
707.89	52491.49
708.08	52221.16
708.27	52612.32
708.46	52802.78
708.65	52362.46
708.84	52552.93
709.02	52729.05
709.21	52444.38
709.40	52266.21
709.59	52262.11
709.78	52219.11
709.97	52329.70
710.16	52090.09
710.34	52501.73
710.53	52421.86
710.72	51709.16
710.91	52217.06
711.10	52335.84
711.29	52067.56
711.48	52270.31
711.66	52237.54
711.85	51903.72
712.04	51688.68
712.23	51977.45
712.42	52210.92
712.61	51977.45
712.80	51897.58
712.98	51873.00
713.17	51817.71
713.36	51576.04
713.55	51819.75
713.74	51770.60
713.93	51983.59
714.11	51873.00
714.30	51377.39
714.49	51481.84
714.68	51610.86
714.87	51436.78
715.06	51608.81
715.24	51653.87
715.43	51617.00
715.62	51225.84
715.81	51270.90
716.00	51537.13
716.18	51223.79
716.37	51064.05
716.56	50982.13
716.75	51492.08
716.94	51608.81
717.12	50920.70
717.31	51442.93
717.50	51289.33
717.69	51336.43
717.88	51483.89
718.06	51303.67
718.25	51447.02
718.44	50887.93
718.63	50701.56
718.82	50574.59
719.00	51287.28
719.19	50701.56
719.38	50672.89
719.57	50353.41
719.76	50248.96
719.94	50050.31
720.13	50210.05
720.32	50242.82
720.51	50019.59
720.69	50396.42
720.88	50255.11
721.07	50291.97
721.26	49909.00
721.44	49710.35
721.63	49675.53
721.82	49683.72
722.01	49956.10
722.20	49743.11
722.38	49394.96
722.57	49603.85
722.76	50078.98
722.95	49853.70
723.13	49888.52
723.32	49698.06
723.51	49165.59
723.70	49214.74
723.88	49560.84
724.07	49208.59
724.26	49339.66
724.44	48794.90
724.63	49468.69
724.82	49077.52
725.01	49124.63
725.19	49270.03
725.38	49087.76
725.57	48823.58
725.76	49120.53
725.94	48698.65
726.13	49071.38
726.32	48891.16
726.51	48471.32
726.69	49218.83
726.88	49075.48
727.07	48936.21
727.25	49128.72
727.44	48747.80
727.63	48829.72
727.82	48913.69
728.00	48958.74
728.19	48272.67
728.38	49052.95
728.56	48235.81
728.75	48381.21
728.94	48612.63
729.12	48876.82
729.31	48735.51
729.50	48475.42
729.69	48479.52
729.87	48129.31
730.06	48569.63
730.25	48528.67
730.43	49366.29
730.62	48303.39
730.81	48612.63
730.99	48655.64
731.18	48186.66
731.37	48725.27
731.55	48186.66
731.74	48880.92
731.93	48311.58
732.11	48510.24
732.30	48305.44
732.49	48301.34
732.67	48420.13
732.86	48174.37
733.05	48485.66
733.23	47969.57
733.42	48313.63
733.61	48213.28
733.79	48583.96
733.98	49075.48
734.17	48356.64
734.35	48241.95
734.54	48108.83
734.73	48387.36
734.91	48031.01
735.10	47863.08
735.29	48450.84
735.47	47283.50
735.66	48190.75
735.84	47707.43
736.03	47703.34
736.22	48080.16
736.40	47559.98
736.59	47760.68
736.78	47607.08
736.96	48024.87
737.15	47959.33
737.33	48022.82
737.52	47840.55
737.71	47813.93
737.89	47656.23
738.08	47805.73
738.27	47324.46
738.45	47678.76
738.64	47901.99
738.82	47424.81
739.01	47744.30
739.20	47269.17
739.38	47357.23
739.57	47529.26
739.75	47822.12
739.94	47271.21
740.13	47682.86
740.31	47422.76
740.50	47326.51
740.68	47516.97
740.87	47494.44
741.06	47398.19
741.24	47314.22
741.43	46724.41
741.61	47265.07
741.80	46652.73
741.99	46847.29
742.17	46923.06
742.36	46710.07
742.54	46892.34
742.73	46740.79
742.91	47101.23
743.10	46718.26
743.29	47246.64
743.47	47031.60
743.66	46808.37
743.84	46732.60
744.03	46210.37
744.21	46705.98
744.40	46605.62
744.59	46798.13
744.77	46794.04
744.96	46306.62
745.14	46290.24
745.33	46359.87
745.51	46390.59
745.70	46421.31
745.88	46685.50
746.07	46351.68
746.26	45907.27
746.44	46153.02
746.63	46228.80
746.81	46179.65
747.00	45630.79
747.18	46163.26
747.37	46126.40
747.55	45700.42
747.74	46427.45
747.92	45913.41
748.11	45722.95
748.29	45966.66
748.48	46204.22
748.66	45765.96
748.85	45747.53
749.03	46071.10
749.22	45516.11
749.41	45135.18
749.59	45987.14
749.78	45790.53
749.96	45079.89
750.15	45428.04
750.33	45854.02
750.52	45407.56
750.70	45372.75
750.89	45221.20
751.07	45315.40
751.26	45385.04
751.44	44946.77
751.63	45413.71
751.81	44852.56
752.00	44748.12
752.18	45270.35
752.37	44940.63
752.55	44623.19
752.74	45026.64
752.92	45110.61
753.10	44930.39
753.29	44709.21
753.47	44645.72
753.66	44696.92
753.84	44434.78
754.03	44871.00
754.21	44455.26
754.40	44744.02
754.58	44520.79
754.77	44731.73
754.95	44948.82
755.14	44352.86
755.32	44627.29
755.51	44338.52
755.69	44373.34
755.88	44207.45
756.06	44318.04
756.24	43885.92
756.43	44154.21
756.61	44154.21
756.80	44090.72
756.98	43554.15
757.17	43871.59
757.35	43611.49
757.54	43576.68
757.72	43818.34
757.90	43756.90
758.09	43492.71
758.27	43535.72
758.46	43894.11
758.64	43396.46
758.83	43763.04
759.01	43885.92
759.19	43672.93
759.38	43384.17
759.56	43552.10
759.75	43494.76
759.93	43498.86
760.12	43275.63
760.30	42845.55
760.48	43425.13
760.67	43500.90
760.85	43173.23
761.04	43177.33
761.22	43466.09
761.40	43201.90
761.59	43226.48
761.77	43122.03
761.96	43115.89
762.14	43173.23
762.32	43173.23
762.51	42773.88
762.69	42687.86
762.88	43009.39
763.06	42804.59
763.24	42947.95
763.43	42751.35
763.61	42356.09
763.80	42734.96
763.98	42909.04
764.16	42640.76
764.35	42237.31
764.53	41741.70
764.72	42235.26
764.90	42595.70
765.08	42376.57
765.27	42388.86
765.45	41989.50
765.63	41840.00
765.82	41991.55
766.00	42009.98
766.18	42073.47
766.37	42304.89
766.55	41969.02
766.74	42071.42
766.92	41440.65
767.10	41610.63
767.29	41956.74
767.47	41162.12
767.65	41962.88
767.84	41690.50
768.02	41629.06
768.20	41454.98
768.39	41604.49
768.57	41448.84
768.75	41072.01
768.94	41495.94
769.12	41547.14
769.30	41280.91
769.49	41301.39
769.67	40852.88
769.85	40768.91
770.04	40928.66
770.22	40803.73
770.40	40895.89
770.59	40922.51
770.77	41321.87
770.95	41057.68
771.14	40793.49
771.32	40449.43
771.50	40605.08
771.69	40674.71
771.87	40953.23
772.05	40687.00
772.24	40058.27
772.42	40633.75
772.60	40488.34
772.78	40850.83
772.97	40461.72
773.15	40834.45
773.33	40459.67
773.52	40326.55
773.70	40578.45
773.88	40760.72
774.07	40148.38
774.25	40275.35
774.43	40285.59
774.61	40687.00
774.80	40506.77
774.98	40383.90
775.16	40281.50
775.34	40592.79
775.53	40236.44
775.71	40834.45
775.89	40490.39
776.08	40244.63
776.26	40469.91
776.44	40809.87
776.62	40482.20
776.81	40539.54
776.99	40523.16
777.17	40471.96
777.35	40484.25
777.54	40852.88
777.72	40181.15
777.90	40801.68
778.08	40496.53
778.27	40674.71
778.45	40811.92
778.63	40988.05
778.81	40656.28
779.00	41254.28
779.18	40557.97
779.36	40949.14
779.54	40846.74
779.73	40484.25
779.91	41094.54
780.09	41534.85
780.27	41231.75
780.46	40959.38
780.64	41414.02
780.82	40619.41
781.00	41119.12
781.19	41112.97
781.37	41645.44
781.55	41579.91
781.73	41639.30
781.91	41375.11
782.10	41067.92
782.28	41592.20
782.46	41833.86
782.64	41840.00
782.82	41418.12
783.01	41213.32
783.19	41680.26
783.37	41293.19
783.55	41250.19
783.74	41778.56
783.92	41334.15
784.10	42091.90
784.28	41670.02
784.46	41360.78
784.64	41342.35
784.83	41373.06
785.01	41856.39
785.19	41487.75
785.37	41657.73
785.55	41614.72
785.74	41190.80
785.92	41022.86
786.10	41432.46
786.28	41514.37
786.46	41123.21
786.64	41254.28
786.83	41360.78
787.01	41246.09
787.19	41371.02
787.37	41508.23
787.55	40947.09
787.74	40959.38
787.92	40959.38
788.10	41125.26
788.28	40977.81
788.46	40699.28
788.64	40670.61
788.82	41063.82
789.01	40463.77
789.19	40852.88
789.37	41102.73
789.55	40682.90
789.73	40351.13
789.91	40375.70
790.09	40652.18
790.28	40412.57
790.46	40019.36
790.64	40379.80
790.82	40310.17
791.00	40088.99
791.18	40170.91
791.36	40007.07
791.55	40283.55
791.73	39851.42
791.91	39697.83
792.09	40041.88
792.27	39919.01
792.45	39841.18
792.63	39804.32
792.81	39841.18
793.00	39529.89
793.18	39374.25
793.36	39660.96
793.54	39155.11
793.72	38847.92
793.90	39450.02
794.08	39005.61
794.26	39579.04
794.44	38725.04
794.62	38684.08
794.81	39128.49
794.99	38952.37
795.17	38903.21
795.35	38770.10
795.53	38528.44
795.71	38751.66
795.89	38294.97
796.07	38081.98
796.25	38172.09
796.43	38348.21
796.61	37971.39
796.80	37809.60
796.98	38100.41
797.16	37520.84
797.34	38045.12
797.52	37715.39
797.70	37733.82
797.88	37742.02
798.06	37559.75
798.24	37699.01
798.42	37393.86
798.60	37193.16
798.78	37148.11
798.96	37494.21
799.14	36922.83
799.32	37162.44
799.51	36562.39
799.69	37019.08
799.87	36980.17
800.05	36773.33
800.23	36484.56
800.41	36441.56
800.59	36279.77
800.77	36406.74
800.95	36414.93
801.13	35909.08
801.31	36060.63
801.49	35980.76
801.67	35892.70
801.85	35864.03
802.03	35683.81
802.21	35696.10
802.39	35716.58
802.57	35757.53
802.75	35567.07
802.93	35362.28
803.11	35263.97
803.29	35042.79
803.47	35091.94
803.65	35218.92
803.83	35093.99
804.01	34969.07
804.19	34557.42
804.37	34876.91
804.55	34469.36
804.73	34809.32
804.91	34770.41
805.09	34741.74
805.27	34475.51
805.45	34838.00
805.63	34538.99
805.81	34475.51
805.99	34475.51
806.17	34450.93
806.35	34358.77
806.53	34004.47
806.71	34039.29
806.89	34170.36
807.07	33830.40
807.25	33963.51
807.43	33703.42
807.61	34012.66
807.79	33670.65
807.97	33785.34
808.15	33381.89
808.33	33226.24
808.51	33203.72
808.69	33201.67
808.87	33076.74
809.05	33039.88
809.23	32871.95
809.41	33011.21
809.59	32892.43
809.77	33134.09
809.95	32484.88
810.13	32726.54
810.31	32802.32
810.49	32620.05
810.67	32595.47
810.84	32429.59
811.02	32261.65
811.20	32411.15
811.38	32554.51
811.56	31913.50
811.74	32294.42
811.92	31909.40
812.10	32237.08
812.28	32323.09
812.46	32019.99
812.64	31997.46
812.82	31761.95
813.00	31729.18
813.18	31741.47
813.36	31788.57
813.53	31442.46
813.71	31825.43
813.89	31462.94
814.07	31508.00
814.25	31495.71
814.43	31301.15
814.61	31094.31
814.79	31295.01
814.97	31073.83
815.15	31325.73
815.33	31047.21
815.50	31008.29
815.68	30783.02
815.86	31135.27
816.04	31067.69
816.22	30817.83
816.40	30527.02
816.58	30807.59
816.76	30389.81
816.94	30475.82
817.11	30656.04
817.29	30410.29
817.47	30391.86
817.65	30154.29
817.83	30512.69
818.01	30240.31
818.19	29941.30
818.37	29830.71
818.54	29761.08
818.72	29713.98
818.90	30096.95
819.08	29896.25
819.26	29812.28
819.44	29748.79
819.62	29713.98
819.80	29613.63
819.97	29726.27
820.15	29681.21
820.33	29537.85
820.51	29713.98
820.69	28948.04
820.87	29578.81
821.05	29787.71
821.22	29201.99
821.40	29519.42
821.58	29050.44
821.76	29042.24
821.94	29032.00
822.12	29023.81
822.29	28827.21
822.47	28722.76
822.65	29048.39
822.83	28943.94
823.01	28585.55
823.19	28577.36
823.36	28487.25
823.54	28333.65
823.72	28350.03
823.90	28575.31
824.08	28073.56
824.25	28573.26
824.43	28145.23
824.61	28206.67
824.79	28563.02
824.97	28366.42
825.15	28335.70
825.32	28042.84
825.50	27981.40
825.68	28032.60
825.86	28141.14
826.04	28147.28
826.21	28075.60
826.39	28003.92
826.57	27651.67
826.75	27633.24
826.93	27588.19
827.10	27866.71
827.28	27772.50
827.46	27696.73
827.64	27367.01
827.81	27321.95
827.99	27655.77
828.17	27256.42
828.35	27031.14
828.53	27260.51
828.70	27385.44
828.88	27342.43
829.06	27571.80
829.24	27326.05
829.41	27082.34
829.59	27219.55
829.77	27092.58
829.95	27104.87
830.12	26961.51
830.30	27303.52
830.48	27018.85
830.66	26973.80
830.84	26998.37
831.01	26705.51
831.19	26695.27
831.37	26666.60
831.55	26719.85
831.72	26603.11
831.90	26650.22
832.08	26846.82
832.25	26654.31
832.43	26480.24
832.61	26502.76
832.79	26470.00
832.96	26441.32
833.14	26533.48
833.32	26515.05
833.50	26365.55
833.67	26375.79
833.85	26324.59
834.03	25884.28
834.20	26547.82
834.38	26205.81
834.56	26410.60
834.74	26191.47
834.91	25831.03
835.09	26068.59
835.27	25863.80
835.44	25886.32
835.62	25665.14
835.80	25742.97
835.98	26019.44
836.15	25796.21
836.33	25816.69
836.51	25931.38
836.68	25630.33
836.86	25364.09
837.04	25611.90
837.21	25620.09
837.39	25765.49
837.57	25491.07
837.75	25394.81
837.92	25106.05
838.10	25214.59
838.28	24897.16
838.45	25147.01
838.63	25140.86
838.81	25212.54
838.98	25267.84
839.16	25069.19
839.34	25198.21
839.51	25060.99
839.69	24809.09
839.87	24606.34
840.04	25243.26
840.22	24815.24
840.40	24682.12
840.57	24626.82
840.75	25108.10
840.93	24532.62
841.10	24757.89
841.28	24997.51
841.46	24835.72
841.63	24868.48
841.81	24290.96
841.98	24635.02
842.16	24487.56
842.34	24385.16
842.51	24317.58
842.69	24497.80
842.87	24293.01
843.04	24501.90
843.22	23885.46
843.40	24342.16
843.57	24284.81
843.75	24682.12
843.92	24098.45
844.10	24206.99
844.28	24151.70
844.45	24241.81
844.63	23879.32
844.81	24010.39
844.98	24077.97
845.16	23824.02
845.33	24016.53
845.51	24163.98
845.69	23854.74
845.86	23907.99
846.04	23695.00
846.21	23770.77
846.39	23695.00
846.57	23838.36
846.74	23541.40
846.92	23477.91
847.09	23418.52
847.27	23256.73
847.45	23672.47
847.62	23672.47
847.80	23697.05
847.97	23277.21
848.15	23379.61
848.32	22941.35
848.50	23230.11
848.68	23154.33
848.85	23350.94
849.03	22812.32
849.20	22986.40
849.38	23078.56
849.56	23023.26
849.73	23174.81
849.91	23119.52
850.08	23185.05
850.26	22744.74
850.43	22787.75
850.61	22967.97
850.78	22865.57
850.96	22828.71
851.14	22841.00
851.31	22849.19
851.49	22722.21
851.66	22881.95
851.84	22775.46
852.01	23080.61
852.19	22765.22
852.36	22638.25
852.54	22697.64
852.71	22693.54
852.89	22615.72
853.07	22505.13
853.24	22515.37
853.42	22380.20
853.59	22468.27
853.77	22533.80
853.94	22464.17
854.12	22507.18
854.29	22255.28
854.47	22539.94
854.64	22412.97
854.82	22154.93
854.99	22245.04
855.17	21776.05
855.34	21933.75
855.52	22435.50
855.69	22242.99
855.87	21802.68
856.04	21761.72
856.22	22259.37
856.39	21817.01
856.57	21833.39
856.74	21925.55
856.92	22046.38
857.09	21520.06
857.27	21823.16
857.44	22083.25
857.62	21708.47
857.79	21778.10
857.97	21628.60
858.14	21790.39
858.32	21866.16
858.49	21694.13
858.67	21546.68
858.84	21411.51
859.02	21745.33
859.19	21722.80
859.37	21368.51
859.54	21518.01
859.72	21487.29
859.89	21544.63
860.06	21415.61
860.24	21096.13
860.41	21532.34
860.59	21147.33
860.76	21284.54
860.94	20993.73
861.11	21186.24
861.29	21104.32
861.46	21092.03
861.64	20829.89
861.81	20981.44
861.98	21087.93
862.16	21126.85
862.33	20852.42
862.51	20750.02
862.68	21061.31
862.86	20917.95
863.03	21034.69
863.21	20926.14
863.38	20975.30
863.55	20684.48
863.73	20831.94
863.90	20666.05
864.08	20651.72
864.25	20750.02
864.43	20606.66
864.60	20909.76
864.77	20672.20
864.95	20860.61
865.12	20479.69
865.30	20627.14
865.47	20240.08
865.64	20586.18
865.82	20528.84
865.99	20608.71
866.17	20498.12
866.34	20424.39
866.51	19943.12
866.69	20491.98
866.86	20125.39
867.04	20418.25
867.21	20276.94
867.38	20289.23
867.56	20356.81
867.73	19865.30
867.91	19912.40
868.08	20049.61
868.25	20086.48
868.43	20119.24
868.60	19910.35
868.78	19433.18
868.95	20055.76
869.12	19853.01
869.30	19826.39
869.47	19853.01
869.64	19654.36
869.82	19764.95
869.99	19896.02
870.16	19967.70
870.34	19533.53
870.51	19605.20
870.69	19457.75
870.86	19115.74
871.03	19601.11
871.21	19343.06
871.38	19721.94
871.55	19355.35
871.73	19242.71
871.90	19441.37
872.07	19205.85
872.25	19242.71
872.42	19093.21
872.59	19173.08
872.77	19324.63
872.94	19064.54
873.11	18900.70
873.29	18994.91
873.46	19009.25
873.63	18953.95
873.81	18982.62
873.98	18792.16
874.15	18894.56
874.33	18677.48
874.50	18648.80
874.67	18577.12
874.85	18654.95
875.02	18605.80
875.19	18665.19
875.37	18525.93
875.54	18417.38
875.71	18747.11
875.88	18384.62
876.06	18327.27
876.23	18198.25
876.40	18495.21
876.58	18452.20
876.75	18319.08
876.92	18546.40
877.10	18564.84
877.27	18077.42
877.44	18054.89
877.61	18116.33
877.79	18056.94
877.96	18212.59
878.13	18276.07
878.31	18038.51
878.48	17999.60
878.65	18079.47
878.82	17727.22
879.00	17749.75
879.17	17690.35
879.34	17649.39
879.51	17532.66
879.69	17635.06
879.86	17477.37
880.03	17917.68
880.21	17608.44
880.38	17600.24
880.55	17839.86
880.72	17557.24
880.90	17755.89
881.07	17540.85
881.24	17651.44
881.41	17245.94
881.59	17342.20
881.76	17401.59
881.93	17467.13
882.10	17276.66
882.28	17123.07
882.45	17334.01
882.62	17272.57
882.79	17383.16
882.96	16822.02
883.14	17245.94
883.31	17229.56
883.48	17073.92
883.65	17223.42
883.83	17137.40
884.00	17092.35
884.17	17260.28
884.34	17168.12
884.51	17057.53
884.69	17092.35
884.86	17039.10
885.03	17149.69
885.20	16942.85
885.38	16994.04
885.55	16881.41
885.72	16930.56
885.89	16770.82
886.06	17088.25
886.24	16924.41
886.41	16639.75
886.58	16948.99
886.75	16975.61
886.92	16539.40
887.10	16819.97
887.27	16850.69
887.44	16803.58
887.61	16858.88
887.78	16858.88
887.95	16715.52
888.13	16516.87
888.30	16553.73
888.47	16430.85
888.64	16684.80
888.81	16439.05
888.99	16307.98
889.16	15970.06
889.33	16457.48
889.50	16441.09
889.67	16277.26
889.84	16105.23
890.01	16459.52
890.19	16621.31
890.36	16348.93
890.53	16107.27
890.70	16119.56
890.87	15961.87
891.04	16172.81
891.22	16135.95
891.39	15927.05
891.56	16033.55
891.73	16037.64
891.90	15914.77
892.07	15785.74
892.24	15951.63
892.42	15816.46
892.59	15648.53
892.76	15763.22
892.93	15671.06
893.10	15847.18
893.27	15826.70
893.44	15560.47
893.61	15525.65
893.79	15814.41
893.96	15515.41
894.13	15761.17
894.30	15736.59
894.47	15576.85
894.64	15826.70
894.81	15734.54
894.98	15841.04
895.15	15695.63
895.33	15617.81
895.50	15552.27
895.67	15664.91
895.84	15615.76
896.01	15499.03
896.18	15546.13
896.35	15800.08
896.52	15580.95
896.69	15464.21
896.86	15695.63
897.04	15552.27
897.21	15470.36
897.38	15599.38
897.55	15656.72
897.72	15585.04
897.89	15515.41
898.06	15574.80
898.23	15408.92
898.40	15701.78
898.57	15611.67
898.74	15744.78
898.91	15539.99
899.08	15566.61
899.26	15331.09
899.43	15681.30
899.60	15550.23
899.77	15433.49
899.94	15441.68
900.11	15378.20
900.28	15406.87
900.45	15542.03
900.62	15349.53
900.79	15527.70
900.96	15240.98
901.13	15206.17
901.30	15566.61
901.47	15167.26
901.64	15408.92
901.81	15384.34
901.98	15167.26
902.15	15556.37
902.32	15347.48
902.49	15533.84
902.66	15501.08
902.83	15638.29
903.01	15277.85
903.18	15523.60
903.35	15521.56
903.52	15367.96
903.69	15380.25
903.86	15281.94
904.03	15408.92
904.20	15484.69
904.37	15732.50
904.54	15437.59
904.71	15482.64
904.88	15357.72
905.05	15345.43
905.22	15370.01
905.39	15349.53
905.56	15124.25
905.73	15374.10
905.90	15316.76
906.07	15511.32
906.24	15281.94
906.41	15261.46
906.58	15083.29
906.75	15378.20
906.92	15161.11
907.09	15279.89
907.26	15357.72
907.43	15179.54
907.60	15265.56
907.77	15236.89
907.93	15417.11
908.10	15296.28
908.27	15382.29
908.44	15263.51
908.61	15124.25
908.78	15071.00
908.95	15394.58
909.12	14806.81
909.29	15169.30
909.46	15275.80
909.63	15324.95
909.80	15093.53
909.97	15197.98
910.14	15136.54
910.31	14978.84
910.48	15046.43
910.65	15105.82
910.82	14946.08
910.99	15085.34
911.16	14921.50
911.33	14964.51
911.50	15001.37
911.66	14905.12
911.83	15056.67
912.00	14991.13
912.17	14802.72
912.34	14714.66
912.51	14819.10
912.68	14651.17
912.85	14710.56
913.02	14602.02
913.19	14708.51
913.36	14665.50
913.53	14739.23
913.70	14497.57
913.86	14901.02
914.03	14534.43
914.20	14659.36
914.37	14706.46
914.54	14583.59
914.71	14602.02
914.88	14389.03
915.05	14425.89
915.22	14204.71
915.39	14296.87
915.55	14296.87
915.72	14475.04
915.89	14350.12
916.06	14171.94
916.23	14231.33
916.40	14063.40
916.57	13901.61
916.74	13979.43
916.91	13975.34
917.07	13930.28
917.24	13995.82
917.41	13838.12
917.58	14001.96
917.75	13788.97
917.92	13913.90
918.09	13805.36
918.26	13956.91
918.42	13967.15
918.59	13713.20
918.76	13623.09
918.93	13645.62
919.10	13471.54
919.27	13379.38
919.44	13682.48
919.60	13625.14
919.77	13561.65
919.94	13489.97
920.11	13332.28
920.28	13553.46
920.45	13203.25
920.61	13434.68
920.78	13291.32
920.95	13186.87
921.12	13102.90
921.29	12914.49
921.46	12861.24
921.62	12820.28
921.79	13051.70
921.96	12957.50
922.13	12748.61
922.30	12683.07
922.47	12588.86
922.63	12613.44
922.80	12646.21
922.97	12455.75
923.14	12433.22
923.31	12486.47
923.47	12310.34
923.64	12738.37
923.81	12320.58
923.98	12547.90
924.15	12263.24
924.32	12173.13
924.48	12162.89
924.65	12296.00
924.82	12171.08
924.99	12072.78
925.15	11827.02
925.32	12185.41
925.49	11861.84
925.66	11738.96
925.83	11822.92
925.99	11816.78
926.16	11886.41
926.33	11718.48
926.50	11519.82
926.67	11642.70
926.83	11528.02
927.00	11562.83
927.17	11480.91
927.34	11306.84
927.50	11476.82
927.67	11421.52
927.84	11310.93
928.01	11177.81
928.17	11157.33
928.34	11241.30
928.51	11026.26
928.68	10973.02
928.84	11134.81
929.01	10987.35
929.18	10891.10
929.35	10854.23
929.51	10911.58
929.68	10846.04
929.85	10837.85
930.02	10727.26
930.18	10577.76
930.35	10436.45
930.52	10538.85
930.69	10479.46
930.85	10725.21
931.02	10336.10
931.19	10446.69
931.36	10458.98
931.52	10217.32
931.69	10350.43
931.86	10198.88
932.02	10112.87
932.19	10311.52
932.36	10061.67
932.53	10010.47
932.69	9963.37
932.86	10198.88
933.03	9985.90
933.19	9828.20
933.36	9875.31
933.53	9865.07
933.70	9729.90
933.86	9725.80
934.03	9662.32
934.20	9453.42
934.36	9500.53
934.53	9463.66
934.70	9357.17
934.86	9432.94
935.03	9013.11
935.20	9158.52
935.36	9156.47
935.53	8966.01
935.70	8937.34
935.86	8972.15
936.03	8793.98
936.20	8783.74
936.36	8646.52
936.53	8603.52
936.70	8494.97
936.86	8652.67
937.03	8478.59
937.20	8257.41
937.36	8437.63
937.53	8056.71
937.70	7964.55
937.86	7901.06
938.03	7878.54
938.20	7948.17
938.36	7538.57
938.53	7829.38
938.70	7360.40
938.86	7577.48
939.03	7225.23
939.20	7241.62
939.36	7276.43
939.53	7307.15
939.70	7397.26
939.86	6840.22
940.03	6903.70
940.19	6721.43
940.36	6737.82
940.53	6682.52
940.69	6604.70
940.86	6909.85
941.03	6483.87
941.19	6565.79
941.36	6420.38
941.52	6360.99
941.69	6227.87
941.86	6217.63
942.02	6082.47
942.19	6215.59
942.35	5988.26
942.52	6127.52
942.69	5975.97
942.85	5941.16
943.02	5795.75
943.18	5978.02
943.35	5705.64
943.52	5805.99
943.68	5625.77
943.85	5724.07
944.01	5480.36
944.18	5676.97
944.35	5570.48
944.51	5339.05
944.68	5486.51
944.84	5506.99
945.01	5437.36
945.17	5474.22
945.34	5451.69
945.51	5478.32
945.67	5384.11
945.84	5250.99
946.00	5320.62
946.17	5398.45
946.33	5275.57
946.50	5449.64
946.67	5328.81
946.83	5427.12
947.00	5334.96
947.16	5294.00
947.33	5351.34
947.49	5250.99
947.66	4980.66
947.82	5318.57
947.99	5076.91
948.16	5244.85
948.32	5201.84
948.49	5298.10
948.65	5300.14
948.82	5207.98
948.98	5351.34
949.15	5207.98
949.31	5353.39
949.48	5275.57
949.64	5191.60
949.81	5294.00
949.97	5269.42
950.14	5275.57
950.30	5224.37
950.47	5255.09
950.63	5367.73
950.80	5373.87
950.96	5361.58
951.13	5296.05
951.30	5322.67
951.46	5412.78
951.63	5402.54
951.79	5253.04
951.96	5410.73
952.12	5343.15
952.29	5457.84
952.45	5345.20
952.62	5388.21
952.78	5330.86
952.94	5334.96
953.11	5197.74
953.27	5228.46
953.44	5425.07
953.60	5310.38
953.77	5453.74
953.93	5341.10
954.10	5380.01
954.26	5431.21
954.43	5291.95
954.59	5392.30
954.76	5646.25
954.92	5355.44
955.09	5406.64
955.25	5312.43
955.42	5228.46
955.58	5435.31
955.75	5459.88
955.91	5423.02
956.07	5466.03
956.24	5418.93
956.40	5361.58
956.57	5490.60
956.73	5384.11
956.90	5392.30
957.06	5355.44
957.23	5431.21
957.39	5490.60
957.56	5574.57
957.72	5375.92
957.88	5320.62
958.05	5470.12
958.21	5480.36
958.38	5517.23
958.54	5253.04
958.71	5539.76
958.87	5398.45
959.03	5412.78
959.20	5490.60
959.36	5410.73
959.53	5404.59
959.69	5326.77
959.85	5484.46
960.02	5304.24
960.18	5377.97
960.35	5353.39
960.51	5509.04
960.68	5283.76
960.84	5271.47
961.00	5386.16
961.17	5334.96
961.33	5412.78
961.50	5429.17
961.66	5334.96
961.82	5441.45
961.99	5363.63
962.15	5339.05
962.31	5402.54
962.48	5400.49
962.64	5506.99
962.81	5472.17
962.97	5373.87
963.13	5427.12
963.30	5357.49
963.46	5259.18
963.62	5345.20
963.79	5326.77
963.95	5355.44
964.12	5341.10
964.28	5224.37
964.44	5240.75
964.61	5353.39
964.77	5195.70
964.93	5332.91
965.10	5373.87
965.26	5216.18
965.42	5302.19
965.59	5253.04
965.75	5164.98
965.92	5320.62
966.08	5304.24
966.24	5269.42
966.41	5246.90
966.57	5263.28
966.73	5312.43
966.90	5279.66
967.06	5240.75
967.22	5203.89
967.39	5183.41
967.55	5197.74
967.71	5175.22
967.88	5167.03
968.04	5099.44
968.20	5162.93
968.37	5081.01
968.53	5132.21
968.69	5064.63
968.85	5091.25
969.02	5132.21
969.18	5156.79
969.34	5130.16
969.51	5146.55
969.67	4960.18
969.83	4951.99
970.00	5101.49
970.16	5140.40
970.32	4968.37
970.48	4990.90
970.65	5066.67
970.81	4980.66
970.97	5121.97
971.14	4915.12
971.30	5103.54
971.46	4790.20
971.63	5160.88
971.79	5031.86
971.95	4986.80
972.11	4882.36
972.28	4884.41
972.44	5033.91
972.60	5021.62
972.76	4831.16
972.93	4882.36
973.09	4968.37
973.25	4853.69
973.42	4917.17
973.58	4894.65
973.74	4788.15
973.90	4849.59
974.07	4773.82
974.23	4960.18
974.39	4745.14
974.55	4849.59
974.72	4913.08
974.88	4687.80
975.04	4779.96
975.20	4712.38
975.37	4769.72
975.53	4769.72
975.69	4798.39
975.85	4708.28
976.01	4749.24
976.18	4792.25
976.34	4714.42
976.50	4798.39
976.66	4665.27
976.83	4650.94
976.99	4521.92
977.15	4730.81
977.31	4554.68
977.47	4646.84
977.64	4665.27
977.80	4503.48
977.96	4642.75
978.12	4589.50
978.29	4536.25
978.45	4472.76
978.61	4485.05
978.77	4603.83
978.93	4493.24
979.10	4536.25
979.26	4515.77
979.42	4523.96
979.58	4417.47
979.74	4302.78
979.91	4569.02
980.07	4392.89
980.23	4468.67
980.39	4386.75
980.55	4446.14
980.71	4335.55
980.88	4343.74
981.04	4349.89
981.20	4351.93
981.36	4313.02
981.52	4392.89
981.68	4132.80
981.85	4343.74
982.01	4294.59
982.17	4313.02
982.33	4210.62
982.49	4327.36
982.65	4245.44
982.82	4421.56
982.98	4403.13
983.14	4286.40
983.30	4319.17
983.46	4270.01
983.62	4288.45
983.79	4212.67
983.95	4155.33
984.11	4200.38
984.27	4179.90
984.43	4206.53
984.59	4087.75
984.75	4147.14
984.91	4077.51
985.08	4235.20
985.24	4054.98
985.40	4057.03
985.56	4034.50
985.72	4175.81
985.88	4136.90
986.04	4132.80
986.20	4026.31
986.37	4106.18
986.53	3983.30
986.69	4061.12
986.85	3966.92
987.01	4014.02
987.17	4046.79
987.33	3948.48
987.49	3907.52
987.65	4034.50
987.82	4036.55
987.98	3923.91
988.14	3983.30
988.30	4089.79
988.46	3995.59
988.62	4007.87
988.78	3928.00
988.94	3925.96
989.10	3788.74
989.26	3807.17
989.42	3835.85
989.59	3805.13
989.75	3813.32
989.91	3846.09
990.07	3729.35
990.23	3780.55
990.39	3850.18
990.55	3850.18
990.71	3626.95
990.87	3760.07
991.03	3825.61
991.19	3665.86
991.35	3706.82
991.51	3727.30
991.67	3786.69
991.83	3768.26
992.00	3721.16
992.16	3798.98
992.32	3817.41
992.48	3690.44
992.64	3676.10
992.80	3782.60
992.96	3672.01
993.12	3680.20
993.28	3731.40
993.44	3686.34
993.60	3624.90
993.76	3684.30
993.92	3633.10
994.08	3620.81
994.24	3528.65
994.40	3721.16
994.56	3524.55
994.72	3485.64
994.88	3575.75
995.04	3594.19
995.20	3735.50
995.36	3547.08
995.52	3575.75
995.68	3450.83
995.84	3459.02
996.00	3629.00
996.16	3569.61
996.32	3360.72
996.48	3442.64
996.64	3596.23
996.80	3383.24
996.96	3508.17
997.12	3499.98
997.28	3393.48
997.44	3342.28
997.60	3538.89
997.76	3358.67
997.92	3338.19
998.08	3420.11
998.24	3250.13
998.40	3344.33
998.56	3358.67
998.72	3186.64
998.88	3299.28
999.04	3297.23
999.20	3360.72
999.36	3332.05
999.52	3446.73
999.68	3346.38
999.84	3354.57
1000.00	3418.06
1000.16	3346.38
1000.32	3293.13
1000.48	3354.57
1000.64	3190.74
1000.80	3174.35
1000.95	3170.26
1001.11	3231.69
1001.27	3145.68
1001.43	3188.69
1001.59	3172.30
1001.75	3137.49
1001.91	3104.72
1002.07	3090.38
1002.23	3129.30
1002.39	3151.82
1002.55	3088.34
1002.71	3071.95
1002.87	3045.33
1003.03	2912.21
1003.19	3016.66
1003.34	3209.17
1003.50	3174.35
1003.66	3088.34
1003.82	3084.24
1003.98	3055.57
1004.14	3055.57
1004.30	3000.27
1004.46	3090.38
1004.62	3160.02
1004.78	2973.65
1004.94	3067.86
1005.09	3137.49
1005.25	3037.14
1005.41	3069.91
1005.57	2949.08
1005.73	2940.88
1005.89	2942.93
1006.05	3076.05
1006.21	2936.79
1006.37	2887.64
1006.52	2867.16
1006.68	2811.86
1006.84	3020.75
1007.00	2944.98
1007.16	2832.34
1007.32	2885.59
1007.48	2926.55
1007.64	2930.64
1007.79	2920.40
1007.95	2858.96
1008.11	2897.88
1008.27	2850.77
1008.43	2924.50
1008.59	2807.77
1008.75	2885.59
1008.91	2904.02
1009.06	2846.68
1009.22	2877.40
1009.38	2863.06
1009.54	2815.96
1009.70	2695.13
1009.86	2758.61
1010.01	2873.30
1010.17	2729.94
1010.33	2879.44
1010.49	2842.58
1010.65	2858.96
1010.81	2691.03
1010.96	2670.55
1011.12	2781.14
1011.28	2693.08
1011.44	2738.13
1011.60	2703.32
1011.76	2684.89
1011.91	2727.89
1012.07	2674.65
1012.23	2652.12
1012.39	2621.40
1012.55	2660.31
1012.71	2770.90
1012.86	2600.92
1013.02	2686.94
1013.18	2682.84
1013.34	2705.37
1013.50	2693.08
1013.65	2621.40
1013.81	2660.31
1013.97	2535.39
1014.13	2629.59
1014.29	2637.78
1014.44	2594.78
1014.60	2596.82
1014.76	2588.63
1014.92	2529.24
1015.07	2553.82
1015.23	2588.63
1015.39	2562.01
1015.55	2441.18
1015.71	2523.10
1015.86	2480.09
1016.02	2469.85
1016.18	2451.42
1016.34	2592.73
1016.49	2590.68
1016.65	2545.63
1016.81	2465.75
1016.97	2555.86
1017.12	2510.81
1017.28	2402.27
1017.44	2412.51
1017.60	2486.23
1017.75	2455.51
1017.91	2459.61
1018.07	2469.85
1018.23	2504.67
1018.38	2363.36
1018.54	2414.56
1018.70	2451.42
1018.86	2432.99
1019.01	2408.41
1019.17	2344.92
1019.33	2529.24
1019.49	2412.51
1019.64	2379.74
1019.80	2404.32
1019.96	2373.60
1020.12	2277.34
1020.27	2418.65
1020.43	2357.21
1020.59	2404.32
1020.74	2310.11
1020.90	2379.74
1021.06	2373.60
1021.22	2330.59
1021.37	2367.45
1021.53	2244.57
1021.69	2283.49
1021.84	2271.20
1022.00	2287.58
1022.16	2228.19
1022.31	2316.25
1022.47	2273.25
1022.63	2291.68
1022.79	2258.91
1022.94	2220.00
1023.10	2357.21
1023.26	2283.49
1023.41	2193.37
1023.57	2197.47
1023.73	2297.82
1023.88	2260.96
1024.04	2246.62
1024.20	2217.95
1024.35	2301.92
1024.51	2248.67
1024.67	2236.38
1024.82	2265.05
1024.98	2189.28
1025.14	2197.47
1025.29	2160.61
1025.45	2260.96
1025.61	2181.09
1025.76	2154.46
1025.92	2160.61
1026.08	2166.75
1026.23	2256.86
1026.39	2174.94
1026.55	2158.56
1026.70	2125.79
1026.86	2164.70
1027.02	2142.18
1027.17	2113.50
1027.33	2181.09
1027.48	2090.98
1027.64	1986.53
1027.80	2123.74
1027.95	2144.22
1028.11	2037.73
1028.27	2095.07
1028.42	2154.46
1028.58	2056.16
1028.73	2078.69
1028.89	2019.30
1029.05	2197.47
1029.20	2084.83
>>>>>End Processed Spectral Data<<<<<
