SpectraSuite Data File
++++++++++++++++++++++++++++++++++++
Date: Fri Jun 02 14:47:59 CEST 2017
User: INFO_000
Dark Spectrum Present: No
Reference Spectrum Present: No
Number of Sampled Component Spectra: 1
Spectrometers: USB4H00879
Integration Time (usec): 80000 (USB4H00879)
Spectra Averaged: 1 (USB4H00879)
Boxcar Smoothing: 0 (USB4H00879)
Correct for Electrical Dark: No (USB4H00879)
Strobe/Lamp Enabled: No (USB4H00879)
Correct for Detector Non-linearity: No (USB4H00879)
Correct for Stray Light: No (USB4H00879)
Number of Pixels in Processed Spectrum: 3648
>>>>>Begin Processed Spectral Data<<<<<
345.13	1286.12
345.34	1286.12
345.56	1286.12
345.78	1318.89
345.99	1196.01
346.21	1716.20
346.42	1695.72
346.64	1744.87
346.86	1794.02
347.07	1650.66
347.29	1714.15
347.50	1624.04
347.72	1652.71
347.94	1751.01
348.15	1599.46
348.37	1683.43
348.59	1736.68
348.80	1646.57
349.02	1798.12
349.23	1861.60
349.45	1834.98
349.67	1961.95
349.88	1826.79
350.10	1968.10
350.31	1816.55
350.53	1740.77
350.75	1968.10
350.96	1726.44
351.18	1826.79
351.39	1929.19
351.61	1804.26
351.82	1880.04
352.04	1880.04
352.26	1830.88
352.47	1869.80
352.69	1847.27
352.90	1757.16
353.12	1871.84
353.34	1853.41
353.55	1908.71
353.77	1822.69
353.98	1863.65
354.20	1849.32
354.41	1929.19
354.63	1880.04
354.85	2047.97
355.06	1857.51
355.28	1818.60
355.49	1839.08
355.71	1916.90
355.92	1822.69
356.14	1927.14
356.35	1882.08
356.57	1900.52
356.79	1929.19
357.00	1814.50
357.22	1984.48
357.43	1873.89
357.65	1875.94
357.86	1886.18
358.08	1880.04
358.29	2015.20
358.51	1877.99
358.72	1937.38
358.94	1880.04
359.16	1961.95
359.37	1949.67
359.59	2105.31
359.80	1961.95
360.02	2009.06
360.23	1925.09
360.45	1871.84
360.66	1927.14
360.88	1910.75
361.09	1865.70
361.31	1970.15
361.52	2019.30
361.74	2064.35
361.95	2185.18
362.17	1949.67
362.38	2090.98
362.60	2035.68
362.81	1904.61
363.03	1920.99
363.24	1937.38
363.46	1986.53
363.67	2093.02
363.89	1994.72
364.10	2072.54
364.32	2027.49
364.53	2056.16
364.75	1837.03
364.96	2070.50
365.18	2101.22
365.39	2058.21
365.61	1998.82
365.82	2060.26
366.04	1953.76
366.25	1912.80
366.47	2009.06
366.68	2115.55
366.90	1976.29
367.11	2033.63
367.33	2084.83
367.54	2088.93
367.76	2052.06
367.97	2119.65
368.19	2039.78
368.40	2052.06
368.62	1925.09
368.83	2021.35
369.05	2142.18
369.26	1935.33
369.48	2007.01
369.69	1937.38
369.91	2115.55
370.12	2039.78
370.33	2052.06
370.55	1984.48
370.76	2037.73
370.98	2101.22
371.19	2060.26
371.41	2035.68
371.62	2045.92
371.84	1951.71
372.05	2131.94
372.27	2064.35
372.48	2066.40
372.69	1990.63
372.91	2144.22
373.12	2226.14
373.34	2117.60
373.55	2127.84
373.77	2084.83
373.98	2125.79
374.20	2127.84
374.41	2144.22
374.62	2164.70
374.84	2183.13
375.05	2156.51
375.27	2183.13
375.48	2103.26
375.70	2189.28
375.91	2080.74
376.12	2256.86
376.34	2162.66
376.55	2129.89
376.77	2170.85
376.98	2060.26
377.19	2047.97
377.41	2103.26
377.62	2133.98
377.84	2250.72
378.05	2340.83
378.27	2195.42
378.48	2408.41
378.69	2322.40
378.91	2248.67
379.12	2160.61
379.34	2201.57
379.55	2349.02
379.76	2172.89
379.98	2273.25
380.19	2176.99
380.41	2250.72
380.62	2324.44
380.83	2265.05
381.05	2232.29
381.26	2359.26
381.47	2273.25
381.69	2234.33
381.90	2377.69
382.12	2201.57
382.33	2338.78
382.54	2271.20
382.76	2308.06
382.97	2256.86
383.19	2203.61
383.40	2308.06
383.61	2297.82
383.83	2275.29
384.04	2328.54
384.25	2340.83
384.47	2330.59
384.68	2437.08
384.89	2277.34
385.11	2312.16
385.32	2336.73
385.54	2330.59
385.75	2326.49
385.96	2396.12
386.18	2437.08
386.39	2379.74
386.60	2459.61
386.82	2428.89
387.03	2412.51
387.24	2490.33
387.46	2461.66
387.67	2471.90
387.88	2484.19
388.10	2400.22
388.31	2527.19
388.52	2463.71
388.74	2570.20
388.95	2482.14
389.16	2525.15
389.38	2541.53
389.59	2521.05
389.80	2568.15
390.02	2564.06
390.23	2650.07
390.44	2537.43
390.66	2521.05
390.87	2441.18
391.08	2570.20
391.30	2656.22
391.51	2645.98
391.72	2639.83
391.94	2633.69
392.15	2617.30
392.36	2551.77
392.58	2631.64
392.79	2668.50
393.00	2699.22
393.22	2715.61
393.43	2760.66
393.64	2762.71
393.85	2758.61
394.07	2748.37
394.28	2680.79
394.49	2801.62
394.71	2713.56
394.92	2842.58
395.13	2740.18
395.35	2699.22
395.56	2754.52
395.77	2740.18
395.98	2734.04
396.20	2793.43
396.41	2791.38
396.62	2822.10
396.84	2869.20
397.05	2736.09
397.26	2813.91
397.47	2869.20
397.69	2781.14
397.90	2957.27
398.11	2912.21
398.32	2895.83
398.54	2844.63
398.75	2834.39
398.96	2922.45
399.18	2975.70
399.39	2957.27
399.60	3010.51
399.81	2953.17
400.03	3000.27
400.24	3172.30
400.45	2887.64
400.66	3026.90
400.88	3043.28
401.09	3239.89
401.30	3057.62
401.51	3067.86
401.73	3194.83
401.94	3119.06
402.15	2983.89
402.36	3057.62
402.58	3225.55
402.79	3108.82
403.00	3051.47
403.21	3196.88
403.43	3284.94
403.64	3184.59
403.85	2934.74
404.06	3291.09
404.27	3059.67
404.49	3217.36
404.70	3147.73
404.91	3383.24
405.12	3278.80
405.34	3256.27
405.55	3454.92
405.76	3110.86
405.97	3141.58
406.19	3274.70
406.40	3239.89
406.61	3313.61
406.82	3258.32
407.03	3256.27
407.25	3387.34
407.46	3286.99
407.67	3420.11
407.88	3401.68
408.09	3313.61
408.31	3286.99
408.52	3325.90
408.73	3370.96
408.94	3409.87
409.15	3440.59
409.37	3516.36
409.58	3426.25
409.79	3454.92
410.00	3530.70
410.21	3514.31
410.43	3522.51
410.64	3405.77
410.85	3520.46
411.06	3467.21
411.27	3633.10
411.48	3641.29
411.70	3510.22
411.91	3667.91
412.12	3686.34
412.33	3674.06
412.54	3545.03
412.76	3588.04
412.97	3657.67
413.18	3420.11
413.39	3528.65
413.60	3663.82
413.81	3766.21
414.03	3723.21
414.24	3545.03
414.45	3839.94
414.66	3536.84
414.87	3721.16
415.08	3682.25
415.30	3678.15
415.51	3784.65
415.72	3672.01
415.93	3676.10
416.14	3733.45
416.35	3790.79
416.56	3735.50
416.78	3764.17
416.99	3866.56
417.20	3895.24
417.41	3901.38
417.62	3796.93
417.83	3866.56
418.04	3801.03
418.26	3968.96
418.47	3786.69
418.68	4042.69
418.89	3932.10
419.10	4034.50
419.31	4124.61
419.52	3930.05
419.73	3948.48
419.95	4108.23
420.16	3977.16
420.37	4030.40
420.58	4177.86
420.79	3805.13
421.00	4067.27
421.21	4077.51
421.42	4005.83
421.63	4001.73
421.85	4075.46
422.06	4204.48
422.27	4153.28
422.48	4130.75
422.69	4243.39
422.90	4204.48
423.11	4186.05
423.32	4257.73
423.53	4321.21
423.75	4300.73
423.96	4411.32
424.17	4300.73
424.38	4571.07
424.59	4448.19
424.80	4550.59
425.01	4423.61
425.22	4257.73
425.43	4456.38
425.64	4681.66
425.85	4612.03
426.06	4423.61
426.28	4466.62
426.49	4501.44
426.70	4386.75
426.91	4538.30
427.12	4646.84
427.33	4618.17
427.54	4495.29
427.75	4712.38
427.96	4790.20
428.17	4771.77
428.38	4906.93
428.59	4839.35
428.80	4720.57
429.01	4708.28
429.23	4861.88
429.44	5013.43
429.65	4870.07
429.86	4933.56
430.07	4878.26
430.28	4775.86
430.49	4988.85
430.70	5091.25
430.91	4951.99
431.12	4884.41
431.33	5142.45
431.54	5158.83
431.75	5058.48
431.96	5068.72
432.17	5126.07
432.38	5109.68
432.59	5386.16
432.80	5304.24
433.01	5330.86
433.22	5337.01
433.43	5195.70
433.64	5332.91
433.85	5214.13
434.06	5263.28
434.27	5277.62
434.49	5449.64
434.70	5494.70
434.91	5353.39
435.12	5478.32
435.33	5435.31
435.54	5429.17
435.75	5365.68
435.96	5498.80
436.17	5398.45
436.38	5562.28
436.59	5572.52
436.80	5468.08
437.01	5740.46
437.22	5724.07
437.43	5617.58
437.64	5404.59
437.85	5709.74
438.06	5724.07
438.27	5687.21
438.48	5609.39
438.69	5892.01
438.90	5738.41
439.11	5640.11
439.32	5857.19
439.53	5756.84
439.74	5836.71
439.95	5781.42
440.16	5912.49
440.37	5873.57
440.57	5803.94
440.78	5846.95
440.99	6039.46
441.20	5879.72
441.41	5795.75
441.62	5932.97
441.83	5873.57
442.04	6074.28
442.25	6094.76
442.46	5945.25
442.67	6217.63
442.88	6492.06
443.09	5986.21
443.30	6016.93
443.51	6078.37
443.72	6315.94
443.93	6125.47
444.14	6358.94
444.35	5973.92
444.56	6219.68
444.77	6170.53
444.98	6320.03
445.19	6311.84
445.40	6363.04
445.61	6315.94
445.81	6453.15
446.02	6479.77
446.23	6252.45
446.44	6324.13
446.65	6481.82
446.86	6434.72
447.07	6348.70
447.28	6688.67
447.49	6676.38
447.70	6295.46
447.91	6737.82
448.12	6678.43
448.33	6721.43
448.54	6569.88
448.74	6506.40
448.95	6752.15
449.16	6518.68
449.37	6971.29
449.58	6573.98
449.79	7012.24
450.00	6670.23
450.21	6838.17
450.42	7069.59
450.63	6989.72
450.84	6944.66
451.05	7155.60
451.25	6952.85
451.46	6893.46
451.67	7045.01
451.88	7188.37
452.09	7094.16
452.30	6936.47
452.51	7122.84
452.72	7266.19
452.93	7243.67
453.13	7010.20
453.34	7171.99
453.55	7350.16
453.76	7294.86
453.97	7600.01
454.18	7282.58
454.39	7495.57
454.60	7251.86
454.81	7477.13
455.01	7702.41
455.22	7208.85
455.43	7466.89
455.64	7772.04
455.85	7802.76
456.06	7774.09
456.27	7806.86
456.48	7733.13
456.68	7794.57
456.89	7731.08
457.10	7800.71
457.31	7667.60
457.52	7909.26
457.73	7931.78
457.94	8193.92
458.14	7829.38
458.35	8161.16
458.56	8210.31
458.77	8132.48
458.98	8429.44
459.19	8255.36
459.39	8368.00
459.60	8470.40
459.81	8193.92
460.02	8349.57
460.23	8425.34
460.44	8402.82
460.65	8722.30
460.85	8638.33
461.06	8949.62
461.27	8415.10
461.48	8828.79
461.69	8916.86
461.89	8638.33
462.10	8916.86
462.31	8781.69
462.52	8855.42
462.73	8939.38
462.94	9138.04
463.14	9097.08
463.35	9205.62
463.56	9514.86
463.77	9320.31
463.98	9244.53
464.18	9074.55
464.39	9463.66
464.60	9375.60
464.81	9402.22
465.02	9314.16
465.23	9727.85
465.43	9639.79
465.64	9811.82
465.85	9699.18
466.06	9621.36
466.27	9944.94
466.47	9989.99
466.68	9908.07
466.89	9903.98
467.10	10073.96
467.30	9850.73
467.51	10293.09
467.72	10559.33
467.93	10100.58
468.14	10194.79
468.34	10438.50
468.55	10747.74
468.76	10547.04
468.97	10289.00
469.17	10913.63
469.38	10725.21
469.59	10624.86
469.80	10540.90
470.01	10821.47
470.21	10803.04
470.42	10956.63
470.63	10991.45
470.84	11038.55
471.04	11104.09
471.25	11409.23
471.46	11224.92
471.67	11468.62
471.87	11466.58
472.08	11564.88
472.29	11710.29
472.50	11349.84
472.70	11568.98
472.91	11661.13
473.12	11945.80
473.33	11902.79
473.53	12121.93
473.74	11990.86
473.95	12181.32
474.16	12506.95
474.36	12441.41
474.57	12427.07
474.78	12549.95
474.99	12508.99
475.19	12515.14
475.40	12631.87
475.61	12998.46
475.81	13018.94
476.02	13227.83
476.23	12961.59
476.44	13115.19
476.64	13313.84
476.85	13360.95
477.06	13457.20
477.27	13911.85
477.47	13526.83
477.68	13862.70
477.89	13803.31
478.09	13780.78
478.30	13989.67
478.51	14022.44
478.71	13999.91
478.92	14178.09
479.13	14335.78
479.34	14479.14
479.54	14370.60
479.75	14677.79
479.96	14757.66
480.16	14628.64
480.37	14772.00
480.58	15060.76
480.78	15054.62
480.99	14915.36
481.20	15331.09
481.41	15253.27
481.61	15413.01
481.82	15404.82
482.03	15525.65
482.23	15576.85
482.44	15783.70
482.65	15838.99
482.85	16062.22
483.06	15812.37
483.27	16002.83
483.47	16051.98
483.68	16017.16
483.89	16328.45
484.09	16314.12
484.30	16504.58
484.51	16772.86
484.71	16639.75
484.92	16781.06
485.13	16817.92
485.33	17059.58
485.54	16809.73
485.75	17159.93
485.95	17200.89
486.16	17252.09
486.37	17307.38
486.57	17364.73
486.78	17430.26
486.98	17485.56
487.19	17549.04
487.40	17821.42
487.60	17864.43
487.81	18138.86
488.02	17911.53
488.22	18341.61
488.43	18128.62
488.64	18018.03
488.84	18480.87
489.05	18501.35
489.25	18468.58
489.46	18800.35
489.67	18669.28
489.87	19015.39
490.08	18597.60
490.29	19054.30
490.49	18966.24
490.70	19230.43
490.90	19146.46
491.11	19377.88
491.32	19216.09
491.52	19261.15
491.73	19255.00
491.94	19623.64
492.14	19535.57
492.35	19953.36
492.55	20020.94
492.76	19949.26
492.97	20164.30
493.17	20250.32
493.38	20240.08
493.58	20498.12
493.79	20432.58
494.00	20287.18
494.20	20547.27
494.41	20698.82
494.61	20647.62
494.82	20913.86
495.02	20960.96
495.23	21046.97
495.44	20997.82
495.64	21223.10
495.85	21100.22
496.05	21526.20
496.26	21257.92
496.47	21612.21
496.67	21569.21
496.88	21581.49
497.08	21565.11
497.29	22027.95
497.49	21683.89
497.70	21972.66
497.91	22171.31
498.11	22025.90
498.32	22060.72
498.52	22437.55
498.73	22724.26
498.93	22316.72
499.14	22574.76
499.34	22458.03
499.55	22914.72
499.76	22648.49
499.96	22998.69
500.17	22963.87
500.37	22769.32
500.58	22990.50
500.78	23242.40
500.99	22982.31
501.19	23361.18
501.40	23121.57
501.60	23479.96
501.81	23201.44
502.02	23443.10
502.22	23418.52
502.43	23625.37
502.63	23649.94
502.84	23674.52
503.04	23940.75
503.25	23946.90
503.45	23969.43
503.66	24118.93
503.86	24135.31
504.07	24272.53
504.27	23873.17
504.48	24594.06
504.68	24508.04
504.89	24716.93
505.09	24491.66
505.30	24743.56
505.50	24690.31
505.71	24823.43
505.91	24725.13
506.12	25081.47
506.32	24948.36
506.53	25147.01
506.73	25009.79
506.94	25013.89
507.14	25249.41
507.35	25282.17
507.55	25364.09
507.76	25403.00
507.96	24884.87
508.17	25515.64
508.37	25478.78
508.58	25773.69
508.78	25790.07
508.99	26121.84
509.19	25988.72
509.40	25732.73
509.60	26127.99
509.81	26017.40
510.01	26154.61
510.22	26113.65
510.42	26355.31
510.63	26025.59
510.83	26146.42
511.04	26461.80
511.24	26572.39
511.44	26177.14
511.65	26404.46
511.85	26314.35
512.06	26875.49
512.26	26680.94
512.47	27111.01
512.67	26789.48
512.88	26773.10
513.08	26599.02
513.29	27070.05
513.49	27035.24
513.69	26981.99
513.90	27235.94
514.10	27111.01
514.31	27104.87
514.51	27164.26
514.72	27158.11
514.92	27270.75
515.13	27539.04
515.33	27453.02
515.53	27567.71
515.74	27442.78
515.94	27813.46
516.15	28157.52
516.35	27487.84
516.56	27782.74
516.76	27580.00
516.96	27913.81
517.17	28139.09
517.37	28126.80
517.58	28335.70
517.78	28192.34
517.99	28048.98
518.19	28417.61
518.39	28388.94
518.60	28603.98
518.80	28450.38
519.01	28890.70
519.21	28644.94
519.41	28653.13
519.62	28716.62
519.82	28868.17
520.03	29347.39
520.23	29277.76
520.43	29050.44
520.64	29265.47
520.84	29062.72
521.05	28907.08
521.25	29511.23
521.45	29609.53
521.66	29525.57
521.86	29433.41
522.07	29361.73
522.27	29615.68
522.47	29611.58
522.68	30006.84
522.88	29787.71
523.08	30594.61
523.29	30043.70
523.49	30078.52
523.70	30371.38
523.90	30197.30
524.10	30488.11
524.31	30617.13
524.51	30113.33
524.71	30598.70
524.92	30336.56
525.12	30746.15
525.33	30809.64
525.53	31002.15
525.73	30832.17
525.94	31401.50
526.14	30973.48
526.34	31145.51
526.55	31542.81
526.75	31149.60
526.95	31614.49
527.16	31614.49
527.36	31581.73
527.56	31833.63
527.77	32013.85
527.97	31542.81
528.17	31766.04
528.38	32294.42
528.58	31948.31
528.78	32359.95
528.99	31917.59
529.19	32450.06
529.39	32046.62
529.60	32726.54
529.80	32370.19
530.00	32476.69
530.21	33070.60
530.41	32937.48
530.61	32835.08
530.82	32945.67
531.02	32876.04
531.22	32986.63
531.43	32962.06
531.63	33426.95
531.83	33678.85
532.04	33574.40
532.24	33515.01
532.44	33824.25
532.64	33625.60
532.85	33994.23
533.05	33971.71
533.25	34061.82
533.46	33914.36
533.66	33811.96
533.86	34426.35
534.07	34115.06
534.27	34248.18
534.47	34440.69
534.67	34489.84
534.88	34516.47
535.08	34403.83
535.28	35341.80
535.49	35081.70
535.69	35280.36
535.89	35161.58
536.09	35284.45
536.30	35655.14
536.50	35161.58
536.70	35456.48
536.91	35440.10
537.11	35589.60
537.31	35894.75
537.51	35864.03
537.72	36085.21
537.92	36339.16
538.12	36392.40
538.32	36029.91
538.53	36345.30
538.73	36115.93
538.93	36015.58
539.13	36210.14
539.34	36509.14
539.54	36271.57
539.74	36636.11
539.94	36548.05
540.15	36586.96
540.35	37137.87
540.55	36621.78
540.75	36953.55
540.96	36820.43
541.16	37344.71
541.36	37213.64
541.56	37152.20
541.77	37445.06
541.97	37635.52
542.17	37326.28
542.37	37612.99
542.58	37649.86
542.78	37400.01
542.98	37797.31
543.18	37426.63
543.38	38116.79
543.59	37975.48
543.79	37807.55
543.99	37619.14
544.19	38032.83
544.40	37625.28
544.60	38571.44
544.80	38491.57
545.00	38143.42
545.20	38704.56
545.41	38284.73
545.61	38362.55
545.81	38743.47
546.01	38870.45
546.21	38618.55
546.42	38856.11
546.62	39110.06
546.82	38796.72
547.02	38530.48
547.22	39191.98
547.43	38555.06
547.63	39288.23
547.83	39310.76
548.03	39439.78
548.23	39357.86
548.44	39148.97
548.64	39413.16
548.84	39521.70
549.04	39312.81
549.24	39863.71
549.45	39613.86
549.65	39564.71
549.85	39765.41
550.05	39656.87
550.25	39640.48
550.45	40105.37
550.66	40093.08
550.86	40088.99
551.06	40404.38
551.26	40164.76
551.46	40078.75
551.66	40301.98
551.87	40404.38
552.07	40396.18
552.27	40529.30
552.47	40574.36
552.67	40398.23
552.87	40572.31
553.07	40725.91
553.28	40799.63
553.48	41067.92
553.68	40783.25
553.88	40965.52
554.08	40902.03
554.28	41211.28
554.48	40664.47
554.69	41022.86
554.89	41067.92
555.09	41268.62
555.29	41463.18
555.49	41538.95
555.69	41504.13
555.89	41133.45
556.10	41602.44
556.30	41348.49
556.50	41960.83
556.70	41350.54
556.90	41844.10
557.10	41598.34
557.30	41739.65
557.50	42089.85
557.70	41627.01
557.91	42050.94
558.11	41995.65
558.31	41964.93
558.51	41758.08
558.71	41852.29
558.91	42300.79
559.11	42335.61
559.31	42157.44
559.51	42200.44
559.72	42229.12
559.92	42745.20
560.12	41993.60
560.32	42714.48
560.52	42403.19
560.72	42501.50
560.92	43046.26
561.12	42847.60
561.32	43033.97
561.52	42612.09
561.72	43275.63
561.93	42429.82
562.13	42753.40
562.33	42732.92
562.53	43341.16
562.73	43101.55
562.93	42898.80
563.13	43048.30
563.33	43132.27
563.53	43771.24
563.73	43191.66
563.93	43289.96
564.13	43537.77
564.33	43568.49
564.53	43142.51
564.74	43169.13
564.94	43378.03
565.14	43361.64
565.34	43363.69
565.54	43722.08
565.74	43476.33
565.94	43658.60
566.14	43875.68
566.34	43550.06
566.54	44143.97
566.74	43689.32
566.94	43814.24
567.14	44369.24
567.34	43996.51
567.54	44074.34
567.74	43957.60
567.94	43922.79
568.14	44528.98
568.34	44268.89
568.54	44217.69
568.74	44242.27
568.94	43959.65
569.14	44473.69
569.34	44711.25
569.54	44621.14
569.75	43982.18
569.95	44844.37
570.15	44748.12
570.35	44801.36
570.55	44422.49
570.75	44516.70
570.95	44801.36
571.15	44647.77
571.35	44776.79
571.55	45229.39
571.75	44635.48
571.95	45094.22
572.15	44965.20
572.35	44774.74
572.55	45235.53
572.75	45124.94
572.95	45235.53
573.15	45292.88
573.35	45256.01
573.55	45004.11
573.75	44830.04
573.95	45651.27
574.15	45184.33
574.35	45339.98
574.55	45184.33
574.75	45288.78
574.95	45860.16
575.15	45245.77
575.34	45677.90
575.54	45694.28
575.74	45552.97
575.94	45739.33
576.14	45645.13
576.34	46089.54
576.54	46208.32
576.74	45911.36
576.94	45835.59
577.14	46140.74
577.34	46417.21
577.54	46075.20
577.74	46531.90
577.94	46361.92
578.14	46368.06
578.34	46550.33
578.54	46140.74
578.74	46230.85
578.94	46779.70
579.14	46681.40
579.34	46181.70
579.54	46136.64
579.74	46896.44
579.94	46464.32
580.13	46773.56
580.33	46810.42
580.53	47236.40
580.73	46994.74
580.93	46976.31
581.13	47027.51
581.33	46966.07
581.53	47138.10
581.73	47428.91
581.93	47273.26
582.13	47275.31
582.33	47754.54
582.53	47805.73
582.73	47443.24
582.92	47390.00
583.12	47686.95
583.32	47717.67
583.52	47136.05
583.72	47650.09
583.92	47473.96
584.12	47811.88
584.32	48143.65
584.52	47922.47
584.72	48037.16
584.92	48028.96
585.11	48799.00
585.31	47951.14
585.51	48491.80
585.71	48293.15
585.91	48823.58
586.11	48258.34
586.31	47924.52
586.51	48276.77
586.71	48389.41
586.91	48559.39
587.10	48921.88
587.30	48803.10
587.50	48862.49
587.70	48928.02
587.90	48434.46
588.10	48604.44
588.30	48661.79
588.50	48825.62
588.69	48870.68
588.89	48909.59
589.09	48948.50
589.29	48936.21
589.49	49358.09
589.69	48727.32
589.89	49442.06
590.08	49751.30
590.28	49081.62
590.48	48731.42
590.68	49231.12
590.88	49016.08
591.08	49372.43
591.28	48891.16
591.47	49542.41
591.67	49310.99
591.87	49149.20
592.07	49794.31
592.27	49452.30
592.47	49671.43
592.67	49329.42
592.86	49593.61
593.06	49530.12
593.26	49546.51
593.46	49708.30
593.66	49452.30
593.86	50050.31
594.05	49403.15
594.25	50269.44
594.45	49614.09
594.65	49681.67
594.85	49663.24
595.05	50019.59
595.24	49999.11
595.44	49720.59
595.64	50220.29
595.84	50109.70
596.04	50494.72
596.23	50607.36
596.43	50574.59
596.63	50042.12
596.83	50195.71
597.03	50711.80
597.22	50844.92
597.42	50648.32
597.62	50564.35
597.82	50427.13
598.02	50666.75
598.21	50752.76
598.41	50361.60
598.61	50730.23
598.81	51150.07
599.01	51137.78
599.20	50736.38
599.40	50771.19
599.60	51139.83
599.80	50830.58
600.00	51066.10
600.19	51494.13
600.39	50986.23
600.59	51772.65
600.79	51217.65
600.98	51330.29
601.18	51608.81
601.38	51655.92
601.58	51502.32
601.78	51705.07
601.97	51567.85
602.17	51852.52
602.37	51934.44
602.57	51713.26
602.76	51803.37
602.96	51584.24
603.16	52120.80
603.36	51868.90
603.55	52106.47
603.75	51985.64
603.95	51823.85
604.15	52239.59
604.34	52294.88
604.54	52274.40
604.74	52149.48
604.94	52411.62
605.13	52630.75
605.33	52514.01
605.53	52153.57
605.73	52667.61
605.92	52653.28
606.12	52831.45
606.32	52602.08
606.52	52919.51
606.71	52962.52
606.91	52823.26
607.11	52817.11
607.30	53089.49
607.50	52950.23
607.70	53087.45
607.90	52778.20
608.09	53034.20
608.29	52784.35
608.49	53015.77
608.68	52835.55
608.88	53267.67
609.08	53204.18
609.28	53042.39
609.47	52919.51
609.67	53609.68
609.87	53288.15
610.06	53777.61
610.26	53312.72
610.46	53597.39
610.66	53480.66
610.85	53724.36
611.05	53239.00
611.25	53589.20
611.44	53191.89
611.64	53386.45
611.84	52909.27
612.03	53044.44
612.23	53656.78
612.43	53857.48
612.62	53404.88
612.82	53363.92
613.02	53556.43
613.21	53693.64
613.41	53593.29
613.61	54004.94
613.80	53566.67
614.00	53804.24
614.20	53689.55
614.39	53920.97
614.59	53832.91
614.79	53963.98
614.98	53896.39
615.18	53974.22
615.38	53830.86
615.57	53667.02
615.77	53869.77
615.97	53814.47
616.16	54072.52
616.36	54232.26
616.56	54213.83
616.75	54068.42
616.95	53992.65
617.15	53972.17
617.34	53822.67
617.54	53687.50
617.74	54144.20
617.93	54314.18
618.13	54328.52
618.32	54064.33
618.52	54121.67
618.72	53994.70
618.91	54109.38
619.11	53773.52
619.31	54158.53
619.50	54041.80
619.70	53918.92
619.90	54168.77
620.09	54179.01
620.29	54492.35
620.48	53830.86
620.68	54291.65
620.88	54152.39
621.07	54015.18
621.27	54031.56
621.46	53947.59
621.66	53929.16
621.86	53662.93
622.05	53994.70
622.25	54510.78
622.44	53724.36
622.64	53304.53
622.84	54097.09
623.03	53478.61
623.23	54848.70
623.42	54398.15
623.62	54516.93
623.82	54416.58
624.01	54371.52
624.21	54375.62
624.40	54029.51
624.60	54228.16
624.80	54285.51
624.99	54148.29
625.19	53904.59
625.38	54338.75
625.58	54514.88
625.77	54039.75
625.97	54463.68
626.17	54453.44
626.36	54738.11
626.56	54451.39
626.75	53683.40
626.95	54654.14
627.14	54013.13
627.34	54312.13
627.54	54473.92
627.73	54328.52
627.93	54215.88
628.12	54191.30
628.32	54564.03
628.51	54277.32
628.71	54201.54
628.90	54846.65
629.10	54731.96
629.30	54334.66
629.49	54627.52
629.69	54469.82
629.88	54222.02
630.08	55125.17
630.27	54660.29
630.47	54500.54
630.66	54877.37
630.86	54766.78
631.05	54353.09
631.25	54789.31
631.44	54834.36
631.64	54795.45
631.84	54523.07
632.03	54963.39
632.23	54613.18
632.42	54979.77
632.62	54791.36
632.81	54451.39
633.01	54838.46
633.20	55096.50
633.40	54854.84
633.59	54604.99
633.79	54363.33
633.98	54699.20
634.18	55360.69
634.37	54813.88
634.57	55168.18
634.76	55221.43
634.96	55295.16
635.15	54938.81
635.35	54555.84
635.54	54822.08
635.74	55157.94
635.93	54957.24
636.13	55106.74
636.32	55047.35
636.52	54803.64
636.71	54752.44
636.91	54840.51
637.10	54899.90
637.30	55557.30
637.49	55147.70
637.69	54678.72
637.88	55286.96
638.08	55092.41
638.27	55248.05
638.46	55141.56
638.66	55002.30
638.85	55469.23
639.05	54883.51
639.24	55393.46
639.44	54727.87
639.63	55137.46
639.83	54715.58
640.02	55463.09
640.22	55051.45
640.41	55729.33
640.61	54766.78
640.80	55372.98
640.99	55305.40
641.19	55383.22
641.38	55284.92
641.58	55530.67
641.77	55071.93
641.97	55094.46
642.16	55112.89
642.36	55516.34
642.55	55680.17
642.74	55194.81
642.94	55981.23
643.13	55690.41
643.33	55700.65
643.52	55229.62
643.72	55653.55
643.91	55203.00
644.10	55778.48
644.30	55989.42
644.49	55393.46
644.69	55618.74
644.88	55598.26
645.08	55561.39
645.27	56104.10
645.46	55694.51
645.66	56020.14
645.85	55612.59
646.05	55731.37
646.24	56005.80
646.43	55635.12
646.63	56081.58
646.82	56421.54
647.02	55624.88
647.21	56194.21
647.40	55780.52
647.60	55932.07
647.79	55968.94
647.99	56091.82
648.18	55874.73
648.37	56413.35
648.57	56190.12
648.76	56229.03
648.96	55927.98
649.15	55880.88
649.34	56179.88
649.54	56243.37
649.73	56112.30
649.92	56259.75
650.12	56231.08
650.31	56237.22
650.51	56079.53
650.70	56218.79
650.89	56159.40
651.09	56497.31
651.28	56239.27
651.47	56693.92
651.67	56501.41
651.86	56343.72
652.06	55979.18
652.25	56491.17
652.44	56603.81
652.64	56229.03
652.83	56151.21
653.02	56063.14
653.22	56040.62
653.41	56126.63
653.60	55946.41
653.80	56153.26
653.99	56097.96
654.18	56204.45
654.38	56458.40
654.57	56001.71
654.76	56429.73
654.96	56024.23
655.15	56190.12
655.34	56235.17
655.54	55915.69
655.73	56218.79
655.92	56392.87
656.12	56351.91
656.31	56614.05
656.50	56267.94
656.70	56439.97
656.89	56532.13
657.08	56235.17
657.28	56364.20
657.47	56482.98
657.66	56558.75
657.86	56546.47
658.05	56720.54
658.24	56577.18
658.43	56143.02
658.63	56403.11
658.82	56425.64
659.01	56628.38
659.21	56814.75
659.40	56245.41
659.59	56452.26
659.79	56507.55
659.98	56681.63
660.17	56212.65
660.36	56652.96
660.56	56183.97
660.75	56517.79
660.94	56419.49
661.14	56505.51
661.33	56534.18
661.52	56251.56
661.71	56700.06
661.91	56290.47
662.10	56386.72
662.29	56407.20
662.49	56442.02
662.68	56399.01
662.87	56454.31
663.06	56521.89
663.26	56431.78
663.45	57105.56
663.64	56296.61
663.83	56609.95
664.03	56399.01
664.22	56636.58
664.41	56655.01
664.60	56091.82
664.80	56747.17
664.99	56620.19
665.18	56202.41
665.37	56306.85
665.57	56474.79
665.76	56528.03
665.95	56073.38
666.14	56059.05
666.34	56341.67
666.53	56378.53
666.72	56548.51
666.91	56177.83
667.11	56153.26
667.30	56241.32
667.49	55964.84
667.68	56210.60
667.87	56128.68
668.07	56700.06
668.26	56448.16
668.45	56358.05
668.64	56179.88
668.84	56681.63
669.03	56044.71
669.22	55934.12
669.41	56177.83
669.60	56439.97
669.80	55846.06
669.99	56607.90
670.18	56157.35
670.37	56145.06
670.57	56325.28
670.76	56071.34
670.95	56194.21
671.14	56319.14
671.33	55997.61
671.53	56374.44
671.72	56712.35
671.91	55903.40
672.10	55999.66
672.29	55909.55
672.48	55704.75
672.68	55903.40
672.87	55956.65
673.06	56192.17
673.25	55854.25
673.44	56063.14
673.64	55358.64
673.83	55671.98
674.02	55825.58
674.21	55518.38
674.40	55995.56
674.59	55637.17
674.79	55549.10
674.98	55635.12
675.17	55868.59
675.36	56149.16
675.55	56331.43
675.74	55899.31
675.94	55901.36
676.13	55819.44
676.32	56044.71
676.51	55993.51
676.70	55506.10
676.89	55956.65
677.08	55831.72
677.28	55622.83
677.47	55604.40
677.66	56300.71
677.85	55448.75
678.04	56116.39
678.23	55444.66
678.42	56167.59
678.62	55481.52
678.81	55506.10
679.00	55530.67
679.19	56577.18
679.38	56071.34
679.57	55391.41
679.76	55397.55
679.96	55624.88
680.15	55686.32
680.34	55874.73
680.53	55790.76
680.72	55839.92
680.91	55874.73
681.10	55348.40
681.29	55780.52
681.48	55626.93
681.68	55450.80
681.87	55502.00
682.06	55506.10
682.25	55211.19
682.44	55270.58
682.63	55317.68
682.82	55026.87
683.01	55180.47
683.20	55149.75
683.39	55301.30
683.59	55272.63
683.78	55313.59
683.97	55311.54
684.16	55162.04
684.35	55188.66
684.54	55354.55
684.73	55272.63
684.92	55137.46
685.11	54756.54
685.30	54957.24
685.49	55432.37
685.69	55520.43
685.88	55426.23
686.07	54871.23
686.26	54834.36
686.45	54959.29
686.64	54940.86
686.83	55456.95
687.02	54924.47
687.21	55317.68
687.40	54934.71
687.59	55000.25
687.78	54953.15
687.97	55440.56
688.16	54895.80
688.35	55086.26
688.54	54772.92
688.74	54678.72
688.93	54486.21
689.12	54754.49
689.31	54711.49
689.50	55174.33
689.69	54490.30
689.88	54496.45
690.07	54922.43
690.26	54416.58
690.45	55133.37
690.64	54678.72
690.83	54228.16
691.02	54162.63
691.21	54561.98
691.40	54449.35
691.59	54930.62
691.78	54426.82
691.97	54613.18
692.16	54441.15
692.35	54680.77
692.54	54439.11
692.73	54400.19
692.92	54162.63
693.11	54658.24
693.30	54140.10
693.49	54432.96
693.68	54267.08
693.87	54047.94
694.06	54482.11
694.25	54410.43
694.44	54045.90
694.63	54572.22
694.82	53867.72
695.01	54101.19
695.20	54160.58
695.39	53935.30
695.58	54334.66
695.77	54168.77
695.96	53877.96
696.15	53638.35
696.34	53984.46
696.53	54578.37
696.72	54103.24
696.91	53507.28
697.10	54070.47
697.29	53150.93
697.48	54152.39
697.67	53843.15
697.86	53419.22
698.05	53662.93
698.24	53896.39
698.43	53353.68
698.62	53810.38
698.81	53206.23
699.00	53982.41
699.19	53464.27
699.38	54041.80
699.57	53107.93
699.76	53974.22
699.95	53390.55
700.14	53028.05
700.32	53318.87
700.51	53562.57
700.70	53916.87
700.89	53482.70
701.08	53650.64
701.27	53279.96
701.46	53566.67
701.65	52944.09
701.84	53173.46
702.03	53433.55
702.22	53195.99
702.41	53484.75
702.60	53284.05
702.79	53249.24
702.98	53144.79
703.17	52972.76
703.35	53116.12
703.54	52823.26
703.73	53478.61
703.92	53056.73
704.11	53069.01
704.30	52868.31
704.49	53120.21
704.68	52702.43
704.87	53183.70
705.06	52845.79
705.25	52991.19
705.43	52798.68
705.62	53116.12
705.81	53195.99
706.00	52862.17
706.19	52272.35
706.38	52927.70
706.57	52673.76
706.76	52747.48
706.95	52815.07
707.14	52917.46
707.32	52544.73
707.51	52597.98
707.70	52430.05
707.89	52972.76
708.08	52081.89
708.27	52694.24
708.46	52565.21
708.65	52380.90
708.84	52813.02
709.02	52610.27
709.21	52704.48
709.40	52305.12
709.59	52663.52
709.78	52303.07
709.97	52686.04
710.16	52114.66
710.34	52407.52
710.53	52253.92
710.72	52253.92
710.91	52243.68
711.10	52208.87
711.29	52249.83
711.48	52040.93
711.66	52329.70
711.85	52096.23
712.04	51860.71
712.23	52190.44
712.42	51969.26
712.61	51934.44
712.80	51703.02
712.98	51827.95
713.17	51868.90
713.36	51793.13
713.55	51629.29
713.74	51963.11
713.93	51819.75
714.11	51942.63
714.30	51555.57
714.49	51617.00
714.68	51623.15
714.87	51778.79
715.06	51858.66
715.24	51373.30
715.43	51891.43
715.62	51322.10
715.81	51746.03
716.00	51793.13
716.18	51279.09
716.37	51059.96
716.56	51197.17
716.75	51582.19
716.94	51582.19
717.12	50959.61
717.31	51737.83
717.50	51215.60
717.69	51014.90
717.88	50992.37
718.06	51092.72
718.25	51119.35
718.44	50820.34
718.63	50699.51
718.82	50828.54
719.00	50351.36
719.19	50894.07
719.38	50789.62
719.57	50418.94
719.76	50588.92
719.94	50525.44
720.13	50689.27
720.32	50527.48
720.51	49980.68
720.69	50205.95
720.88	50267.39
721.07	50302.21
721.26	49978.63
721.44	50107.65
721.63	50136.32
721.82	49833.22
722.01	50148.61
722.20	50050.31
722.38	49845.51
722.57	49362.19
722.76	49792.26
722.95	50081.03
723.13	49558.80
723.32	49184.02
723.51	49456.40
723.70	48870.68
723.88	49370.38
724.07	49007.89
724.26	49495.31
724.44	48833.81
724.63	49667.34
724.82	49657.10
725.01	49401.10
725.19	48977.17
725.38	49216.78
725.57	48622.87
725.76	49200.40
725.94	48938.26
726.13	48983.32
726.32	48903.45
726.51	48977.17
726.69	49274.13
726.88	49302.80
727.07	49050.90
727.25	49337.62
727.44	48864.53
727.63	48624.92
727.82	48805.14
728.00	49018.13
728.19	48860.44
728.38	49206.55
728.56	48723.22
728.75	49435.92
728.94	48688.41
729.12	49143.06
729.31	48786.71
729.50	49042.71
729.69	49196.31
729.87	48592.15
730.06	48723.22
730.25	48698.65
730.43	49210.64
730.62	48520.48
730.81	48842.01
730.99	48753.94
731.18	48352.54
731.37	48774.42
731.55	48567.58
731.74	48887.06
731.93	48776.47
732.11	49313.04
732.30	49274.13
732.49	48608.54
732.67	48792.86
732.86	48870.68
733.05	48313.63
733.23	48172.32
733.42	48715.03
733.61	48248.10
733.79	48672.03
733.98	48839.96
734.17	48155.94
734.35	48291.10
734.54	48282.91
734.73	48766.23
734.91	48620.83
735.10	48143.65
735.29	48362.78
735.47	47715.62
735.66	48239.90
735.84	48125.22
736.03	48080.16
736.22	48426.27
736.40	48338.21
736.59	47889.70
736.78	48094.50
736.96	48157.99
737.15	48495.90
737.33	48413.98
737.52	48299.30
737.71	47740.20
737.89	47727.91
738.08	47723.82
738.27	47861.03
738.45	48217.38
738.64	48057.63
738.82	47732.01
739.01	47930.66
739.20	47519.02
739.38	47594.79
739.57	47891.75
739.75	47574.31
739.94	47590.70
740.13	47717.67
740.31	47473.96
740.50	47447.34
740.68	47557.93
740.87	47662.38
741.06	47791.40
741.24	47772.97
741.43	47125.81
741.61	47740.20
741.80	47559.98
741.99	47205.68
742.17	47236.40
742.36	47340.85
742.54	47164.72
742.73	47306.03
742.91	47336.75
743.10	47205.68
743.29	47367.47
743.47	47265.07
743.66	47197.49
743.84	47283.50
744.03	47166.77
744.21	47095.09
744.40	47164.72
744.59	47113.52
744.77	46880.05
744.96	46523.71
745.14	46900.53
745.33	46800.18
745.51	46605.62
745.70	46751.03
745.88	46413.12
746.07	46746.93
746.26	46226.75
746.44	46200.13
746.63	46593.34
746.81	46253.37
747.00	46099.78
747.18	46783.80
747.37	46136.64
747.55	46626.10
747.74	46626.10
747.92	46083.39
748.11	46353.72
748.29	46323.01
748.48	46449.98
748.66	46167.36
748.85	46153.02
749.03	45980.99
749.22	45649.22
749.41	45792.58
749.59	46003.52
749.78	45888.84
749.96	45579.59
750.15	45741.38
750.33	45845.83
750.52	45856.07
750.70	45954.37
750.89	45385.04
751.07	45432.14
751.26	45237.58
751.44	45266.25
751.63	45360.46
751.81	45196.62
752.00	45299.02
752.18	45266.25
752.37	45464.91
752.55	45382.99
752.74	45016.40
752.92	44991.83
753.10	45329.74
753.29	44954.96
753.47	45247.82
753.66	44842.32
753.84	45241.68
754.03	44737.88
754.21	45157.71
754.40	45241.68
754.58	44989.78
754.77	44903.76
754.95	44881.24
755.14	44971.35
755.32	45077.84
755.51	44696.92
755.69	44451.16
755.88	44754.26
756.06	44395.87
756.24	44381.53
756.43	44326.24
756.61	44551.51
756.80	44035.42
756.98	44035.42
757.17	44148.06
757.35	44309.85
757.54	43988.32
757.72	44338.52
757.90	44488.03
758.09	44016.99
758.27	43732.32
758.46	43779.43
758.64	43900.26
758.83	44275.04
759.01	44248.41
759.19	43875.68
759.38	43734.37
759.56	44039.52
759.75	43978.08
759.93	43285.87
760.12	43390.31
760.30	43771.24
760.48	43513.19
760.67	43535.72
760.85	43588.97
761.04	43541.86
761.22	43486.57
761.40	43400.55
761.59	43332.97
761.77	43378.03
761.96	43183.47
762.14	43107.69
762.32	43382.12
762.51	43003.25
762.69	42906.99
762.88	42990.96
763.06	43502.95
763.24	43199.85
763.43	43115.89
763.61	42698.10
763.80	42724.72
763.98	42769.78
764.16	42732.92
764.35	42632.57
764.53	42280.31
764.72	42440.06
764.90	42431.86
765.08	42440.06
765.27	42372.47
765.45	41850.24
765.63	41854.34
765.82	42333.56
766.00	41563.53
766.18	42308.99
766.37	42120.57
766.55	41848.19
766.74	41930.11
766.92	41801.09
767.10	41700.74
767.29	41659.78
767.47	41436.55
767.65	41958.78
767.84	41481.61
768.02	41817.47
768.20	41608.58
768.39	41698.69
768.57	41547.14
768.75	41022.86
768.94	41362.82
769.12	41356.68
769.30	41211.28
769.49	41184.65
769.67	40942.99
769.85	41067.92
770.04	41383.30
770.22	41063.82
770.40	40732.05
770.59	40983.95
770.77	41434.50
770.95	40834.45
771.14	40560.02
771.32	40465.81
771.50	40517.01
771.69	40537.49
771.87	41096.59
772.05	40531.35
772.24	39966.11
772.42	40439.19
772.60	40252.83
772.78	40195.48
772.97	40498.58
773.15	40633.75
773.33	40441.24
773.52	40308.12
773.70	40160.67
773.88	40682.90
774.07	39998.88
774.25	40330.65
774.43	40347.03
774.61	40390.04
774.80	40246.68
774.98	40457.62
775.16	40152.48
775.34	40263.07
775.53	40115.61
775.71	40684.95
775.89	40459.67
776.08	40467.86
776.26	40330.65
776.44	40355.22
776.62	40265.11
776.81	39728.55
776.99	40672.66
777.17	39984.54
777.35	40572.31
777.54	40951.18
777.72	40570.26
777.90	40230.30
778.08	40361.37
778.27	40316.31
778.45	40502.68
778.63	40517.01
778.81	40574.36
779.00	41219.47
779.18	40613.27
779.36	40695.19
779.54	40396.18
779.73	40875.41
779.91	41115.02
780.09	40863.12
780.27	40852.88
780.46	40414.62
780.64	41170.32
780.82	40529.30
781.00	40392.09
781.19	41053.58
781.37	40947.09
781.55	41670.02
781.73	41102.73
781.91	41008.53
782.10	41010.57
782.28	41149.84
782.46	41149.84
782.64	41229.71
782.82	40859.02
783.01	41219.47
783.19	41227.66
783.37	41430.41
783.55	41108.88
783.74	41573.77
783.92	40854.93
784.10	41336.20
784.28	41065.87
784.46	40871.31
784.64	40703.38
784.83	41172.36
785.01	41497.99
785.19	41074.06
785.37	41399.69
785.55	41080.21
785.74	40781.20
785.92	40756.63
786.10	41016.72
786.28	41190.80
786.46	40588.69
786.64	40269.21
786.83	40529.30
787.01	40969.61
787.19	40568.21
787.37	40498.58
787.55	40768.91
787.74	40310.17
787.92	40586.64
788.10	40519.06
788.28	40115.61
788.46	40285.59
788.64	40306.07
788.82	40820.11
789.01	40492.44
789.19	40236.44
789.37	40138.14
789.55	40207.77
789.73	40066.46
789.91	39538.08
790.09	39779.74
790.28	39916.96
790.46	39474.60
790.64	39916.96
790.82	39910.82
791.00	39548.32
791.18	39198.12
791.36	39728.55
791.55	39738.79
791.73	39462.31
791.91	39300.52
792.09	39617.96
792.27	39191.98
792.45	39376.30
792.63	39460.26
792.81	39110.06
793.00	39173.55
793.18	39148.97
793.36	39093.68
793.54	39048.62
793.72	38589.88
793.90	38843.82
794.08	38528.44
794.26	38944.17
794.44	38452.66
794.62	38489.52
794.81	38245.82
794.99	38256.06
795.17	37920.19
795.35	37961.15
795.53	38090.17
795.71	38180.28
795.89	37680.58
796.07	37635.52
796.25	37635.52
796.43	37854.65
796.61	37529.03
796.80	37563.84
796.98	37273.03
797.16	37801.41
797.34	37516.74
797.52	37330.37
797.70	37400.01
797.88	37221.83
798.06	36337.11
798.24	36939.21
798.42	36804.05
798.60	36636.11
798.78	36582.87
798.96	36724.18
799.14	36341.21
799.32	36754.90
799.51	36400.60
799.69	36242.90
799.87	36095.45
800.05	36226.52
800.23	36427.22
800.41	35980.76
800.59	36052.44
800.77	35767.77
800.95	35263.97
801.13	35726.81
801.31	35587.55
801.49	35329.51
801.67	35210.73
801.85	35409.38
802.03	35231.21
802.21	35251.69
802.39	35096.04
802.57	35143.14
802.75	34891.24
802.93	35132.90
803.11	34651.63
803.29	34622.96
803.47	34248.18
803.65	34524.66
803.83	34461.17
804.01	34479.60
804.19	34377.20
804.37	34321.91
804.55	34221.56
804.73	34174.45
804.91	34041.34
805.09	34135.54
805.27	33955.32
805.45	34237.94
805.63	34235.89
805.81	33920.51
805.99	34051.58
806.17	33926.65
806.35	33674.75
806.53	33553.92
806.71	33562.11
806.89	33422.85
807.07	33213.96
807.25	33777.15
807.43	33455.62
807.61	33484.29
807.79	33222.15
807.97	33031.69
808.15	33078.79
808.33	32710.16
808.51	32933.39
808.69	32896.52
808.87	32579.09
809.05	32812.56
809.23	32855.56
809.41	32517.65
809.59	32351.76
809.77	32843.27
809.95	32329.23
810.13	32728.59
810.31	32167.45
810.49	32480.78
810.67	32353.81
810.84	32280.08
811.02	32120.34
811.20	32065.05
811.38	32118.29
811.56	31905.31
811.74	32058.90
811.92	31383.07
812.10	31897.11
812.28	32171.54
812.46	31823.39
812.64	31733.28
812.82	31313.44
813.00	31446.56
813.18	31596.06
813.36	31155.75
813.53	31327.78
813.71	31413.79
813.89	31084.07
814.07	31262.24
814.25	31278.63
814.43	30981.67
814.61	31065.64
814.79	30946.86
814.97	30680.62
815.15	31139.36
815.33	30817.83
815.50	30406.19
815.68	31084.07
815.86	30803.50
816.04	30271.03
816.22	30619.18
816.40	30539.31
816.58	30412.34
816.76	30508.59
816.94	30258.74
817.11	30400.05
817.29	30309.94
817.47	30000.69
817.65	30219.83
817.83	29740.60
818.01	30058.04
818.19	30070.33
818.37	30111.28
818.54	29652.54
818.72	29662.78
818.90	30111.28
819.08	29500.99
819.26	29480.51
819.44	29668.92
819.62	29546.05
819.80	29666.88
819.97	29732.41
820.15	29460.03
820.33	29619.77
820.51	29642.30
820.69	29472.32
820.87	29687.36
821.05	29648.44
821.22	29376.06
821.40	29189.70
821.58	29408.83
821.76	29548.09
821.94	28997.19
822.12	28952.13
822.29	28923.46
822.47	28681.80
822.65	29058.63
822.83	28614.22
823.01	28671.56
823.19	28769.86
823.36	28624.46
823.54	28386.89
823.72	28202.58
823.90	28358.22
824.08	28333.65
824.25	28591.69
824.43	28548.68
824.61	28540.49
824.79	28188.24
824.97	28501.58
825.15	28573.26
825.32	28405.33
825.50	28259.92
825.68	27969.11
825.86	28358.22
826.04	28089.94
826.21	28169.81
826.39	27960.92
826.57	27749.98
826.75	27969.11
826.93	27997.78
827.10	27655.77
827.28	27778.65
827.46	28190.29
827.64	27811.42
827.81	27700.83
827.99	27897.43
828.17	27465.31
828.35	27475.55
828.53	27633.24
828.70	27518.56
828.88	27680.35
829.06	27369.05
829.24	27334.24
829.41	27442.78
829.59	27481.69
829.77	27240.03
829.95	27659.87
830.12	27256.42
830.30	27291.23
830.48	27471.45
830.66	27313.76
830.84	27123.30
831.01	26981.99
831.19	26969.70
831.37	27373.15
831.55	27076.19
831.72	27092.58
831.90	27072.10
832.08	27139.68
832.25	26775.14
832.43	26760.81
832.61	26719.85
832.79	26822.25
832.96	26668.65
833.14	26945.12
833.32	26809.96
833.50	26836.58
833.67	26556.01
833.85	26650.22
834.03	26193.52
834.20	26596.97
834.38	26574.44
834.56	26728.04
834.74	26289.77
834.91	26490.48
835.09	26117.75
835.27	26062.45
835.44	26226.29
835.62	26031.73
835.80	26205.81
835.98	26162.80
836.15	26162.80
836.33	26183.28
836.51	26035.83
836.68	25761.40
836.86	25685.62
837.04	25871.99
837.21	25894.52
837.39	26177.14
837.57	25988.72
837.75	25837.17
837.92	25390.72
838.10	25394.81
838.28	25204.35
838.45	25480.83
838.63	25630.33
838.81	25587.32
838.98	25405.05
839.16	25360.00
839.34	25357.95
839.51	25615.99
839.69	25364.09
839.87	25089.67
840.04	25398.91
840.22	25368.19
840.40	25411.20
840.57	25163.39
840.75	25347.71
840.93	24938.12
841.10	25065.09
841.28	25192.06
841.46	24733.32
841.63	25443.96
841.81	24759.94
841.98	24923.78
842.16	25159.30
842.34	24997.51
842.51	24817.29
842.69	25073.28
842.87	25218.69
843.04	25028.23
843.22	24923.78
843.40	24721.03
843.57	25020.03
843.75	24632.97
843.92	24694.41
844.10	24637.06
844.28	24669.83
844.45	24610.44
844.63	24589.96
844.81	24458.89
844.98	24379.02
845.16	24540.81
845.33	24446.60
845.51	24272.53
845.69	24327.82
845.86	24473.23
846.04	24309.39
846.21	24288.91
846.39	24346.25
846.57	24047.25
846.74	24385.16
846.92	24186.51
847.09	24088.21
847.27	24116.88
847.45	24032.91
847.62	23860.88
847.80	24039.06
847.97	24106.64
848.15	24014.48
848.32	23717.53
848.50	23932.56
848.68	23756.44
848.85	23627.42
849.03	23713.43
849.20	23860.88
849.38	23678.61
849.56	23617.18
849.73	23371.42
849.91	23568.02
850.08	23787.16
850.26	23320.22
850.43	23369.37
850.61	23746.20
850.78	23314.08
850.96	23289.50
851.14	23043.74
851.31	23477.91
851.49	23359.13
851.66	23504.54
851.84	23299.74
852.01	23377.56
852.19	23316.12
852.36	22924.96
852.54	23101.09
852.71	22982.31
852.89	22929.06
853.07	23172.77
853.24	23156.38
853.42	22906.53
853.59	22873.76
853.77	22683.30
853.94	23033.50
854.12	23125.66
854.29	22580.90
854.47	23047.84
854.64	22515.37
854.82	23185.05
854.99	22873.76
855.17	22857.38
855.34	22726.31
855.52	22806.18
855.69	22709.93
855.87	22804.13
856.04	22529.70
856.22	22509.22
856.39	22466.22
856.57	22433.45
856.74	22392.49
856.92	22398.63
857.09	22482.60
857.27	22220.46
857.44	22707.88
857.62	22374.06
857.79	22173.36
857.97	22312.62
858.14	22056.62
858.32	22101.68
858.49	22017.71
858.67	22052.53
858.84	22054.58
859.02	22070.96
859.19	22019.76
859.37	21941.94
859.54	21884.59
859.72	21804.72
859.89	21860.02
860.06	22081.20
860.24	21905.07
860.41	21782.20
860.59	21771.96
860.76	21913.27
860.94	21436.09
861.11	21687.99
861.29	21632.69
861.46	21698.23
861.64	21262.01
861.81	21425.85
861.98	21524.15
862.16	21581.49
862.33	21169.85
862.51	21284.54
862.68	21442.23
862.86	21130.94
863.03	21311.16
863.21	21475.00
863.38	21278.40
863.55	21446.33
863.73	21360.31
863.90	21126.85
864.08	20977.34
864.25	21020.35
864.43	21006.02
864.60	21128.89
864.77	20864.71
864.95	20829.89
865.12	20942.53
865.30	20600.52
865.47	20893.38
865.64	20844.23
865.82	20917.95
865.99	20809.41
866.17	20801.22
866.34	20727.49
866.51	20403.91
866.69	20543.17
866.86	20678.34
867.04	20569.80
867.21	20391.62
867.38	20659.91
867.56	20465.35
867.73	20176.59
867.91	20278.99
868.08	20307.66
868.25	20104.91
868.43	19996.37
868.60	20334.28
868.78	20244.17
868.95	20219.60
869.12	20487.88
869.30	19996.37
869.47	20211.40
869.64	20022.99
869.82	20162.25
869.99	20025.04
870.16	19726.04
870.34	19877.58
870.51	20072.14
870.69	19515.09
870.86	19810.00
871.03	19900.11
871.21	19853.01
871.38	19828.43
871.55	19492.57
871.73	19773.14
871.90	19582.68
872.07	19377.88
872.25	19273.43
872.42	19242.71
872.59	19416.79
872.77	19326.68
872.94	19437.27
873.11	19226.33
873.29	19422.94
873.46	19230.43
873.63	19011.29
873.81	19060.45
873.98	19029.73
874.15	18906.85
874.33	18730.72
874.50	18859.74
874.67	18976.48
874.85	18968.29
875.02	18769.63
875.19	18704.10
875.37	19093.21
875.54	18775.78
875.71	18804.45
875.88	18464.49
876.06	18616.04
876.23	18519.78
876.40	18613.99
876.58	18532.07
876.75	18593.51
876.92	18366.18
877.10	18235.11
877.27	18376.42
877.44	18265.83
877.61	18257.64
877.79	18026.22
877.96	18153.20
878.13	18179.82
878.31	18124.52
878.48	18038.51
878.65	17702.64
878.82	17985.26
879.00	18001.65
879.17	17858.29
879.34	17733.36
879.51	17420.02
879.69	17673.97
879.86	17676.02
880.03	17612.53
880.21	17549.04
880.38	17831.66
880.55	17604.34
880.72	17530.61
880.90	17508.08
881.07	17327.86
881.24	17540.85
881.41	17389.30
881.59	17420.02
881.76	17370.87
881.93	17438.45
882.10	17403.64
882.28	17327.86
882.45	17192.70
882.62	17245.94
882.79	17299.19
882.96	17008.38
883.14	17288.95
883.31	17239.80
883.48	16865.02
883.65	17174.27
883.83	17395.45
884.00	17030.91
884.17	16887.55
884.34	17219.32
884.51	17094.40
884.69	16858.88
884.86	16903.93
885.03	17006.33
885.20	16905.98
885.38	16930.56
885.55	16854.78
885.72	17075.96
885.89	16760.58
886.06	17030.91
886.24	16770.82
886.41	16688.90
886.58	16920.32
886.75	16848.64
886.92	16488.20
887.10	16781.06
887.27	16510.72
887.44	16547.59
887.61	16826.11
887.78	16752.38
887.95	16574.21
888.13	16246.54
888.30	16465.67
888.47	16320.26
888.64	16156.43
888.81	16355.08
888.99	16457.48
889.16	16166.67
889.33	16176.91
889.50	16123.66
889.67	15998.73
889.84	15943.44
890.01	16125.71
890.19	15892.24
890.36	16174.86
890.53	16031.50
890.70	15838.99
890.87	16066.31
891.04	15779.60
891.22	15793.94
891.39	15677.20
891.56	15699.73
891.73	15879.95
891.90	15886.09
892.07	15736.59
892.24	15791.89
892.42	15597.33
892.59	15740.69
892.76	15623.95
892.93	15587.09
893.10	15965.96
893.27	15736.59
893.44	15683.34
893.61	15509.27
893.79	15765.26
893.96	15515.41
894.13	15675.15
894.30	15722.26
894.47	15421.20
894.64	15570.71
894.81	15361.81
894.98	15630.10
895.15	15646.48
895.33	15525.65
895.50	15294.23
895.67	15527.70
895.84	15378.20
896.01	15322.90
896.18	15157.02
896.35	15660.82
896.52	15345.43
896.69	15003.42
896.86	15374.10
897.04	15116.06
897.21	15318.81
897.38	15267.61
897.55	15374.10
897.72	15439.64
897.89	15329.05
898.06	15355.67
898.23	15337.24
898.40	15187.74
898.57	15116.06
898.74	15009.56
898.91	15126.30
899.08	14868.25
899.26	15378.20
899.43	15193.88
899.60	15109.91
899.77	15195.93
899.94	15331.09
900.11	14806.81
900.28	15275.80
900.45	15044.38
900.62	14896.92
900.79	15091.48
900.96	15054.62
901.13	15118.11
901.30	14984.99
901.47	15005.47
901.64	15134.49
901.81	15015.71
901.98	14989.08
902.15	15353.62
902.32	14929.69
902.49	15085.34
902.66	15300.37
902.83	15120.15
903.01	14978.84
903.18	15177.50
903.35	14917.40
903.52	15286.04
903.69	15230.74
903.86	15243.03
904.03	15152.92
904.20	15134.49
904.37	15316.76
904.54	14950.17
904.71	15052.57
904.88	15146.78
905.05	15118.11
905.22	15404.82
905.39	15111.96
905.56	15165.21
905.73	14964.51
905.90	14966.56
906.07	15066.91
906.24	15152.92
906.41	14931.74
906.58	14978.84
906.75	15040.28
906.92	14804.77
907.09	15048.47
907.26	14888.73
907.43	14690.08
907.60	14872.35
907.77	15191.83
907.93	15081.24
908.10	14878.49
908.27	15148.82
908.44	14745.38
908.61	14827.29
908.78	14839.58
908.95	15154.97
909.12	14819.10
909.29	15011.61
909.46	14620.45
909.63	14829.34
909.80	14898.97
909.97	14827.29
910.14	14632.74
910.31	14851.87
910.48	14479.14
910.65	14589.73
910.82	14616.35
910.99	14649.12
911.16	14479.14
911.33	14651.17
911.50	14784.29
911.66	14425.89
911.83	14636.83
912.00	14645.02
912.17	14475.04
912.34	14692.13
912.51	14638.88
912.68	14530.34
912.85	14415.65
913.02	14634.78
913.19	14456.61
913.36	14456.61
913.53	14485.28
913.70	14518.05
913.86	14452.52
914.03	14255.91
914.20	14196.52
914.37	14227.24
914.54	14108.46
914.71	14118.70
914.88	14190.38
915.05	14141.22
915.22	13918.00
915.39	14036.78
915.55	14090.02
915.72	14055.21
915.89	13768.49
916.06	13659.95
916.23	14026.54
916.40	13799.21
916.57	13801.26
916.74	13709.10
916.91	13870.89
917.07	13688.62
917.24	13680.43
917.41	13778.73
917.58	13647.66
917.75	13707.05
917.92	13549.36
918.09	13582.13
918.26	13492.02
918.42	13453.11
918.59	13616.94
918.76	13668.14
918.93	13348.66
919.10	13346.61
919.27	13274.93
919.44	13469.49
919.60	13272.89
919.77	13369.14
919.94	13168.44
920.11	13147.96
920.28	13141.82
920.45	12975.93
920.61	12941.11
920.78	12982.07
920.95	12859.20
921.12	12734.27
921.29	12832.57
921.46	12660.54
921.62	12570.43
921.79	12562.24
921.96	12719.93
922.13	12625.73
922.30	12506.95
922.47	12668.73
922.63	12465.99
922.80	12418.88
922.97	12234.57
923.14	11976.52
923.31	12322.63
923.47	12164.93
923.64	12457.79
923.81	12037.96
923.98	12324.68
924.15	12130.12
924.32	12048.20
924.48	11951.95
924.65	12056.39
924.82	11794.25
924.99	11743.05
925.15	11775.82
925.32	11775.82
925.49	11693.90
925.66	11812.68
925.83	11343.70
925.99	11321.17
926.16	11677.52
926.33	11550.54
926.50	11380.56
926.67	11650.89
926.83	11480.91
927.00	11286.36
927.17	11489.10
927.34	11122.52
927.50	11284.31
927.67	11345.75
927.84	11095.89
928.01	11177.81
928.17	10934.11
928.34	10999.64
928.51	10917.72
928.68	10811.23
928.84	10882.91
929.01	10643.29
929.18	10555.23
929.35	10717.02
929.51	10643.29
929.68	10655.58
929.85	10506.08
930.02	10717.02
930.18	10438.50
930.35	10610.53
930.52	10413.92
930.69	10278.76
930.85	10471.26
931.02	10174.31
931.19	10178.40
931.36	10202.98
931.52	10313.57
931.69	10168.16
931.86	10119.01
932.02	9918.31
932.19	9863.02
932.36	9901.93
932.53	10018.66
932.69	9668.46
932.86	9883.50
933.03	9901.93
933.19	9465.71
933.36	9629.55
933.53	9633.64
933.70	9629.55
933.86	9549.68
934.03	9559.92
934.20	9432.94
934.36	9404.27
934.53	9168.76
934.70	8957.82
934.86	9199.48
935.03	9146.23
935.20	9041.78
935.36	9084.79
935.53	8943.48
935.70	8828.79
935.86	8771.45
936.03	8624.00
936.20	8423.30
936.36	8408.96
936.53	8548.22
936.70	8482.69
936.86	8554.37
937.03	8445.82
937.20	8021.89
937.36	8230.79
937.53	7860.10
937.70	7849.86
937.86	7813.00
938.03	7880.58
938.20	7761.80
938.36	7606.16
938.53	7573.39
938.70	7432.08
938.86	7509.90
939.03	7382.93
939.20	7190.42
939.36	7251.86
939.53	7147.41
939.70	7425.93
939.86	6725.53
940.03	6825.88
940.19	6739.87
940.36	6715.29
940.53	6750.10
940.69	6576.03
940.86	6619.04
941.03	6440.86
941.19	6369.18
941.36	6471.58
941.52	6358.94
941.69	6279.07
941.86	6279.07
942.02	6123.43
942.19	6016.93
942.35	6125.47
942.52	5894.05
942.69	5812.14
942.85	5926.82
943.02	5787.56
943.18	5775.27
943.35	5709.74
943.52	5738.41
943.68	5664.68
943.85	5687.21
944.01	5603.24
944.18	5689.26
944.35	5566.38
944.51	5517.23
944.68	5406.64
944.84	5578.67
945.01	5564.33
945.17	5380.01
945.34	5420.97
945.51	5316.53
945.67	5250.99
945.84	5359.53
946.00	5214.13
946.17	5392.30
946.33	5296.05
946.50	5294.00
946.67	5283.76
946.83	5242.80
947.00	5392.30
947.16	5187.50
947.33	5230.51
947.49	5261.23
947.66	5216.18
947.82	5322.67
947.99	5283.76
948.16	5353.39
948.32	5277.62
948.49	5271.47
948.65	5271.47
948.82	5148.59
948.98	5275.57
949.15	5132.21
949.31	5263.28
949.48	5341.10
949.64	5193.65
949.81	5263.28
949.97	5224.37
950.14	5332.91
950.30	5212.08
950.47	5285.81
950.63	5345.20
950.80	5316.53
950.96	5322.67
951.13	5300.14
951.30	5242.80
951.46	5271.47
951.63	5400.49
951.79	5115.83
951.96	5420.97
952.12	5253.04
952.29	5312.43
952.45	5361.58
952.62	5269.42
952.78	5439.40
952.94	5349.29
953.11	5373.87
953.27	5267.38
953.44	5496.75
953.60	5334.96
953.77	5449.64
953.93	5492.65
954.10	5451.69
954.26	5296.05
954.43	5574.57
954.59	5287.86
954.76	5574.57
954.92	5334.96
955.09	5351.34
955.25	5373.87
955.42	5496.75
955.58	5509.04
955.75	5425.07
955.91	5402.54
956.07	5509.04
956.24	5412.78
956.40	5484.46
956.57	5515.18
956.73	5504.94
956.90	5584.81
957.06	5349.29
957.23	5461.93
957.39	5447.60
957.56	5541.80
957.72	5367.73
957.88	5396.40
958.05	5398.45
958.21	5488.56
958.38	5545.90
958.54	5558.19
958.71	5640.11
958.87	5353.39
959.03	5435.31
959.20	5595.05
959.36	5326.77
959.53	5271.47
959.69	5355.44
959.85	5361.58
960.02	5457.84
960.18	5566.38
960.35	5492.65
960.51	5476.27
960.68	5441.45
960.84	5494.70
961.00	5582.76
961.17	5306.29
961.33	5533.61
961.50	5543.85
961.66	5461.93
961.82	5433.26
961.99	5337.01
962.15	5420.97
962.31	5353.39
962.48	5482.41
962.64	5646.25
962.81	5390.25
962.97	5283.76
963.13	5476.27
963.30	5437.36
963.46	5207.98
963.62	5435.31
963.79	5380.01
963.95	5396.40
964.12	5318.57
964.28	5365.68
964.44	5373.87
964.61	5425.07
964.77	5410.73
964.93	5392.30
965.10	5314.48
965.26	5328.81
965.42	5294.00
965.59	5320.62
965.75	5248.94
965.92	5433.26
966.08	5328.81
966.24	5320.62
966.41	5337.01
966.57	5343.15
966.73	5406.64
966.90	5228.46
967.06	5146.55
967.22	5226.42
967.39	5246.90
967.55	5294.00
967.71	5253.04
967.88	5212.08
968.04	5273.52
968.20	5134.26
968.37	5277.62
968.53	5148.59
968.69	5193.65
968.85	5255.09
969.02	5214.13
969.18	5388.21
969.34	5031.86
969.51	5093.30
969.67	5291.95
969.83	5052.34
970.00	5261.23
970.16	5132.21
970.32	5238.70
970.48	5242.80
970.65	5062.58
970.81	5029.81
970.97	5029.81
971.14	4913.08
971.30	5023.67
971.46	5035.96
971.63	4992.95
971.79	5101.49
971.95	4941.75
972.11	4935.60
972.28	5076.91
972.44	4941.75
972.60	4990.90
972.76	5064.63
972.93	4878.26
973.09	5062.58
973.25	4900.79
973.42	4896.69
973.58	4878.26
973.74	4827.06
973.90	4933.56
974.07	4820.92
974.23	4968.37
974.39	4890.55
974.55	4956.08
974.72	4884.41
974.88	4822.97
975.04	4769.72
975.20	4894.65
975.37	4956.08
975.53	4704.18
975.69	4845.49
975.85	4712.38
976.01	4761.53
976.18	4712.38
976.34	4700.09
976.50	4872.12
976.66	4822.97
976.83	4739.00
976.99	4747.19
977.15	4677.56
977.31	4650.94
977.47	4820.92
977.64	4591.55
977.80	4671.42
977.96	4689.85
978.12	4663.22
978.29	4480.96
978.45	4476.86
978.61	4536.25
978.77	4614.07
978.93	4575.16
979.10	4509.63
979.26	4521.92
979.42	4618.17
979.58	4470.72
979.74	4579.26
979.91	4687.80
980.07	4472.76
980.23	4603.83
980.39	4448.19
980.55	4550.59
980.71	4450.24
980.88	4364.22
981.04	4425.66
981.20	4556.73
981.36	4536.25
981.52	4356.03
981.68	4378.56
981.85	4528.06
982.01	4411.32
982.17	4351.93
982.33	4431.80
982.49	4485.05
982.65	4296.64
982.82	4386.75
982.98	4177.86
983.14	4247.49
983.30	4431.80
983.46	4323.26
983.62	4259.78
983.79	4091.84
983.95	4194.24
984.11	4153.28
984.27	4220.86
984.43	4204.48
984.59	4190.14
984.75	4179.90
984.91	4210.62
985.08	4245.44
985.24	4153.28
985.40	4130.75
985.56	4169.66
985.72	4179.90
985.88	4235.20
986.04	4118.47
986.20	4091.84
986.37	4220.86
986.53	4032.45
986.69	4243.39
986.85	3952.58
987.01	4093.89
987.17	4132.80
987.33	4067.27
987.49	4024.26
987.65	4022.21
987.82	4124.61
987.98	3962.82
988.14	3981.25
988.30	3944.39
988.46	3964.87
988.62	3852.23
988.78	3917.76
988.94	3897.28
989.10	3948.48
989.26	3788.74
989.42	3899.33
989.59	3776.45
989.75	3796.93
989.91	3905.48
990.07	3665.86
990.23	3815.37
990.39	3835.85
990.55	3907.52
990.71	3874.76
990.87	3819.46
991.03	3817.41
991.19	3788.74
991.35	3661.77
991.51	3862.47
991.67	3831.75
991.83	3803.08
992.00	3715.02
992.16	3889.09
992.32	3755.97
992.48	3776.45
992.64	3669.96
992.80	3727.30
992.96	3610.57
993.12	3817.41
993.28	3682.25
993.44	3616.71
993.60	3680.20
993.76	3596.23
993.92	3657.67
994.08	3737.54
994.24	3690.44
994.40	3690.44
994.56	3731.40
994.72	3585.99
994.88	3452.88
995.04	3600.33
995.20	3504.07
995.36	3520.46
995.52	3504.07
995.68	3545.03
995.84	3469.26
996.00	3661.77
996.16	3497.93
996.32	3491.79
996.48	3497.93
996.64	3551.18
996.80	3446.73
996.96	3528.65
997.12	3450.83
997.28	3332.05
997.44	3360.72
997.60	3354.57
997.76	3491.79
997.92	3467.21
998.08	3395.53
998.24	3393.48
998.40	3401.68
998.56	3401.68
998.72	3381.20
998.88	3321.81
999.04	3332.05
999.20	3397.58
999.36	3270.61
999.52	3495.88
999.68	3315.66
999.84	3325.90
1000.00	3297.23
1000.16	3264.46
1000.32	3319.76
1000.48	3424.20
1000.64	3223.50
1000.80	3258.32
1000.95	3217.36
1001.11	3305.42
1001.27	3256.27
1001.43	3231.69
1001.59	3133.39
1001.75	3207.12
1001.91	3160.02
1002.07	3024.85
1002.23	3076.05
1002.39	3100.62
1002.55	3160.02
1002.71	3155.92
1002.87	3231.69
1003.03	3039.19
1003.19	3143.63
1003.34	3252.17
1003.50	3045.33
1003.66	3164.11
1003.82	3209.17
1003.98	3067.86
1004.14	3133.39
1004.30	3071.95
1004.46	3028.95
1004.62	3076.05
1004.78	3051.47
1004.94	3016.66
1005.09	3125.20
1005.25	3033.04
1005.41	3024.85
1005.57	3008.47
1005.73	3014.61
1005.89	2957.27
1006.05	2951.12
1006.21	2951.12
1006.37	2959.31
1006.52	2992.08
1006.68	2961.36
1006.84	3014.61
1007.00	2955.22
1007.16	2942.93
1007.32	2901.97
1007.48	2918.36
1007.64	2869.20
1007.79	2985.94
1007.95	2830.29
1008.11	2957.27
1008.27	2867.16
1008.43	2801.62
1008.59	2885.59
1008.75	2887.64
1008.91	2983.89
1009.06	2789.33
1009.22	2961.36
1009.38	2822.10
1009.54	2891.73
1009.70	2787.29
1009.86	2811.86
1010.01	2867.16
1010.17	2830.29
1010.33	2885.59
1010.49	2787.29
1010.65	2836.44
1010.81	2799.57
1010.96	2762.71
1011.12	2672.60
1011.28	2785.24
1011.44	2809.81
1011.60	2852.82
1011.76	2731.99
1011.91	2777.05
1012.07	2629.59
1012.23	2541.53
1012.39	2672.60
1012.55	2721.75
1012.71	2627.54
1012.86	2684.89
1013.02	2596.82
1013.18	2629.59
1013.34	2674.65
1013.50	2635.74
1013.65	2666.46
1013.81	2590.68
1013.97	2635.74
1014.13	2674.65
1014.29	2576.34
1014.44	2596.82
1014.60	2664.41
1014.76	2576.34
1014.92	2576.34
1015.07	2617.30
1015.23	2551.77
1015.39	2525.15
1015.55	2478.04
1015.71	2551.77
1015.86	2539.48
1016.02	2516.95
1016.18	2537.43
1016.34	2498.52
1016.49	2500.57
1016.65	2543.58
1016.81	2510.81
1016.97	2482.14
1017.12	2527.19
1017.28	2492.38
1017.44	2387.93
1017.60	2422.75
1017.75	2441.18
1017.91	2549.72
1018.07	2443.23
1018.23	2486.23
1018.38	2389.98
1018.54	2469.85
1018.70	2492.38
1018.86	2457.56
1019.01	2514.91
1019.17	2377.69
1019.33	2441.18
1019.49	2428.89
1019.64	2355.16
1019.80	2394.08
1019.96	2480.09
1020.12	2424.80
1020.27	2334.68
1020.43	2371.55
1020.59	2441.18
1020.74	2400.22
1020.90	2375.64
1021.06	2330.59
1021.22	2437.08
1021.37	2346.97
1021.53	2349.02
1021.69	2346.97
1021.84	2314.20
1022.00	2320.35
1022.16	2328.54
1022.31	2246.62
1022.47	2338.78
1022.63	2258.91
1022.79	2279.39
1022.94	2314.20
1023.10	2361.31
1023.26	2287.58
1023.41	2308.06
1023.57	2256.86
1023.73	2275.29
1023.88	2246.62
1024.04	2152.42
1024.20	2230.24
1024.35	2361.31
1024.51	2336.73
1024.67	2248.67
1024.82	2308.06
1024.98	2224.09
1025.14	2226.14
1025.29	2242.53
1025.45	2269.15
1025.61	2250.72
1025.76	2248.67
1025.92	2191.33
1026.08	2277.34
1026.23	2193.37
1026.39	2330.59
1026.55	2230.24
1026.70	2181.09
1026.86	2154.46
1027.02	2240.48
1027.17	2170.85
1027.33	2232.29
1027.48	2107.36
1027.64	2150.37
1027.80	2138.08
1027.95	2236.38
1028.11	2115.55
1028.27	2158.56
1028.42	2207.71
1028.58	2117.60
1028.73	2174.94
1028.89	2080.74
1029.05	2117.60
1029.20	2133.98
>>>>>End Processed Spectral Data<<<<<
