SpectraSuite Data File
++++++++++++++++++++++++++++++++++++
Date: Fri Jun 02 14:47:59 CEST 2017
User: INFO_000
Dark Spectrum Present: No
Reference Spectrum Present: No
Number of Sampled Component Spectra: 1
Spectrometers: USB4H00879
Integration Time (usec): 80000 (USB4H00879)
Spectra Averaged: 1 (USB4H00879)
Boxcar Smoothing: 0 (USB4H00879)
Correct for Electrical Dark: No (USB4H00879)
Strobe/Lamp Enabled: No (USB4H00879)
Correct for Detector Non-linearity: No (USB4H00879)
Correct for Stray Light: No (USB4H00879)
Number of Pixels in Processed Spectrum: 3648
>>>>>Begin Processed Spectral Data<<<<<
345.13	1273.84
345.34	1273.84
345.56	1273.84
345.78	1271.79
345.99	1316.84
346.21	1761.25
346.42	1699.81
346.64	1679.33
346.86	1818.60
347.07	1658.85
347.29	1705.96
347.50	1640.42
347.72	1712.10
347.94	1744.87
348.15	1552.36
348.37	1609.70
348.59	1658.85
348.80	1642.47
349.02	1787.88
349.23	1970.15
349.45	1859.56
349.67	1863.65
349.88	1755.11
350.10	2009.06
350.31	1871.84
350.53	1804.26
350.75	1910.75
350.96	1785.83
351.18	1804.26
351.39	1796.07
351.61	1812.45
351.82	1886.18
352.04	1923.04
352.26	1798.12
352.47	1845.22
352.69	1910.75
352.90	1748.97
353.12	1877.99
353.34	1898.47
353.55	1974.24
353.77	1914.85
353.98	1929.19
354.20	1841.12
354.41	1992.67
354.63	1920.99
354.85	2031.58
355.06	1882.08
355.28	1775.59
355.49	1955.81
355.71	1894.37
355.92	1884.13
356.14	1986.53
356.35	1839.08
356.57	1871.84
356.79	1884.13
357.00	1875.94
357.22	1982.43
357.43	1845.22
357.65	2019.30
357.86	1826.79
358.08	1918.95
358.29	1986.53
358.51	1978.34
358.72	1933.28
358.94	1873.89
359.16	1974.24
359.37	1974.24
359.59	1951.71
359.80	2017.25
360.02	1968.10
360.23	1935.33
360.45	2052.06
360.66	1982.43
360.88	1923.04
361.09	1871.84
361.31	1953.76
361.52	2009.06
361.74	1978.34
361.95	2033.63
362.17	1959.91
362.38	2150.37
362.60	1964.00
362.81	2023.39
363.03	1904.61
363.24	1945.57
363.46	2064.35
363.67	1908.71
363.89	2043.87
364.10	1992.67
364.32	1947.62
364.53	2007.01
364.75	1839.08
364.96	2074.59
365.18	2047.97
365.39	2004.96
365.61	1961.95
365.82	2066.40
366.04	2080.74
366.25	1933.28
366.47	1964.00
366.68	1992.67
366.90	1982.43
367.11	2084.83
367.33	2097.12
367.54	2109.41
367.76	1986.53
367.97	2086.88
368.19	2041.82
368.40	2052.06
368.62	2052.06
368.83	1970.15
369.05	1953.76
369.26	2007.01
369.48	2021.35
369.69	2031.58
369.91	1998.82
370.12	2052.06
370.33	2154.46
370.55	1982.43
370.76	2015.20
370.98	2095.07
371.19	2054.11
371.41	1976.29
371.62	1994.72
371.84	1998.82
372.05	2072.54
372.27	2119.65
372.48	2066.40
372.69	2113.50
372.91	2140.13
373.12	2250.72
373.34	2113.50
373.55	2142.18
373.77	2138.08
373.98	2101.22
374.20	2203.61
374.41	2269.15
374.62	2142.18
374.84	2109.41
375.05	2209.76
375.27	2109.41
375.48	2232.29
375.70	2213.85
375.91	2133.98
376.12	2353.12
376.34	2138.08
376.55	2201.57
376.77	2181.09
376.98	2207.71
377.19	2133.98
377.41	2119.65
377.62	2254.81
377.84	2228.19
378.05	2303.96
378.27	2172.89
378.48	2277.34
378.69	2392.03
378.91	2308.06
379.12	2297.82
379.34	2179.04
379.55	2301.92
379.76	2252.77
379.98	2244.57
380.19	2246.62
380.41	2289.63
380.62	2252.77
380.83	2238.43
381.05	2207.71
381.26	2330.59
381.47	2176.99
381.69	2271.20
381.90	2355.16
382.12	2353.12
382.33	2306.01
382.54	2263.01
382.76	2287.58
382.97	2371.55
383.19	2217.95
383.40	2449.37
383.61	2285.53
383.83	2224.09
384.04	2246.62
384.25	2303.96
384.47	2349.02
384.68	2346.97
384.89	2273.25
385.11	2201.57
385.32	2330.59
385.54	2420.70
385.75	2373.60
385.96	2455.51
386.18	2404.32
386.39	2439.13
386.60	2330.59
386.82	2346.97
387.03	2426.84
387.24	2422.75
387.46	2346.97
387.67	2435.03
387.88	2502.62
388.10	2418.65
388.31	2504.67
388.52	2574.30
388.74	2523.10
388.95	2492.38
389.16	2541.53
389.38	2508.76
389.59	2482.14
389.80	2639.83
390.02	2549.72
390.23	2568.15
390.44	2570.20
390.66	2568.15
390.87	2527.19
391.08	2650.07
391.30	2680.79
391.51	2660.31
391.72	2615.26
391.94	2701.27
392.15	2639.83
392.36	2674.65
392.58	2600.92
392.79	2715.61
393.00	2688.98
393.22	2717.65
393.43	2723.80
393.64	2768.85
393.85	2826.20
394.07	2625.50
394.28	2754.52
394.49	2736.09
394.71	2863.06
394.92	2777.05
395.13	2697.17
395.35	2715.61
395.56	2672.60
395.77	2713.56
395.98	2822.10
396.20	2813.91
396.41	2789.33
396.62	2926.55
396.84	2729.94
397.05	2727.89
397.26	2961.36
397.47	2981.84
397.69	2762.71
397.90	3047.38
398.11	3026.90
398.32	2918.36
398.54	2918.36
398.75	2873.30
398.96	2963.41
399.18	3010.51
399.39	3043.28
399.60	2963.41
399.81	2901.97
400.03	2928.60
400.24	3272.65
400.45	3000.27
400.66	3104.72
400.88	2987.99
401.09	3262.41
401.30	2992.08
401.51	3063.76
401.73	3092.43
401.94	3076.05
402.15	3094.48
402.36	3020.75
402.58	3110.86
402.79	3121.10
403.00	3080.14
403.21	3299.28
403.43	3151.82
403.64	3270.61
403.85	3194.83
404.06	3166.16
404.27	3024.85
404.49	3131.34
404.70	3147.73
404.91	3264.46
405.12	3307.47
405.34	3162.06
405.55	3332.05
405.76	3114.96
405.97	3211.22
406.19	3280.85
406.40	3209.17
406.61	3219.41
406.82	3317.71
407.03	3239.89
407.25	3262.41
407.46	3452.88
407.67	3379.15
407.88	3346.38
408.09	3207.12
408.31	3395.53
408.52	3332.05
408.73	3303.37
408.94	3315.66
409.15	3338.19
409.37	3442.64
409.58	3540.94
409.79	3434.44
410.00	3538.89
410.21	3440.59
410.43	3416.01
410.64	3305.42
410.85	3583.95
411.06	3485.64
411.27	3461.07
411.48	3665.86
411.70	3475.40
411.91	3590.09
412.12	3579.85
412.33	3600.33
412.54	3479.50
412.76	3651.53
412.97	3680.20
413.18	3526.60
413.39	3608.52
413.60	3778.50
413.81	3614.66
414.03	3704.78
414.24	3659.72
414.45	3827.65
414.66	3573.71
414.87	3749.83
415.08	3680.20
415.30	3665.86
415.51	3864.52
415.72	3725.26
415.93	3747.78
416.14	3788.74
416.35	3846.09
416.56	3786.69
416.78	3749.83
416.99	3858.37
417.20	3801.03
417.41	3909.57
417.62	3913.67
417.83	3862.47
418.04	3839.94
418.26	3962.82
418.47	3907.52
418.68	4044.74
418.89	3946.44
419.10	4124.61
419.31	3975.11
419.52	4075.46
419.73	4014.02
419.95	4122.56
420.16	3919.81
420.37	4091.84
420.58	4059.07
420.79	3878.85
421.00	3977.16
421.21	4108.23
421.42	3985.35
421.63	4175.81
421.85	4095.94
422.06	4186.05
422.27	4200.38
422.48	4157.38
422.69	4214.72
422.90	4153.28
423.11	4204.48
423.32	4184.00
423.53	4517.82
423.75	4415.42
423.96	4442.04
424.17	4493.24
424.38	4474.81
424.59	4519.87
424.80	4630.46
425.01	4431.80
425.22	4407.23
425.43	4351.93
425.64	4601.79
425.85	4644.79
426.06	4624.31
426.28	4607.93
426.49	4509.63
426.70	4521.92
426.91	4648.89
427.12	4757.43
427.33	4652.98
427.54	4587.45
427.75	4825.01
427.96	4829.11
428.17	4718.52
428.38	4820.92
428.59	4876.21
428.80	4644.79
429.01	4808.63
429.23	4990.90
429.44	4986.80
429.65	4986.80
429.86	4855.73
430.07	4921.27
430.28	4818.87
430.49	4964.28
430.70	5076.91
430.91	5107.63
431.12	5033.91
431.33	5175.22
431.54	5042.10
431.75	5066.67
431.96	5074.87
432.17	5175.22
432.38	5250.99
432.59	5205.94
432.80	5281.71
433.01	5296.05
433.22	5162.93
433.43	5320.62
433.64	5171.12
433.85	5228.46
434.06	5447.60
434.27	5277.62
434.49	5304.24
434.70	5396.40
434.91	5373.87
435.12	5375.92
435.33	5373.87
435.54	5455.79
435.75	5189.55
435.96	5328.81
436.17	5267.38
436.38	5484.46
436.59	5423.02
436.80	5406.64
437.01	5642.15
437.22	5572.52
437.43	5574.57
437.64	5433.26
437.85	5699.50
438.06	5771.18
438.27	5515.18
438.48	5656.49
438.69	5808.04
438.90	5636.01
439.11	5646.25
439.32	5699.50
439.53	5728.17
439.74	5869.48
439.95	5849.00
440.16	5728.17
440.37	5752.74
440.57	5760.94
440.78	5939.11
440.99	5935.01
441.20	5851.05
441.41	5840.81
441.62	5875.62
441.83	5756.84
442.04	6086.56
442.25	5992.36
442.46	5883.81
442.67	6072.23
442.88	6467.49
443.09	6102.95
443.30	6025.12
443.51	6109.09
443.72	6324.13
443.93	6053.80
444.14	6373.28
444.35	5943.21
444.56	6270.88
444.77	6137.76
444.98	6295.46
445.19	6389.66
445.40	6299.55
445.61	6307.74
445.81	6434.72
446.02	6502.30
446.23	6356.90
446.44	6176.67
446.65	6533.02
446.86	6541.21
447.07	6571.93
447.28	6621.08
447.49	6559.64
447.70	6506.40
447.91	6760.34
448.12	6573.98
448.33	6696.86
448.54	6567.84
448.74	6737.82
448.95	6915.99
449.16	6610.84
449.37	7032.72
449.58	6629.27
449.79	6924.18
450.00	6662.04
450.21	6850.46
450.42	6946.71
450.63	6987.67
450.84	6895.51
451.05	7014.29
451.25	6948.76
451.46	6829.98
451.67	7245.71
451.88	7190.42
452.09	7266.19
452.30	7104.40
452.51	7059.35
452.72	7280.53
452.93	7557.00
453.13	7358.35
453.34	7169.94
453.55	7360.40
453.76	7317.39
453.97	7694.22
454.18	7409.55
454.39	7567.24
454.60	7524.24
454.81	7516.05
455.01	7823.24
455.22	7454.61
455.43	7454.61
455.64	7743.37
455.85	8036.23
456.06	8144.77
456.27	7769.99
456.48	7765.90
456.68	7950.21
456.89	7825.29
457.10	8085.38
457.31	8091.52
457.52	8048.52
457.73	7948.17
457.94	8308.61
458.14	8005.51
458.35	8535.93
458.56	8429.44
458.77	8097.67
458.98	8335.23
459.19	8396.67
459.39	8372.10
459.60	8503.17
459.81	8359.81
460.02	8570.75
460.23	8601.47
460.44	8722.30
460.65	8714.11
460.85	8644.48
461.06	8937.34
461.27	8843.13
461.48	8867.70
461.69	9041.78
461.89	8779.64
462.10	9013.11
462.31	8972.15
462.52	8974.20
462.73	8900.47
462.94	9082.74
463.14	9049.97
463.35	9127.80
463.56	9228.15
463.77	9363.31
463.98	9299.83
464.18	9283.44
464.39	9404.27
464.60	9629.55
464.81	9518.96
465.02	9453.42
465.23	9645.93
465.43	9557.87
465.64	9750.38
465.85	9906.02
466.06	9723.76
466.27	10039.14
466.47	10202.98
466.68	10037.09
466.89	10176.36
467.10	10063.72
467.30	9934.70
467.51	10121.06
467.72	10245.99
467.93	9975.66
468.14	10332.00
468.34	10608.48
468.55	10463.07
468.76	10368.87
468.97	10297.19
469.17	10461.02
469.38	10737.50
469.59	10887.00
469.80	10678.11
470.01	10674.01
470.21	10833.75
470.42	10973.02
470.63	11286.36
470.84	10850.14
471.04	11212.63
471.25	11290.45
471.46	11200.34
471.67	11433.81
471.87	11349.84
472.08	11470.67
472.29	11640.65
472.50	11306.84
472.70	11536.21
472.91	11603.79
473.12	11808.59
473.33	11700.05
473.53	11716.43
473.74	11681.61
473.95	12023.62
474.16	12296.00
474.36	12154.69
474.57	12404.55
474.78	12406.59
474.99	12357.44
475.19	12169.03
475.40	12726.08
475.61	12670.78
475.81	12924.73
476.02	13125.43
476.23	13047.61
476.44	13049.66
476.64	13098.81
476.85	13387.57
477.06	13131.58
477.27	13436.72
477.47	13623.09
477.68	13438.77
477.89	13543.22
478.09	13557.55
478.30	13700.91
478.51	13741.87
478.71	14010.15
478.92	14165.80
479.13	14405.41
479.34	14182.18
479.54	14331.69
479.75	14163.75
479.96	14427.94
480.16	14329.64
480.37	14649.12
480.58	14866.21
480.78	14993.18
480.99	14667.55
481.20	14970.65
481.41	15128.35
481.61	14929.69
481.82	15214.36
482.03	15218.46
482.23	15083.29
482.44	15800.08
482.65	15591.19
482.85	15591.19
483.06	15777.55
483.27	15882.00
483.47	15824.65
483.68	15937.29
483.89	16166.67
484.09	16271.11
484.30	16412.42
484.51	16578.31
484.71	16496.39
484.92	16516.87
485.13	16787.20
485.33	16819.97
485.54	16520.96
485.75	16910.08
485.95	17207.03
486.16	17213.18
486.37	17415.93
486.57	17190.65
486.78	17350.39
486.98	17520.37
487.19	17620.72
487.40	17665.78
487.60	17741.55
487.81	18175.72
488.02	18079.47
488.22	17999.60
488.43	18276.07
488.64	18302.70
488.84	18220.78
489.05	18409.19
489.25	18296.55
489.46	18458.34
489.67	18431.72
489.87	18878.18
490.08	19048.16
490.29	18935.52
490.49	19517.14
490.70	19255.00
490.90	19216.09
491.11	19445.46
491.32	19494.61
491.52	19476.18
491.73	19631.83
491.94	19875.54
492.14	19828.43
492.35	20178.64
492.55	20125.39
492.76	20168.40
492.97	20389.58
493.17	20311.75
493.38	20534.98
493.58	20717.25
493.79	20915.90
494.00	20612.81
494.20	20723.40
494.41	20850.37
494.61	21083.84
494.82	21071.55
495.02	21311.16
495.23	21368.51
495.44	21311.16
495.64	21556.92
495.85	21374.65
496.05	21780.15
496.26	21769.91
496.47	22146.73
496.67	21710.52
496.88	22077.10
497.08	21491.38
497.29	22148.78
497.49	22052.53
497.70	22415.02
497.91	22503.08
498.11	22515.37
498.32	22775.46
498.52	22632.10
498.73	22994.59
498.93	22834.85
499.14	22855.33
499.34	22910.63
499.55	23246.49
499.76	23180.96
499.96	23246.49
500.17	23332.51
500.37	23266.97
500.58	23283.36
500.78	23553.69
500.99	23314.08
501.19	23781.01
501.40	23619.22
501.60	23723.67
501.81	23752.34
502.02	23924.37
502.22	23887.51
502.43	24174.22
502.63	24397.45
502.84	24004.24
503.04	24379.02
503.25	24401.55
503.45	24262.29
503.66	24534.67
503.86	24718.98
504.07	24856.20
504.27	24495.75
504.48	25042.56
504.68	25065.09
504.89	25038.47
505.09	25147.01
505.30	25296.51
505.50	25353.85
505.71	25265.79
505.91	25276.03
506.12	25396.86
506.32	25470.59
506.53	25400.96
506.73	25380.48
506.94	25663.10
507.14	25478.78
507.35	25562.75
507.55	26029.68
507.76	25812.60
507.96	25720.44
508.17	25923.19
508.37	25962.10
508.58	26023.54
508.78	26318.45
508.99	26052.21
509.19	26367.60
509.40	26244.72
509.60	26531.44
509.81	26500.72
510.01	26166.90
510.22	26568.30
510.42	26117.75
510.63	26451.56
510.83	26349.17
511.04	26474.09
511.24	26662.51
511.44	27000.42
511.65	26639.98
511.85	26492.52
512.06	26975.84
512.26	27037.28
512.47	26769.00
512.67	26965.60
512.88	26928.74
513.08	26676.84
513.29	27244.13
513.49	26797.67
513.69	27090.53
513.90	27203.17
514.10	27280.99
514.31	27362.91
514.51	27493.98
514.72	27229.79
514.92	26895.97
515.13	27317.86
515.33	27481.69
515.53	27094.63
515.74	27450.97
515.94	27719.26
516.15	27405.92
516.35	27678.30
516.56	27971.16
516.76	27934.29
516.96	27911.77
517.17	28020.31
517.37	28096.08
517.58	28075.60
517.78	28028.50
517.99	27985.49
518.19	28089.94
518.39	28225.11
518.60	28241.49
518.80	28411.47
519.01	28532.30
519.21	28354.13
519.41	28712.52
519.62	28489.29
519.82	28450.38
520.03	28857.93
520.23	28622.41
520.43	28851.78
520.64	28757.58
520.84	28978.76
521.05	28989.00
521.25	29113.92
521.45	28976.71
521.66	29419.07
521.86	28964.42
522.07	29304.38
522.27	29224.51
522.47	29353.54
522.68	29429.31
522.88	29079.11
523.08	29371.97
523.29	29836.86
523.49	29826.62
523.70	29640.25
523.90	30158.39
524.10	29931.06
524.31	30074.42
524.51	29777.47
524.71	30275.12
524.92	30012.98
525.12	30510.64
525.33	30508.59
525.53	30150.20
525.73	30864.94
525.94	30608.94
526.14	30393.90
526.34	30563.89
526.55	30977.58
526.75	30881.32
526.95	31254.05
527.16	31075.88
527.36	30950.95
527.56	31565.34
527.77	31389.22
527.97	31376.93
528.17	31149.60
528.38	31434.27
528.58	31538.72
528.78	31682.08
528.99	31563.29
529.19	31950.36
529.39	31669.79
529.60	32075.29
529.80	31770.14
530.00	31860.25
530.21	32200.21
530.41	32355.86
530.61	32218.64
530.82	32196.12
531.02	32433.68
531.22	32882.19
531.43	32579.09
531.63	32917.00
531.83	33111.56
532.04	33226.24
532.24	32720.40
532.44	33525.25
532.64	33447.43
532.85	33521.15
533.05	33611.26
533.25	33676.80
533.46	33719.81
533.66	33775.10
533.86	33359.36
534.07	33959.42
534.27	33832.44
534.47	34489.84
534.67	34522.61
534.88	34137.59
535.08	34518.51
535.28	35020.27
535.49	34518.51
535.69	35218.92
535.89	35036.65
536.09	35042.79
536.30	35249.64
536.50	35243.49
536.70	35411.43
536.91	35143.14
537.11	35313.13
537.31	35536.35
537.51	35644.90
537.72	35915.23
537.92	35896.80
538.12	36353.49
538.32	36120.02
538.53	36062.68
538.73	35845.60
538.93	36060.63
539.13	36554.19
539.34	36486.61
539.54	36400.60
539.74	36724.18
539.94	36744.66
540.15	36230.62
540.35	37150.15
540.55	37053.90
540.75	37232.07
540.96	37123.53
541.16	37295.56
541.36	37205.45
541.56	37567.94
541.77	37703.10
541.97	37576.13
542.17	37594.56
542.37	37502.40
542.58	38092.22
542.78	37764.54
542.98	37776.83
543.18	37916.09
543.38	38380.98
543.59	38251.96
543.79	38147.51
543.99	37995.96
544.19	38340.02
544.40	38628.79
544.60	38659.51
544.80	38712.75
545.00	38897.07
545.20	39202.22
545.41	38716.85
545.61	38831.54
545.81	39206.31
546.01	39286.18
546.21	38966.70
546.42	39114.16
546.62	39300.52
546.82	39284.14
547.02	39531.94
547.22	39300.52
547.43	39869.86
547.63	39800.22
547.83	40068.51
548.03	39853.47
548.23	39976.35
548.44	39538.08
548.64	40244.63
548.84	40078.75
549.04	40033.69
549.24	40293.79
549.45	40265.11
549.65	40306.07
549.85	40865.17
550.05	40605.08
550.25	40428.95
550.45	41209.23
550.66	40965.52
550.86	40648.08
551.06	41256.33
551.26	40811.92
551.46	41076.11
551.66	41223.56
551.87	40959.38
552.07	41328.01
552.27	41332.11
552.47	41350.54
552.67	41313.67
552.87	41549.19
553.07	41885.06
553.28	41528.71
553.48	41899.39
553.68	41457.03
553.88	41874.82
554.08	41979.26
554.28	41991.55
554.48	42102.14
554.69	42147.20
554.89	41960.83
555.09	41837.95
555.29	41893.25
555.49	41807.23
555.69	42438.01
555.89	42147.20
556.10	42538.36
556.30	42351.99
556.50	42616.18
556.70	42370.43
556.90	42485.11
557.10	42452.34
557.30	42413.43
557.50	42753.40
557.70	42661.24
557.91	43076.97
558.11	42476.92
558.31	43046.26
558.51	42898.80
558.71	42919.28
558.91	43208.04
559.11	42892.66
559.31	42859.89
559.51	43113.84
559.72	43062.64
559.92	43107.69
560.12	42835.31
560.32	43316.59
560.52	42990.96
560.72	43505.00
560.92	43693.41
561.12	43599.21
561.32	43789.67
561.52	43648.36
561.72	43867.49
561.93	43414.89
562.13	43836.77
562.33	43498.86
562.53	44066.14
562.73	43840.87
562.93	43785.57
563.13	43613.54
563.33	43783.52
563.53	43715.94
563.73	43404.65
563.93	43629.93
564.13	44307.80
564.33	43619.69
564.53	43763.04
564.74	44389.72
564.94	44107.10
565.14	43703.65
565.34	43754.85
565.54	44404.06
565.74	44027.23
565.94	44367.20
566.14	44324.19
566.34	43758.95
566.54	44725.59
566.74	43914.59
566.94	44543.32
567.14	44389.72
567.34	44098.91
567.54	44371.29
567.74	44483.93
567.94	44367.20
568.14	44629.34
568.34	44602.71
568.54	44383.58
568.74	44662.10
568.94	44236.12
569.14	44520.79
569.34	44623.19
569.54	44553.56
569.75	44479.83
569.95	44524.89
570.15	45135.18
570.35	44801.36
570.55	44479.83
570.75	44692.82
570.95	44801.36
571.15	44676.44
571.35	44338.52
571.55	45219.15
571.75	45200.72
571.95	45243.73
572.15	44778.84
572.35	45167.95
572.55	45028.69
572.75	44791.12
572.95	45090.13
573.15	44977.49
573.35	45278.54
573.55	45008.21
573.75	45235.53
573.95	45417.80
574.15	44997.97
574.35	45380.94
574.55	44750.17
574.75	45282.64
574.95	45370.70
575.15	45047.12
575.34	45376.84
575.54	45231.44
575.74	45614.41
575.94	45571.40
576.14	45692.23
576.34	45725.00
576.54	46013.76
576.74	45751.62
576.94	45641.03
577.14	45782.34
577.34	46042.43
577.54	45444.43
577.74	46011.71
577.94	45940.04
578.14	46247.23
578.34	46552.38
578.54	45434.19
578.74	45864.26
578.94	46132.54
579.14	46079.30
579.34	46163.26
579.54	46312.77
579.74	46394.68
579.94	46200.13
580.13	46484.79
580.33	46196.03
580.53	46462.27
580.73	46165.31
580.93	46423.36
581.13	46263.61
581.33	46632.25
581.53	46658.87
581.73	46439.74
581.93	46452.03
582.13	46507.32
582.33	46773.56
582.53	46734.65
582.73	46726.46
582.92	46873.91
583.12	47168.82
583.32	46955.83
583.52	46593.34
583.72	46863.67
583.92	46601.53
584.12	46814.52
584.32	47263.02
584.52	47164.72
584.72	47643.94
584.92	47256.88
585.11	47670.57
585.31	46959.92
585.51	47297.84
585.71	47467.82
585.91	47629.61
586.11	47299.89
586.31	47355.18
586.51	47447.34
586.71	47914.28
586.91	47744.30
587.10	47519.02
587.30	47631.66
587.50	47863.08
587.70	48133.41
587.90	47717.67
588.10	47930.66
588.30	47930.66
588.50	48088.35
588.69	48250.14
588.89	47727.91
589.09	48141.60
589.29	47770.92
589.49	48772.38
589.69	48018.72
589.89	48282.91
590.08	48493.85
590.28	48284.96
590.48	48438.56
590.68	48315.68
590.88	48342.30
591.08	48604.44
591.28	48616.73
591.47	48856.34
591.67	48633.11
591.87	48934.17
592.07	48694.55
592.27	49249.55
592.47	49098.00
592.67	48905.49
592.86	48436.51
593.06	48911.64
593.26	48893.21
593.46	49138.96
593.66	48921.88
593.86	48993.56
594.05	48852.25
594.25	49708.30
594.45	49341.71
594.65	49063.19
594.85	49089.81
595.05	49374.48
595.24	49620.23
595.44	49480.97
595.64	49755.40
595.84	49251.60
596.04	49702.15
596.23	49894.66
596.43	50205.95
596.63	49323.28
596.83	49782.02
597.03	49978.63
597.22	50541.82
597.42	49835.27
597.62	50404.61
597.82	50046.21
598.02	50265.34
598.21	50277.63
598.41	49839.37
598.61	50658.56
598.81	50455.81
599.01	50533.63
599.20	50975.99
599.40	50492.67
599.60	50750.71
599.80	50961.65
600.00	51182.84
600.19	51166.45
600.39	50613.50
600.59	50928.89
600.79	50978.04
600.98	51346.67
601.18	51393.78
601.38	51743.98
601.58	51461.36
601.78	51248.37
601.97	51473.65
602.17	51936.49
602.37	51291.38
602.57	52206.82
602.76	51713.26
602.96	51698.92
603.16	51852.52
603.36	51793.13
603.55	52194.53
603.75	51795.18
603.95	52192.48
604.15	52364.51
604.34	52219.11
604.54	52440.29
604.74	52278.50
604.94	52608.22
605.13	53103.83
605.33	52677.85
605.53	52690.14
605.73	52894.94
605.92	52452.58
606.12	53052.63
606.32	52847.83
606.52	52983.00
606.71	53181.65
606.91	53357.78
607.11	52954.33
607.30	53413.07
607.50	53273.81
607.70	53654.73
607.90	53368.02
608.09	52878.55
608.29	53488.85
608.49	53859.53
608.68	53636.30
608.88	53513.42
609.08	53832.91
609.28	53824.71
609.47	53126.36
609.67	54256.84
609.87	53646.54
610.06	54406.34
610.26	53726.41
610.46	54080.71
610.66	53974.22
610.85	54310.08
611.05	54117.57
611.25	54170.82
611.44	54054.09
611.64	54269.12
611.84	53834.95
612.03	53781.71
612.23	54559.94
612.43	54346.95
612.62	53826.76
612.82	54674.62
613.02	54064.33
613.21	54934.71
613.41	54068.42
613.61	54881.47
613.80	54287.56
614.00	54572.22
614.20	54793.40
614.39	54621.37
614.59	54844.60
614.79	54531.26
614.98	54748.35
615.18	54508.74
615.38	55200.95
615.57	54594.75
615.77	54899.90
615.97	54971.58
616.16	55205.05
616.36	54836.41
616.56	55454.90
616.75	54932.67
616.95	55065.78
617.15	55219.38
617.34	55129.27
617.54	54867.13
617.74	55473.33
617.93	55291.06
618.13	54799.55
618.32	55248.05
618.52	55028.92
618.72	55223.48
618.91	55381.17
619.11	55137.46
619.31	55272.63
619.50	54998.20
619.70	54998.20
619.90	55360.69
620.09	55059.64
620.29	55047.35
620.48	55284.92
620.68	55368.88
620.88	54715.58
621.07	55579.82
621.27	55213.24
621.46	54674.62
621.66	55127.22
621.86	55008.44
622.05	54361.28
622.25	55809.20
622.44	55264.44
622.64	54662.33
622.84	55592.11
623.03	54871.23
623.23	55381.17
623.42	55424.18
623.62	55352.50
623.82	55682.22
624.01	55278.77
624.21	55606.45
624.40	55313.59
624.60	55137.46
624.80	55375.03
624.99	55708.85
625.19	54578.37
625.38	56046.76
625.58	55784.62
625.77	55428.27
625.97	55264.44
626.17	54957.24
626.36	55119.03
626.56	55733.42
626.75	54813.88
626.95	55571.63
627.14	55168.18
627.34	55774.38
627.54	55284.92
627.73	55198.90
627.93	55461.04
628.12	55159.99
628.32	55176.37
628.51	55008.44
628.71	55067.83
628.90	55727.28
629.10	55559.34
629.30	55930.03
629.49	55690.41
629.69	55805.10
629.88	55485.62
630.08	55944.36
630.27	55743.66
630.47	55502.00
630.66	55112.89
630.86	55626.93
631.05	55121.08
631.25	55919.79
631.44	55401.65
631.64	55321.78
631.84	55700.65
632.03	56403.11
632.23	55682.22
632.42	55860.40
632.62	55692.46
632.81	55751.85
633.01	55841.96
633.20	55911.59
633.40	55770.28
633.59	55405.75
633.79	55442.61
633.98	55547.06
634.18	55762.09
634.37	55432.37
634.57	55436.47
634.76	55532.72
634.96	55530.67
635.15	55934.12
635.35	55407.79
635.54	55356.60
635.74	55717.04
635.93	55323.83
636.13	55723.18
636.32	55778.48
636.52	55145.65
636.71	55551.15
636.91	55342.26
637.10	55745.71
637.30	55340.21
637.49	55274.68
637.69	55450.80
637.88	55745.71
638.08	55329.97
638.27	55692.46
638.46	55813.29
638.66	55737.52
638.85	55645.36
639.05	55712.94
639.24	55565.49
639.44	55557.30
639.63	55422.13
639.83	55436.47
640.02	55420.08
640.22	55671.98
640.41	55581.87
640.61	54998.20
640.80	55413.94
640.99	55452.85
641.19	55821.48
641.38	55491.76
641.58	54910.14
641.77	55467.19
641.97	55100.60
642.16	55850.16
642.36	55522.48
642.55	55557.30
642.74	55139.51
642.94	55880.88
643.13	55538.86
643.33	55248.05
643.52	55370.93
643.72	55891.12
643.91	55469.23
644.10	55604.40
644.30	55811.24
644.49	55362.74
644.69	55801.00
644.88	55567.54
645.08	55182.52
645.27	55653.55
645.46	55549.10
645.66	55588.02
645.85	55336.12
646.05	55522.48
646.24	55723.18
646.43	55663.79
646.63	55942.31
646.82	55502.00
647.02	55571.63
647.21	55661.74
647.40	55579.82
647.60	55958.70
647.79	55925.93
647.99	55387.31
648.18	55467.19
648.37	55805.10
648.57	55751.85
648.76	55637.17
648.96	55307.44
649.15	55895.21
649.34	55641.26
649.54	55809.20
649.73	55530.67
649.92	56032.42
650.12	55833.77
650.31	55649.45
650.51	55391.41
650.70	55809.20
650.89	55282.87
651.09	56399.01
651.28	55723.18
651.47	55624.88
651.67	55792.81
651.86	56523.94
652.06	55440.56
652.25	55645.36
652.44	55631.02
652.64	55649.45
652.83	55616.69
653.02	55391.41
653.22	55706.80
653.41	55813.29
653.60	55461.04
653.80	55553.20
653.99	55940.27
654.18	55542.96
654.38	54975.67
654.57	55882.92
654.76	55481.52
654.96	55590.06
655.15	55237.81
655.34	55774.38
655.54	54744.25
655.73	55213.24
655.92	55553.20
656.12	55645.36
656.31	55647.41
656.50	55674.03
656.70	55502.00
656.89	55481.52
657.08	55833.77
657.28	55557.30
657.47	55770.28
657.66	55645.36
657.86	55616.69
658.05	55602.35
658.24	55540.91
658.43	55590.06
658.63	55858.35
658.82	55719.09
659.01	55514.29
659.21	55657.65
659.40	55868.59
659.59	55649.45
659.79	55696.56
659.98	55467.19
660.17	55563.44
660.36	55481.52
660.56	55690.41
660.75	55856.30
660.94	55887.02
661.14	55299.25
661.33	55252.15
661.52	54623.42
661.71	55751.85
661.91	55104.70
662.10	55309.49
662.29	56085.67
662.49	55669.93
662.68	55598.26
662.87	55440.56
663.06	55342.26
663.26	55190.71
663.45	55899.31
663.64	55571.63
663.83	55796.91
664.03	55637.17
664.22	55723.18
664.41	55770.28
664.60	55243.96
664.80	55291.06
664.99	55444.66
665.18	55223.48
665.37	55903.40
665.57	55901.36
665.76	55016.63
665.95	55686.32
666.14	55663.79
666.34	55282.87
666.53	55200.95
666.72	55393.46
666.91	55344.31
667.11	55428.27
667.30	55604.40
667.49	55588.02
667.68	55688.37
667.87	55407.79
668.07	55714.99
668.26	55551.15
668.45	55465.14
668.64	55219.38
668.84	56034.47
669.03	55608.50
669.22	55569.58
669.41	55409.84
669.60	55887.02
669.80	55403.70
669.99	55708.85
670.18	55215.29
670.37	55659.69
670.57	55592.11
670.76	55317.68
670.95	55489.71
671.14	55454.90
671.33	55123.13
671.53	55491.76
671.72	55461.04
671.91	55362.74
672.10	55293.11
672.29	55301.30
672.48	54932.67
672.68	55911.59
672.87	55200.95
673.06	54963.39
673.25	55059.64
673.44	55149.75
673.64	55649.45
673.83	54899.90
674.02	55231.67
674.21	55078.07
674.40	55403.70
674.59	55203.00
674.79	55379.12
674.98	55252.15
675.17	55743.66
675.36	55225.53
675.55	55727.28
675.74	55260.34
675.94	54949.05
676.13	55606.45
676.32	55205.05
676.51	55438.51
676.70	55745.71
676.89	55291.06
677.08	55682.22
677.28	55104.70
677.47	56022.19
677.66	55606.45
677.85	55758.00
678.04	55350.45
678.23	55682.22
678.42	55581.87
678.62	55405.75
678.81	55555.25
679.00	55383.22
679.19	55559.34
679.38	55692.46
679.57	55590.06
679.76	55153.85
679.96	55454.90
680.15	55004.34
680.34	55194.81
680.53	55352.50
680.72	55309.49
680.91	55729.33
681.10	55542.96
681.29	55596.21
681.48	55205.05
681.68	55155.89
681.87	55319.73
682.06	55579.82
682.25	55231.67
682.44	55225.53
682.63	55313.59
682.82	54699.20
683.01	55069.88
683.20	55252.15
683.39	55614.64
683.59	55211.19
683.78	55033.02
683.97	54435.01
684.16	55432.37
684.35	55143.61
684.54	55362.74
684.73	55428.27
684.92	55024.82
685.11	54721.72
685.30	55209.14
685.49	55274.68
685.69	55149.75
685.88	55289.01
686.07	54963.39
686.26	54787.26
686.45	55301.30
686.64	55153.85
686.83	55424.18
687.02	55325.88
687.21	55305.40
687.40	55151.80
687.59	55022.78
687.78	55186.61
687.97	55375.03
688.16	55260.34
688.35	55203.00
688.54	54842.56
688.74	55489.71
688.93	55094.46
689.12	54772.92
689.31	55313.59
689.50	55948.46
689.69	54770.88
689.88	54971.58
690.07	55190.71
690.26	55073.98
690.45	55391.41
690.64	54764.73
690.83	55297.20
691.02	54863.03
691.21	55129.27
691.40	55178.42
691.59	55270.58
691.78	54453.44
691.97	54838.46
692.16	54887.61
692.35	55358.64
692.54	55084.22
692.73	55141.56
692.92	54981.82
693.11	54838.46
693.30	54813.88
693.49	55030.97
693.68	55229.62
693.87	55295.16
694.06	55028.92
694.25	54740.16
694.44	54453.44
694.63	55123.13
694.82	55045.30
695.01	54869.18
695.20	55067.83
695.39	54844.60
695.58	54858.94
695.77	54824.12
695.96	54183.11
696.15	55260.34
696.34	54373.57
696.53	54365.38
696.72	54580.42
696.91	54361.28
697.10	54430.91
697.29	54465.73
697.48	54842.56
697.67	54596.80
697.86	54422.72
698.05	54238.40
698.24	54359.23
698.43	54195.40
698.62	54987.96
698.81	54715.58
699.00	54736.06
699.19	54389.95
699.38	54666.43
699.57	54271.17
699.76	54549.70
699.95	54310.08
700.14	54256.84
700.32	54394.05
700.51	54058.18
700.70	54580.42
700.89	54330.56
701.08	54244.55
701.27	54627.52
701.46	54789.31
701.65	54101.19
701.84	54097.09
702.03	54598.85
702.22	54576.32
702.41	54082.76
702.60	54043.85
702.79	54074.57
702.98	53714.12
703.17	54109.38
703.35	54109.38
703.54	53994.70
703.73	54539.46
703.92	54123.72
704.11	54262.98
704.30	53998.79
704.49	53750.99
704.68	54017.22
704.87	53619.92
705.06	54033.61
705.25	53859.53
705.43	54179.01
705.62	54058.18
705.81	53963.98
706.00	54066.38
706.19	53900.49
706.38	53849.29
706.57	53523.66
706.76	53646.54
706.95	53681.36
707.14	53507.28
707.32	53656.78
707.51	53204.18
707.70	53822.67
707.89	53916.87
708.08	53642.45
708.27	53810.38
708.46	53966.02
708.65	53423.31
708.84	53712.08
709.02	53556.43
709.21	53478.61
709.40	53787.85
709.59	53558.48
709.78	53046.49
709.97	53187.80
710.16	53558.48
710.34	52954.33
710.53	53378.26
710.72	53243.09
710.91	53525.71
711.10	53302.48
711.29	53214.42
711.48	52886.74
711.66	53138.65
711.85	52913.37
712.04	52866.27
712.23	53255.38
712.42	52817.11
712.61	53071.06
712.80	53093.59
712.98	53019.86
713.17	52712.67
713.36	53007.58
713.55	53159.12
713.74	52606.17
713.93	52706.52
714.11	52794.59
714.30	52565.21
714.49	52665.56
714.68	52823.26
714.87	52264.16
715.06	53206.23
715.24	52935.90
715.43	51950.82
715.62	52012.26
715.81	52288.74
716.00	52362.46
716.18	51899.62
716.37	52045.03
716.56	51999.97
716.75	52477.15
716.94	52155.62
717.12	52223.20
717.31	52485.34
717.50	52360.42
717.69	51899.62
717.88	51813.61
718.06	52188.39
718.25	52311.27
718.44	51999.97
718.63	51930.34
718.82	51504.37
719.00	51549.42
719.19	51739.88
719.38	51510.51
719.57	51303.67
719.76	51309.81
719.94	50871.54
720.13	51664.11
720.32	51041.53
720.51	51098.87
720.69	51057.91
720.88	50629.88
721.07	50877.69
721.26	50947.32
721.44	50806.01
721.63	51033.33
721.82	50423.04
722.01	50666.75
722.20	50859.26
722.38	50246.91
722.57	50345.22
722.76	50427.13
722.95	50402.56
723.13	50054.40
723.32	50300.16
723.51	49784.07
723.70	49603.85
723.88	50494.72
724.07	49722.63
724.26	50232.58
724.44	49435.92
724.63	50162.95
724.82	49902.85
725.01	49911.05
725.19	49833.22
725.38	49581.32
725.57	49493.26
725.76	49820.94
725.94	49210.64
726.13	49122.58
726.32	49581.32
726.51	49003.80
726.69	49661.19
726.88	49610.00
727.07	49354.00
727.25	49388.81
727.44	49378.57
727.63	49552.65
727.82	48938.26
728.00	49141.01
728.19	49282.32
728.38	49468.69
728.56	48923.93
728.75	49495.31
728.94	48813.34
729.12	49304.85
729.31	49128.72
729.50	48903.45
729.69	49069.33
729.87	48833.81
730.06	48950.55
730.25	48600.35
730.43	49298.70
730.62	49089.81
730.81	49204.50
730.99	49319.18
731.18	48667.93
731.37	49374.48
731.55	49251.60
731.74	49288.46
731.93	48950.55
732.11	48803.10
732.30	48745.75
732.49	48586.01
732.67	49003.80
732.86	48807.19
733.05	48868.63
733.23	48792.86
733.42	48663.83
733.61	48696.60
733.79	48882.97
733.98	48796.95
734.17	48448.80
734.35	48629.02
734.54	48338.21
734.73	48583.96
734.91	48768.28
735.10	48162.08
735.29	48418.08
735.47	48004.39
735.66	48215.33
735.84	48031.01
736.03	47912.23
736.22	48598.30
736.40	48198.94
736.59	48248.10
736.78	47836.45
736.96	48227.62
737.15	47924.52
737.33	48047.39
737.52	47955.24
737.71	48008.48
737.89	47519.02
738.08	47584.55
738.27	47463.72
738.45	47801.64
738.64	47742.25
738.82	47346.99
739.01	47131.95
739.20	47586.60
739.38	48071.97
739.57	47766.82
739.75	47494.44
739.94	47652.14
740.13	47414.57
740.31	47473.96
740.50	47043.89
740.68	47580.46
740.87	47310.13
741.06	47650.09
741.24	47617.32
741.43	46691.64
741.61	47326.51
741.80	47209.78
741.99	46857.52
742.17	46763.32
742.36	46888.24
742.54	47361.33
742.73	46857.52
742.91	47420.72
743.10	46402.88
743.29	47115.57
743.47	46781.75
743.66	47113.52
743.84	47023.41
744.03	46738.74
744.21	46738.74
744.40	46951.73
744.59	46468.41
744.77	46257.47
744.96	46650.68
745.14	46470.46
745.33	46388.54
745.51	46069.06
745.70	46413.12
745.88	46392.64
746.07	46181.70
746.26	45616.46
746.44	46349.63
746.63	45561.16
746.81	46136.64
747.00	45538.63
747.18	46040.39
747.37	46060.87
747.55	45880.64
747.74	46243.13
747.92	45385.04
748.11	45913.41
748.29	45737.29
748.48	45768.01
748.66	45329.74
748.85	45458.76
749.03	45743.43
749.22	45643.08
749.41	45065.55
749.59	45223.25
749.78	45213.01
749.96	44987.73
750.15	45591.88
750.33	45630.79
750.52	45522.25
750.70	45382.99
750.89	45022.54
751.07	45008.21
751.26	45278.54
751.44	44719.45
751.63	44967.25
751.81	44739.93
752.00	44787.03
752.18	45012.31
752.37	44881.24
752.55	44418.39
752.74	44481.88
752.92	44361.05
753.10	44547.42
753.29	44907.86
753.47	44436.83
753.66	44154.21
753.84	44569.94
754.03	44662.10
754.21	44143.97
754.40	44485.98
754.58	44508.50
754.77	44092.77
754.95	43963.75
755.14	43951.46
755.32	44062.05
755.51	43793.76
755.69	43965.79
755.88	43842.92
756.06	44195.17
756.24	43881.83
756.43	43670.89
756.61	44082.53
756.80	43474.28
756.98	43480.42
757.17	43994.46
757.35	43660.65
757.54	43355.50
757.72	43908.45
757.90	43365.74
758.09	43392.36
758.27	43527.53
758.46	43126.13
758.64	42997.10
758.83	43752.80
759.01	43228.52
759.19	43216.24
759.38	42952.05
759.56	43562.34
759.75	43535.72
759.93	42734.96
760.12	43136.37
760.30	42810.74
760.48	42919.28
760.67	43017.58
760.85	43152.75
761.04	42773.88
761.22	42751.35
761.40	42677.62
761.59	42696.05
761.77	42823.03
761.96	42564.98
762.14	42411.38
762.32	42347.90
762.51	42122.62
762.69	42644.85
762.88	42712.44
763.06	42444.15
763.24	42587.51
763.43	42186.11
763.61	42276.22
763.80	42481.02
763.98	41577.86
764.16	42343.80
764.35	41614.72
764.53	41602.44
764.72	41727.36
764.90	42231.16
765.08	41735.56
765.27	41997.70
765.45	41014.67
765.63	41096.59
765.82	41299.34
766.00	41203.08
766.18	41690.50
766.37	41624.96
766.55	41338.25
766.74	41221.52
766.92	41194.89
767.10	41153.93
767.29	41239.95
767.47	40965.52
767.65	41358.73
767.84	40885.65
768.02	41416.07
768.20	40512.92
768.39	40904.08
768.57	41024.91
768.75	40949.14
768.94	40781.20
769.12	40793.49
769.30	40779.15
769.49	40662.42
769.67	40742.29
769.85	40617.36
770.04	40410.52
770.22	40568.21
770.40	40396.18
770.59	40123.80
770.77	40447.38
770.95	40273.31
771.14	40230.30
771.32	39992.73
771.50	40127.90
771.69	40019.36
771.87	40123.80
772.05	40031.65
772.24	39912.86
772.42	40265.11
772.60	39509.41
772.78	40125.85
772.97	39824.80
773.15	40037.79
773.33	39792.03
773.52	39607.72
773.70	39916.96
773.88	40002.97
774.07	39998.88
774.25	39652.77
774.43	40037.79
774.61	39841.18
774.80	39837.09
774.98	39828.90
775.16	39929.25
775.34	40185.24
775.53	39972.25
775.71	39873.95
775.89	39949.73
776.08	39673.25
776.26	39974.30
776.44	40123.80
776.62	39906.72
776.81	39759.27
776.99	39933.34
777.17	39724.45
777.35	39835.04
777.54	40246.68
777.72	39947.68
777.90	40111.52
778.08	40461.72
778.27	40261.02
778.45	40138.14
778.63	40347.03
778.81	40203.67
779.00	40277.40
779.18	40193.43
779.36	40488.34
779.54	40150.43
779.73	40125.85
779.91	40756.63
780.09	40383.90
780.27	40523.16
780.46	40582.55
780.64	40465.81
780.82	40725.91
781.00	40480.15
781.19	40584.60
781.37	40619.41
781.55	40375.70
781.73	40922.51
781.91	40541.59
782.10	40422.81
782.28	40822.16
782.46	40723.86
782.64	41010.57
782.82	40869.26
783.01	40707.47
783.19	40834.45
783.37	40922.51
783.55	40727.95
783.74	41170.32
783.92	40592.79
784.10	41211.28
784.28	40725.91
784.46	41014.67
784.64	40811.92
784.83	40963.47
785.01	41074.06
785.19	40848.78
785.37	41166.22
785.55	40826.26
785.74	40777.11
785.92	40658.32
786.10	41002.38
786.28	40818.07
786.46	40605.08
786.64	40615.32
786.83	40527.25
787.01	40709.52
787.19	41082.25
787.37	40854.93
787.55	40609.17
787.74	40420.76
787.92	40633.75
788.10	40431.00
788.28	40045.98
788.46	40658.32
788.64	40301.98
788.82	40813.97
789.01	40439.19
789.19	40566.16
789.37	39808.42
789.55	40267.16
789.73	40136.09
789.91	39902.62
790.09	39771.55
790.28	39908.77
790.46	39714.21
790.64	39966.11
790.82	39839.14
791.00	39552.42
791.18	39237.03
791.36	39749.03
791.55	39552.42
791.73	39402.92
791.91	39189.93
792.09	39234.99
792.27	39216.55
792.45	39267.75
792.63	39204.27
792.81	39048.62
793.00	39333.29
793.18	39273.90
793.36	38938.03
793.54	39458.21
793.72	38927.79
793.90	38632.88
794.08	38655.41
794.26	38888.88
794.44	38397.37
794.62	38258.10
794.81	38428.09
794.99	38823.34
795.17	38571.44
795.35	38135.23
795.53	38239.67
795.71	38145.47
795.89	38153.66
796.07	37680.58
796.25	37868.99
796.43	37758.40
796.61	37840.32
796.80	37438.92
796.98	37610.95
797.16	37330.37
797.34	37705.15
797.52	37404.10
797.70	37791.17
797.88	37381.57
798.06	37344.71
798.24	37101.00
798.42	37234.12
798.60	36845.01
798.78	36931.02
798.96	36728.27
799.14	36427.22
799.32	36728.27
799.51	36519.38
799.69	36605.39
799.87	37123.53
800.05	36554.19
800.23	36560.34
800.41	36394.45
800.59	36378.07
800.77	36181.46
800.95	35657.18
801.13	36062.68
801.31	35728.86
801.49	35929.56
801.67	35880.41
801.85	36066.78
802.03	35214.82
802.21	35491.30
802.39	35706.34
802.57	35395.04
802.75	35450.34
802.93	35218.92
803.11	34948.59
803.29	34971.11
803.47	34819.56
803.65	34948.59
803.83	35124.71
804.01	34862.57
804.19	34758.13
804.37	34397.68
804.55	34754.03
804.73	34911.72
804.91	34508.27
805.09	34461.17
805.27	34610.67
805.45	34301.43
805.63	34563.57
805.81	34188.79
805.99	34502.13
806.17	34010.62
806.35	33734.14
806.53	33707.52
806.71	33900.03
806.89	33953.27
807.07	34147.83
807.25	33871.36
807.43	33670.65
807.61	33936.89
807.79	33775.10
807.97	33547.78
808.15	33422.85
808.33	33355.27
808.51	33007.11
808.69	33367.55
808.87	33166.85
809.05	32972.30
809.23	33289.73
809.41	32994.82
809.59	33023.50
809.77	33140.23
809.95	33105.41
810.13	33334.79
810.31	32978.44
810.49	32679.44
810.67	32847.37
810.84	32478.74
811.02	32378.39
811.20	32445.97
811.38	32439.82
811.56	32523.79
811.74	32366.10
811.92	32581.13
812.10	32232.98
812.28	32511.50
812.46	32075.29
812.64	32196.12
812.82	31954.46
813.00	32169.49
813.18	32239.12
813.36	31919.64
813.53	31860.25
813.71	31751.71
813.89	31741.47
814.07	31579.68
814.25	31548.96
814.43	31661.60
814.61	31792.67
814.79	31235.62
814.97	31524.38
815.15	31579.68
815.33	31170.08
815.50	30979.62
815.68	31458.85
815.86	31366.69
816.04	31071.78
816.22	31086.12
816.40	31082.02
816.58	30807.59
816.76	30807.59
816.94	31122.98
817.11	31151.65
817.29	31020.58
817.47	30600.75
817.65	30938.66
817.83	30875.18
818.01	30328.37
818.19	30418.48
818.37	30336.56
818.54	30121.52
818.72	30156.34
818.90	30135.86
819.08	30553.65
819.26	30332.47
819.44	30342.70
819.62	30195.25
819.80	30260.79
819.97	30391.86
820.15	30287.41
820.33	30129.72
820.51	30031.41
820.69	29650.49
820.87	29759.03
821.05	30068.28
821.22	29888.06
821.40	29849.14
821.58	29843.00
821.76	29591.10
821.94	29605.44
822.12	29462.08
822.29	29470.27
822.47	29255.23
822.65	29439.55
822.83	29257.28
823.01	29374.02
823.19	28939.85
823.36	29380.16
823.54	29152.84
823.72	29167.17
823.90	29294.14
824.08	28841.54
824.25	29242.95
824.43	28831.30
824.61	28788.30
824.79	28954.18
824.97	28679.75
825.15	28927.56
825.32	28857.93
825.50	28337.74
825.68	28667.47
825.86	28898.89
826.04	28585.55
826.21	28610.12
826.39	28444.24
826.57	28489.29
826.75	28411.47
826.93	28159.57
827.10	28182.10
827.28	28603.98
827.46	28270.16
827.64	28235.35
827.81	28327.50
827.99	28382.80
828.17	28403.28
828.35	27887.19
828.53	27895.38
828.70	27938.39
828.88	27967.06
829.06	28065.36
829.24	28026.45
829.41	27643.48
829.59	28130.90
829.77	27762.26
829.95	28085.84
830.12	27659.87
830.30	27631.19
830.48	27788.89
830.66	27600.47
830.84	27506.27
831.01	27534.94
831.19	27623.00
831.37	27473.50
831.55	27098.72
831.72	27158.11
831.90	27420.25
832.08	27444.83
832.25	27012.71
832.43	27610.71
832.61	27119.20
832.79	27295.33
832.96	27100.77
833.14	27352.67
833.32	27577.95
833.50	27274.85
833.67	27498.08
833.85	27262.56
834.03	26934.88
834.20	26836.58
834.38	26924.65
834.56	26945.12
834.74	26877.54
834.91	26785.38
835.09	26644.07
835.27	26463.85
835.44	26353.26
835.62	26535.53
835.80	26674.79
835.98	26551.91
836.15	26619.50
836.33	26175.09
836.51	26594.92
836.68	26529.39
836.86	26244.72
837.04	26422.89
837.21	26365.55
837.39	26617.45
837.57	26502.76
837.75	26310.25
837.92	25855.61
838.10	25904.76
838.28	26003.06
838.45	26084.98
838.63	25777.78
838.81	25738.87
838.98	25675.38
839.16	25876.09
839.34	25687.67
839.51	25523.83
839.69	25458.30
839.87	25364.09
840.04	25564.79
840.22	25886.32
840.40	25482.88
840.57	25233.02
840.75	25476.73
840.93	25280.13
841.10	25429.63
841.28	25568.89
841.46	25280.13
841.63	25679.48
841.81	25575.03
841.98	25329.28
842.16	25341.57
842.34	25140.86
842.51	25241.21
842.69	24972.93
842.87	25190.02
843.04	25484.92
843.22	24776.33
843.40	25183.87
843.57	24981.12
843.75	25110.14
843.92	25052.80
844.10	24960.64
844.28	25212.54
844.45	24825.48
844.63	24880.77
844.81	24675.98
844.98	24731.27
845.16	24874.63
845.33	24862.34
845.51	24669.83
845.69	24471.18
845.86	24764.04
846.04	24274.57
846.21	24686.22
846.39	24493.71
846.57	24477.32
846.74	24161.94
846.92	24436.36
847.09	24440.46
847.27	23969.43
847.45	24088.21
847.62	24544.91
847.80	24409.74
847.97	23910.04
848.15	24174.22
848.32	23826.07
848.50	24110.74
848.68	23942.80
848.85	23793.30
849.03	23953.04
849.20	23856.79
849.38	24026.77
849.56	23879.32
849.73	23758.49
849.91	23830.16
850.08	23729.81
850.26	23588.50
850.43	23559.83
850.61	23615.13
850.78	23047.84
850.96	23512.73
851.14	23688.85
851.31	23428.76
851.49	23209.63
851.66	23647.90
851.84	23373.47
852.01	23576.22
852.19	23346.84
852.36	23578.26
852.54	23049.89
852.71	23223.97
852.89	23256.73
853.07	22996.64
853.24	23004.83
853.42	23142.05
853.59	23099.04
853.77	23381.66
853.94	23056.03
854.12	23160.48
854.29	22795.94
854.47	22824.61
854.64	22843.04
854.82	22900.39
854.99	23207.58
855.17	22654.63
855.34	22720.17
855.52	22664.87
855.69	22695.59
855.87	22597.29
856.04	22498.98
856.22	22644.39
856.39	22339.24
856.57	22406.83
856.74	22329.00
856.92	22709.93
857.09	22273.71
857.27	22245.04
857.44	22687.40
857.62	22468.27
857.79	22259.37
857.97	22267.56
858.14	22171.31
858.32	22245.04
858.49	22214.32
858.67	22275.76
858.84	22140.59
859.02	22161.07
859.19	21829.30
859.37	21636.79
859.54	22130.35
859.72	21837.49
859.89	21597.88
860.06	22138.54
860.24	21948.08
860.41	22060.72
860.59	21583.54
860.76	21847.73
860.94	21579.45
861.11	21780.15
861.29	21327.55
861.46	21589.69
861.64	21563.06
861.81	21487.29
861.98	21458.62
862.16	21294.78
862.33	21339.83
862.51	21333.69
862.68	21538.49
862.86	21243.58
863.03	21343.93
863.21	21110.46
863.38	21454.52
863.55	21171.90
863.73	21296.83
863.90	21298.88
864.08	21137.09
864.25	20973.25
864.43	21108.41
864.60	20991.68
864.77	20928.19
864.95	20713.16
865.12	20887.23
865.30	20889.28
865.47	20891.33
865.64	20862.66
865.82	20772.55
865.99	20860.61
866.17	20565.70
866.34	20676.29
866.51	20473.54
866.69	20498.12
866.86	20764.36
867.04	20725.44
867.21	20463.30
867.38	20301.51
867.56	20266.70
867.73	20729.54
867.91	20514.50
868.08	20012.75
868.25	20164.30
868.43	20362.95
868.60	20006.61
868.78	20109.01
868.95	20391.62
869.12	20154.06
869.30	20262.60
869.47	20186.83
869.64	19986.13
869.82	20049.61
869.99	19773.14
870.16	19902.16
870.34	19967.70
870.51	19846.87
870.69	19812.05
870.86	19734.23
871.03	19654.36
871.21	19611.35
871.38	19826.39
871.55	19375.83
871.73	19261.15
871.90	19599.06
872.07	19310.30
872.25	19306.20
872.42	19330.78
872.59	19365.59
872.77	19298.01
872.94	19074.78
873.11	19287.77
873.29	19042.01
873.46	18779.87
873.63	18829.02
873.81	18865.89
873.98	19013.34
874.15	18917.09
874.33	18849.50
874.50	18722.53
874.67	18865.89
874.85	18765.54
875.02	18564.84
875.19	18550.50
875.37	18587.36
875.54	18540.26
875.71	18708.19
875.88	18368.23
876.06	18644.71
876.23	18624.23
876.40	18196.20
876.58	18482.92
876.75	18259.69
876.92	18097.90
877.10	18343.66
877.27	18102.00
877.44	18177.77
877.61	18026.22
877.79	17870.58
877.96	18134.76
878.13	18179.82
878.31	17932.01
878.48	17725.17
878.65	17966.83
878.82	17526.52
879.00	17800.94
879.17	17768.18
879.34	17876.72
879.51	17503.99
879.69	17604.34
879.86	17516.28
880.03	17458.93
880.21	17530.61
880.38	17528.56
880.55	17198.84
880.72	17442.55
880.90	17420.02
881.07	17463.03
881.24	17164.03
881.41	17430.26
881.59	17258.23
881.76	17377.01
881.93	17043.20
882.10	16963.33
882.28	16781.06
882.45	17452.79
882.62	16994.04
882.79	17063.68
882.96	16754.43
883.14	17137.40
883.31	17245.94
883.48	17010.43
883.65	17022.72
883.83	17059.58
884.00	17024.76
884.17	17012.48
884.34	17123.07
884.51	16860.93
884.69	16754.43
884.86	16656.13
885.03	16971.52
885.20	16668.42
885.38	16897.79
885.55	16514.82
885.72	16590.59
885.89	16627.46
886.06	16787.20
886.24	16473.86
886.41	16598.79
886.58	16578.31
886.75	16443.14
886.92	16412.42
887.10	16654.08
887.27	16369.41
887.44	16238.34
887.61	16541.44
887.78	16508.68
887.95	16598.79
888.13	16271.11
888.30	16187.14
888.47	16228.10
888.64	16156.43
888.81	16324.36
888.99	16219.91
889.16	15925.00
889.33	16160.52
889.50	16017.16
889.67	15882.00
889.84	15738.64
890.01	15816.46
890.19	15853.33
890.36	15955.72
890.53	15898.38
890.70	15746.83
890.87	15619.86
891.04	15683.34
891.22	15726.35
891.39	15626.00
891.56	15445.78
891.73	15755.02
891.90	15435.54
892.07	15279.89
892.24	15363.86
892.42	15529.75
892.59	15398.68
892.76	15269.66
892.93	15466.26
893.10	15374.10
893.27	15513.36
893.44	15185.69
893.61	15382.29
893.79	15701.78
893.96	15415.06
894.13	15365.91
894.30	15318.81
894.47	15376.15
894.64	15394.58
894.81	15216.41
894.98	15283.99
895.15	15376.15
895.33	15376.15
895.50	15032.09
895.67	15343.38
895.84	15193.88
896.01	15183.64
896.18	14946.08
896.35	15124.25
896.52	15210.26
896.69	15066.91
896.86	15410.96
897.04	15212.31
897.21	14905.12
897.38	15032.09
897.55	15302.42
897.72	15167.26
897.89	15255.32
898.06	14960.41
898.23	15046.43
898.40	15134.49
898.57	15173.40
898.74	15009.56
898.91	15210.26
899.08	15167.26
899.26	14890.78
899.43	15124.25
899.60	14927.64
899.77	15093.53
899.94	14978.84
900.11	14958.36
900.28	14995.23
900.45	14831.39
900.62	14815.01
900.79	15023.90
900.96	15048.47
901.13	14941.98
901.30	14804.77
901.47	14755.61
901.64	14923.55
901.81	15185.69
901.98	14782.24
902.15	15027.99
902.32	14765.85
902.49	14841.63
902.66	15001.37
902.83	14831.39
903.01	14829.34
903.18	15081.24
903.35	14933.79
903.52	14933.79
903.69	15046.43
903.86	15001.37
904.03	14993.18
904.20	15120.15
904.37	15017.75
904.54	14815.01
904.71	14810.91
904.88	14726.94
905.05	14931.74
905.22	14958.36
905.39	14876.44
905.56	14870.30
905.73	14769.95
905.90	14929.69
906.07	14858.01
906.24	14917.40
906.41	14878.49
906.58	14833.44
906.75	14698.27
906.92	14669.60
907.09	14587.68
907.26	14726.94
907.43	14765.85
907.60	14792.48
907.77	15116.06
907.93	14925.60
908.10	14612.26
908.27	14958.36
908.44	14651.17
908.61	14610.21
908.78	14776.09
908.95	14712.61
909.12	14626.59
909.29	14649.12
909.46	14675.74
909.63	14765.85
909.80	14624.54
909.97	14747.42
910.14	14573.35
910.31	14604.07
910.48	14593.83
910.65	14602.02
910.82	14411.56
910.99	14653.22
911.16	14634.78
911.33	14655.26
911.50	14364.45
911.66	14286.63
911.83	14597.92
912.00	14485.28
912.17	14104.36
912.34	14280.49
912.51	14386.98
912.68	14288.68
912.85	14311.21
913.02	14161.70
913.19	14188.33
913.36	14321.45
913.53	14413.60
913.70	14323.49
913.86	14208.81
914.03	14114.60
914.20	14180.14
914.37	14206.76
914.54	14266.15
914.71	14184.23
914.88	13868.84
915.05	14225.19
915.22	14139.18
915.39	14065.45
915.55	13971.24
915.72	13631.28
915.89	13834.03
916.06	13817.65
916.23	13803.31
916.40	13799.21
916.57	13723.44
916.74	13590.32
916.91	13672.24
917.07	13543.22
917.24	13758.25
917.41	13705.01
917.58	13678.38
917.75	13449.01
917.92	13371.19
918.09	13487.92
918.26	13291.32
918.42	13254.45
918.59	13225.78
918.76	13182.77
918.93	13248.31
919.10	13000.51
919.27	13057.85
919.44	13307.70
919.60	13221.69
919.77	13113.14
919.94	12951.35
920.11	12926.78
920.28	13018.94
920.45	12975.93
920.61	12683.07
920.78	12828.48
920.95	12955.45
921.12	12840.76
921.29	12588.86
921.46	12629.82
921.62	12232.52
921.79	12744.51
921.96	12420.93
922.13	12476.23
922.30	12414.79
922.47	12379.97
922.63	12289.86
922.80	12408.64
922.97	12103.50
923.14	12173.13
923.31	12205.89
923.47	12199.75
923.64	12300.10
923.81	11933.51
923.98	11984.71
924.15	11994.95
924.32	12050.25
924.48	11984.71
924.65	12068.68
924.82	11964.23
924.99	11927.37
925.15	11650.89
925.32	11798.35
925.49	11628.37
925.66	11509.58
925.83	11429.71
925.99	11462.48
926.16	11644.75
926.33	11509.58
926.50	11413.33
926.67	11392.85
926.83	11374.42
927.00	11269.97
927.17	11151.19
927.34	11226.96
927.50	11257.68
927.67	11353.94
927.84	11415.38
928.01	11157.33
928.17	10854.23
928.34	10991.45
928.51	10936.15
928.68	10930.01
928.84	10848.09
929.01	10583.90
929.18	10526.56
929.35	10745.69
929.51	10700.64
929.68	10458.98
929.85	10456.93
930.02	10536.80
930.18	10471.26
930.35	10348.39
930.52	10329.95
930.69	10346.34
930.85	10223.46
931.02	10286.95
931.19	10202.98
931.36	10196.84
931.52	10237.80
931.69	10377.06
931.86	10012.52
932.02	10008.42
932.19	9965.42
932.36	9748.33
932.53	9820.01
932.69	9901.93
932.86	9822.06
933.03	9770.86
933.19	9666.41
933.36	9643.88
933.53	9631.60
933.70	9500.53
933.86	9604.97
934.03	9576.30
934.20	9414.51
934.36	9463.66
934.53	9213.81
934.70	9183.09
934.86	9193.33
935.03	9133.94
935.20	8865.66
935.36	9031.54
935.53	9009.01
935.70	8796.03
935.86	8714.11
936.03	8560.51
936.20	8449.92
936.36	8441.73
936.53	8458.11
936.70	8226.69
936.86	8568.70
937.03	8406.91
937.20	8007.56
937.36	8103.81
937.53	7862.15
937.70	7964.55
937.86	7892.87
938.03	7718.79
938.20	7888.78
938.36	7640.97
938.53	7653.26
938.70	7366.54
938.86	7425.93
939.03	7397.26
939.20	7169.94
939.36	7147.41
939.53	7241.62
939.70	7272.34
939.86	6866.84
940.03	6950.81
940.19	6717.34
940.36	6856.60
940.53	6791.06
940.69	6690.71
940.86	6549.40
941.03	6494.11
941.19	6385.57
941.36	6371.23
941.52	6401.95
941.69	6143.91
941.86	6172.58
942.02	5982.12
942.19	6160.29
942.35	6113.19
942.52	5992.36
942.69	5965.73
942.85	5871.53
943.02	5857.19
943.18	5787.56
943.35	5760.94
943.52	5803.94
943.68	5599.15
943.85	5656.49
944.01	5623.72
944.18	5566.38
944.35	5586.86
944.51	5492.65
944.68	5312.43
944.84	5550.00
945.01	5437.36
945.17	5562.28
945.34	5339.05
945.51	5504.94
945.67	5451.69
945.84	5343.15
946.00	5351.34
946.17	5410.73
946.33	5255.09
946.50	5453.74
946.67	5377.97
946.83	5246.90
947.00	5339.05
947.16	5345.20
947.33	5291.95
947.49	5193.65
947.66	5203.89
947.82	5314.48
947.99	5244.85
948.16	5382.06
948.32	5070.77
948.49	5242.80
948.65	5300.14
948.82	5263.28
948.98	5099.44
949.15	5246.90
949.31	5242.80
949.48	5357.49
949.64	5326.77
949.81	5324.72
949.97	5316.53
950.14	5248.94
950.30	5160.88
950.47	5318.57
950.63	5416.88
950.80	5509.04
950.96	5441.45
951.13	5349.29
951.30	5363.63
951.46	5332.91
951.63	5459.88
951.79	5330.86
951.96	5441.45
952.12	5451.69
952.29	5302.19
952.45	5420.97
952.62	5294.00
952.78	5277.62
952.94	5404.59
953.11	5382.06
953.27	5279.66
953.44	5443.50
953.60	5363.63
953.77	5410.73
953.93	5433.26
954.10	5357.49
954.26	5394.35
954.43	5390.25
954.59	5435.31
954.76	5558.19
954.92	5492.65
955.09	5550.00
955.25	5459.88
955.42	5439.40
955.58	5523.37
955.75	5541.80
955.91	5431.21
956.07	5498.80
956.24	5599.15
956.40	5402.54
956.57	5451.69
956.73	5466.03
956.90	5513.13
957.06	5502.89
957.23	5502.89
957.39	5478.32
957.56	5500.84
957.72	5404.59
957.88	5500.84
958.05	5615.53
958.21	5638.06
958.38	5468.08
958.54	5459.88
958.71	5613.48
958.87	5449.64
959.03	5519.28
959.20	5595.05
959.36	5492.65
959.53	5547.95
959.69	5451.69
959.85	5482.41
960.02	5463.98
960.18	5590.95
960.35	5490.60
960.51	5556.14
960.68	5445.55
960.84	5582.76
961.00	5572.52
961.17	5515.18
961.33	5537.71
961.50	5484.46
961.66	5521.32
961.82	5482.41
961.99	5466.03
962.15	5406.64
962.31	5506.99
962.48	5365.68
962.64	5590.95
962.81	5468.08
962.97	5478.32
963.13	5525.42
963.30	5474.22
963.46	5377.97
963.62	5396.40
963.79	5337.01
963.95	5373.87
964.12	5506.99
964.28	5410.73
964.44	5294.00
964.61	5463.98
964.77	5543.85
964.93	5570.48
965.10	5365.68
965.26	5300.14
965.42	5314.48
965.59	5277.62
965.75	5310.38
965.92	5525.42
966.08	5396.40
966.24	5388.21
966.41	5355.44
966.57	5441.45
966.73	5337.01
966.90	5296.05
967.06	5289.90
967.22	5287.86
967.39	5318.57
967.55	5124.02
967.71	5429.17
967.88	5191.60
968.04	5363.63
968.20	5420.97
968.37	5316.53
968.53	5212.08
968.69	5150.64
968.85	5152.69
969.02	5234.61
969.18	5210.03
969.34	5113.78
969.51	5273.52
969.67	5269.42
969.83	5121.97
970.00	5250.99
970.16	5312.43
970.32	5185.46
970.48	5222.32
970.65	5072.82
970.81	5107.63
970.97	5117.87
971.14	4880.31
971.30	5191.60
971.46	5066.67
971.63	5031.86
971.79	5115.83
971.95	4997.04
972.11	5015.48
972.28	5001.14
972.44	5226.42
972.60	4929.46
972.76	5009.33
972.93	5078.96
973.09	4908.98
973.25	4915.12
973.42	4880.31
973.58	5054.39
973.74	4954.04
973.90	5068.72
974.07	5007.28
974.23	5011.38
974.39	4947.89
974.55	4968.37
974.72	4921.27
974.88	4874.17
975.04	4921.27
975.20	5021.62
975.37	4982.71
975.53	4941.75
975.69	5050.29
975.85	4757.43
976.01	4710.33
976.18	4845.49
976.34	4745.14
976.50	4804.53
976.66	4911.03
976.83	4757.43
976.99	4636.60
977.15	4691.90
977.31	4683.70
977.47	4839.35
977.64	4800.44
977.80	4835.25
977.96	4784.06
978.12	4728.76
978.29	4622.27
978.45	4571.07
978.61	4538.30
978.77	4833.21
978.93	4552.63
979.10	4573.11
979.26	4687.80
979.42	4648.89
979.58	4507.58
979.74	4560.83
979.91	4677.56
980.07	4558.78
980.23	4648.89
980.39	4528.06
980.55	4464.57
980.71	4526.01
980.88	4386.75
981.04	4427.71
981.20	4435.90
981.36	4517.82
981.52	4396.99
981.68	4378.56
981.85	4468.67
982.01	4419.52
982.17	4376.51
982.33	4431.80
982.49	4419.52
982.65	4538.30
982.82	4325.31
982.98	4259.78
983.14	4255.68
983.30	4456.38
983.46	4446.14
983.62	4237.25
983.79	4272.06
983.95	4151.23
984.11	4243.39
984.27	4294.59
984.43	4218.82
984.59	4306.88
984.75	4276.16
984.91	4257.73
985.08	4329.41
985.24	4124.61
985.40	4192.19
985.56	4177.86
985.72	4304.83
985.88	4151.23
986.04	4239.30
986.20	4100.03
986.37	4220.86
986.53	4067.27
986.69	4190.14
986.85	3977.16
987.01	4097.99
987.17	4155.33
987.33	4100.03
987.49	4163.52
987.65	4032.45
987.82	4024.26
987.98	3901.38
988.14	4061.12
988.30	3975.11
988.46	3981.25
988.62	3952.58
988.78	4005.83
988.94	3971.01
989.10	3960.77
989.26	3860.42
989.42	3870.66
989.59	3768.26
989.75	3760.07
989.91	4005.83
990.07	3813.32
990.23	3905.48
990.39	3942.34
990.55	3895.24
990.71	3796.93
990.87	3907.52
991.03	3962.82
991.19	3809.22
991.35	3829.70
991.51	3932.10
991.67	3968.96
991.83	3917.76
992.00	3901.38
992.16	3895.24
992.32	3831.75
992.48	3798.98
992.64	3815.37
992.80	3796.93
992.96	3762.12
993.12	3645.38
993.28	3827.65
993.44	3766.21
993.60	3710.92
993.76	3684.30
993.92	3801.03
994.08	3747.78
994.24	3585.99
994.40	3641.29
994.56	3669.96
994.72	3561.42
994.88	3461.07
995.04	3758.02
995.20	3608.52
995.36	3551.18
995.52	3600.33
995.68	3557.32
995.84	3493.83
996.00	3637.19
996.16	3436.49
996.32	3598.28
996.48	3602.38
996.64	3563.47
996.80	3448.78
996.96	3600.33
997.12	3549.13
997.28	3420.11
997.44	3370.96
997.60	3420.11
997.76	3428.30
997.92	3370.96
998.08	3559.37
998.24	3393.48
998.40	3418.06
998.56	3538.89
998.72	3213.26
998.88	3338.19
999.04	3407.82
999.20	3467.21
999.36	3278.80
999.52	3407.82
999.68	3387.34
999.84	3387.34
1000.00	3397.58
1000.16	3467.21
1000.32	3147.73
1000.48	3368.91
1000.64	3246.03
1000.80	3264.46
1000.95	3172.30
1001.11	3362.76
1001.27	3190.74
1001.43	3164.11
1001.59	3209.17
1001.75	3157.97
1001.91	3188.69
1002.07	3196.88
1002.23	3082.19
1002.39	3137.49
1002.55	3203.02
1002.71	3117.01
1002.87	3219.41
1003.03	3160.02
1003.19	3071.95
1003.34	3319.76
1003.50	3213.26
1003.66	3248.08
1003.82	3137.49
1003.98	3071.95
1004.14	3037.14
1004.30	3106.77
1004.46	3024.85
1004.62	3051.47
1004.78	2977.75
1004.94	3049.43
1005.09	3045.33
1005.25	3137.49
1005.41	3043.28
1005.57	3053.52
1005.73	2932.69
1005.89	2942.93
1006.05	3028.95
1006.21	3057.62
1006.37	2920.40
1006.52	2932.69
1006.68	2873.30
1006.84	3067.86
1007.00	2920.40
1007.16	3016.66
1007.32	2953.17
1007.48	2977.75
1007.64	2994.13
1007.79	2985.94
1007.95	2920.40
1008.11	2924.50
1008.27	2881.49
1008.43	2881.49
1008.59	2992.08
1008.75	2869.20
1008.91	2895.83
1009.06	2949.08
1009.22	2901.97
1009.38	2885.59
1009.54	2871.25
1009.70	2713.56
1009.86	2762.71
1010.01	2904.02
1010.17	2754.52
1010.33	2807.77
1010.49	2758.61
1010.65	2920.40
1010.81	2725.85
1010.96	2740.18
1011.12	2688.98
1011.28	2660.31
1011.44	2830.29
1011.60	2734.04
1011.76	2680.79
1011.91	2738.13
1012.07	2731.99
1012.23	2746.33
1012.39	2658.26
1012.55	2707.41
1012.71	2648.02
1012.86	2686.94
1013.02	2662.36
1013.18	2668.50
1013.34	2641.88
1013.50	2738.13
1013.65	2629.59
1013.81	2578.39
1013.97	2602.97
1014.13	2740.18
1014.29	2529.24
1014.44	2715.61
1014.60	2664.41
1014.76	2596.82
1014.92	2658.26
1015.07	2594.78
1015.23	2680.79
1015.39	2555.86
1015.55	2605.02
1015.71	2570.20
1015.86	2531.29
1016.02	2478.04
1016.18	2463.71
1016.34	2582.49
1016.49	2564.06
1016.65	2615.26
1016.81	2529.24
1016.97	2545.63
1017.12	2500.57
1017.28	2367.45
1017.44	2443.23
1017.60	2521.05
1017.75	2475.99
1017.91	2502.62
1018.07	2492.38
1018.23	2533.34
1018.38	2408.41
1018.54	2353.12
1018.70	2467.80
1018.86	2457.56
1019.01	2342.88
1019.17	2398.17
1019.33	2551.77
1019.49	2420.70
1019.64	2428.89
1019.80	2424.80
1019.96	2492.38
1020.12	2387.93
1020.27	2334.68
1020.43	2392.03
1020.59	2461.66
1020.74	2342.88
1020.90	2447.32
1021.06	2338.78
1021.22	2342.88
1021.37	2371.55
1021.53	2387.93
1021.69	2314.20
1021.84	2254.81
1022.00	2289.63
1022.16	2320.35
1022.31	2316.25
1022.47	2367.45
1022.63	2320.35
1022.79	2174.94
1022.94	2232.29
1023.10	2410.46
1023.26	2299.87
1023.41	2271.20
1023.57	2297.82
1023.73	2275.29
1023.88	2306.01
1024.04	2289.63
1024.20	2332.64
1024.35	2271.20
1024.51	2287.58
1024.67	2232.29
1024.82	2306.01
1024.98	2263.01
1025.14	2283.49
1025.29	2195.42
1025.45	2318.30
1025.61	2172.89
1025.76	2215.90
1025.92	2181.09
1026.08	2246.62
1026.23	2162.66
1026.39	2154.46
1026.55	2156.51
1026.70	2088.93
1026.86	2136.03
1027.02	2207.71
1027.17	2181.09
1027.33	2156.51
1027.48	2138.08
1027.64	2136.03
1027.80	2211.81
1027.95	2217.95
1028.11	2047.97
1028.27	2058.21
1028.42	2181.09
1028.58	2123.74
1028.73	2138.08
1028.89	2064.35
1029.05	2170.85
1029.20	2148.32
>>>>>End Processed Spectral Data<<<<<
