SpectraSuite Data File
++++++++++++++++++++++++++++++++++++
Date: Fri Jun 02 14:48:00 CEST 2017
User: INFO_000
Dark Spectrum Present: No
Reference Spectrum Present: No
Number of Sampled Component Spectra: 1
Spectrometers: USB4H00879
Integration Time (usec): 80000 (USB4H00879)
Spectra Averaged: 1 (USB4H00879)
Boxcar Smoothing: 0 (USB4H00879)
Correct for Electrical Dark: No (USB4H00879)
Strobe/Lamp Enabled: No (USB4H00879)
Correct for Detector Non-linearity: No (USB4H00879)
Correct for Stray Light: No (USB4H00879)
Number of Pixels in Processed Spectrum: 3648
>>>>>Begin Processed Spectral Data<<<<<
345.13	1294.32
345.34	1294.32
345.56	1294.32
345.78	1322.99
345.99	1263.60
346.21	1689.57
346.42	1699.81
346.64	1576.94
346.86	1761.25
347.07	1701.86
347.29	1695.72
347.50	1632.23
347.72	1660.90
347.94	1773.54
348.15	1593.32
348.37	1675.24
348.59	1658.85
348.80	1658.85
349.02	1777.64
349.23	1904.61
349.45	1818.60
349.67	1871.84
349.88	1796.07
350.10	2052.06
350.31	1783.78
350.53	1777.64
350.75	1964.00
350.96	1771.49
351.18	1865.70
351.39	1791.97
351.61	1845.22
351.82	1920.99
352.04	1843.17
352.26	1855.46
352.47	1859.56
352.69	1916.90
352.90	1701.86
353.12	1873.89
353.34	1812.45
353.55	1933.28
353.77	1918.95
353.98	1839.08
354.20	1832.93
354.41	1939.43
354.63	1941.47
354.85	1970.15
355.06	1904.61
355.28	1763.30
355.49	1880.04
355.71	1920.99
355.92	1875.94
356.14	1843.17
356.35	1884.13
356.57	1896.42
356.79	1982.43
357.00	1871.84
357.22	1945.57
357.43	1834.98
357.65	2056.16
357.86	1900.52
358.08	1869.80
358.29	1906.66
358.51	2009.06
358.72	1984.48
358.94	1947.62
359.16	1882.08
359.37	1845.22
359.59	1933.28
359.80	1957.86
360.02	1867.75
360.23	1970.15
360.45	2045.92
360.66	1970.15
360.88	1830.88
361.09	1982.43
361.31	1961.95
361.52	1953.76
361.74	2095.07
361.95	2031.58
362.17	1906.66
362.38	2043.87
362.60	2090.98
362.81	2011.11
363.03	2035.68
363.24	1980.39
363.46	2160.61
363.67	1955.81
363.89	2027.49
364.10	2056.16
364.32	1959.91
364.53	2078.69
364.75	1935.33
364.96	1974.24
365.18	2033.63
365.39	1978.34
365.61	1992.67
365.82	2150.37
366.04	2011.11
366.25	1957.86
366.47	2076.64
366.68	2070.50
366.90	2027.49
367.11	2074.59
367.33	2041.82
367.54	2131.94
367.76	1978.34
367.97	2125.79
368.19	2082.78
368.40	2054.11
368.62	2019.30
368.83	1943.52
369.05	2080.74
369.26	1998.82
369.48	1955.81
369.69	1980.39
369.91	2103.26
370.12	1982.43
370.33	2164.70
370.55	1982.43
370.76	2148.32
370.98	2215.90
371.19	2064.35
371.41	2041.82
371.62	2080.74
371.84	2019.30
372.05	2199.52
372.27	2041.82
372.48	2103.26
372.69	2043.87
372.91	2076.64
373.12	2146.27
373.34	2035.68
373.55	2131.94
373.77	2166.75
373.98	2084.83
374.20	2146.27
374.41	2246.62
374.62	2183.13
374.84	2213.85
375.05	2226.14
375.27	2250.72
375.48	2240.48
375.70	2183.13
375.91	2277.34
376.12	2240.48
376.34	2217.95
376.55	2205.66
376.77	2232.29
376.98	2148.32
377.19	2144.22
377.41	2162.66
377.62	2236.38
377.84	2209.76
378.05	2338.78
378.27	2260.96
378.48	2244.57
378.69	2412.51
378.91	2301.92
379.12	2246.62
379.34	2246.62
379.55	2342.88
379.76	2326.49
379.98	2131.94
380.19	2222.05
380.41	2349.02
380.62	2355.16
380.83	2330.59
381.05	2263.01
381.26	2334.68
381.47	2215.90
381.69	2353.12
381.90	2500.57
382.12	2357.21
382.33	2306.01
382.54	2310.11
382.76	2303.96
382.97	2297.82
383.19	2277.34
383.40	2426.84
383.61	2289.63
383.83	2256.86
384.04	2256.86
384.25	2400.22
384.47	2416.60
384.68	2340.83
384.89	2375.64
385.11	2326.49
385.32	2338.78
385.54	2377.69
385.75	2418.65
385.96	2482.14
386.18	2312.16
386.39	2471.90
386.60	2308.06
386.82	2514.91
387.03	2351.07
387.24	2510.81
387.46	2441.18
387.67	2547.67
387.88	2543.58
388.10	2523.10
388.31	2519.00
388.52	2570.20
388.74	2480.09
388.95	2525.15
389.16	2500.57
389.38	2467.80
389.59	2707.41
389.80	2625.50
390.02	2643.93
390.23	2742.23
390.44	2590.68
390.66	2607.06
390.87	2570.20
391.08	2564.06
391.30	2623.45
391.51	2668.50
391.72	2688.98
391.94	2703.32
392.15	2674.65
392.36	2605.02
392.58	2666.46
392.79	2629.59
393.00	2731.99
393.22	2750.42
393.43	2721.75
393.64	2775.00
393.85	2809.81
394.07	2682.84
394.28	2768.85
394.49	2801.62
394.71	2727.89
394.92	2861.01
395.13	2729.94
395.35	2791.38
395.56	2772.95
395.77	2770.90
395.98	2858.96
396.20	2781.14
396.41	2928.60
396.62	2914.26
396.84	2852.82
397.05	2869.20
397.26	2936.79
397.47	2985.94
397.69	2910.16
397.90	3018.71
398.11	2924.50
398.32	2981.84
398.54	2904.02
398.75	2981.84
398.96	3059.67
399.18	3098.58
399.39	3035.09
399.60	3076.05
399.81	2969.55
400.03	3030.99
400.24	3319.76
400.45	3024.85
400.66	3168.21
400.88	3014.61
401.09	3209.17
401.30	3114.96
401.51	3295.18
401.73	3174.35
401.94	3205.07
402.15	3194.83
402.36	3162.06
402.58	3237.84
402.79	3190.74
403.00	3123.15
403.21	3330.00
403.43	3235.79
403.64	3303.37
403.85	3131.34
404.06	3213.26
404.27	3145.68
404.49	3286.99
404.70	3139.54
404.91	3313.61
405.12	3319.76
405.34	3188.69
405.55	3442.64
405.76	3160.02
405.97	3340.24
406.19	3536.84
406.40	3258.32
406.61	3338.19
406.82	3370.96
407.03	3420.11
407.25	3268.56
407.46	3448.78
407.67	3456.97
407.88	3598.28
408.09	3434.44
408.31	3413.96
408.52	3409.87
408.73	3446.73
408.94	3364.81
409.15	3428.30
409.37	3442.64
409.58	3573.71
409.79	3528.65
410.00	3690.44
410.21	3389.39
410.43	3528.65
410.64	3385.29
410.85	3594.19
411.06	3596.23
411.27	3692.49
411.48	3665.86
411.70	3526.60
411.91	3538.89
412.12	3735.50
412.33	3557.32
412.54	3641.29
412.76	3794.89
412.97	3807.17
413.18	3612.62
413.39	3688.39
413.60	3706.82
413.81	3676.10
414.03	3758.02
414.24	3674.06
414.45	3850.18
414.66	3647.43
414.87	3841.99
415.08	3751.88
415.30	3708.87
415.51	3784.65
415.72	3932.10
415.93	3905.48
416.14	3844.04
416.35	3846.09
416.56	3805.13
416.78	3907.52
416.99	3921.86
417.20	3788.74
417.41	4063.17
417.62	3938.24
417.83	4034.50
418.04	3887.04
418.26	3987.40
418.47	3856.33
418.68	3960.77
418.89	3923.91
419.10	4173.76
419.31	4011.97
419.52	4108.23
419.73	4024.26
419.95	4208.58
420.16	4161.47
420.37	4143.04
420.58	4222.91
420.79	3999.68
421.00	4177.86
421.21	4235.20
421.42	4059.07
421.63	4235.20
421.85	4104.13
422.06	4323.26
422.27	4245.44
422.48	4210.62
422.69	4429.76
422.90	4263.87
423.11	4403.13
423.32	4368.32
423.53	4423.61
423.75	4513.72
423.96	4538.30
424.17	4440.00
424.38	4569.02
424.59	4378.56
424.80	4722.62
425.01	4534.20
425.22	4526.01
425.43	4478.91
425.64	4646.84
425.85	4763.58
426.06	4573.11
426.28	4743.10
426.49	4507.58
426.70	4583.35
426.91	4732.86
427.12	4808.63
427.33	4808.63
427.54	4704.18
427.75	4796.34
427.96	4919.22
428.17	4755.38
428.38	4923.32
428.59	5054.39
428.80	4874.17
429.01	4911.03
429.23	5074.87
429.44	5220.27
429.65	5119.92
429.86	5169.07
430.07	4888.50
430.28	5070.77
430.49	5119.92
430.70	5107.63
430.91	5076.91
431.12	5058.48
431.33	5097.39
431.54	5349.29
431.75	5259.18
431.96	5238.70
432.17	5203.89
432.38	5177.26
432.59	5513.13
432.80	5390.25
433.01	5324.72
433.22	5359.53
433.43	5371.82
433.64	5439.40
433.85	5302.19
434.06	5353.39
434.27	5365.68
434.49	5437.36
434.70	5640.11
434.91	5535.66
435.12	5636.01
435.33	5617.58
435.54	5545.90
435.75	5341.10
435.96	5662.63
436.17	5482.41
436.38	5814.18
436.59	5722.02
436.80	5674.92
437.01	5955.49
437.22	5838.76
437.43	5732.26
437.64	5631.91
437.85	5924.77
438.06	5930.92
438.27	5736.36
438.48	5824.42
438.69	6076.32
438.90	5939.11
439.11	5883.81
439.32	6170.53
439.53	5986.21
439.74	6076.32
439.95	6092.71
440.16	6053.80
440.37	5924.77
440.57	5943.21
440.78	6109.09
440.99	6137.76
441.20	6016.93
441.41	6006.69
441.62	6107.04
441.83	6055.84
442.04	6317.98
442.25	6252.45
442.46	6109.09
442.67	6360.99
442.88	6653.85
443.09	6180.77
443.30	6326.18
443.51	6365.09
443.72	6668.19
443.93	6152.10
444.14	6676.38
444.35	6369.18
444.56	6504.35
444.77	6453.15
444.98	6553.50
445.19	6600.60
445.40	6625.18
445.61	6373.28
445.81	6809.50
446.02	6578.08
446.23	6471.58
446.44	6584.22
446.65	6662.04
446.86	6651.80
447.07	6766.49
447.28	6911.89
447.49	6731.67
447.70	6672.28
447.91	6905.75
448.12	6803.35
448.33	6889.37
448.54	7096.21
448.74	6965.14
448.95	7147.41
449.16	7065.49
449.37	7229.33
449.58	6969.24
449.79	7192.47
450.00	7096.21
450.21	7120.79
450.42	7096.21
450.63	7180.18
450.84	7137.17
451.05	7221.14
451.25	7178.13
451.46	7202.71
451.67	7413.65
451.88	7384.98
452.09	7456.65
452.30	7417.74
452.51	7247.76
452.72	7481.23
452.93	7837.58
453.13	7190.42
453.34	7497.61
453.55	7499.66
453.76	7509.90
453.97	7788.43
454.18	7733.13
454.39	7681.93
454.60	7569.29
454.81	7899.02
455.01	7792.52
455.22	7593.87
455.43	7888.78
455.64	7901.06
455.85	7966.60
456.06	8189.83
456.27	7933.83
456.48	8013.70
456.68	8109.96
456.89	8064.90
457.10	8165.25
457.31	8238.98
457.52	8079.24
457.73	8257.41
457.94	8472.45
458.14	8116.10
458.35	8630.14
458.56	8335.23
458.77	8519.55
458.98	8509.31
459.19	8421.25
459.39	8456.06
459.60	8662.91
459.81	8683.39
460.02	8730.49
460.23	8673.15
460.44	8832.89
460.65	8953.72
460.85	8914.81
461.06	9097.08
461.27	8695.68
461.48	9144.18
461.69	9148.28
461.89	8804.22
462.10	9140.08
462.31	8912.76
462.52	9097.08
462.73	9211.76
462.94	9445.23
463.14	9295.73
463.35	9285.49
463.56	9678.70
463.77	9516.91
463.98	9494.38
464.18	9584.49
464.39	9647.98
464.60	9932.65
464.81	9891.69
465.02	9746.28
465.23	10004.33
465.43	9916.26
465.64	10178.40
465.85	10264.42
466.06	10026.86
466.27	10323.81
466.47	10186.60
466.68	10063.72
466.89	10096.49
467.10	10430.30
467.30	10276.71
467.51	10477.41
467.72	10663.77
467.93	10458.98
468.14	10729.31
468.34	10889.05
468.55	10930.01
468.76	10798.94
468.97	10721.12
469.17	10981.21
469.38	11128.66
469.59	11167.57
469.80	11106.13
470.01	10960.73
470.21	11147.09
470.42	11308.88
470.63	11571.02
470.84	11257.68
471.04	11568.98
471.25	11599.70
471.46	11528.02
471.67	11951.95
471.87	11798.35
472.08	11794.25
472.29	12009.29
472.50	11845.45
472.70	11794.25
472.91	11861.84
473.12	12162.89
473.33	12349.25
473.53	12410.69
473.74	12361.54
473.95	12724.03
474.16	12635.97
474.36	12662.59
474.57	12939.07
474.78	12928.83
474.99	12832.57
475.19	12861.24
475.40	13141.82
475.61	13084.47
475.81	13408.05
476.02	13397.81
476.23	13299.51
476.44	13702.96
476.64	13651.76
476.85	13868.84
477.06	13715.25
477.27	14051.11
477.47	14339.88
477.68	14149.42
477.89	14368.55
478.09	14227.24
478.30	14366.50
478.51	14559.01
478.71	14608.16
478.92	14565.15
479.13	14931.74
479.34	14968.60
479.54	15030.04
479.75	15077.15
479.96	15009.56
480.16	15169.30
480.37	15214.36
480.58	15288.09
480.78	15730.45
480.99	15568.66
481.20	15703.82
481.41	15722.26
481.61	15875.85
481.82	16056.08
482.03	16205.58
482.23	16285.45
482.44	16500.48
482.65	16590.59
482.85	16494.34
483.06	16828.16
483.27	16602.88
483.47	16740.10
483.68	16854.78
483.89	16903.93
484.09	17219.32
484.30	16959.23
484.51	17118.97
484.71	17549.04
484.92	17069.82
485.13	17596.15
485.33	17561.33
485.54	17409.78
485.75	17702.64
485.95	17940.21
486.16	18054.89
486.37	18089.71
486.57	18077.42
486.78	18063.08
486.98	18179.82
487.19	18560.74
487.40	18499.30
487.60	18462.44
487.81	18718.43
488.02	18831.07
488.22	18763.49
488.43	19064.54
488.64	18755.30
488.84	19228.38
489.05	19525.33
489.25	19023.58
489.46	19521.24
489.67	19791.57
489.87	19766.99
490.08	19545.81
490.29	19672.79
490.49	20164.30
490.70	20039.37
490.90	20145.87
491.11	20055.76
491.32	20154.06
491.52	20598.47
491.73	20416.20
491.94	20410.06
492.14	20381.38
492.35	20790.98
492.55	20825.79
492.76	20924.10
492.97	21130.94
493.17	21008.06
493.38	21298.88
493.58	21288.64
493.79	21509.82
494.00	21274.30
494.20	21382.84
494.41	21380.79
494.61	21821.11
494.82	21864.11
495.02	21862.07
495.23	22140.59
495.44	22009.52
495.64	22038.19
495.85	22312.62
496.05	22271.66
496.26	22451.88
496.47	22443.69
496.67	22486.70
496.88	23033.50
497.08	22245.04
497.29	22845.09
497.49	22777.51
497.70	23031.46
497.91	23361.18
498.11	23367.32
498.32	23031.46
498.52	23328.41
498.73	23359.13
498.93	23563.93
499.14	23611.03
499.34	23396.00
499.55	23891.60
499.76	23705.24
499.96	23854.74
500.17	23795.35
500.37	24071.82
500.58	24022.67
500.78	24174.22
500.99	24030.87
501.19	24405.64
501.40	24364.68
501.60	24194.70
501.81	24340.11
502.02	24493.71
502.22	24487.56
502.43	24929.92
502.63	24698.50
502.84	24833.67
503.04	25261.69
503.25	24776.33
503.45	25347.71
503.66	25235.07
503.86	25056.90
504.07	25601.66
504.27	25366.14
504.48	25505.40
504.68	25247.36
504.89	25589.37
505.09	25769.59
505.30	25482.88
505.50	25812.60
505.71	25656.95
505.91	25933.43
506.12	25841.27
506.32	25962.10
506.53	26084.98
506.73	26095.22
506.94	26105.46
507.14	26236.53
507.35	26304.11
507.55	26285.68
507.76	26183.28
507.96	26523.24
508.17	26363.50
508.37	26693.22
508.58	26914.41
508.78	27051.62
508.99	26885.73
509.19	26629.74
509.40	27098.72
509.60	26736.23
509.81	27100.77
510.01	27096.67
510.22	26947.17
510.42	27004.52
510.63	27338.33
510.83	27293.28
511.04	27369.05
511.24	27274.85
511.44	27405.92
511.65	27731.54
511.85	27410.01
512.06	27528.80
512.26	27428.45
512.47	27795.03
512.67	27635.29
512.88	27680.35
513.08	27600.47
513.29	28284.50
513.49	28249.68
513.69	27573.85
513.90	28397.13
514.10	28235.35
514.31	28012.12
514.51	28014.16
514.72	28171.86
514.92	28368.46
515.13	28462.67
515.33	28585.55
515.53	28550.73
515.74	28563.02
515.94	28790.34
516.15	28667.47
516.35	28608.08
516.56	28839.50
516.76	28984.90
516.96	28780.10
517.17	29285.95
517.37	29130.31
517.58	28925.51
517.78	29042.24
517.99	29025.86
518.19	29670.97
518.39	29410.88
518.60	29554.24
518.80	29371.97
519.01	29523.52
519.21	29644.35
519.41	29883.96
519.62	29517.37
519.82	30012.98
520.03	29937.21
520.23	30195.25
520.43	29888.06
520.64	30406.19
520.84	30471.73
521.05	30424.62
521.25	30639.66
521.45	30588.46
521.66	30639.66
521.86	30662.19
522.07	30697.00
522.27	30926.38
522.47	30381.62
522.68	30776.87
522.88	30586.41
523.08	31147.56
523.29	31110.69
523.49	31247.91
523.70	31421.98
523.90	31364.64
524.10	31331.87
524.31	31215.14
524.51	31409.70
524.71	31893.02
524.92	31589.92
525.12	32417.30
525.33	31807.00
525.53	32171.54
525.73	32204.31
525.94	32529.94
526.14	32388.63
526.34	32247.32
526.55	32075.29
526.75	32517.65
526.95	32966.15
527.16	32783.88
527.36	32894.47
527.56	33218.05
527.77	33029.64
527.97	33060.36
528.17	33134.09
528.38	33132.04
528.58	33248.77
528.78	33015.30
528.99	33166.85
529.19	33912.31
529.39	33324.55
529.60	33693.18
529.80	33474.05
530.00	33461.76
530.21	33957.37
530.41	34160.12
530.61	33969.66
530.82	34344.44
531.02	34027.00
531.22	34287.09
531.43	34323.96
531.63	34725.36
531.83	34635.25
532.04	34844.14
532.24	34551.28
532.44	34995.69
532.64	35165.67
532.85	35235.30
533.05	35132.90
533.25	35372.52
533.46	35528.16
533.66	35530.21
533.86	35485.15
534.07	35698.14
534.27	35612.13
534.47	36212.18
534.67	36066.78
534.88	35864.03
535.08	35673.57
535.28	36539.86
535.49	36550.10
535.69	36593.11
535.89	36482.52
536.09	36734.42
536.30	37197.26
536.50	36857.29
536.70	36916.68
536.91	36740.56
537.11	36861.39
537.31	37328.33
537.51	37133.77
537.72	37666.24
537.92	37647.81
538.12	37688.77
538.32	37707.20
538.53	37926.33
538.73	37582.27
538.93	37674.43
539.13	38077.88
539.34	38192.57
539.54	38157.75
539.74	38391.22
539.94	38165.95
540.15	38098.36
540.35	38696.37
540.55	38608.31
540.75	38505.91
540.96	38716.85
541.16	38536.63
541.36	38684.08
541.56	38675.89
541.77	39093.68
541.97	39167.40
542.17	39245.23
542.37	39513.51
542.58	39097.77
542.78	39089.58
542.98	38876.59
543.18	39703.97
543.38	39812.51
543.59	39585.19
543.79	39542.18
543.99	39648.68
544.19	39765.41
544.40	39488.93
544.60	40175.00
544.80	40068.51
545.00	40381.85
545.20	40463.77
545.41	40392.09
545.61	40052.12
545.81	40478.10
546.01	40899.98
546.21	40355.22
546.42	40744.34
546.62	40789.39
546.82	40721.81
547.02	40689.04
547.22	40811.92
547.43	40531.35
547.63	40863.12
547.83	40865.17
548.03	40848.78
548.23	41129.36
548.44	41012.62
548.64	41100.68
548.84	41344.39
549.04	41614.72
549.24	41727.36
549.45	41700.74
549.65	41534.85
549.85	41956.74
550.05	41657.73
550.25	41661.83
550.45	42030.46
550.66	41610.63
550.86	41903.49
551.06	41942.40
551.26	42048.89
551.46	42098.05
551.66	42108.29
551.87	42057.09
552.07	42421.62
552.27	42147.20
552.47	42538.36
552.67	42771.83
552.87	42628.47
553.07	42583.41
553.28	42419.58
553.48	42726.77
553.68	42726.77
553.88	42763.64
554.08	43058.54
554.28	42517.88
554.48	42493.30
554.69	42710.39
554.89	42558.84
555.09	42933.62
555.29	42745.20
555.49	42870.13
555.69	43126.13
555.89	43236.72
556.10	43294.06
556.30	43101.55
556.50	43386.22
556.70	43451.75
556.90	43554.15
557.10	43720.04
557.30	43160.94
557.50	44053.86
557.70	43636.07
557.91	43660.65
558.11	43967.84
558.31	43588.97
558.51	43515.24
558.71	43677.03
558.91	43730.28
559.11	43971.94
559.31	44133.73
559.51	43826.53
559.72	43812.20
559.92	44135.77
560.12	43867.49
560.32	44166.49
560.52	44313.95
560.72	44008.80
560.92	44039.52
561.12	44197.21
561.32	45104.46
561.52	44217.69
561.72	44807.51
561.93	44303.71
562.13	44426.59
562.33	44166.49
562.53	44784.98
562.73	44467.55
562.93	44406.11
563.13	44713.30
563.33	44504.41
563.53	44934.48
563.73	44809.56
563.93	44780.88
564.13	45258.06
564.33	44987.73
564.53	44711.25
564.74	45399.37
564.94	44907.86
565.14	45094.22
565.34	45002.07
565.54	45073.74
565.74	45047.12
565.94	45253.97
566.14	45040.98
566.34	45274.45
566.54	46173.50
566.74	44987.73
566.94	45571.40
567.14	45686.09
567.34	45139.28
567.54	45417.80
567.74	45413.71
567.94	45382.99
568.14	45581.64
568.34	45974.85
568.54	45452.62
568.74	45933.89
568.94	45704.52
569.14	46462.27
569.34	46013.76
569.54	46087.49
569.75	45528.39
569.95	46021.95
570.15	46482.75
570.35	46056.77
570.55	45913.41
570.75	46081.34
570.95	46230.85
571.15	46720.31
571.35	46298.43
571.55	46703.93
571.75	46341.44
571.95	46542.14
572.15	46603.58
572.35	46697.78
572.55	46304.57
572.75	46540.09
572.95	46662.97
573.15	47168.82
573.35	46404.92
573.55	46128.45
573.75	46865.72
573.95	46671.16
574.15	46871.86
574.35	46923.06
574.55	46927.16
574.75	46937.40
574.95	47486.25
575.15	46740.79
575.34	47123.76
575.54	47426.86
575.74	47263.02
575.94	47578.41
576.14	47207.73
576.34	47371.57
576.54	47588.65
576.74	47650.09
576.94	47490.35
577.14	47605.03
577.34	47934.76
577.54	47490.35
577.74	47867.17
577.94	47863.08
578.14	47770.92
578.34	47701.29
578.54	47047.99
578.74	47656.23
578.94	47967.52
579.14	48094.50
579.34	48031.01
579.54	48006.44
579.74	48860.44
579.94	48207.14
580.13	48411.93
580.33	48952.60
580.53	48842.01
580.73	48469.28
580.93	48778.52
581.13	48526.62
581.33	48624.92
581.53	48782.62
581.73	48885.01
581.93	48993.56
582.13	49259.79
582.33	49263.89
582.53	48930.07
582.73	49212.69
582.92	48801.05
583.12	49073.43
583.32	48991.51
583.52	48778.52
583.72	49317.14
583.92	48985.36
584.12	49165.59
584.32	49925.38
584.52	49460.49
584.72	49472.78
584.92	49657.10
585.11	50148.61
585.31	49452.30
585.51	49878.28
585.71	49808.65
585.91	50001.16
586.11	49687.82
586.31	49919.24
586.51	50115.84
586.71	50277.63
586.91	50500.86
587.10	50437.37
587.30	50461.95
587.50	50167.04
587.70	50437.37
587.90	50402.56
588.10	50459.90
588.30	50371.84
588.50	50971.89
588.69	50261.25
588.89	50224.39
589.09	50973.94
589.29	50783.48
589.49	50984.18
589.69	50791.67
589.89	50832.63
590.08	51221.75
590.28	50930.93
590.48	50558.20
590.68	51086.58
590.88	51078.39
591.08	51029.24
591.28	51004.66
591.47	51731.69
591.67	51414.26
591.87	51606.76
592.07	51344.62
592.27	51481.84
592.47	51320.05
592.67	51786.99
592.86	51172.60
593.06	51815.66
593.26	51795.18
593.46	51543.28
593.66	51930.34
593.86	51774.70
594.05	51764.46
594.25	51916.01
594.45	51680.49
594.65	51647.72
594.85	51750.12
595.05	51987.69
595.24	52657.37
595.44	52096.23
595.64	52190.44
595.84	52215.01
596.04	52286.69
596.23	51797.23
596.43	52739.29
596.63	52176.10
596.83	52454.62
597.03	52991.19
597.22	52530.40
597.42	52663.52
597.62	52892.89
597.82	52888.79
598.02	52384.99
598.21	53044.44
598.41	52716.76
598.61	52542.69
598.81	52964.57
599.01	53109.97
599.20	53331.15
599.40	53269.72
599.60	53456.08
599.80	53138.65
600.00	53333.20
600.19	53802.19
600.39	53089.49
600.59	53763.28
600.79	53435.60
600.98	53363.92
601.18	53632.21
601.38	53581.01
601.58	54088.90
601.78	53705.93
601.97	53748.94
602.17	54297.80
602.37	54097.09
602.57	53998.79
602.76	53974.22
602.96	54035.66
603.16	54633.66
603.36	53814.47
603.55	54416.58
603.75	54312.13
603.95	54527.17
604.15	54580.42
604.34	54432.96
604.54	54480.06
604.74	54633.66
604.94	54584.51
605.13	54629.57
605.33	54746.30
605.53	54799.55
605.73	54621.37
605.92	54750.40
606.12	55233.72
606.32	55385.27
606.52	54834.36
606.71	54678.72
606.91	55280.82
607.11	54930.62
607.30	55436.47
607.50	55100.60
607.70	55610.54
607.90	54965.43
608.09	55284.92
608.29	55227.57
608.49	55551.15
608.68	55272.63
608.88	55919.79
609.08	55588.02
609.28	56022.19
609.47	55665.84
609.67	55882.92
609.87	55768.24
610.06	56038.57
610.26	56005.80
610.46	56057.00
610.66	55514.29
610.85	55708.85
611.05	55368.88
611.25	55764.14
611.44	55751.85
611.64	55538.86
611.84	55534.77
612.03	55426.23
612.23	56267.94
612.43	56310.95
612.62	55680.17
612.82	56091.82
613.02	55981.23
613.21	56181.93
613.41	55968.94
613.61	56079.53
613.80	55987.37
614.00	55932.07
614.20	56259.75
614.39	56442.02
614.59	56386.72
614.79	56204.45
614.98	55827.63
615.18	56243.37
615.38	56106.15
615.57	56153.26
615.77	56288.42
615.97	56345.76
616.16	56087.72
616.36	56646.82
616.56	56374.44
616.75	56591.52
616.95	56597.66
617.15	56308.90
617.34	56255.65
617.54	56190.12
617.74	57312.41
617.93	56591.52
618.13	55946.41
618.32	56429.73
618.52	56403.11
618.72	56505.51
618.91	56722.59
619.11	56149.16
619.31	56419.49
619.50	56333.48
619.70	55960.75
619.90	56528.03
620.09	55968.94
620.29	56255.65
620.48	56595.62
620.68	56612.00
620.88	56073.38
621.07	56429.73
621.27	56394.92
621.46	55780.52
621.66	56087.72
621.86	56452.26
622.05	56138.92
622.25	56601.76
622.44	56261.80
622.64	55870.64
622.84	56521.89
623.03	56171.69
623.23	56429.73
623.42	56038.57
623.62	56292.52
623.82	56466.59
624.01	56278.18
624.21	56425.64
624.40	56138.92
624.60	56263.85
624.80	56290.47
624.99	56661.15
625.19	56390.82
625.38	56652.96
625.58	56310.95
625.77	56224.93
625.97	56706.21
626.17	56063.14
626.36	56757.41
626.56	56136.87
626.75	56226.98
626.95	56638.62
627.14	55919.79
627.34	57058.46
627.54	55925.93
627.73	56497.31
627.93	56274.09
628.12	56073.38
628.32	56081.58
628.51	56386.72
628.71	56263.85
628.90	56059.05
629.10	55964.84
629.30	56652.96
629.49	56235.17
629.69	56704.16
629.88	56382.63
630.08	56679.58
630.27	56714.40
630.47	56851.61
630.66	56161.45
630.86	56652.96
631.05	55858.35
631.25	56589.47
631.44	56546.47
631.64	56646.82
631.84	56728.73
632.03	56968.35
632.23	56847.52
632.42	56620.19
632.62	56347.81
632.81	56353.96
633.01	56378.53
633.20	56861.85
633.40	56925.34
633.59	56921.24
633.79	56476.83
633.98	56263.85
634.18	56648.86
634.37	56620.19
634.57	56417.44
634.76	56970.39
634.96	56757.41
635.15	56579.23
635.35	56634.53
635.54	56276.13
635.74	57152.66
635.93	56626.34
636.13	57183.38
636.32	56603.81
636.52	56558.75
636.71	56794.27
636.91	56724.64
637.10	57132.18
637.30	56839.32
637.49	56530.08
637.69	56628.38
637.88	57136.28
638.08	56319.14
638.27	57091.22
638.46	56726.69
638.66	56833.18
638.85	56624.29
639.05	57248.92
639.24	57392.28
639.44	56673.44
639.63	57013.40
639.83	57025.69
640.02	56956.06
640.22	57078.94
640.41	57148.57
640.61	56605.86
640.80	56865.95
640.99	56730.78
641.19	57425.04
641.38	57060.51
641.58	57066.65
641.77	57250.97
641.97	56661.15
642.16	56700.06
642.36	57392.28
642.55	57670.80
642.74	56759.45
642.94	57529.49
643.13	56847.52
643.33	57562.26
643.52	57324.69
643.72	57304.21
643.91	57126.04
644.10	57537.68
644.30	57572.50
644.49	57302.17
644.69	57545.87
644.88	57474.20
645.08	57085.08
645.27	57406.61
645.46	57558.16
645.66	57861.26
645.85	56788.13
646.05	57744.53
646.24	57365.65
646.43	57726.10
646.63	57734.29
646.82	57971.85
647.02	57564.31
647.21	58074.25
647.40	57371.80
647.60	57758.86
647.79	57267.35
647.99	57547.92
648.18	57848.97
648.37	58066.06
648.57	58061.96
648.76	58004.62
648.96	57500.82
649.15	57687.18
649.34	58131.59
649.54	58430.60
649.73	57605.26
649.92	57973.90
650.12	57713.81
650.31	57988.24
650.51	57779.34
650.70	58107.02
650.89	57547.92
651.09	58305.67
651.28	57932.94
651.47	58135.69
651.67	58244.23
651.86	58279.05
652.06	57889.93
652.25	58397.83
652.44	57638.03
652.64	57930.89
652.83	58090.63
653.02	57855.12
653.22	57980.04
653.41	57805.97
653.60	57621.65
653.80	57803.92
653.99	58557.57
654.18	58025.10
654.38	57969.80
654.57	58213.51
654.76	58139.78
654.96	57939.08
655.15	58330.25
655.34	57703.57
655.54	57986.19
655.73	57978.00
655.92	58004.62
656.12	58123.40
656.31	58068.11
656.50	58381.45
656.70	58272.90
656.89	58236.04
657.08	58643.59
657.28	58315.91
657.47	58170.50
657.66	58393.73
657.86	58135.69
658.05	58313.86
658.24	58438.79
658.43	58150.02
658.63	58440.84
658.82	58627.20
659.01	58170.50
659.21	58565.76
659.40	58586.24
659.59	58178.70
659.79	58418.31
659.98	58221.70
660.17	58600.58
660.36	58180.74
660.56	58141.83
660.75	58344.58
660.94	58223.75
661.14	58225.80
661.33	58494.08
661.52	58373.25
661.71	58602.63
661.91	57908.36
662.10	58389.64
662.29	58619.01
662.49	58629.25
662.68	58872.96
662.87	58371.21
663.06	58375.30
663.26	58565.76
663.45	58690.69
663.64	58752.13
663.83	58647.68
664.03	58862.72
664.22	58569.86
664.41	58807.42
664.60	58623.11
664.80	58434.69
664.99	57939.08
665.18	58532.99
665.37	58252.42
665.57	58778.75
665.76	58422.40
665.95	58586.24
666.14	58657.92
666.34	58610.82
666.53	58008.71
666.72	58287.24
666.91	58397.83
667.11	58399.88
667.30	58797.18
667.49	58598.53
667.68	58356.87
667.87	58336.39
668.07	58913.92
668.26	58369.16
668.45	58563.71
668.64	57889.93
668.84	58643.59
669.03	58811.52
669.22	58487.94
669.41	58401.92
669.60	58707.07
669.80	58586.24
669.99	58823.81
670.18	58401.92
670.37	58639.49
670.57	58795.13
670.76	58401.92
670.95	58954.88
671.14	58311.81
671.33	58154.12
671.53	59110.52
671.72	58516.61
671.91	58397.83
672.10	58307.72
672.29	58516.61
672.48	58231.94
672.68	58539.14
672.87	58512.52
673.06	58471.56
673.25	58254.47
673.44	57754.77
673.64	58377.35
673.83	58205.32
674.02	58678.40
674.21	57959.56
674.40	58455.17
674.59	58213.51
674.79	58127.50
674.98	57963.66
675.17	58692.74
675.36	57838.73
675.55	58213.51
675.74	58145.93
675.94	58240.14
676.13	58498.18
676.32	58168.46
676.51	58645.63
676.70	58528.90
676.89	58483.84
677.08	58233.99
677.28	58074.25
677.47	58721.41
677.66	58725.50
677.85	58305.67
678.04	57961.61
678.23	58559.62
678.42	58381.45
678.62	58127.50
678.81	58408.07
679.00	58268.81
679.19	58766.46
679.38	58217.61
679.57	58217.61
679.76	58410.12
679.96	58520.71
680.15	58113.16
680.34	58193.03
680.53	57873.55
680.72	58315.91
680.91	58299.53
681.10	57857.17
681.29	58416.26
681.48	57730.19
681.68	58227.85
681.87	58274.95
682.06	57848.97
682.25	57857.17
682.44	57861.26
682.63	57885.84
682.82	57814.16
683.01	57586.83
683.20	57955.47
683.39	58262.66
683.59	57414.80
683.78	57640.08
683.97	57703.57
684.16	57810.06
684.35	57611.41
684.54	58090.63
684.73	57418.90
684.92	57175.19
685.11	57320.60
685.30	57685.14
685.49	57664.66
685.69	57611.41
685.88	57765.01
686.07	57130.14
686.26	57597.07
686.45	57656.46
686.64	57635.98
686.83	57824.40
687.02	57517.20
687.21	57080.98
687.40	57423.00
687.59	57828.49
687.78	57396.37
687.97	57752.72
688.16	57492.63
688.35	57762.96
688.54	56835.23
688.74	57367.70
688.93	57115.80
689.12	57283.73
689.31	57298.07
689.50	56956.06
689.69	56777.89
689.88	56681.63
690.07	57009.31
690.26	57214.10
690.45	57574.55
690.64	56730.78
690.83	56798.37
691.02	57029.79
691.21	57226.39
691.40	56855.71
691.59	57046.17
691.78	56777.89
691.97	56779.93
692.16	56843.42
692.35	57431.19
692.54	56824.99
692.73	56915.10
692.92	56366.24
693.11	56757.41
693.30	57230.49
693.49	57285.78
693.68	56624.29
693.87	57140.38
694.06	56399.01
694.25	56769.69
694.44	56509.60
694.63	56585.38
694.82	56661.15
695.01	56515.75
695.20	56454.31
695.39	56378.53
695.58	56485.03
695.77	56415.40
695.96	56218.79
696.15	56155.30
696.34	56259.75
696.53	56206.50
696.72	56177.83
696.91	56186.02
697.10	56022.19
697.29	55975.08
697.48	56218.79
697.67	55727.28
697.86	56167.59
698.05	55694.51
698.24	56358.05
698.43	55954.60
698.62	56022.19
698.81	55807.15
699.00	55862.44
699.19	55547.06
699.38	55944.36
699.57	55334.07
699.76	56366.24
699.95	55592.11
700.14	55549.10
700.32	55762.09
700.51	55604.40
700.70	55852.20
700.89	55774.38
701.08	55606.45
701.27	55502.00
701.46	55825.58
701.65	55315.64
701.84	55723.18
702.03	55778.48
702.22	55213.24
702.41	55278.77
702.60	55356.60
702.79	55307.44
702.98	55194.81
703.17	55229.62
703.35	54779.07
703.54	55200.95
703.73	55112.89
703.92	55168.18
704.11	55145.65
704.30	54965.43
704.49	54594.75
704.68	54691.01
704.87	54934.71
705.06	54822.08
705.25	55022.78
705.43	54799.55
705.62	55000.25
705.81	54916.28
706.00	55112.89
706.19	54635.71
706.38	54779.07
706.57	54623.42
706.76	54971.58
706.95	54594.75
707.14	54719.68
707.32	54320.32
707.51	54402.24
707.70	54574.27
707.89	54346.95
708.08	54359.23
708.27	54621.37
708.46	54922.43
708.65	54371.52
708.84	54590.66
709.02	55073.98
709.21	54564.03
709.40	54678.72
709.59	54539.46
709.78	53757.13
709.97	54666.43
710.16	54013.13
710.34	54197.44
710.53	54318.28
710.72	54006.98
710.91	54037.70
711.10	54361.28
711.29	54269.12
711.48	53998.79
711.66	53859.53
711.85	54185.16
712.04	54047.94
712.23	53982.41
712.42	53734.60
712.61	53396.69
712.80	53871.82
712.98	53994.70
713.17	53570.77
713.36	53734.60
713.55	53740.75
713.74	53673.16
713.93	53726.41
714.11	53538.00
714.30	53251.28
714.49	52999.38
714.68	53540.05
714.87	53675.21
715.06	53703.88
715.24	53177.56
715.43	53527.76
715.62	52858.07
715.81	53114.07
716.00	53447.89
716.18	53028.05
716.37	52720.86
716.56	52851.93
716.75	53505.23
716.94	53103.83
717.12	52782.30
717.31	53331.15
717.50	53134.55
717.69	52727.00
717.88	53279.96
718.06	52497.63
718.25	52892.89
718.44	52579.55
718.63	53118.17
718.82	52018.41
719.00	52450.53
719.19	52563.17
719.38	52227.30
719.57	52118.76
719.76	52393.18
719.94	51578.09
720.13	52344.03
720.32	51971.30
720.51	51631.34
720.69	52014.31
720.88	51989.73
721.07	51885.29
721.26	51471.60
721.44	51377.39
721.63	51666.16
721.82	51143.92
722.01	51363.06
722.20	51631.34
722.38	51244.27
722.57	51107.06
722.76	51254.51
722.95	51180.79
723.13	51039.48
723.32	50836.73
723.51	50679.03
723.70	50810.10
723.88	51414.26
724.07	50656.51
724.26	50865.40
724.44	50081.03
724.63	51133.68
724.82	50984.18
725.01	50672.89
725.19	50992.37
725.38	50517.25
725.57	50416.89
725.76	50930.93
725.94	50320.64
726.13	50650.36
726.32	50228.48
726.51	50337.02
726.69	50574.59
726.88	50906.36
727.07	50339.07
727.25	50328.83
727.44	50318.59
727.63	50283.78
727.82	50253.06
728.00	50459.90
728.19	49956.10
728.38	50799.86
728.56	49710.35
728.75	50373.89
728.94	50181.38
729.12	50021.64
729.31	50029.83
729.50	50183.43
729.69	50486.53
729.87	49882.37
730.06	50015.49
730.25	49943.81
730.43	50310.40
730.62	49937.67
730.81	50068.74
730.99	50445.57
731.18	49638.67
731.37	49923.33
731.55	50160.90
731.74	50406.65
731.93	49947.91
732.11	50062.60
732.30	50203.91
732.49	50062.60
732.67	50060.55
732.86	49833.22
733.05	49411.34
733.23	49536.27
733.42	49968.39
733.61	50072.84
733.79	49927.43
733.98	49954.05
734.17	50089.22
734.35	49779.98
734.54	49655.05
734.73	49956.10
734.91	49739.02
735.10	49804.55
735.29	49605.90
735.47	48960.79
735.66	49728.78
735.84	49462.54
736.03	49601.80
736.22	49814.79
736.40	49575.18
736.59	49515.79
736.78	49747.21
736.96	49302.80
737.15	49521.93
737.33	49214.74
737.52	49065.24
737.71	49362.19
737.89	48842.01
738.08	49014.04
738.27	48743.70
738.45	49124.63
738.64	49491.21
738.82	49521.93
739.01	49159.44
739.20	49085.72
739.38	48864.53
739.57	49083.67
739.75	49216.78
739.94	49083.67
740.13	49259.79
740.31	48809.24
740.50	48608.54
740.68	48674.07
740.87	49073.43
741.06	49358.09
741.24	48760.09
741.43	49134.87
741.61	49304.85
741.80	48340.25
741.99	48504.09
742.17	48645.40
742.36	48774.42
742.54	48577.82
742.73	48512.28
742.91	49081.62
743.10	48665.88
743.29	48737.56
743.47	48842.01
743.66	48350.49
743.84	48829.72
744.03	48481.56
744.21	48424.22
744.40	48936.21
744.59	48360.73
744.77	48149.79
744.96	48565.53
745.14	48575.77
745.33	48041.25
745.51	48061.73
745.70	48114.98
745.88	47834.41
746.07	47867.17
746.26	47672.62
746.44	47791.40
746.63	47756.58
746.81	47658.28
747.00	47301.93
747.18	47652.14
747.37	47430.96
747.55	47691.05
747.74	48131.36
747.92	47443.24
748.11	47701.29
748.29	47461.68
748.48	47844.65
748.66	47633.71
748.85	47963.43
749.03	47379.76
749.22	47748.39
749.41	47267.12
749.59	47584.55
749.78	47000.88
749.96	46941.49
750.15	47234.35
750.33	47760.68
750.52	47281.45
750.70	47242.54
750.89	47271.21
751.07	47398.19
751.26	47281.45
751.44	47047.99
751.63	47066.42
751.81	47172.91
752.00	47025.46
752.18	47138.10
752.37	46566.71
752.55	46290.24
752.74	46656.82
752.92	46814.52
753.10	46466.36
753.29	46828.85
753.47	46540.09
753.66	46169.41
753.84	46617.91
754.03	46396.73
754.21	46452.03
754.40	46828.85
754.58	46535.99
754.77	46331.20
754.95	46341.44
755.14	46185.79
755.32	46460.22
755.51	46060.87
755.69	46036.29
755.88	46437.69
756.06	46394.68
756.24	45843.78
756.43	45913.41
756.61	46032.19
756.80	46202.18
756.98	45610.31
757.17	45804.87
757.35	46226.75
757.54	45741.38
757.72	45888.84
757.90	45864.26
758.09	45679.94
758.27	45907.27
758.46	45602.12
758.64	45442.38
758.83	45768.01
759.01	45595.98
759.19	46019.91
759.38	45614.41
759.56	45892.93
759.75	45292.88
759.93	45481.29
760.12	45096.27
760.30	45440.33
760.48	45546.82
760.67	45258.06
760.85	45327.69
761.04	45235.53
761.22	45557.06
761.40	45188.43
761.59	45155.66
761.77	45069.65
761.96	45122.90
762.14	45442.38
762.32	44801.36
762.51	44905.81
762.69	44963.15
762.88	44445.02
763.06	45389.13
763.24	45026.64
763.43	44948.82
763.61	44983.63
763.80	44752.21
763.98	44283.23
764.16	44649.81
764.35	44084.58
764.53	44094.82
764.72	44148.06
764.90	44303.71
765.08	44402.01
765.27	44266.84
765.45	43976.03
765.63	43283.82
765.82	43996.51
766.00	43621.73
766.18	44137.82
766.37	44066.14
766.55	43652.45
766.74	43896.16
766.92	44008.80
767.10	43365.74
767.29	43687.27
767.47	43216.24
767.65	44021.09
767.84	43523.43
768.02	43795.81
768.20	42999.15
768.39	43638.12
768.57	43345.26
768.75	43427.18
768.94	43369.83
769.12	43435.37
769.30	43304.30
769.49	43099.50
769.67	43052.40
769.85	42818.93
770.04	43199.85
770.22	42857.84
770.40	42923.38
770.59	42759.54
770.77	43099.50
770.95	42902.90
771.14	42526.07
771.32	42538.36
771.50	42395.00
771.69	42759.54
771.87	42661.24
772.05	42554.74
772.24	42110.33
772.42	42057.09
772.60	42335.61
772.78	42046.85
772.97	42249.60
773.15	42442.10
773.33	42157.44
773.52	41885.06
773.70	42270.08
773.88	42200.44
774.07	41866.63
774.25	42497.40
774.43	42364.28
774.61	42435.96
774.80	42311.03
774.98	42077.57
775.16	42100.09
775.34	42356.09
775.53	42141.05
775.71	42497.40
775.89	42190.20
776.08	42026.37
776.26	42268.03
776.44	42337.66
776.62	42192.25
776.81	42179.96
776.99	42286.46
777.17	42141.05
777.35	42368.38
777.54	42202.49
777.72	42292.60
777.90	42331.51
778.08	42429.82
778.27	42114.43
778.45	42675.57
778.63	42378.62
778.81	42067.33
779.00	43058.54
779.18	42497.40
779.36	43001.20
779.54	42435.96
779.73	42583.41
779.91	42816.88
780.09	42696.05
780.27	42726.77
780.46	42829.17
780.64	43097.45
780.82	42700.15
781.00	43025.78
781.19	43054.45
781.37	43255.15
781.55	43228.52
781.73	42878.32
781.91	42585.46
782.10	43029.87
782.28	43373.93
782.46	42960.24
782.64	43648.36
782.82	42923.38
783.01	43072.88
783.19	42849.65
783.37	43074.93
783.55	42939.76
783.74	43302.25
783.92	42986.86
784.10	43402.60
784.28	43390.31
784.46	42673.52
784.64	42898.80
784.83	42972.53
785.01	43173.23
785.19	43093.36
785.37	43375.98
785.55	42888.56
785.74	43001.20
785.92	43242.86
786.10	43105.65
786.28	43177.33
786.46	42820.98
786.64	42909.04
786.83	42818.93
787.01	42849.65
787.19	42798.45
787.37	42804.59
787.55	42845.55
787.74	42691.96
787.92	42423.67
788.10	42636.66
788.28	42055.04
788.46	42407.29
788.64	42175.87
788.82	42683.76
789.01	42274.17
789.19	42349.95
789.37	41977.22
789.55	42110.33
789.73	41950.59
789.91	41342.35
790.09	41854.34
790.28	41741.70
790.46	41434.50
790.64	42192.25
790.82	41706.88
791.00	41735.56
791.18	41375.11
791.36	41557.38
791.55	41465.22
791.73	41667.97
791.91	41428.36
792.09	41209.23
792.27	40953.23
792.45	41344.39
792.63	40998.29
792.81	40998.29
793.00	41248.14
793.18	40963.47
793.36	40660.37
793.54	40451.48
793.72	40564.12
793.90	40435.10
794.08	40463.77
794.26	40672.66
794.44	40328.60
794.62	40121.76
794.81	40359.32
794.99	40052.12
795.17	40166.81
795.35	39832.99
795.53	39919.01
795.71	39835.04
795.89	39357.86
796.07	39384.49
796.25	39351.72
796.43	39642.53
796.61	39267.75
796.80	39138.73
796.98	39486.89
797.16	38880.69
797.34	38772.14
797.52	39167.40
797.70	39120.30
797.88	38581.68
798.06	38655.41
798.24	38770.10
798.42	38454.71
798.60	38557.11
798.78	38147.51
798.96	38464.95
799.14	38018.49
799.32	38165.95
799.51	37807.55
799.69	37871.04
799.87	38065.60
800.05	37957.05
800.23	37725.63
800.41	37619.14
800.59	37856.70
800.77	37422.53
800.95	37150.15
801.13	37082.57
801.31	37330.37
801.49	37144.01
801.67	37076.43
801.85	37105.10
802.03	36941.26
802.21	36705.74
802.39	36634.06
802.57	36464.08
802.75	36703.70
802.93	36310.49
803.11	36566.48
803.29	36498.90
803.47	36359.64
803.65	36378.07
803.83	35866.08
804.01	36427.22
804.19	35706.34
804.37	35610.08
804.55	35778.01
804.73	35462.63
804.91	35730.91
805.09	35577.31
805.27	35659.23
805.45	35583.46
805.63	35540.45
805.81	35206.63
805.99	35268.07
806.17	35296.74
806.35	35079.66
806.53	34708.97
806.71	34919.92
806.89	34821.61
807.07	34573.81
807.25	35266.02
807.43	34543.09
807.61	34743.79
807.79	34993.64
807.97	34448.88
808.15	34506.23
808.33	34698.73
808.51	34561.52
808.69	34258.42
808.87	34156.02
809.05	34031.10
809.23	33705.47
809.41	33728.00
809.59	33709.57
809.77	34086.39
809.95	33529.34
810.13	34166.26
810.31	33498.62
810.49	33281.54
810.67	33400.32
810.84	33369.60
811.02	33377.79
811.20	33297.92
811.38	33551.87
811.56	33068.55
811.74	33084.94
811.92	32980.49
812.10	33168.90
812.28	33240.58
812.46	32812.56
812.64	32914.95
812.82	32802.32
813.00	32820.75
813.18	33007.11
813.36	32818.70
813.53	32290.32
813.71	32331.28
813.89	32368.15
814.07	32697.87
814.25	33019.40
814.43	32007.70
814.61	32044.57
814.79	32032.28
814.97	31999.51
815.15	32253.46
815.33	32093.72
815.50	31587.87
815.68	31979.03
815.86	31804.95
816.04	31860.25
816.22	31710.75
816.40	31477.28
816.58	31467.04
816.76	31516.19
816.94	31368.74
817.11	31399.46
817.29	31280.67
817.47	31651.36
817.65	31551.01
817.83	31491.62
818.01	31137.32
818.19	30850.60
818.37	30842.41
818.54	30326.32
818.72	30854.70
818.90	30787.11
819.08	30807.59
819.26	30600.75
819.44	30514.73
819.62	30555.69
819.80	30858.79
819.97	30846.51
820.15	30891.56
820.33	30467.63
820.51	30494.25
820.69	30099.00
820.87	30662.19
821.05	30664.24
821.22	30361.14
821.40	30330.42
821.58	30111.28
821.76	29869.62
821.94	29959.73
822.12	30025.27
822.29	29890.10
822.47	29761.08
822.65	30144.05
822.83	30035.51
823.01	29599.29
823.19	29779.51
823.36	29496.89
823.54	29836.86
823.72	29384.26
823.90	29451.84
824.08	29390.40
824.25	29347.39
824.43	29056.58
824.61	29163.08
824.79	29173.31
824.97	29212.23
825.15	29288.00
825.32	29169.22
825.50	28925.51
825.68	29163.08
825.86	29032.00
826.04	29185.60
826.21	29009.48
826.39	29025.86
826.57	28950.09
826.75	28540.49
826.93	28872.26
827.10	28614.22
827.28	28675.66
827.46	28939.85
827.64	28845.64
827.81	28636.75
827.99	28313.17
828.17	28616.27
828.35	28210.77
828.53	28366.42
828.70	28278.35
828.88	28014.16
829.06	28210.77
829.24	28380.75
829.41	27696.73
829.59	28360.27
829.77	28274.26
829.95	28309.07
830.12	28286.54
830.30	28022.36
830.48	28036.69
830.66	28030.55
830.84	28270.16
831.01	27915.86
831.19	27835.99
831.37	27809.37
831.55	27790.94
831.72	27723.35
831.90	27842.14
832.08	27870.81
832.25	27645.53
832.43	27655.77
832.61	27641.43
832.79	27557.47
832.96	27741.78
833.14	27559.52
833.32	27760.22
833.50	27776.60
833.67	27633.24
833.85	27407.97
834.03	27135.59
834.20	27430.49
834.38	27448.93
834.56	27498.08
834.74	26981.99
834.91	27041.38
835.09	26930.79
835.27	26617.45
835.44	26871.40
835.62	26578.54
835.80	26699.37
835.98	27033.19
836.15	26648.17
836.33	26818.15
836.51	27033.19
836.68	26701.42
836.86	26674.79
837.04	26877.54
837.21	26420.84
837.39	26781.29
837.57	26844.77
837.75	26609.26
837.92	26195.57
838.10	26353.26
838.28	26330.73
838.45	26402.41
838.63	26193.52
838.81	26496.62
838.98	26166.90
839.16	26084.98
839.34	26123.89
839.51	26181.23
839.69	25884.28
839.87	25884.28
840.04	25775.73
840.22	25984.63
840.40	26025.59
840.57	25839.22
840.75	25792.12
840.93	25597.56
841.10	25960.05
841.28	26037.87
841.46	25857.65
841.63	25857.65
841.81	25675.38
841.98	25532.03
842.16	25742.97
842.34	25742.97
842.51	25474.68
842.69	25536.12
842.87	25382.52
843.04	25843.32
843.22	25400.96
843.40	25366.14
843.57	25216.64
843.75	25384.57
843.92	25519.74
844.10	25441.92
844.28	25067.14
844.45	25388.67
844.63	25271.93
844.81	25179.78
844.98	25177.73
845.16	24913.54
845.33	25063.04
845.51	25255.55
845.69	25054.85
845.86	24903.30
846.04	24817.29
846.21	25095.81
846.39	24841.86
846.57	24964.74
846.74	24948.36
846.92	24589.96
847.09	24667.78
847.27	24759.94
847.45	24630.92
847.62	24551.05
847.80	24530.57
847.97	24721.03
848.15	24383.12
848.32	24245.90
848.50	24473.23
848.68	24424.08
848.85	24116.88
849.03	23957.14
849.20	24428.17
849.38	24385.16
849.56	24424.08
849.73	24184.46
849.91	24012.43
850.08	24403.60
850.26	23852.69
850.43	23844.50
850.61	23940.75
850.78	23830.16
850.96	24194.70
851.14	24319.63
851.31	24016.53
851.49	23897.75
851.66	23885.46
851.84	23983.76
852.01	23916.18
852.19	23991.95
852.36	23582.36
852.54	23594.65
852.71	23539.35
852.89	23791.25
853.07	23682.71
853.24	23705.24
853.42	23445.15
853.59	23410.33
853.77	23332.51
853.94	23649.94
854.12	23656.09
854.29	23236.25
854.47	23414.43
854.64	23402.14
854.82	23211.68
854.99	23375.52
855.17	23422.62
855.34	22986.40
855.52	23160.48
855.69	23463.58
855.87	23023.26
856.04	22929.06
856.22	23039.65
856.39	22726.31
856.57	23041.70
856.74	23105.18
856.92	22859.43
857.09	22871.72
857.27	23117.47
857.44	23164.57
857.62	22722.21
857.79	22789.80
857.97	22744.74
858.14	22894.24
858.32	22701.73
858.49	22808.23
858.67	22748.84
858.84	22335.15
859.02	22654.63
859.19	22650.53
859.37	22521.51
859.54	22302.38
859.72	22804.13
859.89	22314.67
860.06	22427.31
860.24	22144.69
860.41	22388.39
860.59	22388.39
860.76	22228.65
860.94	21978.80
861.11	22269.61
861.29	22322.86
861.46	22030.00
861.64	21851.83
861.81	22064.82
861.98	22331.05
862.16	22097.58
862.33	21677.75
862.51	22011.57
862.68	21939.89
862.86	21982.90
863.03	21837.49
863.21	21765.81
863.38	21890.74
863.55	21575.35
863.73	21690.04
863.90	21692.08
864.08	21571.25
864.25	21669.56
864.43	21780.15
864.60	21497.53
864.77	21520.06
864.95	21345.98
865.12	21366.46
865.30	21599.93
865.47	21290.68
865.64	21321.40
865.82	21436.09
865.99	21606.07
866.17	21321.40
866.34	21434.04
866.51	21241.53
866.69	21354.17
866.86	21421.75
867.04	21087.93
867.21	21003.97
867.38	21112.51
867.56	21012.16
867.73	20995.78
867.91	20985.54
868.08	20786.88
868.25	20979.39
868.43	20782.79
868.60	21006.02
868.78	20653.76
868.95	21137.09
869.12	20680.39
869.30	20866.75
869.47	20752.07
869.64	20397.77
869.82	20602.57
869.99	20752.07
870.16	20713.16
870.34	20182.73
870.51	20512.46
870.69	20121.29
870.86	20223.69
871.03	20672.20
871.21	20360.91
871.38	20467.40
871.55	20139.72
871.73	20430.54
871.90	20010.70
872.07	19881.68
872.25	19943.12
872.42	19871.44
872.59	20020.94
872.77	19853.01
872.94	20106.96
873.11	19812.05
873.29	19914.45
873.46	19848.91
873.63	19666.64
873.81	19674.84
873.98	19701.46
874.15	19664.60
874.33	19384.02
874.50	19492.57
874.67	19470.04
874.85	19193.56
875.02	19435.22
875.19	19349.21
875.37	19734.23
875.54	19500.76
875.71	19394.26
875.88	19097.31
876.06	19480.28
876.23	19097.31
876.40	19148.51
876.58	19109.60
876.75	19158.75
876.92	19085.02
877.10	18851.55
877.27	18763.49
877.44	18937.57
877.61	18771.68
877.79	18982.62
877.96	18859.74
878.13	18595.56
878.31	18708.19
878.48	18810.59
878.65	18464.49
878.82	18765.54
879.00	18757.35
879.17	18314.98
879.34	18466.53
879.51	18501.35
879.69	18208.49
879.86	18398.95
880.03	18185.96
880.21	18194.15
880.38	18241.26
880.55	18527.97
880.72	18484.97
880.90	18286.31
881.07	17952.49
881.24	18183.91
881.41	18206.44
881.59	17811.18
881.76	18292.46
881.93	18011.89
882.10	17880.82
882.28	17970.93
882.45	17979.12
882.62	17866.48
882.79	18097.90
882.96	17422.07
883.14	17878.77
883.31	17940.21
883.48	17956.59
883.65	17665.78
883.83	18024.17
884.00	17698.55
884.17	17893.10
884.34	17882.86
884.51	17866.48
884.69	17755.89
884.86	17485.56
885.03	17608.44
885.20	17495.80
885.38	17856.24
885.55	17411.83
885.72	17641.20
885.89	17446.65
886.06	17635.06
886.24	17571.57
886.41	17458.93
886.58	17520.37
886.75	17471.22
886.92	17174.27
887.10	17215.23
887.27	17299.19
887.44	17037.05
887.61	17526.52
887.78	17047.29
887.95	17104.64
888.13	17020.67
888.30	17024.76
888.47	16944.89
888.64	17223.42
888.81	16897.79
888.99	16895.74
889.16	16985.85
889.33	16600.83
889.50	16834.30
889.67	16723.71
889.84	16602.88
890.01	16807.68
890.19	16717.57
890.36	16742.14
890.53	16815.87
890.70	16279.30
890.87	16717.57
891.04	16463.62
891.22	16398.09
891.39	16647.94
891.56	16168.71
891.73	16471.81
891.90	16387.85
892.07	16418.57
892.24	16271.11
892.42	16297.74
892.59	16373.51
892.76	16252.68
892.93	16389.89
893.10	16199.43
893.27	16271.11
893.44	16125.71
893.61	16221.96
893.79	16277.26
893.96	16185.10
894.13	16398.09
894.30	16084.75
894.47	16217.86
894.64	16426.76
894.81	16084.75
894.98	16043.79
895.15	16068.36
895.33	15972.11
895.50	15879.95
895.67	16164.62
895.84	15759.12
896.01	15724.30
896.18	16115.47
896.35	16242.44
896.52	16086.79
896.69	16045.84
896.86	16039.69
897.04	15945.48
897.21	15982.35
897.38	15781.65
897.55	16058.12
897.72	16142.09
897.89	15634.19
898.06	16004.88
898.23	15773.46
898.40	15896.33
898.57	15802.13
898.74	15898.38
898.91	15888.14
899.08	15961.87
899.26	15925.00
899.43	16125.71
899.60	15728.40
899.77	15937.29
899.94	15808.27
900.11	15785.74
900.28	15707.92
900.45	15775.50
900.62	15666.96
900.79	15869.71
900.96	15822.61
901.13	15574.80
901.30	15976.20
901.47	15716.11
901.64	15898.38
901.81	15931.15
901.98	15533.84
902.15	15988.49
902.32	15800.08
902.49	15927.05
902.66	15765.26
902.83	15820.56
903.01	15798.03
903.18	15701.78
903.35	15617.81
903.52	15578.90
903.69	15775.50
903.86	15767.31
904.03	15851.28
904.20	15976.20
904.37	15748.88
904.54	15681.30
904.71	15877.90
904.88	15916.81
905.05	15752.98
905.22	15785.74
905.39	15795.98
905.56	15787.79
905.73	15728.40
905.90	15722.26
906.07	15898.38
906.24	15595.28
906.41	15662.86
906.58	15740.69
906.75	15949.58
906.92	15576.85
907.09	15664.91
907.26	15679.25
907.43	15703.82
907.60	15636.24
907.77	15699.73
907.93	15582.99
908.10	15566.61
908.27	15869.71
908.44	15572.75
908.61	15494.93
908.78	15662.86
908.95	15501.08
909.12	15550.23
909.29	15634.19
909.46	15570.71
909.63	15822.61
909.80	15683.34
909.97	15478.55
910.14	15406.87
910.31	15611.67
910.48	15435.54
910.65	15482.64
910.82	15118.11
910.99	15419.16
911.16	15458.07
911.33	15361.81
911.50	15286.04
911.66	15165.21
911.83	15079.19
912.00	15187.74
912.17	15068.95
912.34	15114.01
912.51	15146.78
912.68	15306.52
912.85	15200.02
913.02	15245.08
913.19	14958.36
913.36	15114.01
913.53	15118.11
913.70	15032.09
913.86	15003.42
914.03	14874.40
914.20	15013.66
914.37	14964.51
914.54	14905.12
914.71	14911.26
914.88	14827.29
915.05	14972.70
915.22	14475.04
915.39	14694.18
915.55	14841.63
915.72	14536.48
915.89	14632.74
916.06	14645.02
916.23	14513.95
916.40	14556.96
916.57	14528.29
916.74	14642.98
916.91	14374.69
917.07	14305.06
917.24	14456.61
917.41	14323.49
917.58	14448.42
917.75	14432.04
917.92	14225.19
918.09	14380.84
918.26	14239.53
918.42	14133.03
918.59	13903.66
918.76	13938.48
918.93	13735.73
919.10	13952.81
919.27	13827.88
919.44	14075.69
919.60	13926.19
919.77	13913.90
919.94	13723.44
920.11	13946.67
920.28	13963.05
920.45	13635.38
920.61	13578.03
920.78	13563.70
920.95	13602.61
921.12	13502.26
921.29	13408.05
921.46	13365.04
921.62	13195.06
921.79	13440.82
921.96	13221.69
922.13	13125.43
922.30	12914.49
922.47	12877.63
922.63	12961.59
922.80	12953.40
922.97	12918.59
923.14	12785.47
923.31	12937.02
923.47	12648.26
923.64	13100.86
923.81	12810.04
923.98	12586.82
924.15	12568.38
924.32	12699.45
924.48	12445.51
924.65	12648.26
924.82	12416.83
924.99	12246.85
925.15	12248.90
925.32	12398.40
925.49	12273.48
925.66	12046.15
925.83	11997.00
925.99	11978.57
926.16	12253.00
926.33	12142.41
926.50	11972.43
926.67	12037.96
926.83	12083.02
927.00	12046.15
927.17	11771.72
927.34	11765.58
927.50	11800.40
927.67	11779.92
927.84	11654.99
928.01	11630.41
928.17	11544.40
928.34	11464.53
928.51	11513.68
928.68	11503.44
928.84	11351.89
929.01	11319.12
929.18	11128.66
929.35	11235.16
929.51	11175.77
929.68	11108.18
929.85	11044.70
930.02	11110.23
930.18	11022.17
930.35	10760.03
930.52	10839.90
930.69	11013.98
930.85	10911.58
931.02	10735.45
931.19	10776.41
931.36	10561.37
931.52	10592.09
931.69	10557.28
931.86	10516.32
932.02	10563.42
932.19	10256.23
932.36	10411.87
932.53	10542.94
932.69	10428.26
932.86	10395.49
933.03	10114.92
933.19	10024.81
933.36	10207.08
933.53	10231.65
933.70	10043.24
933.86	9963.37
934.03	9996.14
934.20	9774.95
934.36	9858.92
934.53	9629.55
934.70	9607.02
934.86	9604.97
935.03	9549.68
935.20	9535.34
935.36	9187.19
935.53	9109.36
935.70	9037.69
935.86	9150.32
936.03	9025.40
936.20	8953.72
936.36	8929.14
936.53	8871.80
936.70	8935.29
936.86	9058.17
937.03	8673.15
937.20	8482.69
937.36	8494.97
937.53	8228.74
937.70	8216.45
937.86	8189.83
938.03	8101.76
938.20	8150.92
938.36	8044.42
938.53	7888.78
938.70	7702.41
938.86	7735.18
939.03	7647.12
939.20	7526.29
939.36	7499.66
939.53	7325.58
939.70	7645.07
939.86	7149.46
940.03	7190.42
940.19	7116.69
940.36	7034.77
940.53	6926.23
940.69	6875.03
940.86	6975.38
941.03	6668.19
941.19	6647.71
941.36	6485.92
941.52	6590.36
941.69	6555.55
941.86	6383.52
942.02	6287.26
942.19	6248.35
942.35	6274.98
942.52	6182.82
942.69	6260.64
942.85	6131.62
943.02	5959.59
943.18	6135.71
943.35	6033.32
943.52	6004.64
943.68	5754.79
943.85	5844.90
944.01	5767.08
944.18	5709.74
944.35	5791.66
944.51	5672.87
944.68	5558.19
944.84	5668.78
945.01	5701.54
945.17	5730.22
945.34	5699.50
945.51	5568.43
945.67	5513.13
945.84	5517.23
946.00	5554.09
946.17	5484.46
946.33	5351.34
946.50	5576.62
946.67	5435.31
946.83	5531.56
947.00	5683.11
947.16	5445.55
947.33	5382.06
947.49	5599.15
947.66	5326.77
947.82	5427.12
947.99	5484.46
948.16	5328.81
948.32	5427.12
948.49	5414.83
948.65	5590.95
948.82	5466.03
948.98	5443.50
949.15	5353.39
949.31	5494.70
949.48	5463.98
949.64	5511.08
949.81	5484.46
949.97	5382.06
950.14	5502.89
950.30	5449.64
950.47	5431.21
950.63	5361.58
950.80	5480.36
950.96	5466.03
951.13	5449.64
951.30	5468.08
951.46	5525.42
951.63	5619.63
951.79	5613.48
951.96	5490.60
952.12	5593.00
952.29	5676.97
952.45	5572.52
952.62	5463.98
952.78	5590.95
952.94	5564.33
953.11	5582.76
953.27	5408.69
953.44	5629.87
953.60	5541.80
953.77	5590.95
953.93	5650.35
954.10	5638.06
954.26	5447.60
954.43	5599.15
954.59	5646.25
954.76	5670.83
954.92	5517.23
955.09	5547.95
955.25	5488.56
955.42	5640.11
955.58	5597.10
955.75	5588.91
955.91	5615.53
956.07	5619.63
956.24	5535.66
956.40	5603.24
956.57	5758.89
956.73	5541.80
956.90	5652.39
957.06	5644.20
957.23	5529.52
957.39	5597.10
957.56	5699.50
957.72	5537.71
957.88	5566.38
958.05	5801.90
958.21	5670.83
958.38	5648.30
958.54	5638.06
958.71	5818.28
958.87	5674.92
959.03	5476.27
959.20	5703.59
959.36	5613.48
959.53	5648.30
959.69	5640.11
959.85	5709.74
960.02	5623.72
960.18	5623.72
960.35	5525.42
960.51	5590.95
960.68	5349.29
960.84	5572.52
961.00	5652.39
961.17	5543.85
961.33	5711.78
961.50	5656.49
961.66	5498.80
961.82	5609.39
961.99	5574.57
962.15	5582.76
962.31	5556.14
962.48	5582.76
962.64	5494.70
962.81	5509.04
962.97	5496.75
963.13	5775.27
963.30	5609.39
963.46	5375.92
963.62	5566.38
963.79	5506.99
963.95	5480.36
964.12	5511.08
964.28	5574.57
964.44	5367.73
964.61	5670.83
964.77	5474.22
964.93	5564.33
965.10	5451.69
965.26	5502.89
965.42	5457.84
965.59	5367.73
965.75	5476.27
965.92	5457.84
966.08	5595.05
966.24	5459.88
966.41	5455.79
966.57	5423.02
966.73	5494.70
966.90	5511.08
967.06	5357.49
967.22	5416.88
967.39	5384.11
967.55	5302.19
967.71	5386.16
967.88	5332.91
968.04	5357.49
968.20	5308.34
968.37	5330.86
968.53	5351.34
968.69	5238.70
968.85	5377.97
969.02	5347.25
969.18	5230.51
969.34	5296.05
969.51	5324.72
969.67	5375.92
969.83	5222.32
970.00	5382.06
970.16	5236.66
970.32	5169.07
970.48	5351.34
970.65	5281.71
970.81	5130.16
970.97	5138.35
971.14	5148.59
971.30	5238.70
971.46	5179.31
971.63	5040.05
971.79	5255.09
971.95	5136.31
972.11	5011.38
972.28	5093.30
972.44	5027.76
972.60	4984.76
972.76	4986.80
972.93	5081.01
973.09	5138.35
973.25	5013.43
973.42	5003.19
973.58	5076.91
973.74	5091.25
973.90	5007.28
974.07	4872.12
974.23	4943.80
974.39	4951.99
974.55	4988.85
974.72	4904.89
974.88	4872.12
975.04	4947.89
975.20	4833.21
975.37	5132.21
975.53	4935.60
975.69	4818.87
975.85	4943.80
976.01	4820.92
976.18	4841.40
976.34	4829.11
976.50	4900.79
976.66	4966.32
976.83	4913.08
976.99	4804.53
977.15	4743.10
977.31	4796.34
977.47	4808.63
977.64	4714.42
977.80	4714.42
977.96	4726.71
978.12	4736.95
978.29	4728.76
978.45	4560.83
978.61	4698.04
978.77	4683.70
978.93	4648.89
979.10	4728.76
979.26	4591.55
979.42	4622.27
979.58	4515.77
979.74	4614.07
979.91	4605.88
980.07	4663.22
980.23	4440.00
980.39	4509.63
980.55	4556.73
980.71	4530.11
980.88	4523.96
981.04	4511.68
981.20	4552.63
981.36	4665.27
981.52	4487.10
981.68	4409.28
981.85	4554.68
982.01	4364.22
982.17	4433.85
982.33	4470.72
982.49	4540.35
982.65	4505.53
982.82	4353.98
982.98	4403.13
983.14	4396.99
983.30	4327.36
983.46	4417.47
983.62	4310.97
983.79	4425.66
983.95	4288.45
984.11	4204.48
984.27	4374.46
984.43	4351.93
984.59	4313.02
984.75	4366.27
984.91	4368.32
985.08	4310.97
985.24	4282.30
985.40	4267.97
985.56	4362.17
985.72	4319.17
985.88	4265.92
986.04	4267.97
986.20	4175.81
986.37	4243.39
986.53	4175.81
986.69	4220.86
986.85	4089.79
987.01	4175.81
987.17	4196.29
987.33	4184.00
987.49	4210.62
987.65	4204.48
987.82	4188.10
987.98	4048.83
988.14	4108.23
988.30	4204.48
988.46	3944.39
988.62	3925.96
988.78	3932.10
988.94	4040.64
989.10	3919.81
989.26	3928.00
989.42	3981.25
989.59	3938.24
989.75	3774.41
989.91	4059.07
990.07	3641.29
990.23	3987.40
990.39	3856.33
990.55	3995.59
990.71	3831.75
990.87	3866.56
991.03	3858.37
991.19	3901.38
991.35	3868.61
991.51	3995.59
991.67	3870.66
991.83	3780.55
992.00	3856.33
992.16	3811.27
992.32	3819.46
992.48	3762.12
992.64	3725.26
992.80	3803.08
992.96	3717.06
993.12	3760.07
993.28	3661.77
993.44	3694.54
993.60	3823.56
993.76	3678.15
993.92	3854.28
994.08	3723.21
994.24	3661.77
994.40	3598.28
994.56	3858.37
994.72	3665.86
994.88	3624.90
995.04	3694.54
995.20	3643.34
995.36	3667.91
995.52	3696.58
995.68	3512.27
995.84	3508.17
996.00	3682.25
996.16	3467.21
996.32	3491.79
996.48	3497.93
996.64	3614.66
996.80	3483.59
996.96	3655.62
997.12	3504.07
997.28	3522.51
997.44	3346.38
997.60	3497.93
997.76	3368.91
997.92	3540.94
998.08	3536.84
998.24	3198.93
998.40	3493.83
998.56	3401.68
998.72	3303.37
998.88	3346.38
999.04	3407.82
999.20	3540.94
999.36	3327.95
999.52	3471.31
999.68	3289.04
999.84	3387.34
1000.00	3420.11
1000.16	3352.52
1000.32	3284.94
1000.48	3477.45
1000.64	3321.81
1000.80	3162.06
1000.95	3295.18
1001.11	3340.24
1001.27	3286.99
1001.43	3354.57
1001.59	3180.50
1001.75	3186.64
1001.91	3225.55
1002.07	3192.78
1002.23	3168.21
1002.39	3180.50
1002.55	3284.94
1002.71	3190.74
1002.87	3221.45
1003.03	3086.29
1003.19	3141.58
1003.34	3157.97
1003.50	3035.09
1003.66	3209.17
1003.82	3176.40
1003.98	3018.71
1004.14	3239.89
1004.30	3184.59
1004.46	3125.20
1004.62	3059.67
1004.78	3149.78
1004.94	3147.73
1005.09	3069.91
1005.25	3010.51
1005.41	3086.29
1005.57	3088.34
1005.73	3078.10
1005.89	3049.43
1006.05	3041.23
1006.21	3071.95
1006.37	3043.28
1006.52	2934.74
1006.68	2904.02
1006.84	3104.72
1007.00	2957.27
1007.16	3035.09
1007.32	2924.50
1007.48	2961.36
1007.64	2940.88
1007.79	2957.27
1007.95	2926.55
1008.11	2959.31
1008.27	2861.01
1008.43	2959.31
1008.59	2936.79
1008.75	2977.75
1008.91	2973.65
1009.06	2848.72
1009.22	2904.02
1009.38	2990.03
1009.54	2844.63
1009.70	2824.15
1009.86	2824.15
1010.01	2838.48
1010.17	2801.62
1010.33	2869.20
1010.49	2746.33
1010.65	2809.81
1010.81	2775.00
1010.96	2731.99
1011.12	2828.24
1011.28	2781.14
1011.44	2885.59
1011.60	2762.71
1011.76	2838.48
1011.91	2789.33
1012.07	2672.60
1012.23	2615.26
1012.39	2678.74
1012.55	2744.28
1012.71	2772.95
1012.86	2715.61
1013.02	2654.17
1013.18	2688.98
1013.34	2629.59
1013.50	2768.85
1013.65	2688.98
1013.81	2652.12
1013.97	2668.50
1014.13	2705.37
1014.29	2715.61
1014.44	2703.32
1014.60	2637.78
1014.76	2605.02
1014.92	2695.13
1015.07	2605.02
1015.23	2578.39
1015.39	2650.07
1015.55	2539.48
1015.71	2625.50
1015.86	2457.56
1016.02	2490.33
1016.18	2498.52
1016.34	2639.83
1016.49	2590.68
1016.65	2611.16
1016.81	2512.86
1016.97	2553.82
1017.12	2598.87
1017.28	2416.60
1017.44	2559.96
1017.60	2516.95
1017.75	2490.33
1017.91	2463.71
1018.07	2519.00
1018.23	2508.76
1018.38	2408.41
1018.54	2381.79
1018.70	2441.18
1018.86	2400.22
1019.01	2437.08
1019.17	2525.15
1019.33	2584.54
1019.49	2359.26
1019.64	2412.51
1019.80	2435.03
1019.96	2375.64
1020.12	2496.47
1020.27	2369.50
1020.43	2406.36
1020.59	2449.37
1020.74	2467.80
1020.90	2445.27
1021.06	2437.08
1021.22	2412.51
1021.37	2467.80
1021.53	2287.58
1021.69	2383.84
1021.84	2254.81
1022.00	2426.84
1022.16	2320.35
1022.31	2299.87
1022.47	2367.45
1022.63	2367.45
1022.79	2242.53
1022.94	2271.20
1023.10	2412.51
1023.26	2342.88
1023.41	2308.06
1023.57	2291.68
1023.73	2322.40
1023.88	2330.59
1024.04	2203.61
1024.20	2179.04
1024.35	2306.01
1024.51	2320.35
1024.67	2224.09
1024.82	2404.32
1024.98	2246.62
1025.14	2293.72
1025.29	2156.51
1025.45	2326.49
1025.61	2183.13
1025.76	2389.98
1025.92	2170.85
1026.08	2303.96
1026.23	2232.29
1026.39	2287.58
1026.55	2240.48
1026.70	2181.09
1026.86	2205.66
1027.02	2187.23
1027.17	2228.19
1027.33	2168.80
1027.48	2166.75
1027.64	2127.84
1027.80	2154.46
1027.95	2287.58
1028.11	2060.26
1028.27	2240.48
1028.42	2140.13
1028.58	2131.94
1028.73	2121.70
1028.89	2090.98
1029.05	2250.72
1029.20	2133.98
>>>>>End Processed Spectral Data<<<<<
