SpectraSuite Data File
++++++++++++++++++++++++++++++++++++
Date: Fri Jun 02 14:47:55 CEST 2017
User: INFO_000
Dark Spectrum Present: No
Reference Spectrum Present: No
Number of Sampled Component Spectra: 1
Spectrometers: USB4H00879
Integration Time (usec): 80000 (USB4H00879)
Spectra Averaged: 1 (USB4H00879)
Boxcar Smoothing: 0 (USB4H00879)
Correct for Electrical Dark: No (USB4H00879)
Strobe/Lamp Enabled: No (USB4H00879)
Correct for Detector Non-linearity: No (USB4H00879)
Correct for Stray Light: No (USB4H00879)
Number of Pixels in Processed Spectrum: 3648
>>>>>Begin Processed Spectral Data<<<<<
345.13	1343.47
345.34	1343.47
345.56	1343.47
345.78	1341.42
345.99	1310.70
346.21	1699.81
346.42	1667.05
346.64	1691.62
346.86	1763.30
347.07	1654.76
347.29	1767.40
347.50	1646.57
347.72	1619.94
347.94	1802.21
348.15	1581.03
348.37	1617.90
348.59	1683.43
348.80	1718.25
349.02	1685.48
349.23	1861.60
349.45	1728.49
349.67	1900.52
349.88	1695.72
350.10	1945.57
350.31	1808.36
350.53	1810.40
350.75	1943.52
350.96	1806.31
351.18	1920.99
351.39	1814.50
351.61	1720.29
351.82	1986.53
352.04	1935.33
352.26	1830.88
352.47	1884.13
352.69	1927.14
352.90	1781.73
353.12	1755.11
353.34	1902.56
353.55	1949.67
353.77	1818.60
353.98	1873.89
354.20	1845.22
354.41	1906.66
354.63	1896.42
354.85	2062.30
355.06	1906.66
355.28	1759.21
355.49	1931.23
355.71	1845.22
355.92	1886.18
356.14	1953.76
356.35	1847.27
356.57	1886.18
356.79	1976.29
357.00	1951.71
357.22	1937.38
357.43	1851.36
357.65	1957.86
357.86	1826.79
358.08	1968.10
358.29	1937.38
358.51	2000.87
358.72	1980.39
358.94	1982.43
359.16	1875.94
359.37	1912.80
359.59	1964.00
359.80	2052.06
360.02	1945.57
360.23	1970.15
360.45	1964.00
360.66	1900.52
360.88	1904.61
361.09	1877.99
361.31	2027.49
361.52	2017.25
361.74	2060.26
361.95	2009.06
362.17	1896.42
362.38	2023.39
362.60	2002.91
362.81	2060.26
363.03	1982.43
363.24	1933.28
363.46	2004.96
363.67	1984.48
363.89	1910.75
364.10	2043.87
364.32	1939.43
364.53	1994.72
364.75	1839.08
364.96	2052.06
365.18	2072.54
365.39	2009.06
365.61	2027.49
365.82	2166.75
366.04	2019.30
366.25	2019.30
366.47	2060.26
366.68	2031.58
366.90	1859.56
367.11	2101.22
367.33	2025.44
367.54	2070.50
367.76	1976.29
367.97	2133.98
368.19	2015.20
368.40	2056.16
368.62	2041.82
368.83	2017.25
369.05	2031.58
369.26	1945.57
369.48	1945.57
369.69	1908.71
369.91	1972.19
370.12	2064.35
370.33	2142.18
370.55	2013.15
370.76	2078.69
370.98	2090.98
371.19	2021.35
371.41	2023.39
371.62	2033.63
371.84	1978.34
372.05	2076.64
372.27	2041.82
372.48	2099.17
372.69	2115.55
372.91	2162.66
373.12	2129.89
373.34	2115.55
373.55	2142.18
373.77	2205.66
373.98	2164.70
374.20	2133.98
374.41	2265.05
374.62	2068.45
374.84	2095.07
375.05	2185.18
375.27	2176.99
375.48	2154.46
375.70	2217.95
375.91	2273.25
376.12	2287.58
376.34	2119.65
376.55	2154.46
376.77	2158.56
376.98	2107.36
377.19	2142.18
377.41	2195.42
377.62	2162.66
377.84	2256.86
378.05	2351.07
378.27	2213.85
378.48	2281.44
378.69	2367.45
378.91	2287.58
379.12	2187.23
379.34	2265.05
379.55	2308.06
379.76	2281.44
379.98	2248.67
380.19	2260.96
380.41	2260.96
380.62	2230.24
380.83	2244.57
381.05	2125.79
381.26	2453.47
381.47	2193.37
381.69	2197.47
381.90	2457.56
382.12	2398.17
382.33	2211.81
382.54	2238.43
382.76	2285.53
382.97	2281.44
383.19	2289.63
383.40	2373.60
383.61	2404.32
383.83	2277.34
384.04	2271.20
384.25	2371.55
384.47	2449.37
384.68	2340.83
384.89	2301.92
385.11	2394.08
385.32	2365.40
385.54	2279.39
385.75	2328.54
385.96	2408.41
386.18	2453.47
386.39	2445.27
386.60	2301.92
386.82	2516.95
387.03	2375.64
387.24	2467.80
387.46	2455.51
387.67	2455.51
387.88	2531.29
388.10	2496.47
388.31	2537.43
388.52	2633.69
388.74	2504.67
388.95	2465.75
389.16	2549.72
389.38	2516.95
389.59	2551.77
389.80	2619.35
390.02	2555.86
390.23	2586.58
390.44	2514.91
390.66	2584.54
390.87	2445.27
391.08	2656.22
391.30	2662.36
391.51	2625.50
391.72	2797.53
391.94	2600.92
392.15	2576.34
392.36	2445.27
392.58	2564.06
392.79	2713.56
393.00	2645.98
393.22	2781.14
393.43	2756.57
393.64	2795.48
393.85	2795.48
394.07	2641.88
394.28	2805.72
394.49	2762.71
394.71	2871.25
394.92	2889.68
395.13	2682.84
395.35	2783.19
395.56	2815.96
395.77	2744.28
395.98	2793.43
396.20	2818.00
396.41	2936.79
396.62	2944.98
396.84	2711.51
397.05	2715.61
397.26	2867.16
397.47	2908.12
397.69	2828.24
397.90	2994.13
398.11	2852.82
398.32	2899.92
398.54	2846.68
398.75	2887.64
398.96	2871.25
399.18	2998.23
399.39	2967.51
399.60	3053.52
399.81	2783.19
400.03	2891.73
400.24	3217.36
400.45	2955.22
400.66	3131.34
400.88	3041.23
401.09	3149.78
401.30	3096.53
401.51	3082.19
401.73	3139.54
401.94	3088.34
402.15	3092.43
402.36	3071.95
402.58	3172.30
402.79	3112.91
403.00	3229.65
403.21	3227.60
403.43	3217.36
403.64	3289.04
403.85	3108.82
404.06	3194.83
404.27	3170.26
404.49	3139.54
404.70	3143.63
404.91	3221.45
405.12	3143.63
405.34	3207.12
405.55	3352.52
405.76	3114.96
405.97	3231.69
406.19	3411.92
406.40	3219.41
406.61	3362.76
406.82	3254.22
407.03	3274.70
407.25	3291.09
407.46	3381.20
407.67	3438.54
407.88	3446.73
408.09	3348.43
408.31	3342.28
408.52	3381.20
408.73	3416.01
408.94	3346.38
409.15	3358.67
409.37	3538.89
409.58	3551.18
409.79	3526.60
410.00	3551.18
410.21	3450.83
410.43	3469.26
410.64	3393.48
410.85	3475.40
411.06	3493.83
411.27	3571.66
411.48	3592.14
411.70	3682.25
411.91	3581.90
412.12	3538.89
412.33	3553.23
412.54	3571.66
412.76	3745.73
412.97	3723.21
413.18	3616.71
413.39	3592.14
413.60	3739.59
413.81	3659.72
414.03	3524.55
414.24	3592.14
414.45	3764.17
414.66	3706.82
414.87	3721.16
415.08	3803.08
415.30	3743.69
415.51	3717.06
415.72	3731.40
415.93	3682.25
416.14	3760.07
416.35	3796.93
416.56	3833.80
416.78	3762.12
416.99	3721.16
417.20	3880.90
417.41	3848.13
417.62	3915.72
417.83	4046.79
418.04	3850.18
418.26	3938.24
418.47	3805.13
418.68	3762.12
418.89	3874.76
419.10	3993.54
419.31	3975.11
419.52	4044.74
419.73	3950.53
419.95	4042.69
420.16	3891.14
420.37	3962.82
420.58	3968.96
420.79	3952.58
421.00	4032.45
421.21	4104.13
421.42	4046.79
421.63	4122.56
421.85	3944.39
422.06	4145.09
422.27	4114.37
422.48	4204.48
422.69	4108.23
422.90	4169.66
423.11	4257.73
423.32	4208.58
423.53	4335.55
423.75	4274.11
423.96	4360.13
424.17	4417.47
424.38	4534.20
424.59	4315.07
424.80	4425.66
425.01	4347.84
425.22	4313.02
425.43	4288.45
425.64	4589.50
425.85	4521.92
426.06	4499.39
426.28	4566.97
426.49	4585.40
426.70	4552.63
426.91	4528.06
427.12	4661.18
427.33	4581.31
427.54	4501.44
427.75	4714.42
427.96	4730.81
428.17	4618.17
428.38	4736.95
428.59	4710.33
428.80	4751.29
429.01	4816.82
429.23	4859.83
429.44	4956.08
429.65	4904.89
429.86	4939.70
430.07	4851.64
430.28	4716.47
430.49	4919.22
430.70	5011.38
430.91	5021.62
431.12	5001.14
431.33	4974.52
431.54	5179.31
431.75	5253.04
431.96	5146.55
432.17	5085.11
432.38	5050.29
432.59	5361.58
432.80	5167.03
433.01	5279.66
433.22	5447.60
433.43	5130.16
433.64	5300.14
433.85	5154.74
434.06	5263.28
434.27	5250.99
434.49	5472.17
434.70	5410.73
434.91	5478.32
435.12	5447.60
435.33	5459.88
435.54	5435.31
435.75	5375.92
435.96	5511.08
436.17	5476.27
436.38	5558.19
436.59	5601.19
436.80	5646.25
437.01	5859.24
437.22	5656.49
437.43	5502.89
437.64	5574.57
437.85	5846.95
438.06	5824.42
438.27	5609.39
438.48	5722.02
438.69	5781.42
438.90	5799.85
439.11	5685.16
439.32	5881.77
439.53	5787.56
439.74	6031.27
439.95	5805.99
440.16	5834.66
440.37	5943.21
440.57	5646.25
440.78	6016.93
440.99	6045.60
441.20	5941.16
441.41	5908.39
441.62	6104.99
441.83	5826.47
442.04	6002.60
442.25	6104.99
442.46	6154.15
442.67	6348.70
442.88	6490.01
443.09	5961.64
443.30	6041.51
443.51	6234.02
443.72	6369.18
443.93	6113.19
444.14	6535.07
444.35	6141.86
444.56	6375.33
444.77	6238.11
444.98	6467.49
445.19	6236.06
445.40	6344.61
445.61	6459.29
445.81	6410.14
446.02	6492.06
446.23	6324.13
446.44	6250.40
446.65	6461.34
446.86	6490.01
447.07	6490.01
447.28	6637.47
447.49	6610.84
447.70	6614.94
447.91	6770.58
448.12	6621.08
448.33	6713.24
448.54	6789.02
448.74	6631.32
448.95	6664.09
449.16	6694.81
449.37	7104.40
449.58	6793.11
449.79	6934.42
450.00	6690.71
450.21	6950.81
450.42	6903.70
450.63	6987.67
450.84	6897.56
451.05	6999.96
451.25	7008.15
451.46	6909.85
451.67	7137.17
451.88	7159.70
452.09	7104.40
452.30	6952.85
452.51	7075.73
452.72	7204.75
452.93	7516.05
453.13	7227.28
453.34	7100.31
453.55	7249.81
453.76	7258.00
453.97	7475.09
454.18	7350.16
454.39	7491.47
454.60	7372.69
454.81	7468.94
455.01	7622.54
455.22	7184.27
455.43	7618.44
455.64	7706.51
455.85	7815.05
456.06	7958.41
456.27	7640.97
456.48	7622.54
456.68	7827.34
456.89	7874.44
457.10	7769.99
457.31	7729.03
457.52	7731.08
457.73	7876.49
457.94	7982.98
458.14	7849.86
458.35	8157.06
458.56	8122.24
458.77	8071.04
458.98	8329.09
459.19	8202.11
459.39	8302.47
459.60	8267.65
459.81	8337.28
460.02	8492.93
460.23	8406.91
460.44	8529.79
460.65	8591.23
460.85	8644.48
461.06	8679.29
461.27	8372.10
461.48	8759.16
461.69	9045.88
461.89	8601.47
462.10	8857.46
462.31	8501.12
462.52	8591.23
462.73	8892.28
462.94	9043.83
463.14	8986.49
463.35	8974.20
463.56	9549.68
463.77	9396.08
463.98	9074.55
464.18	9400.18
464.39	9449.33
464.60	9613.17
464.81	9492.34
465.02	9690.99
465.23	9680.75
465.43	9647.98
465.64	9946.98
465.85	9830.25
466.06	9670.51
466.27	10231.65
466.47	9914.22
466.68	9912.17
466.89	10024.81
467.10	10094.44
467.30	9998.18
467.51	10114.92
467.72	10473.31
467.93	10164.07
468.14	10264.42
468.34	10641.25
468.55	10606.43
468.76	10727.26
468.97	10350.43
469.17	10755.93
469.38	10655.58
469.59	10874.71
469.80	10798.94
470.01	11046.74
470.21	10846.04
470.42	11214.68
470.63	11202.39
470.84	10938.20
471.04	11239.25
471.25	11304.79
471.46	11059.03
471.67	11923.27
471.87	11519.82
472.08	11702.09
472.29	11913.03
472.50	11355.99
472.70	11702.09
472.91	12033.86
473.12	11788.11
473.33	12056.39
473.53	12238.66
473.74	12218.18
473.95	12318.53
474.16	12470.08
474.36	12478.27
474.57	12379.97
474.78	12869.44
474.99	12523.33
475.19	12748.61
475.40	13070.14
475.61	12963.64
475.81	13123.38
476.02	13158.20
476.23	13084.47
476.44	13205.30
476.64	13492.02
476.85	13403.96
477.06	13436.72
477.27	13854.51
477.47	13635.38
477.68	13936.43
477.89	13993.77
478.09	13932.33
478.30	14143.27
478.51	14204.71
478.71	13977.39
478.92	14208.81
479.13	14462.76
479.34	14356.26
479.54	14724.90
479.75	14692.13
479.96	14700.32
480.16	14864.16
480.37	14866.21
480.58	15148.82
480.78	15134.49
480.99	15044.38
481.20	15212.31
481.41	15615.76
481.61	15470.36
481.82	15419.16
482.03	15642.39
482.23	15724.30
482.44	15660.82
482.65	15838.99
482.85	16011.02
483.06	15918.86
483.27	15845.13
483.47	15865.61
483.68	16121.61
483.89	16305.93
484.09	16260.87
484.30	16410.37
484.51	16553.73
484.71	16664.32
484.92	16901.89
485.13	17172.22
485.33	16836.35
485.54	16682.75
485.75	17151.74
485.95	17338.10
486.16	17270.52
486.37	17669.87
486.57	17358.58
486.78	17532.66
486.98	17352.44
487.19	17633.01
487.40	17729.27
487.60	17557.24
487.81	17962.73
488.02	18011.89
488.22	17956.59
488.43	18159.34
488.64	18171.63
488.84	18155.24
489.05	18478.82
489.25	18269.93
489.46	18691.81
489.67	18353.90
489.87	18786.02
490.08	18849.50
490.29	18894.56
490.49	19275.48
490.70	18994.91
490.90	19218.14
491.11	19173.08
491.32	19584.73
491.52	19287.77
491.73	19484.37
491.94	19588.82
492.14	19547.86
492.35	19947.22
492.55	19773.14
492.76	19941.07
492.97	20270.79
493.17	20330.19
493.38	20412.10
493.58	20598.47
493.79	20305.61
494.00	20334.28
494.20	20446.92
494.41	20371.15
494.61	20762.31
494.82	20833.99
495.02	20700.87
495.23	20936.38
495.44	21055.17
495.64	20924.10
495.85	20967.10
496.05	21243.58
496.26	21350.07
496.47	21659.32
496.67	21538.49
496.88	21804.72
497.08	21667.51
497.29	22103.73
497.49	21827.25
497.70	21763.76
497.91	22105.77
498.11	22132.40
498.32	22064.82
498.52	22341.29
498.73	22425.26
498.93	22394.54
499.14	22470.31
499.34	22761.12
499.55	23074.46
499.76	22599.34
499.96	22847.14
500.17	22836.90
500.37	22961.83
500.58	22871.72
500.78	23123.62
500.99	23125.66
501.19	23506.59
501.40	23195.29
501.60	23076.51
501.81	23281.31
502.02	23383.71
502.22	23453.34
502.43	23651.99
502.63	23811.73
502.84	23832.21
503.04	23910.04
503.25	24178.32
503.45	23950.99
503.66	24260.24
503.86	24184.46
504.07	24708.74
504.27	24063.63
504.48	24739.46
504.68	24360.59
504.89	24940.16
505.09	24944.26
505.30	24905.35
505.50	24907.40
505.71	25032.32
505.91	24903.30
506.12	24915.59
506.32	25192.06
506.53	25472.64
506.73	24936.07
506.94	25437.82
507.14	25110.14
507.35	25542.27
507.55	25515.64
507.76	25493.12
507.96	25480.83
508.17	25681.53
508.37	25757.30
508.58	25843.32
508.78	26214.00
508.99	26048.11
509.19	26250.86
509.40	26363.50
509.60	25906.80
509.81	26130.03
510.01	26310.25
510.22	26322.54
510.42	26232.43
510.63	26769.00
510.83	26465.90
511.04	26670.70
511.24	26631.79
511.44	26672.74
511.65	26781.29
511.85	26836.58
512.06	26691.18
512.26	27348.57
512.47	27027.04
512.67	27137.63
512.88	27082.34
513.08	27276.90
513.29	27086.43
513.49	27217.50
513.69	27184.74
513.90	27211.36
514.10	27799.13
514.31	27780.70
514.51	27641.43
514.72	27405.92
514.92	27606.62
515.13	27651.67
515.33	27997.78
515.53	27792.98
515.74	28112.47
515.94	28173.91
516.15	28151.38
516.35	28014.16
516.56	28180.05
516.76	27991.64
516.96	28210.77
517.17	28261.97
517.37	28335.70
517.58	28501.58
517.78	28581.45
517.99	28431.95
518.19	29019.72
518.39	28706.38
518.60	28921.41
518.80	28554.83
519.01	28888.65
519.21	28976.71
519.41	28997.19
519.62	29093.44
519.82	29220.42
520.03	28913.22
520.23	29171.27
520.43	29218.37
520.64	29486.65
520.84	29568.57
521.05	29374.02
521.25	29568.57
521.45	29476.41
521.66	29951.54
521.86	29859.38
522.07	29736.51
522.27	29859.38
522.47	30078.52
522.68	30340.66
522.88	29775.42
523.08	30389.81
523.29	30506.54
523.49	30125.62
523.70	30471.73
523.90	30518.83
524.10	30576.17
524.31	30836.27
524.51	30408.24
524.71	30830.12
524.92	30856.75
525.12	30955.05
525.33	30905.90
525.53	31122.98
525.73	31274.53
525.94	31077.93
526.14	31055.40
526.34	31284.77
526.55	31342.11
526.75	31137.32
526.95	31712.80
527.16	31667.74
527.36	31358.50
527.56	31671.84
527.77	31575.58
527.97	31536.67
528.17	31942.17
528.38	31923.74
528.58	31831.58
528.78	32083.48
528.99	32081.43
529.19	32413.20
529.39	31958.55
529.60	32318.99
529.80	32364.05
530.00	32732.68
530.21	32802.32
530.41	32814.60
530.61	32701.96
530.82	32228.88
531.02	32914.95
531.22	32947.72
531.43	33052.17
531.63	33003.02
531.83	33662.46
532.04	33629.69
532.24	33365.51
532.44	33652.22
532.64	33871.36
532.85	33613.31
533.05	33508.86
533.25	33545.73
533.46	33617.41
533.66	33971.71
533.86	34289.14
534.07	34260.47
534.27	34260.47
534.47	34455.03
534.67	34104.82
534.88	34379.25
535.08	34199.03
535.28	34698.73
535.49	34481.65
535.69	34985.45
535.89	35034.60
536.09	35083.75
536.30	35247.59
536.50	34821.61
536.70	35546.59
536.91	35206.63
537.11	35401.19
537.31	35542.50
537.51	35372.52
537.72	35941.85
537.92	35851.74
538.12	35950.04
538.32	35749.34
538.53	36091.35
538.73	36111.83
538.93	36238.81
539.13	36083.16
539.34	36298.20
539.54	36244.95
539.74	36646.35
539.94	36664.78
540.15	36437.46
540.35	36789.71
540.55	36335.06
540.75	36718.03
540.96	36773.33
541.16	36933.07
541.36	37068.23
541.56	36859.34
541.77	36900.30
541.97	37264.84
542.17	37676.48
542.37	37352.90
542.58	37422.53
542.78	37217.74
542.98	37848.51
543.18	37957.05
543.38	37963.20
543.59	37975.48
543.79	37664.19
543.99	37563.84
544.19	38301.11
544.40	38006.20
544.60	38802.86
544.80	38127.03
545.00	38153.66
545.20	38612.40
545.41	38294.97
545.61	38538.68
545.81	38888.88
546.01	39239.08
546.21	38901.17
546.42	38362.55
546.62	38935.98
546.82	38809.01
547.02	38866.35
547.22	39073.20
547.43	38813.10
547.63	39409.06
547.83	39656.87
548.03	39079.34
548.23	39398.82
548.44	39280.04
548.64	39708.07
548.84	39726.50
549.04	39884.19
549.24	39620.00
549.45	40289.69
549.65	39574.95
549.85	40148.38
550.05	40195.48
550.25	39941.53
550.45	40744.34
550.66	39947.68
550.86	39884.19
551.06	40596.88
551.26	40357.27
551.46	40678.80
551.66	40793.49
551.87	40588.69
552.07	40875.41
552.27	40953.23
552.47	41063.82
552.67	41401.74
552.87	41213.32
553.07	41014.67
553.28	41411.98
553.48	41287.05
553.68	41348.49
553.88	41440.65
554.08	41270.67
554.28	41348.49
554.48	41409.93
554.69	41840.00
554.89	41471.37
555.09	41538.95
555.29	41512.33
555.49	41926.02
555.69	41760.13
555.89	42046.85
556.10	42497.40
556.30	41770.37
556.50	42419.58
556.70	41825.67
556.90	42184.06
557.10	42558.84
557.30	41815.43
557.50	42622.33
557.70	42438.01
557.91	42761.59
558.11	42524.02
558.31	42814.83
558.51	42560.89
558.71	42691.96
558.91	42384.76
559.11	42188.16
559.31	42636.66
559.51	42706.29
559.72	42726.77
559.92	42968.43
560.12	42347.90
560.32	43109.74
560.52	42960.24
560.72	43124.08
560.92	43193.71
561.12	43183.47
561.32	43398.51
561.52	43287.92
561.72	43644.26
561.93	43605.35
562.13	43707.75
562.33	43480.42
562.53	43756.90
562.73	43464.04
562.93	43414.89
563.13	43466.09
563.33	43525.48
563.53	44148.06
563.73	43189.61
563.93	43777.38
564.13	44359.00
564.33	43777.38
564.53	44066.14
564.74	44111.20
564.94	43683.17
565.14	44113.25
565.34	44115.29
565.54	44014.94
565.74	44109.15
565.94	44682.58
566.14	44498.26
566.34	44068.19
566.54	44455.26
566.74	44316.00
566.94	44594.52
567.14	44701.01
567.34	44541.27
567.54	44860.76
567.74	44356.96
567.94	44571.99
568.14	44664.15
568.34	44819.80
568.54	44602.71
568.74	44821.84
568.94	44758.36
569.14	45057.36
569.34	44881.24
569.54	45118.80
569.75	44991.83
569.95	45012.31
570.15	45512.01
570.35	44924.24
570.55	44989.78
570.75	45016.40
570.95	45233.49
571.15	45481.29
571.35	45106.51
571.55	45942.08
571.75	45301.07
571.95	45391.18
572.15	45385.04
572.35	45489.48
572.55	45491.53
572.75	45770.05
572.95	45337.93
573.15	45591.88
573.35	45430.09
573.55	45479.24
573.75	45421.90
573.95	46048.58
574.15	45864.26
574.35	45919.56
574.55	45403.47
574.75	45675.85
574.95	45716.81
575.15	45770.05
575.34	45610.31
575.54	46001.47
575.74	45862.21
575.94	46079.30
576.14	46087.49
576.34	46236.99
576.54	46300.48
576.74	45872.45
576.94	46064.96
577.14	46386.49
577.34	46593.34
577.54	46243.13
577.74	46163.26
577.94	46353.72
578.14	46347.58
578.34	46482.75
578.54	45772.10
578.74	46333.24
578.94	46847.29
579.14	46347.58
579.34	46576.95
579.54	46632.25
579.74	47093.04
579.94	46634.30
580.13	46781.75
580.33	46796.09
580.53	46855.48
580.73	46804.28
580.93	47019.31
581.13	46820.66
581.33	46687.54
581.53	47183.15
581.73	46957.88
581.93	47166.77
582.13	47338.80
582.33	47070.51
582.53	47072.56
582.73	47211.82
582.92	46916.92
583.12	47283.50
583.32	47234.35
583.52	46925.11
583.72	47328.56
583.92	47113.52
584.12	47093.04
584.32	47863.08
584.52	47576.36
584.72	47717.67
584.92	47695.14
585.11	47973.67
585.31	47609.13
585.51	47994.15
585.71	47783.21
585.91	48135.46
586.11	47754.54
586.31	47441.20
586.51	47537.45
586.71	47867.17
586.91	47781.16
587.10	48061.73
587.30	48155.94
587.50	48252.19
587.70	48006.44
587.90	48395.55
588.10	48209.18
588.30	47893.80
588.50	48221.47
588.69	48272.67
588.89	48346.40
589.09	48055.59
589.29	48495.90
589.49	48647.45
589.69	47818.02
589.89	48481.56
590.08	48426.27
590.28	48577.82
590.48	48448.80
590.68	48422.17
590.88	48397.60
591.08	48547.10
591.28	48430.36
591.47	49267.98
591.67	48737.56
591.87	48624.92
592.07	49001.75
592.27	49229.07
592.47	48944.41
592.67	48762.14
592.86	48921.88
593.06	49032.47
593.26	49231.12
593.46	48987.41
593.66	48772.38
593.86	49091.86
594.05	48923.93
594.25	49249.55
594.45	49362.19
594.65	49337.62
594.85	49245.46
595.05	49704.20
595.24	49526.03
595.44	49460.49
595.64	49739.02
595.84	49995.01
596.04	49870.09
596.23	49962.25
596.43	50423.04
596.63	50277.63
596.83	49644.81
597.03	50195.71
597.22	50679.03
597.42	50298.11
597.62	50412.80
597.82	50390.27
598.02	50429.18
598.21	50558.20
598.41	50203.91
598.61	50210.05
598.81	50523.39
599.01	50580.73
599.20	50799.86
599.40	50568.44
599.60	50904.31
599.80	50697.47
600.00	50859.26
600.19	51205.36
600.39	50535.68
600.59	51262.71
600.79	51139.83
600.98	51612.91
601.18	51113.20
601.38	51193.07
601.58	51692.78
601.78	51424.50
601.97	51180.79
602.17	51799.27
602.37	52028.65
602.57	51774.70
602.76	51836.14
602.96	51494.13
603.16	52311.27
603.36	51930.34
603.55	52108.52
603.75	52272.35
603.95	52090.09
604.15	52151.52
604.34	52176.10
604.54	52577.50
604.74	52364.51
604.94	52657.37
605.13	52380.90
605.33	52413.66
605.53	52806.87
605.73	52778.20
605.92	52659.42
606.12	52743.39
606.32	52630.75
606.52	52708.57
606.71	52731.10
606.91	53298.39
607.11	52638.94
607.30	53179.60
607.50	53417.17
607.70	53220.56
607.90	53146.84
608.09	53398.74
608.29	53398.74
608.49	53538.00
608.68	53298.39
608.88	53640.40
609.08	53771.47
609.28	53603.53
609.47	53638.35
609.67	54062.28
609.87	53906.63
610.06	54123.72
610.26	54035.66
610.46	54193.35
610.66	53957.83
610.85	53863.63
611.05	53949.64
611.25	54334.66
611.44	53908.68
611.64	54162.63
611.84	53726.41
612.03	54271.17
612.23	54518.98
612.43	54176.97
612.62	54471.87
612.82	54260.93
613.02	54494.40
613.21	54654.14
613.41	54408.39
613.61	54508.74
613.80	54133.96
614.00	54312.13
614.20	54662.33
614.39	54600.89
614.59	54899.90
614.79	54977.72
614.98	54965.43
615.18	54934.71
615.38	54742.20
615.57	54541.50
615.77	54826.17
615.97	55057.59
616.16	54987.96
616.36	55086.26
616.56	55135.41
616.75	55129.27
616.95	54734.01
617.15	54969.53
617.34	54516.93
617.54	54697.15
617.74	55542.96
617.93	55346.36
618.13	54602.94
618.32	55274.68
618.52	54820.03
618.72	54893.75
618.91	54977.72
619.11	55137.46
619.31	55268.53
619.50	55172.28
619.70	55159.99
619.90	55317.68
620.09	55041.21
620.29	55063.74
620.48	55170.23
620.68	55348.40
620.88	54781.12
621.07	55418.03
621.27	55278.77
621.46	54736.06
621.66	55342.26
621.86	55180.47
622.05	54736.06
622.25	55645.36
622.44	55178.42
622.64	55069.88
622.84	55159.99
623.03	54912.19
623.23	55289.01
623.42	55313.59
623.62	55399.60
623.82	55692.46
624.01	55497.91
624.21	55352.50
624.40	55424.18
624.60	55088.31
624.80	55026.87
624.99	55264.44
625.19	54723.77
625.38	55604.40
625.58	55289.01
625.77	55049.40
625.97	55577.78
626.17	55073.98
626.36	55233.72
626.56	55669.93
626.75	54785.21
626.95	55577.78
627.14	55284.92
627.34	55528.62
627.54	54994.10
627.73	55088.31
627.93	55147.70
628.12	55377.08
628.32	55563.44
628.51	55516.34
628.71	55043.26
628.90	54983.86
629.10	55174.33
629.30	55284.92
629.49	55551.15
629.69	55229.62
629.88	55264.44
630.08	55913.64
630.27	55493.81
630.47	55276.72
630.66	55366.84
630.86	55538.86
631.05	54967.48
631.25	55592.11
631.44	54916.28
631.64	55203.00
631.84	55301.30
632.03	55776.43
632.23	55170.23
632.42	55798.96
632.62	55246.00
632.81	55088.31
633.01	55514.29
633.20	55751.85
633.40	55219.38
633.59	55620.78
633.79	55121.08
633.98	55588.02
634.18	55489.71
634.37	55753.90
634.57	55186.61
634.76	55671.98
634.96	55256.24
635.15	55694.51
635.35	55289.01
635.54	55057.59
635.74	55366.84
635.93	55211.19
636.13	55565.49
636.32	55393.46
636.52	55317.68
636.71	55348.40
636.91	55983.27
637.10	54842.56
637.30	55379.12
637.49	55350.45
637.69	54953.15
637.88	55450.80
638.08	54992.06
638.27	55661.74
638.46	55192.76
638.66	55778.48
638.85	55188.66
639.05	55518.38
639.24	55817.39
639.44	55139.51
639.63	55497.91
639.83	55342.26
640.02	55088.31
640.22	55512.24
640.41	55778.48
640.61	54863.03
640.80	55674.03
640.99	54625.47
641.19	55874.73
641.38	55637.17
641.58	55616.69
641.77	55456.95
641.97	55211.19
642.16	55489.71
642.36	55614.64
642.55	55563.44
642.74	55084.22
642.94	55645.36
643.13	55272.63
643.33	55848.11
643.52	55798.96
643.72	55508.14
643.91	55022.78
644.10	55506.10
644.30	55639.22
644.49	55368.88
644.69	55575.73
644.88	55168.18
645.08	55221.43
645.27	55542.96
645.46	55092.41
645.66	55721.13
645.85	55227.57
646.05	55626.93
646.24	55604.40
646.43	55227.57
646.63	55760.05
646.82	55284.92
647.02	55852.20
647.21	55637.17
647.40	55618.74
647.60	55706.80
647.79	55389.36
647.99	55561.39
648.18	55776.43
648.37	55932.07
648.57	55510.19
648.76	55329.97
648.96	55415.99
649.15	55506.10
649.34	55618.74
649.54	55043.26
649.73	54944.95
649.92	55575.73
650.12	55803.05
650.31	55385.27
650.51	55735.47
650.70	55633.07
650.89	55579.82
651.09	56013.99
651.28	55932.07
651.47	55669.93
651.67	55833.77
651.86	55616.69
652.06	55098.55
652.25	55981.23
652.44	55866.54
652.64	55538.86
652.83	55696.56
653.02	55477.43
653.22	55471.28
653.41	55274.68
653.60	55121.08
653.80	55121.08
653.99	55430.32
654.18	55209.14
654.38	55039.16
654.57	55975.08
654.76	55588.02
654.96	55159.99
655.15	55340.21
655.34	55375.03
655.54	55381.17
655.73	55401.65
655.92	55846.06
656.12	55436.47
656.31	55178.42
656.50	55506.10
656.70	55596.21
656.89	55139.51
657.08	55385.27
657.28	55825.58
657.47	55338.16
657.66	55315.64
657.86	55166.13
658.05	55530.67
658.24	55325.88
658.43	55178.42
658.63	55334.07
658.82	55547.06
659.01	55458.99
659.21	55573.68
659.40	55766.19
659.59	54990.01
659.79	55717.04
659.98	55438.51
660.17	55682.22
660.36	55139.51
660.56	55237.81
660.75	55479.47
660.94	55309.49
661.14	55239.86
661.33	55696.56
661.52	55190.71
661.71	55309.49
661.91	55391.41
662.10	55829.68
662.29	56095.91
662.49	55329.97
662.68	55354.55
662.87	55514.29
663.06	55321.78
663.26	55772.33
663.45	55751.85
663.64	55592.11
663.83	55983.27
664.03	55747.76
664.22	55833.77
664.41	55743.66
664.60	55551.15
664.80	55583.92
664.99	55456.95
665.18	55751.85
665.37	55743.66
665.57	55823.53
665.76	55190.71
665.95	55862.44
666.14	55502.00
666.34	55342.26
666.53	55465.14
666.72	55678.13
666.91	55700.65
667.11	55542.96
667.30	55790.76
667.49	55518.38
667.68	55426.23
667.87	55702.70
668.07	56069.29
668.26	55055.54
668.45	55526.58
668.64	55127.22
668.84	55708.85
669.03	56044.71
669.22	55887.02
669.41	55731.37
669.60	55504.05
669.80	55708.85
669.99	55956.65
670.18	55917.74
670.37	55725.23
670.57	56304.80
670.76	55583.92
670.95	55770.28
671.14	55581.87
671.33	55125.17
671.53	55907.50
671.72	55714.99
671.91	55633.07
672.10	55878.83
672.29	55889.07
672.48	55250.10
672.68	55973.03
672.87	55504.05
673.06	55395.51
673.25	55590.06
673.44	55827.63
673.64	55604.40
673.83	55260.34
674.02	55686.32
674.21	55458.99
674.40	55979.18
674.59	55346.36
674.79	55616.69
674.98	55663.79
675.17	55948.46
675.36	55690.41
675.55	56351.91
675.74	55624.88
675.94	56038.57
676.13	55962.79
676.32	56075.43
676.51	56353.96
676.70	55696.56
676.89	55796.91
677.08	55936.17
677.28	55547.06
677.47	56081.58
677.66	56013.99
677.85	55956.65
678.04	55991.47
678.23	56179.88
678.42	56157.35
678.62	55913.64
678.81	56179.88
679.00	55493.81
679.19	56392.87
679.38	56134.82
679.57	55952.55
679.76	55973.03
679.96	56337.57
680.15	56026.28
680.34	55880.88
680.53	55801.00
680.72	56161.45
680.91	56155.30
681.10	56085.67
681.29	55932.07
681.48	56224.93
681.68	55946.41
681.87	55917.74
682.06	56136.87
682.25	55485.62
682.44	56013.99
682.63	56136.87
682.82	55852.20
683.01	55882.92
683.20	55780.52
683.39	56325.28
683.59	55424.18
683.78	55561.39
683.97	56034.47
684.16	56253.61
684.35	55907.50
684.54	55649.45
684.73	55706.80
684.92	55532.72
685.11	55921.83
685.30	55694.51
685.49	56546.47
685.69	55940.27
685.88	55950.51
686.07	55614.64
686.26	55678.13
686.45	56028.33
686.64	56091.82
686.83	55899.31
687.02	56052.90
687.21	55850.16
687.40	55858.35
687.59	56042.66
687.78	55887.02
687.97	56401.06
688.16	55848.11
688.35	55680.17
688.54	55727.28
688.74	55745.71
688.93	55792.81
689.12	55620.78
689.31	55577.78
689.50	56226.98
689.69	55755.95
689.88	55704.75
690.07	55893.16
690.26	55907.50
690.45	55794.86
690.64	55545.01
690.83	55850.16
691.02	55311.54
691.21	55731.37
691.40	55602.35
691.59	55649.45
691.78	55678.13
691.97	55958.70
692.16	55438.51
692.35	55882.92
692.54	55207.09
692.73	55583.92
692.92	55686.32
693.11	55966.89
693.30	55837.87
693.49	55993.51
693.68	55571.63
693.87	55917.74
694.06	55473.33
694.25	55542.96
694.44	55344.31
694.63	55467.19
694.82	55465.14
695.01	55121.08
695.20	55678.13
695.39	55293.11
695.58	55696.56
695.77	55041.21
695.96	55088.31
696.15	55487.67
696.34	55186.61
696.53	55403.70
696.72	55356.60
696.91	54815.93
697.10	55203.00
697.29	54885.56
697.48	55346.36
697.67	55196.85
697.86	54674.62
698.05	55114.94
698.24	55553.20
698.43	55002.30
698.62	54983.86
698.81	54674.62
699.00	55162.04
699.19	54662.33
699.38	55321.78
699.57	54604.99
699.76	55071.93
699.95	54621.37
700.14	54686.91
700.32	54858.94
700.51	55047.35
700.70	54529.22
700.89	55078.07
701.08	54965.43
701.27	54465.73
701.46	54877.37
701.65	54236.36
701.84	54449.35
702.03	54547.65
702.22	54174.92
702.41	54467.78
702.60	54469.82
702.79	54518.98
702.98	54101.19
703.17	54072.52
703.35	53949.64
703.54	54303.94
703.73	54588.61
703.92	54680.77
704.11	54351.04
704.30	54267.08
704.49	54088.90
704.68	54179.01
704.87	54351.04
705.06	53990.60
705.25	54248.64
705.43	54244.55
705.62	54039.75
705.81	54426.82
706.00	54113.48
706.19	53826.76
706.38	53937.35
706.57	53849.29
706.76	53540.05
706.95	53839.05
707.14	53222.61
707.32	53814.47
707.51	53417.17
707.70	53638.35
707.89	53839.05
708.08	53419.22
708.27	53443.79
708.46	53722.32
708.65	53615.82
708.84	54006.98
709.02	53748.94
709.21	53613.77
709.40	53673.16
709.59	53529.81
709.78	53517.52
709.97	54090.95
710.16	53134.55
710.34	52937.94
710.53	53488.85
710.72	52964.57
710.91	53265.62
711.10	53171.41
711.29	53064.92
711.48	52851.93
711.66	52853.98
711.85	52632.80
712.04	52888.79
712.23	52612.32
712.42	52759.77
712.61	53171.41
712.80	52763.87
712.98	53181.65
713.17	52454.62
713.36	52393.18
713.55	52624.60
713.74	52428.00
713.93	52092.13
714.11	52458.72
714.30	52108.52
714.49	51995.88
714.68	52530.40
714.87	52057.32
715.06	52276.45
715.24	52172.00
715.43	51885.29
715.62	51893.48
715.81	52176.10
716.00	52120.80
716.18	51453.17
716.37	51475.69
716.56	51354.86
716.75	51977.45
716.94	51893.48
717.12	51305.71
717.31	51825.90
717.50	51487.98
717.69	51510.51
717.88	51299.57
718.06	51594.48
718.25	51565.81
718.44	51260.66
718.63	51160.31
718.82	51057.91
719.00	51168.50
719.19	50617.60
719.38	51182.84
719.57	50701.56
719.76	50961.65
719.94	50345.22
720.13	50486.53
720.32	50629.88
720.51	50576.64
720.69	50404.61
720.88	50396.42
721.07	50552.06
721.26	50025.73
721.44	50418.94
721.63	50005.25
721.82	49919.24
722.01	49775.88
722.20	50203.91
722.38	49620.23
722.57	49325.33
722.76	49456.40
722.95	49878.28
723.13	49304.85
723.32	49296.66
723.51	49272.08
723.70	48985.36
723.88	49341.71
724.07	48946.45
724.26	49270.03
724.44	48266.53
724.63	49599.76
724.82	49523.98
725.01	48805.14
725.19	48977.17
725.38	48645.40
725.57	48456.99
725.76	48948.50
725.94	48626.97
726.13	48592.15
726.32	48622.87
726.51	48489.76
726.69	48698.65
726.88	48743.70
727.07	48749.85
727.25	47777.06
727.44	48833.81
727.63	48157.99
727.82	48055.59
728.00	48743.70
728.19	48155.94
728.38	48796.95
728.56	48239.90
728.75	48600.35
728.94	48098.59
729.12	48465.18
729.31	48153.89
729.50	48188.70
729.69	48227.62
729.87	47918.37
730.06	47533.35
730.25	47945.00
730.43	48258.34
730.62	47897.89
730.81	47979.81
730.99	48012.58
731.18	47795.49
731.37	47881.51
731.55	47670.57
731.74	48330.01
731.93	48125.22
732.11	48237.86
732.30	47875.37
732.49	47547.69
732.67	47885.61
732.86	47922.47
733.05	47521.07
733.23	47342.89
733.42	47748.39
733.61	47357.23
733.79	47768.87
733.98	47871.27
734.17	47641.90
734.35	47924.52
734.54	47510.83
734.73	47410.48
734.91	47529.26
735.10	46835.00
735.29	47500.59
735.47	47015.22
735.66	47439.15
735.84	47238.45
736.03	46816.57
736.22	47344.94
736.40	46966.07
736.59	47279.41
736.78	46753.08
736.96	47226.16
737.15	46902.58
737.33	47093.04
737.52	46808.37
737.71	46914.87
737.89	46779.70
738.08	46644.54
738.27	47093.04
738.45	47318.32
738.64	46724.41
738.82	47047.99
739.01	46765.37
739.20	46710.07
739.38	46648.63
739.57	46812.47
739.75	46617.91
739.94	46292.29
740.13	46445.88
740.31	46230.85
740.50	46284.09
740.68	46699.83
740.87	46849.33
741.06	46845.24
741.24	46482.75
741.43	46196.03
741.61	46282.05
741.80	46118.21
741.99	45753.67
742.17	46085.44
742.36	46564.67
742.54	46337.34
742.73	45782.34
742.91	46282.05
743.10	45718.85
743.29	46280.00
743.47	46181.70
743.66	45794.63
743.84	46497.08
744.03	46069.06
744.21	45804.87
744.40	46153.02
744.59	45737.29
744.77	45915.46
744.96	45798.73
745.14	45327.69
745.33	45585.74
745.51	45419.85
745.70	45868.36
745.88	45010.26
746.07	45356.36
746.26	45110.61
746.44	45088.08
746.63	45303.12
746.81	45462.86
747.00	45030.74
747.18	45186.38
747.37	45292.88
747.55	45440.33
747.74	45464.91
747.92	45073.74
748.11	44860.76
748.29	45155.66
748.48	45282.64
748.66	45116.75
748.85	45061.46
749.03	45333.84
749.22	45260.11
749.41	44571.99
749.59	45325.64
749.78	44633.43
749.96	44555.61
750.15	44733.78
750.33	44633.43
750.52	44782.93
750.70	44987.73
750.89	44393.82
751.07	44725.59
751.26	44479.83
751.44	44725.59
751.63	44496.22
751.81	44082.53
752.00	44369.24
752.18	44668.25
752.37	44414.30
752.55	43945.31
752.74	44238.17
752.92	44150.11
753.10	44012.90
753.29	44072.29
753.47	44217.69
753.66	43920.74
753.84	44154.21
754.03	44205.41
754.21	44246.36
754.40	44258.65
754.58	44438.87
754.77	44084.58
754.95	43472.23
755.14	43959.65
755.32	43638.12
755.51	43251.05
755.69	43826.53
755.88	43468.14
756.06	43703.65
756.24	43550.06
756.43	44086.62
756.61	43455.85
756.80	43642.21
756.98	43259.24
757.17	43363.69
757.35	43599.21
757.54	43560.30
757.72	43572.58
757.90	43363.69
758.09	43474.28
758.27	43304.30
758.46	43179.37
758.64	43242.86
758.83	43607.40
759.01	43144.56
759.19	43220.33
759.38	43695.46
759.56	43300.20
759.75	43459.94
759.93	43021.68
760.12	43234.67
760.30	43048.30
760.48	42800.50
760.67	43173.23
760.85	42810.74
761.04	43122.03
761.22	43175.28
761.40	43330.92
761.59	43040.11
761.77	42773.88
761.96	42796.40
762.14	42841.46
762.32	42491.26
762.51	42820.98
762.69	42706.29
762.88	42755.44
763.06	42915.19
763.24	42599.80
763.43	43083.12
763.61	42517.88
763.80	42802.55
763.98	42483.06
764.16	42554.74
764.35	41876.86
764.53	41860.48
764.72	42351.99
764.90	41952.64
765.08	42595.70
765.27	42395.00
765.45	41938.30
765.63	41579.91
765.82	41973.12
766.00	42114.43
766.18	41915.78
766.37	42165.63
766.55	41553.29
766.74	41729.41
766.92	41336.20
767.10	41407.88
767.29	41893.25
767.47	41627.01
767.65	41940.35
767.84	41631.11
768.02	41909.63
768.20	41147.79
768.39	41897.34
768.57	41821.57
768.75	41426.31
768.94	41713.03
769.12	41266.57
769.30	41612.68
769.49	41039.25
769.67	41231.75
769.85	41190.80
770.04	41256.33
770.22	41043.34
770.40	40777.11
770.59	40996.24
770.77	41522.57
770.95	41006.48
771.14	40826.26
771.32	40859.02
771.50	40775.06
771.69	41067.92
771.87	41377.16
772.05	40699.28
772.24	40576.40
772.42	41074.06
772.60	40588.69
772.78	40469.91
772.97	40885.65
773.15	41201.04
773.33	40795.54
773.52	40590.74
773.70	40955.28
773.88	40865.17
774.07	40596.88
774.25	40908.18
774.43	40789.39
774.61	40625.56
774.80	40711.57
774.98	40801.68
775.16	40998.29
775.34	41043.34
775.53	40424.86
775.71	40844.69
775.89	40723.86
776.08	40842.64
776.26	41383.30
776.44	41223.56
776.62	41049.49
776.81	40707.47
776.99	40852.88
777.17	40848.78
777.35	41276.81
777.54	41217.42
777.72	40590.74
777.90	40934.80
778.08	41397.64
778.27	41108.88
778.45	41434.50
778.63	41250.19
778.81	41045.39
779.00	41893.25
779.18	41379.21
779.36	41526.66
779.54	41706.88
779.73	41432.46
779.91	41612.68
780.09	42024.32
780.27	41627.01
780.46	42079.61
780.64	41598.34
780.82	41604.49
781.00	41704.84
781.19	41608.58
781.37	42153.34
781.55	41606.53
781.73	42184.06
781.91	41989.50
782.10	41667.97
782.28	42130.81
782.46	42190.20
782.64	42384.76
782.82	41729.41
783.01	42630.52
783.19	42259.84
783.37	41842.05
783.55	42100.09
783.74	41966.98
783.92	41850.24
784.10	42528.12
784.28	42032.51
784.46	42030.46
784.64	41964.93
784.83	41844.10
785.01	42315.13
785.19	41770.37
785.37	42009.98
785.55	42173.82
785.74	42005.89
785.92	41883.01
786.10	42188.16
786.28	41852.29
786.46	41764.23
786.64	41493.89
786.83	42081.66
787.01	41637.25
787.19	41532.81
787.37	42038.65
787.55	41725.32
787.74	41377.16
787.92	41547.14
788.10	41633.16
788.28	41665.92
788.46	41309.58
788.64	41080.21
788.82	42038.65
789.01	41276.81
789.19	41510.28
789.37	41432.46
789.55	41467.27
789.73	41004.43
789.91	41092.49
790.09	41026.96
790.28	41053.58
790.46	40949.14
790.64	41158.03
790.82	41039.25
791.00	40678.80
791.18	40789.39
791.36	40766.87
791.55	40441.24
791.73	40355.22
791.91	40312.22
792.09	40652.18
792.27	40627.60
792.45	40818.07
792.63	40785.30
792.81	40250.78
793.00	40539.54
793.18	40598.93
793.36	40433.05
793.54	40256.92
793.72	39695.78
793.90	40265.11
794.08	39407.01
794.26	39941.53
794.44	39458.21
794.62	39503.27
794.81	39482.79
794.99	39335.34
795.17	39220.65
795.35	39284.14
795.53	39050.67
795.71	39271.85
795.89	38794.67
796.07	39148.97
796.25	38997.42
796.43	38761.90
796.61	38346.17
796.80	38745.52
796.98	38647.22
797.16	38213.05
797.34	38333.88
797.52	38102.46
797.70	38684.08
797.88	38049.21
798.06	38206.90
798.24	38245.82
798.42	38016.44
798.60	37899.71
798.78	37955.00
798.96	38055.36
799.14	37721.54
799.32	38026.68
799.51	37365.19
799.69	37895.61
799.87	37602.75
800.05	37246.41
800.23	37518.79
800.41	37287.37
800.59	37139.91
800.77	36902.35
800.95	36722.13
801.13	36865.49
801.31	36521.43
801.49	36636.11
801.67	36541.91
801.85	36259.29
802.03	36462.04
802.21	36281.81
802.39	35937.76
802.57	35943.90
802.75	36044.25
802.93	36177.37
803.11	35714.53
803.29	35907.04
803.47	35669.47
803.65	35814.88
803.83	35608.03
804.01	35601.89
804.19	35280.36
804.37	35102.18
804.55	35075.56
804.73	35079.66
804.91	35214.82
805.09	35120.62
805.27	35073.51
805.45	35061.22
805.63	35122.66
805.81	35079.66
805.99	34881.00
806.17	35108.33
806.35	34604.53
806.53	34305.52
806.71	34854.38
806.89	34688.49
807.07	34467.31
807.25	34379.25
807.43	34147.83
807.61	34684.40
807.79	34045.43
807.97	33990.14
808.15	34016.76
808.33	34012.66
808.51	33900.03
808.69	33680.89
808.87	33502.72
809.05	33646.08
809.23	33719.81
809.41	33181.19
809.59	33390.08
809.77	33426.95
809.95	33330.69
810.13	33385.99
810.31	33152.52
810.49	33007.11
810.67	33259.01
810.84	33027.59
811.02	32894.47
811.20	32726.54
811.38	33209.86
811.56	32470.54
811.74	32824.84
811.92	32472.59
812.10	32609.81
812.28	32753.16
812.46	32761.36
812.64	32626.19
812.82	32325.14
813.00	32173.59
813.18	32499.22
813.36	32132.63
813.53	31700.51
813.71	32083.48
813.89	31624.73
814.07	31876.63
814.25	31999.51
814.43	31479.33
814.61	31508.00
814.79	31813.15
814.97	31563.29
815.15	31800.86
815.33	30881.32
815.50	31272.48
815.68	30977.58
815.86	31462.94
816.04	31303.20
816.22	31346.21
816.40	30938.66
816.58	30936.62
816.76	30955.05
816.94	30826.03
817.11	30713.39
817.29	30940.71
817.47	30651.95
817.65	30598.70
817.83	30522.93
818.01	30293.55
818.19	30336.56
818.37	30152.24
818.54	30099.00
818.72	29851.19
818.90	30119.48
819.08	30142.00
819.26	30225.97
819.44	30139.96
819.62	30000.69
819.80	30162.48
819.97	30123.57
820.15	29816.38
820.33	29580.86
820.51	29419.07
820.69	29345.34
820.87	29709.88
821.05	30027.32
821.22	29478.46
821.40	29498.94
821.58	29539.90
821.76	29154.88
821.94	29566.52
822.12	29156.93
822.29	29218.37
822.47	29150.79
822.65	29126.21
822.83	28829.26
823.01	28864.07
823.19	28862.02
823.36	28741.19
823.54	28808.78
823.72	28745.29
823.90	28737.10
824.08	28456.53
824.25	28814.92
824.43	28466.77
824.61	28636.75
824.79	28489.29
824.97	28098.13
825.15	28784.20
825.32	28454.48
825.50	27973.21
825.68	28270.16
825.86	28495.44
826.04	28198.48
826.21	28018.26
826.39	28167.76
826.57	27700.83
826.75	27975.25
826.93	27954.77
827.10	27686.49
827.28	27842.14
827.46	28104.28
827.64	27760.22
827.81	27549.28
827.99	27661.91
828.17	27528.80
828.35	27706.97
828.53	27467.36
828.70	27373.15
828.88	27373.15
829.06	27246.18
829.24	27489.88
829.41	27266.66
829.59	27072.10
829.77	27131.49
829.95	27006.56
830.12	27268.70
830.30	27149.92
830.48	27104.87
830.66	26924.65
830.84	26981.99
831.01	26682.98
831.19	26912.36
831.37	26603.11
831.55	26938.98
831.72	26515.05
831.90	26947.17
832.08	27127.39
832.25	26543.72
832.43	26330.73
832.61	26322.54
832.79	26271.34
832.96	26275.44
833.14	26629.74
833.32	26613.35
833.50	26820.20
833.67	26484.33
833.85	26361.45
834.03	26199.66
834.20	26240.62
834.38	26293.87
834.56	26107.51
834.74	26140.27
834.91	25927.28
835.09	26091.12
835.27	25654.90
835.44	25769.59
835.62	25540.22
835.80	25697.91
835.98	25853.56
836.15	25601.66
836.33	25699.96
836.51	25548.41
836.68	25736.82
836.86	25347.71
837.04	25622.14
837.21	25419.39
837.39	25691.77
837.57	25460.35
837.75	25423.48
837.92	24999.55
838.10	25376.38
838.28	25091.71
838.45	25157.25
838.63	25353.85
838.81	25290.37
838.98	25005.70
839.16	24979.07
839.34	25222.78
839.51	24784.52
839.69	24835.72
839.87	24831.62
840.04	25073.28
840.22	24704.65
840.40	24579.72
840.57	24413.84
840.75	24718.98
840.93	24647.30
841.10	24635.02
841.28	24710.79
841.46	24321.68
841.63	24675.98
841.81	24755.85
841.98	24481.42
842.16	24501.90
842.34	24383.12
842.51	24374.92
842.69	24680.07
842.87	24206.99
843.04	24180.37
843.22	24002.19
843.40	24184.46
843.57	24116.88
843.75	24204.94
843.92	24417.93
844.10	23975.57
844.28	24088.21
844.45	24082.06
844.63	23869.08
844.81	23615.13
844.98	23813.78
845.16	24172.18
845.33	23752.34
845.51	23955.09
845.69	23660.18
845.86	23529.11
846.04	23676.57
846.21	23563.93
846.39	23690.90
846.57	23338.65
846.74	23463.58
846.92	23631.51
847.09	23309.98
847.27	23305.88
847.45	23410.33
847.62	23496.35
847.80	23367.32
847.97	23342.75
848.15	22992.55
848.32	23123.62
848.50	23140.00
848.68	22877.86
848.85	23125.66
849.03	22945.44
849.20	23062.18
849.38	22865.57
849.56	23152.29
849.73	22820.52
849.91	22841.00
850.08	23037.60
850.26	22527.66
850.43	22697.64
850.61	22443.69
850.78	22468.27
850.96	22679.21
851.14	22769.32
851.31	22857.38
851.49	22412.97
851.66	22703.78
851.84	22838.95
852.01	22752.93
852.19	22501.03
852.36	22314.67
852.54	22609.58
852.71	22259.37
852.89	22466.22
853.07	22189.74
853.24	22333.10
853.42	22140.59
853.59	22343.34
853.77	22216.36
853.94	22130.35
854.12	22513.32
854.29	21798.58
854.47	21937.84
854.64	21739.19
854.82	22034.10
854.99	22253.23
855.17	21728.95
855.34	21974.70
855.52	21898.93
855.69	22046.38
855.87	21761.72
856.04	21599.93
856.22	21722.80
856.39	21561.02
856.57	21726.90
856.74	22005.42
856.92	21894.83
857.09	21690.04
857.27	21462.71
857.44	21644.98
857.62	21561.02
857.79	21749.43
857.97	21444.28
858.14	21253.82
858.32	21573.30
858.49	21397.18
858.67	21493.43
858.84	21526.20
859.02	21376.70
859.19	21126.85
859.37	20971.20
859.54	21184.19
859.72	21544.63
859.89	21372.60
860.06	21442.23
860.24	20975.30
860.41	21485.24
860.59	20829.89
860.76	21114.56
860.94	20725.44
861.11	21243.58
861.29	21137.09
861.46	20848.32
861.64	20688.58
861.81	21042.88
861.98	20917.95
862.16	20809.41
862.33	20481.74
862.51	20530.89
862.68	20750.02
862.86	20317.90
863.03	20580.04
863.21	20448.97
863.38	20676.29
863.55	20596.42
863.73	20575.94
863.90	20590.28
864.08	20539.08
864.25	20242.12
864.43	20504.26
864.60	20408.01
864.77	20176.59
864.95	20301.51
865.12	20113.10
865.30	20381.38
865.47	20104.91
865.64	20395.72
865.82	20416.20
865.99	20152.01
866.17	20172.49
866.34	20229.84
866.51	19744.47
866.69	20066.00
866.86	20154.06
867.04	20080.33
867.21	20211.40
867.38	19791.57
867.56	19633.88
867.73	19922.64
867.91	19676.88
868.08	19721.94
868.25	19822.29
868.43	19443.42
868.60	19941.07
868.78	19334.87
868.95	19814.10
869.12	19742.42
869.30	19531.48
869.47	19693.27
869.64	19465.94
869.82	19502.81
869.99	19287.77
870.16	19541.72
870.34	19554.01
870.51	19633.88
870.69	19187.42
870.86	19353.30
871.03	19277.53
871.21	18974.43
871.38	19627.73
871.55	19103.45
871.73	18837.22
871.90	19185.37
872.07	18888.42
872.25	18841.31
872.42	19195.61
872.59	18857.70
872.77	18800.35
872.94	18894.56
873.11	18843.36
873.29	18783.97
873.46	18732.77
873.63	18568.93
873.81	18355.94
873.98	18652.90
874.15	18687.71
874.33	18237.16
874.50	18519.78
874.67	18319.08
874.85	18521.83
875.02	18263.79
875.19	18087.66
875.37	18527.97
875.54	18204.39
875.71	18474.73
875.88	18235.11
876.06	17985.26
876.23	18251.50
876.40	17876.72
876.58	18056.94
876.75	18069.23
876.92	18030.32
877.10	18061.04
877.27	17925.87
877.44	17886.96
877.61	17639.15
877.79	17848.05
877.96	17784.56
878.13	17729.27
878.31	17727.22
878.48	17493.75
878.65	17751.79
878.82	17512.18
879.00	17645.30
879.17	17622.77
879.34	17712.88
879.51	17501.94
879.69	17366.78
879.86	17286.90
880.03	17209.08
880.21	17442.55
880.38	17278.71
880.55	17395.45
880.72	17338.10
880.90	17237.75
881.07	17381.11
881.24	17327.86
881.41	17217.27
881.59	17694.45
881.76	17313.53
881.93	16975.61
882.10	16989.95
882.28	16740.10
882.45	17350.39
882.62	17100.54
882.79	17084.16
882.96	17035.00
883.14	16981.76
883.31	17100.54
883.48	16942.85
883.65	16953.09
883.83	17164.03
884.00	17114.87
884.17	17055.48
884.34	16977.66
884.51	16910.08
884.69	17245.94
884.86	16670.47
885.03	16797.44
885.20	16598.79
885.38	16733.95
885.55	16822.02
885.72	16852.73
885.89	16535.30
886.06	16744.19
886.24	16635.65
886.41	16555.78
886.58	16592.64
886.75	16535.30
886.92	16326.41
887.10	16527.11
887.27	16258.82
887.44	16318.22
887.61	16664.32
887.78	16471.81
887.95	16637.70
888.13	16322.31
888.30	16303.88
888.47	16445.19
888.64	16510.72
888.81	16228.10
888.99	16248.58
889.16	16013.07
889.33	16195.34
889.50	16207.62
889.67	16187.14
889.84	15957.77
890.01	16273.16
890.19	16037.64
890.36	16062.22
890.53	16285.45
890.70	16029.45
890.87	15990.54
891.04	15961.87
891.22	15707.92
891.39	15978.25
891.56	15802.13
891.73	15912.72
891.90	15986.44
892.07	15828.75
892.24	15855.37
892.42	15576.85
892.59	15746.83
892.76	15740.69
892.93	15740.69
893.10	15580.95
893.27	15587.09
893.44	15607.57
893.61	15718.16
893.79	15521.56
893.96	15712.02
894.13	15304.47
894.30	15505.17
894.47	15638.29
894.64	15718.16
894.81	15417.11
894.98	15648.53
895.15	15605.52
895.33	15564.56
895.50	15333.14
895.67	15644.43
895.84	15511.32
896.01	15456.02
896.18	15314.71
896.35	15488.79
896.52	15572.75
896.69	15314.71
896.86	15552.27
897.04	15470.36
897.21	15570.71
897.38	15435.54
897.55	15337.24
897.72	15595.28
897.89	15453.97
898.06	15603.47
898.23	15320.85
898.40	15519.51
898.57	15746.83
898.74	15589.14
898.91	15617.81
899.08	15343.38
899.26	15380.25
899.43	15359.77
899.60	15148.82
899.77	15339.29
899.94	15290.13
900.11	15417.11
900.28	15378.20
900.45	15306.52
900.62	15208.22
900.79	15423.25
900.96	15374.10
901.13	15288.09
901.30	15343.38
901.47	15251.22
901.64	15351.57
901.81	15251.22
901.98	15370.01
902.15	15464.21
902.32	15329.05
902.49	15277.85
902.66	15347.48
902.83	15292.18
903.01	15298.33
903.18	15462.16
903.35	15345.43
903.52	15283.99
903.69	15314.71
903.86	15402.77
904.03	15400.72
904.20	15542.03
904.37	15458.07
904.54	15505.17
904.71	15302.42
904.88	15462.16
905.05	15486.74
905.22	15294.23
905.39	15288.09
905.56	15298.33
905.73	15367.96
905.90	15267.61
906.07	15212.31
906.24	15318.81
906.41	15253.27
906.58	15615.76
906.75	15259.42
906.92	15339.29
907.09	15048.47
907.26	15259.42
907.43	15142.68
907.60	15066.91
907.77	15542.03
907.93	15183.64
908.10	15392.53
908.27	15339.29
908.44	15218.46
908.61	15232.79
908.78	15275.80
908.95	15075.10
909.12	15060.76
909.29	14991.13
909.46	15275.80
909.63	15195.93
909.80	15353.62
909.97	15281.94
910.14	15181.59
910.31	15101.72
910.48	15097.63
910.65	15220.50
910.82	15226.65
910.99	15245.08
911.16	15120.15
911.33	15109.91
911.50	15292.18
911.66	15093.53
911.83	14952.22
912.00	15109.91
912.17	14976.80
912.34	15021.85
912.51	14862.11
912.68	14954.27
912.85	15054.62
913.02	14921.50
913.19	14907.16
913.36	15105.82
913.53	14866.21
913.70	14913.31
913.86	14999.32
914.03	14888.73
914.20	14823.20
914.37	14737.18
914.54	14571.30
914.71	14518.05
914.88	14614.30
915.05	14698.27
915.22	14425.89
915.39	14436.13
915.55	14567.20
915.72	14317.35
915.89	14128.94
916.06	14176.04
916.23	13993.77
916.40	14190.38
916.57	14194.47
916.74	14036.78
916.91	14135.08
917.07	14059.31
917.24	13999.91
917.41	14049.07
917.58	14141.22
917.75	14061.35
917.92	14040.87
918.09	14149.42
918.26	14147.37
918.42	14028.59
918.59	14069.55
918.76	13725.49
918.93	13727.53
919.10	13614.90
919.27	13743.92
919.44	13594.42
919.60	13711.15
919.77	13662.00
919.94	13528.88
920.11	13492.02
920.28	13659.95
920.45	13410.10
920.61	13561.65
920.78	13375.28
920.95	13541.17
921.12	13084.47
921.29	13133.62
921.46	13305.65
921.62	12998.46
921.79	13168.44
921.96	13160.25
922.13	13258.55
922.30	12932.92
922.47	12836.67
922.63	12609.34
922.80	12795.71
922.97	12785.47
923.14	12427.07
923.31	12830.52
923.47	12611.39
923.64	12810.04
923.81	12547.90
923.98	12582.72
924.15	12580.67
924.32	12590.91
924.48	12586.82
924.65	12496.71
924.82	12638.02
924.99	12396.35
925.15	11941.71
925.32	12277.57
925.49	11949.90
925.66	12111.69
925.83	11994.95
925.99	11978.57
926.16	12103.50
926.33	12058.44
926.50	11718.48
926.67	11921.23
926.83	12123.98
927.00	11949.90
927.17	11665.23
927.34	11419.47
927.50	11525.97
927.67	11880.27
927.84	11513.68
928.01	11308.88
928.17	11411.28
928.34	11351.89
928.51	11355.99
928.68	11188.05
928.84	11317.08
929.01	10954.58
929.18	11005.78
929.35	11163.48
929.51	11171.67
929.68	10772.32
929.85	10997.59
930.02	10784.60
930.18	10813.28
930.35	10772.32
930.52	10819.42
930.69	10782.56
930.85	10575.71
931.02	10528.61
931.19	10381.15
931.36	10516.32
931.52	10624.86
931.69	10684.25
931.86	10508.13
932.02	10362.72
932.19	10340.19
932.36	10407.78
932.53	10211.17
932.69	10119.01
932.86	10260.32
933.03	10092.39
933.19	10026.86
933.36	10059.62
933.53	10065.77
933.70	10051.43
933.86	9817.96
934.03	9705.32
934.20	9561.97
934.36	9756.52
934.53	9527.15
934.70	9361.27
934.86	9662.32
935.03	9406.32
935.20	9133.94
935.36	9222.00
935.53	9074.55
935.70	9078.65
935.86	9324.40
936.03	9084.79
936.20	8800.12
936.36	8996.73
936.53	8814.46
936.70	8763.26
936.86	8802.17
937.03	8527.74
937.20	8312.71
937.36	8560.51
937.53	8097.67
937.70	8212.35
937.86	8021.89
938.03	8032.13
938.20	8294.27
938.36	7970.69
938.53	7942.02
938.70	7616.40
938.86	7737.23
939.03	7456.65
939.20	7432.08
939.36	7516.05
939.53	7270.29
939.70	7567.24
939.86	6993.81
940.03	6913.94
940.19	6936.47
940.36	7081.88
940.53	6889.37
940.69	6723.48
940.86	6784.92
941.03	6606.75
941.19	6545.31
941.36	6432.67
941.52	6520.73
941.69	6367.13
941.86	6342.56
942.02	6340.51
942.19	6287.26
942.35	6221.73
942.52	6145.95
942.69	6100.90
942.85	6064.04
943.02	6156.19
943.18	5984.16
943.35	5920.68
943.52	5861.29
943.68	5750.70
943.85	5801.90
944.01	5703.59
944.18	5666.73
944.35	5779.37
944.51	5648.30
944.68	5535.66
944.84	5562.28
945.01	5494.70
945.17	5691.31
945.34	5623.72
945.51	5597.10
945.67	5523.37
945.84	5490.60
946.00	5480.36
946.17	5521.32
946.33	5250.99
946.50	5441.45
946.67	5316.53
946.83	5459.88
947.00	5566.38
947.16	5390.25
947.33	5398.45
947.49	5371.82
947.66	5314.48
947.82	5386.16
947.99	5300.14
948.16	5365.68
948.32	5310.38
948.49	5349.29
948.65	5486.51
948.82	5289.90
948.98	5373.87
949.15	5320.62
949.31	5404.59
949.48	5431.21
949.64	5353.39
949.81	5492.65
949.97	5257.14
950.14	5480.36
950.30	5269.42
950.47	5509.04
950.63	5535.66
950.80	5529.52
950.96	5373.87
951.13	5339.05
951.30	5410.73
951.46	5539.76
951.63	5560.24
951.79	5377.97
951.96	5322.67
952.12	5386.16
952.29	5531.56
952.45	5396.40
952.62	5423.02
952.78	5431.21
952.94	5498.80
953.11	5599.15
953.27	5343.15
953.44	5566.38
953.60	5390.25
953.77	5416.88
953.93	5365.68
954.10	5484.46
954.26	5556.14
954.43	5404.59
954.59	5580.71
954.76	5713.83
954.92	5517.23
955.09	5556.14
955.25	5433.26
955.42	5461.93
955.58	5697.45
955.75	5490.60
955.91	5515.18
956.07	5484.46
956.24	5597.10
956.40	5615.53
956.57	5572.52
956.73	5550.00
956.90	5562.28
957.06	5605.29
957.23	5609.39
957.39	5478.32
957.56	5572.52
957.72	5597.10
957.88	5427.12
958.05	5642.15
958.21	5541.80
958.38	5578.67
958.54	5463.98
958.71	5652.39
958.87	5474.22
959.03	5506.99
959.20	5638.06
959.36	5627.82
959.53	5590.95
959.69	5511.08
959.85	5795.75
960.02	5423.02
960.18	5523.37
960.35	5468.08
960.51	5470.12
960.68	5455.79
960.84	5533.61
961.00	5621.67
961.17	5457.84
961.33	5414.83
961.50	5623.72
961.66	5564.33
961.82	5380.01
961.99	5500.84
962.15	5304.24
962.31	5459.88
962.48	5371.82
962.64	5484.46
962.81	5361.58
962.97	5463.98
963.13	5455.79
963.30	5613.48
963.46	5404.59
963.62	5283.76
963.79	5433.26
963.95	5451.69
964.12	5310.38
964.28	5425.07
964.44	5390.25
964.61	5529.52
964.77	5410.73
964.93	5476.27
965.10	5451.69
965.26	5167.03
965.42	5337.01
965.59	5230.51
965.75	5279.66
965.92	5384.11
966.08	5396.40
966.24	5377.97
966.41	5267.38
966.57	5263.28
966.73	5205.94
966.90	5402.54
967.06	5302.19
967.22	5195.70
967.39	5248.94
967.55	5263.28
967.71	5328.81
967.88	5230.51
968.04	5136.31
968.20	5255.09
968.37	5144.50
968.53	5091.25
968.69	5300.14
968.85	5283.76
969.02	5273.52
969.18	5207.98
969.34	5210.03
969.51	5128.11
969.67	5230.51
969.83	5062.58
970.00	5341.10
970.16	5081.01
970.32	5097.39
970.48	5312.43
970.65	5130.16
970.81	5064.63
970.97	5218.22
971.14	5005.24
971.30	5017.52
971.46	5078.96
971.63	5027.76
971.79	5091.25
971.95	5007.28
972.11	4990.90
972.28	4890.55
972.44	5013.43
972.60	4956.08
972.76	4906.93
972.93	4945.84
973.09	4980.66
973.25	4933.56
973.42	4851.64
973.58	4913.08
973.74	4990.90
973.90	4978.61
974.07	4849.59
974.23	4833.21
974.39	4886.45
974.55	4743.10
974.72	4820.92
974.88	4712.38
975.04	4843.45
975.20	4886.45
975.37	4802.49
975.53	4704.18
975.69	4814.77
975.85	4739.00
976.01	4839.35
976.18	4728.76
976.34	4825.01
976.50	4757.43
976.66	4847.54
976.83	4661.18
976.99	4818.87
977.15	4673.46
977.31	4665.27
977.47	4581.31
977.64	4779.96
977.80	4630.46
977.96	4675.51
978.12	4499.39
978.29	4556.73
978.45	4458.43
978.61	4548.54
978.77	4609.98
978.93	4487.10
979.10	4460.48
979.26	4472.76
979.42	4534.20
979.58	4429.76
979.74	4491.20
979.91	4556.73
980.07	4444.09
980.23	4396.99
980.39	4394.94
980.55	4474.81
980.71	4341.69
980.88	4417.47
981.04	4433.85
981.20	4417.47
981.36	4409.28
981.52	4351.93
981.68	4409.28
981.85	4347.84
982.01	4407.23
982.17	4333.50
982.33	4274.11
982.49	4556.73
982.65	4247.49
982.82	4368.32
982.98	4298.69
983.14	4196.29
983.30	4476.86
983.46	4253.63
983.62	4261.82
983.79	4290.49
983.95	4192.19
984.11	4134.85
984.27	4175.81
984.43	4163.52
984.59	4235.20
984.75	4253.63
984.91	4048.83
985.08	4157.38
985.24	4001.73
985.40	3999.68
985.56	4124.61
985.72	3983.30
985.88	4171.71
986.04	4124.61
986.20	4081.60
986.37	4151.23
986.53	3942.34
986.69	4007.87
986.85	3995.59
987.01	3956.68
987.17	4157.38
987.33	3983.30
987.49	3991.49
987.65	3989.44
987.82	3940.29
987.98	3981.25
988.14	3905.48
988.30	3952.58
988.46	3811.27
988.62	3923.91
988.78	3932.10
988.94	3901.38
989.10	3819.46
989.26	3844.04
989.42	3882.95
989.59	3747.78
989.75	3844.04
989.91	3971.01
990.07	3633.10
990.23	3733.45
990.39	3717.06
990.55	3790.79
990.71	3653.58
990.87	3731.40
991.03	3942.34
991.19	3760.07
991.35	3708.87
991.51	3737.54
991.67	3887.04
991.83	3655.62
992.00	3678.15
992.16	3665.86
992.32	3790.79
992.48	3739.59
992.64	3645.38
992.80	3762.12
992.96	3592.14
993.12	3631.05
993.28	3729.35
993.44	3678.15
993.60	3588.04
993.76	3696.58
993.92	3655.62
994.08	3547.08
994.24	3653.58
994.40	3678.15
994.56	3674.06
994.72	3411.92
994.88	3405.77
995.04	3506.12
995.20	3555.27
995.36	3499.98
995.52	3506.12
995.68	3506.12
995.84	3456.97
996.00	3579.85
996.16	3563.47
996.32	3411.92
996.48	3436.49
996.64	3567.56
996.80	3405.77
996.96	3436.49
997.12	3334.09
997.28	3459.02
997.44	3440.59
997.60	3413.96
997.76	3325.90
997.92	3452.88
998.08	3344.33
998.24	3213.26
998.40	3309.52
998.56	3340.24
998.72	3305.42
998.88	3264.46
999.04	3246.03
999.20	3264.46
999.36	3221.45
999.52	3409.87
999.68	3184.59
999.84	3203.02
1000.00	3217.36
1000.16	3178.45
1000.32	3291.09
1000.48	3342.28
1000.64	3131.34
1000.80	3231.69
1000.95	3256.27
1001.11	3239.89
1001.27	3162.06
1001.43	3207.12
1001.59	3004.37
1001.75	3080.14
1001.91	3123.15
1002.07	3102.67
1002.23	3198.93
1002.39	3160.02
1002.55	3080.14
1002.71	3086.29
1002.87	3131.34
1003.03	3082.19
1003.19	3071.95
1003.34	3196.88
1003.50	3088.34
1003.66	3030.99
1003.82	3092.43
1003.98	2981.84
1004.14	3039.19
1004.30	3063.76
1004.46	3041.23
1004.62	3076.05
1004.78	2985.94
1004.94	3076.05
1005.09	3002.32
1005.25	2942.93
1005.41	2951.12
1005.57	3000.27
1005.73	2981.84
1005.89	2846.68
1006.05	3024.85
1006.21	2916.31
1006.37	2842.58
1006.52	2899.92
1006.68	2889.68
1006.84	2944.98
1007.00	3008.47
1007.16	2871.25
1007.32	2899.92
1007.48	2899.92
1007.64	2822.10
1007.79	2848.72
1007.95	2734.04
1008.11	2854.87
1008.27	2871.25
1008.43	2875.35
1008.59	2791.38
1008.75	2879.44
1008.91	2852.82
1009.06	2777.05
1009.22	2846.68
1009.38	2709.46
1009.54	2785.24
1009.70	2731.99
1009.86	2740.18
1010.01	2781.14
1010.17	2707.41
1010.33	2832.34
1010.49	2707.41
1010.65	2848.72
1010.81	2645.98
1010.96	2699.22
1011.12	2721.75
1011.28	2639.83
1011.44	2762.71
1011.60	2707.41
1011.76	2621.40
1011.91	2742.23
1012.07	2629.59
1012.23	2580.44
1012.39	2658.26
1012.55	2719.70
1012.71	2656.22
1012.86	2594.78
1013.02	2547.67
1013.18	2473.95
1013.34	2572.25
1013.50	2639.83
1013.65	2660.31
1013.81	2494.43
1013.97	2553.82
1014.13	2600.92
1014.29	2580.44
1014.44	2691.03
1014.60	2504.67
1014.76	2580.44
1014.92	2566.10
1015.07	2547.67
1015.23	2627.54
1015.39	2516.95
1015.55	2535.39
1015.71	2527.19
1015.86	2494.43
1016.02	2535.39
1016.18	2420.70
1016.34	2572.25
1016.49	2506.71
1016.65	2562.01
1016.81	2488.28
1016.97	2510.81
1017.12	2629.59
1017.28	2381.79
1017.44	2441.18
1017.60	2383.84
1017.75	2400.22
1017.91	2461.66
1018.07	2387.93
1018.23	2396.12
1018.38	2418.65
1018.54	2410.46
1018.70	2377.69
1018.86	2383.84
1019.01	2367.45
1019.17	2469.85
1019.33	2463.71
1019.49	2408.41
1019.64	2371.55
1019.80	2432.99
1019.96	2377.69
1020.12	2422.75
1020.27	2269.15
1020.43	2367.45
1020.59	2400.22
1020.74	2408.41
1020.90	2402.27
1021.06	2279.39
1021.22	2381.79
1021.37	2353.12
1021.53	2273.25
1021.69	2424.80
1021.84	2252.77
1022.00	2232.29
1022.16	2199.52
1022.31	2250.72
1022.47	2346.97
1022.63	2273.25
1022.79	2187.23
1022.94	2260.96
1023.10	2289.63
1023.26	2260.96
1023.41	2256.86
1023.57	2183.13
1023.73	2285.53
1023.88	2295.77
1024.04	2127.84
1024.20	2166.75
1024.35	2240.48
1024.51	2215.90
1024.67	2244.57
1024.82	2344.92
1024.98	2220.00
1025.14	2238.43
1025.29	2121.70
1025.45	2230.24
1025.61	2246.62
1025.76	2162.66
1025.92	2263.01
1026.08	2244.57
1026.23	2207.71
1026.39	2277.34
1026.55	2090.98
1026.70	2166.75
1026.86	2187.23
1027.02	2168.80
1027.17	2123.74
1027.33	2181.09
1027.48	2183.13
1027.64	2101.22
1027.80	2133.98
1027.95	2195.42
1028.11	1986.53
1028.27	2158.56
1028.42	2129.89
1028.58	2158.56
1028.73	2105.31
1028.89	2047.97
1029.05	2156.51
1029.20	2170.85
>>>>>End Processed Spectral Data<<<<<
