SpectraSuite Data File
++++++++++++++++++++++++++++++++++++
Date: Fri Jun 02 14:53:28 CEST 2017
User: INFO_000
Dark Spectrum Present: No
Reference Spectrum Present: No
Number of Sampled Component Spectra: 1
Spectrometers: USB4H00879
Integration Time (usec): 80000 (USB4H00879)
Spectra Averaged: 1 (USB4H00879)
Boxcar Smoothing: 0 (USB4H00879)
Correct for Electrical Dark: No (USB4H00879)
Strobe/Lamp Enabled: No (USB4H00879)
Correct for Detector Non-linearity: No (USB4H00879)
Correct for Stray Light: No (USB4H00879)
Number of Pixels in Processed Spectrum: 3648
>>>>>Begin Processed Spectral Data<<<<<
345.13	1298.41
345.34	1298.41
345.56	1298.41
345.78	1273.84
345.99	1339.37
346.21	1667.05
346.42	1617.90
346.64	1658.85
346.86	1734.63
347.07	1634.28
347.29	1757.16
347.50	1650.66
347.72	1648.61
347.94	1779.68
348.15	1542.12
348.37	1640.42
348.59	1701.86
348.80	1656.81
349.02	1693.67
349.23	1744.87
349.45	1751.01
349.67	1804.26
349.88	1746.92
350.10	1853.41
350.31	1730.53
350.53	1673.19
350.75	1920.99
350.96	1658.85
351.18	1716.20
351.39	1724.39
351.61	1699.81
351.82	1726.44
352.04	1693.67
352.26	1712.10
352.47	1753.06
352.69	1781.73
352.90	1630.18
353.12	1744.87
353.34	1689.57
353.55	1734.63
353.77	1712.10
353.98	1748.97
354.20	1636.33
354.41	1746.92
354.63	1800.16
354.85	1904.61
355.06	1785.83
355.28	1591.27
355.49	1789.92
355.71	1716.20
355.92	1714.15
356.14	1816.55
356.35	1736.68
356.57	1734.63
356.79	1812.45
357.00	1767.40
357.22	1806.31
357.43	1662.95
357.65	1783.78
357.86	1716.20
358.08	1757.16
358.29	1613.80
358.51	1830.88
358.72	1746.92
358.94	1724.39
359.16	1746.92
359.37	1718.25
359.59	1667.05
359.80	1828.84
360.02	1744.87
360.23	1738.73
360.45	1918.95
360.66	1755.11
360.88	1650.66
361.09	1681.38
361.31	1765.35
361.52	1722.34
361.74	1886.18
361.95	1857.51
362.17	1761.25
362.38	1824.74
362.60	1794.02
362.81	1744.87
363.03	1667.05
363.24	1691.62
363.46	1783.78
363.67	1724.39
363.89	1789.92
364.10	1720.29
364.32	1708.01
364.53	1734.63
364.75	1718.25
364.96	1738.73
365.18	1796.07
365.39	1777.64
365.61	1660.90
365.82	1912.80
366.04	1787.88
366.25	1648.61
366.47	1710.05
366.68	1724.39
366.90	1660.90
367.11	1812.45
367.33	1695.72
367.54	1816.55
367.76	1781.73
367.97	1810.40
368.19	1710.05
368.40	1755.11
368.62	1662.95
368.83	1703.91
369.05	1691.62
369.26	1695.72
369.48	1665.00
369.69	1667.05
369.91	1808.36
370.12	1716.20
370.33	1847.27
370.55	1624.04
370.76	1791.97
370.98	1740.77
371.19	1748.97
371.41	1740.77
371.62	1779.68
371.84	1722.34
372.05	1775.59
372.27	1732.58
372.48	1748.97
372.69	1769.44
372.91	1830.88
373.12	1773.54
373.34	1771.49
373.55	1808.36
373.77	1783.78
373.98	1705.96
374.20	1873.89
374.41	1855.46
374.62	1791.97
374.84	1806.31
375.05	1822.69
375.27	1777.64
375.48	1699.81
375.70	1726.44
375.91	1789.92
376.12	1947.62
376.34	1730.53
376.55	1708.01
376.77	1728.49
376.98	1681.38
377.19	1732.58
377.41	1800.16
377.62	1822.69
377.84	1826.79
378.05	1923.04
378.27	1738.73
378.48	1949.67
378.69	1877.99
378.91	1892.32
379.12	1865.70
379.34	1851.36
379.55	1777.64
379.76	1894.37
379.98	1724.39
380.19	1939.43
380.41	1751.01
380.62	1812.45
380.83	1759.21
381.05	1726.44
381.26	1957.86
381.47	1708.01
381.69	1783.78
381.90	1900.52
382.12	1791.97
382.33	1837.03
382.54	1751.01
382.76	1845.22
382.97	1818.60
383.19	1832.93
383.40	1888.23
383.61	1785.83
383.83	1789.92
384.04	1734.63
384.25	1783.78
384.47	1916.90
384.68	1810.40
384.89	1703.91
385.11	1763.30
385.32	1791.97
385.54	1775.59
385.75	1728.49
385.96	1871.84
386.18	1880.04
386.39	1828.84
386.60	1701.86
386.82	1816.55
387.03	1832.93
387.24	1834.98
387.46	1757.16
387.67	1804.26
387.88	1996.77
388.10	1791.97
388.31	1773.54
388.52	1945.57
388.74	1935.33
388.95	1834.98
389.16	1802.21
389.38	1757.16
389.59	1912.80
389.80	1830.88
390.02	1839.08
390.23	1886.18
390.44	1904.61
390.66	1777.64
390.87	1730.53
391.08	1902.56
391.30	2056.16
391.51	1914.85
391.72	1957.86
391.94	1941.47
392.15	1945.57
392.36	1849.32
392.58	1839.08
392.79	1945.57
393.00	1923.04
393.22	2062.30
393.43	1982.43
393.64	2004.96
393.85	1970.15
394.07	1951.71
394.28	1972.19
394.49	2015.20
394.71	2105.31
394.92	2086.88
395.13	1822.69
395.35	1859.56
395.56	1763.30
395.77	2078.69
395.98	2039.78
396.20	2011.11
396.41	2162.66
396.62	2011.11
396.84	2027.49
397.05	1953.76
397.26	1894.37
397.47	2105.31
397.69	1984.48
397.90	2109.41
398.11	2072.54
398.32	2011.11
398.54	1945.57
398.75	1953.76
398.96	2109.41
399.18	2158.56
399.39	2060.26
399.60	2115.55
399.81	2041.82
400.03	2129.89
400.24	2209.76
400.45	2052.06
400.66	2156.51
400.88	2068.45
401.09	2220.00
401.30	2019.30
401.51	2342.88
401.73	2193.37
401.94	2142.18
402.15	2160.61
402.36	2357.21
402.58	2176.99
402.79	2379.74
403.00	2205.66
403.21	2238.43
403.43	2222.05
403.64	2398.17
403.85	2275.29
404.06	2392.03
404.27	2136.03
404.49	2230.24
404.70	2201.57
404.91	2303.96
405.12	2185.18
405.34	2211.81
405.55	2338.78
405.76	2162.66
405.97	2236.38
406.19	2660.31
406.40	2252.77
406.61	2404.32
406.82	2273.25
407.03	2408.41
407.25	2189.28
407.46	2500.57
407.67	2265.05
407.88	2719.70
408.09	2303.96
408.31	2416.60
408.52	2385.88
408.73	2375.64
408.94	2353.12
409.15	2361.31
409.37	2441.18
409.58	2549.72
409.79	2396.12
410.00	2514.91
410.21	2299.87
410.43	2574.30
410.64	2338.78
410.85	2346.97
411.06	2670.55
411.27	2461.66
411.48	2445.27
411.70	2613.21
411.91	2684.89
412.12	2738.13
412.33	2797.53
412.54	2428.89
412.76	2748.37
412.97	2705.37
413.18	2451.42
413.39	2535.39
413.60	2777.05
413.81	2697.17
414.03	2635.74
414.24	2553.82
414.45	2887.64
414.66	2637.78
414.87	2936.79
415.08	2519.00
415.30	2775.00
415.51	2793.43
415.72	2566.10
415.93	2979.79
416.14	2723.80
416.35	2752.47
416.56	3051.47
416.78	2768.85
416.99	2719.70
417.20	2537.43
417.41	3039.19
417.62	2920.40
417.83	2736.09
418.04	2768.85
418.26	3190.74
418.47	2967.51
418.68	3002.32
418.89	3045.33
419.10	3231.69
419.31	3053.52
419.52	2967.51
419.73	3022.80
419.95	3397.58
420.16	3076.05
420.37	3063.76
420.58	2828.24
420.79	2947.03
421.00	2881.49
421.21	3045.33
421.42	3149.78
421.63	3139.54
421.85	3231.69
422.06	3157.97
422.27	3354.57
422.48	3096.53
422.69	3248.08
422.90	3542.99
423.11	3207.12
423.32	3444.68
423.53	3368.91
423.75	3330.00
423.96	3508.17
424.17	3508.17
424.38	3764.17
424.59	3456.97
424.80	3354.57
425.01	3493.83
425.22	3368.91
425.43	3477.45
425.64	3712.97
425.85	3995.59
426.06	3938.24
426.28	3813.32
426.49	3469.26
426.70	3641.29
426.91	3753.93
427.12	3878.85
427.33	4030.40
427.54	3825.61
427.75	3921.86
427.96	4153.28
428.17	3968.96
428.38	3835.85
428.59	4165.57
428.80	4032.45
429.01	4116.42
429.23	3901.38
429.44	4102.08
429.65	4218.82
429.86	4132.80
430.07	4415.42
430.28	4204.48
430.49	4337.60
430.70	4198.34
430.91	4659.13
431.12	4442.04
431.33	4286.40
431.54	4515.77
431.75	4392.89
431.96	4388.80
432.17	4614.07
432.38	4468.67
432.59	4767.67
432.80	4685.75
433.01	4640.70
433.22	4478.91
433.43	4571.07
433.64	4767.67
433.85	4663.22
434.06	4751.29
434.27	4566.97
434.49	4730.81
434.70	5132.21
434.91	4790.20
435.12	5060.53
435.33	4822.97
435.54	4800.44
435.75	4695.99
435.96	4872.12
436.17	4771.77
436.38	4986.80
436.59	5078.96
436.80	4771.77
437.01	5105.59
437.22	5201.84
437.43	5169.07
437.64	4900.79
437.85	5136.31
438.06	5402.54
438.27	4962.23
438.48	5117.87
438.69	5318.57
438.90	5423.02
439.11	5369.77
439.32	5433.26
439.53	5400.49
439.74	5285.81
439.95	5509.04
440.16	5216.18
440.37	5400.49
440.57	5124.02
440.78	5425.07
440.99	5650.35
441.20	5390.25
441.41	5590.95
441.62	5502.89
441.83	5509.04
442.04	5574.57
442.25	5611.43
442.46	5564.33
442.67	5775.27
442.88	5957.54
443.09	5609.39
443.30	5574.57
443.51	5580.71
443.72	6016.93
443.93	5693.35
444.14	6125.47
444.35	5502.89
444.56	5713.83
444.77	5689.26
444.98	6027.17
445.19	6135.71
445.40	6074.28
445.61	5922.73
445.81	6188.96
446.02	6191.01
446.23	6090.66
446.44	5935.01
446.65	6209.44
446.86	6162.34
447.07	6389.66
447.28	6326.18
447.49	6338.46
447.70	6301.60
447.91	6530.97
448.12	6242.21
448.33	6506.40
448.54	6424.48
448.74	6299.55
448.95	6434.72
449.16	6305.70
449.37	6635.42
449.58	6459.29
449.79	6741.91
450.00	6332.32
450.21	6623.13
450.42	7049.11
450.63	6829.98
450.84	6580.12
451.05	6729.63
451.25	6799.26
451.46	6780.82
451.67	6889.37
451.88	7112.60
452.09	6832.02
452.30	6877.08
452.51	6983.57
452.72	7085.97
452.93	7333.78
453.13	6926.23
453.34	6870.94
453.55	7288.72
453.76	7030.68
453.97	7427.98
454.18	7171.99
454.39	7159.70
454.60	7198.61
454.81	7331.73
455.01	7376.78
455.22	7075.73
455.43	7587.72
455.64	7696.27
455.85	7761.80
456.06	7698.31
456.27	7671.69
456.48	7542.67
456.68	7815.05
456.89	7794.57
457.10	7894.92
457.31	7726.99
457.52	7729.03
457.73	7866.25
457.94	8101.76
458.14	7784.33
458.35	8392.58
458.56	8046.47
458.77	8040.33
458.98	8449.92
459.19	8189.83
459.39	8310.66
459.60	8464.25
459.81	8232.83
460.02	8451.97
460.23	8566.65
460.44	8634.24
460.65	8546.17
460.85	8624.00
461.06	8552.32
461.27	8537.98
461.48	8968.06
461.69	8871.80
461.89	8681.34
462.10	8949.62
462.31	8654.72
462.52	8736.63
462.73	8826.75
462.94	9303.92
463.14	9033.59
463.35	8984.44
463.56	9486.19
463.77	9377.65
463.98	9283.44
464.18	9142.13
464.39	9506.67
464.60	9693.04
464.81	9602.93
465.02	9621.36
465.23	9867.11
465.43	9469.81
465.64	9906.02
465.85	9686.89
466.06	9604.97
466.27	10043.24
466.47	9920.36
466.68	10004.33
466.89	10123.11
467.10	10301.28
467.30	9815.91
467.51	10436.45
467.72	10426.21
467.93	10262.37
468.14	10504.03
468.34	10727.26
468.55	10567.52
468.76	10631.01
468.97	10375.01
469.17	10766.17
469.38	10786.65
469.59	11059.03
469.80	10680.16
470.01	10848.09
470.21	10819.42
470.42	11243.35
470.63	11347.79
470.84	11169.62
471.04	11437.91
471.25	11503.44
471.46	11315.03
471.67	11833.16
471.87	11620.17
472.08	11775.82
472.29	11941.71
472.50	11595.60
472.70	11757.39
472.91	11900.75
473.12	12031.82
473.33	12152.65
473.53	12121.93
473.74	12136.26
473.95	12289.86
474.16	12300.10
474.36	12523.33
474.57	12672.83
474.78	12793.66
474.99	12674.88
475.19	12506.95
475.40	13123.38
475.61	13061.94
475.81	13070.14
476.02	13313.84
476.23	13305.65
476.44	13365.04
476.64	13504.31
476.85	13682.48
477.06	13717.29
477.27	13721.39
477.47	13952.81
477.68	13838.12
477.89	14059.31
478.09	14079.79
478.30	14339.88
478.51	14137.13
478.71	14282.53
478.92	14460.71
479.13	14685.98
479.34	14737.18
479.54	14878.49
479.75	14808.86
479.96	14933.79
480.16	14858.01
480.37	15124.25
480.58	15228.70
480.78	15347.48
480.99	15263.51
481.20	15492.88
481.41	15447.83
481.61	15703.82
481.82	15707.92
482.03	15867.66
482.23	15699.73
482.44	15841.04
482.65	16226.06
482.85	16410.37
483.06	16213.77
483.27	16434.95
483.47	16340.74
483.68	16609.03
483.89	16584.45
484.09	16561.92
484.30	16858.88
484.51	17014.52
484.71	17022.72
484.92	17106.68
485.13	17270.52
485.33	17368.82
485.54	17202.94
485.75	17440.50
485.95	17604.34
486.16	17643.25
486.37	17788.66
486.57	17762.03
486.78	17827.57
486.98	17762.03
487.19	17886.96
487.40	18228.97
487.60	18282.22
487.81	18427.62
488.02	18611.94
488.22	18362.09
488.43	18757.35
488.64	18515.69
488.84	19121.88
489.05	19103.45
489.25	18628.32
489.46	19148.51
489.67	19236.57
489.87	19316.44
490.08	19357.40
490.29	19302.11
490.49	19760.85
490.70	19601.11
490.90	19926.74
491.11	19697.36
491.32	19814.10
491.52	19726.04
491.73	20027.09
491.94	20201.16
492.14	20270.79
492.35	20473.54
492.55	20379.34
492.76	20197.07
492.97	20659.91
493.17	20586.18
493.38	20883.14
493.58	21012.16
493.79	21257.92
494.00	21022.40
494.20	21032.64
494.41	21405.37
494.61	21386.94
494.82	21556.92
495.02	21413.56
495.23	21296.83
495.44	21663.41
495.64	21694.13
495.85	21817.01
496.05	21710.52
496.26	22034.10
496.47	22179.50
496.67	21919.41
496.88	22392.49
497.08	22185.65
497.29	22421.16
497.49	22513.32
497.70	22474.41
497.91	22544.04
498.11	22601.38
498.32	22838.95
498.52	22802.08
498.73	23533.21
498.93	23127.71
499.14	23209.63
499.34	23418.52
499.55	23250.59
499.76	23062.18
499.96	23174.81
500.17	23477.91
500.37	23436.95
500.58	23459.48
500.78	23486.11
500.99	24020.63
501.19	23651.99
501.40	23731.86
501.60	23873.17
501.81	23760.53
502.02	23934.61
502.22	23770.77
502.43	24245.90
502.63	24323.72
502.84	24256.14
503.04	24409.74
503.25	24647.30
503.45	24266.38
503.66	24780.42
503.86	24753.80
504.07	25120.38
504.27	24360.59
504.48	24931.97
504.68	25058.95
504.89	24983.17
505.09	25249.41
505.30	25075.33
505.50	25525.88
505.71	25450.11
505.91	25372.28
506.12	25120.38
506.32	25497.21
506.53	25429.63
506.73	25747.06
506.94	25712.25
507.14	25781.88
507.35	25607.80
507.55	26046.07
507.76	25927.28
507.96	25679.48
508.17	26019.44
508.37	25953.91
508.58	26205.81
508.78	25921.14
508.99	26433.13
509.19	26406.51
509.40	26318.45
509.60	26500.72
509.81	26844.77
510.01	26390.13
510.22	26582.63
510.42	26957.41
510.63	26812.01
510.83	26828.39
511.04	26744.42
511.24	26887.78
511.44	26838.63
511.65	26904.17
511.85	27033.19
512.06	27076.19
512.26	27336.29
512.47	27037.28
512.67	27080.29
512.88	27254.37
513.08	27217.50
513.29	27209.31
513.49	27418.21
513.69	27209.31
513.90	27559.52
514.10	27604.57
514.31	27700.83
514.51	27924.05
514.72	27715.16
514.92	27874.90
515.13	28251.73
515.33	28055.12
515.53	27897.43
515.74	27827.80
515.94	28202.58
516.15	28401.23
516.35	27631.19
516.56	28552.78
516.76	28427.85
516.96	28489.29
517.17	28675.66
517.37	28886.60
517.58	28454.48
517.78	28653.13
517.99	28804.68
518.19	28839.50
518.39	29027.91
518.60	29075.01
518.80	29224.51
519.01	29050.44
519.21	28960.33
519.41	29419.07
519.62	29312.58
519.82	29593.15
520.03	29468.22
520.23	29404.74
520.43	29312.58
520.64	29685.31
520.84	29740.60
521.05	29513.28
521.25	29791.80
521.45	30324.27
521.66	29763.13
521.86	29906.49
522.07	29685.31
522.27	29955.64
522.47	29892.15
522.68	30090.80
522.88	30191.16
523.08	30254.64
523.29	30432.82
523.49	30500.40
523.70	30631.47
523.90	30705.20
524.10	30727.72
524.31	30735.92
524.51	31039.01
524.71	31157.80
524.92	30873.13
525.12	31333.92
525.33	31305.25
525.53	31571.49
525.73	31489.57
525.94	31716.89
526.14	31403.55
526.34	31761.95
526.55	31831.58
526.75	31663.64
526.95	32333.33
527.16	31843.87
527.36	32056.85
527.56	32243.22
527.77	32640.53
527.97	32247.32
528.17	32685.58
528.38	32470.54
528.58	32929.29
528.78	32794.12
528.99	32919.05
529.19	32992.78
529.39	32505.36
529.60	32966.15
529.80	33113.61
530.00	33275.40
530.21	33637.89
530.41	33529.34
530.61	33539.58
530.82	33273.35
531.02	33330.69
531.22	33351.17
531.43	33572.35
531.63	34051.58
531.83	34348.53
532.04	34321.91
532.24	34225.65
532.44	34485.75
532.64	34598.38
532.85	34598.38
533.05	34346.48
533.25	34473.46
533.46	34557.42
533.66	35311.08
533.86	34338.29
534.07	35186.15
534.27	35464.67
534.47	35204.58
534.67	35292.65
534.88	35358.18
535.08	35509.73
535.28	35739.10
535.49	35519.97
535.69	35982.81
535.89	35810.78
536.09	35689.95
536.30	36052.44
536.50	36167.13
536.70	36459.99
536.91	36275.67
537.11	36439.51
537.31	36539.86
537.51	36548.05
537.72	36945.36
537.92	36945.36
538.12	36797.90
538.32	36675.02
538.53	37494.21
538.73	36799.95
538.93	36859.34
539.13	37166.54
539.34	37449.16
539.54	37025.23
539.74	37789.12
539.94	37483.97
540.15	37260.74
540.35	37727.68
540.55	37729.73
540.75	37559.75
540.96	38172.09
541.16	37776.83
541.36	37924.29
541.56	38215.10
541.77	38499.76
541.97	38036.92
542.17	38401.46
542.37	38471.09
542.58	38532.53
542.78	38274.49
542.98	38520.24
543.18	38686.13
543.38	38905.26
543.59	38778.29
543.79	38620.59
543.99	38837.68
544.19	39359.91
544.40	39054.76
544.60	39390.63
544.80	39318.95
545.00	39357.86
545.20	39411.11
545.41	39474.60
545.61	39388.58
545.81	39851.42
546.01	39982.49
546.21	39994.78
546.42	39607.72
546.62	39787.94
546.82	39800.22
547.02	39978.40
547.22	40306.07
547.43	40228.25
547.63	40187.29
547.83	40310.17
548.03	39949.73
548.23	40621.46
548.44	40146.33
548.64	40482.20
548.84	40488.34
549.04	40297.88
549.24	40547.73
549.45	41086.35
549.65	40711.57
549.85	41065.87
550.05	40856.98
550.25	41029.01
550.45	41121.16
550.66	41112.97
550.86	40869.26
551.06	41090.44
551.26	40994.19
551.46	41264.52
551.66	41504.13
551.87	40973.71
552.07	41489.80
552.27	41682.31
552.47	41414.02
552.67	41555.33
552.87	41459.08
553.07	41651.59
553.28	41733.51
553.48	42030.46
553.68	41858.43
553.88	42349.95
554.08	41805.19
554.28	41997.70
554.48	41631.11
554.69	42386.81
554.89	41966.98
555.09	41889.15
555.29	41805.19
555.49	42268.03
555.69	41760.13
555.89	42134.91
556.10	42192.25
556.30	42288.51
556.50	42489.21
556.70	42165.63
556.90	42687.86
557.10	42573.17
557.30	42374.52
557.50	42675.57
557.70	42763.64
557.91	42894.71
558.11	42478.97
558.31	42878.32
558.51	42769.78
558.71	42831.22
558.91	43113.84
559.11	42888.56
559.31	43222.38
559.51	42478.97
559.72	42841.46
559.92	43091.31
560.12	42929.52
560.32	43267.44
560.52	43144.56
560.72	43322.73
560.92	43365.74
561.12	43431.27
561.32	43582.82
561.52	42984.82
561.72	43789.67
561.93	43558.25
562.13	43541.86
562.33	43500.90
562.53	43916.64
562.73	43406.70
562.93	43627.88
563.13	43900.26
563.33	43578.73
563.53	43881.83
563.73	43240.81
563.93	43722.08
564.13	44307.80
564.33	44029.28
564.53	43670.89
564.74	43865.44
564.94	43758.95
565.14	44258.65
565.34	43795.81
565.54	44494.17
565.74	44361.05
565.94	44348.76
566.14	44545.37
566.34	44168.54
566.54	44500.31
566.74	44180.83
566.94	44584.28
567.14	44746.07
567.34	44318.04
567.54	44715.35
567.74	44160.35
567.94	44264.80
568.14	44625.24
568.34	44645.72
568.54	44397.91
568.74	44588.38
568.94	44543.32
569.14	45225.29
569.34	44979.54
569.54	45032.78
569.75	44799.32
569.95	44979.54
570.15	45282.64
570.35	45141.33
570.55	45045.07
570.75	44948.82
570.95	44801.36
571.15	45202.77
571.35	45118.80
571.55	45155.66
571.75	45387.08
571.95	45548.87
572.15	45466.95
572.35	45313.36
572.55	45571.40
572.75	45376.84
572.95	45620.55
573.15	45725.00
573.35	45868.36
573.55	45825.35
573.75	45690.18
573.95	46150.98
574.15	45755.72
574.35	45643.08
574.55	46150.98
574.75	45819.20
574.95	45823.30
575.15	46040.39
575.34	46339.39
575.54	46067.01
575.74	46646.58
575.94	46576.95
576.14	46228.80
576.34	46581.05
576.54	46478.65
576.74	46849.33
576.94	46705.98
577.14	46699.83
577.34	46855.48
577.54	46484.79
577.74	47000.88
577.94	47240.50
578.14	47025.46
578.34	47121.71
578.54	46490.94
578.74	47199.54
578.94	47428.91
579.14	47105.33
579.34	46855.48
579.54	47095.09
579.74	47613.23
579.94	47387.95
580.13	47576.36
580.33	47756.58
580.53	47220.02
580.73	47672.62
580.93	47463.72
581.13	48141.60
581.33	48198.94
581.53	47598.89
581.73	48215.33
581.93	47906.08
582.13	48198.94
582.33	48012.58
582.53	47953.19
582.73	47750.44
582.92	48121.12
583.12	48411.93
583.32	48160.03
583.52	47961.38
583.72	48192.80
583.92	48151.84
584.12	48379.17
584.32	49188.11
584.52	48493.85
584.72	48368.93
584.92	48839.96
585.11	48876.82
585.31	48667.93
585.51	48366.88
585.71	48895.25
585.91	48934.17
586.11	48948.50
586.31	49222.93
586.51	48921.88
586.71	48860.44
586.91	49521.93
587.10	49526.03
587.30	49411.34
587.50	49218.83
587.70	49241.36
587.90	49573.13
588.10	49405.20
588.30	49628.43
588.50	49374.48
588.69	49339.66
588.89	49642.76
589.09	49876.23
589.29	49726.73
589.49	50191.62
589.69	49945.86
589.89	49741.06
590.08	49644.81
590.28	49827.08
590.48	50242.82
590.68	49712.39
590.88	50138.37
591.08	49798.41
591.28	50132.23
591.47	50230.53
591.67	50310.40
591.87	50607.36
592.07	49939.72
592.27	50255.11
592.47	50203.91
592.67	50373.89
592.86	50351.36
593.06	50466.05
593.26	50472.19
593.46	50978.04
593.66	50644.22
593.86	50578.68
594.05	51021.05
594.25	50926.84
594.45	50486.53
594.65	50586.88
594.85	50896.12
595.05	51133.68
595.24	51150.07
595.44	50728.19
595.64	51102.96
595.84	50668.79
596.04	51016.95
596.23	51369.20
596.43	51422.45
596.63	51383.54
596.83	51424.50
597.03	51770.60
597.22	51434.74
597.42	51025.14
597.62	51447.02
597.82	51805.42
598.02	51320.05
598.21	51967.21
598.41	51725.55
598.61	51789.03
598.81	51901.67
599.01	52278.50
599.20	51844.33
599.40	51954.92
599.60	52090.09
599.80	52393.18
600.00	52061.41
600.19	52045.03
600.39	52075.75
600.59	52303.07
600.79	52348.13
600.98	52409.57
601.18	52536.54
601.38	53189.84
601.58	52862.17
601.78	52403.42
601.97	52804.83
602.17	53318.87
602.37	52559.07
602.57	52798.68
602.76	53239.00
602.96	52698.33
603.16	53474.51
603.36	53198.04
603.55	53255.38
603.75	53322.96
603.95	53605.58
604.15	53605.58
604.34	53470.42
604.54	53476.56
604.74	53370.07
604.94	53228.76
605.13	53988.55
605.33	53484.75
605.53	53386.45
605.73	53908.68
605.92	53716.17
606.12	54019.27
606.32	53720.27
606.52	53720.27
606.71	53597.39
606.91	54138.05
607.11	54054.09
607.30	54021.32
607.50	54633.66
607.70	54291.65
607.90	54064.33
608.09	54344.90
608.29	54205.64
608.49	54633.66
608.68	54457.54
608.88	54609.09
609.08	54322.37
609.28	54584.51
609.47	54299.84
609.67	54490.30
609.87	54484.16
610.06	54656.19
610.26	54338.75
610.46	54633.66
610.66	54711.49
610.85	54744.25
611.05	55076.02
611.25	54549.70
611.44	54666.43
611.64	54529.22
611.84	54572.22
612.03	54785.21
612.23	54807.74
612.43	54955.19
612.62	54424.77
612.82	54836.41
613.02	54752.44
613.21	55016.63
613.41	54615.23
613.61	54899.90
613.80	54633.66
614.00	54715.58
614.20	55086.26
614.39	54938.81
614.59	55188.66
614.79	55280.82
614.98	54785.21
615.18	55162.04
615.38	55377.08
615.57	54820.03
615.77	55159.99
615.97	55420.08
616.16	55057.59
616.36	54942.91
616.56	55440.56
616.75	54975.67
616.95	55131.32
617.15	55069.88
617.34	54869.18
617.54	55057.59
617.74	55659.69
617.93	55008.44
618.13	54645.95
618.32	55092.41
618.52	55221.43
618.72	55276.72
618.91	55235.77
619.11	54686.91
619.31	55510.19
619.50	55194.81
619.70	54668.48
619.90	55102.65
620.09	54774.97
620.29	55299.25
620.48	55297.20
620.68	55276.72
620.88	54752.44
621.07	55162.04
621.27	54957.24
621.46	55057.59
621.66	55002.30
621.86	55094.46
622.05	55049.40
622.25	55407.79
622.44	55241.91
622.64	55043.26
622.84	54981.82
623.03	54957.24
623.23	55059.64
623.42	54828.22
623.62	55362.74
623.82	55481.52
624.01	55004.34
624.21	55246.00
624.40	54965.43
624.60	55063.74
624.80	54664.38
624.99	54926.52
625.19	54940.86
625.38	55284.92
625.58	55260.34
625.77	55223.48
625.97	55145.65
626.17	54553.79
626.36	55153.85
626.56	55540.91
626.75	54529.22
626.95	55057.59
627.14	54953.15
627.34	55336.12
627.54	54998.20
627.73	55020.73
627.93	55403.70
628.12	54955.19
628.32	54846.65
628.51	54924.47
628.71	55477.43
628.90	55051.45
629.10	54994.10
629.30	55227.57
629.49	55243.96
629.69	55008.44
629.88	55084.22
630.08	55401.65
630.27	55602.35
630.47	55110.84
630.66	54867.13
630.86	55583.92
631.05	54967.48
631.25	55465.14
631.44	55336.12
631.64	55182.52
631.84	55340.21
632.03	55950.51
632.23	54893.75
632.42	55680.17
632.62	55456.95
632.81	54965.43
633.01	55375.03
633.20	55612.59
633.40	55194.81
633.59	55176.37
633.79	55200.95
633.98	55291.06
634.18	55686.32
634.37	55450.80
634.57	55311.54
634.76	55657.65
634.96	55344.31
635.15	55635.12
635.35	55186.61
635.54	55332.02
635.74	56016.04
635.93	55125.17
636.13	55983.27
636.32	55346.36
636.52	55475.38
636.71	55303.35
636.91	56251.56
637.10	55637.17
637.30	55502.00
637.49	55133.37
637.69	55655.60
637.88	55841.96
638.08	55262.39
638.27	55596.21
638.46	55600.30
638.66	55565.49
638.85	55352.50
639.05	55635.12
639.24	55850.16
639.44	55657.65
639.63	55514.29
639.83	56022.19
640.02	55801.00
640.22	55764.14
640.41	56233.13
640.61	55432.37
640.80	55981.23
640.99	55493.81
641.19	56136.87
641.38	55987.37
641.58	55792.81
641.77	55772.33
641.97	56073.38
642.16	55475.38
642.36	56220.84
642.55	56444.07
642.74	55145.65
642.94	56296.61
643.13	55467.19
643.33	56003.75
643.52	56384.68
643.72	56368.29
643.91	55917.74
644.10	56169.64
644.30	56210.60
644.49	56296.61
644.69	56040.62
644.88	56308.90
645.08	56202.41
645.27	56265.89
645.46	55538.86
645.66	55882.92
645.85	55753.90
646.05	56257.70
646.24	56325.28
646.43	56362.15
646.63	56698.01
646.82	56562.85
647.02	56368.29
647.21	56628.38
647.40	56243.37
647.60	56745.12
647.79	56431.78
647.99	56253.61
648.18	56102.06
648.37	56777.89
648.57	56300.71
648.76	56493.22
648.96	56491.17
649.15	56558.75
649.34	56902.81
649.54	56442.02
649.73	56454.31
649.92	56917.15
650.12	57023.64
650.31	56833.18
650.51	56824.99
650.70	56976.54
650.89	56464.55
651.09	57322.65
651.28	56816.80
651.47	57203.86
651.67	56480.93
651.86	57463.96
652.06	56095.91
652.25	56638.62
652.44	56712.35
652.64	56427.68
652.83	56706.21
653.02	56313.00
653.22	56683.68
653.41	56321.19
653.60	56612.00
653.80	56677.54
653.99	56607.90
654.18	56900.76
654.38	56829.08
654.57	56956.06
654.76	56659.10
654.96	56546.47
655.15	56781.98
655.34	56548.51
655.54	56685.73
655.73	56476.83
655.92	57281.69
656.12	56857.76
656.31	57238.68
656.50	57121.94
656.70	56833.18
656.89	57033.88
657.08	57384.08
657.28	56730.78
657.47	57087.13
657.66	57537.68
657.86	56564.90
658.05	56892.57
658.24	57549.97
658.43	56980.63
658.63	57107.61
658.82	56931.48
659.01	57132.18
659.21	57349.27
659.40	57320.60
659.59	57021.59
659.79	56925.34
659.98	57287.83
660.17	57455.76
660.36	57285.78
660.56	56968.35
660.75	57263.25
660.94	57525.39
661.14	57265.30
661.33	56616.10
661.52	56583.33
661.71	57705.62
661.91	56794.27
662.10	56933.53
662.29	57537.68
662.49	57111.70
662.68	57242.77
662.87	57259.16
663.06	57169.05
663.26	57160.86
663.45	57425.04
663.64	57128.09
663.83	57605.26
664.03	57365.65
664.22	56865.95
664.41	57603.22
664.60	57242.77
664.80	57488.53
664.99	56927.39
665.18	57246.87
665.37	57257.11
665.57	56923.29
665.76	57142.42
665.95	57306.26
666.14	56902.81
666.34	57083.03
666.53	57072.79
666.72	56652.96
666.91	56673.44
667.11	56997.02
667.30	56763.55
667.49	57291.93
667.68	57220.25
667.87	56859.80
668.07	57390.23
668.26	57298.07
668.45	57177.24
668.64	57013.40
668.84	57416.85
669.03	57287.83
669.22	57066.65
669.41	57410.71
669.60	56956.06
669.80	57007.26
669.99	57169.05
670.18	57023.64
670.37	57040.03
670.57	57482.39
670.76	56894.62
670.95	57359.51
671.14	57152.66
671.33	56874.14
671.53	57504.91
671.72	57191.58
671.91	57191.58
672.10	57203.86
672.29	57103.51
672.48	57529.49
672.68	57521.30
672.87	56992.92
673.06	56906.91
673.25	56906.91
673.44	56562.85
673.64	57214.10
673.83	56945.82
674.02	56845.47
674.21	57083.03
674.40	57107.61
674.59	56751.26
674.79	56652.96
674.98	56259.75
675.17	56560.80
675.36	56767.65
675.55	57054.36
675.74	56448.16
675.94	56632.48
676.13	57083.03
676.32	57562.26
676.51	57228.44
676.70	57027.74
676.89	57136.28
677.08	57169.05
677.28	56962.20
677.47	57414.80
677.66	57136.28
677.85	56581.28
678.04	56988.83
678.23	57236.63
678.42	57017.50
678.62	56921.24
678.81	57171.10
679.00	56818.84
679.19	57240.73
679.38	56876.19
679.57	57107.61
679.76	57070.75
679.96	56915.10
680.15	57031.83
680.34	56472.74
680.53	56718.49
680.72	56624.29
680.91	56599.71
681.10	56612.00
681.29	56738.97
681.48	56820.89
681.68	56700.06
681.87	56493.22
682.06	56399.01
682.25	56226.98
682.44	56237.22
682.63	56444.07
682.82	56151.21
683.01	56499.36
683.20	56341.67
683.39	56515.75
683.59	56308.90
683.78	56222.89
683.97	56399.01
684.16	56669.34
684.35	55893.16
684.54	56171.69
684.73	56235.17
684.92	56106.15
685.11	55704.75
685.30	56386.72
685.49	56224.93
685.69	55903.40
685.88	56114.34
686.07	56048.81
686.26	55667.89
686.45	56515.75
686.64	56585.38
686.83	56208.55
687.02	55874.73
687.21	55743.66
687.40	56229.03
687.59	56192.17
687.78	56073.38
687.97	56251.56
688.16	56022.19
688.35	55891.12
688.54	55872.68
688.74	56235.17
688.93	55774.38
689.12	55899.31
689.31	56018.09
689.50	55983.27
689.69	55538.86
689.88	55635.12
690.07	55661.74
690.26	55497.91
690.45	55932.07
690.64	55565.49
690.83	55915.69
691.02	55264.44
691.21	55440.56
691.40	55415.99
691.59	55540.91
691.78	55440.56
691.97	55678.13
692.16	55727.28
692.35	55833.77
692.54	55635.12
692.73	55284.92
692.92	55055.54
693.11	55682.22
693.30	55428.27
693.49	55448.75
693.68	55223.48
693.87	55497.91
694.06	54912.19
694.25	55041.21
694.44	54953.15
694.63	55149.75
694.82	54836.41
695.01	55258.29
695.20	54695.10
695.39	54666.43
695.58	55155.89
695.77	55139.51
695.96	55116.98
696.15	54936.76
696.34	55043.26
696.53	54920.38
696.72	55051.45
696.91	55014.58
697.10	55020.73
697.29	55186.61
697.48	54998.20
697.67	54891.71
697.86	54371.52
698.05	54613.18
698.24	55110.84
698.43	54392.00
698.62	54744.25
698.81	54328.52
699.00	54703.29
699.19	54613.18
699.38	55114.94
699.57	54236.36
699.76	54949.05
699.95	54500.54
700.14	54250.69
700.32	54318.28
700.51	54578.37
700.70	54844.60
700.89	54645.95
701.08	54482.11
701.27	54353.09
701.46	54375.62
701.65	53925.07
701.84	54201.54
702.03	54340.80
702.22	53837.00
702.41	54328.52
702.60	53998.79
702.79	54240.45
702.98	54119.62
703.17	53902.54
703.35	54199.49
703.54	53703.88
703.73	54252.74
703.92	53621.97
704.11	53699.79
704.30	53556.43
704.49	53386.45
704.68	53515.47
704.87	53701.84
705.06	53654.73
705.25	53841.10
705.43	53728.46
705.62	53914.83
705.81	53519.57
706.00	53318.87
706.19	53472.46
706.38	53173.46
706.57	53331.15
706.76	53538.00
706.95	53830.86
707.14	53339.35
707.32	53269.72
707.51	52888.79
707.70	53994.70
707.89	53482.70
708.08	53460.18
708.27	53572.81
708.46	53449.94
708.65	52954.33
708.84	53589.20
709.02	53603.53
709.21	53290.19
709.40	53316.82
709.59	53269.72
709.78	53128.41
709.97	53146.84
710.16	53005.53
710.34	53044.44
710.53	53202.13
710.72	52870.36
710.91	53015.77
711.10	52776.15
711.29	52415.71
711.48	52688.09
711.66	52755.68
711.85	52571.36
712.04	52937.94
712.23	52597.98
712.42	52722.91
712.61	52491.49
712.80	52647.13
712.98	52901.08
713.17	52341.99
713.36	52341.99
713.55	52692.19
713.74	52491.49
713.93	52178.15
714.11	52178.15
714.30	51817.71
714.49	52284.64
714.68	52802.78
714.87	52231.40
715.06	52200.68
715.24	51879.14
715.43	51987.69
715.62	51985.64
715.81	51406.06
716.00	52239.59
716.18	51770.60
716.37	51514.61
716.56	51639.53
716.75	52356.32
716.94	51592.43
717.12	51377.39
717.31	51854.57
717.50	51922.15
717.69	51492.08
717.88	51815.66
718.06	51799.27
718.25	51875.05
718.44	51168.50
718.63	51217.65
718.82	51055.86
719.00	51174.64
719.19	51172.60
719.38	51348.72
719.57	51080.44
719.76	50437.37
719.94	50775.29
720.13	50771.19
720.32	51002.61
720.51	50728.19
720.69	50519.29
720.88	50683.13
721.07	51008.76
721.26	50498.81
721.44	50613.50
721.63	50779.39
721.82	50371.84
722.01	50373.89
722.20	50527.48
722.38	50072.84
722.57	49542.41
722.76	50291.97
722.95	49988.87
723.13	49536.27
723.32	49956.10
723.51	49788.17
723.70	49472.78
723.88	49788.17
724.07	49435.92
724.26	49622.28
724.44	49210.64
724.63	49761.54
724.82	49528.08
725.01	49397.01
725.19	49442.06
725.38	49730.83
725.57	49407.25
725.76	49669.39
725.94	49505.55
726.13	49364.24
726.32	49050.90
726.51	49286.42
726.69	49468.69
726.88	49110.29
727.07	49073.43
727.25	48999.70
727.44	49304.85
727.63	49313.04
727.82	49214.74
728.00	49302.80
728.19	48952.60
728.38	48827.67
728.56	48405.79
728.75	49349.90
728.94	48760.09
729.12	49173.78
729.31	49050.90
729.50	49130.77
729.69	49270.03
729.87	48682.27
730.06	48715.03
730.25	48897.30
730.43	48897.30
730.62	48307.49
730.81	49161.49
730.99	49138.96
731.18	48706.84
731.37	49194.26
731.55	49022.23
731.74	48813.34
731.93	48938.26
732.11	49093.91
732.30	49057.04
732.49	48669.98
732.67	48850.20
732.86	48682.27
733.05	48493.85
733.23	48137.51
733.42	48588.06
733.61	48315.68
733.79	48635.16
733.98	48706.84
734.17	49175.83
734.35	48354.59
734.54	48835.86
734.73	48977.17
734.91	48790.81
735.10	48596.25
735.29	48991.51
735.47	47936.80
735.66	48469.28
735.84	48823.58
736.03	48313.63
736.22	48780.57
736.40	48465.18
736.59	48626.97
736.78	48928.02
736.96	47873.32
737.15	48135.46
737.33	48500.00
737.52	48061.73
737.71	47764.78
737.89	48045.35
738.08	47875.37
738.27	47942.95
738.45	48280.86
738.64	48350.49
738.82	48020.77
739.01	48252.19
739.20	48039.20
739.38	48250.14
739.57	48287.01
739.75	47871.27
739.94	48157.99
740.13	48121.12
740.31	47490.35
740.50	47830.31
740.68	47652.14
740.87	47961.38
741.06	48045.35
741.24	47736.10
741.43	47342.89
741.61	47920.42
741.80	47183.15
741.99	47600.94
742.17	47303.98
742.36	47424.81
742.54	47344.94
742.73	47553.83
742.91	47531.31
743.10	47525.16
743.29	47226.16
743.47	47775.02
743.66	47641.90
743.84	47316.27
744.03	47322.41
744.21	46878.00
744.40	47635.75
744.59	47502.64
744.77	46994.74
744.96	46828.85
745.14	47594.79
745.33	47443.24
745.51	47146.29
745.70	47269.17
745.88	46644.54
746.07	47281.45
746.26	46998.83
746.44	47043.89
746.63	46888.24
746.81	46763.32
747.00	46814.52
747.18	46972.21
747.37	46816.57
747.55	46675.26
747.74	47041.84
747.92	46396.73
748.11	46503.23
748.29	46476.60
748.48	46814.52
748.66	46482.75
748.85	46413.12
749.03	46634.30
749.22	46628.15
749.41	46359.87
749.59	46044.48
749.78	46273.85
749.96	45927.75
750.15	46134.59
750.33	46495.03
750.52	46323.01
750.70	45643.08
750.89	45815.11
751.07	45815.11
751.26	46253.37
751.44	45817.16
751.63	45946.18
751.81	45446.47
752.00	45479.24
752.18	45628.74
752.37	45475.15
752.55	45718.85
752.74	45542.73
752.92	45497.67
753.10	45200.72
753.29	45516.11
753.47	45600.07
753.66	45067.60
753.84	45469.00
754.03	45366.60
754.21	44973.39
754.40	45354.32
754.58	45339.98
754.77	45161.81
754.95	44922.19
755.14	45333.84
755.32	45114.70
755.51	44932.43
755.69	44668.25
755.88	45110.61
756.06	44866.90
756.24	44954.96
756.43	44705.11
756.61	44836.18
756.80	44733.78
756.98	44328.28
757.17	44680.53
757.35	44762.45
757.54	44809.56
757.72	44983.63
757.90	44416.35
758.09	44819.80
758.27	44756.31
758.46	44602.71
758.64	44332.38
758.83	44447.07
759.01	44436.83
759.19	44490.07
759.38	44297.56
759.56	44873.04
759.75	44307.80
759.93	44547.42
760.12	44363.10
760.30	44449.11
760.48	44127.58
760.67	43875.68
760.85	44365.15
761.04	43873.63
761.22	44242.27
761.40	44250.46
761.59	43738.47
761.77	43715.94
761.96	44031.33
762.14	44191.07
762.32	43791.72
762.51	43408.75
762.69	43668.84
762.88	43570.54
763.06	43513.19
763.24	43691.37
763.43	43916.64
763.61	43674.98
763.80	43758.95
763.98	42974.58
764.16	43572.58
764.35	43156.85
764.53	43064.69
764.72	43189.61
764.90	43400.55
765.08	43275.63
765.27	43461.99
765.45	43017.58
765.63	42780.02
765.82	43189.61
766.00	42974.58
766.18	42984.82
766.37	42857.84
766.55	42630.52
766.74	43062.64
766.92	42761.59
767.10	42485.11
767.29	42749.30
767.47	42579.32
767.65	42771.83
767.84	42370.43
768.02	42753.40
768.20	42048.89
768.39	42524.02
768.57	42308.99
768.75	42161.53
768.94	42067.33
769.12	42417.53
769.30	42052.99
769.49	42358.14
769.67	41772.42
769.85	41524.61
770.04	42038.65
770.22	41641.35
770.40	41487.75
770.59	41641.35
770.77	41864.58
770.95	42120.57
771.14	41586.05
771.32	41282.95
771.50	40922.51
771.69	41297.29
771.87	41309.58
772.05	41311.63
772.24	41049.49
772.42	41229.71
772.60	41321.87
772.78	41334.15
772.97	40826.26
773.15	41211.28
773.33	41239.95
773.52	40770.96
773.70	41278.86
773.88	41061.77
774.07	40807.83
774.25	41186.70
774.43	41549.19
774.61	40990.09
774.80	41088.40
774.98	40863.12
775.16	41387.40
775.34	41702.79
775.53	40938.90
775.71	41362.82
775.89	41131.40
776.08	41166.22
776.26	41153.93
776.44	41457.03
776.62	41205.13
776.81	40820.11
776.99	41018.77
777.17	41033.10
777.35	41399.69
777.54	41842.05
777.72	41266.57
777.90	41090.44
778.08	41473.42
778.27	41196.94
778.45	41510.28
778.63	41282.95
778.81	41076.11
779.00	41471.37
779.18	41131.40
779.36	41575.81
779.54	41500.04
779.73	41641.35
779.91	41725.32
780.09	41248.14
780.27	41719.17
780.46	41770.37
780.64	42048.89
780.82	41522.57
781.00	41708.93
781.19	42130.81
781.37	41766.27
781.55	41837.95
781.73	42505.59
781.91	41514.37
782.10	41874.82
782.28	42143.10
782.46	41848.19
782.64	42216.83
782.82	41934.21
783.01	41813.38
783.19	41958.78
783.37	42073.47
783.55	41926.02
783.74	42202.49
783.92	41940.35
784.10	42370.43
784.28	41883.01
784.46	41753.99
784.64	41627.01
784.83	42190.20
785.01	42020.22
785.19	42153.34
785.37	42206.59
785.55	41969.02
785.74	42032.51
785.92	41649.54
786.10	41848.19
786.28	41952.64
786.46	41694.60
786.64	41704.84
786.83	42272.12
787.01	41885.06
787.19	41457.03
787.37	41678.21
787.55	41506.18
787.74	41719.17
787.92	41876.86
788.10	41340.30
788.28	41325.96
788.46	41506.18
788.64	40940.94
788.82	41805.19
789.01	41387.40
789.19	41254.28
789.37	41069.97
789.55	41401.74
789.73	40863.12
789.91	41102.73
790.09	41012.62
790.28	40975.76
790.46	40570.26
790.64	40787.35
790.82	40842.64
791.00	40670.61
791.18	40441.24
791.36	40865.17
791.55	40572.31
791.73	40240.54
791.91	40289.69
792.09	40467.86
792.27	40039.84
792.45	39927.20
792.63	39894.43
792.81	39579.04
793.00	39679.39
793.18	39753.12
793.36	39740.83
793.54	39712.16
793.72	39675.30
793.90	39552.42
794.08	39269.80
794.26	39331.24
794.44	39167.40
794.62	38747.57
794.81	39312.81
794.99	38819.25
795.17	38702.51
795.35	39126.44
795.53	39048.62
795.71	39163.31
795.89	38639.03
796.07	38618.55
796.25	38520.24
796.43	38430.13
796.61	38401.46
796.80	38227.38
796.98	38804.91
797.16	38000.06
797.34	38086.07
797.52	37920.19
797.70	38010.30
797.88	37836.22
798.06	37627.33
798.24	37807.55
798.42	37576.13
798.60	37582.27
798.78	37270.98
798.96	37770.69
799.14	37135.82
799.32	37238.22
799.51	36951.50
799.69	37250.50
799.87	36898.25
800.05	36873.68
800.23	37207.50
800.41	36834.77
800.59	36853.20
800.77	36478.42
800.95	36271.57
801.13	36992.46
801.31	36290.01
801.49	36117.98
801.67	36216.28
801.85	36222.42
802.03	35974.62
802.21	35796.45
802.39	35728.86
802.57	35608.03
802.75	35661.28
802.93	35436.00
803.11	35661.28
803.29	35677.66
803.47	35046.89
803.65	35485.15
803.83	35200.49
804.01	35468.77
804.19	34704.88
804.37	34958.83
804.55	35137.00
804.73	35020.27
804.91	35077.61
805.09	34625.01
805.27	34936.30
805.45	34670.06
805.63	34733.55
805.81	34620.91
805.99	34891.24
806.17	34913.77
806.35	34770.41
806.53	34256.37
806.71	34283.00
806.89	33871.36
807.07	34192.89
807.25	34084.34
807.43	33828.35
807.61	34289.14
807.79	33789.44
807.97	33981.95
808.15	33793.53
808.33	33400.32
808.51	33594.88
808.69	33353.22
808.87	33390.08
809.05	33285.64
809.23	33218.05
809.41	33388.03
809.59	32800.27
809.77	33140.23
809.95	32908.81
810.13	33056.26
810.31	33093.13
810.49	33181.19
810.67	32626.19
810.84	32681.49
811.02	32830.99
811.20	32394.77
811.38	32265.75
811.56	32425.49
811.74	32577.04
811.92	32036.38
812.10	32368.15
812.28	32679.44
812.46	32177.68
812.64	32124.44
812.82	31827.48
813.00	31983.13
813.18	32185.88
813.36	32038.42
813.53	31727.13
813.71	31725.08
813.89	31718.94
814.07	31911.45
814.25	31913.50
814.43	31346.21
814.61	31317.54
814.79	31548.96
814.97	31538.72
815.15	31352.35
815.33	31424.03
815.50	31049.25
815.68	31462.94
815.86	31462.94
816.04	30897.70
816.22	31266.34
816.40	30754.35
816.58	31067.69
816.76	30608.94
816.94	31032.87
817.11	30627.37
817.29	30707.24
817.47	30686.76
817.65	30393.90
817.83	30805.55
818.01	30535.21
818.19	30361.14
818.37	30426.67
818.54	30299.70
818.72	29892.15
818.90	30187.06
819.08	29845.05
819.26	30135.86
819.44	30027.32
819.62	29922.87
819.80	30027.32
819.97	30035.51
820.15	29853.24
820.33	29765.18
820.51	29845.05
820.69	29406.78
820.87	29492.80
821.05	29662.78
821.22	29558.33
821.40	29480.51
821.58	29486.65
821.76	29365.82
821.94	29625.92
822.12	29357.63
822.29	29601.34
822.47	29173.31
822.65	29455.93
822.83	29290.05
823.01	29165.12
823.19	29195.84
823.36	28710.47
823.54	28931.65
823.72	28681.80
823.90	28677.71
824.08	28618.32
824.25	29029.96
824.43	28407.37
824.61	28829.26
824.79	28804.68
824.97	28663.37
825.15	28835.40
825.32	28298.83
825.50	28401.23
825.68	28126.80
825.86	28696.14
826.04	28440.14
826.21	28178.00
826.39	28036.69
826.57	28171.86
826.75	28094.04
826.93	28030.55
827.10	28139.09
827.28	28401.23
827.46	28247.63
827.64	27772.50
827.81	27967.06
827.99	28096.08
828.17	27711.07
828.35	27620.95
828.53	27600.47
828.70	27442.78
828.88	27639.39
829.06	27940.44
829.24	27833.94
829.41	27612.76
829.59	27719.26
829.77	27309.66
829.95	27446.88
830.12	27360.86
830.30	27389.53
830.48	27276.90
830.66	27258.46
830.84	27649.63
831.01	27453.02
831.19	27287.14
831.37	27098.72
831.55	27147.87
831.72	27211.36
831.90	27051.62
832.08	26832.49
832.25	27250.27
832.43	27192.93
832.61	26803.82
832.79	26721.90
832.96	26764.90
833.14	26906.21
833.32	27070.05
833.50	26898.02
833.67	26967.65
833.85	26809.96
834.03	26406.51
834.20	26537.58
834.38	26541.68
834.56	26482.28
834.74	26588.78
834.91	26220.14
835.09	26396.27
835.27	26138.23
835.44	26257.01
835.62	26134.13
835.80	26216.05
835.98	26267.25
836.15	26162.80
836.33	25871.99
836.51	26308.21
836.68	26074.74
836.86	26013.30
837.04	26510.96
837.21	26144.37
837.39	26007.16
837.57	26308.21
837.75	25919.09
837.92	25755.26
838.10	25697.91
838.28	25622.14
838.45	25742.97
838.63	25570.94
838.81	25759.35
838.98	25951.86
839.16	25341.57
839.34	25284.22
839.51	25597.56
839.69	25271.93
839.87	25327.23
840.04	25095.81
840.22	25579.13
840.40	25403.00
840.57	24919.68
840.75	25376.38
840.93	25044.61
841.10	25245.31
841.28	25484.92
841.46	24653.45
841.63	25171.58
841.81	25374.33
841.98	25118.34
842.16	24868.48
842.34	25097.86
842.51	24839.81
842.69	25015.94
842.87	24880.77
843.04	24852.10
843.22	24749.70
843.40	24612.49
843.57	24643.21
843.75	24678.02
843.92	24716.93
844.10	24397.45
844.28	24612.49
844.45	24686.22
844.63	24723.08
844.81	24436.36
844.98	24460.94
845.16	24579.72
845.33	24407.69
845.51	24358.54
845.69	24759.94
845.86	24276.62
846.04	24264.33
846.21	24088.21
846.39	24100.50
846.57	24120.98
846.74	23979.67
846.92	23944.85
847.09	24018.58
847.27	23967.38
847.45	24034.96
847.62	24024.72
847.80	24153.74
847.97	24108.69
848.15	23936.66
848.32	23754.39
848.50	23817.88
848.68	23842.45
848.85	23666.33
849.03	23477.91
849.20	23930.51
849.38	23619.22
849.56	23944.85
849.73	23559.83
849.91	23594.65
850.08	23940.75
850.26	23344.80
850.43	23639.70
850.61	23635.61
850.78	23195.29
850.96	23297.69
851.14	23318.17
851.31	23471.77
851.49	23230.11
851.66	23453.34
851.84	23223.97
852.01	23328.41
852.19	23131.81
852.36	23445.15
852.54	23117.47
852.71	22939.30
852.89	23135.90
853.07	23033.50
853.24	23072.42
853.42	22859.43
853.59	22937.25
853.77	22965.92
853.94	23045.79
854.12	23273.12
854.29	22873.76
854.47	22654.63
854.64	22707.88
854.82	22838.95
854.99	22873.76
855.17	22863.52
855.34	22677.16
855.52	22603.43
855.69	22628.01
855.87	22927.01
856.04	22357.67
856.22	22693.54
856.39	22396.59
856.57	22275.76
856.74	22220.46
856.92	22425.26
857.09	22228.65
857.27	22288.04
857.44	22171.31
857.62	22189.74
857.79	22273.71
857.97	22249.13
858.14	22046.38
858.32	22347.44
858.49	21970.61
858.67	21821.11
858.84	21876.40
859.02	21827.25
859.19	21913.27
859.37	21806.77
859.54	21745.33
859.72	21956.27
859.89	21757.62
860.06	22128.30
860.24	21778.10
860.41	22056.62
860.59	21638.84
860.76	21831.35
860.94	21487.29
861.11	21837.49
861.29	21636.79
861.46	21571.25
861.64	21227.20
861.81	21266.11
861.98	21526.20
862.16	21182.14
862.33	21083.84
862.51	21323.45
862.68	21456.57
862.86	21401.27
863.03	21194.43
863.21	21126.85
863.38	21292.73
863.55	21145.28
863.73	21065.41
863.90	21245.63
864.08	21089.98
864.25	20922.05
864.43	21259.96
864.60	21042.88
864.77	21259.96
864.95	21333.69
865.12	20633.29
865.30	20938.43
865.47	20991.68
865.64	20903.62
865.82	21073.60
865.99	20979.39
866.17	20702.92
866.34	20700.87
866.51	20551.37
866.69	20651.72
866.86	20684.48
867.04	20739.78
867.21	20664.00
867.38	20416.20
867.56	20352.71
867.73	20252.36
867.91	20264.65
868.08	20541.13
868.25	20231.88
868.43	20102.86
868.60	20100.81
868.78	20025.04
868.95	20201.16
869.12	20180.68
869.30	19877.58
869.47	20004.56
869.64	19984.08
869.82	19900.11
869.99	19961.55
870.16	20225.74
870.34	20084.43
870.51	19908.30
870.69	19877.58
870.86	19840.72
871.03	19656.40
871.21	19664.60
871.38	19850.96
871.55	19662.55
871.73	19693.27
871.90	19666.64
872.07	19640.02
872.25	19222.23
872.42	19594.96
872.59	19316.44
872.77	19392.22
872.94	19265.24
873.11	19357.40
873.29	19384.02
873.46	19390.17
873.63	19400.41
873.81	19422.94
873.98	19246.81
874.15	19125.98
874.33	18859.74
874.50	18890.46
874.67	19177.18
874.85	19214.04
875.02	19046.11
875.19	18908.90
875.37	18943.71
875.54	18847.46
875.71	18720.48
875.88	18540.26
876.06	18632.42
876.23	18661.09
876.40	18392.81
876.58	18650.85
876.75	18704.10
876.92	18466.53
877.10	18607.84
877.27	18255.59
877.44	18519.78
877.61	18300.65
877.79	18382.57
877.96	18290.41
878.13	18222.83
878.31	18161.39
878.48	18165.48
878.65	18116.33
878.82	17768.18
879.00	17936.11
879.17	18112.24
879.34	18099.95
879.51	18110.19
879.69	17788.66
879.86	17866.48
880.03	17794.80
880.21	17663.73
880.38	17954.54
880.55	17768.18
880.72	17659.63
880.90	17919.73
881.07	17528.56
881.24	17501.94
881.41	17526.52
881.59	17643.25
881.76	17538.80
881.93	17336.06
882.10	17532.66
882.28	17321.72
882.45	17446.65
882.62	17254.14
882.79	17600.24
882.96	17002.24
883.14	17282.81
883.31	17051.39
883.48	17172.22
883.65	16936.70
883.83	17350.39
884.00	17424.12
884.17	17157.88
884.34	17190.65
884.51	17030.91
884.69	17170.17
884.86	17315.58
885.03	17301.24
885.20	16822.02
885.38	16774.91
885.55	16957.18
885.72	17016.57
885.89	16752.38
886.06	16523.01
886.24	16973.56
886.41	17020.67
886.58	17012.48
886.75	17327.86
886.92	16858.88
887.10	16830.21
887.27	16795.39
887.44	16729.86
887.61	17041.15
887.78	16836.35
887.95	16555.78
888.13	16703.23
888.30	16512.77
888.47	16525.06
888.64	16488.20
888.81	16752.38
888.99	16439.05
889.16	16363.27
889.33	16498.44
889.50	16535.30
889.67	16457.48
889.84	16254.73
890.01	16467.72
890.19	16692.99
890.36	16137.99
890.53	16510.72
890.70	16178.95
890.87	16121.61
891.04	16051.98
891.22	16119.56
891.39	16082.70
891.56	15992.59
891.73	15994.64
891.90	15861.52
892.07	15781.65
892.24	15806.22
892.42	15851.28
892.59	15728.40
892.76	15922.96
892.93	15709.97
893.10	16160.52
893.27	15693.58
893.44	15789.84
893.61	15660.82
893.79	15787.79
893.96	15699.73
894.13	15677.20
894.30	15818.51
894.47	15546.13
894.64	15843.09
894.81	15746.83
894.98	15808.27
895.15	15920.91
895.33	15630.10
895.50	15890.19
895.67	15855.37
895.84	15511.32
896.01	15546.13
896.18	15480.60
896.35	15783.70
896.52	15539.99
896.69	15685.39
896.86	15664.91
897.04	15798.03
897.21	15621.91
897.38	15490.84
897.55	15619.86
897.72	15832.85
897.89	15574.80
898.06	15515.41
898.23	15539.99
898.40	15570.71
898.57	15415.06
898.74	15617.81
898.91	15433.49
899.08	15427.35
899.26	15423.25
899.43	15515.41
899.60	15595.28
899.77	15488.79
899.94	15413.01
900.11	15294.23
900.28	15517.46
900.45	15355.67
900.62	15279.89
900.79	15572.75
900.96	15361.81
901.13	15370.01
901.30	15374.10
901.47	15300.37
901.64	15476.50
901.81	15552.27
901.98	15470.36
902.15	15294.23
902.32	15425.30
902.49	15388.44
902.66	15533.84
902.83	15437.59
903.01	15318.81
903.18	15558.42
903.35	15359.77
903.52	15351.57
903.69	15460.12
903.86	15425.30
904.03	15402.77
904.20	15531.80
904.37	15673.10
904.54	15372.05
904.71	15460.12
904.88	15499.03
905.05	15234.84
905.22	15415.06
905.39	15214.36
905.56	15386.39
905.73	15066.91
905.90	15447.83
906.07	15437.59
906.24	15298.33
906.41	15359.77
906.58	15447.83
906.75	15415.06
906.92	15286.04
907.09	15161.11
907.26	15234.84
907.43	15253.27
907.60	15234.84
907.77	15275.80
907.93	15249.18
908.10	15187.74
908.27	15300.37
908.44	15185.69
908.61	15150.87
908.78	15228.70
908.95	15068.95
909.12	15283.99
909.29	15103.77
909.46	14925.60
909.63	15107.87
909.80	15320.85
909.97	15263.51
910.14	15007.52
910.31	15257.37
910.48	15218.46
910.65	15128.35
910.82	15013.66
910.99	15077.15
911.16	14950.17
911.33	15038.23
911.50	14886.68
911.66	14913.31
911.83	15138.58
912.00	15093.53
912.17	14862.11
912.34	14790.43
912.51	14901.02
912.68	14731.04
912.85	14624.54
913.02	14829.34
913.19	14733.09
913.36	14898.97
913.53	14868.25
913.70	14714.66
913.86	14819.10
914.03	14694.18
914.20	14696.22
914.37	14690.08
914.54	14397.22
914.71	14477.09
914.88	14546.72
915.05	14419.75
915.22	14522.15
915.39	14432.04
915.55	14444.32
915.72	14520.10
915.89	14407.46
916.06	14118.70
916.23	14128.94
916.40	14165.80
916.57	14030.63
916.74	13993.77
916.91	14153.51
917.07	13981.48
917.24	13928.24
917.41	14102.31
917.58	14022.44
917.75	13836.08
917.92	14026.54
918.09	13795.12
918.26	13705.01
918.42	13834.03
918.59	13756.21
918.76	13713.20
918.93	13653.81
919.10	13197.11
919.27	13389.62
919.44	13754.16
919.60	13670.19
919.77	13496.11
919.94	13295.41
920.11	13453.11
920.28	13436.72
920.45	13258.55
920.61	13223.73
920.78	13236.02
920.95	13319.99
921.12	13029.18
921.29	13057.85
921.46	13000.51
921.62	13057.85
921.79	12994.36
921.96	13092.66
922.13	12803.90
922.30	12726.08
922.47	12754.75
922.63	12717.89
922.80	12771.13
922.97	12556.10
923.14	12422.98
923.31	12674.88
923.47	12558.14
923.64	12535.62
923.81	12611.39
923.98	12402.50
924.15	12494.66
924.32	12326.72
924.48	12308.29
924.65	12287.81
924.82	12109.64
924.99	11929.42
925.15	11798.35
925.32	12175.17
925.49	11917.13
925.66	11876.17
925.83	11798.35
925.99	11915.08
926.16	11853.64
926.33	11571.02
926.50	11534.16
926.67	11599.70
926.83	11640.65
927.00	11566.93
927.17	11513.68
927.34	11302.74
927.50	11347.79
927.67	11501.39
927.84	11276.12
928.01	11358.03
928.17	11327.32
928.34	11169.62
928.51	11171.67
928.68	11116.37
928.84	10862.43
929.01	10917.72
929.18	10819.42
929.35	10938.20
929.51	10864.47
929.68	10510.18
929.85	10477.41
930.02	10805.08
930.18	10655.58
930.35	10737.50
930.52	10692.44
930.69	10618.72
930.85	10620.77
931.02	10481.50
931.19	10444.64
931.36	10397.54
931.52	10137.45
931.69	10164.07
931.86	10243.94
932.02	10200.93
932.19	10141.54
932.36	10131.30
932.53	10153.83
932.69	10018.66
932.86	10030.95
933.03	9826.15
933.19	9924.46
933.36	9774.95
933.53	9852.78
933.70	9664.36
933.86	9451.38
934.03	9695.08
934.20	9312.11
934.36	9498.48
934.53	9193.33
934.70	9176.95
934.86	9277.30
935.03	9064.31
935.20	8925.05
935.36	9150.32
935.53	8767.35
935.70	8879.99
935.86	8910.71
936.03	8730.49
936.20	8497.02
936.36	8603.52
936.53	8501.12
936.70	8454.02
936.86	8413.06
937.03	8333.18
937.20	8042.37
937.36	8208.26
937.53	7790.47
937.70	7888.78
937.86	7769.99
938.03	7817.10
938.20	7942.02
938.36	7649.16
938.53	7548.81
938.70	7186.32
938.86	7370.64
939.03	7063.44
939.20	7024.53
939.36	7036.82
939.53	6922.13
939.70	7071.64
939.86	6655.90
940.03	6729.63
940.19	6635.42
940.36	6733.72
940.53	6494.11
940.69	6219.68
940.86	6369.18
941.03	6252.45
941.19	5883.81
941.36	6014.88
941.52	5775.27
941.69	5816.23
941.86	5762.98
942.02	6012.84
942.19	5672.87
942.35	5611.43
942.52	5476.27
942.69	5615.53
942.85	5183.41
943.02	5472.17
943.18	5078.96
943.35	5269.42
943.52	5025.72
943.68	5224.37
943.85	5023.67
944.01	5195.70
944.18	4714.42
944.35	4919.22
944.51	4917.17
944.68	4890.55
944.84	4581.31
945.01	5038.00
945.17	4949.94
945.34	4990.90
945.51	4749.24
945.67	4767.67
945.84	4724.66
946.00	4536.25
946.17	4851.64
946.33	4435.90
946.50	4829.11
946.67	4513.72
946.83	4614.07
947.00	4761.53
947.16	4675.51
947.33	4372.41
947.49	4722.62
947.66	4485.05
947.82	4677.56
947.99	4415.42
948.16	4980.66
948.32	4558.78
948.49	4632.51
948.65	4851.64
948.82	4581.31
948.98	4382.65
949.15	4278.21
949.31	4483.00
949.48	4530.11
949.64	4612.03
949.81	4405.18
949.97	4313.02
950.14	4595.64
950.30	4319.17
950.47	4882.36
950.63	4286.40
950.80	4440.00
950.96	4644.79
951.13	4663.22
951.30	4689.85
951.46	4335.55
951.63	4818.87
951.79	4712.38
951.96	4941.75
952.12	4569.02
952.29	4743.10
952.45	4368.32
952.62	4861.88
952.78	4534.20
952.94	4644.79
953.11	4730.81
953.27	4538.30
953.44	4841.40
953.60	4855.73
953.77	4685.75
953.93	4798.39
954.10	4415.42
954.26	4517.82
954.43	4579.26
954.59	4913.08
954.76	4896.69
954.92	4755.38
955.09	4722.62
955.25	4685.75
955.42	4665.27
955.58	5015.48
955.75	4835.25
955.91	4681.66
956.07	4874.17
956.24	4829.11
956.40	4673.46
956.57	4751.29
956.73	4628.41
956.90	5040.05
957.06	4663.22
957.23	4548.54
957.39	4607.93
957.56	4935.60
957.72	4536.25
957.88	4523.96
958.05	4687.80
958.21	4818.87
958.38	4874.17
958.54	4868.02
958.71	4943.80
958.87	4839.35
959.03	4687.80
959.20	4769.72
959.36	4485.05
959.53	4917.17
959.69	4564.92
959.85	4894.65
960.02	4685.75
960.18	4812.73
960.35	4810.68
960.51	4777.91
960.68	4714.42
960.84	4745.14
961.00	4493.24
961.17	4636.60
961.33	4593.59
961.50	4876.21
961.66	4845.49
961.82	4620.22
961.99	4554.68
962.15	4560.83
962.31	4630.46
962.48	4626.36
962.64	4691.90
962.81	4720.57
962.97	4552.63
963.13	4906.93
963.30	4612.03
963.46	4538.30
963.62	4478.91
963.79	4581.31
963.95	4607.93
964.12	4599.74
964.28	4739.00
964.44	4456.38
964.61	4677.56
964.77	4698.04
964.93	4685.75
965.10	4532.15
965.26	4614.07
965.42	4523.96
965.59	4472.76
965.75	4411.32
965.92	4665.27
966.08	4478.91
966.24	4452.28
966.41	4509.63
966.57	4583.35
966.73	4456.38
966.90	4638.65
967.06	4644.79
967.22	4378.56
967.39	4507.58
967.55	4464.57
967.71	4278.21
967.88	4181.95
968.04	4470.72
968.20	4290.49
968.37	4444.09
968.53	4153.28
968.69	4392.89
968.85	4396.99
969.02	4415.42
969.18	4458.43
969.34	4147.14
969.51	4437.95
969.67	4419.52
969.83	4075.46
970.00	4661.18
970.16	4394.94
970.32	4419.52
970.48	4583.35
970.65	4202.43
970.81	4153.28
970.97	4435.90
971.14	3950.53
971.30	4583.35
971.46	4054.98
971.63	4413.37
971.79	4167.62
971.95	4323.26
972.11	4083.65
972.28	4163.52
972.44	4204.48
972.60	4011.97
972.76	3844.04
972.93	3940.29
973.09	4081.60
973.25	4011.97
973.42	4042.69
973.58	4337.60
973.74	4159.42
973.90	4128.70
974.07	3778.50
974.23	4038.59
974.39	4054.98
974.55	3921.86
974.72	4026.31
974.88	3954.63
975.04	3874.76
975.20	3997.64
975.37	3913.67
975.53	3866.56
975.69	4009.92
975.85	3876.80
976.01	3831.75
976.18	3770.31
976.34	3925.96
976.50	3731.40
976.66	4016.07
976.83	3915.72
976.99	3801.03
977.15	3858.37
977.31	3352.52
977.47	3928.00
977.64	3694.54
977.80	3862.47
977.96	3680.20
978.12	3870.66
978.29	3600.33
978.45	3680.20
978.61	3616.71
978.77	3577.80
978.93	3706.82
979.10	3639.24
979.26	3622.86
979.42	3731.40
979.58	3403.72
979.74	3377.10
979.91	3465.16
980.07	3510.22
980.23	3168.21
980.39	3583.95
980.55	3307.47
980.71	3471.31
980.88	3436.49
981.04	3377.10
981.20	3221.45
981.36	3301.33
981.52	3452.88
981.68	3237.84
981.85	3739.59
982.01	3211.22
982.17	3276.75
982.33	3254.22
982.49	3518.41
982.65	3330.00
982.82	3065.81
982.98	3241.93
983.14	3151.82
983.30	3067.86
983.46	3194.83
983.62	3354.57
983.79	3284.94
983.95	3229.65
984.11	2992.08
984.27	3182.54
984.43	3114.96
984.59	3262.41
984.75	3229.65
984.91	3022.80
985.08	3291.09
985.24	3108.82
985.40	2850.77
985.56	3092.43
985.72	3157.97
985.88	3125.20
986.04	3125.20
986.20	3012.56
986.37	3196.88
986.53	3162.06
986.69	3057.62
986.85	3248.08
987.01	2824.15
987.17	3069.91
987.33	2801.62
987.49	2820.05
987.65	2904.02
987.82	2871.25
987.98	2885.59
988.14	2865.11
988.30	2912.21
988.46	2764.76
988.62	2957.27
988.78	2746.33
988.94	2668.50
989.10	2770.90
989.26	2797.53
989.42	2719.70
989.59	2766.81
989.75	2838.48
989.91	2713.56
990.07	2590.68
990.23	2867.16
990.39	2629.59
990.55	2777.05
990.71	2596.82
990.87	2820.05
991.03	2803.67
991.19	2584.54
991.35	2619.35
991.51	2695.13
991.67	2983.89
991.83	2631.64
992.00	2572.25
992.16	2643.93
992.32	2641.88
992.48	2666.46
992.64	2551.77
992.80	2531.29
992.96	2600.92
993.12	2633.69
993.28	2682.84
993.44	2375.64
993.60	2465.75
993.76	2549.72
993.92	2637.78
994.08	2631.64
994.24	2318.30
994.40	2537.43
994.56	2580.44
994.72	2379.74
994.88	2349.02
995.04	2478.04
995.20	2537.43
995.36	2508.76
995.52	2602.97
995.68	2502.62
995.84	2306.01
996.00	2533.34
996.16	2346.97
996.32	2392.03
996.48	2316.25
996.64	2449.37
996.80	2500.57
996.96	2439.13
997.12	2404.32
997.28	2291.68
997.44	2240.48
997.60	2404.32
997.76	2314.20
997.92	2306.01
998.08	2379.74
998.24	2256.86
998.40	2119.65
998.56	2369.50
998.72	2236.38
998.88	2289.63
999.04	2209.76
999.20	2252.77
999.36	2125.79
999.52	2293.72
999.68	2338.78
999.84	2195.42
1000.00	2357.21
1000.16	2459.61
1000.32	2080.74
1000.48	2217.95
1000.64	2129.89
1000.80	1935.33
1000.95	1998.82
1001.11	2303.96
1001.27	2246.62
1001.43	2211.81
1001.59	2070.50
1001.75	2025.44
1001.91	2203.61
1002.07	2109.41
1002.23	2050.02
1002.39	2004.96
1002.55	1945.57
1002.71	2017.25
1002.87	2193.37
1003.03	2179.04
1003.19	2076.64
1003.34	2297.82
1003.50	2037.73
1003.66	2164.70
1003.82	2002.91
1003.98	2035.68
1004.14	2316.25
1004.30	2004.96
1004.46	2027.49
1004.62	2209.76
1004.78	1927.14
1004.94	1976.29
1005.09	2095.07
1005.25	2037.73
1005.41	2121.70
1005.57	1976.29
1005.73	1920.99
1005.89	1984.48
1006.05	2000.87
1006.21	2002.91
1006.37	1925.09
1006.52	1900.52
1006.68	1949.67
1006.84	1986.53
1007.00	1951.71
1007.16	2000.87
1007.32	1888.23
1007.48	1896.42
1007.64	1996.77
1007.79	1918.95
1007.95	1810.40
1008.11	1992.67
1008.27	1892.32
1008.43	1812.45
1008.59	1910.75
1008.75	1861.60
1008.91	1830.88
1009.06	2054.11
1009.22	1955.81
1009.38	1908.71
1009.54	1966.05
1009.70	1808.36
1009.86	2002.91
1010.01	1849.32
1010.17	1857.51
1010.33	1953.76
1010.49	1849.32
1010.65	2133.98
1010.81	1791.97
1010.96	1953.76
1011.12	1777.64
1011.28	1818.60
1011.44	2101.22
1011.60	1902.56
1011.76	1814.50
1011.91	1845.22
1012.07	1773.54
1012.23	1802.21
1012.39	1794.02
1012.55	1880.04
1012.71	1923.04
1012.86	1787.88
1013.02	1798.12
1013.18	1720.29
1013.34	1834.98
1013.50	1859.56
1013.65	1818.60
1013.81	1828.84
1013.97	1898.47
1014.13	1812.45
1014.29	1824.74
1014.44	1898.47
1014.60	1863.65
1014.76	1765.35
1014.92	1710.05
1015.07	1773.54
1015.23	1820.64
1015.39	1773.54
1015.55	1738.73
1015.71	1841.12
1015.86	1650.66
1016.02	1759.21
1016.18	1722.34
1016.34	1791.97
1016.49	1753.06
1016.65	1837.03
1016.81	1853.41
1016.97	1724.39
1017.12	1828.84
1017.28	1697.77
1017.44	1650.66
1017.60	1755.11
1017.75	1802.21
1017.91	1847.27
1018.07	1771.49
1018.23	1757.16
1018.38	1757.16
1018.54	1746.92
1018.70	1843.17
1018.86	1730.53
1019.01	1681.38
1019.17	1789.92
1019.33	1931.23
1019.49	1744.87
1019.64	1720.29
1019.80	1794.02
1019.96	1783.78
1020.12	1716.20
1020.27	1671.14
1020.43	1767.40
1020.59	1800.16
1020.74	1828.84
1020.90	1791.97
1021.06	1701.86
1021.22	1738.73
1021.37	1703.91
1021.53	1718.25
1021.69	1777.64
1021.84	1646.57
1022.00	1701.86
1022.16	1828.84
1022.31	1673.19
1022.47	1794.02
1022.63	1769.44
1022.79	1667.05
1022.94	1687.53
1023.10	1871.84
1023.26	1742.82
1023.41	1691.62
1023.57	1679.33
1023.73	1746.92
1023.88	1714.15
1024.04	1675.24
1024.20	1654.76
1024.35	1798.12
1024.51	1802.21
1024.67	1716.20
1024.82	1779.68
1024.98	1685.48
1025.14	1796.07
1025.29	1716.20
1025.45	1744.87
1025.61	1683.43
1025.76	1662.95
1025.92	1640.42
1026.08	1734.63
1026.23	1771.49
1026.39	1773.54
1026.55	1705.96
1026.70	1712.10
1026.86	1738.73
1027.02	1667.05
1027.17	1660.90
1027.33	1736.68
1027.48	1628.14
1027.64	1654.76
1027.80	1679.33
1027.95	1730.53
1028.11	1642.47
1028.27	1689.57
1028.42	1738.73
1028.58	1693.67
1028.73	1597.42
1028.89	1683.43
1029.05	1796.07
1029.20	1654.76
>>>>>End Processed Spectral Data<<<<<
