SpectraSuite Data File
++++++++++++++++++++++++++++++++++++
Date: Fri Jun 02 14:53:32 CEST 2017
User: INFO_000
Dark Spectrum Present: No
Reference Spectrum Present: No
Number of Sampled Component Spectra: 1
Spectrometers: USB4H00879
Integration Time (usec): 80000 (USB4H00879)
Spectra Averaged: 1 (USB4H00879)
Boxcar Smoothing: 0 (USB4H00879)
Correct for Electrical Dark: No (USB4H00879)
Strobe/Lamp Enabled: No (USB4H00879)
Correct for Detector Non-linearity: No (USB4H00879)
Correct for Stray Light: No (USB4H00879)
Number of Pixels in Processed Spectrum: 3648
>>>>>Begin Processed Spectral Data<<<<<
345.13	1228.78
345.34	1228.78
345.56	1228.78
345.78	1288.17
345.99	1282.03
346.21	1748.97
346.42	1689.57
346.64	1658.85
346.86	1746.92
347.07	1644.52
347.29	1724.39
347.50	1607.66
347.72	1716.20
347.94	1802.21
348.15	1572.84
348.37	1636.33
348.59	1746.92
348.80	1738.73
349.02	1763.30
349.23	1904.61
349.45	1769.44
349.67	1912.80
349.88	1789.92
350.10	1994.72
350.31	1837.03
350.53	1767.40
350.75	1992.67
350.96	1771.49
351.18	1875.94
351.39	1914.85
351.61	1775.59
351.82	1951.71
352.04	1855.46
352.26	1873.89
352.47	1970.15
352.69	1931.23
352.90	1863.65
353.12	1832.93
353.34	1822.69
353.55	1996.77
353.77	1906.66
353.98	1804.26
354.20	1720.29
354.41	1918.95
354.63	1892.32
354.85	1970.15
355.06	1904.61
355.28	1767.40
355.49	1880.04
355.71	1867.75
355.92	1902.56
356.14	1955.81
356.35	1923.04
356.57	1908.71
356.79	1953.76
357.00	1941.47
357.22	1916.90
357.43	1839.08
357.65	2011.11
357.86	1912.80
358.08	1904.61
358.29	1951.71
358.51	1929.19
358.72	1953.76
358.94	1978.34
359.16	1955.81
359.37	1955.81
359.59	1984.48
359.80	2066.40
360.02	1988.58
360.23	1953.76
360.45	2011.11
360.66	1908.71
360.88	1970.15
361.09	1886.18
361.31	2002.91
361.52	1951.71
361.74	2047.97
361.95	2009.06
362.17	1918.95
362.38	2109.41
362.60	1992.67
362.81	2029.54
363.03	1914.85
363.24	1918.95
363.46	2043.87
363.67	2076.64
363.89	2031.58
364.10	1988.58
364.32	1959.91
364.53	2064.35
364.75	1908.71
364.96	2025.44
365.18	2090.98
365.39	2052.06
365.61	1982.43
365.82	2158.56
366.04	2070.50
366.25	1880.04
366.47	2086.88
366.68	2011.11
366.90	1955.81
367.11	2117.60
367.33	2068.45
367.54	2054.11
367.76	1933.28
367.97	2101.22
368.19	2039.78
368.40	2121.70
368.62	2004.96
368.83	2019.30
369.05	2007.01
369.26	2000.87
369.48	2041.82
369.69	2060.26
369.91	2056.16
370.12	2017.25
370.33	2123.74
370.55	1970.15
370.76	1988.58
370.98	2140.13
371.19	2041.82
371.41	2060.26
371.62	2039.78
371.84	2007.01
372.05	2240.48
372.27	2068.45
372.48	2121.70
372.69	2072.54
372.91	2244.57
373.12	2093.02
373.34	2095.07
373.55	2115.55
373.77	2197.47
373.98	2127.84
374.20	2072.54
374.41	2201.57
374.62	2086.88
374.84	2156.51
375.05	2207.71
375.27	2125.79
375.48	2236.38
375.70	2181.09
375.91	2291.68
376.12	2342.88
376.34	2131.94
376.55	2176.99
376.77	2211.81
376.98	2103.26
377.19	2158.56
377.41	2211.81
377.62	2275.29
377.84	2246.62
378.05	2230.24
378.27	2213.85
378.48	2238.43
378.69	2314.20
378.91	2320.35
379.12	2199.52
379.34	2265.05
379.55	2236.38
379.76	2287.58
379.98	2250.72
380.19	2224.09
380.41	2252.77
380.62	2367.45
380.83	2308.06
381.05	2197.47
381.26	2359.26
381.47	2195.42
381.69	2312.16
381.90	2396.12
382.12	2369.50
382.33	2293.72
382.54	2312.16
382.76	2338.78
382.97	2334.68
383.19	2265.05
383.40	2349.02
383.61	2363.36
383.83	2293.72
384.04	2392.03
384.25	2346.97
384.47	2355.16
384.68	2400.22
384.89	2256.86
385.11	2367.45
385.32	2349.02
385.54	2402.27
385.75	2330.59
385.96	2486.23
386.18	2492.38
386.39	2377.69
386.60	2420.70
386.82	2449.37
387.03	2410.46
387.24	2449.37
387.46	2510.81
387.67	2596.82
387.88	2514.91
388.10	2492.38
388.31	2418.65
388.52	2641.88
388.74	2478.04
388.95	2461.66
389.16	2496.47
389.38	2500.57
389.59	2648.02
389.80	2613.21
390.02	2594.78
390.23	2688.98
390.44	2506.71
390.66	2547.67
390.87	2508.76
391.08	2658.26
391.30	2711.51
391.51	2609.11
391.72	2678.74
391.94	2619.35
392.15	2631.64
392.36	2672.60
392.58	2666.46
392.79	2697.17
393.00	2803.67
393.22	2740.18
393.43	2715.61
393.64	2901.97
393.85	2752.47
394.07	2813.91
394.28	2709.46
394.49	2832.34
394.71	2781.14
394.92	2871.25
395.13	2738.13
395.35	2633.69
395.56	2781.14
395.77	2818.00
395.98	2764.76
396.20	2885.59
396.41	2846.68
396.62	2969.55
396.84	2824.15
397.05	2822.10
397.26	2889.68
397.47	3020.75
397.69	2885.59
397.90	3063.76
398.11	3004.37
398.32	2848.72
398.54	2852.82
398.75	2875.35
398.96	2908.12
399.18	3084.24
399.39	3145.68
399.60	3000.27
399.81	2987.99
400.03	2990.03
400.24	3289.04
400.45	3033.04
400.66	3055.57
400.88	3241.93
401.09	3250.13
401.30	3061.71
401.51	3092.43
401.73	3071.95
401.94	3133.39
402.15	3192.78
402.36	3155.92
402.58	3278.80
402.79	3147.73
403.00	3213.26
403.21	3192.78
403.43	3260.37
403.64	3266.51
403.85	3108.82
404.06	3215.31
404.27	3026.90
404.49	3258.32
404.70	3276.75
404.91	3385.29
405.12	3276.75
405.34	3276.75
405.55	3438.54
405.76	3121.10
405.97	3280.85
406.19	3416.01
406.40	3284.94
406.61	3387.34
406.82	3420.11
407.03	3379.15
407.25	3266.51
407.46	3411.92
407.67	3508.17
407.88	3491.79
408.09	3368.91
408.31	3387.34
408.52	3426.25
408.73	3373.00
408.94	3340.24
409.15	3448.78
409.37	3491.79
409.58	3538.89
409.79	3612.62
410.00	3575.75
410.21	3448.78
410.43	3444.68
410.64	3483.59
410.85	3553.23
411.06	3647.43
411.27	3592.14
411.48	3629.00
411.70	3588.04
411.91	3633.10
412.12	3657.67
412.33	3614.66
412.54	3475.40
412.76	3688.39
412.97	3768.26
413.18	3626.95
413.39	3721.16
413.60	3776.45
413.81	3700.68
414.03	3698.63
414.24	3649.48
414.45	3780.55
414.66	3551.18
414.87	3817.41
415.08	3751.88
415.30	3684.30
415.51	3880.90
415.72	3723.21
415.93	3860.42
416.14	3745.73
416.35	3813.32
416.56	3887.04
416.78	3889.09
416.99	3770.31
417.20	3889.09
417.41	3993.54
417.62	3917.76
417.83	4048.83
418.04	3966.92
418.26	3991.49
418.47	4059.07
418.68	4065.22
418.89	4016.07
419.10	4069.31
419.31	4026.31
419.52	4075.46
419.73	4165.57
419.95	4126.66
420.16	4046.79
420.37	4290.49
420.58	4014.02
420.79	4034.50
421.00	4208.58
421.21	4147.14
421.42	4087.75
421.63	4054.98
421.85	4177.86
422.06	4237.25
422.27	4151.23
422.48	4212.67
422.69	4302.78
422.90	4282.30
423.11	4349.89
423.32	4241.34
423.53	4411.32
423.75	4360.13
423.96	4493.24
424.17	4417.47
424.38	4601.79
424.59	4458.43
424.80	4632.51
425.01	4489.15
425.22	4515.77
425.43	4538.30
425.64	4530.11
425.85	4673.46
426.06	4540.35
426.28	4665.27
426.49	4448.19
426.70	4689.85
426.91	4562.87
427.12	4693.94
427.33	4759.48
427.54	4581.31
427.75	4675.51
427.96	4988.85
428.17	4829.11
428.38	4845.49
428.59	4886.45
428.80	4702.14
429.01	4861.88
429.23	4904.89
429.44	4964.28
429.65	4982.71
429.86	5101.49
430.07	4732.86
430.28	4970.42
430.49	5029.81
430.70	5083.06
430.91	5173.17
431.12	5058.48
431.33	5136.31
431.54	5195.70
431.75	5134.26
431.96	5181.36
432.17	5330.86
432.38	5087.15
432.59	5300.14
432.80	5246.90
433.01	5289.90
433.22	5377.97
433.43	5349.29
433.64	5287.86
433.85	5265.33
434.06	5443.50
434.27	5416.88
434.49	5400.49
434.70	5552.04
434.91	5369.77
435.12	5613.48
435.33	5588.91
435.54	5509.04
435.75	5384.11
435.96	5515.18
436.17	5511.08
436.38	5638.06
436.59	5810.09
436.80	5662.63
437.01	5834.66
437.22	5892.01
437.43	5599.15
437.64	5513.13
437.85	5765.03
438.06	5875.62
438.27	5771.18
438.48	5789.61
438.69	5930.92
438.90	5769.13
439.11	5805.99
439.32	5975.97
439.53	5894.05
439.74	5795.75
439.95	5918.63
440.16	5973.92
440.37	6131.62
440.57	5838.76
440.78	5973.92
440.99	5953.45
441.20	6154.15
441.41	5975.97
441.62	6154.15
441.83	5908.39
442.04	6164.39
442.25	6082.47
442.46	6031.27
442.67	6297.50
442.88	6530.97
443.09	6000.55
443.30	6061.99
443.51	6309.79
443.72	6397.85
443.93	6229.92
444.14	6653.85
444.35	6176.67
444.56	6326.18
444.77	6346.66
444.98	6500.25
445.19	6533.02
445.40	6467.49
445.61	6365.09
445.81	6537.12
446.02	6602.65
446.23	6623.13
446.44	6512.54
446.65	6569.88
446.86	6664.09
447.07	6872.98
447.28	6639.51
447.49	6678.43
447.70	6590.36
447.91	6555.55
448.12	6659.99
448.33	6883.22
448.54	6737.82
448.74	6713.24
448.95	6840.22
449.16	6664.09
449.37	6987.67
449.58	6934.42
449.79	7051.16
450.00	6819.74
450.21	7085.97
450.42	7176.08
450.63	7045.01
450.84	7055.25
451.05	7118.74
451.25	7090.07
451.46	7067.54
451.67	7157.65
451.88	7366.54
452.09	7270.29
452.30	7202.71
452.51	7131.03
452.72	7589.77
452.93	7692.17
453.13	7184.27
453.34	7352.21
453.55	7669.64
453.76	7432.08
453.97	7733.13
454.18	7571.34
454.39	7679.88
454.60	7532.43
454.81	7825.29
455.01	7731.08
455.22	7417.74
455.43	7665.55
455.64	7909.26
455.85	7870.34
456.06	8021.89
456.27	7884.68
456.48	7796.62
456.68	7997.32
456.89	8015.75
457.10	8195.97
457.31	8148.87
457.52	8167.30
457.73	8048.52
457.94	8304.51
458.14	7923.59
458.35	8415.10
458.56	8368.00
458.77	8116.10
458.98	8456.06
459.19	8376.19
459.39	8517.50
459.60	8490.88
459.81	8445.82
460.02	8583.04
460.23	8728.44
460.44	8757.11
460.65	8765.31
460.85	8927.10
461.06	8890.23
461.27	8638.33
461.48	9111.41
461.69	9052.02
461.89	8734.59
462.10	8988.53
462.31	8791.93
462.52	8851.32
462.73	9052.02
462.94	9478.00
463.14	9125.75
463.35	9357.17
463.56	9719.66
463.77	9297.78
463.98	9320.31
464.18	9488.24
464.39	9461.62
464.60	9664.36
464.81	9686.89
465.02	9670.51
465.23	9662.32
465.43	9731.95
465.64	10108.77
465.85	9887.59
466.06	9989.99
466.27	10207.08
466.47	10108.77
466.68	10010.47
466.89	10051.43
467.10	10237.80
467.30	9977.70
467.51	10217.32
467.72	10424.16
467.93	10422.11
468.14	10446.69
468.34	10737.50
468.55	10727.26
468.76	10712.92
468.97	10532.70
469.17	10897.24
469.38	10981.21
469.59	10966.87
469.80	10760.03
470.01	10796.89
470.21	10964.82
470.42	11122.52
470.63	11190.10
470.84	11190.10
471.04	11177.81
471.25	11294.55
471.46	11214.68
471.67	11732.81
471.87	11509.58
472.08	11620.17
472.29	11667.28
472.50	11562.83
472.70	11698.00
472.91	11704.14
473.12	11910.99
473.33	11896.65
473.53	12357.44
473.74	12001.10
473.95	12367.68
474.16	12543.81
474.36	12605.25
474.57	12715.84
474.78	12721.98
474.99	12662.59
475.19	12844.86
475.40	13078.33
475.61	12963.64
475.81	13152.06
476.02	13274.93
476.23	13008.70
476.44	13270.84
476.64	13432.63
476.85	13512.50
477.06	13342.52
477.27	13838.12
477.47	13872.94
477.68	13905.71
477.89	14165.80
478.09	14083.88
478.30	13887.28
478.51	14225.19
478.71	14419.75
478.92	14409.51
479.13	14731.04
479.34	14593.83
479.54	14640.93
479.75	14782.24
479.96	14661.41
480.16	15064.86
480.37	15007.52
480.58	15200.02
480.78	15224.60
480.99	15169.30
481.20	15589.14
481.41	15503.12
481.61	15519.51
481.82	15787.79
482.03	15773.46
482.23	15763.22
482.44	16047.88
482.65	15929.10
482.85	16211.72
483.06	16035.60
483.27	16400.13
483.47	16242.44
483.68	16574.21
483.89	16566.02
484.09	16535.30
484.30	16977.66
484.51	16871.17
484.71	16746.24
484.92	17121.02
485.13	16951.04
485.33	17184.51
485.54	17129.21
485.75	17485.56
485.95	17467.13
486.16	17385.21
486.37	17759.98
486.57	17565.43
486.78	17604.34
486.98	17751.79
487.19	18079.47
487.40	18173.67
487.60	17979.12
487.81	18294.50
488.02	18018.03
488.22	18415.34
488.43	18388.71
488.64	18857.70
488.84	18650.85
489.05	19136.22
489.25	18925.28
489.46	19146.46
489.67	18990.81
489.87	19416.79
490.08	19136.22
490.29	19373.78
490.49	19517.14
490.70	19949.26
490.90	19912.40
491.11	19373.78
491.32	19738.32
491.52	19824.34
491.73	19957.46
491.94	20192.97
492.14	19992.27
492.35	20270.79
492.55	20369.10
492.76	20182.73
492.97	20522.69
493.17	20610.76
493.38	20883.14
493.58	21036.74
493.79	20844.23
494.00	20782.79
494.20	21006.02
494.41	21214.91
494.61	21309.11
494.82	21272.25
495.02	21225.15
495.23	21698.23
495.44	21677.75
495.64	21753.52
495.85	21753.52
496.05	21749.43
496.26	21657.27
496.47	22226.60
496.67	21999.28
496.88	22195.89
497.08	21878.45
497.29	22496.94
497.49	22257.32
497.70	22222.51
497.91	22582.95
498.11	22861.48
498.32	22888.10
498.52	22824.61
498.73	22988.45
498.93	22914.72
499.14	23113.38
499.34	23131.81
499.55	23361.18
499.76	23404.19
499.96	23461.53
500.17	23412.38
500.37	23471.77
500.58	23625.37
500.78	23746.20
500.99	23813.78
501.19	23738.01
501.40	23950.99
501.60	23621.27
501.81	24014.48
502.02	24325.77
502.22	23916.18
502.43	24206.99
502.63	24344.20
502.84	24213.13
503.04	24147.60
503.25	24448.65
503.45	24499.85
503.66	24458.89
503.86	24530.57
504.07	24626.82
504.27	24655.50
504.48	25239.17
504.68	24991.36
504.89	24974.98
505.09	25089.67
505.30	25140.86
505.50	25222.78
505.71	25280.13
505.91	25202.30
506.12	25624.18
506.32	25708.15
506.53	25185.92
506.73	25585.27
506.94	25566.84
507.14	25493.12
507.35	25833.08
507.55	25833.08
507.76	25654.90
507.96	25912.95
508.17	25853.56
508.37	26238.58
508.58	26058.35
508.78	26277.49
508.99	26187.38
509.19	26093.17
509.40	26330.73
509.60	26396.27
509.81	26275.44
510.01	26371.69
510.22	26363.50
510.42	26508.91
510.63	26938.98
510.83	27008.61
511.04	26721.90
511.24	26705.51
511.44	26973.80
511.65	26799.72
511.85	27025.00
512.06	27154.02
512.26	27139.68
512.47	27086.43
512.67	27190.88
512.88	27297.38
513.08	27178.59
513.29	27203.17
513.49	27158.11
513.69	27176.55
513.90	27469.40
514.10	27500.12
514.31	27764.31
514.51	27610.71
514.72	27770.46
514.92	27719.26
515.13	27739.74
515.33	28141.14
515.53	27915.86
515.74	28005.97
515.94	28372.56
516.15	28130.90
516.35	27979.35
516.56	28178.00
516.76	27975.25
516.96	28358.22
517.17	28354.13
517.37	28573.26
517.58	28620.36
517.78	28339.79
517.99	28853.83
518.19	28769.86
518.39	28935.75
518.60	29029.96
518.80	29099.59
519.01	29185.60
519.21	28892.74
519.41	29288.00
519.62	29163.08
519.82	29359.68
520.03	29374.02
520.23	29318.72
520.43	29288.00
520.64	29812.28
520.84	29722.17
521.05	29521.47
521.25	29580.86
521.45	30094.90
521.66	29926.97
521.86	30111.28
522.07	29879.86
522.27	30244.40
522.47	30135.86
522.68	30393.90
522.88	30219.83
523.08	30805.55
523.29	30713.39
523.49	30473.78
523.70	30740.01
523.90	30871.08
524.10	30887.46
524.31	31319.59
524.51	30830.12
524.71	31376.93
524.92	31133.22
525.12	31632.93
525.33	31432.22
525.53	31686.17
525.73	31192.61
525.94	31682.08
526.14	31133.22
526.34	31604.25
526.55	31565.34
526.75	31686.17
526.95	32243.22
527.16	31860.25
527.36	31972.89
527.56	32026.14
527.77	32491.02
527.97	32564.75
528.17	32054.81
528.38	32599.57
528.58	32411.15
528.78	32990.73
528.99	32663.05
529.19	33302.02
529.39	32644.62
529.60	33224.20
529.80	32960.01
530.00	33136.13
530.21	33355.27
530.41	33609.22
530.61	33601.02
530.82	33652.22
531.02	33680.89
531.22	33641.98
531.43	33451.52
531.63	33969.66
531.83	34477.55
532.04	34526.71
532.24	33748.48
532.44	34035.19
532.64	34446.83
532.85	34407.92
533.05	34848.24
533.25	34379.25
533.46	34872.81
533.66	34588.14
533.86	34792.94
534.07	35106.28
534.27	34852.33
534.47	35485.15
534.67	35333.60
534.88	35315.17
535.08	35511.78
535.28	35663.33
535.49	35788.25
535.69	36234.71
535.89	35648.99
536.09	36277.72
536.30	36509.14
536.50	36111.83
536.70	36134.36
536.91	36105.69
537.11	36343.25
537.31	36513.23
537.51	36609.49
537.72	36939.21
537.92	36611.54
538.12	37125.58
538.32	36840.91
538.53	36967.88
538.73	36668.88
538.93	36750.80
539.13	37266.89
539.34	37230.02
539.54	37346.76
539.74	37647.81
539.94	37467.59
540.15	37215.69
540.35	37653.95
540.55	37649.86
540.75	37791.17
540.96	37793.22
541.16	38106.55
541.36	38081.98
541.56	38165.95
541.77	38329.78
541.97	38313.40
542.17	38505.91
542.37	38319.54
542.58	38200.76
542.78	38106.55
542.98	38596.02
543.18	38856.11
543.38	39118.25
543.59	38991.28
543.79	38673.84
543.99	38974.89
544.19	39368.10
544.40	38999.47
544.60	39312.81
544.80	38950.32
545.00	39499.17
545.20	39863.71
545.41	39034.28
545.61	39333.29
545.81	39644.58
546.01	39703.97
546.21	39615.91
546.42	39558.56
546.62	39964.06
546.82	39773.60
547.02	39749.03
547.22	39970.21
547.43	39681.44
547.63	40269.21
547.83	39714.21
548.03	39921.05
548.23	40488.34
548.44	40152.48
548.64	40510.87
548.84	40510.87
549.04	40367.51
549.24	40865.17
549.45	41362.82
549.65	40510.87
549.85	40332.70
550.05	40990.09
550.25	41102.73
550.45	40955.28
550.66	40861.07
550.86	41031.05
551.06	41248.14
551.26	41184.65
551.46	41459.08
551.66	41354.63
551.87	41262.47
552.07	41252.23
552.27	41393.54
552.47	41463.18
552.67	41698.69
552.87	41393.54
553.07	41741.70
553.28	41696.64
553.48	41727.36
553.68	41411.98
553.88	41969.02
554.08	41915.78
554.28	42098.05
554.48	41977.22
554.69	41946.50
554.89	41915.78
555.09	42100.09
555.29	42245.50
555.49	42171.77
555.69	42282.36
555.89	41936.26
556.10	42151.29
556.30	42415.48
556.50	42483.06
556.70	42157.44
556.90	42544.50
557.10	42329.47
557.30	42057.09
557.50	42894.71
557.70	42448.25
557.91	42745.20
558.11	42788.21
558.31	43257.20
558.51	42921.33
558.71	42769.78
558.91	43181.42
559.11	43115.89
559.31	42952.05
559.51	42714.48
559.72	42728.82
559.92	43101.55
560.12	43103.60
560.32	43212.14
560.52	42769.78
560.72	43150.70
560.92	43224.43
561.12	43582.82
561.32	43398.51
561.52	43105.65
561.72	43840.87
561.93	43498.86
562.13	43367.79
562.33	43488.62
562.53	43857.25
562.73	43203.95
562.93	43351.40
563.13	43482.47
563.33	43695.46
563.53	43730.28
563.73	43580.78
563.93	43939.17
564.13	44414.30
564.33	43728.23
564.53	43746.66
564.74	44238.17
564.94	43797.86
565.14	44053.86
565.34	43814.24
565.54	44033.38
565.74	44012.90
565.94	44635.48
566.14	44139.87
566.34	44045.66
566.54	44741.97
566.74	44053.86
566.94	44469.59
567.14	44225.89
567.34	44514.65
567.54	44455.26
567.74	44377.43
567.94	44270.94
568.14	44717.40
568.34	44793.17
568.54	44596.57
568.74	44666.20
568.94	44434.78
569.14	45028.69
569.34	45036.88
569.54	45192.53
569.75	44412.25
569.95	45120.85
570.15	45542.73
570.35	44606.81
570.55	44866.90
570.75	45425.99
570.95	45475.15
571.15	44932.43
571.35	45256.01
571.55	45368.65
571.75	45239.63
571.95	45051.22
572.15	45155.66
572.35	45339.98
572.55	45258.06
572.75	45548.87
572.95	45759.81
573.15	45567.30
573.35	45643.08
573.55	45493.58
573.75	45430.09
573.95	45757.77
574.15	45442.38
574.35	45915.46
574.55	45409.61
574.75	45825.35
574.95	45589.83
575.15	46003.52
575.34	45921.60
575.54	46095.68
575.74	46462.27
575.94	46619.96
576.14	45950.27
576.34	46404.92
576.54	46388.54
576.74	46335.29
576.94	45978.95
577.14	46736.69
577.34	46972.21
577.54	46325.05
577.74	46413.12
577.94	46515.51
578.14	46648.63
578.34	47129.90
578.54	46101.82
578.74	46562.62
578.94	46996.79
579.14	47019.31
579.34	46593.34
579.54	46966.07
579.74	47342.89
579.94	47299.89
580.13	47035.70
580.33	47271.21
580.53	47375.66
580.73	47027.51
580.93	47707.43
581.13	46970.16
581.33	47899.94
581.53	47815.97
581.73	47521.07
581.93	47334.70
582.13	47592.75
582.33	48188.70
582.53	47516.97
582.73	47981.86
582.92	47535.40
583.12	48239.90
583.32	47920.42
583.52	47711.53
583.72	48133.41
583.92	48338.21
584.12	48088.35
584.32	48020.77
584.52	48059.68
584.72	48379.17
584.92	48575.77
585.11	49095.95
585.31	48360.73
585.51	48616.73
585.71	48467.23
585.91	48852.25
586.11	48436.51
586.31	48678.17
586.51	48723.22
586.71	48807.19
586.91	49048.85
587.10	48973.08
587.30	49028.37
587.50	49360.14
587.70	48846.10
587.90	49399.05
588.10	49386.77
588.30	49427.73
588.50	49315.09
588.69	49315.09
588.89	49204.50
589.09	49374.48
589.29	49564.94
589.49	49841.42
589.69	49462.54
589.89	49743.11
590.08	49736.97
590.28	49784.07
590.48	49589.52
590.68	49542.41
590.88	49607.95
591.08	49544.46
591.28	49341.71
591.47	50126.08
591.67	50181.38
591.87	49898.76
592.07	49843.46
592.27	50105.60
592.47	50427.13
592.67	50083.08
592.86	50234.63
593.06	50056.45
593.26	50060.55
593.46	50607.36
593.66	50382.08
593.86	50681.08
594.05	50572.54
594.25	50887.93
594.45	50427.13
594.65	50666.75
594.85	50611.45
595.05	50959.61
595.24	50791.67
595.44	51072.24
595.64	50627.84
595.84	51277.04
596.04	51113.20
596.23	50898.17
596.43	51494.13
596.63	50992.37
596.83	51268.85
597.03	51236.08
597.22	51168.50
597.42	50904.31
597.62	51512.56
597.82	51553.52
598.02	51426.54
598.21	51311.86
598.41	51393.78
598.61	51680.49
598.81	51578.09
599.01	51614.96
599.20	51582.19
599.40	51969.26
599.60	51848.42
599.80	51518.70
600.00	51989.73
600.19	52614.37
600.39	51868.90
600.59	52327.65
600.79	52249.83
600.98	51979.49
601.18	52286.69
601.38	52114.66
601.58	52630.75
601.78	52511.97
601.97	52366.56
602.17	52880.60
602.37	52679.90
602.57	52573.41
602.76	52704.48
602.96	52212.96
603.16	53091.54
603.36	52663.52
603.55	53050.58
603.75	52950.23
603.95	53220.56
604.15	52884.70
604.34	53066.97
604.54	53550.29
604.74	53413.07
604.94	53224.66
605.13	53417.17
605.33	53628.11
605.53	53421.26
605.73	53560.53
605.92	53413.07
606.12	53785.80
606.32	54021.32
606.52	53427.41
606.71	53619.92
606.91	53796.04
607.11	53908.68
607.30	53687.50
607.50	53556.43
607.70	53830.86
607.90	54023.37
608.09	53843.15
608.29	53820.62
608.49	54234.31
608.68	54375.62
608.88	54205.64
609.08	54138.05
609.28	54469.82
609.47	54004.94
609.67	54490.30
609.87	54289.60
610.06	54465.73
610.26	54383.81
610.46	54312.13
610.66	54217.92
610.85	54545.60
611.05	54363.33
611.25	54760.64
611.44	54392.00
611.64	54637.76
611.84	54334.66
612.03	54518.98
612.23	54701.25
612.43	54727.87
612.62	54318.28
612.82	54957.24
613.02	54533.31
613.21	54809.79
613.41	54701.25
613.61	55022.78
613.80	54535.36
614.00	54715.58
614.20	54723.77
614.39	54680.77
614.59	55596.21
614.79	54742.20
614.98	54670.53
615.18	55317.68
615.38	54682.81
615.57	54887.61
615.77	55590.06
615.97	55035.06
616.16	54478.02
616.36	54824.12
616.56	55153.85
616.75	55155.89
616.95	54500.54
617.15	55022.78
617.34	54996.15
617.54	54901.95
617.74	55370.93
617.93	55143.61
618.13	54611.13
618.32	55018.68
618.52	54811.84
618.72	55456.95
618.91	55016.63
619.11	54645.95
619.31	54916.28
619.50	54549.70
619.70	54813.88
619.90	55100.60
620.09	55248.05
620.29	55182.52
620.48	55043.26
620.68	55192.76
620.88	54772.92
621.07	55092.41
621.27	55383.22
621.46	54940.86
621.66	54969.53
621.86	55071.93
622.05	54785.21
622.25	55149.75
622.44	55219.38
622.64	54840.51
622.84	55299.25
623.03	54674.62
623.23	55289.01
623.42	54906.04
623.62	55385.27
623.82	55606.45
624.01	54848.70
624.21	55452.85
624.40	54826.17
624.60	55270.58
624.80	54938.81
624.99	54942.91
625.19	54664.38
625.38	55391.41
625.58	55628.98
625.77	55256.24
625.97	55104.70
626.17	54846.65
626.36	55221.43
626.56	55243.96
626.75	54639.81
626.95	55477.43
627.14	55145.65
627.34	55665.84
627.54	55043.26
627.73	55303.35
627.93	55141.56
628.12	54963.39
628.32	55594.16
628.51	55129.27
628.71	55334.07
628.90	55401.65
629.10	55020.73
629.30	54885.56
629.49	55399.60
629.69	55434.42
629.88	54764.73
630.08	55788.72
630.27	55088.31
630.47	55545.01
630.66	55563.44
630.86	55067.83
631.05	55309.49
631.25	55415.99
631.44	55338.16
631.64	55125.17
631.84	55489.71
632.03	56370.34
632.23	55600.30
632.42	55475.38
632.62	55606.45
632.81	55114.94
633.01	55174.33
633.20	55514.29
633.40	55661.74
633.59	55471.28
633.79	55536.82
633.98	55536.82
634.18	55557.30
634.37	55846.06
634.57	55524.53
634.76	55878.83
634.96	55317.68
635.15	55860.40
635.35	55514.29
635.54	55100.60
635.74	55864.49
635.93	55547.06
636.13	56188.07
636.32	55891.12
636.52	55516.34
636.71	55391.41
636.91	56063.14
637.10	55747.76
637.30	55614.64
637.49	55647.41
637.69	55635.12
637.88	56095.91
638.08	55354.55
638.27	56128.68
638.46	55989.42
638.66	55563.44
638.85	55569.58
639.05	55637.17
639.24	56194.21
639.44	55391.41
639.63	55801.00
639.83	55854.25
640.02	55766.19
640.22	55788.72
640.41	56474.79
640.61	55706.80
640.80	55714.99
640.99	55704.75
641.19	56296.61
641.38	56321.19
641.58	55727.28
641.77	56198.31
641.97	56120.49
642.16	56224.93
642.36	56263.85
642.55	56466.59
642.74	55874.73
642.94	56499.36
643.13	55860.40
643.33	56302.76
643.52	56259.75
643.72	56579.23
643.91	56376.48
644.10	56188.07
644.30	56317.09
644.49	56444.07
644.69	56208.55
644.88	56525.99
645.08	56087.72
645.27	56136.87
645.46	56079.53
645.66	56145.06
645.85	56323.24
646.05	56659.10
646.24	56583.33
646.43	56325.28
646.63	56413.35
646.82	56630.43
647.02	56845.47
647.21	57017.50
647.40	56728.73
647.60	56329.38
647.79	56220.84
647.99	56362.15
648.18	56759.45
648.37	57128.09
648.57	56853.66
648.76	56804.51
648.96	56702.11
649.15	56489.12
649.34	57029.79
649.54	56726.69
649.73	56214.69
649.92	56939.68
650.12	56683.68
650.31	57234.58
650.51	57277.59
650.70	57439.38
650.89	57072.79
651.09	57539.73
651.28	57103.51
651.47	57287.83
651.67	56439.97
651.86	57101.46
652.06	56460.45
652.25	57052.31
652.44	56906.91
652.64	56800.41
652.83	57005.21
653.02	56882.33
653.22	56945.82
653.41	56915.10
653.60	56306.85
653.80	56765.60
653.99	57607.31
654.18	56642.72
654.38	56677.54
654.57	57291.93
654.76	57003.16
654.96	57087.13
655.15	56800.41
655.34	56966.30
655.54	56769.69
655.73	56956.06
655.92	57017.50
656.12	57357.46
656.31	57300.12
656.50	56849.56
656.70	57070.75
656.89	56964.25
657.08	57492.63
657.28	57072.79
657.47	56585.38
657.66	57412.76
657.86	56988.83
658.05	57160.86
658.24	57095.32
658.43	57021.59
658.63	57068.70
658.82	57025.69
659.01	57562.26
659.21	57336.98
659.40	57754.77
659.59	57173.14
659.79	57427.09
659.98	56964.25
660.17	57193.62
660.36	57707.66
660.56	57447.57
660.75	57668.75
660.94	57365.65
661.14	57062.55
661.33	57074.84
661.52	56896.67
661.71	57410.71
661.91	56732.83
662.10	57279.64
662.29	57574.55
662.49	57361.56
662.68	57365.65
662.87	57648.27
663.06	57836.69
663.26	57119.90
663.45	57951.37
663.64	57238.68
663.83	57955.47
664.03	57523.35
664.22	57332.89
664.41	57451.67
664.60	56972.44
664.80	57238.68
664.99	57730.19
665.18	57431.19
665.37	57625.74
665.57	57889.93
665.76	57138.33
665.95	57275.54
666.14	57298.07
666.34	57388.18
666.53	57353.36
666.72	57453.72
666.91	57175.19
667.11	57078.94
667.30	56687.78
667.49	57406.61
667.68	57007.26
667.87	57269.40
668.07	57597.07
668.26	57615.50
668.45	57218.20
668.64	57101.46
668.84	57246.87
669.03	57265.30
669.22	57423.00
669.41	57449.62
669.60	57590.93
669.80	57228.44
669.99	57570.45
670.18	57316.50
670.37	57296.02
670.57	57894.03
670.76	57435.28
670.95	57402.52
671.14	57293.97
671.33	56790.17
671.53	57752.72
671.72	57226.39
671.91	57498.77
672.10	56992.92
672.29	57705.62
672.48	57007.26
672.68	57640.08
672.87	56984.73
673.06	57101.46
673.25	56997.02
673.44	57035.93
673.64	57185.43
673.83	56796.32
674.02	57103.51
674.21	56915.10
674.40	57320.60
674.59	56509.60
674.79	56706.21
674.98	56429.73
675.17	57068.70
675.36	56855.71
675.55	57068.70
675.74	56366.24
675.94	56990.87
676.13	57212.06
676.32	57076.89
676.51	57578.64
676.70	57238.68
676.89	57261.21
677.08	57408.66
677.28	57068.70
677.47	57635.98
677.66	57472.15
677.85	56614.05
678.04	57562.26
678.23	57062.55
678.42	57279.64
678.62	56779.93
678.81	57210.01
679.00	56878.24
679.19	57597.07
679.38	56743.07
679.57	56796.32
679.76	56579.23
679.96	57396.37
680.15	57142.42
680.34	56480.93
680.53	56458.40
680.72	56960.15
680.91	56884.38
681.10	56745.12
681.29	57226.39
681.48	56923.29
681.68	56583.33
681.87	56593.57
682.06	56362.15
682.25	56767.65
682.44	56698.01
682.63	56505.51
682.82	56181.93
683.01	56454.31
683.20	55936.17
683.39	56458.40
683.59	56181.93
683.78	56192.17
683.97	56083.62
684.16	56362.15
684.35	56079.53
684.54	56394.92
684.73	56093.86
684.92	56138.92
685.11	56530.08
685.30	56327.33
685.49	56603.81
685.69	56560.80
685.88	56163.50
686.07	56167.59
686.26	56226.98
686.45	56417.44
686.64	56382.63
686.83	55942.31
687.02	56220.84
687.21	56138.92
687.40	55973.03
687.59	56001.71
687.78	56353.96
687.97	56612.00
688.16	55749.81
688.35	55930.03
688.54	55796.91
688.74	56073.38
688.93	55555.25
689.12	55708.85
689.31	55821.48
689.50	56343.72
689.69	55403.70
689.88	55162.04
690.07	55563.44
690.26	55422.13
690.45	55981.23
690.64	55749.81
690.83	54969.53
691.02	55141.56
691.21	55502.00
691.40	55588.02
691.59	55758.00
691.78	55266.48
691.97	55600.30
692.16	55164.09
692.35	55545.01
692.54	55657.65
692.73	55698.61
692.92	54918.33
693.11	55145.65
693.30	55071.93
693.49	55665.84
693.68	55164.09
693.87	55461.04
694.06	54949.05
694.25	55014.58
694.44	54752.44
694.63	55112.89
694.82	55254.20
695.01	54869.18
695.20	54979.77
695.39	54873.27
695.58	55178.42
695.77	55073.98
695.96	54662.33
696.15	54955.19
696.34	54465.73
696.53	54629.57
696.72	54826.17
696.91	54639.81
697.10	54961.34
697.29	54805.69
697.48	55166.13
697.67	54291.65
697.86	53937.35
698.05	54502.59
698.24	54604.99
698.43	54267.08
698.62	54594.75
698.81	54529.22
699.00	54828.22
699.19	54346.95
699.38	54674.62
699.57	54056.14
699.76	54844.60
699.95	54105.29
700.14	54090.95
700.32	54281.41
700.51	54242.50
700.70	54107.33
700.89	54183.11
701.08	54408.39
701.27	53910.73
701.46	54279.36
701.65	53441.74
701.84	53771.47
702.03	54121.67
702.22	53785.80
702.41	53613.77
702.60	54142.15
702.79	53812.43
702.98	53546.19
703.17	53376.21
703.35	53671.12
703.54	53320.91
703.73	53748.94
703.92	53511.38
704.11	53212.37
704.30	53089.49
704.49	53398.74
704.68	52974.81
704.87	53499.09
705.06	53195.99
705.25	53345.49
705.43	53501.14
705.62	53259.48
705.81	53314.77
706.00	53265.62
706.19	53193.94
706.38	53126.36
706.57	53132.50
706.76	52507.87
706.95	52966.62
707.14	52718.81
707.32	53101.78
707.51	52616.41
707.70	52909.27
707.89	53036.25
708.08	53036.25
708.27	53013.72
708.46	53621.97
708.65	52589.79
708.84	52954.33
709.02	52819.16
709.21	53099.73
709.40	52372.70
709.59	52612.32
709.78	52491.49
709.97	52784.35
710.16	52495.58
710.34	52450.53
710.53	52528.35
710.72	52147.43
710.91	52516.06
711.10	52602.08
711.29	52493.54
711.48	52221.16
711.66	52663.52
711.85	52143.33
712.04	52047.08
712.23	52305.12
712.42	52145.38
712.61	52323.55
712.80	52282.59
712.98	52149.48
713.17	51967.21
713.36	52010.21
713.55	52094.18
713.74	51860.71
713.93	52088.04
714.11	51674.35
714.30	51582.19
714.49	51594.48
714.68	52352.23
714.87	52108.52
715.06	52067.56
715.24	51383.54
715.43	51606.76
715.62	51444.98
715.81	51188.98
716.00	51602.67
716.18	51582.19
716.37	51068.15
716.56	51115.25
716.75	51332.34
716.94	51344.62
717.12	51055.86
717.31	51623.15
717.50	51414.26
717.69	50998.52
717.88	50851.06
718.06	50992.37
718.25	51186.93
718.44	50726.14
718.63	50803.96
718.82	50453.76
719.00	50562.30
719.19	50322.69
719.38	50025.73
719.57	49931.53
719.76	50246.91
719.94	50060.55
720.13	50595.07
720.32	50121.99
720.51	50083.08
720.69	50287.87
720.88	50199.81
721.07	50484.48
721.26	49546.51
721.44	49984.77
721.63	49929.48
721.82	49440.01
722.01	49659.15
722.20	49939.72
722.38	49456.40
722.57	49079.57
722.76	49849.61
722.95	49229.07
723.13	49040.66
723.32	49251.60
723.51	49454.35
723.70	49048.85
723.88	49413.39
724.07	49218.83
724.26	49452.30
724.44	48596.25
724.63	48999.70
724.82	48852.25
725.01	48682.27
725.19	49165.59
725.38	48817.43
725.57	48989.46
725.76	48903.45
725.94	48444.70
726.13	48794.90
726.32	48674.07
726.51	48493.85
726.69	48968.98
726.88	48561.44
727.07	48438.56
727.25	48815.38
727.44	48653.59
727.63	48534.81
727.82	48583.96
728.00	48637.21
728.19	48467.23
728.38	48909.59
728.56	48182.56
728.75	48727.32
728.94	48217.38
729.12	48586.01
729.31	48375.07
729.50	48690.46
729.69	48592.15
729.87	48325.92
730.06	48178.46
730.25	48153.89
730.43	48715.03
730.62	48299.30
730.81	48422.17
730.99	48530.72
731.18	48198.94
731.37	48614.68
731.55	48590.11
731.74	48710.94
731.93	48239.90
732.11	48565.53
732.30	48262.43
732.49	48305.44
732.67	48293.15
732.86	48039.20
733.05	48545.05
733.23	48450.84
733.42	48067.87
733.61	47885.61
733.79	47858.98
733.98	48272.67
734.17	48149.79
734.35	48325.92
734.54	48106.79
734.73	48456.99
734.91	48221.47
735.10	48162.08
735.29	48190.75
735.47	47781.16
735.66	47811.88
735.84	47965.48
736.03	47883.56
736.22	48545.05
736.40	47891.75
736.59	48053.54
736.78	47516.97
736.96	47820.07
737.15	47930.66
737.33	47340.85
737.52	47654.18
737.71	47592.75
737.89	47189.30
738.08	47381.80
738.27	47381.80
738.45	48211.23
738.64	47910.18
738.82	47664.42
739.01	47689.00
739.20	47756.58
739.38	47463.72
739.57	48012.58
739.75	47461.68
739.94	47381.80
740.13	47496.49
740.31	47371.57
740.50	47605.03
740.68	47551.79
740.87	47519.02
741.06	47394.09
741.24	47330.61
741.43	47217.97
741.61	47414.57
741.80	47021.36
741.99	47412.52
742.17	47117.62
742.36	47215.92
742.54	46773.56
742.73	47144.24
742.91	47611.18
743.10	47035.70
743.29	47433.00
743.47	47097.14
743.66	46781.75
743.84	47295.79
744.03	46978.36
744.21	46695.74
744.40	46703.93
744.59	46683.45
744.77	46900.53
744.96	47174.96
745.14	47256.88
745.33	46705.98
745.51	46966.07
745.70	46875.96
745.88	46859.57
746.07	46798.13
746.26	46718.26
746.44	46654.78
746.63	46544.19
746.81	46767.41
747.00	46568.76
747.18	46478.65
747.37	46638.39
747.55	46947.64
747.74	46595.38
747.92	46013.76
748.11	46210.37
748.29	46378.30
748.48	46464.32
748.66	46122.30
748.85	46216.51
749.03	46316.86
749.22	46419.26
749.41	46185.79
749.59	46060.87
749.78	45722.95
749.96	45700.42
750.15	46079.30
750.33	46191.94
750.52	46169.41
750.70	45651.27
750.89	45907.27
751.07	45636.94
751.26	45737.29
751.44	45364.56
751.63	45636.94
751.81	45356.36
752.00	45147.47
752.18	45602.12
752.37	45837.64
752.55	45317.45
752.74	45481.29
752.92	45411.66
753.10	45270.35
753.29	45380.94
753.47	45415.76
753.66	45192.53
753.84	45303.12
754.03	44983.63
754.21	44922.19
754.40	44981.59
754.58	45190.48
754.77	45208.91
754.95	44809.56
755.14	44940.63
755.32	45188.43
755.51	44774.74
755.69	44893.52
755.88	44811.60
756.06	45026.64
756.24	44270.94
756.43	44563.80
756.61	44868.95
756.80	44514.65
756.98	44490.07
757.17	44477.79
757.35	44911.95
757.54	44467.55
757.72	44778.84
757.90	44346.72
758.09	44107.10
758.27	44539.22
758.46	44424.54
758.64	44498.26
758.83	44729.69
759.01	44473.69
759.19	44428.63
759.38	44531.03
759.56	44774.74
759.75	44205.41
759.93	44158.30
760.12	44115.29
760.30	44461.40
760.48	44045.66
760.67	44008.80
760.85	43844.96
761.04	44266.84
761.22	44189.02
761.40	43646.31
761.59	43957.60
761.77	43777.38
761.96	43941.22
762.14	43613.54
762.32	43613.54
762.51	43490.66
762.69	43732.32
762.88	43533.67
763.06	43636.07
763.24	43255.15
763.43	43599.21
763.61	43392.36
763.80	43529.58
763.98	43406.70
764.16	43566.44
764.35	42950.00
764.53	42546.55
764.72	42995.06
764.90	43111.79
765.08	43386.22
765.27	43160.94
765.45	43005.30
765.63	42724.72
765.82	43500.90
766.00	42902.90
766.18	43234.67
766.37	42929.52
766.55	42982.77
766.74	42923.38
766.92	42849.65
767.10	42481.02
767.29	42716.53
767.47	42524.02
767.65	42866.03
767.84	42548.60
768.02	42718.58
768.20	41971.07
768.39	42280.31
768.57	42257.79
768.75	42491.26
768.94	42493.30
769.12	42286.46
769.30	42409.34
769.49	42231.16
769.67	42124.67
769.85	41627.01
770.04	42190.20
770.22	41891.20
770.40	41528.71
770.59	41160.08
770.77	41721.22
770.95	41987.46
771.14	41741.70
771.32	41553.29
771.50	41475.46
771.69	41354.63
771.87	41831.81
772.05	41401.74
772.24	41198.99
772.42	41467.27
772.60	41545.09
772.78	41067.92
772.97	41319.82
773.15	41422.22
773.33	40869.26
773.52	40725.91
773.70	41051.53
773.88	41178.51
774.07	41037.20
774.25	41467.27
774.43	41207.18
774.61	41321.87
774.80	41334.15
774.98	41293.19
775.16	41205.13
775.34	41461.13
775.53	40922.51
775.71	41526.66
775.89	41397.64
776.08	41670.02
776.26	41377.16
776.44	41491.85
776.62	41180.56
776.81	41106.83
776.99	41733.51
777.17	41524.61
777.35	41479.56
777.54	41618.82
777.72	41379.21
777.90	41119.12
778.08	41801.09
778.27	41624.96
778.45	41833.86
778.63	41815.43
778.81	41328.01
779.00	42274.17
779.18	41805.19
779.36	41846.15
779.54	41887.10
779.73	41737.60
779.91	42014.08
780.09	41639.30
780.27	42136.96
780.46	41874.82
780.64	42206.59
780.82	41780.61
781.00	41874.82
781.19	41917.82
781.37	42253.69
781.55	42354.04
781.73	42472.82
781.91	42294.65
782.10	42048.89
782.28	42257.79
782.46	42349.95
782.64	42341.75
782.82	41758.08
783.01	42507.64
783.19	42521.98
783.37	42524.02
783.55	42096.00
783.74	42415.48
783.92	41999.74
784.10	42737.01
784.28	42096.00
784.46	42392.95
784.64	41966.98
784.83	42091.90
785.01	42487.16
785.19	42083.71
785.37	42710.39
785.55	42231.16
785.74	41868.67
785.92	42235.26
786.10	42022.27
786.28	42419.58
786.46	42274.17
786.64	41846.15
786.83	42108.29
787.01	42255.74
787.19	42220.92
787.37	42116.48
787.55	42005.89
787.74	41944.45
787.92	41889.15
788.10	41629.06
788.28	41381.26
788.46	41704.84
788.64	41819.52
788.82	41876.86
789.01	41520.52
789.19	41821.57
789.37	41520.52
789.55	42114.43
789.73	41311.63
789.91	41307.53
790.09	41266.57
790.28	41469.32
790.46	41088.40
790.64	41029.01
790.82	41424.26
791.00	40924.56
791.18	41053.58
791.36	40807.83
791.55	40942.99
791.73	41026.96
791.91	40420.76
792.09	40738.19
792.27	40697.24
792.45	40463.77
792.63	40723.86
792.81	40123.80
793.00	40215.96
793.18	40050.08
793.36	40136.09
793.54	40007.07
793.72	39753.12
793.90	39812.51
794.08	39914.91
794.26	40068.51
794.44	39261.61
794.62	39560.61
794.81	39728.55
794.99	39507.37
795.17	39294.38
795.35	39583.14
795.53	39478.69
795.71	39271.85
795.89	39249.32
796.07	38786.48
796.25	38895.02
796.43	38880.69
796.61	38770.10
796.80	38286.78
796.98	38626.74
797.16	38434.23
797.34	38530.48
797.52	38288.82
797.70	38624.69
797.88	38114.75
798.06	37901.76
798.24	38350.26
798.42	37942.72
798.60	37877.18
798.78	38133.18
798.96	38196.67
799.14	37432.77
799.32	37959.10
799.51	37244.36
799.69	37381.57
799.87	37537.22
800.05	36824.53
800.23	37242.31
800.41	36986.32
800.59	37225.93
800.77	37064.14
800.95	36654.54
801.13	37096.91
801.31	36996.56
801.49	36873.68
801.67	36568.53
801.85	36584.91
802.03	36464.08
802.21	36214.23
802.39	36363.73
802.57	36470.23
802.75	36089.31
802.93	35878.36
803.11	36107.74
803.29	35927.52
803.47	35708.38
803.65	35755.49
803.83	35661.28
804.01	35601.89
804.19	35020.27
804.37	35347.94
804.55	35274.21
804.73	35452.39
804.91	35452.39
805.09	34987.50
805.27	35038.70
805.45	34917.87
805.63	35003.88
805.81	35173.86
805.99	35147.24
806.17	35112.42
806.35	34868.72
806.53	34495.99
806.71	34735.60
806.89	34596.34
807.07	34567.66
807.25	34311.67
807.43	34371.06
807.61	34514.42
807.79	34291.19
807.97	33949.18
808.15	34131.45
808.33	33785.34
808.51	33658.37
808.69	33979.90
808.87	33787.39
809.05	33529.34
809.23	33650.17
809.41	33400.32
809.59	33463.81
809.77	33453.57
809.95	33533.44
810.13	33732.09
810.31	33400.32
810.49	33265.16
810.67	33252.87
810.84	32957.96
811.02	32900.62
811.20	32525.84
811.38	33082.89
811.56	32683.53
811.74	32859.66
811.92	32781.84
812.10	32902.67
812.28	32380.43
812.46	32622.09
812.64	32497.17
812.82	32540.18
813.00	32149.01
813.18	32163.35
813.36	32413.20
813.53	31958.55
813.71	32151.06
813.89	31972.89
814.07	32202.26
814.25	32144.92
814.43	31643.17
814.61	31878.68
814.79	31751.71
814.97	31741.47
815.15	31452.70
815.33	31290.91
815.50	31477.28
815.68	31671.84
815.86	31739.42
816.04	31342.11
816.22	31260.20
816.40	31571.49
816.58	30920.23
816.76	30989.86
816.94	30881.32
817.11	30957.10
817.29	30866.98
817.47	30764.59
817.65	30545.45
817.83	30875.18
818.01	30682.67
818.19	30924.33
818.37	30610.99
818.54	30295.60
818.72	30289.46
818.90	30424.62
819.08	30314.03
819.26	30438.96
819.44	30232.11
819.62	30152.24
819.80	30201.40
819.97	30340.66
820.15	29738.55
820.33	30103.09
820.51	30060.09
820.69	29816.38
820.87	29996.60
821.05	30266.93
821.22	29849.14
821.40	29871.67
821.58	29515.33
821.76	29687.36
821.94	29795.90
822.12	29916.73
822.29	29638.20
822.47	29472.32
822.65	29816.38
822.83	29746.75
823.01	29732.41
823.19	29404.74
823.36	29158.98
823.54	28849.74
823.72	29433.41
823.90	29027.91
824.08	28802.63
824.25	29036.10
824.43	28835.40
824.61	28943.94
824.79	28800.58
824.97	29140.55
825.15	29128.26
825.32	28900.94
825.50	28788.30
825.68	28497.49
825.86	29085.25
826.04	28788.30
826.21	28563.02
826.39	28661.32
826.57	28317.26
826.75	28325.46
826.93	28237.39
827.10	28237.39
827.28	28466.77
827.46	28470.86
827.64	28180.05
827.81	27862.61
827.99	28245.58
828.17	28030.55
828.35	27672.15
828.53	28216.91
828.70	28075.60
828.88	27997.78
829.06	27934.29
829.24	27780.70
829.41	27612.76
829.59	27723.35
829.77	27758.17
829.95	27670.11
830.12	27698.78
830.30	27367.01
830.48	27557.47
830.66	27465.31
830.84	27645.53
831.01	27491.93
831.19	27545.18
831.37	27856.47
831.55	27156.07
831.72	27336.29
831.90	27444.83
832.08	27188.83
832.25	27274.85
832.43	27272.80
832.61	27088.48
832.79	26910.31
832.96	27139.68
833.14	27233.89
833.32	27113.06
833.50	27154.02
833.67	26769.00
833.85	26881.64
834.03	26351.21
834.20	26781.29
834.38	26932.84
834.56	26773.10
834.74	26549.87
834.91	26885.73
835.09	26525.29
835.27	26230.38
835.44	26601.07
835.62	26142.32
835.80	26130.03
835.98	26723.94
836.15	26336.88
836.33	26152.56
836.51	26330.73
836.68	26367.60
836.86	26193.52
837.04	26162.80
837.21	26197.62
837.39	26050.16
837.57	26449.52
837.75	26197.62
837.92	26189.42
838.10	26123.89
838.28	25433.72
838.45	25826.93
838.63	25976.44
838.81	25990.77
838.98	25716.34
839.16	25544.31
839.34	25437.82
839.51	25349.76
839.69	25357.95
839.87	25572.99
840.04	25446.01
840.22	25861.75
840.40	25495.16
840.57	25241.21
840.75	25355.90
840.93	25204.35
841.10	25425.53
841.28	25351.81
841.46	25468.54
841.63	25325.18
841.81	25329.28
841.98	25165.44
842.16	25155.20
842.34	25263.74
842.51	24632.97
842.69	25267.84
842.87	24780.42
843.04	24927.88
843.22	24731.27
843.40	24845.96
843.57	25013.89
843.75	24815.24
843.92	25190.02
844.10	24956.55
844.28	24995.46
844.45	24962.69
844.63	24790.66
844.81	24440.46
844.98	24825.48
845.16	24499.85
845.33	24817.29
845.51	24671.88
845.69	24770.18
845.86	24452.75
846.04	24057.49
846.21	24442.51
846.39	24329.87
846.57	24237.71
846.74	24467.08
846.92	24178.32
847.09	24129.17
847.27	24223.37
847.45	24174.22
847.62	24315.53
847.80	24551.05
847.97	23912.08
848.15	24080.02
848.32	23953.04
848.50	24100.50
848.68	23715.48
848.85	23697.05
849.03	23701.14
849.20	24063.63
849.38	23688.85
849.56	23834.26
849.73	23619.22
849.91	23807.64
850.08	23881.36
850.26	23541.40
850.43	23525.02
850.61	23414.43
850.78	23244.45
850.96	23637.66
851.14	23486.11
851.31	23576.22
851.49	23342.75
851.66	23396.00
851.84	23074.46
852.01	23266.97
852.19	23144.09
852.36	23121.57
852.54	22861.48
852.71	23142.05
852.89	23146.14
853.07	23056.03
853.24	23064.22
853.42	23324.32
853.59	23404.19
853.77	23281.31
853.94	23199.39
854.12	23027.36
854.29	22687.40
854.47	22961.83
854.64	22992.55
854.82	22890.15
854.99	23168.67
855.17	22679.21
855.34	23029.41
855.52	22984.35
855.69	22797.99
855.87	22574.76
856.04	22576.81
856.22	22556.33
856.39	22554.28
856.57	22673.06
856.74	22464.17
856.92	22681.25
857.09	22363.82
857.27	22427.31
857.44	22466.22
857.62	22470.31
857.79	22455.98
857.97	22179.50
858.14	22335.15
858.32	22130.35
858.49	22343.34
858.67	22093.49
858.84	22032.05
859.02	22097.58
859.19	22142.64
859.37	22001.33
859.54	21728.95
859.72	22214.32
859.89	22005.42
860.06	21984.94
860.24	22089.39
860.41	22105.77
860.59	21903.03
860.76	21968.56
860.94	21774.00
861.11	21667.51
861.29	21483.19
861.46	21692.08
861.64	21604.02
861.81	21485.24
861.98	21679.80
862.16	21571.25
862.33	21425.85
862.51	21399.23
862.68	21378.75
862.86	21606.07
863.03	21227.20
863.21	21151.42
863.38	21243.58
863.55	21229.24
863.73	21157.57
863.90	21497.53
864.08	21366.46
864.25	20833.99
864.43	20940.48
864.60	21003.97
864.77	20776.64
864.95	20741.83
865.12	20635.33
865.30	21137.09
865.47	20784.83
865.64	20559.56
865.82	21038.78
865.99	21065.41
866.17	20680.39
866.34	20979.39
866.51	20905.66
866.69	20821.70
866.86	20577.99
867.04	20776.64
867.21	20737.73
867.38	20422.34
867.56	20367.05
867.73	20272.84
867.91	20231.88
868.08	20330.19
868.25	20328.14
868.43	19994.32
868.60	20240.08
868.78	19846.87
868.95	20152.01
869.12	20268.75
869.30	20229.84
869.47	19971.79
869.64	20010.70
869.82	20039.37
869.99	19812.05
870.16	20274.89
870.34	20070.09
870.51	20006.61
870.69	19625.68
870.86	19836.63
871.03	20266.70
871.21	20006.61
871.38	19707.60
871.55	19494.61
871.73	19680.98
871.90	19517.14
872.07	19541.72
872.25	19668.69
872.42	19453.66
872.59	19371.74
872.77	19443.42
872.94	19377.88
873.11	19267.29
873.29	19332.82
873.46	19263.19
873.63	19293.91
873.81	19089.12
873.98	19068.64
874.15	18896.61
874.33	18839.26
874.50	18792.16
874.67	18771.68
874.85	18853.60
875.02	18882.27
875.19	18974.43
875.37	18865.89
875.54	18642.66
875.71	18788.07
875.88	18704.10
876.06	18831.07
876.23	18695.91
876.40	18556.64
876.58	18392.81
876.75	18444.01
876.92	18472.68
877.10	18613.99
877.27	18267.88
877.44	18345.70
877.61	18241.26
877.79	18134.76
877.96	17923.82
878.13	18167.53
878.31	18126.57
878.48	18247.40
878.65	17839.86
878.82	17903.34
879.00	18151.15
879.17	17870.58
879.34	18171.63
879.51	17886.96
879.69	17776.37
879.86	17786.61
880.03	17655.54
880.21	17768.18
880.38	17729.27
880.55	17745.65
880.72	17581.81
880.90	17712.88
881.07	17413.88
881.24	17796.85
881.41	17327.86
881.59	17694.45
881.76	17563.38
881.93	17239.80
882.10	17293.05
882.28	17362.68
882.45	17374.97
882.62	17264.38
882.79	17532.66
882.96	17145.59
883.14	17018.62
883.31	17084.16
883.48	17397.49
883.65	17282.81
883.83	17325.82
884.00	17067.77
884.17	17082.11
884.34	17245.94
884.51	16985.85
884.69	16977.66
884.86	16971.52
885.03	16801.54
885.20	16725.76
885.38	16856.83
885.55	16989.95
885.72	17006.33
885.89	17063.68
886.06	16721.66
886.24	16717.57
886.41	16871.17
886.58	17073.92
886.75	17061.63
886.92	16801.54
887.10	16729.86
887.27	16602.88
887.44	16824.06
887.61	16994.04
887.78	16733.95
887.95	16697.09
888.13	16486.15
888.30	16402.18
888.47	16551.68
888.64	16492.29
888.81	16600.83
888.99	16451.33
889.16	16398.09
889.33	16379.65
889.50	16332.55
889.67	16246.54
889.84	16109.32
890.01	16439.05
890.19	16166.67
890.36	16254.73
890.53	16170.76
890.70	15947.53
890.87	16019.21
891.04	15986.44
891.22	16260.87
891.39	16090.89
891.56	15736.59
891.73	15957.77
891.90	15908.62
892.07	15730.45
892.24	15812.37
892.42	15724.30
892.59	15832.85
892.76	15539.99
892.93	15767.31
893.10	15726.35
893.27	15740.69
893.44	15277.85
893.61	15503.12
893.79	15783.70
893.96	15290.13
894.13	15648.53
894.30	15701.78
894.47	15509.27
894.64	15623.95
894.81	15564.56
894.98	15720.21
895.15	15621.91
895.33	15456.02
895.50	15253.27
895.67	15517.46
895.84	15484.69
896.01	15390.49
896.18	15304.47
896.35	15761.17
896.52	15394.58
896.69	15449.88
896.86	15200.02
897.04	15537.94
897.21	15261.46
897.38	15087.39
897.55	15316.76
897.72	15693.58
897.89	15353.62
898.06	15560.47
898.23	15023.90
898.40	15277.85
898.57	15437.59
898.74	15474.45
898.91	15513.36
899.08	15167.26
899.26	15425.30
899.43	15376.15
899.60	15281.94
899.77	15427.35
899.94	15128.35
900.11	15101.72
900.28	15197.98
900.45	15202.07
900.62	15228.70
900.79	15337.24
900.96	15421.20
901.13	15435.54
901.30	15220.50
901.47	15087.39
901.64	15091.48
901.81	15499.03
901.98	15054.62
902.15	15179.54
902.32	15267.61
902.49	15322.90
902.66	15324.95
902.83	15367.96
903.01	15243.03
903.18	15267.61
903.35	15228.70
903.52	15204.12
903.69	15101.72
903.86	15382.29
904.03	15476.50
904.20	15437.59
904.37	15181.59
904.54	15173.40
904.71	15017.75
904.88	15261.46
905.05	15052.57
905.22	15230.74
905.39	14970.65
905.56	15152.92
905.73	15060.76
905.90	15355.67
906.07	15025.95
906.24	15220.50
906.41	15091.48
906.58	15269.66
906.75	14978.84
906.92	14960.41
907.09	15040.28
907.26	15251.22
907.43	15089.43
907.60	14919.45
907.77	15263.51
907.93	15345.43
908.10	15243.03
908.27	15384.34
908.44	14724.90
908.61	14808.86
908.78	15068.95
908.95	14987.04
909.12	14806.81
909.29	14872.35
909.46	14722.85
909.63	15103.77
909.80	15189.78
909.97	14782.24
910.14	14933.79
910.31	15111.96
910.48	15025.95
910.65	15052.57
910.82	14642.98
910.99	14862.11
911.16	14972.70
911.33	14739.23
911.50	14913.31
911.66	14974.75
911.83	14923.55
912.00	14726.94
912.17	14665.50
912.34	14690.08
912.51	14706.46
912.68	14450.47
912.85	14257.96
913.02	14571.30
913.19	14653.22
913.36	14825.25
913.53	14399.27
913.70	14382.88
913.86	14513.95
914.03	14356.26
914.20	14411.56
914.37	14440.23
914.54	14372.64
914.71	14307.11
914.88	14507.81
915.05	14323.49
915.22	14006.06
915.39	14106.41
915.55	14204.71
915.72	13893.42
915.89	14118.70
916.06	13938.48
916.23	13989.67
916.40	13901.61
916.57	13797.17
916.74	13805.36
916.91	13809.45
917.07	13795.12
917.24	13684.53
917.41	13911.85
917.58	13483.83
917.75	13737.77
917.92	13248.31
918.09	13659.95
918.26	13498.16
918.42	13774.64
918.59	13414.20
918.76	13530.93
918.93	13389.62
919.10	13236.02
919.27	13336.37
919.44	13559.60
919.60	13352.76
919.77	13082.42
919.94	13236.02
920.11	13354.80
920.28	13250.36
920.45	12988.22
920.61	13029.18
920.78	12924.73
920.95	13063.99
921.12	13000.51
921.29	12967.74
921.46	12779.32
921.62	12777.28
921.79	12877.63
921.96	12554.05
922.13	12730.17
922.30	12558.14
922.47	12552.00
922.63	12406.59
922.80	12566.34
922.97	12420.93
923.14	12283.72
923.31	12443.46
923.47	12187.46
923.64	12357.44
923.81	12070.73
923.98	12334.92
924.15	11982.67
924.32	12209.99
924.48	11882.31
924.65	11990.86
924.82	11929.42
924.99	12060.49
925.15	11710.29
925.32	11720.53
925.49	11624.27
925.66	11814.73
925.83	11401.04
925.99	11571.02
926.16	11757.39
926.33	11626.32
926.50	11272.02
926.67	11546.45
926.83	11439.95
927.00	11493.20
927.17	11226.96
927.34	11200.34
927.50	11218.77
927.67	11327.32
927.84	10950.49
928.01	11145.05
928.17	11079.51
928.34	11083.61
928.51	10983.26
928.68	10751.84
928.84	10901.34
929.01	10780.51
929.18	10813.28
929.35	10770.27
929.51	10805.08
929.68	10661.73
929.85	10530.66
930.02	10473.31
930.18	10557.28
930.35	10422.11
930.52	10375.01
930.69	10530.66
930.85	10475.36
931.02	10383.20
931.19	10262.37
931.36	10309.47
931.52	10207.08
931.69	10205.03
931.86	10147.69
932.02	9965.42
932.19	9901.93
932.36	9846.63
932.53	9936.74
932.69	9895.78
932.86	9809.77
933.03	9957.22
933.19	9754.48
933.36	9697.13
933.53	9834.35
933.70	9676.65
933.86	9488.24
934.03	9490.29
934.20	9371.50
934.36	9557.87
934.53	9115.51
934.70	9101.17
934.86	9158.52
935.03	8877.94
935.20	8935.29
935.36	8912.76
935.53	8886.14
935.70	8898.42
935.86	8976.25
936.03	8740.73
936.20	8621.95
936.36	8630.14
936.53	8470.40
936.70	8427.39
936.86	8454.02
937.03	8308.61
937.20	8304.51
937.36	8267.65
937.53	7884.68
937.70	7839.62
937.86	7802.76
938.03	7931.78
938.20	7872.39
938.36	7591.82
938.53	7692.17
938.70	7454.61
938.86	7634.83
939.03	7284.62
939.20	7417.74
939.36	7325.58
939.53	7083.92
939.70	7278.48
939.86	7032.72
940.03	6649.75
940.19	6872.98
940.36	6768.54
940.53	6868.89
940.69	6619.04
940.86	6719.39
941.03	6508.44
941.19	6461.34
941.36	6397.85
941.52	6346.66
941.69	6317.98
941.86	6221.73
942.02	6148.00
942.19	6201.25
942.35	6139.81
942.52	6012.84
942.69	6008.74
942.85	5898.15
943.02	5775.27
943.18	5801.90
943.35	5844.90
943.52	5779.37
943.68	5748.65
943.85	5760.94
944.01	5517.23
944.18	5523.37
944.35	5664.68
944.51	5611.43
944.68	5410.73
944.84	5531.56
945.01	5324.72
945.17	5480.36
945.34	5398.45
945.51	5537.71
945.67	5476.27
945.84	5427.12
946.00	5291.95
946.17	5396.40
946.33	5349.29
946.50	5339.05
946.67	5259.18
946.83	5334.96
947.00	5367.73
947.16	5236.66
947.33	5277.62
947.49	5214.13
947.66	5226.42
947.82	5318.57
947.99	5089.20
948.16	5443.50
948.32	5273.52
948.49	5306.29
948.65	5302.19
948.82	5296.05
948.98	5203.89
949.15	5214.13
949.31	5246.90
949.48	5267.38
949.64	5203.89
949.81	5210.03
949.97	5285.81
950.14	5345.20
950.30	5298.10
950.47	5312.43
950.63	5291.95
950.80	5248.94
950.96	5312.43
951.13	5474.22
951.30	5330.86
951.46	5402.54
951.63	5341.10
951.79	5431.21
951.96	5361.58
952.12	5386.16
952.29	5459.88
952.45	5384.11
952.62	5310.38
952.78	5380.01
952.94	5328.81
953.11	5273.52
953.27	5236.66
953.44	5339.05
953.60	5371.82
953.77	5506.99
953.93	5234.61
954.10	5324.72
954.26	5357.49
954.43	5375.92
954.59	5492.65
954.76	5541.80
954.92	5431.21
955.09	5427.12
955.25	5418.93
955.42	5373.87
955.58	5588.91
955.75	5492.65
955.91	5347.25
956.07	5527.47
956.24	5402.54
956.40	5457.84
956.57	5459.88
956.73	5341.10
956.90	5519.28
957.06	5291.95
957.23	5371.82
957.39	5406.64
957.56	5457.84
957.72	5410.73
957.88	5425.07
958.05	5529.52
958.21	5463.98
958.38	5529.52
958.54	5359.53
958.71	5629.87
958.87	5257.14
959.03	5377.97
959.20	5291.95
959.36	5406.64
959.53	5316.53
959.69	5423.02
959.85	5418.93
960.02	5394.35
960.18	5386.16
960.35	5343.15
960.51	5418.93
960.68	5298.10
960.84	5486.51
961.00	5326.77
961.17	5468.08
961.33	5435.31
961.50	5373.87
961.66	5545.90
961.82	5320.62
961.99	5447.60
962.15	5461.93
962.31	5410.73
962.48	5404.59
962.64	5365.68
962.81	5418.93
962.97	5334.96
963.13	5349.29
963.30	5439.40
963.46	5160.88
963.62	5197.74
963.79	5277.62
963.95	5414.83
964.12	5334.96
964.28	5398.45
964.44	5277.62
964.61	5380.01
964.77	5382.06
964.93	5404.59
965.10	5355.44
965.26	5234.61
965.42	5244.85
965.59	5255.09
965.75	5201.84
965.92	5410.73
966.08	5353.39
966.24	5281.71
966.41	5263.28
966.57	5294.00
966.73	5384.11
966.90	5328.81
967.06	5140.40
967.22	5334.96
967.39	5124.02
967.55	5285.81
967.71	5222.32
967.88	5207.98
968.04	5169.07
968.20	5154.74
968.37	5142.45
968.53	5197.74
968.69	5212.08
968.85	5138.35
969.02	5234.61
969.18	5216.18
969.34	5058.48
969.51	5171.12
969.67	5187.50
969.83	5015.48
970.00	5111.73
970.16	5130.16
970.32	5097.39
970.48	5136.31
970.65	5056.43
970.81	4939.70
970.97	5089.20
971.14	4915.12
971.30	5074.87
971.46	5017.52
971.63	5064.63
971.79	5097.39
971.95	5015.48
972.11	4933.56
972.28	5015.48
972.44	4980.66
972.60	4900.79
972.76	4960.18
972.93	4927.41
973.09	4861.88
973.25	4798.39
973.42	4790.20
973.58	4931.51
973.74	4896.69
973.90	5076.91
974.07	4841.40
974.23	5013.43
974.39	4829.11
974.55	4872.12
974.72	4865.97
974.88	4827.06
975.04	4943.80
975.20	4841.40
975.37	4825.01
975.53	4796.34
975.69	4769.72
975.85	4767.67
976.01	4648.89
976.18	4710.33
976.34	4804.53
976.50	4730.81
976.66	4771.77
976.83	4710.33
976.99	4782.01
977.15	4571.07
977.31	4616.12
977.47	4708.28
977.64	4554.68
977.80	4607.93
977.96	4560.83
978.12	4612.03
978.29	4624.31
978.45	4509.63
978.61	4476.86
978.77	4609.98
978.93	4491.20
979.10	4478.91
979.26	4417.47
979.42	4513.72
979.58	4351.93
979.74	4425.66
979.91	4476.86
980.07	4509.63
980.23	4409.28
980.39	4452.28
980.55	4612.03
980.71	4351.93
980.88	4356.03
981.04	4421.56
981.20	4425.66
981.36	4532.15
981.52	4405.18
981.68	4286.40
981.85	4493.24
982.01	4444.09
982.17	4325.31
982.33	4356.03
982.49	4374.46
982.65	4212.67
982.82	4323.26
982.98	4325.31
983.14	4163.52
983.30	4374.46
983.46	4347.84
983.62	4362.17
983.79	4208.58
983.95	4263.87
984.11	4108.23
984.27	4208.58
984.43	4257.73
984.59	4194.24
984.75	4263.87
984.91	4052.93
985.08	4097.99
985.24	4065.22
985.40	4040.64
985.56	4194.24
985.72	4112.32
985.88	4249.54
986.04	4020.16
986.20	4003.78
986.37	4116.42
986.53	4063.17
986.69	4020.16
986.85	4095.94
987.01	4052.93
987.17	4089.79
987.33	4018.11
987.49	3985.35
987.65	4036.55
987.82	3995.59
987.98	4024.26
988.14	3968.96
988.30	3936.20
988.46	3968.96
988.62	3919.81
988.78	4005.83
988.94	3934.15
989.10	3844.04
989.26	3794.89
989.42	3971.01
989.59	3821.51
989.75	3878.85
989.91	3889.09
990.07	3827.65
990.23	3805.13
990.39	3776.45
990.55	3770.31
990.71	3676.10
990.87	3764.17
991.03	3856.33
991.19	3735.50
991.35	3733.45
991.51	3864.52
991.67	3706.82
991.83	3739.59
992.00	3682.25
992.16	3762.12
992.32	3712.97
992.48	3706.82
992.64	3719.11
992.80	3735.50
992.96	3639.24
993.12	3633.10
993.28	3753.93
993.44	3674.06
993.60	3753.93
993.76	3733.45
993.92	3696.58
994.08	3686.34
994.24	3665.86
994.40	3651.53
994.56	3608.52
994.72	3463.12
994.88	3491.79
995.04	3567.56
995.20	3434.44
995.36	3549.13
995.52	3497.93
995.68	3542.99
995.84	3475.40
996.00	3692.49
996.16	3606.47
996.32	3401.68
996.48	3368.91
996.64	3540.94
996.80	3495.88
996.96	3475.40
997.12	3436.49
997.28	3373.00
997.44	3428.30
997.60	3454.92
997.76	3516.36
997.92	3450.83
998.08	3350.48
998.24	3299.28
998.40	3344.33
998.56	3366.86
998.72	3301.33
998.88	3268.56
999.04	3262.41
999.20	3330.00
999.36	3276.75
999.52	3440.59
999.68	3381.20
999.84	3303.37
1000.00	3399.63
1000.16	3389.39
1000.32	3200.98
1000.48	3352.52
1000.64	3194.83
1000.80	3250.13
1000.95	3174.35
1001.11	3319.76
1001.27	3114.96
1001.43	3278.80
1001.59	3145.68
1001.75	3192.78
1001.91	3276.75
1002.07	3147.73
1002.23	3215.31
1002.39	3147.73
1002.55	3096.53
1002.71	3133.39
1002.87	3190.74
1003.03	2994.13
1003.19	3198.93
1003.34	3149.78
1003.50	3137.49
1003.66	3139.54
1003.82	3125.20
1003.98	3002.32
1004.14	3125.20
1004.30	3006.42
1004.46	3061.71
1004.62	3004.37
1004.78	3100.62
1004.94	3082.19
1005.09	3049.43
1005.25	3088.34
1005.41	2979.79
1005.57	2969.55
1005.73	3041.23
1005.89	2953.17
1006.05	2977.75
1006.21	3086.29
1006.37	2899.92
1006.52	2957.27
1006.68	2863.06
1006.84	3008.47
1007.00	2940.88
1007.16	3026.90
1007.32	2877.40
1007.48	2947.03
1007.64	2869.20
1007.79	2928.60
1007.95	2836.44
1008.11	2967.51
1008.27	2869.20
1008.43	2928.60
1008.59	2826.20
1008.75	2891.73
1008.91	2858.96
1009.06	2908.12
1009.22	2826.20
1009.38	2858.96
1009.54	2850.77
1009.70	2742.23
1009.86	2815.96
1010.01	2820.05
1010.17	2746.33
1010.33	2852.82
1010.49	2711.51
1010.65	2836.44
1010.81	2719.70
1010.96	2752.47
1011.12	2709.46
1011.28	2648.02
1011.44	2738.13
1011.60	2703.32
1011.76	2713.56
1011.91	2764.76
1012.07	2693.08
1012.23	2645.98
1012.39	2574.30
1012.55	2719.70
1012.71	2699.22
1012.86	2652.12
1013.02	2598.87
1013.18	2617.30
1013.34	2633.69
1013.50	2672.60
1013.65	2602.97
1013.81	2609.11
1013.97	2584.54
1014.13	2600.92
1014.29	2654.17
1014.44	2613.21
1014.60	2650.07
1014.76	2641.88
1014.92	2553.82
1015.07	2617.30
1015.23	2637.78
1015.39	2559.96
1015.55	2531.29
1015.71	2611.16
1015.86	2428.89
1016.02	2494.43
1016.18	2426.84
1016.34	2531.29
1016.49	2584.54
1016.65	2537.43
1016.81	2471.90
1016.97	2455.51
1017.12	2535.39
1017.28	2437.08
1017.44	2412.51
1017.60	2469.85
1017.75	2443.23
1017.91	2420.70
1018.07	2484.19
1018.23	2359.26
1018.38	2424.80
1018.54	2420.70
1018.70	2412.51
1018.86	2398.17
1019.01	2392.03
1019.17	2371.55
1019.33	2539.48
1019.49	2510.81
1019.64	2426.84
1019.80	2478.04
1019.96	2441.18
1020.12	2408.41
1020.27	2392.03
1020.43	2426.84
1020.59	2373.60
1020.74	2412.51
1020.90	2420.70
1021.06	2383.84
1021.22	2338.78
1021.37	2371.55
1021.53	2269.15
1021.69	2396.12
1021.84	2267.10
1022.00	2285.53
1022.16	2260.96
1022.31	2314.20
1022.47	2306.01
1022.63	2322.40
1022.79	2273.25
1022.94	2265.05
1023.10	2295.77
1023.26	2346.97
1023.41	2234.33
1023.57	2275.29
1023.73	2248.67
1023.88	2336.73
1024.04	2277.34
1024.20	2232.29
1024.35	2250.72
1024.51	2353.12
1024.67	2191.33
1024.82	2330.59
1024.98	2109.41
1025.14	2211.81
1025.29	2193.37
1025.45	2285.53
1025.61	2260.96
1025.76	2185.18
1025.92	2267.10
1026.08	2263.01
1026.23	2263.01
1026.39	2263.01
1026.55	2142.18
1026.70	2138.08
1026.86	2197.47
1027.02	2226.14
1027.17	2191.33
1027.33	2275.29
1027.48	2115.55
1027.64	2181.09
1027.80	2105.31
1027.95	2215.90
1028.11	2009.06
1028.27	2183.13
1028.42	2140.13
1028.58	2123.74
1028.73	2099.17
1028.89	2093.02
1029.05	2213.85
1029.20	2158.56
>>>>>End Processed Spectral Data<<<<<
