SpectraSuite Data File
++++++++++++++++++++++++++++++++++++
Date: Fri Jun 02 14:53:35 CEST 2017
User: INFO_000
Dark Spectrum Present: No
Reference Spectrum Present: No
Number of Sampled Component Spectra: 1
Spectrometers: USB4H00879
Integration Time (usec): 80000 (USB4H00879)
Spectra Averaged: 1 (USB4H00879)
Boxcar Smoothing: 0 (USB4H00879)
Correct for Electrical Dark: No (USB4H00879)
Strobe/Lamp Enabled: No (USB4H00879)
Correct for Detector Non-linearity: No (USB4H00879)
Correct for Stray Light: No (USB4H00879)
Number of Pixels in Processed Spectrum: 3648
>>>>>Begin Processed Spectral Data<<<<<
345.13	1279.98
345.34	1279.98
345.56	1279.98
345.78	1271.79
345.99	1296.36
346.21	1726.44
346.42	1626.09
346.64	1673.19
346.86	1802.21
347.07	1626.09
347.29	1746.92
347.50	1665.00
347.72	1705.96
347.94	1718.25
348.15	1562.60
348.37	1595.37
348.59	1732.58
348.80	1669.09
349.02	1777.64
349.23	1888.23
349.45	1910.75
349.67	1853.41
349.88	1818.60
350.10	1974.24
350.31	1871.84
350.53	1830.88
350.75	1978.34
350.96	1763.30
351.18	1869.80
351.39	1890.28
351.61	1781.73
351.82	1882.08
352.04	1961.95
352.26	1871.84
352.47	1892.32
352.69	1929.19
352.90	1769.44
353.12	1867.75
353.34	1880.04
353.55	1994.72
353.77	1875.94
353.98	1808.36
354.20	1834.98
354.41	1941.47
354.63	1877.99
354.85	1953.76
355.06	1923.04
355.28	1830.88
355.49	1880.04
355.71	1834.98
355.92	1828.84
356.14	1914.85
356.35	1814.50
356.57	1886.18
356.79	1902.56
357.00	1863.65
357.22	1896.42
357.43	1929.19
357.65	1898.47
357.86	1918.95
358.08	1896.42
358.29	1986.53
358.51	1961.95
358.72	2004.96
358.94	1984.48
359.16	1931.23
359.37	1970.15
359.59	1982.43
359.80	1951.71
360.02	1966.05
360.23	2011.11
360.45	1927.14
360.66	2017.25
360.88	1904.61
361.09	1929.19
361.31	1968.10
361.52	1957.86
361.74	2054.11
361.95	2076.64
362.17	1984.48
362.38	2093.02
362.60	2007.01
362.81	2000.87
363.03	1892.32
363.24	2064.35
363.46	2050.02
363.67	1951.71
363.89	2033.63
364.10	2004.96
364.32	1916.90
364.53	2025.44
364.75	1933.28
364.96	2002.91
365.18	1957.86
365.39	1992.67
365.61	1978.34
365.82	2086.88
366.04	1951.71
366.25	2007.01
366.47	2025.44
366.68	2099.17
366.90	2078.69
367.11	2070.50
367.33	2101.22
367.54	2074.59
367.76	1992.67
367.97	1984.48
368.19	2007.01
368.40	2142.18
368.62	2007.01
368.83	2072.54
369.05	2101.22
369.26	2009.06
369.48	2015.20
369.69	2009.06
369.91	2023.39
370.12	2027.49
370.33	2148.32
370.55	2058.21
370.76	2121.70
370.98	2170.85
371.19	2105.31
371.41	1974.24
371.62	2099.17
371.84	2002.91
372.05	2199.52
372.27	2027.49
372.48	2084.83
372.69	2131.94
372.91	2109.41
373.12	2154.46
373.34	2076.64
373.55	2170.85
373.77	2189.28
373.98	2093.02
374.20	2150.37
374.41	2318.30
374.62	2097.12
374.84	2224.09
375.05	2203.61
375.27	2138.08
375.48	2158.56
375.70	2166.75
375.91	2232.29
376.12	2273.25
376.34	2138.08
376.55	2256.86
376.77	2172.89
376.98	2058.21
377.19	2187.23
377.41	2215.90
377.62	2172.89
377.84	2308.06
378.05	2379.74
378.27	2263.01
378.48	2332.64
378.69	2306.01
378.91	2256.86
379.12	2265.05
379.34	2213.85
379.55	2314.20
379.76	2330.59
379.98	2224.09
380.19	2312.16
380.41	2306.01
380.62	2346.97
380.83	2263.01
381.05	2162.66
381.26	2430.94
381.47	2220.00
381.69	2279.39
381.90	2422.75
382.12	2332.64
382.33	2306.01
382.54	2346.97
382.76	2330.59
382.97	2326.49
383.19	2289.63
383.40	2308.06
383.61	2326.49
383.83	2220.00
384.04	2361.31
384.25	2451.42
384.47	2441.18
384.68	2400.22
384.89	2314.20
385.11	2312.16
385.32	2478.04
385.54	2332.64
385.75	2289.63
385.96	2387.93
386.18	2416.60
386.39	2447.32
386.60	2375.64
386.82	2435.03
387.03	2432.99
387.24	2447.32
387.46	2514.91
387.67	2473.95
387.88	2475.99
388.10	2447.32
388.31	2355.16
388.52	2512.86
388.74	2621.40
388.95	2490.33
389.16	2519.00
389.38	2510.81
389.59	2594.78
389.80	2574.30
390.02	2482.14
390.23	2705.37
390.44	2545.63
390.66	2635.74
390.87	2539.48
391.08	2600.92
391.30	2725.85
391.51	2684.89
391.72	2781.14
391.94	2662.36
392.15	2617.30
392.36	2629.59
392.58	2568.15
392.79	2621.40
393.00	2684.89
393.22	2779.09
393.43	2703.32
393.64	2750.42
393.85	2801.62
394.07	2693.08
394.28	2762.71
394.49	2867.16
394.71	2822.10
394.92	2891.73
395.13	2717.65
395.35	2797.53
395.56	2750.42
395.77	2772.95
395.98	2865.11
396.20	2877.40
396.41	2813.91
396.62	2873.30
396.84	2861.01
397.05	2793.43
397.26	2850.77
397.47	2963.41
397.69	2762.71
397.90	3084.24
398.11	2877.40
398.32	2764.76
398.54	2914.26
398.75	2938.84
398.96	3043.28
399.18	2975.70
399.39	2936.79
399.60	3047.38
399.81	2969.55
400.03	2981.84
400.24	3338.19
400.45	2971.60
400.66	3022.80
400.88	3078.10
401.09	3196.88
401.30	3020.75
401.51	3235.79
401.73	3074.00
401.94	3250.13
402.15	3164.11
402.36	3155.92
402.58	3139.54
402.79	3227.60
403.00	3100.62
403.21	3164.11
403.43	3284.94
403.64	3289.04
403.85	3182.54
404.06	3174.35
404.27	3125.20
404.49	3182.54
404.70	3205.07
404.91	3172.30
405.12	3227.60
405.34	3237.84
405.55	3354.57
405.76	3090.38
405.97	3262.41
406.19	3418.06
406.40	3266.51
406.61	3459.02
406.82	3370.96
407.03	3315.66
407.25	3315.66
407.46	3532.75
407.67	3489.74
407.88	3463.12
408.09	3401.68
408.31	3434.44
408.52	3350.48
408.73	3303.37
408.94	3389.39
409.15	3430.35
409.37	3567.56
409.58	3516.36
409.79	3489.74
410.00	3518.41
410.21	3416.01
410.43	3477.45
410.64	3428.30
410.85	3524.55
411.06	3516.36
411.27	3579.85
411.48	3600.33
411.70	3583.95
411.91	3502.03
412.12	3665.86
412.33	3579.85
412.54	3563.47
412.76	3774.41
412.97	3715.02
413.18	3542.99
413.39	3657.67
413.60	3704.78
413.81	3704.78
414.03	3622.86
414.24	3620.81
414.45	3766.21
414.66	3678.15
414.87	3743.69
415.08	3725.26
415.30	3708.87
415.51	3815.37
415.72	3717.06
415.93	3686.34
416.14	3858.37
416.35	3817.41
416.56	3827.65
416.78	3829.70
416.99	3897.28
417.20	3917.76
417.41	3925.96
417.62	3882.95
417.83	3915.72
418.04	3895.24
418.26	4007.87
418.47	3885.00
418.68	4011.97
418.89	3999.68
419.10	4177.86
419.31	3964.87
419.52	4071.36
419.73	3944.39
419.95	4124.61
420.16	3919.81
420.37	4124.61
420.58	4202.43
420.79	4042.69
421.00	4106.18
421.21	4057.03
421.42	4157.38
421.63	4290.49
421.85	4116.42
422.06	4364.22
422.27	4216.77
422.48	4229.06
422.69	4384.70
422.90	4339.65
423.11	4364.22
423.32	4489.15
423.53	4399.04
423.75	4399.04
423.96	4562.87
424.17	4513.72
424.38	4624.31
424.59	4489.15
424.80	4673.46
425.01	4444.09
425.22	4589.50
425.43	4577.21
425.64	4759.48
425.85	4736.95
426.06	4622.27
426.28	4616.12
426.49	4542.39
426.70	4675.51
426.91	4638.65
427.12	4677.56
427.33	4724.66
427.54	4673.46
427.75	4673.46
427.96	4888.50
428.17	4689.85
428.38	4835.25
428.59	5023.67
428.80	4937.65
429.01	4947.89
429.23	4947.89
429.44	5029.81
429.65	5001.14
429.86	5185.46
430.07	4970.42
430.28	4962.23
430.49	5101.49
430.70	5201.84
430.91	5136.31
431.12	4972.47
431.33	5185.46
431.54	5173.17
431.75	5191.60
431.96	5246.90
432.17	5234.61
432.38	5103.54
432.59	5486.51
432.80	5205.94
433.01	5349.29
433.22	5476.27
433.43	5451.69
433.64	5453.74
433.85	5330.86
434.06	5566.38
434.27	5388.21
434.49	5586.86
434.70	5638.06
434.91	5762.98
435.12	5603.24
435.33	5500.84
435.54	5332.91
435.75	5418.93
435.96	5574.57
436.17	5459.88
436.38	5791.66
436.59	5623.72
436.80	5574.57
437.01	5982.12
437.22	5926.82
437.43	5754.79
437.64	5691.31
437.85	5801.90
438.06	5996.45
438.27	5740.46
438.48	5676.97
438.69	5851.05
438.90	5808.04
439.11	5785.51
439.32	5900.20
439.53	6115.23
439.74	5988.26
439.95	6012.84
440.16	5978.02
440.37	5863.33
440.57	5885.86
440.78	5877.67
440.99	6131.62
441.20	6113.19
441.41	5832.62
441.62	6117.28
441.83	5879.72
442.04	6035.36
442.25	6053.80
442.46	6107.04
442.67	6191.01
442.88	6606.75
443.09	6021.03
443.30	6150.05
443.51	6215.59
443.72	6412.19
443.93	6203.30
444.14	6356.90
444.35	6072.23
444.56	6299.55
444.77	6272.93
444.98	6342.56
445.19	6352.80
445.40	6393.76
445.61	6311.84
445.81	6598.56
446.02	6520.73
446.23	6303.65
446.44	6404.00
446.65	6576.03
446.86	6545.31
447.07	6680.47
447.28	6664.09
447.49	6725.53
447.70	6522.78
447.91	6748.06
448.12	6586.27
448.33	6813.59
448.54	6651.80
448.74	6539.16
448.95	6748.06
449.16	6774.68
449.37	6963.09
449.58	6758.30
449.79	7034.77
450.00	6670.23
450.21	6840.22
450.42	6926.23
450.63	7028.63
450.84	6973.33
451.05	6907.80
451.25	6954.90
451.46	6981.53
451.67	6999.96
451.88	7270.29
452.09	7178.13
452.30	7014.29
452.51	7131.03
452.72	7092.12
452.93	7409.55
453.13	7118.74
453.34	7180.18
453.55	7217.04
453.76	7085.97
453.97	7585.68
454.18	7319.44
454.39	7489.42
454.60	7462.80
454.81	7524.24
455.01	7616.40
455.22	7325.58
455.43	7591.82
455.64	7737.23
455.85	7866.25
456.06	7987.08
456.27	7743.37
456.48	7780.23
456.68	7864.20
456.89	7806.86
457.10	7987.08
457.31	7839.62
457.52	7802.76
457.73	8081.28
457.94	8228.74
458.14	8032.13
458.35	8490.88
458.56	8144.77
458.77	8241.03
458.98	8189.83
459.19	8071.04
459.39	8312.71
459.60	8460.16
459.81	8271.75
460.02	8601.47
460.23	8402.82
460.44	8712.06
460.65	8605.56
460.85	8664.96
461.06	8566.65
461.27	8533.89
461.48	8968.06
461.69	8996.73
461.89	8605.56
462.10	8918.90
462.31	8654.72
462.52	8890.23
462.73	8908.66
462.94	9187.19
463.14	9068.41
463.35	9097.08
463.56	9500.53
463.77	9289.59
463.98	9160.56
464.18	9295.73
464.39	9416.56
464.60	9647.98
464.81	9498.48
465.02	9320.31
465.23	9592.69
465.43	9572.21
465.64	9799.53
465.85	9744.24
466.06	9787.24
466.27	10219.36
466.47	9959.27
466.68	10026.86
466.89	10102.63
467.10	9834.35
467.30	9801.58
467.51	10157.92
467.72	10555.23
467.93	10157.92
468.14	10360.67
468.34	10471.26
468.55	10569.57
468.76	10651.49
468.97	10561.37
469.17	10778.46
469.38	10649.44
469.59	10950.49
469.80	10903.39
470.01	10932.06
470.21	10887.00
470.42	11358.03
470.63	11306.84
470.84	11272.02
471.04	11364.18
471.25	11489.10
471.46	11474.77
471.67	11767.63
471.87	11487.06
472.08	11743.05
472.29	11822.92
472.50	11501.39
472.70	11685.71
472.91	12152.65
473.12	12103.50
473.33	12171.08
473.53	12375.88
473.74	12093.26
473.95	12369.73
474.16	12566.34
474.36	12414.79
474.57	12678.97
474.78	12914.49
474.99	12717.89
475.19	12545.86
475.40	13084.47
475.61	13293.37
475.81	13061.94
476.02	13442.87
476.23	13451.06
476.44	13467.44
476.64	13641.52
476.85	13840.17
477.06	13768.49
477.27	13954.86
477.47	13897.52
477.68	13997.87
477.89	14356.26
478.09	14249.77
478.30	14202.66
478.51	14436.13
478.71	14382.88
478.92	14661.41
479.13	14675.74
479.34	15157.02
479.54	14753.57
479.75	14935.84
479.96	14974.75
480.16	15355.67
480.37	15222.55
480.58	15359.77
480.78	15656.72
480.99	15533.84
481.20	15589.14
481.41	15800.08
481.61	15828.75
481.82	15961.87
482.03	15847.18
482.23	16111.37
482.44	16203.53
482.65	16504.58
482.85	16563.97
483.06	16469.76
483.27	16561.92
483.47	16686.85
483.68	16746.24
483.89	16779.01
484.09	17004.28
484.30	17030.91
484.51	17166.07
484.71	17188.60
484.92	17084.16
485.13	17469.17
485.33	17442.55
485.54	17270.52
485.75	17782.51
485.95	17823.47
486.16	17983.21
486.37	18067.18
486.57	18243.31
486.78	18003.69
486.98	18112.24
487.19	18450.15
487.40	18650.85
487.60	18444.01
487.81	18685.67
488.02	18685.67
488.22	18831.07
488.43	18839.26
488.64	18921.18
488.84	18992.86
489.05	19080.92
489.25	19044.06
489.46	19465.94
489.67	19295.96
489.87	19531.48
490.08	19574.49
490.29	19871.44
490.49	19916.50
490.70	20016.85
490.90	19943.12
491.11	19871.44
491.32	20164.30
491.52	20143.82
491.73	20365.00
491.94	20369.10
492.14	20291.27
492.35	20676.29
492.55	20516.55
492.76	20920.00
492.97	21077.69
493.17	20809.41
493.38	21038.78
493.58	21051.07
493.79	21272.25
494.00	21069.50
494.20	21296.83
494.41	21247.68
494.61	21546.68
494.82	21464.76
495.02	21710.52
495.23	21630.65
495.44	21900.98
495.64	21808.82
495.85	22013.62
496.05	22183.60
496.26	21954.22
496.47	22335.15
496.67	22296.24
496.88	22195.89
497.08	22501.03
497.29	22501.03
497.49	22652.58
497.70	23000.74
497.91	22771.36
498.11	22865.57
498.32	22718.12
498.52	22910.63
498.73	23002.78
498.93	23062.18
499.14	23219.87
499.34	23305.88
499.55	23500.44
499.76	23277.21
499.96	23289.50
500.17	23504.54
500.37	23588.50
500.58	23178.91
500.78	23631.51
500.99	23752.34
501.19	23781.01
501.40	23981.71
501.60	23701.14
501.81	23793.30
502.02	23977.62
502.22	23953.04
502.43	24237.71
502.63	24252.05
502.84	24409.74
503.04	24411.79
503.25	24245.90
503.45	24524.43
503.66	24954.50
503.86	24313.48
504.07	24811.14
504.27	24551.05
504.48	24958.60
504.68	24626.82
504.89	25001.60
505.09	24852.10
505.30	25083.52
505.50	24977.03
505.71	25382.52
505.91	25165.44
506.12	25345.66
506.32	25224.83
506.53	25392.76
506.73	25529.98
506.94	25587.32
507.14	25431.68
507.35	25665.14
507.55	25548.41
507.76	25669.24
507.96	25704.06
508.17	25820.79
508.37	25865.85
508.58	26011.25
508.78	25693.82
508.99	26142.32
509.19	26257.01
509.40	25896.56
509.60	26107.51
509.81	25943.67
510.01	26109.55
510.22	26199.66
510.42	26271.34
510.63	26148.46
510.83	26480.24
511.04	26547.82
511.24	26252.91
511.44	26562.15
511.65	26549.87
511.85	26312.30
512.06	26760.81
512.26	26560.11
512.47	26537.58
512.67	26916.45
512.88	26502.76
513.08	26418.80
513.29	26879.59
513.49	26580.59
513.69	26938.98
513.90	26816.10
514.10	26922.60
514.31	26986.08
514.51	27360.86
514.72	27258.46
514.92	27305.57
515.13	27203.17
515.33	27332.19
515.53	27485.79
515.74	27606.62
515.94	27559.52
516.15	27602.52
516.35	27326.05
516.56	27915.86
516.76	27887.19
516.96	28030.55
517.17	27739.74
517.37	28198.48
517.58	27766.36
517.78	27903.57
517.99	27975.25
518.19	28526.16
518.39	28253.78
518.60	28554.83
518.80	28071.51
519.01	28436.05
519.21	28354.13
519.41	28563.02
519.62	28354.13
519.82	28835.40
520.03	28739.15
520.23	29075.01
520.43	28565.07
520.64	29017.67
520.84	29132.36
521.05	28952.13
521.25	29306.43
521.45	29201.99
521.66	29437.50
521.86	29314.62
522.07	29179.46
522.27	29191.75
522.47	29300.29
522.68	29933.11
522.88	29492.80
523.08	29863.48
523.29	29646.40
523.49	29816.38
523.70	29740.60
523.90	30006.84
524.10	30090.80
524.31	30119.48
524.51	30119.48
524.71	30287.41
524.92	30252.59
525.12	30707.24
525.33	30516.78
525.53	30527.02
525.73	30604.84
525.94	30930.47
526.14	30899.75
526.34	31155.75
526.55	31010.34
526.75	31084.07
526.95	31309.35
527.16	31245.86
527.36	31348.26
527.56	31508.00
527.77	31682.08
527.97	31823.39
528.17	31671.84
528.38	31905.31
528.58	32175.64
528.78	31925.78
528.99	32255.51
529.19	32554.51
529.39	31942.17
529.60	32740.88
529.80	32368.15
530.00	32239.12
530.21	32960.01
530.41	32914.95
530.61	33097.22
530.82	32779.79
531.02	32691.73
531.22	33240.58
531.43	33234.44
531.63	33265.16
531.83	33363.46
532.04	33805.82
532.24	33211.91
532.44	33768.96
532.64	33906.17
532.85	34192.89
533.05	33840.64
533.25	34125.30
533.46	34317.81
533.66	34928.11
533.86	34438.64
534.07	34813.42
534.27	34647.54
534.47	35175.91
534.67	34760.17
534.88	35085.80
535.08	34944.49
535.28	35069.42
535.49	35401.19
535.69	35681.76
535.89	35861.98
536.09	35763.68
536.30	35622.37
536.50	35610.08
536.70	35759.58
536.91	35765.73
537.11	35771.87
537.31	36406.74
537.51	36144.60
537.72	36142.55
537.92	36443.60
538.12	36777.42
538.32	36451.80
538.53	36419.03
538.73	36259.29
538.93	36836.81
539.13	36789.71
539.34	37268.94
539.54	37025.23
539.74	37096.91
539.94	37041.61
540.15	37219.78
540.35	37801.41
540.55	37502.40
540.75	37721.54
540.96	38014.40
541.16	37934.53
541.36	38133.18
541.56	37803.46
541.77	38127.03
541.97	38081.98
542.17	38262.20
542.37	38274.49
542.58	38331.83
542.78	38452.66
542.98	38460.85
543.18	38491.57
543.38	38735.28
543.59	39099.82
543.79	38602.16
543.99	39007.66
544.19	39531.94
544.40	39056.81
544.60	39413.16
544.80	39347.62
545.00	39263.66
545.20	39882.14
545.41	39321.00
545.61	39902.62
545.81	39769.51
546.01	39914.91
546.21	39912.86
546.42	39574.95
546.62	40347.03
546.82	39714.21
547.02	40158.62
547.22	40152.48
547.43	40091.04
547.63	40451.48
547.83	40471.96
548.03	40203.67
548.23	40617.36
548.44	40926.61
548.64	40873.36
548.84	40760.72
549.04	40703.38
549.24	41010.57
549.45	40797.59
549.65	41262.47
549.85	41024.91
550.05	41532.81
550.25	41184.65
550.45	41483.66
550.66	41219.47
550.86	41217.42
551.06	41538.95
551.26	41448.84
551.46	41809.28
551.66	41809.28
551.87	41706.88
552.07	41592.20
552.27	41659.78
552.47	42059.13
552.67	42198.40
552.87	42009.98
553.07	42139.00
553.28	42249.60
553.48	42278.27
553.68	42237.31
553.88	42804.59
554.08	42331.51
554.28	42591.61
554.48	42296.70
554.69	42833.27
554.89	42349.95
555.09	42710.39
555.29	42415.48
555.49	42339.71
555.69	42841.46
555.89	42845.55
556.10	42886.51
556.30	42851.70
556.50	43107.69
556.70	43128.17
556.90	43322.73
557.10	43564.39
557.30	42894.71
557.50	43087.21
557.70	43146.61
557.91	43582.82
558.11	43527.53
558.31	43814.24
558.51	43685.22
558.71	43523.43
558.91	43865.44
559.11	43425.13
559.31	43738.47
559.51	43398.51
559.72	43758.95
559.92	43795.81
560.12	43548.01
560.32	43986.27
560.52	43621.73
560.72	44119.39
560.92	43824.48
561.12	43830.63
561.32	44569.94
561.52	44123.49
561.72	44311.90
561.93	44086.62
562.13	44365.15
562.33	44225.89
562.53	44848.47
562.73	43857.25
562.93	44186.97
563.13	44275.04
563.33	44858.71
563.53	45024.59
563.73	44440.92
563.93	44625.24
564.13	44823.89
564.33	44578.14
564.53	44574.04
564.74	44588.38
564.94	44795.22
565.14	44797.27
565.34	45145.42
565.54	44901.71
565.74	44832.08
565.94	45102.42
566.14	45114.70
566.34	44932.43
566.54	45200.72
566.74	45090.13
566.94	45464.91
567.14	45491.53
567.34	45385.04
567.54	45315.40
567.74	45274.45
567.94	45077.84
568.14	45579.59
568.34	45372.75
568.54	45503.82
568.74	45622.60
568.94	45430.09
569.14	45845.83
569.34	45868.36
569.54	45315.40
569.75	45757.77
569.95	45632.84
570.15	46253.37
570.35	45583.69
570.55	46146.88
570.75	45804.87
570.95	45696.33
571.15	46202.18
571.35	45823.30
571.55	46265.66
571.75	45995.33
571.95	46327.10
572.15	45954.37
572.35	46294.33
572.55	45884.74
572.75	46384.44
572.95	46122.30
573.15	46267.71
573.35	46331.20
573.55	45978.95
573.75	46300.48
573.95	46656.82
574.15	46312.77
574.35	47002.93
574.55	46222.65
574.75	46552.38
574.95	46175.55
575.15	46443.84
575.34	46691.64
575.54	47281.45
575.74	46521.66
575.94	46855.48
576.14	46843.19
576.34	46839.09
576.54	46939.44
576.74	46632.25
576.94	47154.48
577.14	47080.75
577.34	47764.78
577.54	47084.85
577.74	46873.91
577.94	47545.64
578.14	46996.79
578.34	47478.06
578.54	46701.88
578.74	47240.50
578.94	47285.55
579.14	47279.41
579.34	47414.57
579.54	47336.75
579.74	48012.58
579.94	47400.24
580.13	47770.92
580.33	47736.10
580.53	47783.21
580.73	47451.44
580.93	47725.86
581.13	47678.76
581.33	47863.08
581.53	48354.59
581.73	47840.55
581.93	48151.84
582.13	48442.65
582.33	48629.02
582.53	48082.21
582.73	48157.99
582.92	48203.04
583.12	48200.99
583.32	48239.90
583.52	47815.97
583.72	48264.48
583.92	48026.92
584.12	48610.59
584.32	48463.13
584.52	48336.16
584.72	48741.66
584.92	48737.56
585.11	49069.33
585.31	48655.64
585.51	48661.79
585.71	48715.03
585.91	48944.41
586.11	48543.00
586.31	49028.37
586.51	48999.70
586.71	48907.54
586.91	49161.49
587.10	49038.61
587.30	49087.76
587.50	49024.28
587.70	49257.74
587.90	49073.43
588.10	49218.83
588.30	49095.95
588.50	49644.81
588.69	49235.22
588.89	48870.68
589.09	49169.68
589.29	49384.72
589.49	49523.98
589.69	49173.78
589.89	49964.29
590.08	49399.05
590.28	49464.59
590.48	49913.09
590.68	49583.37
590.88	49536.27
591.08	49874.18
591.28	49464.59
591.47	49919.24
591.67	49687.82
591.87	49667.34
592.07	49923.33
592.27	49988.87
592.47	49689.87
592.67	49610.00
592.86	49986.82
593.06	49954.05
593.26	49865.99
593.46	50478.33
593.66	49911.05
593.86	50019.59
594.05	50029.83
594.25	50185.47
594.45	50095.36
594.65	50345.22
594.85	49992.97
595.05	50703.61
595.24	50478.33
595.44	50105.60
595.64	50414.85
595.84	50136.32
596.04	50404.61
596.23	50191.62
596.43	50816.25
596.63	50255.11
596.83	50746.62
597.03	51008.76
597.22	50918.65
597.42	50738.43
597.62	50894.07
597.82	50517.25
598.02	51272.95
598.21	51008.76
598.41	50824.44
598.61	51041.53
598.81	51154.16
599.01	51279.09
599.20	51098.87
599.40	51238.13
599.60	51231.99
599.80	51229.94
600.00	51451.12
600.19	51612.91
600.39	51021.05
600.59	51377.39
600.79	51574.00
600.98	51125.49
601.18	52085.99
601.38	51815.66
601.58	51526.89
601.78	51762.41
601.97	51578.09
602.17	52255.97
602.37	51795.18
602.57	51883.24
602.76	52036.84
602.96	51705.07
603.16	52172.00
603.36	52126.95
603.55	52731.10
603.75	52110.56
603.95	52307.17
604.15	52450.53
604.34	52313.31
604.54	52450.53
604.74	52368.61
604.94	52305.12
605.13	52217.06
605.33	52301.03
605.53	52221.16
605.73	53093.59
605.92	52135.14
606.12	53327.06
606.32	52948.18
606.52	52618.46
606.71	52819.16
606.91	52845.79
607.11	52544.73
607.30	53165.27
607.50	53011.67
607.70	53091.54
607.90	53054.68
608.09	53028.05
608.29	53079.25
608.49	53437.65
608.68	53132.50
608.88	52972.76
609.08	53273.81
609.28	53132.50
609.47	53288.15
609.67	53443.79
609.87	53103.83
610.06	53187.80
610.26	53269.72
610.46	53124.31
610.66	53282.00
610.85	53339.35
611.05	53286.10
611.25	53667.02
611.44	53048.53
611.64	53478.61
611.84	53699.79
612.03	53101.78
612.23	53607.63
612.43	53662.93
612.62	52983.00
612.82	53914.83
613.02	53794.00
613.21	53644.49
613.41	53427.41
613.61	53818.57
613.80	53546.19
614.00	53765.32
614.20	53863.63
614.39	53499.09
614.59	53554.38
614.79	53826.76
614.98	53667.02
615.18	53814.47
615.38	53808.33
615.57	53636.30
615.77	53859.53
615.97	54093.00
616.16	53970.12
616.36	53458.13
616.56	54437.06
616.75	53984.46
616.95	53746.89
617.15	53740.75
617.34	53912.78
617.54	53916.87
617.74	54559.94
617.93	53990.60
618.13	53593.29
618.32	54140.10
618.52	53839.05
618.72	53914.83
618.91	54170.82
619.11	53978.31
619.31	54023.37
619.50	53976.26
619.70	53617.87
619.90	54111.43
620.09	54093.00
620.29	53812.43
620.48	53609.68
620.68	54731.96
620.88	53824.71
621.07	54248.64
621.27	54093.00
621.46	53814.47
621.66	54052.04
621.86	54017.22
622.05	53855.43
622.25	54435.01
622.44	54457.54
622.64	54119.62
622.84	54301.89
623.03	54017.22
623.23	54197.44
623.42	53984.46
623.62	54117.57
623.82	54609.09
624.01	54500.54
624.21	54023.37
624.40	54285.51
624.60	54211.78
624.80	53548.24
624.99	54158.53
625.19	54265.03
625.38	54297.80
625.58	54406.34
625.77	54074.57
625.97	54310.08
626.17	54168.77
626.36	54426.82
626.56	54269.12
626.75	53548.24
626.95	54441.15
627.14	54031.56
627.34	54367.43
627.54	54086.85
627.73	54013.13
627.93	54117.57
628.12	53761.23
628.32	54187.21
628.51	54469.82
628.71	54252.74
628.90	54187.21
629.10	54281.41
629.30	54344.90
629.49	54334.66
629.69	54117.57
629.88	54336.71
630.08	54633.66
630.27	54766.78
630.47	54514.88
630.66	54187.21
630.86	54383.81
631.05	54123.72
631.25	55153.85
631.44	54584.51
631.64	54557.89
631.84	54760.64
632.03	55076.02
632.23	54305.99
632.42	55327.92
632.62	55141.56
632.81	54805.69
633.01	54531.26
633.20	54768.83
633.40	54731.96
633.59	55114.94
633.79	54951.10
633.98	55092.41
634.18	54752.44
634.37	54922.43
634.57	55053.50
634.76	55639.22
634.96	54994.10
635.15	55577.78
635.35	55207.09
635.54	54752.44
635.74	55301.30
635.93	54910.14
636.13	55284.92
636.32	55108.79
636.52	55194.81
636.71	55483.57
636.91	55203.00
637.10	55286.96
637.30	54936.76
637.49	55502.00
637.69	55162.04
637.88	55174.33
638.08	55399.60
638.27	55647.41
638.46	55188.66
638.66	55121.08
638.85	55418.03
639.05	55579.82
639.24	55723.18
639.44	55076.02
639.63	55663.79
639.83	55565.49
640.02	55647.41
640.22	55827.63
640.41	55616.69
640.61	55444.66
640.80	55719.09
640.99	55733.42
641.19	56247.46
641.38	55563.44
641.58	55559.34
641.77	55874.73
641.97	55362.74
642.16	55749.81
642.36	56036.52
642.55	56216.74
642.74	55692.46
642.94	56224.93
643.13	55612.59
643.33	56542.37
643.52	56284.33
643.72	56566.94
643.91	55968.94
644.10	56257.70
644.30	56505.51
644.49	55899.31
644.69	56540.32
644.88	56466.59
645.08	56122.54
645.27	55823.53
645.46	55755.95
645.66	56681.63
645.85	56163.50
646.05	56378.53
646.24	56536.23
646.43	56673.44
646.63	56753.31
646.82	57103.51
647.02	56667.30
647.21	56730.78
647.40	56378.53
647.60	56636.58
647.79	56792.22
647.99	56888.48
648.18	56661.15
648.37	57087.13
648.57	57021.59
648.76	56636.58
648.96	56452.26
649.15	56704.16
649.34	57259.16
649.54	57171.10
649.73	56747.17
649.92	57072.79
650.12	56851.61
650.31	57001.11
650.51	57402.52
650.70	57660.56
650.89	56921.24
651.09	57767.05
651.28	57185.43
651.47	57062.55
651.67	57281.69
651.86	57691.28
652.06	57080.98
652.25	57578.64
652.44	57326.74
652.64	57312.41
652.83	57185.43
653.02	57386.13
653.22	57521.30
653.41	57080.98
653.60	57142.42
653.80	57001.11
653.99	57842.83
654.18	57148.57
654.38	57240.73
654.57	57685.14
654.76	57459.86
654.96	57197.72
655.15	57343.12
655.34	57564.31
655.54	57269.40
655.73	57975.95
655.92	57879.69
656.12	57867.40
656.31	58004.62
656.50	58039.43
656.70	57535.63
656.89	57674.90
657.08	57449.62
657.28	58113.16
657.47	57683.09
657.66	57584.79
657.86	57435.28
658.05	57654.42
658.24	57918.60
658.43	57846.93
658.63	58072.20
658.82	58070.15
659.01	58018.95
659.21	57885.84
659.40	57898.12
659.59	57992.33
659.79	58057.87
659.98	57920.65
660.17	58250.38
660.36	57980.04
660.56	57894.03
660.75	57787.53
660.94	58258.57
661.14	58414.21
661.33	57664.66
661.52	57556.11
661.71	58469.51
661.91	57932.94
662.10	58102.92
662.29	58434.69
662.49	58260.62
662.68	58549.38
662.87	57902.22
663.06	58152.07
663.26	57973.90
663.45	58203.27
663.64	58064.01
663.83	58647.68
664.03	58504.32
664.22	58139.78
664.41	58258.57
664.60	58270.85
664.80	58332.29
664.99	57912.46
665.18	58305.67
665.37	58403.97
665.57	58698.88
665.76	57588.88
665.95	58500.23
666.14	58309.77
666.34	58483.84
666.53	58004.62
666.72	58274.95
666.91	58021.00
667.11	57984.14
667.30	58522.76
667.49	58389.64
667.68	58266.76
667.87	58334.34
668.07	58629.25
668.26	58383.49
668.45	58324.10
668.64	58242.18
668.84	59026.56
669.03	58619.01
669.22	58135.69
669.41	58281.09
669.60	58014.86
669.80	57941.13
669.99	58639.49
670.18	58023.05
670.37	58287.24
670.57	58567.81
670.76	58530.95
670.95	58606.72
671.14	58375.30
671.33	57885.84
671.53	58512.52
671.72	57955.47
671.91	58344.58
672.10	58567.81
672.29	57975.95
672.48	58248.33
672.68	58850.43
672.87	57963.66
673.06	58154.12
673.25	58090.63
673.44	58092.68
673.64	57894.03
673.83	57783.44
674.02	58246.28
674.21	57681.04
674.40	58336.39
674.59	57791.63
674.79	57988.24
674.98	58102.92
675.17	57951.37
675.36	57920.65
675.55	58578.05
675.74	57859.21
675.94	57719.95
676.13	57883.79
676.32	58373.25
676.51	58373.25
676.70	58135.69
676.89	58254.47
677.08	58328.20
677.28	57670.80
677.47	58299.53
677.66	58408.07
677.85	57728.14
678.04	57822.35
678.23	58657.92
678.42	58199.18
678.62	57861.26
678.81	58457.22
679.00	57963.66
679.19	58281.09
679.38	58061.96
679.57	57908.36
679.76	57707.66
679.96	58336.39
680.15	57975.95
680.34	57984.14
680.53	57392.28
680.72	57971.85
680.91	57744.53
681.10	57502.87
681.29	57695.38
681.48	57926.80
681.68	57713.81
681.87	57805.97
682.06	57656.46
682.25	57224.34
682.44	57547.92
682.63	57472.15
682.82	57191.58
683.01	57341.08
683.20	56947.87
683.39	57529.49
683.59	56984.73
683.78	57275.54
683.97	57117.85
684.16	57474.20
684.35	57156.76
684.54	57371.80
684.73	56894.62
684.92	57232.53
685.11	56577.18
685.30	57119.90
685.49	57095.32
685.69	57140.38
685.88	57068.70
686.07	57121.94
686.26	57302.17
686.45	57111.70
686.64	56755.36
686.83	57009.31
687.02	57341.08
687.21	57420.95
687.40	57179.29
687.59	56853.66
687.78	56472.74
687.97	57296.02
688.16	56966.30
688.35	56896.67
688.54	56708.25
688.74	56818.84
688.93	56663.20
689.12	56695.97
689.31	56685.73
689.50	56911.00
689.69	56212.65
689.88	56188.07
690.07	56468.64
690.26	56296.61
690.45	56771.74
690.64	56140.97
690.83	56300.71
691.02	56284.33
691.21	55917.74
691.40	56136.87
691.59	56435.87
691.78	56186.02
691.97	56523.94
692.16	56132.78
692.35	56421.54
692.54	55907.50
692.73	56210.60
692.92	56145.06
693.11	55985.32
693.30	55598.26
693.49	56104.10
693.68	55921.83
693.87	55745.71
694.06	55520.43
694.25	55641.26
694.44	55370.93
694.63	55919.79
694.82	55473.33
695.01	55825.58
695.20	55989.42
695.39	55594.16
695.58	55448.75
695.77	55628.98
695.96	55368.88
696.15	55624.88
696.34	55303.35
696.53	55129.27
696.72	55139.51
696.91	55841.96
697.10	55518.38
697.29	55409.84
697.48	55717.04
697.67	55258.29
697.86	54951.10
698.05	54893.75
698.24	55209.14
698.43	54987.96
698.62	54928.57
698.81	54830.27
699.00	55166.13
699.19	54469.82
699.38	55375.03
699.57	54328.52
699.76	55137.46
699.95	54357.19
700.14	54674.62
700.32	54643.90
700.51	54660.29
700.70	54844.60
700.89	54926.52
701.08	54547.65
701.27	54396.10
701.46	54582.46
701.65	53834.95
701.84	54488.26
702.03	54475.97
702.22	53662.93
702.41	54455.49
702.60	54551.74
702.79	54219.97
702.98	53963.98
703.17	54174.92
703.35	53949.64
703.54	53916.87
703.73	54236.36
703.92	54242.50
704.11	53707.98
704.30	53705.93
704.49	53730.51
704.68	53587.15
704.87	53839.05
705.06	53275.86
705.25	53445.84
705.43	53581.01
705.62	53296.34
705.81	53470.42
706.00	53368.02
706.19	53245.14
706.38	53173.46
706.57	53056.73
706.76	53126.36
706.95	53284.05
707.14	53105.88
707.32	52604.13
707.51	52999.38
707.70	52737.24
707.89	53413.07
708.08	53097.69
708.27	53325.01
708.46	53210.32
708.65	52899.03
708.84	52839.64
709.02	53023.96
709.21	52745.44
709.40	52894.94
709.59	52395.23
709.78	52331.75
709.97	52796.63
710.16	52626.65
710.34	52636.89
710.53	53011.67
710.72	52010.21
710.91	52458.72
711.10	52262.11
711.29	52481.25
711.48	52126.95
711.66	52268.26
711.85	52100.32
712.04	52524.25
712.23	52149.48
712.42	52335.84
712.61	52219.11
712.80	51729.64
712.98	51770.60
713.17	51784.94
713.36	51549.42
713.55	51717.35
713.74	51864.81
713.93	51754.22
714.11	52016.36
714.30	51557.61
714.49	51123.44
714.68	52083.94
714.87	52042.98
715.06	51602.67
715.24	51090.68
715.43	51225.84
715.62	50789.62
715.81	51184.88
716.00	51528.94
716.18	51057.91
716.37	51209.46
716.56	51053.81
716.75	51299.57
716.94	51459.31
717.12	50640.12
717.31	51289.33
717.50	50775.29
717.69	50722.04
717.88	50849.02
718.06	51410.16
718.25	50789.62
718.44	50300.16
718.63	50873.59
718.82	50394.37
719.00	50547.96
719.19	50711.80
719.38	50281.73
719.57	50253.06
719.76	50060.55
719.94	50111.75
720.13	50009.35
720.32	50027.78
720.51	49874.18
720.69	50199.81
720.88	50042.12
721.07	49911.05
721.26	49790.22
721.44	49370.38
721.63	49429.77
721.82	49319.18
722.01	48987.41
722.20	49646.86
722.38	49317.14
722.57	49085.72
722.76	49397.01
722.95	48583.96
723.13	48801.05
723.32	48946.45
723.51	48590.11
723.70	48790.81
723.88	48825.62
724.07	48887.06
724.26	48592.15
724.44	48200.99
724.63	48909.59
724.82	48491.80
725.01	48452.89
725.19	48473.37
725.38	48424.22
725.57	48500.00
725.76	48690.46
725.94	47838.50
726.13	48104.74
726.32	48182.56
726.51	48028.96
726.69	48452.89
726.88	48479.52
727.07	48157.99
727.25	48069.92
727.44	48184.61
727.63	48246.05
727.82	47848.74
728.00	47865.13
728.19	47957.28
728.38	47871.27
728.56	47654.18
728.75	48231.71
728.94	47740.20
729.12	48121.12
729.31	47809.83
729.50	47899.94
729.69	47920.42
729.87	47732.01
730.06	47797.54
730.25	47736.10
730.43	48295.20
730.62	47367.47
730.81	47930.66
730.99	47758.63
731.18	47789.35
731.37	48129.31
731.55	48090.40
731.74	47742.25
731.93	47545.64
732.11	47746.34
732.30	47781.16
732.49	47852.84
732.67	47723.82
732.86	47686.95
733.05	47498.54
733.23	47289.65
733.42	47619.37
733.61	47535.40
733.79	47303.98
733.98	48119.07
734.17	47215.92
734.35	47680.81
734.54	47492.40
734.73	47596.84
734.91	47506.73
735.10	47502.64
735.29	47717.67
735.47	46996.79
735.66	47371.57
735.84	47465.77
736.03	47084.85
736.22	47574.31
736.40	47267.12
736.59	47109.43
736.78	46974.26
736.96	46669.11
737.15	47187.25
737.33	46945.59
737.52	46849.33
737.71	46560.57
737.89	46789.94
738.08	46345.53
738.27	46501.18
738.45	47199.54
738.64	46734.65
738.82	46523.71
739.01	46515.51
739.20	46722.36
739.38	46581.05
739.57	46925.11
739.75	46460.22
739.94	46669.11
740.13	46855.48
740.31	46366.01
740.50	46544.19
740.68	46372.16
740.87	46626.10
741.06	46574.91
741.24	45978.95
741.43	45987.14
741.61	46611.77
741.80	46587.19
741.99	45987.14
742.17	46062.91
742.36	46574.91
742.54	46413.12
742.73	46409.02
742.91	46423.36
743.10	46454.08
743.29	46089.54
743.47	46126.40
743.66	45694.28
743.84	45864.26
744.03	45813.06
744.21	45813.06
744.40	46044.48
744.59	46030.15
744.77	45815.11
744.96	45567.30
745.14	46081.34
745.33	45806.92
745.51	45839.68
745.70	45962.56
745.88	45970.75
746.07	45794.63
746.26	45407.56
746.44	45505.87
746.63	45776.20
746.81	45641.03
747.00	45593.93
747.18	45606.22
747.37	45661.51
747.55	45595.98
747.74	45739.33
747.92	45577.54
748.11	45768.01
748.29	45405.52
748.48	45499.72
748.66	45448.52
748.85	45081.94
749.03	45485.39
749.22	45129.04
749.41	45018.45
749.59	45442.38
749.78	45073.74
749.96	44733.78
750.15	44725.59
750.33	45256.01
750.52	44815.70
750.70	44938.58
750.89	44733.78
751.07	44868.95
751.26	44848.47
751.44	44899.67
751.63	45094.22
751.81	44547.42
752.00	44459.35
752.18	44854.61
752.37	44647.77
752.55	44619.10
752.74	44592.47
752.92	44320.09
753.10	44156.25
753.29	44189.02
753.47	44189.02
753.66	44211.55
753.84	44311.90
754.03	44473.69
754.21	44275.04
754.40	44451.16
754.58	44172.64
754.77	44008.80
754.95	43924.83
755.14	43998.56
755.32	44252.51
755.51	43509.10
755.69	43787.62
755.88	44227.93
756.06	43894.11
756.24	43877.73
756.43	44037.47
756.61	43738.47
756.80	43715.94
756.98	43593.06
757.17	44043.62
757.35	43998.56
757.54	43654.50
757.72	43980.13
757.90	43650.41
758.09	43783.52
758.27	43394.41
758.46	43156.85
758.64	43455.85
758.83	43801.96
759.01	43767.14
759.19	43611.49
759.38	43277.68
759.56	43744.61
759.75	43521.38
759.93	43177.33
760.12	43607.40
760.30	43335.02
760.48	43398.51
760.67	43322.73
760.85	43658.60
761.04	43427.18
761.22	43246.96
761.40	42706.29
761.59	43040.11
761.77	42943.86
761.96	42923.38
762.14	43007.34
762.32	42786.16
762.51	42591.61
762.69	42935.66
762.88	42743.16
763.06	43287.92
763.24	43122.03
763.43	42825.07
763.61	42849.65
763.80	42696.05
763.98	42534.26
764.16	42927.47
764.35	42481.02
764.53	42663.28
764.72	42409.34
764.90	42431.86
765.08	42575.22
765.27	42356.09
765.45	42231.16
765.63	41989.50
765.82	42249.60
766.00	42048.89
766.18	41854.34
766.37	42407.29
766.55	42259.84
766.74	42173.82
766.92	42034.56
767.10	41899.39
767.29	42265.98
767.47	41801.09
767.65	42132.86
767.84	41715.08
768.02	41512.33
768.20	41682.31
768.39	41936.26
768.57	41686.40
768.75	41780.61
768.94	41893.25
769.12	41614.72
769.30	41432.46
769.49	41497.99
769.67	41276.81
769.85	41424.26
770.04	41487.75
770.22	41186.70
770.40	40940.94
770.59	40916.37
770.77	41260.43
770.95	41151.88
771.14	40879.50
771.32	40420.76
771.50	40328.60
771.69	40787.35
771.87	41457.03
772.05	41119.12
772.24	40428.95
772.42	40746.39
772.60	40433.05
772.78	40680.85
772.97	40541.59
773.15	40861.07
773.33	40420.76
773.52	40615.32
773.70	40711.57
773.88	41158.03
774.07	40293.79
774.25	40609.17
774.43	40762.77
774.61	40574.36
774.80	40742.29
774.98	40668.56
775.16	40336.79
775.34	40951.18
775.53	40719.76
775.71	41065.87
775.89	40889.74
776.08	40899.98
776.26	41145.74
776.44	40998.29
776.62	40748.43
776.81	40521.11
776.99	40664.47
777.17	40586.64
777.35	40660.37
777.54	41203.08
777.72	41164.17
777.90	40783.25
778.08	41293.19
778.27	40682.90
778.45	41643.40
778.63	41223.56
778.81	40889.74
779.00	41706.88
779.18	41541.00
779.36	41584.01
779.54	41170.32
779.73	41205.13
779.91	41260.43
780.09	41352.58
780.27	41575.81
780.46	41452.94
780.64	41805.19
780.82	41338.25
781.00	41563.53
781.19	41842.05
781.37	41684.36
781.55	41493.89
781.73	42220.92
781.91	41813.38
782.10	41448.84
782.28	41469.32
782.46	41663.88
782.64	42243.45
782.82	41385.35
783.01	41911.68
783.19	41840.00
783.37	42132.86
783.55	41749.89
783.74	42337.66
783.92	41563.53
784.10	42651.00
784.28	41977.22
784.46	41917.82
784.64	41713.03
784.83	41866.63
785.01	42257.79
785.19	41936.26
785.37	42233.21
785.55	41846.15
785.74	41487.75
785.92	41690.50
786.10	41602.44
786.28	41725.32
786.46	41557.38
786.64	41514.37
786.83	41919.87
787.01	41637.25
787.19	41733.51
787.37	41698.69
787.55	41479.56
787.74	41688.45
787.92	41612.68
788.10	41573.77
788.28	41330.06
788.46	41477.51
788.64	40926.61
788.82	41549.19
789.01	41684.36
789.19	41364.87
789.37	41227.66
789.55	41354.63
789.73	41041.29
789.91	41119.12
790.09	40990.09
790.28	40730.00
790.46	40764.82
790.64	41174.41
790.82	40842.64
791.00	40807.83
791.18	40459.67
791.36	40990.09
791.55	41131.40
791.73	40654.23
791.91	40228.25
792.09	40484.25
792.27	40535.45
792.45	40547.73
792.63	40125.85
792.81	40011.17
793.00	39982.49
793.18	40052.12
793.36	39855.52
793.54	39734.69
793.72	39574.95
793.90	39976.35
794.08	39835.04
794.26	39677.35
794.44	39562.66
794.62	39777.70
794.81	39474.60
794.99	39103.92
795.17	38919.60
795.35	39376.30
795.53	39114.16
795.71	39159.21
795.89	39005.61
796.07	38880.69
796.25	38718.90
796.43	38725.04
796.61	38399.41
796.80	38512.05
796.98	38698.42
797.16	38598.07
797.34	38153.66
797.52	38165.95
797.70	38374.84
797.88	38202.81
798.06	37662.15
798.24	38020.54
798.42	37793.22
798.60	38227.38
798.78	37707.20
798.96	38067.64
799.14	37692.86
799.32	37709.25
799.51	37180.87
799.69	37627.33
799.87	37285.32
800.05	37254.60
800.23	37389.77
800.41	37193.16
800.59	37074.38
800.77	36845.01
800.95	36640.21
801.13	36883.92
801.31	36601.30
801.49	36867.53
801.67	36646.35
801.85	36810.19
802.03	36373.97
802.21	36169.18
802.39	35923.42
802.57	36388.31
802.75	36079.07
802.93	36427.22
803.11	35991.00
803.29	35499.49
803.47	35599.84
803.65	35759.58
803.83	36271.57
804.01	35546.59
804.19	35442.15
804.37	35098.09
804.55	35655.14
804.73	35429.86
804.91	35276.26
805.09	35345.89
805.27	35096.04
805.45	35128.81
805.63	35468.77
805.81	35341.80
805.99	34862.57
806.17	35159.53
806.35	34921.96
806.53	34774.51
806.71	34387.44
806.89	34571.76
807.07	34776.56
807.25	34698.73
807.43	34362.87
807.61	34622.96
807.79	34246.13
807.97	33990.14
808.15	34086.39
808.33	34024.95
808.51	34125.30
808.69	33891.83
808.87	33857.02
809.05	34063.86
809.23	33992.19
809.41	33494.53
809.59	33631.74
809.77	33639.93
809.95	33449.47
810.13	33691.13
810.31	33560.06
810.49	33629.69
810.67	33361.41
810.84	33232.39
811.02	33054.22
811.20	33132.04
811.38	33211.91
811.56	33195.53
811.74	33125.89
811.92	32677.39
812.10	32886.28
812.28	33031.69
812.46	32650.77
812.64	32763.40
812.82	32339.47
813.00	32900.62
813.18	32671.25
813.36	32747.02
813.53	32388.63
813.71	32564.75
813.89	32249.36
814.07	32302.61
814.25	32218.64
814.43	32116.25
814.61	32028.18
814.79	31782.43
814.97	31847.96
815.15	32007.70
815.33	31575.58
815.50	31610.40
815.68	31825.43
815.86	31886.87
816.04	31524.38
816.22	31557.15
816.40	31559.20
816.58	31221.28
816.76	31082.02
816.94	31342.11
817.11	31241.76
817.29	31118.89
817.47	31088.17
817.65	31180.32
817.83	31354.40
818.01	31151.65
818.19	30905.90
818.37	31073.83
818.54	30512.69
818.72	30852.65
818.90	30832.17
819.08	30783.02
819.26	30737.96
819.44	30909.99
819.62	30543.41
819.80	30762.54
819.97	30619.18
820.15	30420.53
820.33	30631.47
820.51	30299.70
820.69	29920.82
820.87	30187.06
821.05	30559.79
821.22	29773.37
821.40	30074.42
821.58	30107.19
821.76	30119.48
821.94	29804.09
822.12	29836.86
822.29	30137.91
822.47	29943.35
822.65	30447.15
822.83	29916.73
823.01	29957.69
823.19	29619.77
823.36	29621.82
823.54	29464.13
823.72	29548.09
823.90	29695.55
824.08	29046.34
824.25	29521.47
824.43	29466.17
824.61	29419.07
824.79	29118.02
824.97	29132.36
825.15	29300.29
825.32	29300.29
825.50	29115.97
825.68	28644.94
825.86	29044.29
826.04	29173.31
826.21	29044.29
826.39	28905.03
826.57	28829.26
826.75	28763.72
826.93	28880.46
827.10	28882.50
827.28	28759.63
827.46	28862.02
827.64	28538.44
827.81	28544.59
827.99	28868.17
828.17	28429.90
828.35	28509.77
828.53	28370.51
828.70	28210.77
828.88	28405.33
829.06	28296.78
829.24	28655.18
829.41	27776.60
829.59	28167.76
829.77	28204.63
829.95	28042.84
830.12	27997.78
830.30	27979.35
830.48	27909.72
830.66	27962.97
830.84	27856.47
831.01	27614.81
831.19	28032.60
831.37	27833.94
831.55	27477.60
831.72	27502.17
831.90	27573.85
832.08	27932.25
832.25	27643.48
832.43	27760.22
832.61	27536.99
832.79	27698.78
832.96	27575.90
833.14	27598.43
833.32	27457.12
833.50	27569.76
833.67	27481.69
833.85	27184.74
834.03	27131.49
834.20	27006.56
834.38	27418.21
834.56	27328.10
834.74	26910.31
834.91	26785.38
835.09	27283.04
835.27	26863.21
835.44	26904.17
835.62	26572.39
835.80	26766.95
835.98	26840.68
836.15	26742.38
836.33	26793.58
836.51	26889.83
836.68	27012.71
836.86	26648.17
837.04	26621.55
837.21	26764.90
837.39	26795.62
837.57	26691.18
837.75	26715.75
837.92	26617.45
838.10	26400.37
838.28	26244.72
838.45	26103.41
838.63	25923.19
838.81	26283.63
838.98	26154.61
839.16	25810.55
839.34	26181.23
839.51	26406.51
839.69	26201.71
839.87	25955.96
840.04	25749.11
840.22	26181.23
840.40	26039.92
840.57	25726.58
840.75	25718.39
840.93	25611.90
841.10	25472.64
841.28	25896.56
841.46	25779.83
841.63	25777.78
841.81	25706.10
841.98	25521.79
842.16	25816.69
842.34	25450.11
842.51	25433.72
842.69	25654.90
842.87	25355.90
843.04	25751.16
843.22	25280.13
843.40	25394.81
843.57	25093.76
843.75	25495.16
843.92	25513.59
844.10	25247.36
844.28	25175.68
844.45	25187.97
844.63	25271.93
844.81	25237.12
844.98	25321.09
845.16	25233.02
845.33	25067.14
845.51	25093.76
845.69	24813.19
845.86	24731.27
846.04	24723.08
846.21	24850.05
846.39	24735.37
846.57	24819.33
846.74	24897.16
846.92	24643.21
847.09	24718.98
847.27	24360.59
847.45	24831.62
847.62	24682.12
847.80	24649.35
847.97	24499.85
848.15	24698.50
848.32	24194.70
848.50	24573.58
848.68	24004.24
848.85	24206.99
849.03	24190.61
849.20	24235.66
849.38	23969.43
849.56	24286.86
849.73	23815.83
849.91	24301.20
850.08	24143.50
850.26	23889.56
850.43	24168.08
850.61	23977.62
850.78	23711.38
850.96	23658.14
851.14	23596.70
851.31	23744.15
851.49	23492.25
851.66	23893.65
851.84	23729.81
852.01	24000.15
852.19	23789.20
852.36	23367.32
852.54	23889.56
852.71	23631.51
852.89	23606.94
853.07	23443.10
853.24	23625.37
853.42	23469.72
853.59	23600.79
853.77	23404.19
853.94	23314.08
854.12	23502.49
854.29	23004.83
854.47	23682.71
854.64	23111.33
854.82	23336.60
854.99	23193.25
855.17	23121.57
855.34	23185.05
855.52	23271.07
855.69	23314.08
855.87	23080.61
856.04	23060.13
856.22	22781.60
856.39	22742.69
856.57	22785.70
856.74	22924.96
856.92	22836.90
857.09	22621.86
857.27	22775.46
857.44	22628.01
857.62	22392.49
857.79	22689.45
857.97	22873.76
858.14	22689.45
858.32	22480.55
858.49	22630.05
858.67	22507.18
858.84	22603.43
859.02	22531.75
859.19	22343.34
859.37	22628.01
859.54	22152.88
859.72	22687.40
859.89	22142.64
860.06	21943.99
860.24	22290.09
860.41	22388.39
860.59	22322.86
860.76	22380.20
860.94	22013.62
861.11	22247.08
861.29	21948.08
861.46	21880.50
861.64	21966.51
861.81	21685.94
861.98	21915.31
862.16	21925.55
862.33	21540.54
862.51	21776.05
862.68	22023.86
862.86	21259.96
863.03	21247.68
863.21	21513.91
863.38	21548.73
863.55	21679.80
863.73	21642.93
863.90	21571.25
864.08	21434.04
864.25	21214.91
864.43	21530.30
864.60	21317.31
864.77	21178.04
864.95	21257.92
865.12	20934.34
865.30	21577.40
865.47	21073.60
865.64	21188.28
865.82	21065.41
865.99	21329.59
866.17	21118.65
866.34	21415.61
866.51	20852.42
866.69	20811.46
866.86	21257.92
867.04	21006.02
867.21	20938.43
867.38	20813.51
867.56	20719.30
867.73	20920.00
867.91	20438.73
868.08	20453.06
868.25	20405.96
868.43	20487.88
868.60	20446.92
868.78	20362.95
868.95	20514.50
869.12	20422.34
869.30	20403.91
869.47	20326.09
869.64	19969.74
869.82	20459.21
869.99	19998.41
870.16	20569.80
870.34	20248.27
870.51	20274.89
870.69	20088.53
870.86	20178.64
871.03	20299.47
871.21	19994.32
871.38	20387.53
871.55	20203.21
871.73	19758.80
871.90	20127.44
872.07	19922.64
872.25	19627.73
872.42	19646.16
872.59	19738.32
872.77	19615.44
872.94	19836.63
873.11	19543.77
873.29	19810.00
873.46	19590.87
873.63	19529.43
873.81	19463.90
873.98	19384.02
874.15	19478.23
874.33	19308.25
874.50	19250.91
874.67	19263.19
874.85	19191.52
875.02	19328.73
875.19	19144.41
875.37	18804.45
875.54	18673.38
875.71	18966.24
875.88	18644.71
876.06	19130.08
876.23	18716.39
876.40	18884.32
876.58	18566.88
876.75	18575.08
876.92	18527.97
877.10	18681.57
877.27	18407.14
877.44	18521.83
877.61	18401.00
877.79	18247.40
877.96	18407.14
878.13	18417.38
878.31	18093.80
878.48	18222.83
878.65	18452.20
878.82	18087.66
879.00	18185.96
879.17	18194.15
879.34	18171.63
879.51	18171.63
879.69	17989.36
879.86	17972.97
880.03	17999.60
880.21	17833.71
880.38	17878.77
880.55	17985.26
880.72	17725.17
880.90	17602.29
881.07	17872.62
881.24	17792.75
881.41	17743.60
881.59	17544.95
881.76	17575.67
881.93	17534.71
882.10	17911.53
882.28	17428.21
882.45	17555.19
882.62	17698.55
882.79	17311.48
882.96	17151.74
883.14	17510.13
883.31	17473.27
883.48	17260.28
883.65	17239.80
883.83	17454.84
884.00	17164.03
884.17	17241.85
884.34	17377.01
884.51	17084.16
884.69	17346.30
884.86	17184.51
885.03	17094.40
885.20	16971.52
885.38	16965.37
885.55	16842.50
885.72	17235.70
885.89	16795.39
886.06	17094.40
886.24	17065.72
886.41	16799.49
886.58	17170.17
886.75	17065.72
886.92	16711.42
887.10	16684.80
887.27	16410.37
887.44	17006.33
887.61	17000.19
887.78	16920.32
887.95	16578.31
888.13	16641.79
888.30	16643.84
888.47	16805.63
888.64	16578.31
888.81	16768.77
888.99	16449.28
889.16	16373.51
889.33	16361.22
889.50	16574.21
889.67	16611.07
889.84	16250.63
890.01	16412.42
890.19	16357.13
890.36	16285.45
890.53	16320.26
890.70	15939.34
890.87	16361.22
891.04	16195.34
891.22	16183.05
891.39	16121.61
891.56	15937.29
891.73	16051.98
891.90	16039.69
892.07	16185.10
892.24	15949.58
892.42	15884.05
892.59	15824.65
892.76	15746.83
892.93	15783.70
893.10	15912.72
893.27	15779.60
893.44	15642.39
893.61	15957.77
893.79	15857.42
893.96	15847.18
894.13	15804.17
894.30	15705.87
894.47	15789.84
894.64	15968.01
894.81	15632.15
894.98	15742.74
895.15	15607.57
895.33	15607.57
895.50	15437.59
895.67	15578.90
895.84	15632.15
896.01	15617.81
896.18	15642.39
896.35	15742.74
896.52	15822.61
896.69	15568.66
896.86	15652.63
897.04	15441.68
897.21	15535.89
897.38	15351.57
897.55	15355.67
897.72	15515.41
897.89	15429.40
898.06	15613.71
898.23	15464.21
898.40	15482.64
898.57	15683.34
898.74	15560.47
898.91	15468.31
899.08	15462.16
899.26	15286.04
899.43	15515.41
899.60	15515.41
899.77	15331.09
899.94	15288.09
900.11	15283.99
900.28	15443.73
900.45	15007.52
900.62	15310.61
900.79	15587.09
900.96	15392.53
901.13	15296.28
901.30	15410.96
901.47	14944.03
901.64	15312.66
901.81	15281.94
901.98	15214.36
902.15	15494.93
902.32	15234.84
902.49	15071.00
902.66	15320.85
902.83	15376.15
903.01	15146.78
903.18	15281.94
903.35	15146.78
903.52	15011.61
903.69	15372.05
903.86	15308.57
904.03	15318.81
904.20	15341.33
904.37	15429.40
904.54	15079.19
904.71	15216.41
904.88	15202.07
905.05	15056.67
905.22	15269.66
905.39	15048.47
905.56	15161.11
905.73	15095.58
905.90	15154.97
906.07	15281.94
906.24	15068.95
906.41	15261.46
906.58	15107.87
906.75	15294.23
906.92	15120.15
907.09	15056.67
907.26	15134.49
907.43	14905.12
907.60	15050.52
907.77	15081.24
907.93	15159.06
908.10	15120.15
908.27	15130.39
908.44	14982.94
908.61	14690.08
908.78	15154.97
908.95	15126.30
909.12	14993.18
909.29	14714.66
909.46	14995.23
909.63	15021.85
909.80	14941.98
909.97	14909.21
910.14	14919.45
910.31	14855.97
910.48	14884.64
910.65	14892.83
910.82	15013.66
910.99	14972.70
911.16	14804.77
911.33	14858.01
911.50	14825.25
911.66	14763.81
911.83	14913.31
912.00	14554.91
912.17	14358.31
912.34	14473.00
912.51	14585.63
912.68	14417.70
912.85	14462.76
913.02	14456.61
913.19	14636.83
913.36	14620.45
913.53	14622.50
913.70	14421.80
913.86	14427.94
914.03	14417.70
914.20	14272.29
914.37	14405.41
914.54	14180.14
914.71	14323.49
914.88	14442.28
915.05	14094.12
915.22	14169.90
915.39	14198.57
915.55	14141.22
915.72	14155.56
915.89	13862.70
916.06	13799.21
916.23	14065.45
916.40	14001.96
916.57	13918.00
916.74	13838.12
916.91	13860.65
917.07	13598.51
917.24	13662.00
917.41	13899.56
917.58	13649.71
917.75	13745.97
917.92	13481.78
918.09	13532.98
918.26	13502.26
918.42	13688.62
918.59	13461.30
918.76	13289.27
918.93	13297.46
919.10	13139.77
919.27	13248.31
919.44	13207.35
919.60	13403.96
919.77	13256.50
919.94	13115.19
920.11	13160.25
920.28	13080.38
920.45	13053.75
920.61	13012.79
920.78	12881.72
920.95	12996.41
921.12	12803.90
921.29	12930.87
921.46	12824.38
921.62	12664.64
921.79	12570.43
921.96	12519.23
922.13	12486.47
922.30	12623.68
922.47	12576.58
922.63	12207.94
922.80	12439.36
922.97	12414.79
923.14	12285.76
923.31	12463.94
923.47	12351.30
923.64	12300.10
923.81	12132.17
923.98	12040.01
924.15	11902.79
924.32	12015.43
924.48	12173.13
924.65	12007.24
924.82	12037.96
924.99	11833.16
925.15	11704.14
925.32	11929.42
925.49	11579.22
925.66	11886.41
925.83	11519.82
925.99	11511.63
926.16	11630.41
926.33	11605.84
926.50	11480.91
926.67	11304.79
926.83	11380.56
927.00	11609.93
927.17	11165.53
927.34	11151.19
927.50	11169.62
927.67	11366.23
927.84	11075.42
928.01	11079.51
928.17	11036.50
928.34	10991.45
928.51	10946.39
928.68	10733.40
928.84	10819.42
929.01	10841.95
929.18	10798.94
929.35	10641.25
929.51	10766.17
929.68	10452.83
929.85	10501.98
930.02	10522.46
930.18	10477.41
930.35	10510.18
930.52	10458.98
930.69	10418.02
930.85	10276.71
931.02	10231.65
931.19	10162.02
931.36	10135.40
931.52	10370.91
931.69	10217.32
931.86	9883.50
932.02	10205.03
932.19	9938.79
932.36	9715.56
932.53	9832.30
932.69	9889.64
932.86	9793.39
933.03	9697.13
933.19	9584.49
933.36	9703.28
933.53	9725.80
933.70	9381.74
933.86	9420.66
934.03	9420.66
934.20	9391.98
934.36	9273.20
934.53	9023.35
934.70	9174.90
934.86	9191.28
935.03	9013.11
935.20	9119.60
935.36	8800.12
935.53	8738.68
935.70	8617.85
935.86	8888.18
936.03	8732.54
936.20	8531.84
936.36	8638.33
936.53	8433.54
936.70	8267.65
936.86	8540.03
937.03	8392.58
937.20	8079.24
937.36	8222.59
937.53	7950.21
937.70	8015.75
937.86	7835.53
938.03	7714.70
938.20	7888.78
938.36	7505.81
938.53	7636.88
938.70	7389.07
938.86	7448.46
939.03	7360.40
939.20	7268.24
939.36	7202.71
939.53	7131.03
939.70	7204.75
939.86	6842.26
940.03	6864.79
940.19	6786.97
940.36	6621.08
940.53	6778.78
940.69	6610.84
940.86	6541.21
941.03	6326.18
941.19	6401.95
941.36	6277.02
941.52	6283.17
941.69	6287.26
941.86	6299.55
942.02	6078.37
942.19	6168.48
942.35	6172.58
942.52	5943.21
942.69	5922.73
942.85	5879.72
943.02	5779.37
943.18	5885.86
943.35	5685.16
943.52	5676.97
943.68	5619.63
943.85	5681.07
944.01	5500.84
944.18	5574.57
944.35	5638.06
944.51	5459.88
944.68	5392.30
944.84	5365.68
945.01	5271.47
945.17	5294.00
945.34	5418.93
945.51	5416.88
945.67	5298.10
945.84	5420.97
946.00	5201.84
946.17	5324.72
946.33	5261.23
946.50	5345.20
946.67	5269.42
946.83	5339.05
947.00	5287.86
947.16	5304.24
947.33	5183.41
947.49	5183.41
947.66	5316.53
947.82	5476.27
947.99	5218.22
948.16	5367.73
948.32	5257.14
948.49	5242.80
948.65	5267.38
948.82	5246.90
948.98	5201.84
949.15	5197.74
949.31	5181.36
949.48	5218.22
949.64	5259.18
949.81	5345.20
949.97	5156.79
950.14	5314.48
950.30	5169.07
950.47	5373.87
950.63	5253.04
950.80	5318.57
950.96	5212.08
951.13	5361.58
951.30	5210.03
951.46	5287.86
951.63	5439.40
951.79	5423.02
951.96	5320.62
952.12	5244.85
952.29	5283.76
952.45	5197.74
952.62	5400.49
952.78	5423.02
952.94	5205.94
953.11	5291.95
953.27	5187.50
953.44	5484.46
953.60	5253.04
953.77	5427.12
953.93	5234.61
954.10	5386.16
954.26	5380.01
954.43	5269.42
954.59	5377.97
954.76	5451.69
954.92	5328.81
955.09	5375.92
955.25	5377.97
955.42	5357.49
955.58	5408.69
955.75	5363.63
955.91	5230.51
956.07	5402.54
956.24	5324.72
956.40	5345.20
956.57	5447.60
956.73	5443.50
956.90	5472.17
957.06	5388.21
957.23	5404.59
957.39	5416.88
957.56	5486.51
957.72	5300.14
957.88	5277.62
958.05	5437.36
958.21	5425.07
958.38	5408.69
958.54	5423.02
958.71	5506.99
958.87	5353.39
959.03	5369.77
959.20	5410.73
959.36	5410.73
959.53	5322.67
959.69	5392.30
959.85	5396.40
960.02	5402.54
960.18	5486.51
960.35	5414.83
960.51	5431.21
960.68	5375.92
960.84	5220.27
961.00	5433.26
961.17	5285.81
961.33	5392.30
961.50	5328.81
961.66	5527.47
961.82	5406.64
961.99	5373.87
962.15	5193.65
962.31	5306.29
962.48	5306.29
962.64	5390.25
962.81	5402.54
962.97	5367.73
963.13	5420.97
963.30	5380.01
963.46	5287.86
963.62	5355.44
963.79	5363.63
963.95	5169.07
964.12	5326.77
964.28	5164.98
964.44	5128.11
964.61	5275.57
964.77	5291.95
964.93	5463.98
965.10	5124.02
965.26	5152.69
965.42	5242.80
965.59	5171.12
965.75	5271.47
965.92	5285.81
966.08	5177.26
966.24	5224.37
966.41	5132.21
966.57	5255.09
966.73	5287.86
966.90	5097.39
967.06	5212.08
967.22	5205.94
967.39	5181.36
967.55	5087.15
967.71	5062.58
967.88	5160.88
968.04	5081.01
968.20	5236.66
968.37	5146.55
968.53	5193.65
968.69	5195.70
968.85	5144.50
969.02	5171.12
969.18	4980.66
969.34	5234.61
969.51	5132.21
969.67	5164.98
969.83	4890.55
970.00	5046.20
970.16	5064.63
970.32	5027.76
970.48	5218.22
970.65	4984.76
970.81	4911.03
970.97	5017.52
971.14	4919.22
971.30	5015.48
971.46	4763.58
971.63	5048.24
971.79	5005.24
971.95	4915.12
972.11	4818.87
972.28	4863.93
972.44	5001.14
972.60	4777.91
972.76	4951.99
972.93	4841.40
973.09	4902.84
973.25	4870.07
973.42	4870.07
973.58	5048.24
973.74	4886.45
973.90	4827.06
974.07	4810.68
974.23	4775.86
974.39	4749.24
974.55	4816.82
974.72	4874.17
974.88	4669.37
975.04	4919.22
975.20	4794.29
975.37	4638.65
975.53	4736.95
975.69	4726.71
975.85	4675.51
976.01	4747.19
976.18	4728.76
976.34	4659.13
976.50	4786.10
976.66	4632.51
976.83	4644.79
976.99	4638.65
977.15	4519.87
977.31	4583.35
977.47	4601.79
977.64	4675.51
977.80	4511.68
977.96	4597.69
978.12	4548.54
978.29	4579.26
978.45	4347.84
978.61	4489.15
978.77	4620.22
978.93	4419.52
979.10	4501.44
979.26	4566.97
979.42	4542.39
979.58	4462.52
979.74	4327.36
979.91	4528.06
980.07	4313.02
980.23	4474.81
980.39	4300.73
980.55	4390.84
980.71	4296.64
980.88	4315.07
981.04	4444.09
981.20	4327.36
981.36	4505.53
981.52	4212.67
981.68	4333.50
981.85	4325.31
982.01	4384.70
982.17	4222.91
982.33	4286.40
982.49	4306.88
982.65	4321.21
982.82	4261.82
982.98	4184.00
983.14	4259.78
983.30	4263.87
983.46	4179.90
983.62	4286.40
983.79	4177.86
983.95	4120.51
984.11	4175.81
984.27	4241.34
984.43	4227.01
984.59	4159.42
984.75	4100.03
984.91	4159.42
985.08	4145.09
985.24	4005.83
985.40	4040.64
985.56	4204.48
985.72	4239.30
985.88	4175.81
986.04	3993.54
986.20	4036.55
986.37	4087.75
986.53	4081.60
986.69	4091.84
986.85	3977.16
987.01	4032.45
987.17	4061.12
987.33	3901.38
987.49	3885.00
987.65	3968.96
987.82	3819.46
987.98	3934.15
988.14	3864.52
988.30	3952.58
988.46	3813.32
988.62	3878.85
988.78	3858.37
988.94	3874.76
989.10	3788.74
989.26	3790.79
989.42	3755.97
989.59	3704.78
989.75	3821.51
989.91	3858.37
990.07	3760.07
990.23	3784.65
990.39	3878.85
990.55	3729.35
990.71	3798.98
990.87	3764.17
991.03	3860.42
991.19	3753.93
991.35	3725.26
991.51	3772.36
991.67	3848.13
991.83	3635.14
992.00	3702.73
992.16	3602.38
992.32	3698.63
992.48	3788.74
992.64	3653.58
992.80	3657.67
992.96	3631.05
993.12	3592.14
993.28	3563.47
993.44	3641.29
993.60	3585.99
993.76	3672.01
993.92	3602.38
994.08	3710.92
994.24	3657.67
994.40	3600.33
994.56	3608.52
994.72	3504.07
994.88	3479.50
995.04	3542.99
995.20	3565.51
995.36	3467.21
995.52	3624.90
995.68	3549.13
995.84	3442.64
996.00	3645.38
996.16	3379.15
996.32	3366.86
996.48	3373.00
996.64	3469.26
996.80	3493.83
996.96	3547.08
997.12	3407.82
997.28	3446.73
997.44	3348.43
997.60	3379.15
997.76	3405.77
997.92	3459.02
998.08	3420.11
998.24	3286.99
998.40	3385.29
998.56	3346.38
998.72	3293.13
998.88	3268.56
999.04	3303.37
999.20	3407.82
999.36	3299.28
999.52	3389.39
999.68	3209.17
999.84	3303.37
1000.00	3330.00
1000.16	3266.51
1000.32	3301.33
1000.48	3379.15
1000.64	3149.78
1000.80	3186.64
1000.95	3131.34
1001.11	3289.04
1001.27	3145.68
1001.43	3198.93
1001.59	3016.66
1001.75	3141.58
1001.91	3141.58
1002.07	3248.08
1002.23	3141.58
1002.39	3117.01
1002.55	3108.82
1002.71	3106.77
1002.87	3108.82
1003.03	3082.19
1003.19	3055.57
1003.34	3084.24
1003.50	3071.95
1003.66	3135.44
1003.82	3063.76
1003.98	3157.97
1004.14	3145.68
1004.30	2869.20
1004.46	3076.05
1004.62	3037.14
1004.78	3065.81
1004.94	2957.27
1005.09	3082.19
1005.25	3151.82
1005.41	2967.51
1005.57	2936.79
1005.73	3020.75
1005.89	3028.95
1006.05	3014.61
1006.21	3041.23
1006.37	2881.49
1006.52	2832.34
1006.68	2789.33
1006.84	3000.27
1007.00	2877.40
1007.16	2912.21
1007.32	2879.44
1007.48	2906.07
1007.64	2873.30
1007.79	2930.64
1007.95	2918.36
1008.11	2867.16
1008.27	2875.35
1008.43	2801.62
1008.59	2842.58
1008.75	2887.64
1008.91	2789.33
1009.06	2858.96
1009.22	2854.87
1009.38	2807.77
1009.54	2818.00
1009.70	2758.61
1009.86	2746.33
1010.01	2760.66
1010.17	2785.24
1010.33	2815.96
1010.49	2850.77
1010.65	2899.92
1010.81	2691.03
1010.96	2688.98
1011.12	2789.33
1011.28	2686.94
1011.44	2785.24
1011.60	2686.94
1011.76	2746.33
1011.91	2654.17
1012.07	2715.61
1012.23	2652.12
1012.39	2617.30
1012.55	2682.84
1012.71	2600.92
1012.86	2568.15
1013.02	2697.17
1013.18	2582.49
1013.34	2619.35
1013.50	2727.89
1013.65	2760.66
1013.81	2674.65
1013.97	2570.20
1014.13	2658.26
1014.29	2637.78
1014.44	2801.62
1014.60	2564.06
1014.76	2422.75
1014.92	2570.20
1015.07	2584.54
1015.23	2619.35
1015.39	2574.30
1015.55	2545.63
1015.71	2537.43
1015.86	2480.09
1016.02	2582.49
1016.18	2455.51
1016.34	2555.86
1016.49	2492.38
1016.65	2562.01
1016.81	2508.76
1016.97	2514.91
1017.12	2564.06
1017.28	2426.84
1017.44	2340.83
1017.60	2508.76
1017.75	2541.53
1017.91	2432.99
1018.07	2412.51
1018.23	2398.17
1018.38	2375.64
1018.54	2408.41
1018.70	2437.08
1018.86	2324.44
1019.01	2441.18
1019.17	2367.45
1019.33	2449.37
1019.49	2260.96
1019.64	2445.27
1019.80	2346.97
1019.96	2451.42
1020.12	2461.66
1020.27	2318.30
1020.43	2355.16
1020.59	2396.12
1020.74	2363.36
1020.90	2318.30
1021.06	2295.77
1021.22	2340.83
1021.37	2426.84
1021.53	2340.83
1021.69	2371.55
1021.84	2346.97
1022.00	2371.55
1022.16	2351.07
1022.31	2320.35
1022.47	2271.20
1022.63	2402.27
1022.79	2160.61
1022.94	2256.86
1023.10	2355.16
1023.26	2260.96
1023.41	2289.63
1023.57	2273.25
1023.73	2297.82
1023.88	2265.05
1024.04	2205.66
1024.20	2230.24
1024.35	2207.71
1024.51	2289.63
1024.67	2291.68
1024.82	2297.82
1024.98	2183.13
1025.14	2154.46
1025.29	2285.53
1025.45	2263.01
1025.61	2209.76
1025.76	2213.85
1025.92	2195.42
1026.08	2281.44
1026.23	2256.86
1026.39	2310.11
1026.55	2140.13
1026.70	2197.47
1026.86	2119.65
1027.02	2191.33
1027.17	2131.94
1027.33	2213.85
1027.48	2164.70
1027.64	2191.33
1027.80	2154.46
1027.95	2217.95
1028.11	2072.54
1028.27	2301.92
1028.42	2238.43
1028.58	2070.50
1028.73	2133.98
1028.89	2060.26
1029.05	2228.19
1029.20	2152.42
>>>>>End Processed Spectral Data<<<<<
