SpectraSuite Data File
++++++++++++++++++++++++++++++++++++
Date: Fri Jun 02 14:53:28 CEST 2017
User: INFO_000
Dark Spectrum Present: No
Reference Spectrum Present: No
Number of Sampled Component Spectra: 1
Spectrometers: USB4H00879
Integration Time (usec): 80000 (USB4H00879)
Spectra Averaged: 1 (USB4H00879)
Boxcar Smoothing: 0 (USB4H00879)
Correct for Electrical Dark: No (USB4H00879)
Strobe/Lamp Enabled: No (USB4H00879)
Correct for Detector Non-linearity: No (USB4H00879)
Correct for Stray Light: No (USB4H00879)
Number of Pixels in Processed Spectrum: 3648
>>>>>Begin Processed Spectral Data<<<<<
345.13	1290.22
345.34	1290.22
345.56	1290.22
345.78	1245.16
345.99	1249.26
346.21	1724.39
346.42	1687.53
346.64	1658.85
346.86	1855.46
347.07	1656.81
347.29	1753.06
347.50	1593.32
347.72	1701.86
347.94	1693.67
348.15	1609.70
348.37	1615.85
348.59	1712.10
348.80	1730.53
349.02	1679.33
349.23	1738.73
349.45	1724.39
349.67	1738.73
349.88	1751.01
350.10	1886.18
350.31	1789.92
350.53	1665.00
350.75	1841.12
350.96	1658.85
351.18	1728.49
351.39	1677.29
351.61	1650.66
351.82	1738.73
352.04	1744.87
352.26	1681.38
352.47	1730.53
352.69	1714.15
352.90	1634.28
353.12	1726.44
353.34	1773.54
353.55	1837.03
353.77	1773.54
353.98	1705.96
354.20	1687.53
354.41	1771.49
354.63	1789.92
354.85	1871.84
355.06	1734.63
355.28	1626.09
355.49	1705.96
355.71	1695.72
355.92	1646.57
356.14	1755.11
356.35	1740.77
356.57	1683.43
356.79	1720.29
357.00	1691.62
357.22	1746.92
357.43	1712.10
357.65	1730.53
357.86	1642.47
358.08	1724.39
358.29	1687.53
358.51	1814.50
358.72	1785.83
358.94	1744.87
359.16	1769.44
359.37	1703.91
359.59	1746.92
359.80	1710.05
360.02	1695.72
360.23	1691.62
360.45	1775.59
360.66	1712.10
360.88	1609.70
361.09	1691.62
361.31	1759.21
361.52	1728.49
361.74	1771.49
361.95	1828.84
362.17	1757.16
362.38	1824.74
362.60	1798.12
362.81	1667.05
363.03	1656.81
363.24	1669.09
363.46	1830.88
363.67	1794.02
363.89	1740.77
364.10	1757.16
364.32	1683.43
364.53	1847.27
364.75	1564.65
364.96	1708.01
365.18	1689.57
365.39	1732.58
365.61	1675.24
365.82	1880.04
366.04	1619.94
366.25	1683.43
366.47	1789.92
366.68	1689.57
366.90	1675.24
367.11	1728.49
367.33	1689.57
367.54	1771.49
367.76	1626.09
367.97	1722.34
368.19	1740.77
368.40	1765.35
368.62	1726.44
368.83	1619.94
369.05	1771.49
369.26	1675.24
369.48	1646.57
369.69	1593.32
369.91	1779.68
370.12	1638.38
370.33	1753.06
370.55	1630.18
370.76	1646.57
370.98	1699.81
371.19	1671.14
371.41	1613.80
371.62	1658.85
371.84	1621.99
372.05	1761.25
372.27	1712.10
372.48	1613.80
372.69	1771.49
372.91	1769.44
373.12	1748.97
373.34	1693.67
373.55	1748.97
373.77	1802.21
373.98	1685.48
374.20	1763.30
374.41	1875.94
374.62	1662.95
374.84	1843.17
375.05	1757.16
375.27	1738.73
375.48	1673.19
375.70	1642.47
375.91	1787.88
376.12	1808.36
376.34	1654.76
376.55	1736.68
376.77	1650.66
376.98	1654.76
377.19	1689.57
377.41	1708.01
377.62	1697.77
377.84	1708.01
378.05	1843.17
378.27	1660.90
378.48	1820.64
378.69	1880.04
378.91	1753.06
379.12	1738.73
379.34	1726.44
379.55	1839.08
379.76	1753.06
379.98	1708.01
380.19	1695.72
380.41	1732.58
380.62	1751.01
380.83	1740.77
381.05	1640.42
381.26	1746.92
381.47	1726.44
381.69	1732.58
381.90	1804.26
382.12	1761.25
382.33	1708.01
382.54	1687.53
382.76	1712.10
382.97	1722.34
383.19	1605.61
383.40	1771.49
383.61	1705.96
383.83	1648.61
384.04	1675.24
384.25	1726.44
384.47	1759.21
384.68	1753.06
384.89	1630.18
385.11	1630.18
385.32	1681.38
385.54	1736.68
385.75	1630.18
385.96	1693.67
386.18	1673.19
386.39	1720.29
386.60	1695.72
386.82	1736.68
387.03	1722.34
387.24	1703.91
387.46	1687.53
387.67	1734.63
387.88	1714.15
388.10	1691.62
388.31	1765.35
388.52	1783.78
388.74	1691.62
388.95	1718.25
389.16	1656.81
389.38	1646.57
389.59	1775.59
389.80	1703.91
390.02	1691.62
390.23	1714.15
390.44	1738.73
390.66	1759.21
390.87	1683.43
391.08	1757.16
391.30	1830.88
391.51	1732.58
391.72	1791.97
391.94	1777.64
392.15	1740.77
392.36	1687.53
392.58	1703.91
392.79	1765.35
393.00	1716.20
393.22	1765.35
393.43	1828.84
393.64	1789.92
393.85	1814.50
394.07	1712.10
394.28	1681.38
394.49	1757.16
394.71	1728.49
394.92	1785.83
395.13	1601.51
395.35	1683.43
395.56	1658.85
395.77	1746.92
395.98	1746.92
396.20	1771.49
396.41	1771.49
396.62	1718.25
396.84	1720.29
397.05	1683.43
397.26	1660.90
397.47	1798.12
397.69	1671.14
397.90	1843.17
398.11	1826.79
398.32	1648.61
398.54	1736.68
398.75	1712.10
398.96	1705.96
399.18	1859.56
399.39	1691.62
399.60	1746.92
399.81	1703.91
400.03	1669.09
400.24	1900.52
400.45	1757.16
400.66	1818.60
400.88	1615.85
401.09	1861.60
401.30	1675.24
401.51	1781.73
401.73	1818.60
401.94	1828.84
402.15	1757.16
402.36	1765.35
402.58	1708.01
402.79	1765.35
403.00	1687.53
403.21	1722.34
403.43	1794.02
403.64	1689.57
403.85	1705.96
404.06	1777.64
404.27	1705.96
404.49	1708.01
404.70	1736.68
404.91	1877.99
405.12	1724.39
405.34	1820.64
405.55	1886.18
405.76	1589.22
405.97	1720.29
406.19	1839.08
406.40	1611.75
406.61	1761.25
406.82	1730.53
407.03	1755.11
407.25	1662.95
407.46	1751.01
407.67	1755.11
407.88	1798.12
408.09	1726.44
408.31	1726.44
408.52	1775.59
408.73	1693.67
408.94	1630.18
409.15	1738.73
409.37	1837.03
409.58	1769.44
409.79	1812.45
410.00	1806.31
410.21	1691.62
410.43	1755.11
410.64	1648.61
410.85	1763.30
411.06	1755.11
411.27	1763.30
411.48	1808.36
411.70	1812.45
411.91	1716.20
412.12	1834.98
412.33	1824.74
412.54	1691.62
412.76	1849.32
412.97	1781.73
413.18	1730.53
413.39	1716.20
413.60	1798.12
413.81	1703.91
414.03	1716.20
414.24	1716.20
414.45	1791.97
414.66	1603.56
414.87	1767.40
415.08	1716.20
415.30	1781.73
415.51	1773.54
415.72	1732.58
415.93	1699.81
416.14	1742.82
416.35	1669.09
416.56	1808.36
416.78	1734.63
416.99	1757.16
417.20	1732.58
417.41	1816.55
417.62	1777.64
417.83	1791.97
418.04	1685.48
418.26	1761.25
418.47	1761.25
418.68	1757.16
418.89	1822.69
419.10	1894.37
419.31	1796.07
419.52	1732.58
419.73	1650.66
419.95	1732.58
420.16	1761.25
420.37	1652.71
420.58	1746.92
420.79	1615.85
421.00	1644.52
421.21	1681.38
421.42	1744.87
421.63	1693.67
421.85	1726.44
422.06	1783.78
422.27	1732.58
422.48	1708.01
422.69	1699.81
422.90	1683.43
423.11	1642.47
423.32	1820.64
423.53	1757.16
423.75	1695.72
423.96	1726.44
424.17	1761.25
424.38	1873.89
424.59	1669.09
424.80	1691.62
425.01	1740.77
425.22	1576.94
425.43	1693.67
425.64	1853.41
425.85	1824.74
426.06	1806.31
426.28	1699.81
426.49	1601.51
426.70	1654.76
426.91	1746.92
427.12	1785.83
427.33	1789.92
427.54	1744.87
427.75	1748.97
427.96	1767.40
428.17	1781.73
428.38	1748.97
428.59	1855.46
428.80	1656.81
429.01	1685.48
429.23	1697.77
429.44	1718.25
429.65	1759.21
429.86	1703.91
430.07	1787.88
430.28	1697.77
430.49	1710.05
430.70	1787.88
430.91	1777.64
431.12	1751.01
431.33	1763.30
431.54	1818.60
431.75	1701.86
431.96	1699.81
432.17	1710.05
432.38	1837.03
432.59	1822.69
432.80	1859.56
433.01	1740.77
433.22	1728.49
433.43	1736.68
433.64	1822.69
433.85	1757.16
434.06	1755.11
434.27	1644.52
434.49	1716.20
434.70	1884.13
434.91	1742.82
435.12	1769.44
435.33	1677.29
435.54	1746.92
435.75	1724.39
435.96	1677.29
436.17	1705.96
436.38	1777.64
436.59	1818.60
436.80	1746.92
437.01	1834.98
437.22	1746.92
437.43	1765.35
437.64	1681.38
437.85	1855.46
438.06	1777.64
438.27	1771.49
438.48	1740.77
438.69	1814.50
438.90	1748.97
439.11	1708.01
439.32	1796.07
439.53	1615.85
439.74	1806.31
439.95	1755.11
440.16	1748.97
440.37	1843.17
440.57	1730.53
440.78	1808.36
440.99	1910.75
441.20	1718.25
441.41	1728.49
441.62	1675.24
441.83	1699.81
442.04	1597.42
442.25	1726.44
442.46	1613.80
442.67	1712.10
442.88	1847.27
443.09	1714.15
443.30	1681.38
443.51	1736.68
443.72	1791.97
443.93	1787.88
444.14	1884.13
444.35	1671.14
444.56	1748.97
444.77	1712.10
444.98	1791.97
445.19	1759.21
445.40	1744.87
445.61	1755.11
445.81	1753.06
446.02	1941.47
446.23	1732.58
446.44	1773.54
446.65	1830.88
446.86	1847.27
447.07	1982.43
447.28	1773.54
447.49	1757.16
447.70	1834.98
447.91	1894.37
448.12	1773.54
448.33	1853.41
448.54	1775.59
448.74	1808.36
448.95	1714.15
449.16	1847.27
449.37	1826.79
449.58	1761.25
449.79	1880.04
450.00	1806.31
450.21	1783.78
450.42	1839.08
450.63	1775.59
450.84	1693.67
451.05	1785.83
451.25	1728.49
451.46	1689.57
451.67	1910.75
451.88	1873.89
452.09	1769.44
452.30	1730.53
452.51	1679.33
452.72	1869.80
452.93	1902.56
453.13	1679.33
453.34	1763.30
453.55	1783.78
453.76	1732.58
453.97	1697.77
454.18	1712.10
454.39	1787.88
454.60	1716.20
454.81	1894.37
455.01	1808.36
455.22	1705.96
455.43	1761.25
455.64	1894.37
455.85	1906.66
456.06	1849.32
456.27	1837.03
456.48	1794.02
456.68	1794.02
456.89	1902.56
457.10	1724.39
457.31	1796.07
457.52	1748.97
457.73	1818.60
457.94	1783.78
458.14	1683.43
458.35	1884.13
458.56	1814.50
458.77	1765.35
458.98	1779.68
459.19	1855.46
459.39	1826.79
459.60	1863.65
459.81	1765.35
460.02	1687.53
460.23	1761.25
460.44	1738.73
460.65	1808.36
460.85	1806.31
461.06	1751.01
461.27	1802.21
461.48	1757.16
461.69	1748.97
461.89	1724.39
462.10	1726.44
462.31	1619.94
462.52	1765.35
462.73	1769.44
462.94	1904.61
463.14	1753.06
463.35	1843.17
463.56	1992.67
463.77	1871.84
463.98	1839.08
464.18	1751.01
464.39	1947.62
464.60	1937.38
464.81	1789.92
465.02	1906.66
465.23	1900.52
465.43	1834.98
465.64	1742.82
465.85	1755.11
466.06	1863.65
466.27	1918.95
466.47	1966.05
466.68	1875.94
466.89	1781.73
467.10	1851.36
467.30	1738.73
467.51	2056.16
467.72	1941.47
467.93	1837.03
468.14	1822.69
468.34	1966.05
468.55	1822.69
468.76	1968.10
468.97	1824.74
469.17	2037.73
469.38	1986.53
469.59	2021.35
469.80	1841.12
470.01	2029.54
470.21	1863.65
470.42	1966.05
470.63	1992.67
470.84	1970.15
471.04	1892.32
471.25	2070.50
471.46	1882.08
471.67	2174.94
471.87	1859.56
472.08	2021.35
472.29	1890.28
472.50	1984.48
472.70	1996.77
472.91	1769.44
473.12	1841.12
473.33	1966.05
473.53	2002.91
473.74	1896.42
473.95	1994.72
474.16	1945.57
474.36	1925.09
474.57	2068.45
474.78	2007.01
474.99	2183.13
475.19	1947.62
475.40	2035.68
475.61	2150.37
475.81	1906.66
476.02	1941.47
476.23	1974.24
476.44	1935.33
476.64	1935.33
476.85	2125.79
477.06	1990.63
477.27	2152.42
477.47	2140.13
477.68	2068.45
477.89	2068.45
478.09	2054.11
478.30	1961.95
478.51	1939.43
478.71	1966.05
478.92	2138.08
479.13	2213.85
479.34	2125.79
479.54	2293.72
479.75	2086.88
479.96	2158.56
480.16	1992.67
480.37	2146.27
480.58	2187.23
480.78	2357.21
480.99	2156.51
481.20	2164.70
481.41	2033.63
481.61	2111.46
481.82	2488.28
482.03	2144.22
482.23	2068.45
482.44	2336.73
482.65	2447.32
482.85	2338.78
483.06	2277.34
483.27	2312.16
483.47	2314.20
483.68	2111.46
483.89	2150.37
484.09	2529.24
484.30	2342.88
484.51	2248.67
484.71	2301.92
484.92	2338.78
485.13	2357.21
485.33	2256.86
485.54	2287.58
485.75	2224.09
485.95	2344.92
486.16	2150.37
486.37	2332.64
486.57	2287.58
486.78	2338.78
486.98	2568.15
487.19	2211.81
487.40	2424.80
487.60	2263.01
487.81	2340.83
488.02	2254.81
488.22	2363.36
488.43	2410.46
488.64	2467.80
488.84	2328.54
489.05	2451.42
489.25	2381.79
489.46	2244.57
489.67	2465.75
489.87	2738.13
490.08	2439.13
490.29	2418.65
490.49	2443.23
490.70	2666.46
490.90	2412.51
491.11	2385.88
491.32	2531.29
491.52	2334.68
491.73	2566.10
491.94	2414.56
492.14	2555.86
492.35	2607.06
492.55	2486.23
492.76	2463.71
492.97	2547.67
493.17	2521.05
493.38	2715.61
493.58	2885.59
493.79	2740.18
494.00	2793.43
494.20	2645.98
494.41	3026.90
494.61	2873.30
494.82	2836.44
495.02	2531.29
495.23	2899.92
495.44	2576.34
495.64	2781.14
495.85	2715.61
496.05	2867.16
496.26	2867.16
496.47	2686.94
496.67	2562.01
496.88	3268.56
497.08	2666.46
497.29	2961.36
497.49	2877.40
497.70	2731.99
497.91	2731.99
498.11	3045.33
498.32	2951.12
498.52	2854.87
498.73	2752.47
498.93	3022.80
499.14	3164.11
499.34	3016.66
499.55	3137.49
499.76	2740.18
499.96	3149.78
500.17	2795.48
500.37	2910.16
500.58	3055.57
500.78	2824.15
500.99	2723.80
501.19	3157.97
501.40	3166.16
501.60	2633.69
501.81	3067.86
502.02	3289.04
502.22	2867.16
502.43	3225.55
502.63	3045.33
502.84	3338.19
503.04	3022.80
503.25	3188.69
503.45	3104.72
503.66	2809.81
503.86	2967.51
504.07	2879.44
504.27	2818.00
504.48	2940.88
504.68	3194.83
504.89	3149.78
505.09	2897.88
505.30	2897.88
505.50	3151.82
505.71	2922.45
505.91	3579.85
506.12	3174.35
506.32	3008.47
506.53	3076.05
506.73	3137.49
506.94	3297.23
507.14	2924.50
507.35	3194.83
507.55	3059.67
507.76	3170.26
507.96	3225.55
508.17	3215.31
508.37	3000.27
508.58	3567.56
508.78	3209.17
508.99	3694.54
509.19	3059.67
509.40	3360.72
509.60	3493.83
509.81	3395.53
510.01	3254.22
510.22	3223.50
510.42	3348.43
510.63	3338.19
510.83	3278.80
511.04	3117.01
511.24	3483.59
511.44	3231.69
511.65	3530.70
511.85	3166.16
512.06	3350.48
512.26	3350.48
512.47	3420.11
512.67	3487.69
512.88	3264.46
513.08	3432.40
513.29	3563.47
513.49	3176.40
513.69	3305.42
513.90	3489.74
514.10	3430.35
514.31	3536.84
514.51	3551.18
514.72	3747.78
514.92	3618.76
515.13	3284.94
515.33	3393.48
515.53	3532.75
515.74	3831.75
515.94	3252.17
516.15	3819.46
516.35	3256.27
516.56	3366.86
516.76	3149.78
516.96	3770.31
517.17	3803.08
517.37	3303.37
517.58	3551.18
517.78	3542.99
517.99	3665.86
518.19	3717.06
518.39	3530.70
518.60	4206.53
518.80	3624.90
519.01	4249.54
519.21	3579.85
519.41	3950.53
519.62	3358.67
519.82	3735.50
520.03	3755.97
520.23	3788.74
520.43	3532.75
520.64	4263.87
520.84	3608.52
521.05	3700.68
521.25	3465.16
521.45	3694.54
521.66	3602.38
521.86	3868.61
522.07	3809.22
522.27	3725.26
522.47	3604.42
522.68	3780.55
522.88	3618.76
523.08	3950.53
523.29	3571.66
523.49	3815.37
523.70	3694.54
523.90	3796.93
524.10	4001.73
524.31	3710.92
524.51	3600.33
524.71	3741.64
524.92	4009.92
525.12	3663.82
525.33	3719.11
525.53	3899.33
525.73	4046.79
525.94	3954.63
526.14	4038.59
526.34	3637.19
526.55	3915.72
526.75	4278.21
526.95	4151.23
527.16	4120.51
527.36	4061.12
527.56	4116.42
527.77	3954.63
527.97	3981.25
528.17	4063.17
528.38	4112.32
528.58	3948.48
528.78	3868.61
528.99	3864.52
529.19	4280.25
529.39	3895.24
529.60	3985.35
529.80	4048.83
530.00	4069.31
530.21	4239.30
530.41	4306.88
530.61	4820.92
530.82	4194.24
531.02	4134.85
531.22	4106.18
531.43	4173.76
531.63	4349.89
531.83	4106.18
532.04	4300.73
532.24	4214.72
532.44	4048.83
532.64	4132.80
532.85	4497.34
533.05	4573.11
533.25	4173.76
533.46	4382.65
533.66	4648.89
533.86	4114.37
534.07	4755.38
534.27	4403.13
534.47	4605.88
534.67	4376.51
534.88	4155.33
535.08	4761.53
535.28	4833.21
535.49	4452.28
535.69	4493.24
535.89	5017.52
536.09	4804.53
536.30	4489.15
536.50	4374.46
536.70	4661.18
536.91	4245.44
537.11	4943.80
537.31	4771.77
537.51	4753.34
537.72	4870.07
537.92	4452.28
538.12	4984.76
538.32	4876.21
538.53	4659.13
538.73	4632.51
538.93	4646.84
539.13	4759.48
539.34	4915.12
539.54	4491.20
539.74	4708.28
539.94	4825.01
540.15	5189.55
540.35	4632.51
540.55	4779.96
540.75	4714.42
540.96	4958.13
541.16	4964.28
541.36	4779.96
541.56	5062.58
541.77	5195.70
541.97	4708.28
542.17	4691.90
542.37	5207.98
542.58	4894.65
542.78	5134.26
542.98	4790.20
543.18	4968.37
543.38	5197.74
543.59	5068.72
543.79	4685.75
543.99	5038.00
544.19	4804.53
544.40	4837.30
544.60	5095.35
544.80	5093.30
545.00	4939.70
545.20	5013.43
545.41	5220.27
545.61	4763.58
545.81	5101.49
546.01	5220.27
546.21	5140.40
546.42	5189.55
546.62	5195.70
546.82	5119.92
547.02	5203.89
547.22	5310.38
547.43	5377.97
547.63	5195.70
547.83	4997.04
548.03	4698.04
548.23	5007.28
548.44	5242.80
548.64	5400.49
548.84	5009.33
549.04	5099.44
549.24	5316.53
549.45	6545.31
549.65	5021.62
549.85	5375.92
550.05	5494.70
550.25	5181.36
550.45	5730.22
550.66	5394.35
550.86	5312.43
551.06	5234.61
551.26	5244.85
551.46	5042.10
551.66	5455.79
551.87	5334.96
552.07	5294.00
552.27	5283.76
552.47	5308.34
552.67	5195.70
552.87	5250.99
553.07	5646.25
553.28	5455.79
553.48	5332.91
553.68	5205.94
553.88	5609.39
554.08	5332.91
554.28	5754.79
554.48	5408.69
554.69	5367.73
554.89	5285.81
555.09	5394.35
555.29	5283.76
555.49	5556.14
555.69	5494.70
555.89	5556.14
556.10	5255.09
556.30	5240.75
556.50	5506.99
556.70	5547.95
556.90	5246.90
557.10	5537.71
557.30	5482.41
557.50	5533.61
557.70	5533.61
557.91	5357.49
558.11	5640.11
558.31	5855.14
558.51	5558.19
558.71	5685.16
558.91	5619.63
559.11	5699.50
559.31	5259.18
559.51	5386.16
559.72	5543.85
559.92	5472.17
560.12	5703.59
560.32	5810.09
560.52	5752.74
560.72	5580.71
560.92	5939.11
561.12	5574.57
561.32	5631.91
561.52	5185.46
561.72	6016.93
561.93	5695.40
562.13	5672.87
562.33	5504.94
562.53	5851.05
562.73	5717.93
562.93	5560.24
563.13	5842.85
563.33	5646.25
563.53	5740.46
563.73	5627.82
563.93	5932.97
564.13	5846.95
564.33	5810.09
564.53	5687.21
564.74	5863.33
564.94	5859.24
565.14	5984.16
565.34	5832.62
565.54	5521.32
565.74	5607.34
565.94	5873.57
566.14	5734.31
566.34	5550.00
566.54	5679.02
566.74	5828.52
566.94	5926.82
567.14	5865.38
567.34	5978.02
567.54	5738.41
567.74	6021.03
567.94	5707.69
568.14	5552.04
568.34	6100.90
568.54	6055.84
568.74	5504.94
568.94	5814.18
569.14	6047.65
569.34	6238.11
569.54	5941.16
569.75	5758.89
569.95	5638.06
570.15	5998.50
570.35	5914.53
570.55	5478.32
570.75	6033.32
570.95	6027.17
571.15	5601.19
571.35	5926.82
571.55	6197.15
571.75	6113.19
571.95	6238.11
572.15	5541.80
572.35	5924.77
572.55	5947.30
572.75	6049.70
572.95	5703.59
573.15	6092.71
573.35	6168.48
573.55	5748.65
573.75	5648.30
573.95	6285.22
574.15	6049.70
574.35	6340.51
574.55	5937.06
574.75	5846.95
574.95	6154.15
575.15	5889.96
575.34	5896.10
575.54	5883.81
575.74	6268.83
575.94	5992.36
576.14	5965.73
576.34	5965.73
576.54	6018.98
576.74	5943.21
576.94	6301.60
577.14	5857.19
577.34	6072.23
577.54	5912.49
577.74	6096.80
577.94	6313.89
578.14	6193.06
578.34	6389.66
578.54	6033.32
578.74	6381.47
578.94	6092.71
579.14	6168.48
579.34	5703.59
579.54	6422.43
579.74	6270.88
579.94	6053.80
580.13	6317.98
580.33	5695.40
580.53	5834.66
580.73	5957.54
580.93	6309.79
581.13	5830.57
581.33	6006.69
581.53	6506.40
581.73	6379.42
581.93	6209.44
582.13	6352.80
582.33	6182.82
582.53	6385.57
582.73	6584.22
582.92	6242.21
583.12	6604.70
583.32	6234.02
583.52	6141.86
583.72	6657.95
583.92	6533.02
584.12	6240.16
584.32	6391.71
584.52	6117.28
584.72	6358.94
584.92	6514.59
585.11	6649.75
585.31	6655.90
585.51	6330.27
585.71	6385.57
585.91	6561.69
586.11	6727.58
586.31	6498.20
586.51	6549.40
586.71	6440.86
586.91	6150.05
587.10	6528.92
587.30	6555.55
587.50	6401.95
587.70	6223.78
587.90	6506.40
588.10	6553.50
588.30	6664.09
588.50	6430.62
588.69	6254.50
588.89	6383.52
589.09	6434.72
589.29	6727.58
589.49	6440.86
589.69	6225.82
589.89	6909.85
590.08	6524.83
590.28	6492.06
590.48	6639.51
590.68	6498.20
590.88	6860.70
591.08	6567.84
591.28	6471.58
591.47	6549.40
591.67	6477.73
591.87	6778.78
592.07	6584.22
592.27	6635.42
592.47	6342.56
592.67	6557.60
592.86	6621.08
593.06	6860.70
593.26	6657.95
593.46	6578.08
593.66	6498.20
593.86	7002.01
594.05	6938.52
594.25	6809.50
594.45	6565.79
594.65	6971.29
594.85	6600.60
595.05	6459.29
595.24	6811.54
595.44	6602.65
595.64	6651.80
595.84	6938.52
596.04	6690.71
596.23	6770.58
596.43	7002.01
596.63	7024.53
596.83	6911.89
597.03	7301.01
597.22	6956.95
597.42	7096.21
597.62	6895.51
597.82	6924.18
598.02	6879.13
598.21	6770.58
598.41	6545.31
598.61	6963.09
598.81	6764.44
599.01	7098.26
599.20	7079.83
599.40	6700.95
599.60	7192.47
599.80	6811.54
600.00	7010.20
600.19	6934.42
600.39	6582.17
600.59	6885.27
600.79	6868.89
600.98	7014.29
601.18	7042.96
601.38	7026.58
601.58	7040.92
601.78	7264.15
601.97	7403.41
602.17	7128.98
602.37	7096.21
602.57	7243.67
602.76	7208.85
602.96	7221.14
603.16	6936.47
603.36	7098.26
603.55	7169.94
603.75	6827.93
603.95	7081.88
604.15	7374.74
604.34	7110.55
604.54	7155.60
604.74	7253.91
604.94	7374.74
605.13	7092.12
605.33	7266.19
605.53	7030.68
605.73	7186.32
605.92	7333.78
606.12	7284.62
606.32	7309.20
606.52	7194.51
606.71	7163.79
606.91	7260.05
607.11	6903.70
607.30	7219.09
607.50	7178.13
607.70	7372.69
607.90	7069.59
608.09	6881.18
608.29	7284.62
608.49	7399.31
608.68	7040.92
608.88	7323.54
609.08	6975.38
609.28	7536.52
609.47	7382.93
609.67	7270.29
609.87	7311.25
610.06	7491.47
610.26	7653.26
610.46	7485.33
610.66	7174.03
610.85	7184.27
611.05	7290.77
611.25	7366.54
611.44	7104.40
611.64	7163.79
611.84	7378.83
612.03	7128.98
612.23	7325.58
612.43	7344.02
612.62	7233.43
612.82	7563.15
613.02	7225.23
613.21	7143.32
613.41	7436.17
613.61	7292.82
613.80	7180.18
614.00	7272.34
614.20	7223.19
614.39	7387.02
614.59	7315.34
614.79	7106.45
614.98	7630.73
615.18	7233.43
615.38	7243.67
615.57	7423.89
615.77	7825.29
615.97	7585.68
616.16	7348.11
616.36	7200.66
616.56	7368.59
616.75	7364.50
616.95	7247.76
617.15	7565.20
617.34	7169.94
617.54	7743.37
617.74	7753.61
617.93	7739.27
618.13	7305.10
618.32	7344.02
618.52	7448.46
618.72	7417.74
618.91	7464.85
619.11	7391.12
619.31	7411.60
619.50	7137.17
619.70	7344.02
619.90	7260.05
620.09	7600.01
620.29	7161.75
620.48	7567.24
620.68	7485.33
620.88	7532.43
621.07	7571.34
621.27	7499.66
621.46	7483.28
621.66	7192.47
621.86	7221.14
622.05	7507.85
622.25	7726.99
622.44	7233.43
622.64	7223.19
622.84	7176.08
623.03	7499.66
623.23	7128.98
623.42	7382.93
623.62	7282.58
623.82	7489.42
624.01	7745.42
624.21	7542.67
624.40	7493.52
624.60	7358.35
624.80	7384.98
624.99	7194.51
625.19	7391.12
625.38	7495.57
625.58	7442.32
625.77	7317.39
625.97	7520.14
626.17	7444.37
626.36	7735.18
626.56	7704.46
626.75	7135.12
626.95	7573.39
627.14	7350.16
627.34	7583.63
627.54	7518.09
627.73	7604.11
627.93	7382.93
628.12	7354.26
628.32	7602.06
628.51	7600.01
628.71	8191.88
628.90	7337.87
629.10	7344.02
629.30	7423.89
629.49	7413.65
629.69	7573.39
629.88	7501.71
630.08	7749.51
630.27	7585.68
630.47	7434.13
630.66	7368.59
630.86	7579.53
631.05	7194.51
631.25	7540.62
631.44	7423.89
631.64	7464.85
631.84	7393.17
632.03	7774.09
632.23	7413.65
632.42	7458.70
632.62	7464.85
632.81	7456.65
633.01	7448.46
633.20	7769.99
633.40	7751.56
633.59	7489.42
633.79	7587.72
633.98	7434.13
634.18	7614.35
634.37	7577.48
634.57	7352.21
634.76	7255.95
634.96	7417.74
635.15	7550.86
635.35	7520.14
635.54	7636.88
635.74	7362.45
635.93	7446.41
636.13	7315.34
636.32	7548.81
636.52	7417.74
636.71	7487.37
636.91	7503.76
637.10	7561.10
637.30	7307.15
637.49	7319.44
637.69	7745.42
637.88	7499.66
638.08	7391.12
638.27	7557.00
638.46	7425.93
638.66	7589.77
638.85	7538.57
639.05	7540.62
639.24	7511.95
639.44	7577.48
639.63	7706.51
639.83	7552.91
640.02	7528.33
640.22	7448.46
640.41	7567.24
640.61	7708.55
640.80	7683.98
640.99	7278.48
641.19	7694.22
641.38	7849.86
641.58	7419.79
641.77	7255.95
641.97	7378.83
642.16	7493.52
642.36	7389.07
642.55	7557.00
642.74	7858.06
642.94	7675.79
643.13	7393.17
643.33	7563.15
643.52	7389.07
643.72	7571.34
643.91	7296.91
644.10	7751.56
644.30	7511.95
644.49	7632.78
644.69	7626.64
644.88	7454.61
645.08	7704.46
645.27	7686.03
645.46	7577.48
645.66	7645.07
645.85	7827.34
646.05	7481.23
646.24	7485.33
646.43	7315.34
646.63	7686.03
646.82	7485.33
647.02	7647.12
647.21	7722.89
647.40	7384.98
647.60	7356.30
647.79	7499.66
647.99	7767.95
648.18	7663.50
648.37	7884.68
648.57	7634.83
648.76	7286.67
648.96	7712.65
649.15	7368.59
649.34	8112.00
649.54	7753.61
649.73	7499.66
649.92	7675.79
650.12	7907.21
650.31	7430.03
650.51	8112.00
650.70	7583.63
650.89	7600.01
651.09	7901.06
651.28	7876.49
651.47	7503.76
651.67	7876.49
651.86	7868.30
652.06	7634.83
652.25	7968.65
652.44	7301.01
652.64	7741.32
652.83	7692.17
653.02	7835.53
653.22	7602.06
653.41	7563.15
653.60	7704.46
653.80	7593.87
653.99	7692.17
654.18	7632.78
654.38	7544.72
654.57	7817.10
654.76	7597.96
654.96	7909.26
655.15	7487.37
655.34	7862.15
655.54	7395.22
655.73	7810.95
655.92	7624.59
656.12	7718.79
656.31	7884.68
656.50	8163.20
656.70	7479.18
656.89	7769.99
657.08	7581.58
657.28	7712.65
657.47	7378.83
657.66	7901.06
657.86	7524.24
658.05	7782.28
658.24	7686.03
658.43	7933.83
658.63	7528.33
658.82	7604.11
659.01	7585.68
659.21	8163.20
659.40	7509.90
659.59	7720.84
659.79	7982.98
659.98	8183.68
660.17	7614.35
660.36	7905.16
660.56	7880.58
660.75	7794.57
660.94	7999.37
661.14	7923.59
661.33	7757.71
661.52	7921.54
661.71	7636.88
661.91	7866.25
662.10	7856.01
662.29	7786.38
662.49	7919.50
662.68	7630.73
662.87	7866.25
663.06	7835.53
663.26	7663.50
663.45	7991.17
663.64	7712.65
663.83	7819.14
664.03	8048.52
664.22	8003.46
664.41	8128.39
664.60	8054.66
664.80	7843.72
664.99	7995.27
665.18	7708.55
665.37	7849.86
665.57	7950.21
665.76	7815.05
665.95	7929.74
666.14	7823.24
666.34	7815.05
666.53	8081.28
666.72	7456.65
666.91	7653.26
667.11	7929.74
667.30	8015.75
667.49	7688.07
667.68	8042.37
667.87	7749.51
668.07	7686.03
668.26	7798.66
668.45	7743.37
668.64	7739.27
668.84	7729.03
669.03	7997.32
669.22	7851.91
669.41	7626.64
669.60	7491.47
669.80	7743.37
669.99	7769.99
670.18	7681.93
670.37	7899.02
670.57	8025.99
670.76	7845.77
670.95	7708.55
671.14	7749.51
671.33	7538.57
671.53	8066.95
671.72	7917.45
671.91	7798.66
672.10	7767.95
672.29	8034.18
672.48	7710.60
672.68	7655.31
672.87	8048.52
673.06	8087.43
673.25	7882.63
673.44	7448.46
673.64	7571.34
673.83	7640.97
674.02	7550.86
674.21	8023.94
674.40	7810.95
674.59	7540.62
674.79	7636.88
674.98	7831.43
675.17	8073.09
675.36	7526.29
675.55	7815.05
675.74	7374.74
675.94	7829.38
676.13	8025.99
676.32	7872.39
676.51	7829.38
676.70	7825.29
676.89	7651.21
677.08	7452.56
677.28	7860.10
677.47	7524.24
677.66	8114.05
677.85	7622.54
678.04	7864.20
678.23	7694.22
678.42	7819.14
678.62	7679.88
678.81	8120.20
679.00	7503.76
679.19	7991.17
679.38	7862.15
679.57	7606.16
679.76	7640.97
679.96	7640.97
680.15	7868.30
680.34	7425.93
680.53	7892.87
680.72	8050.57
680.91	7503.76
681.10	7901.06
681.29	7995.27
681.48	7714.70
681.68	7446.41
681.87	7718.79
682.06	7714.70
682.25	7673.74
682.44	7591.82
682.63	8050.57
682.82	7470.99
683.01	7774.09
683.20	7610.25
683.39	7825.29
683.59	7436.17
683.78	7454.61
683.97	7499.66
684.16	7499.66
684.35	7487.37
684.54	7595.92
684.73	7577.48
684.92	7534.48
685.11	7724.94
685.30	7528.33
685.49	7630.73
685.69	7532.43
685.88	7649.16
686.07	7483.28
686.26	7643.02
686.45	7548.81
686.64	7759.75
686.83	7821.19
687.02	7651.21
687.21	7616.40
687.40	7647.12
687.59	8400.77
687.78	7573.39
687.97	7700.36
688.16	7552.91
688.35	7417.74
688.54	7606.16
688.74	7440.27
688.93	7516.05
689.12	7557.00
689.31	7626.64
689.50	7489.42
689.69	7356.30
689.88	7647.12
690.07	7423.89
690.26	7694.22
690.45	7395.22
690.64	7294.86
690.83	7507.85
691.02	7606.16
691.21	7550.86
691.40	7364.50
691.59	7516.05
691.78	7946.12
691.97	7757.71
692.16	7634.83
692.35	7448.46
692.54	7688.07
692.73	7395.22
692.92	7700.36
693.11	7667.60
693.30	7579.53
693.49	7245.71
693.68	7442.32
693.87	7456.65
694.06	7235.47
694.25	7298.96
694.44	7575.44
694.63	7651.21
694.82	7239.57
695.01	7577.48
695.20	7704.46
695.39	7532.43
695.58	7448.46
695.77	7305.10
695.96	7374.74
696.15	7264.15
696.34	7278.48
696.53	7477.13
696.72	7544.72
696.91	7219.09
697.10	7442.32
697.29	7313.30
697.48	8044.42
697.67	7753.61
697.86	7329.68
698.05	7483.28
698.24	7620.49
698.43	7395.22
698.62	7346.06
698.81	7223.19
699.00	7624.59
699.19	7380.88
699.38	7565.20
699.57	7272.34
699.76	7550.86
699.95	7229.33
700.14	7403.41
700.32	7319.44
700.51	7536.52
700.70	7294.86
700.89	7479.18
701.08	7540.62
701.27	7239.57
701.46	7559.05
701.65	7192.47
701.84	7458.70
702.03	7352.21
702.22	7587.72
702.41	7423.89
702.60	7337.87
702.79	7053.20
702.98	7509.90
703.17	7301.01
703.35	7147.41
703.54	7198.61
703.73	7393.17
703.92	7055.25
704.11	7133.08
704.30	7327.63
704.49	7147.41
704.68	7110.55
704.87	7178.13
705.06	7485.33
705.25	6965.14
705.43	7208.85
705.62	7198.61
705.81	7251.86
706.00	7446.41
706.19	7548.81
706.38	7188.37
706.57	7204.75
706.76	7053.20
706.95	7274.38
707.14	7290.77
707.32	6879.13
707.51	7198.61
707.70	7075.73
707.89	7163.79
708.08	7253.91
708.27	7051.16
708.46	7509.90
708.65	6975.38
708.84	7262.10
709.02	7374.74
709.21	7253.91
709.40	7075.73
709.59	7335.82
709.78	6999.96
709.97	6940.57
710.16	7354.26
710.34	7092.12
710.53	7311.25
710.72	7262.10
710.91	7198.61
711.10	7131.03
711.29	7165.84
711.48	7364.50
711.66	7010.20
711.85	6979.48
712.04	7239.57
712.23	7106.45
712.42	7110.55
712.61	6883.22
712.80	6975.38
712.98	6924.18
713.17	6946.71
713.36	7278.48
713.55	7124.88
713.74	6926.23
713.93	6905.75
714.11	7223.19
714.30	6909.85
714.49	7061.40
714.68	7030.68
714.87	6703.00
715.06	7382.93
715.24	6989.72
715.43	6985.62
715.62	6768.54
715.81	6993.81
716.00	7038.87
716.18	6989.72
716.37	6885.27
716.56	6807.45
716.75	6995.86
716.94	6705.05
717.12	7184.27
717.31	6905.75
717.50	6606.75
717.69	6926.23
717.88	7110.55
718.06	6864.79
718.25	6823.83
718.44	6870.94
718.63	7260.05
718.82	6557.60
719.00	6774.68
719.19	7411.60
719.38	7161.75
719.57	7208.85
719.76	6762.39
719.94	6649.75
720.13	6739.87
720.32	6997.91
720.51	6700.95
720.69	6954.90
720.88	6672.28
721.07	6606.75
721.26	6641.56
721.44	6725.53
721.63	6711.19
721.82	6711.19
722.01	7061.40
722.20	6969.24
722.38	6760.34
722.57	6410.14
722.76	6709.15
722.95	6557.60
723.13	6360.99
723.32	6543.26
723.51	6352.80
723.70	6750.10
723.88	6631.32
724.07	6422.43
724.26	6893.46
724.44	6580.12
724.63	6606.75
724.82	6741.91
725.01	6389.66
725.19	6485.92
725.38	6733.72
725.57	6512.54
725.76	6625.18
725.94	6655.90
726.13	6379.42
726.32	6592.41
726.51	6387.61
726.69	6606.75
726.88	6854.55
727.07	6913.94
727.25	6336.42
727.44	6655.90
727.63	6442.91
727.82	6434.72
728.00	6549.40
728.19	6911.89
728.38	6672.28
728.56	6416.29
728.75	6467.49
728.94	6696.86
729.12	6526.88
729.31	6528.92
729.50	6770.58
729.69	6854.55
729.87	6481.82
730.06	6664.09
730.25	6582.17
730.43	6842.26
730.62	6346.66
730.81	6393.76
730.99	6453.15
731.18	6365.09
731.37	6717.34
731.55	6496.16
731.74	6283.17
731.93	6653.85
732.11	6209.44
732.30	6770.58
732.49	6406.05
732.67	6219.68
732.86	6250.40
733.05	6270.88
733.23	6748.06
733.42	6295.46
733.61	6369.18
733.79	6543.26
733.98	6426.53
734.17	6197.15
734.35	6309.79
734.54	6655.90
734.73	6766.49
734.91	6459.29
735.10	6576.03
735.29	6434.72
735.47	6512.54
735.66	6502.30
735.84	6549.40
736.03	6580.12
736.22	6248.35
736.40	6508.44
736.59	6184.87
736.78	6223.78
736.96	6500.25
737.15	6338.46
737.33	6473.63
737.52	6258.59
737.71	6383.52
737.89	6350.75
738.08	6078.37
738.27	6487.96
738.45	6547.36
738.64	6336.42
738.82	6401.95
739.01	6223.78
739.20	6549.40
739.38	6418.33
739.57	6270.88
739.75	6332.32
739.94	6199.20
740.13	6358.94
740.31	6694.81
740.50	6447.01
740.68	6141.86
740.87	6217.63
741.06	6377.37
741.24	6447.01
741.43	6594.46
741.61	6201.25
741.80	6248.35
741.99	6305.70
742.17	6270.88
742.36	5834.66
742.54	6074.28
742.73	6330.27
742.91	6266.78
743.10	6182.82
743.29	6252.45
743.47	6240.16
743.66	6023.08
743.84	6037.41
744.03	6172.58
744.21	6172.58
744.40	6107.04
744.59	6166.43
744.77	5957.54
744.96	6313.89
745.14	6139.81
745.33	6258.59
745.51	6274.98
745.70	6195.11
745.88	6201.25
746.07	5969.83
746.26	6197.15
746.44	6379.42
746.63	6000.55
746.81	6455.20
747.00	6225.82
747.18	6080.42
747.37	5801.90
747.55	6223.78
747.74	6580.12
747.92	6197.15
748.11	5885.86
748.29	6094.76
748.48	6027.17
748.66	6055.84
748.85	6111.14
749.03	6127.52
749.22	5953.45
749.41	6139.81
749.59	6080.42
749.78	6047.65
749.96	5980.07
750.15	5842.85
750.33	5980.07
750.52	5943.21
750.70	6070.18
750.89	6123.43
751.07	5873.57
751.26	5996.45
751.44	5621.67
751.63	6180.77
751.81	5818.28
752.00	5947.30
752.18	5961.64
752.37	6061.99
752.55	5789.61
752.74	6064.04
752.92	5791.66
753.10	5830.57
753.29	6000.55
753.47	6080.42
753.66	5869.48
753.84	5865.38
754.03	5621.67
754.21	5734.31
754.40	5873.57
754.58	6018.98
754.77	6078.37
754.95	5975.97
755.14	5738.41
755.32	5740.46
755.51	5646.25
755.69	5908.39
755.88	5590.95
756.06	6080.42
756.24	5748.65
756.43	5982.12
756.61	5775.27
756.80	5717.93
756.98	5877.67
757.17	6002.60
757.35	5883.81
757.54	5961.64
757.72	5902.25
757.90	5486.51
758.09	5707.69
758.27	5676.97
758.46	5822.38
758.64	5805.99
758.83	5719.98
759.01	5834.66
759.19	5719.98
759.38	5951.40
759.56	5928.87
759.75	5826.47
759.93	5662.63
760.12	5752.74
760.30	5926.82
760.48	5830.57
760.67	5869.48
760.85	5482.41
761.04	5830.57
761.22	5810.09
761.40	5650.35
761.59	5713.83
761.77	5695.40
761.96	5822.38
762.14	5707.69
762.32	6002.60
762.51	5697.45
762.69	5779.37
762.88	5822.38
763.06	5666.73
763.24	5826.47
763.43	5754.79
763.61	5842.85
763.80	5547.95
763.98	5601.19
764.16	5568.43
764.35	5300.14
764.53	5351.34
764.72	5687.21
764.90	5588.91
765.08	5457.84
765.27	5656.49
765.45	5416.88
765.63	5636.01
765.82	5658.54
766.00	5515.18
766.18	5463.98
766.37	5427.12
766.55	5713.83
766.74	5519.28
766.92	5289.90
767.10	5353.39
767.29	5525.42
767.47	5679.02
767.65	5627.82
767.84	5881.77
768.02	5683.11
768.20	5345.20
768.39	5531.56
768.57	5496.75
768.75	5265.33
768.94	5633.96
769.12	5171.12
769.30	5300.14
769.49	5631.91
769.67	5463.98
769.85	5271.47
770.04	5269.42
770.22	5541.80
770.40	5408.69
770.59	5574.57
770.77	5541.80
770.95	5384.11
771.14	5480.36
771.32	5107.63
771.50	5347.25
771.69	5210.03
771.87	5199.79
772.05	5164.98
772.24	5306.29
772.42	5111.73
772.60	5291.95
772.78	5586.86
772.97	5146.55
773.15	5224.37
773.33	5572.52
773.52	5132.21
773.70	5402.54
773.88	5236.66
774.07	5140.40
774.25	5316.53
774.43	5382.06
774.61	5207.98
774.80	5357.49
774.98	4992.95
775.16	5232.56
775.34	5296.05
775.53	5259.18
775.71	5308.34
775.89	5640.11
776.08	5171.12
776.26	5160.88
776.44	5228.46
776.62	5314.48
776.81	5152.69
776.99	5302.19
777.17	5459.88
777.35	5238.70
777.54	5388.21
777.72	5416.88
777.90	5224.37
778.08	5550.00
778.27	5246.90
778.45	5298.10
778.63	5105.59
778.81	5363.63
779.00	5437.36
779.18	5437.36
779.36	5349.29
779.54	5447.60
779.73	5386.16
779.91	5310.38
780.09	5072.82
780.27	5429.17
780.46	5353.39
780.64	5132.21
780.82	5197.74
781.00	5418.93
781.19	5203.89
781.37	5363.63
781.55	5722.02
781.73	5601.19
781.91	5130.16
782.10	5285.81
782.28	5742.50
782.46	5429.17
782.64	5355.44
782.82	5345.20
783.01	5597.10
783.19	5334.96
783.37	5279.66
783.55	5322.67
783.74	5545.90
783.92	5263.28
784.10	5599.15
784.28	5558.19
784.46	5169.07
784.64	5119.92
784.83	5392.30
785.01	5396.40
785.19	5640.11
785.37	5758.89
785.55	5257.14
785.74	5347.25
785.92	5162.93
786.10	5312.43
786.28	5369.77
786.46	5486.51
786.64	5164.98
786.83	5310.38
787.01	5486.51
787.19	5386.16
787.37	5457.84
787.55	5564.33
787.74	5380.01
787.92	5099.44
788.10	5296.05
788.28	5304.24
788.46	5349.29
788.64	5277.62
788.82	5425.07
789.01	5154.74
789.19	5492.65
789.37	5410.73
789.55	5040.05
789.73	5400.49
789.91	5468.08
790.09	5181.36
790.28	4943.80
790.46	5203.89
790.64	5289.90
790.82	5064.63
791.00	5193.65
791.18	5287.86
791.36	5332.91
791.55	5418.93
791.73	5189.55
791.91	5382.06
792.09	5001.14
792.27	5048.24
792.45	5187.50
792.63	5330.86
792.81	5054.39
793.00	5089.20
793.18	5218.22
793.36	5128.11
793.54	5058.48
793.72	5054.39
793.90	4843.45
794.08	5003.19
794.26	5140.40
794.44	4855.73
794.62	4943.80
794.81	5091.25
794.99	5109.68
795.17	5148.59
795.35	4872.12
795.53	4951.99
795.71	4982.71
795.89	4798.39
796.07	4771.77
796.25	5031.86
796.43	5134.26
796.61	4964.28
796.80	4507.58
796.98	4929.46
797.16	4646.84
797.34	4769.72
797.52	4663.22
797.70	4808.63
797.88	4839.35
798.06	4775.86
798.24	4882.36
798.42	4855.73
798.60	4861.88
798.78	4661.18
798.96	4812.73
799.14	4741.05
799.32	4837.30
799.51	4331.45
799.69	4579.26
799.87	4655.03
800.05	4591.55
800.23	4347.84
800.41	4665.27
800.59	4724.66
800.77	4556.73
800.95	4489.15
801.13	4769.72
801.31	4526.01
801.49	4839.35
801.67	4456.38
801.85	4468.67
802.03	4382.65
802.21	4247.49
802.39	4247.49
802.57	4554.68
802.75	4501.44
802.93	4452.28
803.11	4394.94
803.29	4296.64
803.47	4405.18
803.65	4456.38
803.83	4464.57
804.01	4411.32
804.19	4206.53
804.37	4599.74
804.55	4538.30
804.73	4523.96
804.91	4239.30
805.09	4796.34
805.27	4431.80
805.45	4509.63
805.63	4319.17
805.81	4108.23
805.99	4374.46
806.17	4126.66
806.35	4270.01
806.53	3930.05
806.71	4286.40
806.89	3989.44
807.07	4181.95
807.25	4306.88
807.43	4218.82
807.61	4759.48
807.79	4220.86
807.97	4204.48
808.15	4173.76
808.33	4276.16
808.51	4468.67
808.69	4435.90
808.87	4073.41
809.05	4224.96
809.23	4001.73
809.41	3973.06
809.59	3839.94
809.77	4052.93
809.95	4102.08
810.13	4231.10
810.31	4194.24
810.49	3899.33
810.67	4112.32
810.84	4184.00
811.02	4112.32
811.20	3805.13
811.38	4065.22
811.56	3579.85
811.74	4181.95
811.92	3919.81
812.10	3897.28
812.28	3880.90
812.46	3899.33
812.64	3985.35
812.82	3723.21
813.00	3768.26
813.18	3858.37
813.36	3950.53
813.53	4040.64
813.71	4108.23
813.89	3968.96
814.07	3653.58
814.25	3901.38
814.43	3805.13
814.61	3545.03
814.79	3645.38
814.97	3973.06
815.15	4157.38
815.33	3579.85
815.50	3751.88
815.68	3835.85
815.86	3844.04
816.04	3966.92
816.22	3637.19
816.40	3778.50
816.58	3796.93
816.76	3745.73
816.94	3708.87
817.11	3686.34
817.29	3811.27
817.47	3813.32
817.65	3823.56
817.83	3870.66
818.01	3678.15
818.19	3383.24
818.37	3919.81
818.54	3602.38
818.72	3919.81
818.90	3561.42
819.08	3588.04
819.26	3809.22
819.44	3784.65
819.62	3837.89
819.80	3452.88
819.97	3465.16
820.15	3567.56
820.33	3479.50
820.51	3411.92
820.69	3620.81
820.87	3762.12
821.05	3573.71
821.22	3420.11
821.40	3461.07
821.58	3526.60
821.76	3776.45
821.94	3682.25
822.12	3682.25
822.29	3481.55
822.47	3473.36
822.65	3753.93
822.83	3436.49
823.01	3577.80
823.19	3280.85
823.36	3229.65
823.54	3344.33
823.72	3721.16
823.90	3700.68
824.08	3504.07
824.25	3534.79
824.43	3465.16
824.61	3422.16
824.79	3506.12
824.97	3305.42
825.15	3370.96
825.32	3456.97
825.50	3444.68
825.68	3274.70
825.86	3456.97
826.04	3373.00
826.21	3606.47
826.39	3434.44
826.57	3274.70
826.75	3588.04
826.93	3297.23
827.10	3418.06
827.28	3551.18
827.46	3598.28
827.64	3272.65
827.81	3594.19
827.99	3397.58
828.17	3239.89
828.35	3370.96
828.53	3135.44
828.70	3551.18
828.88	3274.70
829.06	3145.68
829.24	3424.20
829.41	3403.72
829.59	3430.35
829.77	3405.77
829.95	3502.03
830.12	3026.90
830.30	3409.87
830.48	3160.02
830.66	3172.30
830.84	3336.14
831.01	3327.95
831.19	2914.26
831.37	3274.70
831.55	3272.65
831.72	3184.59
831.90	3135.44
832.08	3319.76
832.25	3211.22
832.43	3319.76
832.61	3243.98
832.79	3033.04
832.96	3160.02
833.14	3268.56
833.32	3334.09
833.50	3041.23
833.67	3123.15
833.85	3170.26
834.03	3074.00
834.20	3246.03
834.38	3211.22
834.56	3368.91
834.74	3082.19
834.91	3149.78
835.09	3022.80
835.27	3018.71
835.44	3407.82
835.62	2834.39
835.80	3108.82
835.98	2973.65
836.15	3364.81
836.33	3200.98
836.51	2932.69
836.68	3403.72
836.86	3508.17
837.04	3278.80
837.21	3026.90
837.39	3000.27
837.57	3102.67
837.75	3102.67
837.92	3264.46
838.10	2998.23
838.28	2971.60
838.45	3010.51
838.63	3102.67
838.81	2990.03
838.98	3180.50
839.16	2922.45
839.34	3039.19
839.51	2994.13
839.69	3184.59
839.87	2965.46
840.04	2975.70
840.22	4267.97
840.40	2949.08
840.57	2944.98
840.75	2992.08
840.93	2762.71
841.10	3157.97
841.28	3063.76
841.46	2854.87
841.63	3217.36
841.81	2756.57
841.98	2975.70
842.16	2992.08
842.34	2975.70
842.51	2830.29
842.69	2713.56
842.87	2904.02
843.04	2797.53
843.22	2668.50
843.40	2707.41
843.57	2742.23
843.75	2912.21
843.92	2828.24
844.10	3125.20
844.28	2879.44
844.45	2881.49
844.63	2881.49
844.81	3039.19
844.98	3026.90
845.16	2893.78
845.33	3190.74
845.51	2799.57
845.69	2873.30
845.86	3045.33
846.04	2746.33
846.21	2699.22
846.39	2879.44
846.57	2756.57
846.74	2693.08
846.92	2994.13
847.09	2711.51
847.27	2813.91
847.45	2828.24
847.62	2994.13
847.80	2881.49
847.97	2854.87
848.15	2701.27
848.32	2918.36
848.50	2752.47
848.68	2842.58
848.85	2756.57
849.03	2818.00
849.20	2828.24
849.38	2729.94
849.56	2674.65
849.73	2578.39
849.91	2600.92
850.08	3057.62
850.26	2772.95
850.43	2713.56
850.61	2768.85
850.78	2523.10
850.96	2777.05
851.14	2519.00
851.31	2990.03
851.49	2760.66
851.66	2914.26
851.84	2705.37
852.01	2748.37
852.19	2635.74
852.36	2934.74
852.54	2545.63
852.71	2686.94
852.89	2865.11
853.07	2750.42
853.24	2572.25
853.42	2760.66
853.59	2926.55
853.77	2967.51
853.94	3186.64
854.12	2951.12
854.29	2586.58
854.47	2613.21
854.64	2715.61
854.82	2537.43
854.99	2832.34
855.17	2619.35
855.34	2760.66
855.52	2815.96
855.69	2965.46
855.87	2738.13
856.04	2600.92
856.22	2840.53
856.39	2471.90
856.57	2803.67
856.74	2818.00
856.92	2822.10
857.09	2760.66
857.27	2674.65
857.44	2783.19
857.62	2531.29
857.79	2600.92
857.97	2721.75
858.14	2652.12
858.32	2576.34
858.49	2639.83
858.67	2838.48
858.84	2555.86
859.02	2684.89
859.19	2586.58
859.37	2506.71
859.54	2365.40
859.72	2674.65
859.89	2666.46
860.06	2594.78
860.24	2748.37
860.41	2469.85
860.59	2379.74
860.76	2547.67
860.94	2367.45
861.11	2398.17
861.29	2834.39
861.46	2420.70
861.64	2545.63
861.81	2783.19
861.98	2404.32
862.16	2394.08
862.33	2326.49
862.51	2451.42
862.68	2488.28
862.86	2562.01
863.03	2473.95
863.21	2394.08
863.38	2596.82
863.55	2656.22
863.73	2553.82
863.90	2457.56
864.08	2562.01
864.25	2457.56
864.43	2691.03
864.60	2482.14
864.77	2523.10
864.95	2658.26
865.12	2406.36
865.30	2811.86
865.47	2695.13
865.64	2598.87
865.82	2435.03
865.99	2662.36
866.17	2574.30
866.34	2512.86
866.51	2322.40
866.69	2488.28
866.86	2990.03
867.04	2539.48
867.21	2662.36
867.38	2389.98
867.56	2402.27
867.73	2617.30
867.91	2519.00
868.08	2441.18
868.25	2424.80
868.43	2510.81
868.60	2414.56
868.78	2357.21
868.95	2342.88
869.12	2422.75
869.30	2410.46
869.47	2365.40
869.64	2428.89
869.82	2387.93
869.99	2383.84
870.16	2545.63
870.34	2613.21
870.51	2605.02
870.69	2377.69
870.86	2410.46
871.03	2428.89
871.21	2527.19
871.38	2639.83
871.55	2381.79
871.73	2377.69
871.90	2332.64
872.07	2465.75
872.25	2156.51
872.42	2289.63
872.59	2316.25
872.77	2324.44
872.94	2287.58
873.11	2441.18
873.29	2523.10
873.46	2506.71
873.63	2394.08
873.81	2301.92
873.98	2605.02
874.15	2222.05
874.33	2359.26
874.50	2158.56
874.67	2435.03
874.85	2346.97
875.02	2453.47
875.19	2240.48
875.37	2445.27
875.54	2326.49
875.71	2342.88
875.88	2338.78
876.06	2340.83
876.23	2271.20
876.40	2308.06
876.58	2447.32
876.75	2430.94
876.92	2228.19
877.10	2344.92
877.27	2207.71
877.44	2236.38
877.61	2164.70
877.79	2353.12
877.96	2291.68
878.13	2383.84
878.31	2301.92
878.48	2246.62
878.65	2373.60
878.82	2256.86
879.00	2281.44
879.17	2220.00
879.34	2166.75
879.51	2174.94
879.69	2009.06
879.86	2209.76
880.03	2088.93
880.21	2039.78
880.38	2320.35
880.55	2256.86
880.72	2316.25
880.90	2322.40
881.07	2097.12
881.24	2320.35
881.41	2240.48
881.59	2250.72
881.76	2318.30
881.93	2322.40
882.10	2209.76
882.28	2133.98
882.45	2193.37
882.62	2279.39
882.79	2281.44
882.96	2174.94
883.14	2252.77
883.31	2158.56
883.48	2156.51
883.65	2101.22
883.83	2148.32
884.00	2297.82
884.17	2226.14
884.34	2314.20
884.51	2244.57
884.69	2242.53
884.86	2076.64
885.03	2164.70
885.20	1978.34
885.38	2367.45
885.55	2074.59
885.72	2353.12
885.89	2144.22
886.06	2199.52
886.24	2230.24
886.41	2244.57
886.58	2353.12
886.75	2334.68
886.92	2156.51
887.10	2109.41
887.27	1982.43
887.44	2568.15
887.61	2426.84
887.78	2152.42
887.95	2109.41
888.13	2000.87
888.30	2021.35
888.47	2189.28
888.64	2047.97
888.81	2471.90
888.99	1982.43
889.16	2125.79
889.33	2039.78
889.50	2168.80
889.67	2070.50
889.84	2007.01
890.01	2156.51
890.19	2361.31
890.36	2082.78
890.53	2187.23
890.70	1959.91
890.87	2209.76
891.04	2170.85
891.22	2070.50
891.39	1996.77
891.56	2058.21
891.73	2152.42
891.90	1988.58
892.07	1896.42
892.24	2123.74
892.42	2056.16
892.59	2035.68
892.76	2250.72
892.93	1970.15
893.10	2101.22
893.27	2029.54
893.44	2037.73
893.61	2117.60
893.79	2213.85
893.96	1953.76
894.13	2099.17
894.30	1970.15
894.47	2275.29
894.64	2355.16
894.81	1875.94
894.98	2170.85
895.15	2133.98
895.33	2136.03
895.50	2117.60
895.67	2064.35
895.84	2183.13
896.01	2097.12
896.18	1955.81
896.35	2203.61
896.52	1988.58
896.69	2023.39
896.86	2037.73
897.04	2228.19
897.21	2070.50
897.38	2115.55
897.55	2097.12
897.72	2115.55
897.89	2066.40
898.06	2297.82
898.23	2090.98
898.40	2113.50
898.57	2029.54
898.74	2068.45
898.91	2039.78
899.08	1959.91
899.26	2217.95
899.43	2199.52
899.60	1957.86
899.77	2281.44
899.94	1964.00
900.11	2093.02
900.28	1980.39
900.45	2101.22
900.62	2021.35
900.79	2123.74
900.96	2156.51
901.13	2056.16
901.30	1892.32
901.47	1890.28
901.64	1947.62
901.81	2090.98
901.98	1937.38
902.15	2166.75
902.32	1978.34
902.49	2011.11
902.66	2113.50
902.83	2119.65
903.01	2183.13
903.18	2009.06
903.35	1943.52
903.52	1988.58
903.69	2050.02
903.86	2074.59
904.03	2113.50
904.20	2068.45
904.37	2050.02
904.54	1912.80
904.71	2088.93
904.88	2002.91
905.05	1863.65
905.22	1957.86
905.39	1941.47
905.56	2027.49
905.73	2109.41
905.90	2033.63
906.07	1949.67
906.24	2033.63
906.41	2076.64
906.58	2295.77
906.75	2123.74
906.92	2035.68
907.09	1974.24
907.26	2156.51
907.43	1990.63
907.60	2047.97
907.77	2013.15
907.93	1925.09
908.10	2052.06
908.27	2099.17
908.44	2136.03
908.61	1789.92
908.78	1982.43
908.95	2244.57
909.12	1968.10
909.29	2023.39
909.46	1853.41
909.63	2078.69
909.80	2060.26
909.97	2054.11
910.14	2086.88
910.31	1964.00
910.48	2045.92
910.65	2101.22
910.82	1955.81
910.99	2201.57
911.16	2136.03
911.33	2052.06
911.50	2007.01
911.66	1871.84
911.83	2000.87
912.00	1959.91
912.17	1984.48
912.34	1808.36
912.51	2035.68
912.68	1886.18
912.85	2242.53
913.02	2156.51
913.19	1896.42
913.36	2007.01
913.53	2093.02
913.70	1869.80
913.86	2189.28
914.03	1957.86
914.20	2033.63
914.37	2060.26
914.54	2064.35
914.71	1931.23
914.88	2017.25
915.05	1945.57
915.22	1957.86
915.39	2060.26
915.55	2021.35
915.72	1857.51
915.89	1880.04
916.06	1974.24
916.23	2002.91
916.40	2007.01
916.57	1884.13
916.74	2002.91
916.91	2011.11
917.07	1808.36
917.24	1826.79
917.41	2052.06
917.58	2037.73
917.75	1974.24
917.92	1853.41
918.09	1927.14
918.26	1996.77
918.42	2041.82
918.59	2047.97
918.76	1861.60
918.93	1720.29
919.10	1818.60
919.27	1996.77
919.44	2002.91
919.60	2064.35
919.77	1918.95
919.94	1961.95
920.11	2000.87
920.28	1988.58
920.45	1832.93
920.61	2007.01
920.78	2043.87
920.95	2027.49
921.12	2056.16
921.29	1923.04
921.46	1857.51
921.62	1839.08
921.79	1826.79
921.96	1992.67
922.13	1920.99
922.30	1920.99
922.47	1832.93
922.63	1841.12
922.80	1777.64
922.97	1845.22
923.14	1751.01
923.31	1728.49
923.47	1855.46
923.64	2090.98
923.81	1957.86
923.98	1877.99
924.15	1847.27
924.32	1890.28
924.48	1929.19
924.65	2019.30
924.82	1730.53
924.99	1822.69
925.15	1757.16
925.32	1980.39
925.49	1877.99
925.66	2004.96
925.83	1841.12
925.99	1755.11
926.16	1978.34
926.33	1800.16
926.50	1794.02
926.67	1785.83
926.83	1816.55
927.00	1933.28
927.17	1869.80
927.34	1759.21
927.50	1888.23
927.67	1945.57
927.84	1959.91
928.01	1843.17
928.17	1820.64
928.34	1701.86
928.51	1810.40
928.68	1849.32
928.84	1800.16
929.01	1794.02
929.18	1810.40
929.35	1798.12
929.51	1791.97
929.68	1765.35
929.85	1841.12
930.02	1884.13
930.18	1843.17
930.35	1777.64
930.52	1810.40
930.69	1820.64
930.85	1830.88
931.02	1753.06
931.19	1724.39
931.36	1785.83
931.52	1789.92
931.69	1916.90
931.86	1857.51
932.02	1744.87
932.19	1798.12
932.36	1851.36
932.53	1839.08
932.69	1767.40
932.86	1908.71
933.03	1863.65
933.19	1744.87
933.36	1734.63
933.53	1816.55
933.70	1910.75
933.86	1804.26
934.03	1861.60
934.20	1695.72
934.36	1839.08
934.53	1693.67
934.70	1722.34
934.86	1777.64
935.03	1681.38
935.20	1742.82
935.36	1794.02
935.53	1607.66
935.70	1796.07
935.86	1771.49
936.03	1640.42
936.20	1671.14
936.36	1708.01
936.53	1708.01
936.70	1720.29
936.86	1863.65
937.03	1757.16
937.20	1642.47
937.36	1923.04
937.53	1648.61
937.70	1708.01
937.86	1660.90
938.03	1785.83
938.20	1925.09
938.36	1710.05
938.53	1808.36
938.70	1603.56
938.86	1759.21
939.03	1738.73
939.20	1650.66
939.36	1724.39
939.53	1816.55
939.70	1941.47
939.86	1708.01
940.03	1648.61
940.19	1662.95
940.36	1691.62
940.53	1693.67
940.69	1724.39
940.86	1712.10
941.03	1671.14
941.19	1665.00
941.36	1755.11
941.52	1699.81
941.69	1691.62
941.86	1701.86
942.02	1826.79
942.19	1683.43
942.35	1679.33
942.52	1656.81
942.69	1724.39
942.85	1691.62
943.02	1714.15
943.18	1724.39
943.35	1681.38
943.52	1669.09
943.68	1624.04
943.85	1757.16
944.01	1644.52
944.18	1744.87
944.35	1757.16
944.51	1642.47
944.68	1617.90
944.84	1597.42
945.01	1648.61
945.17	1703.91
945.34	1683.43
945.51	1630.18
945.67	1753.06
945.84	1585.13
946.00	1542.12
946.17	1609.70
946.33	1552.36
946.50	1765.35
946.67	1710.05
946.83	1693.67
947.00	1712.10
947.16	1648.61
947.33	1632.23
947.49	1699.81
947.66	1589.22
947.82	1658.85
947.99	1662.95
948.16	1705.96
948.32	1609.70
948.49	1685.48
948.65	1775.59
948.82	1710.05
948.98	1810.40
949.15	1593.32
949.31	1714.15
949.48	1642.47
949.64	1665.00
949.81	1619.94
949.97	1591.27
950.14	1693.67
950.30	1667.05
950.47	1685.48
950.63	1626.09
950.80	1630.18
950.96	1640.42
951.13	1714.15
951.30	1671.14
951.46	1699.81
951.63	1728.49
951.79	1695.72
951.96	1765.35
952.12	1697.77
952.29	1742.82
952.45	1630.18
952.62	1650.66
952.78	1642.47
952.94	1724.39
953.11	1691.62
953.27	1523.69
953.44	1773.54
953.60	1714.15
953.77	1654.76
953.93	1736.68
954.10	1691.62
954.26	1603.56
954.43	1570.79
954.59	1755.11
954.76	1765.35
954.92	1738.73
955.09	1734.63
955.25	1624.04
955.42	1603.56
955.58	1789.92
955.75	1738.73
955.91	1652.71
956.07	1712.10
956.24	1716.20
956.40	1658.85
956.57	1720.29
956.73	1675.24
956.90	1748.97
957.06	1640.42
957.23	1632.23
957.39	1591.27
957.56	1656.81
957.72	1562.60
957.88	1527.78
958.05	1679.33
958.21	1773.54
958.38	1740.77
958.54	1673.19
958.71	1685.48
958.87	1687.53
959.03	1609.70
959.20	1714.15
959.36	1583.08
959.53	1595.37
959.69	1658.85
959.85	1679.33
960.02	1562.60
960.18	1634.28
960.35	1636.33
960.51	1683.43
960.68	1581.03
960.84	1687.53
961.00	1621.99
961.17	1640.42
961.33	1662.95
961.50	1681.38
961.66	1720.29
961.82	1617.90
961.99	1671.14
962.15	1658.85
962.31	1605.61
962.48	1777.64
962.64	1740.77
962.81	1665.00
962.97	1632.23
963.13	1716.20
963.30	1628.14
963.46	1587.18
963.62	1626.09
963.79	1597.42
963.95	1708.01
964.12	1583.08
964.28	1673.19
964.44	1636.33
964.61	1742.82
964.77	1669.09
964.93	1822.69
965.10	1695.72
965.26	1648.61
965.42	1640.42
965.59	1665.00
965.75	1617.90
965.92	1665.00
966.08	1687.53
966.24	1701.86
966.41	1646.57
966.57	1701.86
966.73	1671.14
966.90	1767.40
967.06	1710.05
967.22	1646.57
967.39	1642.47
967.55	1626.09
967.71	1650.66
967.88	1605.61
968.04	1681.38
968.20	1650.66
968.37	1658.85
968.53	1591.27
968.69	1646.57
968.85	1679.33
969.02	1585.13
969.18	1681.38
969.34	1667.05
969.51	1710.05
969.67	1798.12
969.83	1589.22
970.00	1779.68
970.16	1675.24
970.32	1679.33
970.48	1779.68
970.65	1650.66
970.81	1646.57
970.97	1583.08
971.14	1593.32
971.30	1771.49
971.46	1703.91
971.63	1630.18
971.79	1712.10
971.95	1597.42
972.11	1540.07
972.28	1562.60
972.44	1687.53
972.60	1587.18
972.76	1613.80
972.93	1687.53
973.09	1751.01
973.25	1677.29
973.42	1572.84
973.58	1675.24
973.74	1773.54
973.90	1630.18
974.07	1613.80
974.23	1628.14
974.39	1748.97
974.55	1720.29
974.72	1589.22
974.88	1601.51
975.04	1679.33
975.20	1673.19
975.37	1765.35
975.53	1648.61
975.69	1703.91
975.85	1589.22
976.01	1710.05
976.18	1656.81
976.34	1720.29
976.50	1683.43
976.66	1746.92
976.83	1630.18
976.99	1652.71
977.15	1742.82
977.31	1624.04
977.47	1699.81
977.64	1689.57
977.80	1630.18
977.96	1611.75
978.12	1667.05
978.29	1685.48
978.45	1597.42
978.61	1679.33
978.77	1699.81
978.93	1593.32
979.10	1687.53
979.26	1695.72
979.42	1673.19
979.58	1474.54
979.74	1656.81
979.91	1738.73
980.07	1656.81
980.23	1624.04
980.39	1648.61
980.55	1566.70
980.71	1609.70
980.88	1720.29
981.04	1665.00
981.20	1630.18
981.36	1679.33
981.52	1701.86
981.68	1609.70
981.85	1728.49
982.01	1650.66
982.17	1673.19
982.33	1613.80
982.49	1773.54
982.65	1550.31
982.82	1669.09
982.98	1626.09
983.14	1533.93
983.30	1685.48
983.46	1718.25
983.62	1638.38
983.79	1673.19
983.95	1624.04
984.11	1560.55
984.27	1650.66
984.43	1617.90
984.59	1552.36
984.75	1615.85
984.91	1650.66
985.08	1685.48
985.24	1519.59
985.40	1617.90
985.56	1662.95
985.72	1718.25
985.88	1728.49
986.04	1593.32
986.20	1613.80
986.37	1693.67
986.53	1583.08
986.69	1665.00
986.85	1634.28
987.01	1560.55
987.17	1654.76
987.33	1697.77
987.49	1581.03
987.65	1613.80
987.82	1656.81
987.98	1529.83
988.14	1589.22
988.30	1679.33
988.46	1609.70
988.62	1699.81
988.78	1613.80
988.94	1720.29
989.10	1689.57
989.26	1628.14
989.42	1640.42
989.59	1609.70
989.75	1730.53
989.91	1718.25
990.07	1591.27
990.23	1646.57
990.39	1658.85
990.55	1665.00
990.71	1601.51
990.87	1669.09
991.03	1644.52
991.19	1634.28
991.35	1564.65
991.51	1626.09
991.67	1667.05
991.83	1658.85
992.00	1736.68
992.16	1624.04
992.32	1695.72
992.48	1689.57
992.64	1583.08
992.80	1626.09
992.96	1619.94
993.12	1679.33
993.28	1646.57
993.44	1617.90
993.60	1730.53
993.76	1650.66
993.92	1665.00
994.08	1785.83
994.24	1656.81
994.40	1634.28
994.56	1628.14
994.72	1554.41
994.88	1638.38
995.04	1646.57
995.20	1636.33
995.36	1609.70
995.52	1660.90
995.68	1650.66
995.84	1624.04
996.00	1677.29
996.16	1548.26
996.32	1527.78
996.48	1630.18
996.64	1652.71
996.80	1611.75
996.96	1585.13
997.12	1556.46
997.28	1607.66
997.44	1542.12
997.60	1570.79
997.76	1617.90
997.92	1607.66
998.08	1581.03
998.24	1640.42
998.40	1603.56
998.56	1654.76
998.72	1509.35
998.88	1578.98
999.04	1601.51
999.20	1701.86
999.36	1540.07
999.52	1728.49
999.68	1611.75
999.84	1601.51
1000.00	1656.81
1000.16	1712.10
1000.32	1591.27
1000.48	1740.77
1000.64	1566.70
1000.80	1587.18
1000.95	1564.65
1001.11	1681.38
1001.27	1578.98
1001.43	1617.90
1001.59	1542.12
1001.75	1564.65
1001.91	1566.70
1002.07	1546.22
1002.23	1595.37
1002.39	1574.89
1002.55	1626.09
1002.71	1654.76
1002.87	1568.74
1003.03	1583.08
1003.19	1597.42
1003.34	1669.09
1003.50	1662.95
1003.66	1679.33
1003.82	1681.38
1003.98	1583.08
1004.14	1599.46
1004.30	1583.08
1004.46	1593.32
1004.62	1667.05
1004.78	1617.90
1004.94	1693.67
1005.09	1742.82
1005.25	1677.29
1005.41	1554.41
1005.57	1691.62
1005.73	1607.66
1005.89	1597.42
1006.05	1634.28
1006.21	1683.43
1006.37	1591.27
1006.52	1562.60
1006.68	1509.35
1006.84	1705.96
1007.00	1556.46
1007.16	1619.94
1007.32	1558.50
1007.48	1665.00
1007.64	1703.91
1007.79	1585.13
1007.95	1597.42
1008.11	1611.75
1008.27	1638.38
1008.43	1665.00
1008.59	1656.81
1008.75	1630.18
1008.91	1667.05
1009.06	1617.90
1009.22	1587.18
1009.38	1558.50
1009.54	1662.95
1009.70	1634.28
1009.86	1607.66
1010.01	1583.08
1010.17	1585.13
1010.33	1703.91
1010.49	1675.24
1010.65	1699.81
1010.81	1581.03
1010.96	1591.27
1011.12	1544.17
1011.28	1617.90
1011.44	1667.05
1011.60	1599.46
1011.76	1654.76
1011.91	1640.42
1012.07	1568.74
1012.23	1572.84
1012.39	1544.17
1012.55	1628.14
1012.71	1624.04
1012.86	1648.61
1013.02	1644.52
1013.18	1599.46
1013.34	1648.61
1013.50	1660.90
1013.65	1691.62
1013.81	1589.22
1013.97	1607.66
1014.13	1599.46
1014.29	1611.75
1014.44	1710.05
1014.60	1585.13
1014.76	1628.14
1014.92	1652.71
1015.07	1585.13
1015.23	1638.38
1015.39	1591.27
1015.55	1574.89
1015.71	1632.23
1015.86	1595.37
1016.02	1509.35
1016.18	1564.65
1016.34	1615.85
1016.49	1581.03
1016.65	1683.43
1016.81	1617.90
1016.97	1611.75
1017.12	1644.52
1017.28	1605.61
1017.44	1507.30
1017.60	1578.98
1017.75	1708.01
1017.91	1605.61
1018.07	1624.04
1018.23	1662.95
1018.38	1603.56
1018.54	1626.09
1018.70	1578.98
1018.86	1591.27
1019.01	1599.46
1019.17	1632.23
1019.33	1753.06
1019.49	1665.00
1019.64	1578.98
1019.80	1632.23
1019.96	1638.38
1020.12	1658.85
1020.27	1617.90
1020.43	1656.81
1020.59	1673.19
1020.74	1642.47
1020.90	1634.28
1021.06	1605.61
1021.22	1658.85
1021.37	1683.43
1021.53	1572.84
1021.69	1685.48
1021.84	1501.16
1022.00	1714.15
1022.16	1581.03
1022.31	1642.47
1022.47	1617.90
1022.63	1669.09
1022.79	1531.88
1022.94	1576.94
1023.10	1669.09
1023.26	1652.71
1023.41	1546.22
1023.57	1556.46
1023.73	1626.09
1023.88	1587.18
1024.04	1613.80
1024.20	1634.28
1024.35	1613.80
1024.51	1621.99
1024.67	1630.18
1024.82	1679.33
1024.98	1583.08
1025.14	1628.14
1025.29	1644.52
1025.45	1673.19
1025.61	1443.82
1025.76	1693.67
1025.92	1611.75
1026.08	1652.71
1026.23	1648.61
1026.39	1728.49
1026.55	1587.18
1026.70	1615.85
1026.86	1628.14
1027.02	1642.47
1027.17	1703.91
1027.33	1621.99
1027.48	1605.61
1027.64	1650.66
1027.80	1581.03
1027.95	1656.81
1028.11	1542.12
1028.27	1662.95
1028.42	1681.38
1028.58	1626.09
1028.73	1542.12
1028.89	1572.84
1029.05	1753.06
1029.20	1607.66
>>>>>End Processed Spectral Data<<<<<
