SpectraSuite Data File
++++++++++++++++++++++++++++++++++++
Date: Fri Jun 02 14:53:32 CEST 2017
User: INFO_000
Dark Spectrum Present: No
Reference Spectrum Present: No
Number of Sampled Component Spectra: 1
Spectrometers: USB4H00879
Integration Time (usec): 80000 (USB4H00879)
Spectra Averaged: 1 (USB4H00879)
Boxcar Smoothing: 0 (USB4H00879)
Correct for Electrical Dark: No (USB4H00879)
Strobe/Lamp Enabled: No (USB4H00879)
Correct for Detector Non-linearity: No (USB4H00879)
Correct for Stray Light: No (USB4H00879)
Number of Pixels in Processed Spectrum: 3648
>>>>>Begin Processed Spectral Data<<<<<
345.13	1292.27
345.34	1292.27
345.56	1292.27
345.78	1316.84
345.99	1325.04
346.21	1722.34
346.42	1689.57
346.64	1705.96
346.86	1804.26
347.07	1650.66
347.29	1757.16
347.50	1601.51
347.72	1638.38
347.94	1804.26
348.15	1640.42
348.37	1597.42
348.59	1665.00
348.80	1648.61
349.02	1787.88
349.23	1908.71
349.45	1734.63
349.67	1894.37
349.88	1820.64
350.10	1961.95
350.31	1841.12
350.53	1863.65
350.75	1978.34
350.96	1818.60
351.18	1896.42
351.39	1814.50
351.61	1837.03
351.82	1937.38
352.04	1970.15
352.26	1796.07
352.47	1884.13
352.69	2027.49
352.90	1779.68
353.12	1882.08
353.34	1886.18
353.55	1920.99
353.77	1857.51
353.98	1828.84
354.20	1914.85
354.41	1873.89
354.63	1947.62
354.85	2045.92
355.06	1951.71
355.28	1769.44
355.49	1925.09
355.71	1925.09
355.92	1855.46
356.14	1931.23
356.35	1904.61
356.57	1941.47
356.79	1990.63
357.00	1863.65
357.22	2007.01
357.43	1863.65
357.65	1976.29
357.86	1912.80
358.08	1951.71
358.29	2035.68
358.51	1968.10
358.72	2035.68
358.94	1871.84
359.16	1945.57
359.37	1945.57
359.59	2002.91
359.80	1974.24
360.02	2015.20
360.23	1951.71
360.45	2043.87
360.66	1902.56
360.88	1863.65
361.09	1929.19
361.31	2066.40
361.52	1945.57
361.74	2000.87
361.95	2000.87
362.17	1931.23
362.38	2090.98
362.60	2062.30
362.81	1951.71
363.03	1906.66
363.24	2047.97
363.46	2138.08
363.67	2015.20
363.89	2136.03
364.10	1959.91
364.32	1920.99
364.53	2090.98
364.75	1935.33
364.96	2074.59
365.18	2007.01
365.39	2035.68
365.61	1947.62
365.82	2129.89
366.04	2070.50
366.25	1990.63
366.47	2031.58
366.68	2013.15
366.90	1955.81
367.11	2074.59
367.33	2086.88
367.54	2066.40
367.76	1974.24
367.97	2052.06
368.19	2033.63
368.40	2095.07
368.62	1937.38
368.83	2029.54
369.05	2158.56
369.26	1998.82
369.48	1943.52
369.69	2037.73
369.91	2078.69
370.12	1986.53
370.33	2168.80
370.55	2000.87
370.76	2004.96
370.98	2015.20
371.19	2043.87
371.41	2043.87
371.62	2011.11
371.84	1972.19
372.05	2144.22
372.27	2076.64
372.48	2105.31
372.69	2084.83
372.91	2019.30
373.12	2244.57
373.34	2136.03
373.55	2154.46
373.77	2254.81
373.98	2181.09
374.20	2187.23
374.41	2269.15
374.62	2146.27
374.84	2121.70
375.05	2211.81
375.27	2193.37
375.48	2166.75
375.70	2170.85
375.91	2238.43
376.12	2256.86
376.34	2254.81
376.55	2201.57
376.77	2220.00
376.98	2070.50
377.19	2131.94
377.41	2179.04
377.62	2201.57
377.84	2301.92
378.05	2330.59
378.27	2179.04
378.48	2306.01
378.69	2475.99
378.91	2338.78
379.12	2240.48
379.34	2269.15
379.55	2326.49
379.76	2217.95
379.98	2158.56
380.19	2209.76
380.41	2297.82
380.62	2369.50
380.83	2353.12
381.05	2297.82
381.26	2306.01
381.47	2256.86
381.69	2250.72
381.90	2408.41
382.12	2367.45
382.33	2232.29
382.54	2330.59
382.76	2328.54
382.97	2271.20
383.19	2332.64
383.40	2383.84
383.61	2283.49
383.83	2248.67
384.04	2387.93
384.25	2387.93
384.47	2400.22
384.68	2346.97
384.89	2379.74
385.11	2377.69
385.32	2332.64
385.54	2367.45
385.75	2340.83
385.96	2410.46
386.18	2414.56
386.39	2435.03
386.60	2318.30
386.82	2379.74
387.03	2367.45
387.24	2500.57
387.46	2539.48
387.67	2592.73
387.88	2451.42
388.10	2410.46
388.31	2562.01
388.52	2615.26
388.74	2547.67
388.95	2510.81
389.16	2562.01
389.38	2514.91
389.59	2559.96
389.80	2621.40
390.02	2609.11
390.23	2592.73
390.44	2590.68
390.66	2645.98
390.87	2557.91
391.08	2592.73
391.30	2691.03
391.51	2676.70
391.72	2688.98
391.94	2572.25
392.15	2686.94
392.36	2582.49
392.58	2639.83
392.79	2658.26
393.00	2666.46
393.22	2725.85
393.43	2758.61
393.64	2729.94
393.85	2854.87
394.07	2658.26
394.28	2731.99
394.49	2770.90
394.71	2863.06
394.92	2895.83
395.13	2768.85
395.35	2813.91
395.56	2832.34
395.77	2807.77
395.98	2762.71
396.20	2844.63
396.41	2813.91
396.62	2963.41
396.84	2885.59
397.05	2834.39
397.26	2932.69
397.47	2944.98
397.69	2908.12
397.90	3049.43
398.11	2916.31
398.32	2959.31
398.54	2975.70
398.75	2975.70
398.96	2867.16
399.18	3057.62
399.39	2944.98
399.60	2916.31
399.81	2961.36
400.03	3014.61
400.24	3260.37
400.45	3037.14
400.66	3129.30
400.88	3047.38
401.09	3313.61
401.30	3067.86
401.51	3164.11
401.73	3188.69
401.94	3176.40
402.15	3200.98
402.36	3170.26
402.58	3162.06
402.79	3110.86
403.00	3254.22
403.21	3186.64
403.43	3241.93
403.64	3325.90
403.85	3137.49
404.06	3194.83
404.27	3094.48
404.49	3174.35
404.70	3311.57
404.91	3327.95
405.12	3305.42
405.34	3258.32
405.55	3360.72
405.76	3221.45
405.97	3233.74
406.19	3395.53
406.40	3270.61
406.61	3278.80
406.82	3348.43
407.03	3338.19
407.25	3297.23
407.46	3401.68
407.67	3483.59
407.88	3391.44
408.09	3391.44
408.31	3432.40
408.52	3432.40
408.73	3364.81
408.94	3385.29
409.15	3434.44
409.37	3518.41
409.58	3612.62
409.79	3536.84
410.00	3596.23
410.21	3487.69
410.43	3518.41
410.64	3286.99
410.85	3598.28
411.06	3422.16
411.27	3604.42
411.48	3692.49
411.70	3631.05
411.91	3639.24
412.12	3682.25
412.33	3649.48
412.54	3561.42
412.76	3688.39
412.97	3678.15
413.18	3581.90
413.39	3692.49
413.60	3725.26
413.81	3796.93
414.03	3743.69
414.24	3612.62
414.45	3905.48
414.66	3598.28
414.87	3821.51
415.08	3721.16
415.30	3739.59
415.51	3829.70
415.72	3821.51
415.93	3819.46
416.14	3788.74
416.35	3725.26
416.56	3809.22
416.78	3923.91
416.99	3919.81
417.20	3803.08
417.41	3948.48
417.62	3844.04
417.83	3977.16
418.04	3952.58
418.26	3987.40
418.47	3962.82
418.68	4016.07
418.89	4007.87
419.10	4163.52
419.31	4034.50
419.52	4005.83
419.73	4073.41
419.95	4018.11
420.16	3989.44
420.37	4132.80
420.58	4100.03
420.79	3899.33
421.00	4026.31
421.21	4194.24
421.42	4046.79
421.63	4163.52
421.85	4069.31
422.06	4155.33
422.27	4247.49
422.48	4132.80
422.69	4272.06
422.90	4364.22
423.11	4360.13
423.32	4286.40
423.53	4495.29
423.75	4304.83
423.96	4503.48
424.17	4458.43
424.38	4632.51
424.59	4427.71
424.80	4706.23
425.01	4530.11
425.22	4392.89
425.43	4435.90
425.64	4675.51
425.85	4779.96
426.06	4624.31
426.28	4671.42
426.49	4509.63
426.70	4624.31
426.91	4620.22
427.12	4583.35
427.33	4667.32
427.54	4698.04
427.75	4698.04
427.96	4786.10
428.17	4829.11
428.38	5003.19
428.59	4927.41
428.80	4849.59
429.01	4906.93
429.23	4870.07
429.44	4919.22
429.65	4997.04
429.86	4966.32
430.07	4861.88
430.28	4835.25
430.49	5029.81
430.70	5169.07
430.91	5167.03
431.12	5146.55
431.33	5173.17
431.54	5269.42
431.75	5126.07
431.96	5173.17
432.17	5076.91
432.38	5197.74
432.59	5394.35
432.80	5291.95
433.01	5351.34
433.22	5595.05
433.43	5308.34
433.64	5230.51
433.85	5308.34
434.06	5369.77
434.27	5291.95
434.49	5472.17
434.70	5562.28
434.91	5550.00
435.12	5496.75
435.33	5504.94
435.54	5476.27
435.75	5334.96
435.96	5593.00
436.17	5537.71
436.38	5590.95
436.59	5650.35
436.80	5519.28
437.01	5834.66
437.22	5838.76
437.43	5515.18
437.64	5560.24
437.85	5762.98
438.06	5814.18
438.27	5674.92
438.48	5734.31
438.69	5871.53
438.90	5851.05
439.11	5717.93
439.32	6004.64
439.53	5957.54
439.74	5777.32
439.95	5971.88
440.16	5965.73
440.37	6127.52
440.57	5801.90
440.78	5957.54
440.99	6184.87
441.20	5949.35
441.41	5937.06
441.62	6199.20
441.83	5935.01
442.04	6066.08
442.25	6166.43
442.46	6084.52
442.67	6234.02
442.88	6567.84
443.09	6070.18
443.30	6150.05
443.51	6264.74
443.72	6242.21
443.93	6287.26
444.14	6522.78
444.35	6213.54
444.56	6389.66
444.77	6367.13
444.98	6465.44
445.19	6494.11
445.40	6463.39
445.61	6598.56
445.81	6557.60
446.02	6508.44
446.23	6412.19
446.44	6467.49
446.65	6473.63
446.86	6375.33
447.07	6676.38
447.28	6854.55
447.49	6756.25
447.70	6557.60
447.91	6762.39
448.12	6858.65
448.33	6844.31
448.54	6864.79
448.74	6703.00
448.95	6741.91
449.16	6748.06
449.37	7118.74
449.58	6737.82
449.79	6887.32
450.00	6930.33
450.21	7032.72
450.42	7085.97
450.63	7032.72
450.84	6870.94
451.05	7137.17
451.25	7118.74
451.46	7096.21
451.67	7272.34
451.88	7178.13
452.09	7251.86
452.30	7208.85
452.51	7174.03
452.72	7450.51
452.93	7563.15
453.13	7198.61
453.34	7278.48
453.55	7378.83
453.76	7520.14
453.97	7698.31
454.18	7604.11
454.39	7634.83
454.60	7464.85
454.81	7696.27
455.01	7849.86
455.22	7559.05
455.43	7810.95
455.64	7778.19
455.85	8101.76
456.06	8087.43
456.27	7956.36
456.48	7896.97
456.68	7950.21
456.89	7853.96
457.10	7989.13
457.31	7950.21
457.52	7931.78
457.73	8193.92
457.94	8281.99
458.14	8021.89
458.35	8587.13
458.56	8382.34
458.77	8140.68
458.98	8468.35
459.19	8417.15
459.39	8374.14
459.60	8630.14
459.81	8339.33
460.02	8675.20
460.23	8628.09
460.44	8818.55
460.65	8664.96
460.85	8830.84
461.06	8851.32
461.27	8677.24
461.48	9119.60
461.69	9135.99
461.89	8679.29
462.10	9144.18
462.31	8988.53
462.52	9002.87
462.73	9033.59
462.94	9199.48
463.14	9107.32
463.35	9168.76
463.56	9488.24
463.77	9316.21
463.98	9187.19
464.18	9420.66
464.39	9400.18
464.60	9586.54
464.81	9596.78
465.02	9578.35
465.23	9815.91
465.43	9682.80
465.64	10086.25
465.85	9932.65
466.06	9746.28
466.27	10106.73
466.47	10301.28
466.68	9924.46
466.89	10129.25
467.10	10223.46
467.30	10073.96
467.51	10166.12
467.72	10456.93
467.93	10209.12
468.14	10297.19
468.34	10592.09
468.55	10590.05
468.76	10366.82
468.97	10661.73
469.17	10749.79
469.38	10760.03
469.59	11007.83
469.80	10706.78
470.01	10846.04
470.21	10882.91
470.42	10932.06
470.63	11384.66
470.84	11151.19
471.04	11243.35
471.25	11372.37
471.46	11423.57
471.67	11585.36
471.87	11599.70
472.08	11659.09
472.29	11738.96
472.50	11417.43
472.70	11663.18
472.91	11898.70
473.12	12068.68
473.33	12117.83
473.53	12394.31
473.74	11997.00
473.95	12322.63
474.16	12615.49
474.36	12443.46
474.57	12668.73
474.78	12994.36
474.99	12664.64
475.19	12549.95
475.40	13002.55
475.61	13018.94
475.81	13020.99
476.02	13076.28
476.23	13076.28
476.44	13252.41
476.64	13516.59
476.85	13635.38
477.06	13700.91
477.27	13848.36
477.47	13717.29
477.68	13924.14
477.89	14126.89
478.09	14034.73
478.30	14079.79
478.51	14063.40
478.71	14165.80
478.92	14559.01
479.13	14384.93
479.34	14538.53
479.54	14315.30
479.75	14655.26
479.96	14728.99
480.16	14796.57
480.37	14745.38
480.58	15206.17
480.78	15384.34
480.99	15154.97
481.20	15453.97
481.41	15644.43
481.61	15738.64
481.82	15828.75
482.03	15660.82
482.23	15660.82
482.44	15980.30
482.65	16316.17
482.85	16129.80
483.06	16213.77
483.27	16420.61
483.47	16318.22
483.68	16119.56
483.89	16754.43
484.09	16649.99
484.30	16635.65
484.51	16865.02
484.71	17141.50
484.92	16889.60
485.13	17020.67
485.33	17293.05
485.54	17225.47
485.75	17522.42
485.95	17501.94
486.16	17620.72
486.37	17821.42
486.57	17712.88
486.78	17733.36
486.98	18038.51
487.19	17921.77
487.40	18112.24
487.60	18104.04
487.81	18337.51
488.02	18429.67
488.22	18181.87
488.43	18501.35
488.64	18593.51
488.84	18720.48
489.05	18857.70
489.25	18702.05
489.46	18945.76
489.67	18953.95
489.87	19201.76
490.08	19316.44
490.29	19379.93
490.49	19609.30
490.70	19709.65
490.90	19732.18
491.11	19640.02
491.32	19906.26
491.52	19773.14
491.73	20297.42
491.94	20182.73
492.14	20215.50
492.35	20469.45
492.55	20504.26
492.76	20537.03
492.97	20500.17
493.17	20840.13
493.38	20899.52
493.58	20989.63
493.79	21036.74
494.00	20924.10
494.20	21202.62
494.41	21094.08
494.61	21563.06
494.82	20977.34
495.02	21262.01
495.23	21546.68
495.44	21644.98
495.64	21683.89
495.85	21642.93
496.05	21761.72
496.26	22156.97
496.47	22267.56
496.67	22400.68
496.88	22359.72
497.08	21999.28
497.29	22378.15
497.49	22232.75
497.70	22281.90
497.91	22523.56
498.11	22656.68
498.32	22916.77
498.52	22654.63
498.73	23002.78
498.93	23094.94
499.14	23238.30
499.34	22996.64
499.55	23250.59
499.76	23213.73
499.96	23334.56
500.17	23400.09
500.37	23606.94
500.58	23475.87
500.78	23590.55
500.99	23768.73
501.19	24198.80
501.40	23838.36
501.60	23950.99
501.81	24053.39
502.02	24008.34
502.22	23770.77
502.43	24206.99
502.63	24501.90
502.84	24352.40
503.04	24407.69
503.25	24374.92
503.45	24544.91
503.66	24700.55
503.86	24796.81
504.07	25091.71
504.27	24757.89
504.48	24866.44
504.68	25046.66
504.89	25519.74
505.09	25405.05
505.30	24802.95
505.50	25192.06
505.71	25368.19
505.91	25187.97
506.12	25351.81
506.32	25357.95
506.53	25812.60
506.73	25851.51
506.94	25761.40
507.14	25792.12
507.35	25900.66
507.55	25638.52
507.76	25898.61
507.96	26115.70
508.17	26060.40
508.37	26140.27
508.58	26326.64
508.78	26205.81
508.99	26752.62
509.19	26717.80
509.40	26173.04
509.60	26257.01
509.81	26392.17
510.01	26556.01
510.22	26451.56
510.42	26656.36
510.63	27004.52
510.83	26742.38
511.04	26527.34
511.24	26961.51
511.44	26654.31
511.65	27045.48
511.85	26979.94
512.06	27287.14
512.26	27043.43
512.47	27344.48
512.67	27356.77
512.88	27489.88
513.08	27356.77
513.29	27369.05
513.49	27625.05
513.69	27565.66
513.90	27752.02
514.10	27694.68
514.31	28014.16
514.51	27629.15
514.72	27983.44
514.92	27788.89
515.13	27942.49
515.33	28155.47
515.53	28048.98
515.74	28028.50
515.94	28204.63
516.15	28124.75
516.35	27895.38
516.56	28567.12
516.76	28341.84
516.96	28155.47
517.17	28728.91
517.37	28614.22
517.58	28608.08
517.78	28724.81
517.99	28552.78
518.19	29029.96
518.39	28943.94
518.60	29040.20
518.80	29146.69
519.01	29152.84
519.21	29099.59
519.41	29392.45
519.62	29029.96
519.82	29335.10
520.03	29140.55
520.23	29322.82
520.43	29294.14
520.64	29648.44
520.84	29783.61
521.05	29746.75
521.25	29855.29
521.45	29685.31
521.66	29959.73
521.86	30008.89
522.07	30127.67
522.27	30207.54
522.47	29974.07
522.68	30369.33
522.88	30324.27
523.08	30371.38
523.29	30178.87
523.49	30697.00
523.70	30404.14
523.90	30805.55
524.10	30674.48
524.31	30959.14
524.51	31090.21
524.71	31137.32
524.92	31082.02
525.12	31426.08
525.33	31239.72
525.53	31446.56
525.73	31497.76
525.94	31417.89
526.14	31358.50
526.34	31604.25
526.55	31864.35
526.75	31741.47
526.95	32073.24
527.16	31895.07
527.36	31700.51
527.56	32327.19
527.77	32278.04
527.97	32077.33
528.17	32675.34
528.38	32566.80
528.58	32310.80
528.78	32708.11
528.99	32445.97
529.19	33003.02
529.39	32534.03
529.60	32523.79
529.80	32980.49
530.00	33132.04
530.21	33390.08
530.41	33474.05
530.61	33369.60
530.82	33392.13
531.02	33138.18
531.22	33678.85
531.43	33736.19
531.63	33994.23
531.83	33838.59
532.04	34141.69
532.24	33752.57
532.44	34242.04
532.64	34278.90
532.85	34373.11
533.05	34377.20
533.25	34336.24
533.46	34125.30
533.66	34995.69
533.86	34731.50
534.07	34919.92
534.27	34745.84
534.47	35341.80
534.67	35220.97
534.88	34958.83
535.08	35227.11
535.28	35825.12
535.49	35898.84
535.69	35964.38
535.89	35694.05
536.09	35651.04
536.30	36402.64
536.50	36144.60
536.70	36173.27
536.91	36091.35
537.11	36068.83
537.31	36021.72
537.51	36552.15
537.72	36269.53
537.92	36595.15
538.12	36873.68
538.32	36369.88
538.53	37170.63
538.73	36787.66
538.93	37012.94
539.13	36816.33
539.34	36830.67
539.54	37045.71
539.74	37320.13
539.94	37017.04
540.15	36902.35
540.35	37811.65
540.55	37746.11
540.75	37451.20
540.96	37746.11
541.16	37842.37
541.36	37803.46
541.56	38016.44
541.77	37963.20
541.97	38127.03
542.17	38010.30
542.37	38229.43
542.58	38387.13
542.78	38053.31
542.98	38084.03
543.18	38591.92
543.38	38815.15
543.59	38800.82
543.79	38569.40
543.99	38788.53
544.19	38905.26
544.40	38612.40
544.60	38972.85
544.80	39290.28
545.00	39022.00
545.20	39488.93
545.41	39048.62
545.61	39656.87
545.81	39626.15
546.01	39493.03
546.21	39191.98
546.42	39732.64
546.62	39937.44
546.82	39589.28
547.02	39544.23
547.22	39552.42
547.43	39718.31
547.63	39777.70
547.83	40168.86
548.03	39865.76
548.23	39867.81
548.44	40037.79
548.64	40037.79
548.84	40363.42
549.04	40203.67
549.24	40531.35
549.45	40748.43
549.65	40144.28
549.85	40369.56
550.05	40734.10
550.25	40519.06
550.45	41106.83
550.66	40713.62
550.86	40631.70
551.06	41049.49
551.26	40986.00
551.46	40994.19
551.66	41223.56
551.87	41276.81
552.07	40981.90
552.27	41164.17
552.47	41209.23
552.67	41207.18
552.87	41637.25
553.07	41518.47
553.28	41694.60
553.48	41983.36
553.68	41211.28
553.88	41940.35
554.08	41657.73
554.28	41715.08
554.48	41461.13
554.69	41545.09
554.89	41356.68
555.09	41794.95
555.29	41911.68
555.49	42036.61
555.69	41727.36
555.89	42048.89
556.10	42040.70
556.30	41946.50
556.50	42245.50
556.70	42315.13
556.90	42456.44
557.10	41948.54
557.30	42300.79
557.50	42595.70
557.70	42413.43
557.91	42685.81
558.11	42468.73
558.31	43158.89
558.51	42423.67
558.71	42503.54
558.91	43027.82
559.11	42272.12
559.31	42818.93
559.51	42524.02
559.72	42919.28
559.92	43122.03
560.12	42489.21
560.32	42829.17
560.52	42866.03
560.72	42915.19
560.92	43382.12
561.12	43048.30
561.32	43664.74
561.52	43093.36
561.72	43277.68
561.93	43349.35
562.13	42986.86
562.33	43134.32
562.53	43693.41
562.73	42872.18
562.93	43255.15
563.13	43728.23
563.33	43734.37
563.53	43738.47
563.73	43324.78
563.93	43658.60
564.13	43799.91
564.33	43726.18
564.53	43523.43
564.74	43973.98
564.94	44154.21
565.14	44416.35
565.34	43427.18
565.54	44156.25
565.74	43902.31
565.94	44553.56
566.14	43865.44
566.34	43955.55
566.54	44553.56
566.74	43871.59
566.94	44277.08
567.14	44379.48
567.34	44115.29
567.54	44623.19
567.74	44070.24
567.94	44510.55
568.14	44612.95
568.34	44567.90
568.54	44547.42
568.74	45057.36
568.94	44367.20
569.14	44735.83
569.34	44733.78
569.54	44889.43
569.75	44348.76
569.95	44834.13
570.15	45319.50
570.35	44909.91
570.55	44801.36
570.75	45409.61
570.95	45092.18
571.15	44893.52
571.35	44803.41
571.55	45225.29
571.75	45454.67
571.95	45327.69
572.15	45444.43
572.35	45280.59
572.55	45581.64
572.75	45495.63
572.95	45417.80
573.15	45624.65
573.35	45772.10
573.55	45094.22
573.75	45677.90
573.95	45710.66
574.15	45223.25
574.35	45643.08
574.55	46009.67
574.75	45802.82
574.95	46099.78
575.15	45651.27
575.34	45651.27
575.54	46146.88
575.74	46122.30
575.94	46034.24
576.14	46124.35
576.34	46531.90
576.54	46535.99
576.74	46533.95
576.94	46568.76
577.14	46814.52
577.34	46931.25
577.54	46171.46
577.74	46851.38
577.94	46609.72
578.14	46964.02
578.34	46861.62
578.54	46417.21
578.74	46626.10
578.94	47191.34
579.14	46744.89
579.34	47047.99
579.54	47609.13
579.74	47557.93
579.94	47490.35
580.13	47439.15
580.33	47371.57
580.53	47480.11
580.73	47498.54
580.93	47447.34
581.13	47338.80
581.33	47324.46
581.53	48080.16
581.73	47666.47
581.93	47834.41
582.13	48037.16
582.33	47719.72
582.53	47811.88
582.73	48157.99
582.92	48051.49
583.12	48014.63
583.32	48231.71
583.52	47904.04
583.72	48590.11
583.92	48350.49
584.12	48506.14
584.32	48784.66
584.52	48829.72
584.72	48827.67
584.92	48479.52
585.11	48848.15
585.31	48409.89
585.51	48917.78
585.71	48719.13
585.91	49407.25
586.11	48925.97
586.31	48786.71
586.51	48997.65
586.71	49499.40
586.91	49403.15
587.10	49190.16
587.30	48956.69
587.50	49265.94
587.70	49478.92
587.90	49114.39
588.10	49362.19
588.30	49648.91
588.50	49460.49
588.69	49714.44
588.89	49640.71
589.09	49046.80
589.29	49665.29
589.49	50222.34
589.69	49433.87
589.89	49861.90
590.08	50152.71
590.28	50027.78
590.48	49825.03
590.68	49831.18
590.88	50121.99
591.08	49765.64
591.28	49693.96
591.47	50324.74
591.67	49982.73
591.87	50216.19
592.07	50388.22
592.27	50150.66
592.47	50464.00
592.67	50296.06
592.86	49911.05
593.06	50365.70
593.26	51057.91
593.46	50423.04
593.66	50644.22
593.86	50799.86
594.05	50810.10
594.25	51219.70
594.45	50828.54
594.65	50676.99
594.85	50599.16
595.05	51475.69
595.24	51137.78
595.44	50607.36
595.64	51148.02
595.84	51199.22
596.04	51193.07
596.23	51053.81
596.43	51461.36
596.63	51027.19
596.83	51555.57
597.03	51676.40
597.22	51952.87
597.42	51672.30
597.62	51752.17
597.82	52106.47
598.02	51639.53
598.21	52272.35
598.41	51641.58
598.61	51791.08
598.81	52262.11
599.01	52143.33
599.20	52155.62
599.40	51907.82
599.60	52034.79
599.80	52088.04
600.00	52350.18
600.19	52565.21
600.39	51678.44
600.59	52059.37
600.79	52360.42
600.98	52217.06
601.18	52346.08
601.38	52589.79
601.58	52573.41
601.78	52423.90
601.97	52542.69
602.17	53064.92
602.37	52933.85
602.57	53007.58
602.76	53286.10
602.96	52690.14
603.16	53152.98
603.36	53572.81
603.55	53181.65
603.75	53042.39
603.95	53441.74
604.15	53470.42
604.34	53525.71
604.54	53703.88
604.74	53220.56
604.94	53587.15
605.13	53621.97
605.33	53347.54
605.53	53501.14
605.73	54240.45
605.92	53423.31
606.12	54131.91
606.32	53929.16
606.52	54002.89
606.71	53679.31
606.91	54428.87
607.11	53568.72
607.30	54181.06
607.50	54095.05
607.70	54017.22
607.90	53945.54
608.09	53533.90
608.29	54344.90
608.49	54414.53
608.68	54357.19
608.88	54158.53
609.08	54430.91
609.28	54432.96
609.47	54148.29
609.67	54811.84
609.87	54082.76
610.06	54531.26
610.26	54899.90
610.46	54432.96
610.66	54678.72
610.85	54576.32
611.05	54428.87
611.25	55043.26
611.44	54973.63
611.64	54531.26
611.84	54322.37
612.03	54709.44
612.23	54641.85
612.43	55360.69
612.62	54731.96
612.82	55071.93
613.02	54746.30
613.21	54654.14
613.41	54936.76
613.61	54871.23
613.80	54162.63
614.00	54639.81
614.20	55393.46
614.39	54596.80
614.59	55325.88
614.79	54961.34
614.98	54996.15
615.18	55069.88
615.38	55342.26
615.57	54574.27
615.77	55383.22
615.97	55170.23
616.16	54791.36
616.36	54926.52
616.56	55221.43
616.75	54983.86
616.95	54686.91
617.15	54951.10
617.34	54676.67
617.54	55096.50
617.74	55286.96
617.93	55172.28
618.13	55026.87
618.32	54875.32
618.52	55004.34
618.72	55061.69
618.91	54592.70
619.11	55205.05
619.31	54889.66
619.50	55057.59
619.70	54592.70
619.90	54758.59
620.09	55112.89
620.29	55024.82
620.48	55090.36
620.68	55364.79
620.88	54885.56
621.07	54998.20
621.27	55317.68
621.46	54957.24
621.66	54834.36
621.86	55536.82
622.05	55037.11
622.25	55542.96
622.44	55415.99
622.64	54924.47
622.84	54820.03
623.03	54977.72
623.23	55190.71
623.42	54510.78
623.62	55010.49
623.82	55104.70
624.01	54981.82
624.21	54809.79
624.40	54836.41
624.60	55010.49
624.80	54492.35
624.99	54869.18
625.19	54858.94
625.38	54912.19
625.58	55100.60
625.77	54828.22
625.97	55239.86
626.17	54885.56
626.36	54908.09
626.56	54885.56
626.75	55018.68
626.95	55215.29
627.14	54746.30
627.34	55608.50
627.54	54990.01
627.73	55108.79
627.93	55096.50
628.12	55133.37
628.32	55258.29
628.51	54922.43
628.71	54662.33
628.90	54942.91
629.10	55246.00
629.30	55121.08
629.49	55192.76
629.69	54398.15
629.88	55061.69
630.08	55159.99
630.27	55252.15
630.47	55256.24
630.66	55004.34
630.86	55256.24
631.05	54580.42
631.25	55372.98
631.44	55096.50
631.64	55499.95
631.84	55346.36
632.03	55078.07
632.23	54908.09
632.42	55254.20
632.62	55375.03
632.81	54930.62
633.01	55370.93
633.20	55182.52
633.40	55631.02
633.59	55305.40
633.79	54910.14
633.98	54789.31
634.18	55286.96
634.37	55270.58
634.57	54924.47
634.76	55149.75
634.96	55411.89
635.15	55571.63
635.35	54752.44
635.54	55008.44
635.74	55868.59
635.93	54725.82
636.13	55585.97
636.32	55727.28
636.52	55256.24
636.71	55250.10
636.91	55604.40
637.10	55643.31
637.30	55018.68
637.49	55499.95
637.69	55479.47
637.88	55659.69
638.08	55207.09
638.27	55946.41
638.46	55233.72
638.66	55383.22
638.85	55409.84
639.05	55747.76
639.24	55692.46
639.44	55223.48
639.63	55557.30
639.83	55469.23
640.02	55631.02
640.22	55432.37
640.41	55786.67
640.61	55016.63
640.80	55446.71
640.99	55622.83
641.19	56241.32
641.38	55393.46
641.58	55391.41
641.77	55542.96
641.97	55397.55
642.16	55637.17
642.36	55964.84
642.55	56243.37
642.74	55375.03
642.94	56136.87
643.13	55723.18
643.33	55983.27
643.52	56261.80
643.72	55598.26
643.91	56067.24
644.10	56050.86
644.30	55956.65
644.49	55645.36
644.69	56415.40
644.88	56405.16
645.08	55932.07
645.27	55829.68
645.46	55878.83
645.66	56233.13
645.85	55833.77
646.05	56358.05
646.24	55655.60
646.43	56005.80
646.63	56229.03
646.82	56315.04
647.02	55997.61
647.21	56304.80
647.40	56300.71
647.60	56941.72
647.79	56327.33
647.99	56413.35
648.18	55966.89
648.37	56933.53
648.57	56589.47
648.76	56071.34
648.96	56102.06
649.15	56362.15
649.34	56865.95
649.54	56745.12
649.73	56272.04
649.92	56614.05
650.12	56730.78
650.31	56587.42
650.51	56472.74
650.70	56759.45
650.89	56753.31
651.09	57046.17
651.28	56478.88
651.47	56595.62
651.67	56786.08
651.86	56829.08
652.06	56192.17
652.25	56671.39
652.44	56591.52
652.64	56665.25
652.83	56188.07
653.02	56274.09
653.22	57029.79
653.41	56722.59
653.60	56321.19
653.80	56784.03
653.99	57099.42
654.18	56612.00
654.38	56939.68
654.57	56448.16
654.76	56820.89
654.96	56589.47
655.15	56796.32
655.34	56628.38
655.54	56151.21
655.73	56771.74
655.92	56665.25
656.12	56892.57
656.31	56994.97
656.50	57021.59
656.70	57107.61
656.89	56802.46
657.08	57150.62
657.28	56925.34
657.47	57074.84
657.66	57040.03
657.86	56464.55
658.05	56657.06
658.24	56521.89
658.43	56773.79
658.63	57187.48
658.82	56839.32
659.01	57058.46
659.21	56804.51
659.40	57054.36
659.59	57005.21
659.79	57496.72
659.98	57115.80
660.17	57638.03
660.36	57341.08
660.56	57287.83
660.75	56847.52
660.94	57132.18
661.14	56700.06
661.33	57058.46
661.52	56358.05
661.71	57267.35
661.91	56915.10
662.10	57138.33
662.29	57154.71
662.49	57595.03
662.68	57269.40
662.87	56818.84
663.06	57420.95
663.26	57162.90
663.45	57793.68
663.64	57056.41
663.83	57590.93
664.03	57312.41
664.22	57484.43
664.41	56822.94
664.60	56804.51
664.80	57328.79
664.99	56714.40
665.18	57113.75
665.37	57537.68
665.57	57539.73
665.76	56798.37
665.95	57304.21
666.14	57152.66
666.34	56808.61
666.53	57185.43
666.72	57005.21
666.91	57136.28
667.11	56777.89
667.30	57406.61
667.49	57136.28
667.68	57339.03
667.87	56960.15
668.07	57414.80
668.26	57619.60
668.45	56847.52
668.64	56935.58
668.84	57867.40
669.03	57355.41
669.22	57250.97
669.41	57533.59
669.60	57111.70
669.80	57119.90
669.99	57531.54
670.18	56919.20
670.37	57144.47
670.57	57525.39
670.76	56917.15
670.95	57539.73
671.14	57136.28
671.33	57183.38
671.53	57371.80
671.72	57066.65
671.91	56964.25
672.10	56888.48
672.29	57064.60
672.48	56849.56
672.68	57343.12
672.87	56931.48
673.06	56890.52
673.25	57042.07
673.44	56855.71
673.64	56902.81
673.83	57173.14
674.02	56724.64
674.21	56878.24
674.40	56997.02
674.59	56927.39
674.79	56685.73
674.98	56394.92
675.17	56908.96
675.36	56730.78
675.55	56556.70
675.74	56806.56
675.94	56546.47
676.13	57328.79
676.32	56872.09
676.51	57123.99
676.70	56931.48
676.89	57015.45
677.08	57140.38
677.28	56499.36
677.47	56982.68
677.66	57148.57
677.85	57138.33
678.04	56988.83
678.23	56876.19
678.42	57173.14
678.62	56384.68
678.81	56970.39
679.00	56718.49
679.19	57554.07
679.38	56908.96
679.57	56734.88
679.76	56585.38
679.96	56954.01
680.15	56976.54
680.34	56964.25
680.53	56677.54
680.72	56923.29
680.91	56941.72
681.10	56714.40
681.29	56644.77
681.48	56667.30
681.68	56861.85
681.87	56194.21
682.06	56669.34
682.25	56343.72
682.44	56351.91
682.63	56843.42
682.82	56276.13
683.01	56566.94
683.20	56233.13
683.39	56405.16
683.59	56169.64
683.78	56341.67
683.97	55925.93
684.16	56159.40
684.35	55868.59
684.54	56313.00
684.73	56001.71
684.92	56337.57
685.11	56525.99
685.30	56075.43
685.49	56515.75
685.69	55866.54
685.88	56399.01
686.07	56145.06
686.26	55712.94
686.45	56241.32
686.64	56011.95
686.83	55932.07
687.02	56186.02
687.21	56100.01
687.40	56341.67
687.59	56222.89
687.78	56181.93
687.97	56261.80
688.16	55764.14
688.35	55669.93
688.54	55516.34
688.74	56157.35
688.93	56089.77
689.12	55790.76
689.31	56196.26
689.50	55919.79
689.69	55547.06
689.88	55375.03
690.07	55794.86
690.26	55309.49
690.45	55936.17
690.64	56173.73
690.83	55534.77
691.02	55246.00
691.21	55477.43
691.40	55637.17
691.59	55698.61
691.78	55471.28
691.97	55956.65
692.16	55588.02
692.35	55907.50
692.54	55243.96
692.73	55690.41
692.92	54908.09
693.11	55135.41
693.30	55305.40
693.49	55063.74
693.68	54965.43
693.87	55473.33
694.06	55145.65
694.25	55061.69
694.44	55096.50
694.63	55227.57
694.82	55358.64
695.01	55145.65
695.20	55461.04
695.39	55286.96
695.58	55037.11
695.77	54891.71
695.96	54680.77
696.15	54637.76
696.34	55104.70
696.53	54871.23
696.72	55094.46
696.91	54619.33
697.10	54789.31
697.29	54799.55
697.48	55071.93
697.67	54604.99
697.86	54498.50
698.05	54684.86
698.24	54496.45
698.43	53875.91
698.62	54643.90
698.81	54527.17
699.00	54805.69
699.19	54555.84
699.38	54432.96
699.57	54213.83
699.76	54901.95
699.95	54244.55
700.14	54314.18
700.32	54670.53
700.51	54265.03
700.70	54764.73
700.89	54723.77
701.08	54240.45
701.27	54486.21
701.46	54441.15
701.65	54090.95
701.84	54428.87
702.03	54197.44
702.22	53810.38
702.41	54101.19
702.60	54090.95
702.79	54144.20
702.98	53738.70
703.17	53550.29
703.35	53728.46
703.54	53560.53
703.73	53853.39
703.92	53900.49
704.11	53892.30
704.30	53554.38
704.49	53503.18
704.68	53441.74
704.87	53707.98
705.06	53261.52
705.25	53828.81
705.43	53376.21
705.62	53236.95
705.81	53345.49
706.00	53142.74
706.19	52638.94
706.38	52999.38
706.57	53546.19
706.76	53003.48
706.95	53411.02
707.14	52954.33
707.32	52667.61
707.51	52948.18
707.70	52669.66
707.89	53144.79
708.08	53071.06
708.27	53050.58
708.46	52894.94
708.65	52909.27
708.84	52856.03
709.02	53189.84
709.21	52714.72
709.40	52942.04
709.59	53370.07
709.78	52692.19
709.97	52997.34
710.16	52305.12
710.34	53001.43
710.53	52651.23
710.72	52409.57
710.91	52675.80
711.10	52727.00
711.29	52819.16
711.48	52567.26
711.66	52176.10
711.85	52591.84
712.04	52667.61
712.23	52554.97
712.42	52192.48
712.61	52313.31
712.80	52534.49
712.98	52712.67
713.17	52509.92
713.36	52208.87
713.55	52184.29
713.74	51846.38
713.93	52116.71
714.11	52112.61
714.30	51885.29
714.49	51279.09
714.68	52212.96
714.87	51887.34
715.06	51592.43
715.24	51625.20
715.43	51877.10
715.62	51721.45
715.81	51723.50
716.00	51574.00
716.18	51680.49
716.37	51285.23
716.56	51205.36
716.75	51760.36
716.94	51582.19
717.12	50935.03
717.31	51707.12
717.50	51219.70
717.69	51221.75
717.88	51647.72
718.06	51373.30
718.25	51717.35
718.44	50844.92
718.63	51141.88
718.82	50818.30
719.00	51039.48
719.19	50992.37
719.38	50828.54
719.57	50447.61
719.76	50169.09
719.94	50521.34
720.13	50318.59
720.32	50865.40
720.51	50326.78
720.69	50246.91
720.88	50289.92
721.07	50111.75
721.26	50042.12
721.44	50056.45
721.63	50351.36
721.82	49849.61
722.01	50093.32
722.20	50345.22
722.38	49997.06
722.57	49837.32
722.76	50009.35
722.95	49714.44
723.13	49468.69
723.32	49626.38
723.51	49190.16
723.70	49448.21
723.88	49810.70
724.07	49286.42
724.26	49466.64
724.44	49157.39
724.63	49130.77
724.82	49423.63
725.01	49075.48
725.19	49050.90
725.38	49231.12
725.57	49175.83
725.76	49202.45
725.94	48887.06
726.13	48801.05
726.32	48633.11
726.51	48842.01
726.69	48866.58
726.88	48592.15
727.07	48739.61
727.25	49231.12
727.44	48882.97
727.63	48772.38
727.82	48536.86
728.00	48729.37
728.19	48500.00
728.38	49286.42
728.56	48119.07
728.75	49145.11
728.94	48946.45
729.12	48669.98
729.31	48786.71
729.50	48536.86
729.69	48925.97
729.87	48741.66
730.06	48551.20
730.25	48444.70
730.43	48882.97
730.62	48467.23
730.81	48782.62
730.99	48739.61
731.18	48385.31
731.37	48815.38
731.55	48618.78
731.74	48764.18
731.93	48805.14
732.11	48590.11
732.30	48473.37
732.49	48407.84
732.67	48082.21
732.86	48100.64
733.05	48856.34
733.23	48706.84
733.42	48561.44
733.61	48340.25
733.79	48200.99
733.98	48766.23
734.17	48110.88
734.35	48692.50
734.54	48461.08
734.73	48712.98
734.91	48315.68
735.10	48676.12
735.29	48291.10
735.47	47873.32
735.66	48256.29
735.84	48231.71
736.03	47828.26
736.22	48629.02
736.40	47871.27
736.59	48315.68
736.78	48317.73
736.96	48076.07
737.15	48143.65
737.33	47983.91
737.52	47904.04
737.71	47818.02
737.89	47566.12
738.08	47340.85
738.27	47420.72
738.45	48059.68
738.64	47758.63
738.82	47772.97
739.01	47582.51
739.20	47858.98
739.38	47615.27
739.57	48282.91
739.75	47938.85
739.94	47811.88
740.13	47428.91
740.31	46886.20
740.50	47519.02
740.68	47578.41
740.87	47732.01
741.06	47519.02
741.24	47600.94
741.43	47072.56
741.61	47426.86
741.80	47289.65
741.99	47224.11
742.17	47029.55
742.36	47097.14
742.54	47217.97
742.73	47027.51
742.91	47666.47
743.10	47000.88
743.29	47234.35
743.47	46972.21
743.66	47074.61
743.84	47277.36
744.03	47093.04
744.21	47179.06
744.40	46994.74
744.59	46720.31
744.77	46777.65
744.96	47113.52
745.14	47152.43
745.33	46875.96
745.51	46746.93
745.70	46730.55
745.88	46941.49
746.07	46607.67
746.26	46497.08
746.44	46658.87
746.63	46728.50
746.81	46535.99
747.00	46368.06
747.18	46880.05
747.37	46667.06
747.55	46929.20
747.74	46392.64
747.92	46308.67
748.11	46071.10
748.29	46449.98
748.48	46542.14
748.66	46384.44
748.85	46200.13
749.03	46130.50
749.22	46490.94
749.41	46034.24
749.59	45729.09
749.78	45987.14
749.96	45581.64
750.15	45901.12
750.33	45765.96
750.52	45872.45
750.70	45819.20
750.89	45739.33
751.07	45491.53
751.26	45407.56
751.44	45600.07
751.63	45397.32
751.81	45391.18
752.00	45849.92
752.18	45667.66
752.37	45262.16
752.55	45720.90
752.74	44930.39
752.92	45403.47
753.10	45258.06
753.29	45290.83
753.47	45233.49
753.66	44987.73
753.84	45229.39
754.03	45356.36
754.21	44885.33
754.40	45032.78
754.58	44911.95
754.77	44983.63
754.95	45065.55
755.14	45065.55
755.32	44854.61
755.51	44741.97
755.69	44840.28
755.88	44739.93
756.06	45139.28
756.24	45065.55
756.43	44823.89
756.61	44705.11
756.80	44422.49
756.98	44510.55
757.17	44756.31
757.35	44518.74
757.54	44672.34
757.72	44651.86
757.90	44242.27
758.09	44422.49
758.27	44506.46
758.46	44227.93
758.64	44238.17
758.83	44430.68
759.01	44465.50
759.19	44442.97
759.38	44473.69
759.56	44895.57
759.75	44729.69
759.93	44270.94
760.12	43859.30
760.30	44219.74
760.48	44076.38
760.67	43646.31
760.85	44430.68
761.04	44440.92
761.22	44463.45
761.40	43986.27
761.59	43607.40
761.77	43486.57
761.96	43644.26
762.14	43758.95
762.32	43500.90
762.51	43617.64
762.69	43578.73
762.88	43386.22
763.06	43728.23
763.24	43693.41
763.43	43535.72
763.61	43318.64
763.80	43591.01
763.98	43154.80
764.16	43564.39
764.35	43259.24
764.53	42816.88
764.72	43115.89
764.90	43115.89
765.08	43322.73
765.27	43015.54
765.45	42794.36
765.63	42648.95
765.82	42964.34
766.00	42626.42
766.18	42861.94
766.37	43251.05
766.55	42726.77
766.74	42640.76
766.92	42573.17
767.10	42243.45
767.29	42620.28
767.47	42149.24
767.65	42515.83
767.84	42374.52
768.02	42651.00
768.20	42351.99
768.39	42026.37
768.57	42100.09
768.75	42407.29
768.94	42263.93
769.12	42429.82
769.30	42063.23
769.49	41665.92
769.67	41784.71
769.85	41479.56
770.04	42169.72
770.22	41758.08
770.40	41526.66
770.59	41373.06
770.77	41821.57
770.95	41377.16
771.14	41125.26
771.32	41518.47
771.50	40732.05
771.69	41416.07
771.87	41858.43
772.05	41461.13
772.24	41188.75
772.42	41270.67
772.60	41227.66
772.78	41139.60
772.97	40629.65
773.15	41229.71
773.33	40680.85
773.52	40945.04
773.70	41076.11
773.88	41364.87
774.07	40699.28
774.25	41110.92
774.43	40959.38
774.61	41135.50
774.80	41371.02
774.98	41293.19
775.16	41368.97
775.34	41291.15
775.53	41110.92
775.71	41131.40
775.89	41194.89
776.08	41211.28
776.26	41344.39
776.44	41268.62
776.62	41143.69
776.81	40981.90
776.99	40981.90
777.17	41100.68
777.35	41555.33
777.54	41280.91
777.72	41541.00
777.90	41506.18
778.08	41510.28
778.27	41393.54
778.45	41500.04
778.63	41739.65
778.81	41651.59
779.00	42102.14
779.18	41848.19
779.36	41907.58
779.54	41586.05
779.73	41473.42
779.91	41375.11
780.09	41598.34
780.27	41346.44
780.46	41461.13
780.64	41868.67
780.82	41756.03
781.00	41889.15
781.19	42128.77
781.37	42306.94
781.55	42046.85
781.73	42278.27
781.91	42239.36
782.10	41858.43
782.28	42251.64
782.46	42167.68
782.64	41825.67
782.82	42048.89
783.01	42120.57
783.19	42270.08
783.37	42298.75
783.55	41794.95
783.74	42579.32
783.92	41624.96
784.10	42085.76
784.28	42241.40
784.46	41868.67
784.64	41758.08
784.83	42265.98
785.01	42274.17
785.19	42001.79
785.37	41858.43
785.55	42132.86
785.74	41731.46
785.92	41602.44
786.10	41825.67
786.28	42009.98
786.46	41872.77
786.64	41710.98
786.83	41758.08
787.01	41692.55
787.19	41653.64
787.37	41940.35
787.55	41700.74
787.74	41631.11
787.92	41473.42
788.10	41604.49
788.28	41356.68
788.46	41811.33
788.64	41541.00
788.82	41661.83
789.01	41465.22
789.19	41588.10
789.37	40994.19
789.55	41205.13
789.73	40957.33
789.91	40791.44
790.09	41561.48
790.28	41020.81
790.46	40998.29
790.64	41043.34
790.82	41164.17
791.00	40643.99
791.18	40768.91
791.36	40811.92
791.55	40504.73
791.73	40957.33
791.91	40314.26
792.09	40410.52
792.27	40463.77
792.45	40353.18
792.63	40226.20
792.81	40160.67
793.00	40156.57
793.18	40011.17
793.36	39564.71
793.54	39783.84
793.72	39222.70
793.90	39447.97
794.08	39603.62
794.26	39603.62
794.44	39241.13
794.62	39187.88
794.81	39462.31
794.99	38950.32
795.17	39159.21
795.35	38993.32
795.53	39714.21
795.71	39034.28
795.89	39036.33
796.07	38366.65
796.25	38626.74
796.43	38438.33
796.61	38251.96
796.80	38561.20
796.98	37821.89
797.16	38231.48
797.34	38280.63
797.52	38188.47
797.70	38505.91
797.88	37924.29
798.06	37643.71
798.24	37852.61
798.42	37950.91
798.60	37715.39
798.78	37723.58
798.96	37782.98
799.14	37232.07
799.32	37285.32
799.51	36980.17
799.69	37404.10
799.87	37150.15
800.05	37039.56
800.23	36840.91
800.41	36591.06
800.59	36433.36
800.77	36810.19
800.95	36369.88
801.13	36662.74
801.31	36292.05
801.49	36584.91
801.67	36208.09
801.85	36711.89
802.03	35698.14
802.21	35970.52
802.39	35933.66
802.57	36214.23
802.75	35859.93
802.93	35833.31
803.11	35579.36
803.29	35728.86
803.47	35374.56
803.65	35204.58
803.83	35233.25
804.01	35622.37
804.19	35139.05
804.37	35278.31
804.55	35272.17
804.73	34911.72
804.91	35089.90
805.09	35104.23
805.27	35010.03
805.45	34518.51
805.63	34952.68
805.81	34840.04
805.99	34751.98
806.17	34885.10
806.35	34442.74
806.53	34393.59
806.71	34649.58
806.89	34520.56
807.07	34506.23
807.25	34276.85
807.43	34129.40
807.61	34182.65
807.79	33854.97
807.97	33639.93
808.15	34055.67
808.33	33527.30
808.51	33672.70
808.69	33586.69
808.87	33340.93
809.05	33445.38
809.23	33586.69
809.41	32890.38
809.59	33066.50
809.77	33443.33
809.95	33195.53
810.13	33046.02
810.31	33129.99
810.49	32998.92
810.67	32640.53
810.84	32978.44
811.02	33066.50
811.20	32757.26
811.38	32861.71
811.56	32388.63
811.74	32542.22
811.92	32224.79
812.10	32355.86
812.28	32589.33
812.46	32534.03
812.64	32583.18
812.82	32257.56
813.00	32157.21
813.18	32189.97
813.36	32177.68
813.53	31759.90
813.71	31960.60
813.89	31884.83
814.07	32142.87
814.25	31907.35
814.43	31497.76
814.61	31381.03
814.79	31452.70
814.97	31501.86
815.15	31630.88
815.33	31131.17
815.50	31237.67
815.68	31417.89
815.86	31546.91
816.04	31127.08
816.22	30996.01
816.40	30901.80
816.58	30846.51
816.76	31051.30
816.94	30858.79
817.11	31094.31
817.29	30731.82
817.47	30494.25
817.65	30715.44
817.83	30817.83
818.01	30809.64
818.19	30555.69
818.37	30623.28
818.54	30221.87
818.72	30502.45
818.90	30041.65
819.08	30154.29
819.26	30352.94
819.44	30187.06
819.62	30142.00
819.80	30189.11
819.97	30346.80
820.15	29843.00
820.33	29750.84
820.51	30189.11
820.69	29894.20
820.87	29920.82
821.05	29972.02
821.22	29937.21
821.40	29718.07
821.58	29613.63
821.76	29621.82
821.94	29601.34
822.12	29451.84
822.29	29398.59
822.47	29175.36
822.65	29556.28
822.83	29367.87
823.01	29206.08
823.19	29111.88
823.36	29056.58
823.54	28874.31
823.72	28804.68
823.90	28743.24
824.08	28761.67
824.25	29048.39
824.43	28735.05
824.61	28589.64
824.79	28948.04
824.97	28728.91
825.15	28771.91
825.32	28567.12
825.50	28538.44
825.68	28616.27
825.86	28808.78
826.04	28741.19
826.21	28999.24
826.39	28548.68
826.57	28229.20
826.75	28102.23
826.93	28001.88
827.10	28149.33
827.28	28225.11
827.46	28137.04
827.64	28356.18
827.81	27903.57
827.99	28098.13
828.17	28210.77
828.35	27874.90
828.53	27706.97
828.70	27608.67
828.88	27610.71
829.06	27766.36
829.24	27905.62
829.41	27696.73
829.59	27827.80
829.77	27735.64
829.95	27655.77
830.12	27508.32
830.30	27446.88
830.48	27655.77
830.66	27526.75
830.84	27809.37
831.01	27168.35
831.19	27512.41
831.37	27262.56
831.55	27342.43
831.72	27391.58
831.90	27168.35
832.08	27305.57
832.25	26961.51
832.43	26955.36
832.61	26801.77
832.79	26852.97
832.96	26838.63
833.14	26791.53
833.32	27006.56
833.50	27164.26
833.67	26928.74
833.85	27000.42
834.03	26705.51
834.20	26916.45
834.38	26910.31
834.56	26723.94
834.74	26660.46
834.91	26621.55
835.09	26502.76
835.27	26261.10
835.44	26570.35
835.62	26070.64
835.80	26259.06
835.98	26347.12
836.15	26367.60
836.33	26457.71
836.51	26297.97
836.68	26322.54
836.86	26160.75
837.04	26187.38
837.21	26132.08
837.39	26336.88
837.57	26127.99
837.75	26324.59
837.92	25859.70
838.10	25890.42
838.28	25691.77
838.45	25949.81
838.63	25730.68
838.81	25943.67
838.98	25984.63
839.16	25646.71
839.34	25630.33
839.51	25509.50
839.69	25441.92
839.87	25575.03
840.04	25409.15
840.22	25482.88
840.40	25446.01
840.57	25136.77
840.75	25480.83
840.93	25192.06
841.10	25398.91
841.28	25728.63
841.46	25310.85
841.63	25417.34
841.81	25273.98
841.98	25026.18
842.16	25364.09
842.34	25421.44
842.51	25026.18
842.69	25337.47
842.87	24979.07
843.04	24921.73
843.22	24477.32
843.40	24714.89
843.57	24913.54
843.75	24991.36
843.92	24901.25
844.10	24905.35
844.28	24819.33
844.45	24729.22
844.63	24823.43
844.81	24610.44
844.98	24749.70
845.16	24723.08
845.33	24448.65
845.51	24575.62
845.69	24387.21
845.86	24522.38
846.04	24323.72
846.21	24295.05
846.39	24448.65
846.57	24344.20
846.74	24217.23
846.92	24118.93
847.09	24069.78
847.27	23879.32
847.45	24120.98
847.62	24059.54
847.80	24100.50
847.97	23944.85
848.15	23955.09
848.32	23969.43
848.50	24045.20
848.68	23961.23
848.85	23840.40
849.03	23449.24
849.20	23975.57
849.38	23545.50
849.56	23541.40
849.73	23551.64
849.91	23946.90
850.08	23897.75
850.26	24014.48
850.43	23719.57
850.61	23709.33
850.78	23361.18
850.96	23234.21
851.14	23355.04
851.31	23393.95
851.49	23285.40
851.66	23273.12
851.84	23293.60
852.01	23416.47
852.19	23246.49
852.36	23547.54
852.54	23285.40
852.71	23144.09
852.89	23129.76
853.07	23312.03
853.24	22986.40
853.42	23066.27
853.59	23070.37
853.77	23297.69
853.94	22970.02
854.12	23289.50
854.29	22566.57
854.47	22994.59
854.64	23066.27
854.82	23277.21
854.99	23021.22
855.17	22773.41
855.34	22851.24
855.52	22759.08
855.69	22812.32
855.87	22644.39
856.04	22505.13
856.22	22750.88
856.39	22476.46
856.57	22593.19
856.74	22312.62
856.92	22521.51
857.09	22527.66
857.27	22156.97
857.44	22681.25
857.62	22585.00
857.79	22159.02
857.97	22464.17
858.14	22431.40
858.32	22458.03
858.49	21978.80
858.67	22124.21
858.84	22382.25
859.02	22410.92
859.19	22023.86
859.37	21819.06
859.54	21755.57
859.72	21917.36
859.89	21706.42
860.06	21853.87
860.24	22066.86
860.41	21995.18
860.59	21751.48
860.76	21845.68
860.94	21524.15
861.11	21720.76
861.29	21716.66
861.46	21710.52
861.64	21571.25
861.81	21833.39
861.98	21622.45
862.16	21657.27
862.33	21370.55
862.51	21313.21
862.68	21493.43
862.86	21454.52
863.03	21300.92
863.21	21556.92
863.38	21087.93
863.55	21421.75
863.73	21241.53
863.90	21259.96
864.08	21036.74
864.25	21001.92
864.43	21143.23
864.60	21235.39
864.77	20915.90
864.95	21100.22
865.12	21118.65
865.30	20917.95
865.47	20850.37
865.64	20715.20
865.82	20946.62
865.99	20985.54
866.17	20858.56
866.34	21114.56
866.51	20563.65
866.69	20672.20
866.86	20946.62
867.04	20774.60
867.21	20696.77
867.38	20358.86
867.56	20467.40
867.73	20311.75
867.91	20428.49
868.08	20420.30
868.25	20352.71
868.43	20246.22
868.60	20410.06
868.78	20211.40
868.95	20178.64
869.12	20082.38
869.30	20317.90
869.47	20246.22
869.64	19848.91
869.82	20137.68
869.99	19955.41
870.16	20025.04
870.34	19951.31
870.51	20233.93
870.69	19957.46
870.86	19910.35
871.03	19996.37
871.21	19869.39
871.38	19965.65
871.55	19695.32
871.73	19705.56
871.90	19769.04
872.07	19592.92
872.25	19396.31
872.42	19437.27
872.59	19482.33
872.77	19594.96
872.94	19289.82
873.11	19775.19
873.29	19410.65
873.46	19371.74
873.63	19273.43
873.81	19273.43
873.98	19228.38
874.15	19138.27
874.33	18968.29
874.50	18837.22
874.67	19023.58
874.85	18956.00
875.02	18904.80
875.19	18783.97
875.37	18886.37
875.54	18933.47
875.71	18714.34
875.88	18577.12
876.06	18775.78
876.23	18700.00
876.40	18679.52
876.58	18484.97
876.75	18665.19
876.92	18599.65
877.10	18396.90
877.27	18548.45
877.44	18319.08
877.61	18421.48
877.79	18337.51
877.96	18169.58
878.13	18226.92
878.31	17991.41
878.48	18165.48
878.65	18089.71
878.82	17897.20
879.00	18015.98
879.17	18200.30
879.34	18204.39
879.51	17805.04
879.69	17768.18
879.86	17811.18
880.03	17886.96
880.21	17856.24
880.38	17585.91
880.55	17723.12
880.72	17643.25
880.90	17768.18
881.07	17719.03
881.24	17733.36
881.41	17676.02
881.59	17565.43
881.76	17528.56
881.93	17440.50
882.10	17209.08
882.28	17168.12
882.45	17450.74
882.62	17305.34
882.79	17311.48
882.96	17004.28
883.14	17463.03
883.31	17256.18
883.48	17385.21
883.65	17315.58
883.83	17344.25
884.00	17065.72
884.17	16918.27
884.34	17151.74
884.51	17151.74
884.69	17049.34
884.86	17204.99
885.03	16918.27
885.20	16772.86
885.38	16908.03
885.55	16926.46
885.72	16957.18
885.89	17024.76
886.06	17247.99
886.24	16975.61
886.41	16797.44
886.58	17114.87
886.75	16946.94
886.92	16922.37
887.10	16848.64
887.27	16555.78
887.44	16682.75
887.61	16768.77
887.78	16723.71
887.95	16576.26
888.13	16664.32
888.30	16576.26
888.47	16463.62
888.64	16756.48
888.81	16541.44
888.99	16451.33
889.16	16312.07
889.33	16033.55
889.50	16332.55
889.67	16457.48
889.84	16385.80
890.01	16457.48
890.19	16355.08
890.36	16213.77
890.53	16146.19
890.70	16056.08
890.87	16047.88
891.04	16258.82
891.22	16064.27
891.39	15953.68
891.56	15869.71
891.73	16152.33
891.90	15961.87
892.07	15937.29
892.24	15927.05
892.42	15769.36
892.59	15666.96
892.76	15769.36
892.93	15671.06
893.10	16015.12
893.27	15669.01
893.44	15626.00
893.61	15779.60
893.79	15945.48
893.96	15730.45
894.13	15869.71
894.30	15843.09
894.47	15433.49
894.64	16035.60
894.81	15515.41
894.98	15576.85
895.15	15720.21
895.33	15447.83
895.50	15613.71
895.67	16033.55
895.84	15476.50
896.01	15683.34
896.18	15390.49
896.35	15605.52
896.52	15542.03
896.69	15529.75
896.86	15615.76
897.04	15759.12
897.21	15462.16
897.38	15263.51
897.55	15480.60
897.72	15550.23
897.89	15480.60
898.06	15671.06
898.23	15474.45
898.40	15447.83
898.57	15576.85
898.74	15222.55
898.91	15480.60
899.08	15410.96
899.26	15445.78
899.43	15392.53
899.60	15216.41
899.77	15451.92
899.94	15388.44
900.11	15208.22
900.28	15523.60
900.45	15191.83
900.62	15458.07
900.79	15425.30
900.96	15582.99
901.13	15445.78
901.30	15492.88
901.47	15189.78
901.64	15333.14
901.81	14946.08
901.98	15318.81
902.15	15701.78
902.32	15283.99
902.49	15367.96
902.66	15392.53
902.83	15101.72
903.01	15355.67
903.18	15234.84
903.35	15193.88
903.52	15347.48
903.69	15345.43
903.86	15486.74
904.03	15204.12
904.20	15449.88
904.37	15320.85
904.54	15152.92
904.71	15462.16
904.88	15349.53
905.05	15030.04
905.22	15216.41
905.39	15130.39
905.56	14958.36
905.73	15206.17
905.90	15335.19
906.07	15329.05
906.24	15091.48
906.41	15224.60
906.58	15017.75
906.75	15130.39
906.92	15087.39
907.09	15216.41
907.26	15122.20
907.43	14921.50
907.60	14888.73
907.77	15314.71
907.93	15234.84
908.10	15220.50
908.27	15105.82
908.44	14905.12
908.61	15048.47
908.78	15001.37
908.95	15066.91
909.12	15021.85
909.29	15116.06
909.46	14909.21
909.63	15208.22
909.80	15120.15
909.97	14993.18
910.14	14774.05
910.31	14978.84
910.48	15150.87
910.65	14987.04
910.82	14833.44
910.99	14837.53
911.16	14890.78
911.33	14960.41
911.50	14937.88
911.66	14579.49
911.83	15079.19
912.00	14645.02
912.17	14855.97
912.34	14536.48
912.51	14829.34
912.68	14411.56
912.85	14636.83
913.02	14579.49
913.19	14536.48
913.36	14503.71
913.53	14491.43
913.70	14249.77
913.86	14683.94
914.03	14516.00
914.20	14554.91
914.37	14581.54
914.54	14288.68
914.71	14317.35
914.88	14470.95
915.05	14368.55
915.22	14257.96
915.39	14077.74
915.55	14223.14
915.72	14206.76
915.89	14188.33
916.06	13883.18
916.23	14061.35
916.40	14006.06
916.57	14090.02
916.74	14108.46
916.91	14030.63
917.07	13987.63
917.24	13854.51
917.41	13791.02
917.58	13551.41
917.75	13692.72
917.92	13496.11
918.09	13819.69
918.26	13729.58
918.42	13676.34
918.59	13410.10
918.76	13655.86
918.93	13459.25
919.10	13522.74
919.27	13371.19
919.44	13403.96
919.60	13332.28
919.77	13162.30
919.94	13215.54
920.11	13358.90
920.28	13276.98
920.45	13199.16
920.61	12994.36
920.78	13145.91
920.95	12924.73
921.12	12939.07
921.29	13121.34
921.46	12775.23
921.62	12695.36
921.79	12801.85
921.96	12742.46
922.13	12842.81
922.30	12767.04
922.47	12808.00
922.63	12445.51
922.80	12574.53
922.97	12625.73
923.14	12459.84
923.31	12568.38
923.47	12347.20
923.64	12547.90
923.81	12281.67
923.98	12433.22
924.15	12083.02
924.32	12140.36
924.48	12083.02
924.65	12328.77
924.82	12027.72
924.99	11927.37
925.15	11775.82
925.32	11890.51
925.49	11806.54
925.66	11829.07
925.83	11603.79
925.99	11798.35
926.16	11542.35
926.33	11691.85
926.50	11454.29
926.67	11677.52
926.83	11505.49
927.00	11583.31
927.17	11284.31
927.34	11394.90
927.50	11278.16
927.67	11233.11
927.84	11300.69
928.01	11261.78
928.17	10905.43
928.34	11018.07
928.51	11022.17
928.68	11030.36
928.84	10827.61
929.01	10919.77
929.18	10676.06
929.35	10735.45
929.51	10887.00
929.68	10612.57
929.85	10547.04
930.02	10624.86
930.18	10391.39
930.35	10510.18
930.52	10506.08
930.69	10456.93
930.85	10522.46
931.02	10295.14
931.19	10323.81
931.36	10233.70
931.52	10196.84
931.69	10237.80
931.86	10010.47
932.02	10096.49
932.19	10092.39
932.36	10157.92
932.53	10043.24
932.69	9791.34
932.86	9768.81
933.03	10012.52
933.19	9662.32
933.36	9877.35
933.53	9731.95
933.70	9731.95
933.86	9650.03
934.03	9613.17
934.20	9363.31
934.36	9375.60
934.53	9334.64
934.70	9408.37
934.86	9299.83
935.03	9179.00
935.20	9099.13
935.36	9015.16
935.53	8886.14
935.70	8963.96
935.86	9017.21
936.03	8701.82
936.20	8535.93
936.36	8470.40
936.53	8507.26
936.70	8359.81
936.86	8716.16
937.03	8478.59
937.20	8075.14
937.36	8234.88
937.53	7999.37
937.70	8050.57
937.86	7913.35
938.03	7866.25
938.20	8091.52
938.36	7485.33
938.53	7661.45
938.70	7587.72
938.86	7511.95
939.03	7507.85
939.20	7210.90
939.36	7178.13
939.53	7374.74
939.70	7294.86
939.86	6899.61
940.03	6920.09
940.19	6832.02
940.36	6870.94
940.53	6655.90
940.69	6694.81
940.86	6631.32
941.03	6414.24
941.19	6295.46
941.36	6315.94
941.52	6408.09
941.69	6176.67
941.86	6324.13
942.02	6315.94
942.19	6076.32
942.35	6088.61
942.52	5955.49
942.69	5939.11
942.85	5875.62
943.02	6014.88
943.18	5939.11
943.35	5701.54
943.52	5691.31
943.68	5713.83
943.85	5644.20
944.01	5545.90
944.18	5525.42
944.35	5541.80
944.51	5543.85
944.68	5459.88
944.84	5617.58
945.01	5509.04
945.17	5500.84
945.34	5486.51
945.51	5255.09
945.67	5363.63
945.84	5445.55
946.00	5177.26
946.17	5390.25
946.33	5283.76
946.50	5427.12
946.67	5369.77
946.83	5316.53
947.00	5406.64
947.16	5402.54
947.33	5435.31
947.49	5277.62
947.66	5216.18
947.82	5392.30
947.99	5224.37
948.16	5230.51
948.32	5242.80
948.49	5339.05
948.65	5322.67
948.82	5212.08
948.98	5205.94
949.15	5072.82
949.31	5226.42
949.48	5322.67
949.64	5347.25
949.81	5316.53
949.97	5236.66
950.14	5357.49
950.30	5255.09
950.47	5326.77
950.63	5289.90
950.80	5380.01
950.96	5320.62
951.13	5322.67
951.30	5394.35
951.46	5296.05
951.63	5441.45
951.79	5357.49
951.96	5431.21
952.12	5386.16
952.29	5328.81
952.45	5275.57
952.62	5334.96
952.78	5480.36
952.94	5324.72
953.11	5361.58
953.27	5212.08
953.44	5552.04
953.60	5406.64
953.77	5537.71
953.93	5427.12
954.10	5431.21
954.26	5574.57
954.43	5334.96
954.59	5578.67
954.76	5511.08
954.92	5361.58
955.09	5447.60
955.25	5386.16
955.42	5283.76
955.58	5627.82
955.75	5441.45
955.91	5363.63
956.07	5494.70
956.24	5472.17
956.40	5554.09
956.57	5535.66
956.73	5451.69
956.90	5566.38
957.06	5529.52
957.23	5457.84
957.39	5519.28
957.56	5453.74
957.72	5351.34
957.88	5287.86
958.05	5638.06
958.21	5570.48
958.38	5412.78
958.54	5519.28
958.71	5572.52
958.87	5504.94
959.03	5498.80
959.20	5619.63
959.36	5435.31
959.53	5468.08
959.69	5521.32
959.85	5494.70
960.02	5390.25
960.18	5406.64
960.35	5463.98
960.51	5595.05
960.68	5341.10
960.84	5449.64
961.00	5359.53
961.17	5367.73
961.33	5425.07
961.50	5435.31
961.66	5445.55
961.82	5220.27
961.99	5468.08
962.15	5384.11
962.31	5357.49
962.48	5476.27
962.64	5375.92
962.81	5459.88
962.97	5517.23
963.13	5427.12
963.30	5459.88
963.46	5490.60
963.62	5322.67
963.79	5300.14
963.95	5386.16
964.12	5259.18
964.28	5365.68
964.44	5425.07
964.61	5492.65
964.77	5353.39
964.93	5474.22
965.10	5388.21
965.26	5281.71
965.42	5238.70
965.59	5377.97
965.75	5267.38
965.92	5277.62
966.08	5291.95
966.24	5314.48
966.41	5230.51
966.57	5392.30
966.73	5289.90
966.90	5212.08
967.06	5250.99
967.22	5220.27
967.39	5310.38
967.55	5195.70
967.71	5220.27
967.88	5150.64
968.04	5287.86
968.20	5183.41
968.37	5093.30
968.53	5130.16
968.69	5203.89
968.85	5279.66
969.02	5218.22
969.18	5113.78
969.34	4995.00
969.51	5146.55
969.67	5128.11
969.83	5081.01
970.00	5275.57
970.16	5027.76
970.32	5093.30
970.48	5220.27
970.65	5121.97
970.81	4947.89
970.97	5054.39
971.14	5076.91
971.30	5236.66
971.46	4986.80
971.63	5021.62
971.79	5033.91
971.95	5072.82
972.11	4923.32
972.28	5003.19
972.44	5015.48
972.60	4921.27
972.76	4906.93
972.93	4849.59
973.09	4906.93
973.25	5003.19
973.42	4835.25
973.58	4999.09
973.74	5048.24
973.90	4853.69
974.07	4833.21
974.23	4949.94
974.39	4784.06
974.55	4792.25
974.72	4765.62
974.88	4687.80
975.04	4829.11
975.20	4788.15
975.37	4827.06
975.53	4808.63
975.69	4779.96
975.85	4831.16
976.01	4710.33
976.18	4833.21
976.34	4761.53
976.50	4839.35
976.66	4872.12
976.83	4732.86
976.99	4632.51
977.15	4538.30
977.31	4581.31
977.47	4579.26
977.64	4691.90
977.80	4730.81
977.96	4554.68
978.12	4677.56
978.29	4542.39
978.45	4521.92
978.61	4534.20
978.77	4599.74
978.93	4442.04
979.10	4450.24
979.26	4569.02
979.42	4489.15
979.58	4460.48
979.74	4382.65
979.91	4548.54
980.07	4358.08
980.23	4448.19
980.39	4396.99
980.55	4399.04
980.71	4423.61
980.88	4345.79
981.04	4478.91
981.20	4411.32
981.36	4345.79
981.52	4384.70
981.68	4401.08
981.85	4417.47
982.01	4366.27
982.17	4351.93
982.33	4425.66
982.49	4423.61
982.65	4284.35
982.82	4259.78
982.98	4237.25
983.14	4208.58
983.30	4323.26
983.46	4306.88
983.62	4237.25
983.79	4237.25
983.95	4130.75
984.11	4118.47
984.27	4233.15
984.43	4204.48
984.59	4184.00
984.75	4214.72
984.91	4370.37
985.08	4220.86
985.24	4079.55
985.40	4100.03
985.56	4222.91
985.72	4184.00
985.88	4200.38
986.04	4001.73
986.20	4048.83
986.37	4138.94
986.53	3893.19
986.69	4134.85
986.85	4028.35
987.01	4009.92
987.17	4089.79
987.33	4044.74
987.49	3942.34
987.65	4020.16
987.82	4001.73
987.98	3919.81
988.14	3989.44
988.30	4085.70
988.46	4081.60
988.62	3915.72
988.78	4020.16
988.94	3925.96
989.10	3768.26
989.26	3809.22
989.42	3819.46
989.59	3655.62
989.75	3889.09
989.91	3942.34
990.07	3721.16
990.23	3852.23
990.39	3801.03
990.55	3837.89
990.71	3792.84
990.87	3862.47
991.03	3672.01
991.19	3788.74
991.35	3702.73
991.51	3846.09
991.67	3934.15
991.83	3739.59
992.00	3708.87
992.16	3702.73
992.32	3731.40
992.48	3721.16
992.64	3557.32
992.80	3850.18
992.96	3737.54
993.12	3739.59
993.28	3766.21
993.44	3626.95
993.60	3712.97
993.76	3600.33
993.92	3657.67
994.08	3608.52
994.24	3680.20
994.40	3653.58
994.56	3622.86
994.72	3606.47
994.88	3575.75
995.04	3657.67
995.20	3612.62
995.36	3588.04
995.52	3598.28
995.68	3565.51
995.84	3413.96
996.00	3588.04
996.16	3571.66
996.32	3526.60
996.48	3502.03
996.64	3633.10
996.80	3448.78
996.96	3438.54
997.12	3436.49
997.28	3397.58
997.44	3401.68
997.60	3409.87
997.76	3348.43
997.92	3508.17
998.08	3411.92
998.24	3379.15
998.40	3407.82
998.56	3409.87
998.72	3344.33
998.88	3252.17
999.04	3317.71
999.20	3411.92
999.36	3272.65
999.52	3452.88
999.68	3268.56
999.84	3383.24
1000.00	3409.87
1000.16	3272.65
1000.32	3239.89
1000.48	3330.00
1000.64	3182.54
1000.80	3264.46
1000.95	3203.02
1001.11	3129.30
1001.27	3149.78
1001.43	3340.24
1001.59	3252.17
1001.75	3235.79
1001.91	3211.22
1002.07	3121.10
1002.23	3106.77
1002.39	3215.31
1002.55	3190.74
1002.71	3172.30
1002.87	3084.24
1003.03	3082.19
1003.19	3035.09
1003.34	3207.12
1003.50	3102.67
1003.66	3174.35
1003.82	3076.05
1003.98	3006.42
1004.14	3074.00
1004.30	2992.08
1004.46	2940.88
1004.62	3053.52
1004.78	2928.60
1004.94	3033.04
1005.09	3071.95
1005.25	3000.27
1005.41	3045.33
1005.57	2990.03
1005.73	2983.89
1005.89	3026.90
1006.05	3018.71
1006.21	2947.03
1006.37	2965.46
1006.52	2987.99
1006.68	2926.55
1006.84	3020.75
1007.00	2879.44
1007.16	3008.47
1007.32	2879.44
1007.48	2983.89
1007.64	2879.44
1007.79	2865.11
1007.95	2934.74
1008.11	2992.08
1008.27	2822.10
1008.43	2863.06
1008.59	2863.06
1008.75	2869.20
1008.91	2822.10
1009.06	2912.21
1009.22	2904.02
1009.38	2887.64
1009.54	2871.25
1009.70	2838.48
1009.86	2770.90
1010.01	2820.05
1010.17	2691.03
1010.33	2863.06
1010.49	2791.38
1010.65	2875.35
1010.81	2715.61
1010.96	2826.20
1011.12	2658.26
1011.28	2709.46
1011.44	2772.95
1011.60	2727.89
1011.76	2641.88
1011.91	2723.80
1012.07	2539.48
1012.23	2637.78
1012.39	2605.02
1012.55	2686.94
1012.71	2598.87
1012.86	2670.55
1013.02	2703.32
1013.18	2623.45
1013.34	2598.87
1013.50	2764.76
1013.65	2645.98
1013.81	2533.34
1013.97	2639.83
1014.13	2656.22
1014.29	2615.26
1014.44	2596.82
1014.60	2537.43
1014.76	2605.02
1014.92	2529.24
1015.07	2615.26
1015.23	2543.58
1015.39	2598.87
1015.55	2486.23
1015.71	2523.10
1015.86	2523.10
1016.02	2537.43
1016.18	2502.62
1016.34	2568.15
1016.49	2541.53
1016.65	2531.29
1016.81	2443.23
1016.97	2498.52
1017.12	2549.72
1017.28	2512.86
1017.44	2404.32
1017.60	2539.48
1017.75	2514.91
1017.91	2508.76
1018.07	2437.08
1018.23	2418.65
1018.38	2457.56
1018.54	2449.37
1018.70	2494.43
1018.86	2447.32
1019.01	2437.08
1019.17	2426.84
1019.33	2516.95
1019.49	2418.65
1019.64	2379.74
1019.80	2369.50
1019.96	2543.58
1020.12	2363.36
1020.27	2314.20
1020.43	2353.12
1020.59	2363.36
1020.74	2338.78
1020.90	2453.47
1021.06	2312.16
1021.22	2428.89
1021.37	2316.25
1021.53	2275.29
1021.69	2353.12
1021.84	2201.57
1022.00	2336.73
1022.16	2297.82
1022.31	2353.12
1022.47	2351.07
1022.63	2385.88
1022.79	2207.71
1022.94	2250.72
1023.10	2332.64
1023.26	2287.58
1023.41	2248.67
1023.57	2199.52
1023.73	2281.44
1023.88	2293.72
1024.04	2193.37
1024.20	2291.68
1024.35	2289.63
1024.51	2306.01
1024.67	2314.20
1024.82	2295.77
1024.98	2170.85
1025.14	2244.57
1025.29	2238.43
1025.45	2162.66
1025.61	2156.51
1025.76	2224.09
1025.92	2168.80
1026.08	2187.23
1026.23	2263.01
1026.39	2277.34
1026.55	2179.04
1026.70	2115.55
1026.86	2144.22
1027.02	2183.13
1027.17	2158.56
1027.33	2189.28
1027.48	2146.27
1027.64	2170.85
1027.80	2183.13
1027.95	2179.04
1028.11	2068.45
1028.27	2156.51
1028.42	2166.75
1028.58	2142.18
1028.73	2082.78
1028.89	2138.08
1029.05	2279.39
1029.20	2187.23
>>>>>End Processed Spectral Data<<<<<
