SpectraSuite Data File
++++++++++++++++++++++++++++++++++++
Date: Fri Jun 02 14:53:33 CEST 2017
User: INFO_000
Dark Spectrum Present: No
Reference Spectrum Present: No
Number of Sampled Component Spectra: 1
Spectrometers: USB4H00879
Integration Time (usec): 80000 (USB4H00879)
Spectra Averaged: 1 (USB4H00879)
Boxcar Smoothing: 0 (USB4H00879)
Correct for Electrical Dark: No (USB4H00879)
Strobe/Lamp Enabled: No (USB4H00879)
Correct for Detector Non-linearity: No (USB4H00879)
Correct for Stray Light: No (USB4H00879)
Number of Pixels in Processed Spectrum: 3648
>>>>>Begin Processed Spectral Data<<<<<
345.13	1314.80
345.34	1314.80
345.56	1314.80
345.78	1279.98
345.99	1304.56
346.21	1720.29
346.42	1740.77
346.64	1652.71
346.86	1757.16
347.07	1673.19
347.29	1730.53
347.50	1591.27
347.72	1724.39
347.94	1726.44
348.15	1574.89
348.37	1667.05
348.59	1689.57
348.80	1662.95
349.02	1744.87
349.23	1929.19
349.45	1865.70
349.67	1839.08
349.88	1861.60
350.10	2023.39
350.31	1755.11
350.53	1769.44
350.75	2035.68
350.96	1806.31
351.18	1898.47
351.39	1916.90
351.61	1763.30
351.82	1886.18
352.04	1871.84
352.26	1814.50
352.47	1908.71
352.69	1951.71
352.90	1800.16
353.12	1796.07
353.34	1812.45
353.55	1947.62
353.77	1898.47
353.98	1865.70
354.20	1867.75
354.41	1851.36
354.63	1945.57
354.85	2002.91
355.06	1863.65
355.28	1787.88
355.49	1826.79
355.71	1894.37
355.92	1791.97
356.14	1920.99
356.35	1896.42
356.57	1847.27
356.79	1912.80
357.00	1859.56
357.22	1959.91
357.43	1787.88
357.65	1935.33
357.86	1912.80
358.08	1884.13
358.29	1900.52
358.51	1935.33
358.72	2056.16
358.94	1896.42
359.16	1896.42
359.37	2011.11
359.59	1894.37
359.80	1998.82
360.02	2015.20
360.23	1906.66
360.45	1976.29
360.66	2031.58
360.88	1931.23
361.09	1898.47
361.31	2041.82
361.52	1976.29
361.74	2043.87
361.95	2078.69
362.17	1980.39
362.38	2072.54
362.60	1990.63
362.81	1972.19
363.03	1937.38
363.24	1998.82
363.46	2047.97
363.67	2007.01
363.89	2023.39
364.10	2072.54
364.32	1916.90
364.53	1951.71
364.75	1953.76
364.96	1984.48
365.18	2062.30
365.39	1998.82
365.61	1968.10
365.82	2142.18
366.04	1998.82
366.25	2033.63
366.47	2023.39
366.68	2029.54
366.90	1953.76
367.11	2097.12
367.33	2140.13
367.54	1984.48
367.76	2058.21
367.97	2097.12
368.19	2050.02
368.40	2107.36
368.62	1994.72
368.83	1986.53
369.05	2072.54
369.26	2015.20
369.48	2011.11
369.69	2086.88
369.91	2127.84
370.12	1957.86
370.33	2179.04
370.55	1892.32
370.76	2099.17
370.98	2168.80
371.19	2009.06
371.41	2070.50
371.62	2088.93
371.84	2050.02
372.05	2117.60
372.27	2076.64
372.48	2099.17
372.69	2103.26
372.91	2191.33
373.12	2232.29
373.34	2140.13
373.55	2197.47
373.77	2127.84
373.98	2095.07
374.20	2195.42
374.41	2205.66
374.62	2037.73
374.84	2172.89
375.05	2133.98
375.27	2185.18
375.48	2228.19
375.70	2117.60
375.91	2234.33
376.12	2263.01
376.34	2174.94
376.55	2086.88
376.77	2197.47
376.98	2150.37
377.19	2107.36
377.41	2123.74
377.62	2172.89
377.84	2328.54
378.05	2369.50
378.27	2217.95
378.48	2379.74
378.69	2369.50
378.91	2359.26
379.12	2240.48
379.34	2193.37
379.55	2314.20
379.76	2244.57
379.98	2232.29
380.19	2211.81
380.41	2269.15
380.62	2303.96
380.83	2293.72
381.05	2172.89
381.26	2373.60
381.47	2172.89
381.69	2191.33
381.90	2426.84
382.12	2355.16
382.33	2310.11
382.54	2381.79
382.76	2287.58
382.97	2306.01
383.19	2332.64
383.40	2392.03
383.61	2340.83
383.83	2209.76
384.04	2273.25
384.25	2365.40
384.47	2396.12
384.68	2392.03
384.89	2295.77
385.11	2330.59
385.32	2349.02
385.54	2459.61
385.75	2332.64
385.96	2435.03
386.18	2361.31
386.39	2432.99
386.60	2396.12
386.82	2420.70
387.03	2441.18
387.24	2510.81
387.46	2467.80
387.67	2473.95
387.88	2482.14
388.10	2437.08
388.31	2406.36
388.52	2545.63
388.74	2529.24
388.95	2498.52
389.16	2502.62
389.38	2392.03
389.59	2641.88
389.80	2576.34
390.02	2627.54
390.23	2629.59
390.44	2568.15
390.66	2555.86
390.87	2484.19
391.08	2629.59
391.30	2650.07
391.51	2670.55
391.72	2631.64
391.94	2580.44
392.15	2719.70
392.36	2576.34
392.58	2639.83
392.79	2613.21
393.00	2686.94
393.22	2682.84
393.43	2688.98
393.64	2736.09
393.85	2699.22
394.07	2705.37
394.28	2633.69
394.49	2807.77
394.71	2787.29
394.92	2818.00
395.13	2772.95
395.35	2781.14
395.56	2861.01
395.77	2777.05
395.98	2865.11
396.20	2863.06
396.41	2828.24
396.62	2963.41
396.84	2840.53
397.05	2789.33
397.26	2934.74
397.47	2975.70
397.69	2834.39
397.90	3028.95
398.11	2975.70
398.32	3006.42
398.54	2944.98
398.75	2977.75
398.96	2942.93
399.18	3063.76
399.39	3053.52
399.60	3063.76
399.81	3014.61
400.03	2998.23
400.24	3200.98
400.45	3045.33
400.66	3123.15
400.88	3096.53
401.09	3141.58
401.30	3112.91
401.51	3139.54
401.73	3166.16
401.94	3135.44
402.15	3145.68
402.36	3145.68
402.58	3282.89
402.79	3330.00
403.00	3282.89
403.21	3192.78
403.43	3237.84
403.64	3243.98
403.85	3082.19
404.06	3207.12
404.27	3186.64
404.49	3235.79
404.70	3137.49
404.91	3295.18
405.12	3289.04
405.34	3276.75
405.55	3448.78
405.76	3215.31
405.97	3270.61
406.19	3391.44
406.40	3309.52
406.61	3403.72
406.82	3342.28
407.03	3299.28
407.25	3383.24
407.46	3469.26
407.67	3463.12
407.88	3483.59
408.09	3377.10
408.31	3395.53
408.52	3559.37
408.73	3428.30
408.94	3407.82
409.15	3469.26
409.37	3657.67
409.58	3485.64
409.79	3547.08
410.00	3592.14
410.21	3594.19
410.43	3387.34
410.64	3452.88
410.85	3614.66
411.06	3624.90
411.27	3569.61
411.48	3614.66
411.70	3534.79
411.91	3655.62
412.12	3792.84
412.33	3717.06
412.54	3561.42
412.76	3813.32
412.97	3813.32
413.18	3538.89
413.39	3766.21
413.60	3710.92
413.81	3682.25
414.03	3674.06
414.24	3710.92
414.45	3901.38
414.66	3633.10
414.87	3837.89
415.08	3708.87
415.30	3774.41
415.51	3876.80
415.72	3907.52
415.93	3733.45
416.14	3864.52
416.35	3882.95
416.56	3784.65
416.78	3858.37
416.99	3758.02
417.20	3919.81
417.41	3911.62
417.62	3942.34
417.83	4034.50
418.04	3885.00
418.26	3831.75
418.47	3891.14
418.68	4009.92
418.89	4001.73
419.10	4050.88
419.31	4001.73
419.52	4016.07
419.73	4046.79
419.95	4124.61
420.16	3909.57
420.37	4075.46
420.58	4147.14
420.79	3909.57
421.00	4118.47
421.21	4149.18
421.42	4067.27
421.63	4255.68
421.85	4145.09
422.06	4204.48
422.27	4140.99
422.48	4071.36
422.69	4335.55
422.90	4282.30
423.11	4249.54
423.32	4290.49
423.53	4390.84
423.75	4206.53
423.96	4618.17
424.17	4411.32
424.38	4626.36
424.59	4335.55
424.80	4542.39
425.01	4409.28
425.22	4378.56
425.43	4462.52
425.64	4722.62
425.85	4710.33
426.06	4521.92
426.28	4579.26
426.49	4521.92
426.70	4542.39
426.91	4614.07
427.12	4736.95
427.33	4745.14
427.54	4644.79
427.75	4562.87
427.96	4915.12
428.17	4704.18
428.38	4816.82
428.59	4808.63
428.80	4792.25
429.01	4870.07
429.23	4847.54
429.44	4886.45
429.65	4853.69
429.86	4933.56
430.07	4730.81
430.28	4786.10
430.49	5060.53
430.70	4999.09
430.91	5015.48
431.12	4966.32
431.33	5167.03
431.54	5218.22
431.75	5081.01
431.96	4982.71
432.17	5062.58
432.38	5214.13
432.59	5367.73
432.80	5240.75
433.01	5410.73
433.22	5343.15
433.43	5455.79
433.64	5326.77
433.85	5255.09
434.06	5466.03
434.27	5181.36
434.49	5197.74
434.70	5474.22
434.91	5431.21
435.12	5455.79
435.33	5406.64
435.54	5529.52
435.75	5345.20
435.96	5566.38
436.17	5367.73
436.38	5562.28
436.59	5640.11
436.80	5574.57
437.01	5908.39
437.22	5736.36
437.43	5666.73
437.64	5488.56
437.85	5828.52
438.06	5736.36
438.27	5685.16
438.48	5744.55
438.69	5853.09
438.90	5758.89
439.11	5672.87
439.32	5844.90
439.53	5945.25
439.74	5785.51
439.95	5877.67
440.16	5867.43
440.37	5801.90
440.57	5826.47
440.78	6053.80
440.99	5963.68
441.20	6133.67
441.41	5650.35
441.62	6043.56
441.83	5855.14
442.04	6246.30
442.25	6152.10
442.46	5955.49
442.67	6240.16
442.88	6651.80
443.09	6246.30
443.30	6227.87
443.51	6406.05
443.72	6440.86
443.93	6197.15
444.14	6395.81
444.35	6131.62
444.56	6555.55
444.77	6453.15
444.98	6471.58
445.19	6426.53
445.40	6434.72
445.61	6508.44
445.81	6520.73
446.02	6631.32
446.23	6520.73
446.44	6356.90
446.65	6522.78
446.86	6557.60
447.07	6651.80
447.28	6901.65
447.49	6834.07
447.70	6586.27
447.91	6641.56
448.12	6733.72
448.33	6922.13
448.54	6838.17
448.74	6764.44
448.95	6834.07
449.16	6762.39
449.37	7098.26
449.58	6907.80
449.79	7094.16
450.00	6836.12
450.21	7137.17
450.42	7391.12
450.63	7176.08
450.84	7077.78
451.05	6989.72
451.25	7305.10
451.46	7063.44
451.67	7374.74
451.88	7415.69
452.09	7358.35
452.30	7155.60
452.51	7194.51
452.72	7264.15
452.93	7749.51
453.13	7323.54
453.34	7276.43
453.55	7497.61
453.76	7438.22
453.97	7726.99
454.18	7688.07
454.39	7718.79
454.60	7651.21
454.81	7731.08
455.01	7778.19
455.22	7507.85
455.43	7804.81
455.64	8066.95
455.85	7997.32
456.06	8105.86
456.27	8011.65
456.48	8009.61
456.68	7942.02
456.89	8050.57
457.10	8130.44
457.31	8109.96
457.52	8161.16
457.73	8277.89
457.94	8515.45
458.14	8097.67
458.35	8509.31
458.56	8456.06
458.77	8279.94
458.98	8406.91
459.19	8400.77
459.39	8644.48
459.60	8677.24
459.81	8599.42
460.02	8695.68
460.23	8630.14
460.44	8800.12
460.65	8804.22
460.85	8812.41
461.06	9045.88
461.27	8675.20
461.48	9234.29
461.69	8978.30
461.89	8955.77
462.10	9232.24
462.31	8933.24
462.52	8912.76
462.73	9039.73
462.94	9312.11
463.14	9174.90
463.35	9248.63
463.56	9705.32
463.77	9502.58
463.98	9414.51
464.18	9297.78
464.39	9510.77
464.60	9815.91
464.81	9551.73
465.02	9662.32
465.23	9942.89
465.43	9756.52
465.64	10170.21
465.85	9850.73
466.06	9711.47
466.27	10104.68
466.47	10194.79
466.68	10180.45
466.89	10219.36
467.10	10270.56
467.30	10006.38
467.51	10348.39
467.72	10440.54
467.93	10202.98
468.14	10325.86
468.34	10547.04
468.55	10633.05
468.76	10510.18
468.97	10444.64
469.17	10688.35
469.38	11034.46
469.59	11163.48
469.80	10862.43
470.01	11083.61
470.21	11093.85
470.42	11186.01
470.63	11204.44
470.84	11069.27
471.04	11372.37
471.25	11335.51
471.46	11372.37
471.67	11628.37
471.87	11525.97
472.08	11702.09
472.29	11710.29
472.50	11341.65
472.70	11659.09
472.91	11910.99
473.12	11939.66
473.33	12031.82
473.53	11956.04
473.74	12074.82
473.95	12425.03
474.16	12332.87
474.36	12238.66
474.57	12566.34
474.78	12732.22
474.99	12496.71
475.19	12558.14
475.40	13088.57
475.61	12930.87
475.81	13076.28
476.02	13246.26
476.23	13074.23
476.44	13164.34
476.64	13442.87
476.85	13350.71
477.06	13209.40
477.27	13612.85
477.47	13743.92
477.68	13653.81
477.89	13813.55
478.09	13934.38
478.30	13934.38
478.51	13977.39
478.71	14370.60
478.92	14300.97
479.13	14407.46
479.34	14331.69
479.54	14544.67
479.75	14585.63
479.96	14645.02
480.16	14731.04
480.37	14737.18
480.58	14892.83
480.78	15195.93
480.99	15351.57
481.20	15226.65
481.41	15267.61
481.61	15453.97
481.82	15343.38
482.03	15517.46
482.23	15773.46
482.44	15830.80
482.65	15931.15
482.85	16092.94
483.06	15884.05
483.27	16082.70
483.47	16203.53
483.68	16133.90
483.89	16307.98
484.09	16369.41
484.30	16342.79
484.51	16762.62
484.71	16834.30
484.92	16926.46
485.13	17004.28
485.33	17104.64
485.54	17086.20
485.75	17180.41
485.95	17424.12
486.16	17553.14
486.37	17374.97
486.57	17346.30
486.78	17559.28
486.98	17645.30
487.19	17633.01
487.40	18114.28
487.60	17909.49
487.81	17952.49
488.02	18312.94
488.22	18417.38
488.43	18460.39
488.64	18357.99
488.84	18484.97
489.05	18644.71
489.25	18654.95
489.46	19046.11
489.67	18657.00
489.87	19125.98
490.08	19046.11
490.29	19205.85
490.49	19373.78
490.70	19334.87
490.90	19664.60
491.11	19230.43
491.32	19470.04
491.52	19558.10
491.73	19687.12
491.94	19885.78
492.14	19820.24
492.35	20080.33
492.55	20068.05
492.76	20197.07
492.97	20532.93
493.17	20504.26
493.38	20604.61
493.58	20758.21
493.79	20657.86
494.00	20717.25
494.20	21028.54
494.41	20948.67
494.61	21157.57
494.82	21317.31
495.02	21184.19
495.23	21382.84
495.44	21460.66
495.64	21518.01
495.85	21456.57
496.05	21831.35
496.26	21563.06
496.47	22206.13
496.67	21917.36
496.88	22128.30
497.08	21890.74
497.29	22228.65
497.49	22277.80
497.70	22380.20
497.91	22654.63
498.11	22603.43
498.32	22474.41
498.52	22587.05
498.73	23107.23
498.93	23078.56
499.14	23258.78
499.34	23252.64
499.55	23361.18
499.76	23154.33
499.96	23287.45
500.17	23312.03
500.37	23256.73
500.58	23383.71
500.78	23572.12
500.99	23430.81
501.19	23973.52
501.40	23852.69
501.60	23504.54
501.81	23977.62
502.02	24024.72
502.22	23852.69
502.43	24186.51
502.63	24419.98
502.84	24305.29
503.04	24475.27
503.25	24489.61
503.45	24731.27
503.66	24942.21
503.86	24768.13
504.07	25185.92
504.27	24893.06
504.48	25370.24
504.68	25351.81
504.89	25022.08
505.09	25378.43
505.30	24931.97
505.50	25491.07
505.71	25405.05
505.91	25656.95
506.12	25579.13
506.32	25489.02
506.53	25771.64
506.73	25552.51
506.94	25970.29
507.14	26003.06
507.35	25994.87
507.55	26109.55
507.76	26158.70
507.96	25810.55
508.17	26056.31
508.37	26388.08
508.58	26199.66
508.78	26332.78
508.99	26482.28
509.19	26603.11
509.40	26566.25
509.60	26756.71
509.81	26779.24
510.01	26588.78
510.22	26906.21
510.42	26914.41
510.63	27170.40
510.83	26805.86
511.04	27020.90
511.24	26961.51
511.44	27262.56
511.65	27504.22
511.85	27268.70
512.06	27295.33
512.26	27270.75
512.47	27606.62
512.67	27788.89
512.88	27774.55
513.08	27709.02
513.29	27655.77
513.49	27743.83
513.69	27694.68
513.90	27846.23
514.10	27911.77
514.31	27879.00
514.51	27883.09
514.72	28243.54
514.92	28161.62
515.13	28014.16
515.33	28165.71
515.53	28319.31
515.74	28581.45
515.94	28399.18
516.15	28413.52
516.35	28501.58
516.56	28776.01
516.76	28573.26
516.96	28687.95
517.17	29175.36
517.37	28722.76
517.58	28849.74
517.78	29042.24
517.99	29132.36
518.19	29335.10
518.39	29263.43
518.60	29431.36
518.80	28952.13
519.01	29365.82
519.21	29316.67
519.41	29756.99
519.62	29214.27
519.82	29605.44
520.03	29562.43
520.23	29836.86
520.43	29795.90
520.64	29886.01
520.84	30010.93
521.05	30189.11
521.25	30146.10
521.45	30246.45
521.66	30506.54
521.86	30291.51
522.07	30166.58
522.27	30713.39
522.47	29984.31
522.68	30666.28
522.88	30637.61
523.08	30889.51
523.29	30963.24
523.49	30821.93
523.70	30877.22
523.90	30955.05
524.10	30600.75
524.31	31327.78
524.51	30989.86
524.71	31479.33
524.92	31223.33
525.12	31788.57
525.33	31499.81
525.53	31372.83
525.73	31804.95
525.94	31956.50
526.14	31884.83
526.34	31999.51
526.55	31907.35
526.75	32179.73
526.95	32351.76
527.16	32030.23
527.36	31929.88
527.56	32318.99
527.77	32583.18
527.97	32267.80
528.17	32357.91
528.38	32810.51
528.58	32558.61
528.78	32525.84
528.99	32876.04
529.19	33297.92
529.39	32628.24
529.60	33342.98
529.80	33019.40
530.00	32988.68
530.21	33760.76
530.41	33267.20
530.61	32994.82
530.82	33254.92
531.02	33508.86
531.22	33590.78
531.43	33504.77
531.63	33842.68
531.83	33758.72
532.04	34450.93
532.24	34123.26
532.44	34203.13
532.64	34471.41
532.85	34313.72
533.05	34553.33
533.25	34690.54
533.46	34618.86
533.66	34729.45
533.86	34741.74
534.07	35046.89
534.27	34622.96
534.47	35409.38
534.67	35130.86
534.88	35331.56
535.08	35288.55
535.28	35577.31
535.49	35685.86
535.69	35608.03
535.89	35792.35
536.09	35681.76
536.30	35644.90
536.50	36122.07
536.70	36142.55
536.91	35917.28
537.11	35984.86
537.31	36134.36
537.51	36265.43
537.72	36253.14
537.92	36361.69
538.12	36613.59
538.32	36140.50
538.53	36734.42
538.73	36267.48
538.93	36621.78
539.13	37037.51
539.34	36875.73
539.54	36853.20
539.74	37098.95
539.94	37164.49
540.15	37002.70
540.35	37268.94
540.55	37225.93
540.75	37445.06
540.96	37383.62
541.16	37819.84
541.36	37631.43
541.56	37565.89
541.77	38081.98
541.97	37600.71
542.17	37952.96
542.37	37729.73
542.58	38329.78
542.78	37993.92
542.98	37756.35
543.18	38284.73
543.38	38600.12
543.59	38522.29
543.79	38413.75
543.99	38104.51
544.19	38839.73
544.40	38407.61
544.60	38981.04
544.80	38505.91
545.00	39015.85
545.20	38884.78
545.41	38610.35
545.61	38942.13
545.81	39048.62
546.01	38935.98
546.21	38809.01
546.42	38735.28
546.62	39437.73
546.82	39359.91
547.02	39095.72
547.22	39533.99
547.43	39546.28
547.63	39437.73
547.83	39488.93
548.03	38876.59
548.23	39714.21
548.44	39331.24
548.64	39781.79
548.84	39466.41
549.04	39859.62
549.24	39947.68
549.45	40287.64
549.65	39622.05
549.85	40240.54
550.05	40025.50
550.25	40066.46
550.45	40938.90
550.66	40482.20
550.86	40387.99
551.06	40404.38
551.26	40197.53
551.46	40301.98
551.66	40420.76
551.87	40156.57
552.07	40574.36
552.27	40617.36
552.47	40517.01
552.67	40916.37
552.87	41108.88
553.07	41057.68
553.28	40924.56
553.48	40957.33
553.68	40957.33
553.88	40994.19
554.08	41063.82
554.28	40891.79
554.48	40881.55
554.69	41446.79
554.89	41373.06
555.09	41401.74
555.29	40967.57
555.49	41631.11
555.69	41364.87
555.89	41416.07
556.10	41502.09
556.30	41328.01
556.50	41874.82
556.70	41870.72
556.90	41979.26
557.10	42096.00
557.30	41584.01
557.50	42378.62
557.70	41885.06
557.91	42075.52
558.11	41981.31
558.31	42399.10
558.51	41995.65
558.71	42046.85
558.91	42657.14
559.11	42083.71
559.31	42292.60
559.51	42012.03
559.72	42530.17
559.92	42360.19
560.12	42288.51
560.32	42681.72
560.52	42628.47
560.72	42567.03
560.92	42640.76
561.12	42872.18
561.32	42800.50
561.52	42452.34
561.72	43345.26
561.93	42509.69
562.13	42927.47
562.33	42823.03
562.53	43130.22
562.73	43060.59
562.93	43079.02
563.13	43335.02
563.33	42966.38
563.53	43588.97
563.73	43373.93
563.93	42915.19
564.13	43902.31
564.33	43212.14
564.53	43277.68
564.74	43513.19
564.94	43562.34
565.14	43435.37
565.34	43599.21
565.54	43410.79
565.74	43756.90
565.94	44168.54
566.14	43543.91
566.34	43668.84
566.54	44375.39
566.74	44012.90
566.94	44078.43
567.14	43935.07
567.34	43674.98
567.54	44049.76
567.74	43916.64
567.94	44242.27
568.14	44610.90
568.34	44680.53
568.54	44053.86
568.74	44352.86
568.94	44567.90
569.14	44852.56
569.34	44940.63
569.54	44709.21
569.75	43973.98
569.95	44563.80
570.15	45196.62
570.35	44827.99
570.55	44598.62
570.75	44717.40
570.95	44586.33
571.15	45221.20
571.35	45081.94
571.55	45452.62
571.75	45225.29
571.95	45167.95
572.15	45131.09
572.35	45192.53
572.55	45370.70
572.75	45309.26
572.95	45823.30
573.15	45978.95
573.35	45538.63
573.55	45370.70
573.75	45507.91
573.95	45847.88
574.15	45546.82
574.35	45782.34
574.55	45733.19
574.75	45839.68
574.95	46122.30
575.15	45921.60
575.34	46538.04
575.54	46611.77
575.74	46337.34
575.94	46351.68
576.14	46277.95
576.34	46847.29
576.54	46740.79
576.74	46830.90
576.94	46372.16
577.14	46759.22
577.34	47406.38
577.54	46380.35
577.74	47306.03
577.94	46714.17
578.14	47248.69
578.34	46990.64
578.54	46611.77
578.74	47209.78
578.94	47385.90
579.14	46982.45
579.34	47396.14
579.54	47123.76
579.74	47777.06
579.94	47576.36
580.13	47803.69
580.33	47541.55
580.53	47658.28
580.73	47838.50
580.93	48028.96
581.13	47678.76
581.33	47930.66
581.53	48516.38
581.73	48334.11
581.93	48381.21
582.13	48289.06
582.33	48446.75
582.53	48166.18
582.73	48354.59
582.92	48379.17
583.12	48936.21
583.32	48608.54
583.52	48563.48
583.72	48684.31
583.92	48868.63
584.12	49186.07
584.32	49483.02
584.52	48674.07
584.72	49075.48
584.92	49263.89
585.11	49388.81
585.31	49251.60
585.51	49265.94
585.71	49526.03
585.91	49306.90
586.11	48921.88
586.31	49333.52
586.51	49231.12
586.71	49431.82
586.91	49736.97
587.10	49812.74
587.30	49679.63
587.50	49902.85
587.70	49874.18
587.90	49747.21
588.10	50195.71
588.30	50476.29
588.50	50400.51
588.69	50044.16
588.89	49849.61
589.09	50296.06
589.29	50728.19
589.49	50672.89
589.69	49831.18
589.89	50580.73
590.08	50527.48
590.28	50210.05
590.48	50558.20
590.68	50449.66
590.88	50640.12
591.08	50507.01
591.28	50271.49
591.47	51246.32
591.67	50636.03
591.87	50765.05
592.07	50801.91
592.27	50926.84
592.47	51164.40
592.67	51336.43
592.86	51111.16
593.06	51522.80
593.26	51084.53
593.46	51518.70
593.66	51201.27
593.86	51717.35
594.05	51438.83
594.25	52075.75
594.45	51516.65
594.65	51588.33
594.85	51334.38
595.05	51936.49
595.24	51631.34
595.44	51973.35
595.64	52010.21
595.84	52198.63
596.04	51852.52
596.23	52024.55
596.43	51606.76
596.63	52376.80
596.83	51881.19
597.03	52192.48
597.22	52606.17
597.42	52186.34
597.62	52145.38
597.82	52188.39
598.02	52167.91
598.21	52628.70
598.41	52270.31
598.61	52688.09
598.81	52473.06
599.01	52907.22
599.20	52577.50
599.40	52819.16
599.60	52913.37
599.80	52919.51
600.00	52507.87
600.19	52847.83
600.39	53134.55
600.59	53378.26
600.79	53169.36
600.98	52589.79
601.18	53228.76
601.38	53714.12
601.58	53468.37
601.78	53439.70
601.97	53130.45
602.17	53671.12
602.37	53193.94
602.57	53494.99
602.76	53705.93
602.96	53716.17
603.16	54195.40
603.36	53513.42
603.55	53957.83
603.75	53675.21
603.95	53927.11
604.15	53978.31
604.34	53867.72
604.54	54113.48
604.74	54060.23
604.94	54316.23
605.13	54381.76
605.33	53753.04
605.53	54322.37
605.73	54125.77
605.92	54121.67
606.12	54506.69
606.32	54582.46
606.52	54867.13
606.71	54443.20
606.91	54811.84
607.11	54564.03
607.30	54508.74
607.50	54584.51
607.70	54897.85
607.90	54525.12
608.09	54842.56
608.29	54897.85
608.49	55254.20
608.68	55223.48
608.88	54830.27
609.08	54766.78
609.28	55213.24
609.47	54897.85
609.67	55698.61
609.87	55053.50
610.06	55002.30
610.26	54795.45
610.46	55329.97
610.66	55276.72
610.85	55362.74
611.05	54920.38
611.25	54811.84
611.44	54652.09
611.64	55397.55
611.84	55137.46
612.03	54850.75
612.23	55334.07
612.43	55295.16
612.62	55415.99
612.82	55270.58
613.02	55069.88
613.21	55147.70
613.41	54809.79
613.61	55323.83
613.80	55272.63
614.00	55194.81
614.20	55352.50
614.39	55334.07
614.59	55739.57
614.79	55354.55
614.98	55086.26
615.18	55194.81
615.38	55336.12
615.57	54871.23
615.77	55350.45
615.97	55178.42
616.16	55035.06
616.36	54789.31
616.56	55225.53
616.75	55485.62
616.95	55137.46
617.15	55626.93
617.34	54903.99
617.54	55129.27
617.74	55729.33
617.93	55250.10
618.13	54793.40
618.32	55268.53
618.52	55014.58
618.72	54746.30
618.91	55145.65
619.11	54772.92
619.31	54922.43
619.50	54588.61
619.70	55080.12
619.90	55041.21
620.09	55102.65
620.29	55377.08
620.48	55139.51
620.68	55157.94
620.88	54660.29
621.07	54504.64
621.27	54858.94
621.46	54580.42
621.66	54611.13
621.86	55010.49
622.05	54541.50
622.25	55334.07
622.44	54965.43
622.64	54908.09
622.84	55164.09
623.03	54633.66
623.23	54729.92
623.42	54842.56
623.62	54789.31
623.82	55305.40
624.01	54570.18
624.21	54299.84
624.40	54869.18
624.60	54093.00
624.80	54701.25
624.99	54994.10
625.19	54293.70
625.38	54615.23
625.58	54648.00
625.77	54697.15
625.97	54768.83
626.17	54549.70
626.36	54580.42
626.56	54572.22
626.75	54492.35
626.95	55411.89
627.14	54721.72
627.34	54932.67
627.54	54232.26
627.73	54531.26
627.93	54654.14
628.12	54375.62
628.32	55272.63
628.51	54912.19
628.71	54672.57
628.90	54801.60
629.10	54463.68
629.30	54453.44
629.49	54410.43
629.69	54228.16
629.88	54656.19
630.08	54856.89
630.27	54932.67
630.47	54619.33
630.66	54918.33
630.86	54637.76
631.05	54168.77
631.25	54820.03
631.44	54695.10
631.64	54207.68
631.84	54691.01
632.03	54648.00
632.23	54820.03
632.42	55305.40
632.62	54578.37
632.81	54260.93
633.01	54424.77
633.20	54525.12
633.40	54586.56
633.59	54467.78
633.79	54203.59
633.98	54441.15
634.18	54680.77
634.37	54275.27
634.57	54529.22
634.76	54885.56
634.96	54506.69
635.15	55104.70
635.35	54154.44
635.54	53933.26
635.74	54777.02
635.93	54383.81
636.13	54731.96
636.32	54695.10
636.52	54422.72
636.71	54723.77
636.91	54385.86
637.10	54455.49
637.30	54979.77
637.49	54664.38
637.69	54566.08
637.88	54502.59
638.08	54785.21
638.27	54975.67
638.46	54717.63
638.66	54406.34
638.85	54662.33
639.05	54717.63
639.24	54572.22
639.44	54604.99
639.63	55076.02
639.83	54848.70
640.02	54750.40
640.22	54676.67
640.41	54838.46
640.61	54090.95
640.80	54727.87
640.99	54619.33
641.19	55172.28
641.38	54656.19
641.58	55030.97
641.77	54668.48
641.97	54439.11
642.16	54807.74
642.36	54856.89
642.55	55327.92
642.74	54260.93
642.94	55579.82
643.13	54586.56
643.33	55063.74
643.52	55340.21
643.72	55010.49
643.91	54367.43
644.10	54774.97
644.30	55073.98
644.49	54555.84
644.69	54914.23
644.88	55545.01
645.08	54602.94
645.27	54799.55
645.46	54854.84
645.66	54799.55
645.85	54613.18
646.05	55055.54
646.24	54981.82
646.43	55252.15
646.63	55289.01
646.82	55581.87
647.02	54983.86
647.21	55344.31
647.40	54891.71
647.60	55385.27
647.79	55536.82
647.99	55409.84
648.18	55094.46
648.37	55678.13
648.57	55473.33
648.76	55248.05
648.96	55223.48
649.15	55680.17
649.34	55614.64
649.54	55532.72
649.73	55006.39
649.92	55518.38
650.12	55325.88
650.31	55342.26
650.51	55434.42
650.70	55553.20
650.89	55424.18
651.09	55966.89
651.28	55719.09
651.47	55684.27
651.67	55602.35
651.86	55999.66
652.06	54983.86
652.25	55792.81
652.44	55727.28
652.64	55497.91
652.83	55887.02
653.02	55073.98
653.22	55688.37
653.41	55346.36
653.60	55284.92
653.80	55762.09
653.99	55874.73
654.18	55735.47
654.38	55432.37
654.57	55379.12
654.76	56194.21
654.96	55538.86
655.15	55553.20
655.34	55680.17
655.54	55469.23
655.73	55467.19
655.92	56136.87
656.12	55780.52
656.31	55872.68
656.50	55948.46
656.70	55643.31
656.89	55915.69
657.08	55850.16
657.28	55696.56
657.47	56022.19
657.66	56143.02
657.86	55952.55
658.05	55940.27
658.24	56140.97
658.43	55942.31
658.63	56114.34
658.82	55923.88
659.01	56288.42
659.21	55966.89
659.40	55915.69
659.59	56100.01
659.79	56255.65
659.98	56480.93
660.17	56536.23
660.36	56296.61
660.56	56333.48
660.75	56898.72
660.94	56263.85
661.14	56177.83
661.33	55823.53
661.52	55911.59
661.71	56575.14
661.91	56288.42
662.10	56186.02
662.29	56464.55
662.49	55823.53
662.68	56474.79
662.87	56259.75
663.06	56439.97
663.26	56061.10
663.45	56732.83
663.64	55805.10
663.83	56925.34
664.03	56530.08
664.22	56396.96
664.41	56290.47
664.60	56183.97
664.80	56573.09
664.99	56519.84
665.18	56534.18
665.37	56550.56
665.57	56265.89
665.76	56466.59
665.95	56824.99
666.14	56442.02
666.34	56726.69
666.53	56505.51
666.72	56472.74
666.91	56401.06
667.11	56284.33
667.30	56581.28
667.49	56464.55
667.68	56310.95
667.87	56351.91
668.07	56695.97
668.26	56747.17
668.45	56462.50
668.64	56546.47
668.84	56839.32
669.03	57468.05
669.22	56851.61
669.41	56849.56
669.60	56796.32
669.80	56140.97
669.99	56980.63
670.18	56665.25
670.37	56648.86
670.57	57009.31
670.76	56571.04
670.95	57097.37
671.14	56679.58
671.33	56374.44
671.53	57105.56
671.72	56591.52
671.91	56761.50
672.10	57212.06
672.29	56747.17
672.48	56419.49
672.68	57078.94
672.87	56994.97
673.06	56814.75
673.25	56804.51
673.44	56777.89
673.64	56841.37
673.83	56816.80
674.02	56677.54
674.21	56267.94
674.40	56851.61
674.59	56224.93
674.79	56489.12
674.98	56444.07
675.17	56472.74
675.36	56493.22
675.55	56904.86
675.74	56267.94
675.94	56255.65
676.13	56923.29
676.32	57242.77
676.51	57128.09
676.70	57179.29
676.89	57128.09
677.08	57025.69
677.28	56812.70
677.47	57275.54
677.66	57644.18
677.85	56876.19
678.04	56695.97
678.23	57164.95
678.42	56851.61
678.62	56841.37
678.81	57218.20
679.00	56896.67
679.19	57468.05
679.38	56833.18
679.57	57048.22
679.76	56650.91
679.96	57255.06
680.15	57154.71
680.34	56732.83
680.53	56763.55
680.72	57173.14
680.91	57250.97
681.10	56566.94
681.29	57234.58
681.48	57029.79
681.68	56958.11
681.87	56839.32
682.06	56843.42
682.25	56831.13
682.44	56927.39
682.63	56941.72
682.82	56847.52
683.01	56888.48
683.20	56734.88
683.39	56898.72
683.59	56648.86
683.78	56532.13
683.97	56435.87
684.16	56994.97
684.35	56505.51
684.54	56659.10
684.73	56538.27
684.92	56599.71
685.11	56571.04
685.30	56493.22
685.49	56898.72
685.69	56687.78
685.88	56992.92
686.07	56323.24
686.26	56431.78
686.45	57074.84
686.64	57011.35
686.83	56435.87
687.02	57099.42
687.21	56906.91
687.40	56478.88
687.59	56390.82
687.78	56525.99
687.97	56624.29
688.16	56532.13
688.35	56358.05
688.54	56579.23
688.74	56458.40
688.93	56593.57
689.12	56681.63
689.31	56898.72
689.50	56573.09
689.69	56054.95
689.88	55794.86
690.07	56323.24
690.26	56386.72
690.45	56730.78
690.64	56218.79
690.83	56425.64
691.02	55889.07
691.21	55893.16
691.40	56331.43
691.59	56439.97
691.78	56300.71
691.97	56392.87
692.16	56188.07
692.35	56683.68
692.54	56226.98
692.73	55989.42
692.92	55792.81
693.11	56145.06
693.30	55856.30
693.49	56257.70
693.68	56370.34
693.87	55919.79
694.06	55964.84
694.25	55872.68
694.44	55833.77
694.63	55821.48
694.82	56370.34
695.01	56286.37
695.20	55880.88
695.39	55831.72
695.58	55770.28
695.77	55604.40
695.96	55420.08
696.15	55758.00
696.34	55633.07
696.53	55545.01
696.72	56083.62
696.91	56138.92
697.10	55747.76
697.29	56009.90
697.48	55841.96
697.67	55706.80
697.86	55471.28
698.05	55235.77
698.24	55540.91
698.43	55194.81
698.62	56202.41
698.81	55213.24
699.00	55944.36
699.19	55086.26
699.38	55932.07
699.57	55203.00
699.76	55833.77
699.95	55391.41
700.14	55286.96
700.32	55248.05
700.51	55358.64
700.70	55749.81
700.89	55653.55
701.08	55528.62
701.27	55014.58
701.46	55563.44
701.65	54852.80
701.84	55403.70
702.03	55129.27
702.22	54908.09
702.41	55137.46
702.60	55090.36
702.79	55053.50
702.98	54858.94
703.17	54715.58
703.35	54619.33
703.54	54789.31
703.73	54967.48
703.92	55305.40
704.11	54848.70
704.30	54301.89
704.49	54564.03
704.68	54445.25
704.87	54496.45
705.06	55137.46
705.25	54678.72
705.43	54883.51
705.62	54727.87
705.81	55116.98
706.00	54385.86
706.19	54326.47
706.38	54160.58
706.57	54424.77
706.76	54308.04
706.95	54459.58
707.14	54006.98
707.32	54088.90
707.51	53880.01
707.70	54215.88
707.89	54017.22
708.08	54215.88
708.27	54510.78
708.46	54459.58
708.65	53984.46
708.84	54211.78
709.02	54187.21
709.21	54176.97
709.40	54699.20
709.59	54234.31
709.78	53910.73
709.97	54025.42
710.16	53992.65
710.34	54058.18
710.53	54041.80
710.72	53441.74
710.91	53929.16
711.10	53957.83
711.29	54017.22
711.48	53759.18
711.66	53767.37
711.85	53808.33
712.04	53941.45
712.23	53619.92
712.42	53023.96
712.61	53748.94
712.80	53570.77
712.98	53427.41
713.17	52874.46
713.36	53333.20
713.55	53368.02
713.74	53216.47
713.93	53150.93
714.11	53247.19
714.30	53361.87
714.49	53339.35
714.68	53220.56
714.87	53503.18
715.06	54011.08
715.24	53009.62
715.43	52983.00
715.62	52937.94
715.81	52923.61
716.00	53009.62
716.18	52778.20
716.37	52311.27
716.56	52225.25
716.75	52933.85
716.94	52540.64
717.12	52616.41
717.31	52659.42
717.50	52514.01
717.69	52450.53
717.88	52321.51
718.06	52579.55
718.25	53019.86
718.44	51975.40
718.63	51928.30
718.82	51954.92
719.00	52323.55
719.19	52204.77
719.38	52456.67
719.57	51506.41
719.76	51483.89
719.94	51784.94
720.13	51672.30
720.32	51901.67
720.51	51848.42
720.69	51332.34
720.88	51045.62
721.07	51389.68
721.26	51123.44
721.44	51307.76
721.63	51098.87
721.82	50711.80
722.01	51023.09
722.20	50947.32
722.38	50867.45
722.57	50537.72
722.76	50382.08
722.95	50679.03
723.13	50498.81
723.32	50472.19
723.51	50300.16
723.70	50570.49
723.88	50636.03
724.07	50099.46
724.26	50468.09
724.44	50033.92
724.63	50472.19
724.82	50476.29
725.01	50068.74
725.19	50312.45
725.38	50017.54
725.57	49896.71
725.76	49890.57
725.94	49786.12
726.13	49763.59
726.32	49945.86
726.51	49634.57
726.69	50124.04
726.88	49687.82
727.07	49863.94
727.25	49790.22
727.44	49820.94
727.63	49722.63
727.82	49722.63
728.00	49540.36
728.19	49491.21
728.38	49603.85
728.56	49102.10
728.75	49865.99
728.94	49179.92
729.12	50185.47
729.31	49452.30
729.50	49462.54
729.69	49575.18
729.87	49476.88
730.06	49306.90
730.25	49302.80
730.43	49939.72
730.62	49300.75
730.81	49632.52
730.99	49341.71
731.18	49100.05
731.37	49083.67
731.55	49460.49
731.74	49499.40
731.93	49202.45
732.11	49126.67
732.30	49138.96
732.49	49073.43
732.67	49235.22
732.86	49202.45
733.05	49276.18
733.23	48684.31
733.42	48866.58
733.61	48815.38
733.79	49100.05
733.98	49157.39
734.17	49003.80
734.35	49036.56
734.54	48766.23
734.73	49009.94
734.91	49192.21
735.10	48659.74
735.29	49519.88
735.47	48487.71
735.66	49061.14
735.84	48905.49
736.03	48626.97
736.22	49075.48
736.40	48817.43
736.59	48672.03
736.78	48463.13
736.96	48586.01
737.15	48411.93
737.33	48047.39
737.52	48133.41
737.71	48774.42
737.89	48420.13
738.08	47867.17
738.27	48112.93
738.45	48723.22
738.64	48188.70
738.82	48432.41
739.01	48151.84
739.20	48000.29
739.38	48211.23
739.57	48313.63
739.75	48188.70
739.94	48112.93
740.13	47666.47
740.31	47889.70
740.50	48080.16
740.68	47633.71
740.87	47879.46
741.06	47793.45
741.24	47586.60
741.43	47383.85
741.61	47891.75
741.80	47465.77
741.99	47502.64
742.17	47523.11
742.36	47879.46
742.54	47428.91
742.73	47373.61
742.91	47789.35
743.10	47375.66
743.29	47820.07
743.47	47381.80
743.66	47177.01
743.84	47326.51
744.03	47088.95
744.21	46992.69
744.40	47371.57
744.59	46933.30
744.77	46910.77
744.96	46996.79
745.14	47068.47
745.33	47480.11
745.51	47232.30
745.70	47265.07
745.88	47076.66
746.07	46708.02
746.26	47109.43
746.44	46652.73
746.63	47328.56
746.81	46927.16
747.00	46724.41
747.18	46888.24
747.37	46587.19
747.55	46871.86
747.74	46685.50
747.92	46228.80
748.11	46310.72
748.29	46425.40
748.48	46511.42
748.66	46597.43
748.85	46103.87
749.03	46153.02
749.22	46355.77
749.41	45839.68
749.59	45897.03
749.78	45786.44
749.96	45811.01
750.15	45638.98
750.33	45552.97
750.52	46159.17
750.70	45778.25
750.89	45268.30
751.07	45555.02
751.26	45450.57
751.44	45862.21
751.63	45823.30
751.81	45358.41
752.00	45704.52
752.18	45178.19
752.37	45452.62
752.55	45526.35
752.74	44838.23
752.92	45006.16
753.10	45032.78
753.29	45018.45
753.47	45036.88
753.66	44887.38
753.84	45122.90
754.03	44592.47
754.21	44606.81
754.40	45206.86
754.58	44975.44
754.77	44815.70
754.95	44858.71
755.14	44473.69
755.32	44629.34
755.51	44318.04
755.69	44637.53
755.88	44637.53
756.06	44631.38
756.24	44332.38
756.43	44270.94
756.61	44260.70
756.80	43984.22
756.98	44045.66
757.17	44234.08
757.35	44148.06
757.54	44348.76
757.72	44213.60
757.90	43808.10
758.09	43865.44
758.27	44047.71
758.46	43910.50
758.64	44084.58
758.83	44207.45
759.01	43691.37
759.19	43861.35
759.38	43707.75
759.56	44070.24
759.75	43591.01
759.93	43767.14
760.12	43656.55
760.30	43672.93
760.48	43588.97
760.67	43627.88
760.85	43642.21
761.04	43398.51
761.22	43355.50
761.40	43259.24
761.59	43441.51
761.77	43033.97
761.96	43212.14
762.14	43128.17
762.32	42990.96
762.51	43353.45
762.69	42909.04
762.88	42894.71
763.06	42896.75
763.24	42771.83
763.43	42968.43
763.61	42569.08
763.80	42706.29
763.98	43029.87
764.16	42548.60
764.35	42642.81
764.53	42141.05
764.72	42612.09
764.90	42657.14
765.08	42765.68
765.27	42577.27
765.45	42360.19
765.63	41981.31
765.82	42397.05
766.00	42177.92
766.18	42122.62
766.37	42542.45
766.55	41858.43
766.74	42067.33
766.92	41979.26
767.10	42216.83
767.29	41913.73
767.47	41594.25
767.65	41862.53
767.84	41590.15
768.02	41801.09
768.20	40813.97
768.39	41639.30
768.57	41688.45
768.75	41389.45
768.94	41672.07
769.12	41454.98
769.30	41420.17
769.49	41127.31
769.67	41078.16
769.85	40844.69
770.04	41018.77
770.22	40793.49
770.40	40773.01
770.59	40656.28
770.77	40668.56
770.95	40979.85
771.14	40576.40
771.32	40793.49
771.50	40043.93
771.69	40385.94
771.87	40869.26
772.05	40422.81
772.24	40033.69
772.42	40021.41
772.60	40445.33
772.78	40060.32
772.97	40252.83
773.15	40682.90
773.33	39964.06
773.52	40123.80
773.70	40009.12
773.88	40285.59
774.07	39876.00
774.25	40236.44
774.43	40723.86
774.61	40256.92
774.80	40361.37
774.98	40304.02
775.16	40394.14
775.34	40322.46
775.53	40019.36
775.71	40564.12
775.89	40392.09
776.08	40168.86
776.26	40246.68
776.44	40283.55
776.62	40256.92
776.81	40148.38
776.99	40289.69
777.17	40244.63
777.35	40369.56
777.54	40588.69
777.72	40076.70
777.90	40443.29
778.08	40551.83
778.27	40643.99
778.45	40654.23
778.63	40560.02
778.81	40363.42
779.00	40955.28
779.18	40177.05
779.36	40674.71
779.54	40705.43
779.73	40510.87
779.91	40680.85
780.09	40695.19
780.27	40799.63
780.46	40973.71
780.64	41088.40
780.82	40791.44
781.00	40773.01
781.19	41047.44
781.37	41043.34
781.55	40891.79
781.73	41104.78
781.91	40879.50
782.10	40465.81
782.28	41141.64
782.46	41170.32
782.64	40863.12
782.82	40762.77
783.01	41033.10
783.19	41029.01
783.37	41033.10
783.55	40623.51
783.74	41164.17
783.92	41043.34
784.10	41506.18
784.28	41010.57
784.46	41129.36
784.64	40910.22
784.83	41018.77
785.01	41241.99
785.19	41024.91
785.37	41137.55
785.55	40979.85
785.74	40668.56
785.92	40377.75
786.10	41119.12
786.28	40744.34
786.46	40955.28
786.64	40338.84
786.83	40553.88
787.01	41188.75
787.19	40564.12
787.37	41014.67
787.55	40981.90
787.74	40639.89
787.92	40646.04
788.10	40418.71
788.28	40213.91
788.46	40510.87
788.64	40426.90
788.82	40727.95
789.01	40375.70
789.19	40709.52
789.37	40007.07
789.55	40230.30
789.73	40144.28
789.91	39861.66
790.09	39949.73
790.28	39749.03
790.46	39624.10
790.64	40179.10
790.82	39366.06
791.00	39654.82
791.18	39370.15
791.36	39753.12
791.55	39595.43
791.73	39216.55
791.91	39335.34
792.09	39482.79
792.27	39429.54
792.45	39077.29
792.63	38931.89
792.81	38540.72
793.00	38817.20
793.18	38780.34
793.36	38847.92
793.54	38563.25
793.72	38759.86
793.90	38489.52
794.08	38167.99
794.26	38616.50
794.44	38133.18
794.62	38206.90
794.81	38290.87
794.99	37909.95
795.17	38534.58
795.35	38061.50
795.53	37938.62
795.71	37940.67
795.89	37604.80
796.07	37848.51
796.25	37225.93
796.43	37795.26
796.61	37457.35
796.80	37524.93
796.98	37752.26
797.16	37270.98
797.34	37381.57
797.52	36851.15
797.70	37336.52
797.88	37361.09
798.06	36779.47
798.24	36879.82
798.42	36988.36
798.60	37019.08
798.78	36488.66
798.96	36509.14
799.14	36122.07
799.32	36373.97
799.51	36263.38
799.69	36675.02
799.87	36613.59
800.05	35933.66
800.23	36263.38
800.41	35767.77
800.59	35984.86
800.77	35874.27
800.95	35216.87
801.13	35683.81
801.31	35325.41
801.49	35464.67
801.67	35046.89
801.85	35456.48
802.03	35470.82
802.21	35014.12
802.39	35089.90
802.57	35104.23
802.75	34713.07
802.93	35018.22
803.11	35188.20
803.29	34725.36
803.47	34545.14
803.65	34502.13
803.83	34741.74
804.01	34555.38
804.19	34063.86
804.37	34252.28
804.55	34395.64
804.73	34305.52
804.91	34256.37
805.09	33834.49
805.27	34137.59
805.45	34219.51
805.63	33775.10
805.81	33926.65
805.99	33852.92
806.17	34096.63
806.35	33916.41
806.53	33811.96
806.71	33566.21
806.89	33662.46
807.07	33576.45
807.25	33437.19
807.43	33211.91
807.61	33672.70
807.79	33609.22
807.97	32968.20
808.15	33332.74
808.33	32720.40
808.51	32941.58
808.69	33029.64
808.87	32620.05
809.05	32478.74
809.23	32716.30
809.41	32417.30
809.59	32603.66
809.77	32730.64
809.95	32151.06
810.13	32372.24
810.31	32587.28
810.49	32405.01
810.67	32339.47
810.84	32607.76
811.02	32142.87
811.20	31979.03
811.38	32024.09
811.56	31659.55
811.74	32095.77
811.92	32060.95
812.10	31708.70
812.28	31680.03
812.46	31630.88
812.64	31927.83
812.82	31860.25
813.00	31639.07
813.18	31659.55
813.36	31252.00
813.53	31505.95
813.71	31114.79
813.89	31163.94
814.07	31266.34
814.25	31213.09
814.43	30912.04
814.61	30785.07
814.79	31014.44
814.97	31098.41
815.15	30905.90
815.33	30633.52
815.50	30445.10
815.68	30783.02
815.86	30676.52
816.04	30674.48
816.22	30533.17
816.40	30547.50
816.58	30381.62
816.76	30324.27
816.94	30451.25
817.11	30230.07
817.29	30015.03
817.47	29978.17
817.65	30107.19
817.83	30434.86
818.01	29935.16
818.19	30225.97
818.37	30254.64
818.54	30053.94
818.72	29560.38
818.90	30133.81
819.08	29881.91
819.26	29750.84
819.44	29961.78
819.62	29568.57
819.80	29656.64
819.97	29609.53
820.15	29544.00
820.33	29468.22
820.51	29300.29
820.69	29210.18
820.87	29558.33
821.05	29525.57
821.22	29163.08
821.40	29310.53
821.58	28943.94
821.76	28808.78
821.94	29150.79
822.12	28972.61
822.29	29085.25
822.47	29118.02
822.65	29154.88
822.83	29226.56
823.01	28931.65
823.19	28696.14
823.36	28597.84
823.54	28409.42
823.72	28845.64
823.90	28544.59
824.08	28440.14
824.25	28530.25
824.43	28425.81
824.61	28546.64
824.79	28556.88
824.97	28218.96
825.15	28577.36
825.32	28552.78
825.50	28184.15
825.68	28542.54
825.86	28452.43
826.04	28413.52
826.21	27885.14
826.39	28302.93
826.57	28173.91
826.75	27792.98
826.93	27905.62
827.10	28204.63
827.28	27922.01
827.46	27895.38
827.64	28091.99
827.81	27827.80
827.99	28108.37
828.17	27786.84
828.35	27512.41
828.53	27614.81
828.70	27493.98
828.88	27412.06
829.06	27534.94
829.24	27545.18
829.41	27356.77
829.59	27641.43
829.77	27416.16
829.95	27442.78
830.12	27457.12
830.30	27348.57
830.48	27653.72
830.66	27272.80
830.84	27369.05
831.01	27416.16
831.19	27309.66
831.37	27115.11
831.55	27393.63
831.72	26898.02
831.90	26748.52
832.08	27299.42
832.25	26879.59
832.43	27053.67
832.61	26715.75
832.79	26918.50
832.96	27000.42
833.14	26910.31
833.32	26943.08
833.50	26998.37
833.67	26893.93
833.85	26418.80
834.03	26396.27
834.20	26676.84
834.38	26617.45
834.56	26887.78
834.74	26386.03
834.91	26175.09
835.09	26611.31
835.27	26191.47
835.44	26267.25
835.62	26148.46
835.80	26207.86
835.98	26220.14
836.15	26381.93
836.33	25906.80
836.51	26523.24
836.68	25851.51
836.86	26039.92
837.04	26295.92
837.21	25980.53
837.39	26162.80
837.57	26271.34
837.75	26130.03
837.92	25888.37
838.10	25927.28
838.28	25863.80
838.45	25828.98
838.63	25847.41
838.81	26091.12
838.98	25792.12
839.16	25536.12
839.34	25814.65
839.51	25790.07
839.69	25441.92
839.87	25994.87
840.04	25237.12
840.22	25609.85
840.40	25501.31
840.57	25196.16
840.75	25499.26
840.93	25187.97
841.10	25347.71
841.28	25677.43
841.46	25241.21
841.63	25347.71
841.81	25509.50
841.98	25433.72
842.16	25476.73
842.34	25097.86
842.51	25030.27
842.69	25278.08
842.87	25226.88
843.04	25325.18
843.22	24794.76
843.40	25028.23
843.57	24882.82
843.75	24895.11
843.92	24956.55
844.10	25093.76
844.28	24946.31
844.45	25140.86
844.63	25190.02
844.81	24669.83
844.98	24837.76
845.16	24725.13
845.33	24780.42
845.51	24532.62
845.69	24553.10
845.86	24407.69
846.04	24563.34
846.21	24417.93
846.39	24313.48
846.57	24293.01
846.74	24344.20
846.92	24723.08
847.09	24129.17
847.27	24401.55
847.45	24444.56
847.62	24473.23
847.80	24356.49
847.97	24383.12
848.15	24618.63
848.32	24155.79
848.50	24143.50
848.68	24178.32
848.85	24198.80
849.03	23801.49
849.20	24032.91
849.38	23658.14
849.56	23731.86
849.73	23752.34
849.91	23717.53
850.08	24090.26
850.26	23717.53
850.43	23660.18
850.61	23525.02
850.78	23541.40
850.96	23744.15
851.14	23555.74
851.31	23531.16
851.49	23361.18
851.66	23955.09
851.84	23721.62
852.01	23455.39
852.19	23541.40
852.36	23547.54
852.54	23486.11
852.71	23512.73
852.89	23387.80
853.07	23414.43
853.24	23393.95
853.42	23275.16
853.59	23516.83
853.77	23211.68
853.94	23477.91
854.12	23410.33
854.29	23195.29
854.47	23393.95
854.64	23041.70
854.82	23146.14
854.99	23058.08
855.17	23209.63
855.34	23119.52
855.52	23031.46
855.69	23019.17
855.87	23076.51
856.04	22873.76
856.22	22982.31
856.39	22726.31
856.57	22859.43
856.74	22728.36
856.92	22941.35
857.09	22601.38
857.27	22810.28
857.44	22857.38
857.62	23039.65
857.79	22673.06
857.97	22599.34
858.14	22773.41
858.32	22541.99
858.49	22595.24
858.67	22314.67
858.84	22484.65
859.02	22390.44
859.19	22286.00
859.37	22347.44
859.54	22230.70
859.72	22806.18
859.89	22488.74
860.06	22267.56
860.24	22345.39
860.41	22316.72
860.59	21974.70
860.76	22290.09
860.94	22050.48
861.11	22300.33
861.29	22218.41
861.46	22046.38
861.64	22038.19
861.81	21851.83
861.98	21819.06
862.16	21604.02
862.33	21632.69
862.51	21448.38
862.68	22099.63
862.86	21796.53
863.03	21991.09
863.21	21943.99
863.38	21712.56
863.55	21620.41
863.73	21712.56
863.90	21808.82
864.08	21565.11
864.25	21534.39
864.43	21694.13
864.60	21333.69
864.77	21450.42
864.95	21309.11
865.12	21487.29
865.30	21374.65
865.47	21411.51
865.64	21407.42
865.82	21042.88
865.99	21126.85
866.17	21171.90
866.34	21081.79
866.51	21001.92
866.69	21112.51
866.86	21305.02
867.04	21114.56
867.21	21184.19
867.38	21006.02
867.56	20694.72
867.73	20659.91
867.91	21092.03
868.08	20733.64
868.25	20803.27
868.43	20899.52
868.60	20721.35
868.78	20606.66
868.95	20735.68
869.12	20432.58
869.30	20844.23
869.47	20633.29
869.64	20418.25
869.82	20670.15
869.99	20387.53
870.16	20330.19
870.34	20512.46
870.51	20682.44
870.69	20100.81
870.86	20514.50
871.03	20399.82
871.21	20274.89
871.38	20412.10
871.55	20373.19
871.73	20145.87
871.90	20119.24
872.07	20123.34
872.25	20012.75
872.42	19898.06
872.59	19859.15
872.77	19789.52
872.94	19683.03
873.11	19996.37
873.29	19873.49
873.46	19685.08
873.63	19812.05
873.81	19674.84
873.98	19556.05
874.15	19592.92
874.33	19447.51
874.50	19455.70
874.67	19633.88
874.85	19416.79
875.02	19414.74
875.19	18953.95
875.37	19445.46
875.54	19283.67
875.71	19062.49
875.88	19076.83
876.06	19248.86
876.23	19033.82
876.40	19033.82
876.58	18730.72
876.75	18861.79
876.92	18927.33
877.10	18822.88
877.27	18740.96
877.44	19033.82
877.61	18687.71
877.79	18794.21
877.96	18710.24
878.13	18601.70
878.31	18427.62
878.48	18513.64
878.65	18497.25
878.82	18527.97
879.00	18423.53
879.17	18376.42
879.34	18613.99
879.51	18317.03
879.69	18259.69
879.86	18112.24
880.03	18304.74
880.21	18401.00
880.38	18327.27
880.55	18241.26
880.72	17919.73
880.90	18415.34
881.07	18286.31
881.24	17901.29
881.41	18228.97
881.59	18099.95
881.76	17895.15
881.93	18032.36
882.10	17985.26
882.28	17843.95
882.45	17950.45
882.62	17901.29
882.79	17757.94
882.96	17665.78
883.14	17774.32
883.31	17929.97
883.48	17743.60
883.65	17688.31
883.83	17641.20
884.00	17635.06
884.17	17585.91
884.34	17657.59
884.51	17501.94
884.69	17676.02
884.86	17649.39
885.03	17471.22
885.20	17489.65
885.38	17579.76
885.55	17407.73
885.72	17620.72
885.89	17348.34
886.06	17544.95
886.24	17383.16
886.41	17219.32
886.58	17692.40
886.75	17231.61
886.92	17100.54
887.10	17274.62
887.27	17000.19
887.44	17159.93
887.61	17409.78
887.78	17344.25
887.95	17317.62
888.13	16959.23
888.30	17282.81
888.47	16903.93
888.64	17016.57
888.81	17069.82
888.99	16811.78
889.16	16684.80
889.33	16791.30
889.50	16647.94
889.67	16860.93
889.84	16791.30
890.01	16770.82
890.19	16756.48
890.36	16910.08
890.53	16877.31
890.70	16420.61
890.87	16705.28
891.04	16713.47
891.22	16772.86
891.39	16590.59
891.56	16473.86
891.73	16400.13
891.90	16381.70
892.07	16299.78
892.24	16473.86
892.42	16201.48
892.59	16316.17
892.76	16154.38
892.93	16125.71
893.10	16174.86
893.27	16156.43
893.44	16197.38
893.61	16013.07
893.79	16105.23
893.96	16133.90
894.13	16404.23
894.30	16111.37
894.47	16064.27
894.64	16256.78
894.81	15945.48
894.98	15908.62
895.15	15900.43
895.33	16158.47
895.50	15824.65
895.67	16234.25
895.84	15904.53
896.01	16142.09
896.18	15894.29
896.35	16166.67
896.52	16158.47
896.69	15902.48
896.86	16019.21
897.04	15787.79
897.21	15900.43
897.38	15759.12
897.55	15900.43
897.72	15804.17
897.89	15775.50
898.06	16017.16
898.23	15978.25
898.40	15814.41
898.57	16097.03
898.74	15838.99
898.91	15869.71
899.08	15867.66
899.26	16015.12
899.43	15779.60
899.60	15615.76
899.77	15765.26
899.94	15712.02
900.11	15652.63
900.28	15951.63
900.45	15869.71
900.62	15720.21
900.79	15877.90
900.96	15802.13
901.13	15595.28
901.30	15818.51
901.47	15781.65
901.64	15910.67
901.81	15916.81
901.98	15494.93
902.15	15783.70
902.32	15630.10
902.49	15939.34
902.66	15632.15
902.83	15470.36
903.01	15826.70
903.18	15619.86
903.35	15691.54
903.52	15675.15
903.69	15812.37
903.86	15798.03
904.03	15824.65
904.20	15920.91
904.37	15791.89
904.54	15623.95
904.71	15595.28
904.88	15664.91
905.05	15658.77
905.22	15671.06
905.39	15650.58
905.56	15752.98
905.73	15568.66
905.90	15814.41
906.07	15488.79
906.24	15523.60
906.41	15562.51
906.58	15640.34
906.75	15593.23
906.92	15453.97
907.09	15494.93
907.26	15605.52
907.43	15554.32
907.60	15642.39
907.77	15572.75
907.93	15626.00
908.10	15521.56
908.27	15818.51
908.44	15165.21
908.61	15210.26
908.78	15396.63
908.95	15451.92
909.12	15539.99
909.29	15531.80
909.46	15572.75
909.63	15347.48
909.80	15343.38
909.97	15296.28
910.14	15277.85
910.31	15228.70
910.48	15240.98
910.65	15214.36
910.82	15130.39
910.99	15271.70
911.16	15245.08
911.33	15206.17
911.50	15232.79
911.66	15331.09
911.83	15197.98
912.00	15101.72
912.17	14987.04
912.34	15093.53
912.51	15079.19
912.68	15003.42
912.85	15173.40
913.02	14982.94
913.19	14733.09
913.36	15144.73
913.53	14894.88
913.70	14817.05
913.86	14946.08
914.03	15068.95
914.20	14782.24
914.37	14651.17
914.54	14681.89
914.71	14808.86
914.88	14569.25
915.05	14669.60
915.22	14632.74
915.39	14577.44
915.55	14536.48
915.72	14368.55
915.89	14487.33
916.06	14366.50
916.23	14298.92
916.40	14327.59
916.57	14460.71
916.74	14278.44
916.91	14210.86
917.07	14098.22
917.24	13987.63
917.41	14284.58
917.58	13969.19
917.75	13979.43
917.92	13897.52
918.09	14042.92
918.26	13748.01
918.42	14022.44
918.59	14004.01
918.76	13752.11
918.93	13635.38
919.10	13633.33
919.27	13684.53
919.44	13709.10
919.60	13934.38
919.77	13608.75
919.94	13492.02
920.11	13786.93
920.28	13514.55
920.45	13608.75
920.61	13330.23
920.78	13283.13
920.95	13233.97
921.12	13315.89
921.29	13254.45
921.46	13076.28
921.62	12992.31
921.79	13010.75
921.96	12910.40
922.13	12977.98
922.30	13043.51
922.47	12973.88
922.63	12799.80
922.80	12912.44
922.97	12644.16
923.14	12455.75
923.31	12678.97
923.47	12482.37
923.64	12875.58
923.81	12253.00
923.98	12427.07
924.15	12347.20
924.32	12369.73
924.48	12461.89
924.65	12480.32
924.82	12156.74
924.99	12181.32
925.15	12189.51
925.32	11974.47
925.49	12193.61
925.66	12023.62
925.83	11663.18
925.99	12101.45
926.16	11896.65
926.33	11896.65
926.50	11554.64
926.67	11784.01
926.83	11945.80
927.00	11609.93
927.17	11530.06
927.34	11235.16
927.50	11632.46
927.67	11583.31
927.84	11474.77
928.01	11362.13
928.17	11206.48
928.34	11265.88
928.51	11249.49
928.68	11202.39
928.84	11097.94
929.01	11171.67
929.18	10938.20
929.35	10934.11
929.51	11104.09
929.68	10841.95
929.85	10975.06
930.02	10751.84
930.18	10813.28
930.35	10884.95
930.52	10473.31
930.69	10626.91
930.85	10608.48
931.02	10495.84
931.19	10418.02
931.36	10411.87
931.52	10516.32
931.69	10563.42
931.86	10299.23
932.02	10344.29
932.19	10092.39
932.36	10164.07
932.53	10157.92
932.69	9906.02
932.86	10010.47
933.03	9971.56
933.19	9820.01
933.36	9852.78
933.53	9973.61
933.70	9852.78
933.86	9762.67
934.03	9852.78
934.20	9518.96
934.36	9611.12
934.53	9265.01
934.70	9269.11
934.86	9226.10
935.03	9267.06
935.20	9127.80
935.36	9240.44
935.53	9078.65
935.70	8947.58
935.86	8937.34
936.03	8963.96
936.20	8695.68
936.36	8503.17
936.53	8550.27
936.70	8546.17
936.86	8716.16
937.03	8327.04
937.20	8320.90
937.36	8445.82
937.53	8007.56
937.70	8126.34
937.86	8083.33
938.03	7976.84
938.20	7974.79
938.36	7901.06
938.53	7683.98
938.70	7540.62
938.86	7606.16
939.03	7458.70
939.20	7374.74
939.36	7315.34
939.53	7227.28
939.70	7397.26
939.86	6942.61
940.03	6959.00
940.19	6754.20
940.36	6920.09
940.53	6762.39
940.69	6688.67
940.86	6780.82
941.03	6533.02
941.19	6451.10
941.36	6522.78
941.52	6459.29
941.69	6342.56
941.86	6317.98
942.02	6293.41
942.19	6135.71
942.35	6072.23
942.52	5967.78
942.69	5846.95
942.85	5973.92
943.02	5943.21
943.18	6033.32
943.35	5832.62
943.52	5750.70
943.68	5793.70
943.85	5633.96
944.01	5789.61
944.18	5762.98
944.35	5908.39
944.51	5668.78
944.68	5490.60
944.84	5490.60
945.01	5343.15
945.17	5392.30
945.34	5539.76
945.51	5547.95
945.67	5427.12
945.84	5556.14
946.00	5320.62
946.17	5357.49
946.33	5355.44
946.50	5492.65
946.67	5283.76
946.83	5347.25
947.00	5337.01
947.16	5261.23
947.33	5341.10
947.49	5291.95
947.66	5226.42
947.82	5267.38
947.99	5183.41
948.16	5271.47
948.32	5234.61
948.49	5423.02
948.65	5294.00
948.82	5287.86
948.98	5220.27
949.15	5244.85
949.31	5310.38
949.48	5345.20
949.64	5337.01
949.81	5433.26
949.97	5201.84
950.14	5332.91
950.30	5160.88
950.47	5261.23
950.63	5281.71
950.80	5334.96
950.96	5314.48
951.13	5279.66
951.30	5425.07
951.46	5455.79
951.63	5416.88
951.79	5382.06
951.96	5298.10
952.12	5369.77
952.29	5384.11
952.45	5414.83
952.62	5289.90
952.78	5457.84
952.94	5382.06
953.11	5316.53
953.27	5302.19
953.44	5517.23
953.60	5261.23
953.77	5353.39
953.93	5328.81
954.10	5357.49
954.26	5332.91
954.43	5314.48
954.59	5404.59
954.76	5615.53
954.92	5513.13
955.09	5463.98
955.25	5365.68
955.42	5402.54
955.58	5566.38
955.75	5494.70
955.91	5406.64
956.07	5492.65
956.24	5410.73
956.40	5480.36
956.57	5529.52
956.73	5476.27
956.90	5396.40
957.06	5517.23
957.23	5359.53
957.39	5484.46
957.56	5431.21
957.72	5234.61
957.88	5414.83
958.05	5541.80
958.21	5429.17
958.38	5498.80
958.54	5474.22
958.71	5412.78
958.87	5449.64
959.03	5402.54
959.20	5468.08
959.36	5318.57
959.53	5496.75
959.69	5402.54
959.85	5558.19
960.02	5390.25
960.18	5406.64
960.35	5617.58
960.51	5410.73
960.68	5363.63
960.84	5310.38
961.00	5441.45
961.17	5412.78
961.33	5494.70
961.50	5535.66
961.66	5547.95
961.82	5324.72
961.99	5410.73
962.15	5433.26
962.31	5431.21
962.48	5351.34
962.64	5334.96
962.81	5351.34
962.97	5529.52
963.13	5349.29
963.30	5408.69
963.46	5435.31
963.62	5392.30
963.79	5382.06
963.95	5447.60
964.12	5142.45
964.28	5425.07
964.44	5302.19
964.61	5406.64
964.77	5267.38
964.93	5459.88
965.10	5173.17
965.26	5179.31
965.42	5326.77
965.59	5296.05
965.75	5240.75
965.92	5394.35
966.08	5363.63
966.24	5271.47
966.41	5316.53
966.57	5152.69
966.73	5343.15
966.90	5369.77
967.06	5236.66
967.22	5197.74
967.39	5234.61
967.55	5220.27
967.71	5283.76
967.88	5140.40
968.04	5040.05
968.20	5308.34
968.37	5089.20
968.53	5060.53
968.69	5169.07
968.85	5152.69
969.02	5201.84
969.18	5277.62
969.34	5175.22
969.51	5134.26
969.67	5029.81
969.83	4937.65
970.00	5173.17
970.16	5072.82
970.32	4972.47
970.48	5132.21
970.65	4896.69
970.81	5007.28
970.97	5091.25
971.14	4878.26
971.30	5058.48
971.46	4906.93
971.63	4861.88
971.79	5052.34
971.95	5009.33
972.11	4804.53
972.28	4917.17
972.44	4911.03
972.60	4810.68
972.76	4896.69
972.93	4861.88
973.09	4827.06
973.25	4843.45
973.42	4812.73
973.58	4892.60
973.74	4802.49
973.90	4769.72
974.07	4765.62
974.23	4782.01
974.39	4812.73
974.55	4749.24
974.72	4743.10
974.88	4622.27
975.04	4919.22
975.20	4655.03
975.37	4771.77
975.53	4687.80
975.69	4724.66
975.85	4788.15
976.01	4730.81
976.18	4720.57
976.34	4640.70
976.50	4751.29
976.66	4726.71
976.83	4718.52
976.99	4655.03
977.15	4564.92
977.31	4507.58
977.47	4603.83
977.64	4542.39
977.80	4532.15
977.96	4601.79
978.12	4728.76
978.29	4597.69
978.45	4489.15
978.61	4538.30
978.77	4632.51
978.93	4450.24
979.10	4411.32
979.26	4519.87
979.42	4440.00
979.58	4259.78
979.74	4433.85
979.91	4452.28
980.07	4360.13
980.23	4452.28
980.39	4407.23
980.55	4421.56
980.71	4329.41
980.88	4276.16
981.04	4300.73
981.20	4315.07
981.36	4300.73
981.52	4300.73
981.68	4179.90
981.85	4384.70
982.01	4286.40
982.17	4224.96
982.33	4276.16
982.49	4288.45
982.65	4241.34
982.82	4169.66
982.98	4202.43
983.14	4163.52
983.30	4341.69
983.46	4251.58
983.62	4274.11
983.79	4206.53
983.95	4159.42
984.11	4079.55
984.27	4327.36
984.43	4173.76
984.59	4089.79
984.75	4110.27
984.91	4124.61
985.08	4270.01
985.24	4050.88
985.40	4116.42
985.56	4063.17
985.72	4048.83
985.88	4095.94
986.04	4028.35
986.20	4081.60
986.37	4069.31
986.53	4040.64
986.69	4028.35
986.85	3954.63
987.01	3899.33
987.17	4097.99
987.33	4042.69
987.49	3911.62
987.65	3915.72
987.82	3987.40
987.98	3866.56
988.14	3940.29
988.30	3956.68
988.46	3796.93
988.62	3858.37
988.78	3973.06
988.94	3911.62
989.10	3823.56
989.26	3743.69
989.42	3807.17
989.59	3737.54
989.75	3745.73
989.91	3874.76
990.07	3733.45
990.23	3661.77
990.39	3602.38
990.55	3835.85
990.71	3704.78
990.87	3753.93
991.03	3743.69
991.19	3616.71
991.35	3665.86
991.51	3760.07
991.67	3753.93
991.83	3719.11
992.00	3725.26
992.16	3663.82
992.32	3721.16
992.48	3561.42
992.64	3596.23
992.80	3669.96
992.96	3682.25
993.12	3618.76
993.28	3698.63
993.44	3620.81
993.60	3616.71
993.76	3618.76
993.92	3631.05
994.08	3596.23
994.24	3567.56
994.40	3461.07
994.56	3676.10
994.72	3569.61
994.88	3610.57
995.04	3450.83
995.20	3385.29
995.36	3520.46
995.52	3483.59
995.68	3375.05
995.84	3332.05
996.00	3549.13
996.16	3442.64
996.32	3487.69
996.48	3395.53
996.64	3491.79
996.80	3373.00
996.96	3289.04
997.12	3389.39
997.28	3393.48
997.44	3375.05
997.60	3379.15
997.76	3309.52
997.92	3389.39
998.08	3289.04
998.24	3348.43
998.40	3319.76
998.56	3340.24
998.72	3239.89
998.88	3211.22
999.04	3303.37
999.20	3289.04
999.36	3160.02
999.52	3504.07
999.68	3256.27
999.84	3403.72
1000.00	3276.75
1000.16	3368.91
1000.32	3250.13
1000.48	3313.61
1000.64	3151.82
1000.80	3139.54
1000.95	3082.19
1001.11	3131.34
1001.27	3018.71
1001.43	3205.07
1001.59	3084.24
1001.75	3104.72
1001.91	3108.82
1002.07	3076.05
1002.23	3026.90
1002.39	3063.76
1002.55	3041.23
1002.71	3084.24
1002.87	3055.57
1003.03	2951.12
1003.19	3127.25
1003.34	3205.07
1003.50	3098.58
1003.66	3182.54
1003.82	2996.18
1003.98	3002.32
1004.14	3106.77
1004.30	2930.64
1004.46	2969.55
1004.62	2973.65
1004.78	2949.08
1004.94	2879.44
1005.09	2965.46
1005.25	3035.09
1005.41	3008.47
1005.57	2906.07
1005.73	2932.69
1005.89	2895.83
1006.05	3041.23
1006.21	3086.29
1006.37	2895.83
1006.52	2766.81
1006.68	2865.11
1006.84	3000.27
1007.00	2944.98
1007.16	3051.47
1007.32	2869.20
1007.48	2820.05
1007.64	2926.55
1007.79	2854.87
1007.95	2803.67
1008.11	2822.10
1008.27	2914.26
1008.43	2742.23
1008.59	2803.67
1008.75	2877.40
1008.91	2848.72
1009.06	2770.90
1009.22	2801.62
1009.38	2770.90
1009.54	2754.52
1009.70	2793.43
1009.86	2705.37
1010.01	2836.44
1010.17	2711.51
1010.33	2723.80
1010.49	2793.43
1010.65	2789.33
1010.81	2693.08
1010.96	2734.04
1011.12	2666.46
1011.28	2656.22
1011.44	2748.37
1011.60	2588.63
1011.76	2703.32
1011.91	2705.37
1012.07	2617.30
1012.23	2605.02
1012.39	2600.92
1012.55	2705.37
1012.71	2572.25
1012.86	2697.17
1013.02	2537.43
1013.18	2670.55
1013.34	2596.82
1013.50	2670.55
1013.65	2648.02
1013.81	2545.63
1013.97	2588.63
1014.13	2609.11
1014.29	2533.34
1014.44	2697.17
1014.60	2512.86
1014.76	2486.23
1014.92	2588.63
1015.07	2668.50
1015.23	2584.54
1015.39	2475.99
1015.55	2666.46
1015.71	2592.73
1015.86	2428.89
1016.02	2365.40
1016.18	2502.62
1016.34	2465.75
1016.49	2523.10
1016.65	2516.95
1016.81	2375.64
1016.97	2527.19
1017.12	2539.48
1017.28	2385.88
1017.44	2406.36
1017.60	2355.16
1017.75	2533.34
1017.91	2437.08
1018.07	2478.04
1018.23	2420.70
1018.38	2406.36
1018.54	2324.44
1018.70	2369.50
1018.86	2420.70
1019.01	2426.84
1019.17	2394.08
1019.33	2459.61
1019.49	2402.27
1019.64	2377.69
1019.80	2387.93
1019.96	2498.52
1020.12	2377.69
1020.27	2353.12
1020.43	2353.12
1020.59	2363.36
1020.74	2353.12
1020.90	2377.69
1021.06	2240.48
1021.22	2396.12
1021.37	2400.22
1021.53	2301.92
1021.69	2275.29
1021.84	2228.19
1022.00	2285.53
1022.16	2263.01
1022.31	2285.53
1022.47	2312.16
1022.63	2355.16
1022.79	2181.09
1022.94	2357.21
1023.10	2322.40
1023.26	2267.10
1023.41	2269.15
1023.57	2279.39
1023.73	2299.87
1023.88	2230.24
1024.04	2154.46
1024.20	2162.66
1024.35	2269.15
1024.51	2336.73
1024.67	2287.58
1024.82	2365.40
1024.98	2164.70
1025.14	2248.67
1025.29	2211.81
1025.45	2246.62
1025.61	2150.37
1025.76	2144.22
1025.92	2275.29
1026.08	2224.09
1026.23	2246.62
1026.39	2246.62
1026.55	2127.84
1026.70	2133.98
1026.86	2174.94
1027.02	2187.23
1027.17	2187.23
1027.33	2232.29
1027.48	2164.70
1027.64	2088.93
1027.80	2093.02
1027.95	2234.33
1028.11	2152.42
1028.27	2205.66
1028.42	2146.27
1028.58	2185.18
1028.73	2105.31
1028.89	2176.99
1029.05	2234.33
1029.20	2197.47
>>>>>End Processed Spectral Data<<<<<
