SpectraSuite Data File
++++++++++++++++++++++++++++++++++++
Date: Fri Jun 02 14:53:28 CEST 2017
User: INFO_000
Dark Spectrum Present: No
Reference Spectrum Present: No
Number of Sampled Component Spectra: 1
Spectrometers: USB4H00879
Integration Time (usec): 80000 (USB4H00879)
Spectra Averaged: 1 (USB4H00879)
Boxcar Smoothing: 0 (USB4H00879)
Correct for Electrical Dark: No (USB4H00879)
Strobe/Lamp Enabled: No (USB4H00879)
Correct for Detector Non-linearity: No (USB4H00879)
Correct for Stray Light: No (USB4H00879)
Number of Pixels in Processed Spectrum: 3648
>>>>>Begin Processed Spectral Data<<<<<
345.13	1267.69
345.34	1267.69
345.56	1267.69
345.78	1271.79
345.99	1267.69
346.21	1705.96
346.42	1669.09
346.64	1621.99
346.86	1847.27
347.07	1693.67
347.29	1740.77
347.50	1613.80
347.72	1652.71
347.94	1691.62
348.15	1542.12
348.37	1632.23
348.59	1660.90
348.80	1593.32
349.02	1722.34
349.23	1724.39
349.45	1804.26
349.67	1787.88
349.88	1712.10
350.10	1931.23
350.31	1779.68
350.53	1689.57
350.75	1779.68
350.96	1714.15
351.18	1720.29
351.39	1732.58
351.61	1732.58
351.82	1691.62
352.04	1718.25
352.26	1658.85
352.47	1742.82
352.69	1755.11
352.90	1665.00
353.12	1777.64
353.34	1687.53
353.55	1818.60
353.77	1757.16
353.98	1648.61
354.20	1695.72
354.41	1751.01
354.63	1880.04
354.85	1912.80
355.06	1726.44
355.28	1656.81
355.49	1769.44
355.71	1834.98
355.92	1701.86
356.14	1816.55
356.35	1736.68
356.57	1716.20
356.79	1753.06
357.00	1683.43
357.22	1818.60
357.43	1693.67
357.65	1800.16
357.86	1718.25
358.08	1722.34
358.29	1755.11
358.51	1880.04
358.72	1794.02
358.94	1798.12
359.16	1736.68
359.37	1732.58
359.59	1779.68
359.80	1896.42
360.02	1757.16
360.23	1798.12
360.45	1777.64
360.66	1759.21
360.88	1710.05
361.09	1718.25
361.31	1798.12
361.52	1662.95
361.74	1837.03
361.95	1859.56
362.17	1732.58
362.38	1861.60
362.60	1869.80
362.81	1765.35
363.03	1734.63
363.24	1806.31
363.46	1904.61
363.67	1800.16
363.89	1751.01
364.10	1841.12
364.32	1771.49
364.53	1791.97
364.75	1665.00
364.96	1726.44
365.18	1867.75
365.39	1798.12
365.61	1683.43
365.82	1937.38
366.04	1812.45
366.25	1669.09
366.47	1945.57
366.68	1828.84
366.90	1789.92
367.11	1759.21
367.33	1757.16
367.54	1769.44
367.76	1763.30
367.97	1961.95
368.19	1753.06
368.40	1857.51
368.62	1708.01
368.83	1720.29
369.05	1796.07
369.26	1738.73
369.48	1781.73
369.69	1785.83
369.91	1845.22
370.12	1783.78
370.33	1824.74
370.55	1656.81
370.76	1748.97
370.98	1908.71
371.19	1699.81
371.41	1816.55
371.62	1697.77
371.84	1748.97
372.05	1869.80
372.27	1828.84
372.48	1810.40
372.69	1794.02
372.91	1925.09
373.12	1837.03
373.34	1777.64
373.55	1816.55
373.77	1871.84
373.98	1796.07
374.20	1959.91
374.41	1933.28
374.62	1785.83
374.84	1908.71
375.05	1855.46
375.27	1755.11
375.48	1818.60
375.70	1900.52
375.91	1857.51
376.12	1982.43
376.34	1806.31
376.55	1769.44
376.77	1957.86
376.98	1812.45
377.19	1691.62
377.41	1820.64
377.62	1824.74
377.84	1935.33
378.05	2015.20
378.27	1939.43
378.48	1890.28
378.69	1974.24
378.91	2009.06
379.12	1974.24
379.34	1888.23
379.55	1910.75
379.76	1857.51
379.98	1814.50
380.19	1916.90
380.41	1888.23
380.62	1918.95
380.83	1828.84
381.05	1767.40
381.26	2121.70
381.47	1888.23
381.69	1892.32
381.90	1953.76
382.12	1904.61
382.33	1916.90
382.54	1918.95
382.76	1968.10
382.97	1898.47
383.19	1732.58
383.40	2084.83
383.61	1982.43
383.83	1920.99
384.04	1939.43
384.25	1976.29
384.47	1955.81
384.68	1920.99
384.89	1896.42
385.11	2072.54
385.32	2017.25
385.54	1990.63
385.75	1900.52
385.96	1941.47
386.18	1947.62
386.39	1964.00
386.60	1992.67
386.82	1959.91
387.03	1912.80
387.24	2021.35
387.46	2052.06
387.67	2031.58
387.88	2111.46
388.10	1929.19
388.31	2068.45
388.52	2191.33
388.74	2125.79
388.95	2093.02
389.16	2050.02
389.38	2017.25
389.59	2121.70
389.80	2158.56
390.02	2197.47
390.23	2256.86
390.44	2021.35
390.66	2123.74
390.87	1957.86
391.08	2109.41
391.30	2326.49
391.51	2320.35
391.72	2246.62
391.94	2224.09
392.15	2355.16
392.36	2150.37
392.58	2248.67
392.79	2236.38
393.00	2226.14
393.22	2326.49
393.43	2365.40
393.64	2344.92
393.85	2277.34
394.07	2224.09
394.28	2357.21
394.49	2346.97
394.71	2439.13
394.92	2383.84
395.13	2303.96
395.35	2301.92
395.56	2220.00
395.77	2525.15
395.98	2353.12
396.20	2410.46
396.41	2422.75
396.62	2525.15
396.84	2459.61
397.05	2387.93
397.26	2320.35
397.47	2555.86
397.69	2367.45
397.90	2580.44
398.11	2559.96
398.32	2512.86
398.54	2508.76
398.75	2420.70
398.96	2615.26
399.18	2564.06
399.39	2529.24
399.60	2645.98
399.81	2412.51
400.03	2680.79
400.24	2797.53
400.45	2545.63
400.66	2719.70
400.88	2539.48
401.09	2883.54
401.30	2545.63
401.51	2883.54
401.73	2758.61
401.94	2719.70
402.15	2781.14
402.36	2953.17
402.58	2695.13
402.79	3016.66
403.00	2904.02
403.21	2789.33
403.43	2914.26
403.64	2981.84
403.85	2836.44
404.06	3008.47
404.27	2811.86
404.49	2891.73
404.70	2918.36
404.91	2967.51
405.12	2867.16
405.34	2863.06
405.55	3100.62
405.76	2922.45
405.97	2953.17
406.19	3317.71
406.40	2944.98
406.61	3168.21
406.82	3002.32
407.03	3041.23
407.25	2938.84
407.46	3295.18
407.67	3092.43
407.88	3368.91
408.09	3055.57
408.31	3117.01
408.52	3252.17
408.73	3149.78
408.94	3133.39
409.15	3252.17
409.37	3243.98
409.58	3282.89
409.79	3246.03
410.00	3243.98
410.21	3254.22
410.43	3250.13
410.64	3006.42
410.85	3325.90
411.06	3368.91
411.27	3399.63
411.48	3334.09
411.70	3305.42
411.91	3420.11
412.12	3549.13
412.33	3626.95
412.54	3389.39
412.76	3565.51
412.97	3571.66
413.18	3278.80
413.39	3489.74
413.60	3493.83
413.81	3516.36
414.03	3493.83
414.24	3475.40
414.45	3682.25
414.66	3479.50
414.87	3657.67
415.08	3465.16
415.30	3575.75
415.51	3606.47
415.72	3448.78
415.93	3706.82
416.14	3629.00
416.35	3772.36
416.56	3645.38
416.78	3796.93
416.99	3723.21
417.20	3690.44
417.41	3844.04
417.62	3833.80
417.83	3747.78
418.04	3743.69
418.26	3944.39
418.47	3715.02
418.68	4054.98
418.89	3856.33
419.10	4097.99
419.31	3985.35
419.52	3903.43
419.73	3973.06
419.95	4038.59
420.16	3960.77
420.37	3962.82
420.58	4038.59
420.79	3796.93
421.00	3919.81
421.21	4091.84
421.42	4050.88
421.63	4163.52
421.85	4181.95
422.06	4081.60
422.27	4108.23
422.48	4065.22
422.69	4224.96
422.90	4159.42
423.11	4118.47
423.32	4280.25
423.53	4370.37
423.75	4362.17
423.96	4517.82
424.17	4341.69
424.38	4558.78
424.59	4370.37
424.80	4581.31
425.01	4411.32
425.22	4257.73
425.43	4431.80
425.64	4569.02
425.85	4669.37
426.06	4532.15
426.28	4474.81
426.49	4474.81
426.70	4544.44
426.91	4571.07
427.12	4612.03
427.33	4710.33
427.54	4689.85
427.75	4792.25
427.96	4857.78
428.17	4734.90
428.38	4779.96
428.59	4861.88
428.80	4655.03
429.01	4777.91
429.23	4886.45
429.44	4999.09
429.65	4896.69
429.86	4935.60
430.07	4919.22
430.28	4921.27
430.49	4988.85
430.70	5126.07
430.91	5048.24
431.12	5019.57
431.33	5150.64
431.54	5101.49
431.75	5277.62
431.96	5207.98
432.17	4970.42
432.38	5195.70
432.59	5306.29
432.80	5308.34
433.01	5226.42
433.22	5324.72
433.43	5416.88
433.64	5386.16
433.85	5339.05
434.06	5511.08
434.27	5328.81
434.49	5439.40
434.70	5574.57
434.91	5384.11
435.12	5527.47
435.33	5365.68
435.54	5447.60
435.75	5447.60
435.96	5437.36
436.17	5359.53
436.38	5613.48
436.59	5672.87
436.80	5646.25
437.01	5822.38
437.22	5805.99
437.43	5752.74
437.64	5570.48
437.85	5758.89
438.06	5822.38
438.27	5615.53
438.48	5824.42
438.69	5945.25
438.90	5887.91
439.11	5597.10
439.32	5945.25
439.53	5853.09
439.74	5961.64
439.95	5959.59
440.16	5812.14
440.37	5875.62
440.57	5865.38
440.78	5963.68
440.99	6029.22
441.20	6068.13
441.41	5963.68
441.62	6084.52
441.83	6023.08
442.04	6121.38
442.25	6197.15
442.46	6231.97
442.67	6268.83
442.88	6406.05
443.09	6143.91
443.30	6238.11
443.51	6352.80
443.72	6541.21
443.93	6213.54
444.14	6500.25
444.35	6238.11
444.56	6533.02
444.77	6352.80
444.98	6340.51
445.19	6387.61
445.40	6567.84
445.61	6379.42
445.81	6653.85
446.02	6600.60
446.23	6731.67
446.44	6467.49
446.65	6553.50
446.86	6633.37
447.07	6637.47
447.28	6803.35
447.49	6592.41
447.70	6551.45
447.91	6713.24
448.12	6774.68
448.33	6895.51
448.54	6756.25
448.74	6569.88
448.95	6903.70
449.16	6674.33
449.37	7102.36
449.58	6799.26
449.79	7221.14
450.00	7018.39
450.21	7149.46
450.42	7260.05
450.63	7071.64
450.84	7114.64
451.05	7075.73
451.25	7139.22
451.46	7067.54
451.67	7278.48
451.88	7260.05
452.09	7233.43
452.30	7241.62
452.51	7278.48
452.72	7554.96
452.93	7636.88
453.13	7163.79
453.34	7147.41
453.55	7395.22
453.76	7536.52
453.97	7688.07
454.18	7518.09
454.39	7694.22
454.60	7503.76
454.81	7665.55
455.01	7761.80
455.22	7524.24
455.43	7616.40
455.64	7939.97
455.85	7935.88
456.06	8179.59
456.27	8017.80
456.48	7819.14
456.68	8114.05
456.89	8023.94
457.10	8075.14
457.31	7970.69
457.52	8073.09
457.73	8157.06
457.94	8368.00
458.14	8183.68
458.35	8589.18
458.56	8273.79
458.77	8218.50
458.98	8451.97
459.19	8554.37
459.39	8537.98
459.60	8628.09
459.81	8339.33
460.02	8687.48
460.23	8675.20
460.44	8710.01
460.65	8796.03
460.85	8822.65
461.06	8775.55
461.27	8802.17
461.48	8863.61
461.69	9047.93
461.89	8726.39
462.10	9066.36
462.31	8867.70
462.52	8812.41
462.73	9133.94
462.94	9121.65
463.14	9193.33
463.35	9123.70
463.56	9650.03
463.77	9391.98
463.98	9260.91
464.18	9248.63
464.39	9412.46
464.60	9752.43
464.81	9731.95
465.02	9779.05
465.23	9930.60
465.43	9600.88
465.64	9963.37
465.85	9848.68
466.06	9695.08
466.27	10176.36
466.47	10053.48
466.68	10086.25
466.89	10198.88
467.10	10192.74
467.30	10084.20
467.51	10282.85
467.72	10643.29
467.93	10162.02
468.14	10360.67
468.34	10682.20
468.55	10631.01
468.76	10680.16
468.97	10346.34
469.17	10768.22
469.38	10743.64
469.59	10884.95
469.80	10757.98
470.01	10606.43
470.21	11120.47
470.42	11208.53
470.63	11485.01
470.84	11235.16
471.04	11378.51
471.25	11376.47
471.46	11351.89
471.67	11560.78
471.87	11609.93
472.08	11767.63
472.29	11970.38
472.50	11716.43
472.70	11663.18
472.91	12025.67
473.12	12283.72
473.33	11992.90
473.53	12402.50
473.74	12320.58
473.95	12447.55
474.16	12654.40
474.36	12519.23
474.57	12760.89
474.78	12916.54
474.99	12771.13
475.19	12783.42
475.40	12799.80
475.61	13006.65
475.81	13268.79
476.02	13446.96
476.23	13066.04
476.44	13354.80
476.64	13659.95
476.85	13639.47
477.06	13635.38
477.27	14102.31
477.47	14053.16
477.68	14051.11
477.89	14153.51
478.09	14159.66
478.30	14053.16
478.51	14341.93
478.71	14522.15
478.92	14516.00
479.13	14724.90
479.34	14679.84
479.54	14604.07
479.75	14743.33
479.96	14829.34
480.16	14952.22
480.37	15052.57
480.58	15298.33
480.78	15191.83
480.99	15306.52
481.20	15675.15
481.41	15720.21
481.61	16017.16
481.82	15720.21
482.03	15683.34
482.23	15949.58
482.44	16176.91
482.65	16084.75
482.85	16011.02
483.06	16453.38
483.27	16291.59
483.47	16240.39
483.68	16611.07
483.89	16948.99
484.09	16865.02
484.30	16758.53
484.51	16965.37
484.71	17114.87
484.92	17139.45
485.13	17350.39
485.33	17417.97
485.54	17166.07
485.75	17557.24
485.95	17694.45
486.16	17647.35
486.37	17864.43
486.57	17907.44
486.78	17667.83
486.98	17858.29
487.19	18056.94
487.40	18276.07
487.60	17911.53
487.81	18415.34
488.02	18409.19
488.22	18265.83
488.43	18808.54
488.64	18654.95
488.84	18798.31
489.05	19072.73
489.25	18765.54
489.46	19578.58
489.67	19166.94
489.87	19523.29
490.08	19400.41
490.29	19259.10
490.49	19693.27
490.70	19685.08
490.90	19719.89
491.11	19738.32
491.32	19746.51
491.52	20055.76
491.73	20084.43
491.94	20016.85
492.14	19896.02
492.35	20289.23
492.55	20246.22
492.76	20549.32
492.97	20811.46
493.17	20627.14
493.38	20829.89
493.58	21057.21
493.79	20797.12
494.00	20829.89
494.20	21128.89
494.41	21505.72
494.61	21219.00
494.82	21329.59
495.02	21270.20
495.23	21579.45
495.44	21542.58
495.64	21878.45
495.85	21843.63
496.05	22038.19
496.26	21796.53
496.47	21888.69
496.67	21847.73
496.88	22374.06
497.08	21796.53
497.29	22578.86
497.49	22501.03
497.70	22587.05
497.91	22390.44
498.11	22894.24
498.32	22517.42
498.52	23051.94
498.73	23201.44
498.93	22847.14
499.14	23244.45
499.34	23185.05
499.55	23436.95
499.76	23004.83
499.96	23418.52
500.17	23240.35
500.37	23244.45
500.58	23475.87
500.78	23588.50
500.99	23809.68
501.19	24006.29
501.40	23879.32
501.60	23819.92
501.81	23910.04
502.02	24315.53
502.22	23916.18
502.43	23996.05
502.63	24430.22
502.84	24213.13
503.04	24479.37
503.25	24303.25
503.45	24497.80
503.66	24368.78
503.86	24438.41
504.07	24780.42
504.27	24712.84
504.48	25108.10
504.68	25073.28
504.89	25384.57
505.09	25038.47
505.30	25071.23
505.50	25390.72
505.71	25298.56
505.91	25216.64
506.12	25527.93
506.32	25306.75
506.53	25503.35
506.73	25720.44
506.94	25742.97
507.14	25605.75
507.35	25755.26
507.55	25544.31
507.76	26050.16
507.96	25949.81
508.17	26236.53
508.37	26130.03
508.58	26273.39
508.78	26275.44
508.99	26146.42
509.19	26492.52
509.40	26418.80
509.60	26252.91
509.81	26642.03
510.01	26404.46
510.22	26676.84
510.42	26633.83
510.63	27049.57
510.83	26766.95
511.04	26852.97
511.24	27004.52
511.44	26840.68
511.65	26920.55
511.85	26840.68
512.06	26941.03
512.26	27158.11
512.47	27336.29
512.67	27717.21
512.88	27569.76
513.08	27311.71
513.29	27725.40
513.49	27360.86
513.69	27557.47
513.90	27512.41
514.10	28137.04
514.31	27776.60
514.51	27960.92
514.72	27549.28
514.92	27922.01
515.13	27833.94
515.33	28159.57
515.53	28005.97
515.74	28178.00
515.94	28530.25
516.15	28288.59
516.35	28008.02
516.56	28579.40
516.76	28264.02
516.96	28374.61
517.17	28425.81
517.37	28694.09
517.58	28466.77
517.78	28880.46
517.99	28653.13
518.19	29118.02
518.39	28821.06
518.60	29322.82
518.80	28900.94
519.01	29308.48
519.21	29306.43
519.41	29034.05
519.62	29095.49
519.82	29566.52
520.03	29599.29
520.23	29382.21
520.43	29470.27
520.64	29861.43
520.84	29972.02
521.05	29834.81
521.25	29974.07
521.45	30166.58
521.66	29912.63
521.86	29703.74
522.07	30295.60
522.27	30477.87
522.47	30193.20
522.68	30578.22
522.88	30275.12
523.08	30746.15
523.29	30264.88
523.49	30643.76
523.70	30740.01
523.90	30862.89
524.10	30535.21
524.31	31321.63
524.51	30715.44
524.71	31362.59
524.92	31286.82
525.12	31129.12
525.33	31434.27
525.53	31495.71
525.73	31927.83
525.94	31540.77
526.14	31989.27
526.34	31905.31
526.55	31886.87
526.75	32110.10
526.95	31807.00
527.16	32011.80
527.36	32144.92
527.56	32683.53
527.77	32626.19
527.97	32204.31
528.17	32372.24
528.38	32783.88
528.58	32536.08
528.78	33050.12
528.99	32775.69
529.19	32822.80
529.39	32896.52
529.60	33299.97
529.80	33134.09
530.00	32935.43
530.21	33490.43
530.41	33306.12
530.61	33566.21
530.82	33615.36
531.02	33443.33
531.22	33605.12
531.43	33682.94
531.63	33601.02
531.83	33998.33
532.04	34643.44
532.24	34027.00
532.44	34053.62
532.64	34727.41
532.85	34520.56
533.05	34192.89
533.25	34391.54
533.46	34739.69
533.66	34934.25
533.86	34407.92
534.07	35075.56
534.27	35272.17
534.47	35233.25
534.67	35157.48
534.88	35104.23
535.08	35419.62
535.28	35677.66
535.49	35665.38
535.69	35610.08
535.89	35874.27
536.09	35704.29
536.30	36107.74
536.50	35681.76
536.70	36361.69
536.91	35974.62
537.11	36296.15
537.31	36380.12
537.51	36255.19
537.72	36742.61
537.92	36951.50
538.12	36627.92
538.32	36638.16
538.53	37092.81
538.73	36867.53
538.93	36619.73
539.13	37094.86
539.34	37250.50
539.54	36957.64
539.74	37371.33
539.94	37684.67
540.15	37352.90
540.35	37793.22
540.55	37584.32
540.75	37578.18
540.96	37912.00
541.16	37926.33
541.36	38016.44
541.56	38075.84
541.77	38065.60
541.97	38233.53
542.17	38462.90
542.37	37967.29
542.58	38344.12
542.78	38012.35
542.98	38249.91
543.18	38499.76
543.38	38852.02
543.59	39316.90
543.79	38714.80
543.99	38364.60
544.19	39353.77
544.40	38825.39
544.60	39202.22
544.80	39062.96
545.00	39257.51
545.20	39241.13
545.41	38940.08
545.61	39144.87
545.81	39298.47
546.01	39701.92
546.21	39409.06
546.42	39437.73
546.62	39501.22
546.82	39478.69
547.02	40060.32
547.22	39947.68
547.43	40265.11
547.63	40015.26
547.83	40091.04
548.03	40021.41
548.23	40252.83
548.44	40555.93
548.64	39904.67
548.84	40424.86
549.04	40316.31
549.24	40390.04
549.45	40990.09
549.65	40650.13
549.85	40670.61
550.05	41133.45
550.25	40557.97
550.45	41555.33
550.66	41151.88
550.86	41014.67
551.06	41041.29
551.26	41203.08
551.46	41262.47
551.66	41285.00
551.87	41250.19
552.07	41467.27
552.27	41520.52
552.47	41502.09
552.67	42132.86
552.87	41506.18
553.07	41614.72
553.28	42055.04
553.48	41616.77
553.68	41608.58
553.88	41760.13
554.08	41997.70
554.28	41985.41
554.48	42075.52
554.69	42052.99
554.89	42509.69
555.09	41883.01
555.29	41915.78
555.49	42169.72
555.69	42534.26
555.89	42775.92
556.10	42419.58
556.30	42177.92
556.50	42786.16
556.70	42220.92
556.90	43023.73
557.10	42481.02
557.30	42771.83
557.50	42925.42
557.70	42763.64
557.91	43144.56
558.11	42861.94
558.31	43142.51
558.51	42788.21
558.71	42894.71
558.91	43650.41
559.11	43101.55
559.31	43359.59
559.51	43066.73
559.72	43242.86
559.92	43431.27
560.12	43040.11
560.32	43431.27
560.52	43150.70
560.72	43529.58
560.92	43562.34
561.12	43408.75
561.32	44209.50
561.52	43371.88
561.72	44131.68
561.93	43670.89
562.13	44172.64
562.33	43804.00
562.53	44178.78
562.73	43840.87
562.93	43806.05
563.13	43963.75
563.33	43898.21
563.53	44152.16
563.73	43818.34
563.93	44103.01
564.13	44606.81
564.33	44150.11
564.53	44156.25
564.74	44600.66
564.94	44094.82
565.14	44725.59
565.34	44275.04
565.54	44537.18
565.74	44359.00
565.94	44684.63
566.14	44313.95
566.34	44453.21
566.54	44873.04
566.74	44238.17
566.94	44741.97
567.14	45231.44
567.34	44539.22
567.54	44567.90
567.74	44797.27
567.94	44780.88
568.14	45176.14
568.34	45129.04
568.54	45176.14
568.74	45045.07
568.94	44834.13
569.14	45098.32
569.34	45014.35
569.54	45268.30
569.75	44787.03
569.95	45352.27
570.15	45778.25
570.35	45524.30
570.55	45149.52
570.75	45235.53
570.95	45421.90
571.15	45479.24
571.35	45481.29
571.55	45722.95
571.75	45626.70
571.95	45544.78
572.15	45589.83
572.35	45978.95
572.55	45401.42
572.75	45854.02
572.95	45962.56
573.15	45995.33
573.35	45919.56
573.55	45462.86
573.75	46067.01
573.95	46345.53
574.15	45847.88
574.35	46249.28
574.55	45946.18
574.75	45942.08
574.95	45874.50
575.15	46060.87
575.34	46439.74
575.54	46603.58
575.74	46701.88
575.94	46718.26
576.14	47007.03
576.34	46452.03
576.54	46562.62
576.74	46880.05
576.94	46748.98
577.14	46773.56
577.34	46638.39
577.54	46603.58
577.74	47023.41
577.94	46800.18
578.14	46800.18
578.34	46869.81
578.54	46740.79
578.74	47043.89
578.94	47691.05
579.14	46996.79
579.34	46880.05
579.54	46761.27
579.74	47408.43
579.94	47232.30
580.13	47461.68
580.33	47885.61
580.53	47396.14
580.73	47732.01
580.93	47385.90
581.13	47162.67
581.33	47574.31
581.53	47635.75
581.73	48049.44
581.93	48168.22
582.13	47846.69
582.33	47762.73
582.53	47830.31
582.73	47846.69
582.92	48057.63
583.12	48244.00
583.32	47809.83
583.52	47815.97
583.72	48203.04
583.92	48055.59
584.12	48108.83
584.32	48946.45
584.52	48252.19
584.72	47895.85
584.92	48481.56
585.11	48563.48
585.31	48338.21
585.51	48074.02
585.71	48817.43
585.91	49095.95
586.11	48747.80
586.31	48616.73
586.51	48624.92
586.71	49065.24
586.91	48821.53
587.10	49089.81
587.30	49200.40
587.50	49374.48
587.70	48950.55
587.90	49323.28
588.10	49286.42
588.30	48895.25
588.50	49497.36
588.69	49057.04
588.89	49458.45
589.09	49214.74
589.29	49499.40
589.49	49532.17
589.69	49444.11
589.89	49743.11
590.08	49364.24
590.28	49460.49
590.48	49310.99
590.68	49620.23
590.88	49825.03
591.08	49417.49
591.28	49435.92
591.47	50306.30
591.67	49796.36
591.87	49818.89
592.07	49964.29
592.27	49882.37
592.47	50232.58
592.67	49984.77
592.86	50343.17
593.06	50427.13
593.26	50631.93
593.46	50445.57
593.66	50048.26
593.86	50253.06
594.05	50400.51
594.25	50744.57
594.45	50509.05
594.65	50203.91
594.85	50318.59
595.05	50871.54
595.24	50928.89
595.44	50349.31
595.64	50803.96
595.84	50812.15
596.04	50967.80
596.23	51078.39
596.43	51102.96
596.63	51119.35
596.83	51309.81
597.03	51504.37
597.22	51444.98
597.42	51213.55
597.62	51082.48
597.82	51682.54
598.02	51139.83
598.21	51717.35
598.41	51442.93
598.61	51645.68
598.81	51508.46
599.01	51899.62
599.20	51664.11
599.40	51893.48
599.60	52313.31
599.80	52516.06
600.00	51985.64
600.19	52589.79
600.39	52106.47
600.59	51881.19
600.79	52518.11
600.98	52172.00
601.18	52176.10
601.38	52727.00
601.58	52624.60
601.78	52673.76
601.97	52774.11
602.17	53392.59
602.37	53177.56
602.57	52774.11
602.76	52894.94
602.96	52557.02
603.16	53314.77
603.36	53003.48
603.55	53179.60
603.75	53116.12
603.95	53494.99
604.15	53677.26
604.34	53245.14
604.54	53720.27
604.74	53488.85
604.94	53540.05
605.13	53947.59
605.33	53691.60
605.53	53368.02
605.73	54195.40
605.92	53628.11
606.12	53884.11
606.32	54521.02
606.52	53621.97
606.71	54062.28
606.91	53988.55
607.11	54277.32
607.30	54109.38
607.50	54113.48
607.70	54580.42
607.90	54269.12
608.09	54222.02
608.29	54549.70
608.49	54535.36
608.68	54547.65
608.88	54518.98
609.08	54906.04
609.28	54514.88
609.47	53986.50
609.67	55022.78
609.87	54666.43
610.06	55180.47
610.26	54713.53
610.46	54600.89
610.66	54502.59
610.85	54903.99
611.05	55016.63
611.25	55129.27
611.44	55248.05
611.64	55145.65
611.84	54875.32
612.03	55188.66
612.23	55170.23
612.43	55090.36
612.62	54916.28
612.82	54975.67
613.02	54840.51
613.21	55344.31
613.41	55018.68
613.61	55301.30
613.80	54916.28
614.00	56052.90
614.20	55471.28
614.39	55383.22
614.59	55682.22
614.79	55338.16
614.98	55418.03
615.18	55612.59
615.38	55518.38
615.57	55315.64
615.77	55878.83
615.97	55747.76
616.16	54983.86
616.36	55342.26
616.56	56087.72
616.75	55442.61
616.95	55223.48
617.15	55442.61
617.34	55280.82
617.54	55647.41
617.74	56188.07
617.93	55542.96
618.13	55039.16
618.32	55606.45
618.52	54961.34
618.72	55741.61
618.91	55424.18
619.11	55694.51
619.31	55784.62
619.50	55657.65
619.70	55016.63
619.90	55252.15
620.09	55751.85
620.29	55311.54
620.48	55393.46
620.68	55614.64
620.88	54967.48
621.07	55758.00
621.27	55870.64
621.46	54912.19
621.66	55256.24
621.86	55227.57
622.05	55655.60
622.25	56079.53
622.44	55678.13
622.64	55549.10
622.84	55696.56
623.03	55934.12
623.23	55420.08
623.42	55327.92
623.62	55733.42
623.82	55747.76
624.01	55698.61
624.21	55954.60
624.40	55579.82
624.60	55342.26
624.80	55456.95
624.99	55270.58
625.19	55086.26
625.38	55545.01
625.58	55712.94
625.77	55778.48
625.97	55469.23
626.17	55418.03
626.36	55645.36
626.56	55444.66
626.75	54940.86
626.95	55530.67
627.14	55276.72
627.34	56226.98
627.54	55346.36
627.73	55346.36
627.93	55440.56
628.12	55491.76
628.32	55712.94
628.51	55458.99
628.71	55571.63
628.90	55469.23
629.10	55465.14
629.30	55751.85
629.49	55319.73
629.69	55497.91
629.88	55022.78
630.08	56153.26
630.27	55788.72
630.47	55659.69
630.66	55098.55
630.86	55581.87
631.05	54949.05
631.25	55481.52
631.44	55254.20
631.64	55280.82
631.84	55549.10
632.03	56022.19
632.23	55354.55
632.42	55884.97
632.62	55542.96
632.81	55270.58
633.01	55219.38
633.20	55637.17
633.40	55563.44
633.59	55813.29
633.79	55196.85
633.98	55383.22
634.18	55727.28
634.37	55778.48
634.57	55383.22
634.76	55899.31
634.96	55508.14
635.15	55692.46
635.35	55256.24
635.54	55278.77
635.74	55641.26
635.93	55164.09
636.13	56005.80
636.32	55454.90
636.52	55653.55
636.71	55174.33
636.91	55895.21
637.10	55588.02
637.30	55315.64
637.49	55291.06
637.69	55252.15
637.88	55792.81
638.08	54977.72
638.27	55696.56
638.46	55180.47
638.66	55293.11
638.85	55104.70
639.05	55317.68
639.24	55567.54
639.44	55069.88
639.63	55708.85
639.83	55237.81
640.02	55415.99
640.22	55387.31
640.41	55579.82
640.61	55379.12
640.80	55379.12
640.99	55633.07
641.19	56120.49
641.38	55588.02
641.58	55405.75
641.77	55954.60
641.97	55399.60
642.16	55823.53
642.36	55936.17
642.55	56095.91
642.74	55450.80
642.94	56235.17
643.13	55784.62
643.33	56075.43
643.52	55868.59
643.72	55936.17
643.91	55272.63
644.10	56032.42
644.30	56007.85
644.49	55723.18
644.69	55895.21
644.88	55821.48
645.08	55475.38
645.27	55917.74
645.46	55510.19
645.66	55661.74
645.85	55708.85
646.05	55839.92
646.24	55846.06
646.43	55938.22
646.63	56202.41
646.82	56054.95
647.02	56464.55
647.21	56040.62
647.40	55839.92
647.60	55796.91
647.79	56028.33
647.99	56419.49
648.18	55801.00
648.37	56194.21
648.57	56259.75
648.76	56401.06
648.96	56124.58
649.15	56157.35
649.34	56495.27
649.54	55948.46
649.73	56128.68
649.92	56091.82
650.12	55995.56
650.31	56452.26
650.51	55837.87
650.70	56517.79
650.89	56202.41
651.09	57017.50
651.28	56831.13
651.47	55985.32
651.67	56534.18
651.86	56835.23
652.06	56011.95
652.25	56345.76
652.44	55964.84
652.64	55821.48
652.83	56376.48
653.02	56155.30
653.22	56394.92
653.41	56341.67
653.60	55792.81
653.80	56140.97
653.99	56536.23
654.18	56485.03
654.38	55960.75
654.57	56460.45
654.76	56669.34
654.96	56132.78
655.15	56591.52
655.34	56632.48
655.54	56050.86
655.73	56317.09
655.92	56552.61
656.12	56085.67
656.31	56540.32
656.50	56319.14
656.70	56435.87
656.89	56302.76
657.08	56769.69
657.28	56542.37
657.47	56448.16
657.66	57064.60
657.86	56513.70
658.05	56798.37
658.24	56851.61
658.43	56444.07
658.63	56833.18
658.82	56835.23
659.01	56824.99
659.21	56738.97
659.40	57107.61
659.59	56521.89
659.79	56761.50
659.98	56931.48
660.17	56794.27
660.36	56894.62
660.56	56794.27
660.75	56849.56
660.94	57126.04
661.14	56532.13
661.33	56865.95
661.52	56450.21
661.71	56947.87
661.91	56956.06
662.10	56480.93
662.29	57023.64
662.49	56792.22
662.68	57066.65
662.87	56822.94
663.06	57056.41
663.26	56863.90
663.45	57451.67
663.64	57095.32
663.83	57089.18
664.03	56816.80
664.22	57193.62
664.41	57027.74
664.60	56939.68
664.80	57210.01
664.99	56640.67
665.18	56720.54
665.37	56898.72
665.57	57300.12
665.76	56824.99
665.95	57263.25
666.14	56886.43
666.34	57015.45
666.53	56710.30
666.72	57095.32
666.91	57005.21
667.11	56829.08
667.30	57001.11
667.49	57078.94
667.68	57117.85
667.87	56988.83
668.07	57191.58
668.26	57212.06
668.45	57431.19
668.64	57322.65
668.84	57517.20
669.03	57099.42
669.22	57719.95
669.41	57259.16
669.60	57220.25
669.80	57042.07
669.99	57863.31
670.18	57681.04
670.37	57115.80
670.57	57269.40
670.76	57164.95
670.95	57423.00
671.14	57291.93
671.33	56986.78
671.53	57801.87
671.72	57242.77
671.91	57384.08
672.10	57064.60
672.29	57207.96
672.48	57203.86
672.68	57498.77
672.87	57220.25
673.06	57033.88
673.25	57177.24
673.44	57091.22
673.64	56984.73
673.83	57246.87
674.02	57085.08
674.21	56734.88
674.40	57336.98
674.59	56781.98
674.79	57101.46
674.98	57267.35
675.17	57427.09
675.36	57130.14
675.55	57230.49
675.74	56980.63
675.94	56974.49
676.13	57445.52
676.32	57656.46
676.51	58016.91
676.70	57431.19
676.89	57678.99
677.08	57879.69
677.28	57167.00
677.47	57844.88
677.66	57474.20
677.85	57463.96
678.04	57511.06
678.23	57818.25
678.42	57597.07
678.62	56868.00
678.81	57484.43
679.00	57324.69
679.19	57908.36
679.38	57031.83
679.57	57078.94
679.76	57316.50
679.96	57715.86
680.15	57687.18
680.34	57457.81
680.53	57535.63
680.72	57449.62
680.91	57451.67
681.10	56966.30
681.29	57461.91
681.48	57169.05
681.68	57083.03
681.87	57369.75
682.06	57302.17
682.25	56851.61
682.44	57210.01
682.63	56886.43
682.82	56919.20
683.01	56753.31
683.20	56585.38
683.39	57076.89
683.59	56751.26
683.78	56802.46
683.97	56652.96
684.16	57132.18
684.35	56573.09
684.54	56949.92
684.73	56870.04
684.92	56972.44
685.11	56829.08
685.30	56671.39
685.49	57074.84
685.69	56605.86
685.88	56974.49
686.07	56503.46
686.26	57103.51
686.45	56868.00
686.64	56958.11
686.83	56798.37
687.02	56661.15
687.21	56968.35
687.40	56837.28
687.59	56726.69
687.78	56116.39
687.97	57250.97
688.16	56538.27
688.35	56724.64
688.54	56640.67
688.74	56345.76
688.93	56671.39
689.12	56626.34
689.31	56321.19
689.50	56874.14
689.69	56345.76
689.88	56016.04
690.07	56429.73
690.26	56304.80
690.45	56792.22
690.64	56194.21
690.83	56249.51
691.02	56118.44
691.21	56126.63
691.40	56038.57
691.59	56587.42
691.78	56079.53
691.97	56296.61
692.16	56345.76
692.35	56652.96
692.54	56640.67
692.73	55817.39
692.92	56059.05
693.11	56128.68
693.30	56317.09
693.49	55911.59
693.68	56239.27
693.87	56093.86
694.06	55420.08
694.25	55545.01
694.44	55661.74
694.63	55848.11
694.82	56110.25
695.01	55731.37
695.20	55737.52
695.39	55475.38
695.58	55764.14
695.77	55483.57
695.96	55180.47
696.15	55680.17
696.34	55725.23
696.53	54985.91
696.72	55866.54
696.91	54994.10
697.10	55405.75
697.29	55409.84
697.48	55680.17
697.67	55143.61
697.86	55129.27
698.05	54779.07
698.24	55743.66
698.43	54912.19
698.62	55018.68
698.81	54805.69
699.00	55764.14
699.19	54707.39
699.38	55219.38
699.57	54754.49
699.76	55590.06
699.95	54830.27
700.14	55002.30
700.32	55137.46
700.51	54766.78
700.70	54858.94
700.89	54998.20
701.08	54971.58
701.27	54752.44
701.46	54895.80
701.65	54138.05
701.84	54301.89
702.03	54332.61
702.22	54451.39
702.41	54662.33
702.60	54369.47
702.79	53974.22
702.98	54060.23
703.17	54099.14
703.35	54183.11
703.54	53943.50
703.73	54058.18
703.92	54416.58
704.11	53759.18
704.30	53470.42
704.49	53812.43
704.68	53454.03
704.87	53802.19
705.06	53945.54
705.25	54025.42
705.43	53955.78
705.62	54019.27
705.81	53787.85
706.00	53744.84
706.19	53191.89
706.38	53638.35
706.57	53626.06
706.76	53443.79
706.95	53185.75
707.14	53359.83
707.32	53400.79
707.51	53335.25
707.70	53224.66
707.89	53361.87
708.08	53198.04
708.27	53574.86
708.46	53349.59
708.65	52892.89
708.84	53236.95
709.02	53218.52
709.21	53026.01
709.40	52929.75
709.59	53195.99
709.78	52974.81
709.97	52970.71
710.16	52477.15
710.34	52630.75
710.53	52954.33
710.72	52729.05
710.91	52913.37
711.10	52669.66
711.29	53189.84
711.48	52651.23
711.66	52499.68
711.85	52184.29
712.04	52323.55
712.23	52323.55
712.42	52423.90
712.61	52481.25
712.80	52131.04
712.98	52227.30
713.17	52313.31
713.36	52673.76
713.55	52020.45
713.74	51965.16
713.93	52165.86
714.11	51987.69
714.30	51975.40
714.49	51772.65
714.68	52251.87
714.87	52067.56
715.06	51791.08
715.24	51449.07
715.43	51936.49
715.62	51653.87
715.81	51909.86
716.00	51887.34
716.18	51361.01
716.37	51449.07
716.56	51477.74
716.75	51520.75
716.94	51672.30
717.12	51102.96
717.31	51348.72
717.50	51082.48
717.69	51062.00
717.88	51256.56
718.06	51274.99
718.25	51553.52
718.44	50771.19
718.63	50851.06
718.82	50775.29
719.00	50609.40
719.19	50502.91
719.38	50908.41
719.57	50357.50
719.76	50365.70
719.94	50054.40
720.13	50220.29
720.32	50504.96
720.51	50484.48
720.69	50050.31
720.88	49736.97
721.07	50181.38
721.26	49696.01
721.44	49700.11
721.63	49732.87
721.82	49517.84
722.01	49861.90
722.20	50083.08
722.38	49601.80
722.57	49323.28
722.76	49560.84
722.95	49413.39
723.13	49329.42
723.32	48833.81
723.51	49040.66
723.70	49104.15
723.88	49243.41
724.07	49081.62
724.26	49073.43
724.44	48768.28
724.63	49530.12
724.82	48901.40
725.01	49069.33
725.19	48583.96
725.38	48848.15
725.57	48418.08
725.76	49020.18
725.94	48454.94
726.13	48829.72
726.32	48692.50
726.51	48530.72
726.69	48889.11
726.88	48913.69
727.07	48442.65
727.25	48465.18
727.44	48766.23
727.63	48516.38
727.82	48792.86
728.00	48522.52
728.19	48268.58
728.38	48428.32
728.56	48137.51
728.75	48536.86
728.94	48059.68
729.12	48772.38
729.31	48205.09
729.50	48586.01
729.69	48563.48
729.87	48024.87
730.06	48246.05
730.25	48569.63
730.43	48596.25
730.62	48112.93
730.81	48119.07
730.99	48338.21
731.18	48274.72
731.37	48575.77
731.55	48426.27
731.74	48563.48
731.93	48442.65
732.11	48461.08
732.30	48254.24
732.49	48399.65
732.67	48313.63
732.86	48428.32
733.05	48325.92
733.23	48170.27
733.42	48497.95
733.61	48014.63
733.79	48217.38
733.98	48743.70
734.17	48133.41
734.35	48297.25
734.54	48176.42
734.73	48459.04
734.91	48362.78
735.10	47766.82
735.29	48360.73
735.47	47205.68
735.66	48207.14
735.84	48241.95
736.03	47928.61
736.22	48098.59
736.40	47727.91
736.59	47924.52
736.78	48018.72
736.96	47600.94
737.15	47805.73
737.33	47596.84
737.52	48045.35
737.71	47406.38
737.89	47543.59
738.08	47641.90
738.27	47336.75
738.45	48323.87
738.64	47662.38
738.82	47828.26
739.01	47449.39
739.20	47871.27
739.38	47682.86
739.57	48049.44
739.75	47619.37
739.94	47396.14
740.13	47621.42
740.31	47574.31
740.50	47330.61
740.68	47461.68
740.87	47543.59
741.06	47750.44
741.24	47174.96
741.43	47473.96
741.61	47748.39
741.80	46957.88
741.99	47033.65
742.17	46955.83
742.36	47080.75
742.54	47217.97
742.73	47324.46
742.91	47568.17
743.10	46943.54
743.29	47695.14
743.47	47215.92
743.66	47174.96
743.84	47371.57
744.03	47052.08
744.21	47164.72
744.40	47498.54
744.59	47281.45
744.77	46923.06
744.96	47308.08
745.14	47287.60
745.33	47437.10
745.51	46746.93
745.70	47371.57
745.88	47215.92
746.07	47217.97
746.26	47166.77
746.44	46701.88
746.63	47017.27
746.81	47000.88
747.00	46267.71
747.18	46687.54
747.37	46726.46
747.55	46789.94
747.74	46910.77
747.92	46327.10
748.11	46675.26
748.29	46556.47
748.48	46488.89
748.66	46751.03
748.85	46572.86
749.03	46484.79
749.22	46609.72
749.41	46224.70
749.59	46470.46
749.78	46554.43
749.96	46243.13
750.15	46081.34
750.33	46574.91
750.52	46284.09
750.70	46114.11
750.89	45987.14
751.07	46224.70
751.26	46093.63
751.44	46159.17
751.63	46251.33
751.81	45868.36
752.00	46253.37
752.18	45909.32
752.37	45876.55
752.55	45649.22
752.74	45759.81
752.92	45581.64
753.10	45749.57
753.29	46167.36
753.47	45628.74
753.66	45825.35
753.84	45743.43
754.03	45555.02
754.21	45161.81
754.40	45446.47
754.58	45493.58
754.77	45542.73
754.95	45507.91
755.14	45397.32
755.32	45163.85
755.51	45192.53
755.69	44971.35
755.88	45399.37
756.06	45290.83
756.24	45370.70
756.43	45339.98
756.61	45520.20
756.80	44715.35
756.98	45047.12
757.17	45180.24
757.35	45401.42
757.54	44856.66
757.72	44920.15
757.90	44936.53
758.09	44666.20
758.27	44936.53
758.46	44979.54
758.64	44807.51
758.83	45319.50
759.01	45049.17
759.19	44946.77
759.38	45442.38
759.56	45376.84
759.75	45018.45
759.93	44952.91
760.12	44625.24
760.30	44715.35
760.48	44330.33
760.67	44520.79
760.85	44709.21
761.04	44827.99
761.22	44883.28
761.40	44135.77
761.59	44623.19
761.77	44275.04
761.96	44143.97
762.14	44156.25
762.32	43679.08
762.51	44072.29
762.69	44049.76
762.88	43957.60
763.06	44291.42
763.24	44164.45
763.43	44539.22
763.61	44113.25
763.80	44051.81
763.98	43853.15
764.16	43754.85
764.35	43820.39
764.53	43713.89
764.72	43801.96
764.90	44051.81
765.08	43869.54
765.27	43748.71
765.45	43644.26
765.63	43208.04
765.82	43992.42
766.00	43285.87
766.18	43455.85
766.37	43582.82
766.55	43445.61
766.74	43169.13
766.92	43076.97
767.10	43476.33
767.29	43443.56
767.47	42999.15
767.65	43242.86
767.84	42902.90
768.02	43363.69
768.20	42988.91
768.39	43177.33
768.57	42775.92
768.75	42872.18
768.94	43230.57
769.12	42913.14
769.30	42360.19
769.49	42612.09
769.67	42704.24
769.85	42036.61
770.04	42378.62
770.22	42286.46
770.40	42073.47
770.59	42337.66
770.77	42145.15
770.95	42272.12
771.14	41911.68
771.32	42141.05
771.50	42388.86
771.69	42065.28
771.87	42343.80
772.05	42243.45
772.24	41788.80
772.42	41842.05
772.60	41784.71
772.78	41522.57
772.97	41635.20
773.15	41670.02
773.33	41813.38
773.52	41411.98
773.70	41780.61
773.88	42038.65
774.07	41524.61
774.25	41770.37
774.43	41559.43
774.61	41536.90
774.80	41727.36
774.98	41602.44
775.16	41821.57
775.34	41713.03
775.53	41629.06
775.71	42276.22
775.89	41477.51
776.08	41637.25
776.26	41981.31
776.44	41768.32
776.62	41385.35
776.81	41360.78
776.99	41758.08
777.17	41799.04
777.35	41817.47
777.54	42190.20
777.72	41801.09
777.90	41766.27
778.08	41616.77
778.27	41796.99
778.45	42165.63
778.63	42300.79
778.81	42098.05
779.00	42374.52
779.18	42116.48
779.36	42495.35
779.54	42020.22
779.73	42091.90
779.91	42263.93
780.09	42204.54
780.27	42337.66
780.46	42179.96
780.64	42184.06
780.82	42235.26
781.00	42206.59
781.19	42607.99
781.37	42333.56
781.55	42673.52
781.73	42548.60
781.91	42130.81
782.10	42126.72
782.28	42399.10
782.46	42444.15
782.64	42767.73
782.82	42057.09
783.01	42646.90
783.19	42659.19
783.37	42628.47
783.55	42569.08
783.74	42573.17
783.92	41911.68
784.10	42814.83
784.28	42571.13
784.46	42237.31
784.64	42108.29
784.83	42616.18
785.01	42743.16
785.19	42366.33
785.37	42956.14
785.55	42198.40
785.74	41966.98
785.92	41743.75
786.10	42495.35
786.28	42089.85
786.46	41825.67
786.64	41964.93
786.83	41962.88
787.01	42302.84
787.19	41969.02
787.37	42382.71
787.55	42112.38
787.74	41547.14
787.92	42257.79
788.10	41639.30
788.28	41760.13
788.46	41921.92
788.64	41555.33
788.82	42255.74
789.01	41534.85
789.19	42102.14
789.37	41053.58
789.55	41702.79
789.73	41297.29
789.91	41446.79
790.09	41293.19
790.28	41307.53
790.46	40990.09
790.64	41239.95
790.82	41145.74
791.00	40713.62
791.18	40549.78
791.36	40988.05
791.55	40684.95
791.73	40785.30
791.91	40672.66
792.09	40105.37
792.27	40459.67
792.45	39994.78
792.63	40246.68
792.81	40144.28
793.00	39968.16
793.18	39781.79
793.36	39800.22
793.54	39677.35
793.72	39533.99
793.90	39525.80
794.08	39597.48
794.26	39609.76
794.44	39110.06
794.62	39034.28
794.81	39327.14
794.99	38729.14
795.17	39531.94
795.35	39165.35
795.53	39304.62
795.71	39122.35
795.89	38714.80
796.07	38489.52
796.25	38491.57
796.43	38258.10
796.61	38223.29
796.80	38372.79
796.98	38088.12
797.16	38167.99
797.34	38110.65
797.52	38288.82
797.70	38335.93
797.88	37985.72
798.06	37647.81
798.24	37965.24
798.42	37723.58
798.60	38041.02
798.78	37479.88
798.96	37680.58
799.14	37092.81
799.32	37311.94
799.51	36769.23
799.69	37279.18
799.87	37365.19
800.05	36724.18
800.23	36814.29
800.41	36834.77
800.59	36799.95
800.77	36097.50
800.95	36173.27
801.13	36580.82
801.31	36261.33
801.49	36089.31
801.67	36064.73
801.85	36197.85
802.03	35800.54
802.21	35653.09
802.39	35599.84
802.57	35651.04
802.75	35464.67
802.93	35356.13
803.11	35184.10
803.29	35337.70
803.47	34985.45
803.65	34938.35
803.83	35038.70
804.01	35184.10
804.19	34815.47
804.37	34817.52
804.55	34694.64
804.73	34758.13
804.91	34618.86
805.09	34526.71
805.27	34530.80
805.45	34285.04
805.63	34838.00
805.81	34010.62
805.99	34412.02
806.17	34256.37
806.35	34051.58
806.53	34121.21
806.71	33971.71
806.89	33828.35
807.07	33443.33
807.25	33818.11
807.43	33816.06
807.61	33578.50
807.79	33674.75
807.97	33459.71
808.15	33445.38
808.33	33273.35
808.51	33279.49
808.69	33031.69
808.87	32914.95
809.05	32826.89
809.23	32998.92
809.41	32986.63
809.59	32544.27
809.77	33105.41
809.95	32628.24
810.13	32513.55
810.31	32615.95
810.49	32275.99
810.67	32339.47
810.84	32593.42
811.02	32376.34
811.20	32196.12
811.38	32339.47
811.56	31747.61
811.74	31751.71
811.92	31829.53
812.10	32056.85
812.28	32118.29
812.46	31890.97
812.64	31817.24
812.82	31786.52
813.00	31718.94
813.18	31835.67
813.36	31325.73
813.53	31159.84
813.71	31421.98
813.89	31561.25
814.07	31421.98
814.25	31018.53
814.43	30912.04
814.61	31067.69
814.79	31010.34
814.97	30967.34
815.15	30758.44
815.33	30848.55
815.50	30697.00
815.68	30633.52
815.86	30905.90
816.04	30404.14
816.22	30479.92
816.40	30332.47
816.58	30348.85
816.76	30119.48
816.94	30576.17
817.11	30363.18
817.29	30256.69
817.47	30039.61
817.65	29630.01
817.83	30361.14
818.01	29922.87
818.19	30033.46
818.37	29879.86
818.54	29724.22
818.72	29500.99
818.90	30099.00
819.08	29398.59
819.26	29365.82
819.44	29427.26
819.62	29828.66
819.80	29376.06
819.97	29394.50
820.15	29609.53
820.33	29253.19
820.51	29564.48
820.69	29050.44
820.87	29199.94
821.05	29498.94
821.22	29179.46
821.40	28812.87
821.58	28853.83
821.76	28597.84
821.94	28956.23
822.12	29150.79
822.29	29003.33
822.47	28710.47
822.65	28892.74
822.83	28710.47
823.01	28507.72
823.19	28606.03
823.36	28556.88
823.54	28341.84
823.72	28163.67
823.90	28845.64
824.08	28264.02
824.25	28309.07
824.43	28266.06
824.61	28352.08
824.79	28313.17
824.97	28001.88
825.15	28087.89
825.32	28333.65
825.50	27598.43
825.68	27694.68
825.86	28161.62
826.04	28030.55
826.21	27944.53
826.39	27905.62
826.57	27960.92
826.75	27371.10
826.93	27592.28
827.10	27516.51
827.28	27754.07
827.46	27827.80
827.64	27553.37
827.81	27315.81
827.99	27670.11
828.17	27807.32
828.35	27063.91
828.53	27436.64
828.70	27203.17
828.88	27299.42
829.06	27291.23
829.24	27375.20
829.41	27180.64
829.59	27352.67
829.77	27403.87
829.95	26941.03
830.12	26938.98
830.30	27217.50
830.48	27213.41
830.66	26996.32
830.84	27129.44
831.01	26934.88
831.19	26633.83
831.37	27002.47
831.55	26691.18
831.72	26779.24
831.90	26717.80
832.08	26777.19
832.25	26461.80
832.43	26265.20
832.61	26412.65
832.79	26287.73
832.96	26467.95
833.14	26248.82
833.32	26275.44
833.50	26447.47
833.67	26439.28
833.85	26406.51
834.03	26228.34
834.20	26424.94
834.38	26070.64
834.56	26310.25
834.74	26134.13
834.91	26158.70
835.09	26097.27
835.27	25890.42
835.44	25796.21
835.62	25695.86
835.80	25587.32
835.98	25720.44
836.15	25669.24
836.33	25824.89
836.51	26029.68
836.68	25693.82
836.86	25855.61
837.04	25759.35
837.21	25534.07
837.39	25486.97
837.57	25802.36
837.75	25722.49
837.92	25196.16
838.10	25757.30
838.28	25288.32
838.45	25611.90
838.63	25245.31
838.81	25546.36
838.98	25501.31
839.16	25077.38
839.34	25239.17
839.51	25255.55
839.69	25069.19
839.87	25280.13
840.04	25304.70
840.22	25265.79
840.40	25108.10
840.57	24934.02
840.75	25144.96
840.93	24653.45
841.10	25122.43
841.28	25259.65
841.46	24942.21
841.63	24895.11
841.81	24852.10
841.98	25208.45
842.16	24817.29
842.34	24968.84
842.51	24714.89
842.69	25157.25
842.87	24514.19
843.04	24893.06
843.22	24534.67
843.40	24321.68
843.57	24542.86
843.75	24456.84
843.92	24682.12
844.10	24536.71
844.28	24530.57
844.45	24549.00
844.63	24340.11
844.81	24336.01
844.98	24497.80
845.16	24143.50
845.33	24475.27
845.51	24364.68
845.69	24235.66
845.86	24243.85
846.04	24188.56
846.21	24241.81
846.39	24452.75
846.57	23858.84
846.74	24008.34
846.92	24030.87
847.09	23854.74
847.27	23770.77
847.45	24225.42
847.62	24381.07
847.80	23766.68
847.97	23854.74
848.15	23864.98
848.32	23756.44
848.50	23819.92
848.68	23576.22
848.85	23754.39
849.03	23688.85
849.20	23463.58
849.38	23443.10
849.56	23721.62
849.73	23404.19
849.91	23787.16
850.08	24010.39
850.26	23234.21
850.43	23559.83
850.61	23469.72
850.78	23205.53
850.96	23266.97
851.14	23148.19
851.31	23381.66
851.49	23107.23
851.66	23410.33
851.84	23150.24
852.01	23297.69
852.19	23297.69
852.36	23164.57
852.54	23258.78
852.71	23160.48
852.89	23021.22
853.07	23205.53
853.24	23264.92
853.42	23207.58
853.59	23248.54
853.77	22949.54
853.94	23410.33
854.12	23217.82
854.29	22808.23
854.47	22814.37
854.64	23019.17
854.82	23131.81
854.99	23193.25
855.17	22810.28
855.34	22691.49
855.52	22668.97
855.69	23076.51
855.87	22613.67
856.04	22427.31
856.22	22724.26
856.39	22541.99
856.57	22566.57
856.74	22312.62
856.92	22529.70
857.09	22288.04
857.27	22646.44
857.44	22537.90
857.62	22775.46
857.79	22482.60
857.97	22564.52
858.14	22458.03
858.32	22314.67
858.49	22296.24
858.67	22056.62
858.84	21931.70
859.02	22183.60
859.19	22030.00
859.37	22079.15
859.54	22052.53
859.72	22286.00
859.89	22359.72
860.06	21913.27
860.24	21939.89
860.41	22224.56
860.59	21868.21
860.76	22372.01
860.94	22017.71
861.11	21927.60
861.29	21761.72
861.46	21733.04
861.64	21374.65
861.81	21862.07
861.98	21640.89
862.16	21526.20
862.33	21386.94
862.51	21724.85
862.68	21835.44
862.86	21458.62
863.03	21634.74
863.21	21624.50
863.38	21632.69
863.55	21171.90
863.73	21761.72
863.90	21192.38
864.08	21540.54
864.25	21397.18
864.43	21481.14
864.60	21173.95
864.77	21143.23
864.95	21403.32
865.12	20876.99
865.30	21286.59
865.47	21223.10
865.64	20805.31
865.82	21315.26
865.99	21309.11
866.17	20737.73
866.34	21143.23
866.51	20936.38
866.69	21118.65
866.86	21161.66
867.04	20752.07
867.21	20862.66
867.38	20760.26
867.56	20811.46
867.73	20575.94
867.91	20627.14
868.08	20903.62
868.25	20758.21
868.43	20547.27
868.60	20582.09
868.78	20291.27
868.95	20688.58
869.12	20295.37
869.30	20393.67
869.47	20758.21
869.64	20213.45
869.82	20403.91
869.99	20360.91
870.16	20631.24
870.34	20559.56
870.51	20514.50
870.69	20068.05
870.86	20287.18
871.03	20209.36
871.21	19955.41
871.38	20287.18
871.55	20199.12
871.73	20061.90
871.90	19918.54
872.07	19742.42
872.25	19719.89
872.42	19846.87
872.59	19723.99
872.77	19885.78
872.94	19764.95
873.11	19834.58
873.29	19769.04
873.46	19652.31
873.63	19850.96
873.81	19617.49
873.98	19371.74
874.15	19437.27
874.33	19513.05
874.50	19289.82
874.67	19574.49
874.85	19605.20
875.02	19416.79
875.19	18962.14
875.37	19306.20
875.54	19117.79
875.71	19285.72
875.88	18960.09
876.06	19316.44
876.23	18970.33
876.40	18947.81
876.58	19031.77
876.75	19037.92
876.92	18837.22
877.10	18986.72
877.27	18720.48
877.44	18652.90
877.61	18681.57
877.79	18624.23
877.96	18579.17
878.13	18513.64
878.31	18388.71
878.48	18527.97
878.65	18505.45
878.82	18351.85
879.00	18446.05
879.17	18292.46
879.34	18353.90
879.51	18120.43
879.69	18054.89
879.86	18200.30
880.03	18048.75
880.21	18323.18
880.38	18226.92
880.55	18087.66
880.72	18249.45
880.90	18077.42
881.07	18054.89
881.24	18079.47
881.41	18175.72
881.59	17878.77
881.76	18163.43
881.93	17647.35
882.10	17882.86
882.28	17579.76
882.45	17864.43
882.62	17700.59
882.79	17563.38
882.96	17444.60
883.14	17690.35
883.31	17800.94
883.48	17739.51
883.65	17426.17
883.83	17745.65
884.00	17618.68
884.17	17501.94
884.34	17581.81
884.51	17415.93
884.69	17551.09
884.86	17190.65
885.03	17387.25
885.20	17264.38
885.38	17440.50
885.55	17284.86
885.72	17356.54
885.89	17282.81
886.06	17123.07
886.24	17336.06
886.41	17166.07
886.58	17338.10
886.75	17344.25
886.92	16942.85
887.10	17424.12
887.27	16922.37
887.44	17211.13
887.61	17039.10
887.78	17342.20
887.95	17329.91
888.13	16547.59
888.30	16942.85
888.47	16676.61
888.64	16969.47
888.81	16690.95
888.99	16686.85
889.16	16647.94
889.33	16856.83
889.50	16707.33
889.67	16412.42
889.84	16666.37
890.01	16781.06
890.19	16715.52
890.36	16764.67
890.53	16781.06
890.70	16566.02
890.87	16381.70
891.04	16582.40
891.22	16705.28
891.39	16283.40
891.56	16168.71
891.73	16195.34
891.90	16105.23
892.07	16273.16
892.24	16217.86
892.42	16076.55
892.59	15914.77
892.76	16015.12
892.93	16056.08
893.10	16197.38
893.27	16062.22
893.44	15935.24
893.61	16275.21
893.79	16015.12
893.96	16168.71
894.13	16162.57
894.30	15992.59
894.47	16142.09
894.64	16111.37
894.81	15861.52
894.98	15947.53
895.15	15904.53
895.33	15871.76
895.50	15949.58
895.67	15914.77
895.84	15845.13
896.01	16037.64
896.18	15812.37
896.35	15843.09
896.52	15632.15
896.69	15824.65
896.86	15781.65
897.04	15927.05
897.21	15595.28
897.38	15691.54
897.55	15804.17
897.72	15959.82
897.89	15615.76
898.06	15855.37
898.23	15830.80
898.40	15695.63
898.57	15849.23
898.74	15638.29
898.91	15591.19
899.08	15765.26
899.26	15681.30
899.43	15824.65
899.60	15838.99
899.77	15699.73
899.94	15427.35
900.11	15496.98
900.28	15372.05
900.45	15769.36
900.62	15523.60
900.79	15595.28
900.96	15521.56
901.13	15626.00
901.30	15515.41
901.47	15486.74
901.64	15384.34
901.81	15539.99
901.98	15687.44
902.15	15660.82
902.32	15296.28
902.49	15640.34
902.66	15623.95
902.83	15523.60
903.01	15548.18
903.18	15648.53
903.35	15449.88
903.52	15585.04
903.69	15605.52
903.86	15556.37
904.03	15560.47
904.20	15671.06
904.37	15742.74
904.54	15503.12
904.71	15437.59
904.88	15445.78
905.05	15386.39
905.22	15460.12
905.39	15443.73
905.56	15386.39
905.73	15402.77
905.90	15503.12
906.07	15380.25
906.24	15599.38
906.41	15380.25
906.58	15654.67
906.75	15400.72
906.92	15320.85
907.09	15425.30
907.26	15453.97
907.43	15464.21
907.60	15259.42
907.77	15509.27
907.93	15394.58
908.10	15367.96
908.27	15408.92
908.44	15339.29
908.61	15136.54
908.78	15191.83
908.95	15499.03
909.12	15365.91
909.29	15159.06
909.46	15286.04
909.63	15187.74
909.80	15306.52
909.97	15107.87
910.14	15245.08
910.31	15114.01
910.48	15165.21
910.65	15163.16
910.82	15181.59
910.99	15011.61
911.16	14688.03
911.33	14935.84
911.50	15011.61
911.66	15077.15
911.83	14905.12
912.00	15017.75
912.17	14642.98
912.34	14774.05
912.51	14892.83
912.68	14667.55
912.85	14827.29
913.02	14808.86
913.19	14788.38
913.36	14796.57
913.53	15036.19
913.70	14438.18
913.86	14837.53
914.03	14583.59
914.20	14612.26
914.37	14397.22
914.54	14524.19
914.71	14726.94
914.88	14468.90
915.05	14503.71
915.22	14360.36
915.39	14468.90
915.55	14450.47
915.72	14239.53
915.89	14153.51
916.06	14126.89
916.23	14159.66
916.40	13975.34
916.57	14087.98
916.74	13963.05
916.91	14219.05
917.07	14049.07
917.24	13772.59
917.41	14116.65
917.58	13825.84
917.75	13756.21
917.92	13842.22
918.09	13666.10
918.26	13807.41
918.42	13737.77
918.59	13559.60
918.76	13483.83
918.93	13436.72
919.10	13461.30
919.27	13641.52
919.44	13356.85
919.60	13504.31
919.77	13195.06
919.94	13479.73
920.11	13098.81
920.28	13301.56
920.45	13233.97
920.61	13338.42
920.78	13254.45
920.95	13164.34
921.12	13070.14
921.29	13068.09
921.46	12896.06
921.62	12959.55
921.79	12805.95
921.96	12685.12
922.13	12627.78
922.30	12738.37
922.47	12670.78
922.63	12670.78
922.80	12691.26
922.97	12605.25
923.14	12304.20
923.31	12515.14
923.47	12269.38
923.64	12648.26
923.81	12359.49
923.98	12226.37
924.15	12244.81
924.32	12324.68
924.48	12154.69
924.65	12291.91
924.82	11980.62
924.99	11906.89
925.15	11724.62
925.32	11960.14
925.49	11913.03
925.66	11771.72
925.83	11790.16
925.99	11685.71
926.16	11679.57
926.33	11702.09
926.50	11450.19
926.67	11702.09
926.83	11636.56
927.00	11489.10
927.17	11478.86
927.34	11263.83
927.50	11300.69
927.67	11431.76
927.84	11233.11
928.01	11163.48
928.17	11001.69
928.34	10999.64
928.51	11044.70
928.68	10891.10
928.84	11059.03
929.01	10895.19
929.18	10805.08
929.35	10749.79
929.51	10860.38
929.68	10585.95
929.85	10794.84
930.02	10764.12
930.18	10528.61
930.35	10608.48
930.52	10524.51
930.69	10598.24
930.85	10538.85
931.02	10213.22
931.19	10481.50
931.36	10299.23
931.52	10276.71
931.69	10063.72
931.86	10364.77
932.02	10178.40
932.19	10018.66
932.36	10084.20
932.53	9961.32
932.69	9881.45
932.86	9951.08
933.03	9875.31
933.19	9615.21
933.36	9748.33
933.53	9756.52
933.70	9613.17
933.86	9588.59
934.03	9604.97
934.20	9418.61
934.36	9310.07
934.53	9205.62
934.70	9191.28
934.86	9176.95
935.03	8959.86
935.20	9131.89
935.36	9002.87
935.53	8939.38
935.70	8744.83
935.86	8810.36
936.03	8689.53
936.20	8466.30
936.36	8628.09
936.53	8574.85
936.70	8384.38
936.86	8499.07
937.03	8316.80
937.20	8392.58
937.36	8163.20
937.53	8187.78
937.70	8046.47
937.86	7802.76
938.03	7780.23
938.20	7886.73
938.36	7673.74
938.53	7634.83
938.70	7415.69
938.86	7475.09
939.03	7401.36
939.20	7147.41
939.36	7204.75
939.53	7010.20
939.70	7403.41
939.86	7016.34
940.03	6926.23
940.19	6858.65
940.36	6854.55
940.53	6743.96
940.69	6698.91
940.86	6623.13
941.03	6412.19
941.19	6399.90
941.36	6475.68
941.52	6311.84
941.69	6356.90
941.86	6264.74
942.02	6107.04
942.19	6100.90
942.35	6184.87
942.52	6164.39
942.69	6102.95
942.85	5762.98
943.02	5971.88
943.18	5959.59
943.35	5775.27
943.52	5695.40
943.68	5758.89
943.85	5648.30
944.01	5765.03
944.18	5703.59
944.35	5552.04
944.51	5597.10
944.68	5359.53
944.84	5369.77
945.01	5259.18
945.17	5509.04
945.34	5449.64
945.51	5476.27
945.67	5328.81
945.84	5277.62
946.00	5474.22
946.17	5363.63
946.33	5355.44
946.50	5459.88
946.67	5396.40
946.83	5261.23
947.00	5504.94
947.16	5257.14
947.33	5222.32
947.49	5410.73
947.66	5167.03
947.82	5269.42
947.99	5253.04
948.16	5242.80
948.32	5271.47
948.49	5269.42
948.65	5308.34
948.82	5244.85
948.98	5298.10
949.15	5197.74
949.31	5255.09
949.48	5222.32
949.64	5285.81
949.81	5367.73
949.97	5226.42
950.14	5287.86
950.30	5246.90
950.47	5324.72
950.63	5169.07
950.80	5334.96
950.96	5150.64
951.13	5439.40
951.30	5388.21
951.46	5232.56
951.63	5398.45
951.79	5418.93
951.96	5298.10
952.12	5398.45
952.29	5418.93
952.45	5144.50
952.62	5312.43
952.78	5341.10
952.94	5263.28
953.11	5316.53
953.27	5396.40
953.44	5470.12
953.60	5377.97
953.77	5398.45
953.93	5373.87
954.10	5388.21
954.26	5445.55
954.43	5324.72
954.59	5484.46
954.76	5541.80
954.92	5414.83
955.09	5408.69
955.25	5210.03
955.42	5605.29
955.58	5390.25
955.75	5398.45
955.91	5312.43
956.07	5337.01
956.24	5457.84
956.40	5642.15
956.57	5445.55
956.73	5375.92
956.90	5416.88
957.06	5457.84
957.23	5408.69
957.39	5330.86
957.56	5437.36
957.72	5287.86
957.88	5408.69
958.05	5427.12
958.21	5562.28
958.38	5365.68
958.54	5439.40
958.71	5537.71
958.87	5509.04
959.03	5414.83
959.20	5511.08
959.36	5283.76
959.53	5468.08
959.69	5400.49
959.85	5556.14
960.02	5214.13
960.18	5433.26
960.35	5408.69
960.51	5601.19
960.68	5265.33
960.84	5490.60
961.00	5427.12
961.17	5314.48
961.33	5400.49
961.50	5373.87
961.66	5296.05
961.82	5453.74
961.99	5433.26
962.15	5353.39
962.31	5287.86
962.48	5492.65
962.64	5459.88
962.81	5384.11
962.97	5408.69
963.13	5402.54
963.30	5361.58
963.46	5246.90
963.62	5351.34
963.79	5443.50
963.95	5337.01
964.12	5304.24
964.28	5320.62
964.44	5230.51
964.61	5412.78
964.77	5408.69
964.93	5373.87
965.10	5441.45
965.26	5308.34
965.42	5240.75
965.59	5269.42
965.75	5255.09
965.92	5265.33
966.08	5246.90
966.24	5398.45
966.41	5238.70
966.57	5283.76
966.73	5171.12
966.90	5304.24
967.06	5300.14
967.22	5216.18
967.39	5230.51
967.55	5124.02
967.71	5210.03
967.88	5136.31
968.04	5173.17
968.20	5253.04
968.37	5203.89
968.53	5083.06
968.69	5113.78
968.85	5113.78
969.02	5111.73
969.18	5207.98
969.34	5175.22
969.51	5044.15
969.67	5117.87
969.83	4970.42
970.00	5158.83
970.16	5027.76
970.32	5093.30
970.48	5130.16
970.65	4976.56
970.81	4997.04
970.97	5019.57
971.14	4816.82
971.30	5097.39
971.46	4958.13
971.63	5029.81
971.79	5066.67
971.95	4976.56
972.11	4908.98
972.28	4999.09
972.44	4923.32
972.60	4802.49
972.76	4951.99
972.93	4743.10
973.09	4915.12
973.25	4995.00
973.42	4794.29
973.58	4941.75
973.74	4958.13
973.90	4929.46
974.07	4857.78
974.23	4831.16
974.39	4863.93
974.55	4837.30
974.72	4874.17
974.88	4767.67
975.04	4702.14
975.20	4708.28
975.37	4712.38
975.53	4732.86
975.69	4769.72
975.85	4765.62
976.01	4687.80
976.18	4745.14
976.34	4630.46
976.50	4794.29
976.66	4769.72
976.83	4523.96
976.99	4630.46
977.15	4677.56
977.31	4466.62
977.47	4626.36
977.64	4622.27
977.80	4569.02
977.96	4569.02
978.12	4661.18
978.29	4435.90
978.45	4546.49
978.61	4501.44
978.77	4573.11
978.93	4444.09
979.10	4456.38
979.26	4493.24
979.42	4470.72
979.58	4405.18
979.74	4394.94
979.91	4399.04
980.07	4427.71
980.23	4444.09
980.39	4521.92
980.55	4464.57
980.71	4417.47
980.88	4417.47
981.04	4456.38
981.20	4392.89
981.36	4411.32
981.52	4339.65
981.68	4317.12
981.85	4415.42
982.01	4186.05
982.17	4435.90
982.33	4179.90
982.49	4270.01
982.65	4411.32
982.82	4247.49
982.98	4165.57
983.14	4243.39
983.30	4177.86
983.46	4450.24
983.62	4192.19
983.79	4104.13
983.95	4177.86
984.11	4024.26
984.27	4128.70
984.43	4075.46
984.59	4134.85
984.75	4216.77
984.91	4210.62
985.08	4095.94
985.24	4071.36
985.40	3999.68
985.56	4059.07
985.72	4079.55
985.88	4114.37
986.04	3956.68
986.20	3968.96
986.37	4108.23
986.53	3989.44
986.69	3975.11
986.85	3942.34
987.01	3887.04
987.17	3930.05
987.33	3997.64
987.49	3952.58
987.65	3858.37
987.82	3880.90
987.98	3764.17
988.14	4038.59
988.30	3889.09
988.46	3868.61
988.62	3805.13
988.78	3801.03
988.94	3831.75
989.10	3758.02
989.26	3794.89
989.42	3588.04
989.59	3657.67
989.75	3735.50
989.91	3753.93
990.07	3547.08
990.23	3692.49
990.39	3760.07
990.55	3776.45
990.71	3610.57
990.87	3690.44
991.03	3688.39
991.19	3411.92
991.35	3553.23
991.51	3690.44
991.67	3839.94
991.83	3555.27
992.00	3555.27
992.16	3696.58
992.32	3522.51
992.48	3629.00
992.64	3536.84
992.80	3532.75
992.96	3432.40
993.12	3510.22
993.28	3502.03
993.44	3422.16
993.60	3551.18
993.76	3444.68
993.92	3602.38
994.08	3450.83
994.24	3346.38
994.40	3420.11
994.56	3524.55
994.72	3348.43
994.88	3370.96
995.04	3332.05
995.20	3475.40
995.36	3432.40
995.52	3422.16
995.68	3403.72
995.84	3305.42
996.00	3499.98
996.16	3307.47
996.32	3229.65
996.48	3256.27
996.64	3325.90
996.80	3266.51
996.96	3139.54
997.12	3243.98
997.28	3207.12
997.44	3133.39
997.60	3127.25
997.76	3223.50
997.92	3160.02
998.08	3315.66
998.24	2967.51
998.40	3131.34
998.56	3186.64
998.72	3069.91
998.88	3092.43
999.04	3035.09
999.20	3065.81
999.36	2985.94
999.52	3155.92
999.68	3057.62
999.84	3008.47
1000.00	3061.71
1000.16	3117.01
1000.32	2869.20
1000.48	3026.90
1000.64	2936.79
1000.80	2740.18
1000.95	2838.48
1001.11	2990.03
1001.27	2904.02
1001.43	2861.01
1001.59	2793.43
1001.75	2770.90
1001.91	2858.96
1002.07	2787.29
1002.23	2715.61
1002.39	2609.11
1002.55	2744.28
1002.71	2674.65
1002.87	2965.46
1003.03	2875.35
1003.19	2858.96
1003.34	2883.54
1003.50	2703.32
1003.66	2854.87
1003.82	2676.70
1003.98	2779.09
1004.14	2777.05
1004.30	2678.74
1004.46	2656.22
1004.62	2770.90
1004.78	2658.26
1004.94	2578.39
1005.09	2674.65
1005.25	2676.70
1005.41	2693.08
1005.57	2510.81
1005.73	2590.68
1005.89	2535.39
1006.05	2543.58
1006.21	2588.63
1006.37	2465.75
1006.52	2519.00
1006.68	2475.99
1006.84	2543.58
1007.00	2480.09
1007.16	2570.20
1007.32	2328.54
1007.48	2529.24
1007.64	2572.25
1007.79	2465.75
1007.95	2338.78
1008.11	2549.72
1008.27	2471.90
1008.43	2426.84
1008.59	2445.27
1008.75	2314.20
1008.91	2488.28
1009.06	2469.85
1009.22	2338.78
1009.38	2428.89
1009.54	2351.07
1009.70	2236.38
1009.86	2447.32
1010.01	2392.03
1010.17	2260.96
1010.33	2334.68
1010.49	2289.63
1010.65	2633.69
1010.81	2256.86
1010.96	2320.35
1011.12	2189.28
1011.28	2146.27
1011.44	2465.75
1011.60	2242.53
1011.76	2248.67
1011.91	2144.22
1012.07	2217.95
1012.23	2119.65
1012.39	2199.52
1012.55	2199.52
1012.71	2211.81
1012.86	2254.81
1013.02	2195.42
1013.18	2093.02
1013.34	2265.05
1013.50	2275.29
1013.65	2254.81
1013.81	2144.22
1013.97	2158.56
1014.13	2080.74
1014.29	2056.16
1014.44	2271.20
1014.60	2129.89
1014.76	2115.55
1014.92	2019.30
1015.07	2088.93
1015.23	2217.95
1015.39	2099.17
1015.55	2123.74
1015.71	2064.35
1015.86	1957.86
1016.02	1966.05
1016.18	1920.99
1016.34	2060.26
1016.49	1939.43
1016.65	2086.88
1016.81	2072.54
1016.97	1998.82
1017.12	1988.58
1017.28	1959.91
1017.44	1791.97
1017.60	2152.42
1017.75	1972.19
1017.91	2062.30
1018.07	2023.39
1018.23	1920.99
1018.38	2023.39
1018.54	1941.47
1018.70	2123.74
1018.86	2017.25
1019.01	2023.39
1019.17	2060.26
1019.33	2097.12
1019.49	1970.15
1019.64	1949.67
1019.80	1910.75
1019.96	1916.90
1020.12	1910.75
1020.27	1728.49
1020.43	1865.70
1020.59	1857.51
1020.74	2019.30
1020.90	1939.43
1021.06	1814.50
1021.22	1857.51
1021.37	1863.65
1021.53	1935.33
1021.69	1957.86
1021.84	1732.58
1022.00	1916.90
1022.16	1935.33
1022.31	1849.32
1022.47	1863.65
1022.63	1861.60
1022.79	1839.08
1022.94	1775.59
1023.10	2103.26
1023.26	1802.21
1023.41	1896.42
1023.57	1777.64
1023.73	1877.99
1023.88	1845.22
1024.04	1753.06
1024.20	1771.49
1024.35	1882.08
1024.51	1816.55
1024.67	1853.41
1024.82	1941.47
1024.98	1669.09
1025.14	1757.16
1025.29	1789.92
1025.45	1796.07
1025.61	1722.34
1025.76	1802.21
1025.92	1763.30
1026.08	1902.56
1026.23	1830.88
1026.39	1892.32
1026.55	1744.87
1026.70	1802.21
1026.86	1873.89
1027.02	1910.75
1027.17	1839.08
1027.33	1789.92
1027.48	1734.63
1027.64	1726.44
1027.80	1767.40
1027.95	1822.69
1028.11	1658.85
1028.27	1804.26
1028.42	1875.94
1028.58	1837.03
1028.73	1740.77
1028.89	1652.71
1029.05	1869.80
1029.20	1736.68
>>>>>End Processed Spectral Data<<<<<
