SpectraSuite Data File
++++++++++++++++++++++++++++++++++++
Date: Fri Jun 02 14:53:32 CEST 2017
User: INFO_000
Dark Spectrum Present: No
Reference Spectrum Present: No
Number of Sampled Component Spectra: 1
Spectrometers: USB4H00879
Integration Time (usec): 80000 (USB4H00879)
Spectra Averaged: 1 (USB4H00879)
Boxcar Smoothing: 0 (USB4H00879)
Correct for Electrical Dark: No (USB4H00879)
Strobe/Lamp Enabled: No (USB4H00879)
Correct for Detector Non-linearity: No (USB4H00879)
Correct for Stray Light: No (USB4H00879)
Number of Pixels in Processed Spectrum: 3648
>>>>>Begin Processed Spectral Data<<<<<
345.13	1249.26
345.34	1249.26
345.56	1249.26
345.78	1310.70
345.99	1290.22
346.21	1683.43
346.42	1714.15
346.64	1691.62
346.86	1804.26
347.07	1642.47
347.29	1767.40
347.50	1632.23
347.72	1695.72
347.94	1681.38
348.15	1566.70
348.37	1669.09
348.59	1695.72
348.80	1701.86
349.02	1791.97
349.23	1857.51
349.45	1865.70
349.67	1853.41
349.88	1808.36
350.10	1935.33
350.31	1902.56
350.53	1869.80
350.75	1990.63
350.96	1843.17
351.18	1830.88
351.39	1804.26
351.61	1828.84
351.82	1894.37
352.04	1972.19
352.26	1884.13
352.47	1888.23
352.69	1894.37
352.90	1773.54
353.12	1863.65
353.34	1908.71
353.55	1902.56
353.77	1849.32
353.98	1877.99
354.20	1834.98
354.41	1910.75
354.63	1939.43
354.85	1996.77
355.06	1986.53
355.28	1800.16
355.49	1908.71
355.71	1935.33
355.92	1880.04
356.14	1910.75
356.35	1877.99
356.57	1896.42
356.79	1949.67
357.00	1888.23
357.22	1937.38
357.43	1837.03
357.65	1951.71
357.86	1820.64
358.08	1875.94
358.29	1939.43
358.51	1990.63
358.72	1992.67
358.94	1908.71
359.16	1910.75
359.37	1875.94
359.59	1994.72
359.80	2037.73
360.02	1904.61
360.23	2013.15
360.45	2039.78
360.66	1984.48
360.88	1908.71
361.09	1955.81
361.31	1961.95
361.52	1945.57
361.74	2000.87
361.95	2107.36
362.17	1990.63
362.38	2148.32
362.60	2045.92
362.81	1935.33
363.03	1877.99
363.24	1992.67
363.46	2125.79
363.67	2060.26
363.89	1945.57
364.10	1968.10
364.32	2011.11
364.53	2052.06
364.75	1900.52
364.96	2007.01
365.18	2074.59
365.39	2007.01
365.61	1959.91
365.82	2166.75
366.04	2115.55
366.25	1935.33
366.47	2080.74
366.68	2031.58
366.90	2011.11
367.11	2090.98
367.33	2095.07
367.54	2082.78
367.76	2015.20
367.97	2111.46
368.19	1990.63
368.40	2136.03
368.62	1986.53
368.83	1943.52
369.05	2043.87
369.26	1992.67
369.48	2011.11
369.69	1918.95
369.91	2109.41
370.12	1988.58
370.33	2068.45
370.55	2013.15
370.76	2052.06
370.98	2047.97
371.19	2017.25
371.41	2052.06
371.62	2068.45
371.84	1982.43
372.05	2174.94
372.27	2133.98
372.48	2027.49
372.69	2074.59
372.91	2093.02
373.12	2199.52
373.34	2097.12
373.55	2158.56
373.77	2240.48
373.98	2088.93
374.20	2150.37
374.41	2238.43
374.62	2144.22
374.84	2082.78
375.05	2226.14
375.27	2215.90
375.48	2232.29
375.70	2183.13
375.91	2158.56
376.12	2258.91
376.34	2121.70
376.55	2213.85
376.77	2183.13
376.98	2154.46
377.19	2226.14
377.41	2213.85
377.62	2232.29
377.84	2273.25
378.05	2252.77
378.27	2160.61
378.48	2351.07
378.69	2332.64
378.91	2363.36
379.12	2236.38
379.34	2289.63
379.55	2346.97
379.76	2199.52
379.98	2269.15
380.19	2271.20
380.41	2250.72
380.62	2240.48
380.83	2287.58
381.05	2162.66
381.26	2467.80
381.47	2246.62
381.69	2306.01
381.90	2402.27
382.12	2310.11
382.33	2293.72
382.54	2303.96
382.76	2359.26
382.97	2303.96
383.19	2273.25
383.40	2471.90
383.61	2338.78
383.83	2258.91
384.04	2338.78
384.25	2379.74
384.47	2443.23
384.68	2371.55
384.89	2396.12
385.11	2338.78
385.32	2355.16
385.54	2308.06
385.75	2297.82
385.96	2475.99
386.18	2459.61
386.39	2445.27
386.60	2457.56
386.82	2377.69
387.03	2375.64
387.24	2473.95
387.46	2492.38
387.67	2527.19
387.88	2465.75
388.10	2541.53
388.31	2416.60
388.52	2594.78
388.74	2592.73
388.95	2494.43
389.16	2574.30
389.38	2551.77
389.59	2537.43
389.80	2625.50
390.02	2500.57
390.23	2625.50
390.44	2512.86
390.66	2588.63
390.87	2566.10
391.08	2625.50
391.30	2764.76
391.51	2592.73
391.72	2621.40
391.94	2713.56
392.15	2656.22
392.36	2676.70
392.58	2574.30
392.79	2711.51
393.00	2670.55
393.22	2793.43
393.43	2727.89
393.64	2768.85
393.85	2838.48
394.07	2629.59
394.28	2664.41
394.49	2727.89
394.71	2772.95
394.92	2918.36
395.13	2705.37
395.35	2748.37
395.56	2803.67
395.77	2895.83
395.98	2787.29
396.20	2852.82
396.41	2867.16
396.62	2832.34
396.84	2955.22
397.05	2858.96
397.26	2820.05
397.47	3033.04
397.69	2854.87
397.90	3004.37
398.11	2938.84
398.32	2936.79
398.54	2861.01
398.75	2877.40
398.96	2830.29
399.18	3049.43
399.39	2977.75
399.60	3094.48
399.81	2977.75
400.03	2766.81
400.24	3209.17
400.45	3000.27
400.66	3016.66
400.88	3033.04
401.09	3147.73
401.30	2998.23
401.51	3215.31
401.73	3078.10
401.94	3176.40
402.15	3223.50
402.36	3157.97
402.58	3164.11
402.79	3160.02
403.00	3207.12
403.21	3160.02
403.43	3278.80
403.64	3295.18
403.85	3160.02
404.06	3186.64
404.27	3166.16
404.49	3243.98
404.70	3121.10
404.91	3375.05
405.12	3270.61
405.34	3286.99
405.55	3385.29
405.76	3147.73
405.97	3252.17
406.19	3340.24
406.40	3254.22
406.61	3375.05
406.82	3352.52
407.03	3289.04
407.25	3368.91
407.46	3477.45
407.67	3432.40
407.88	3352.52
408.09	3461.07
408.31	3389.39
408.52	3432.40
408.73	3319.76
408.94	3364.81
409.15	3465.16
409.37	3588.04
409.58	3557.32
409.79	3557.32
410.00	3604.42
410.21	3434.44
410.43	3510.22
410.64	3407.82
410.85	3426.25
411.06	3635.14
411.27	3575.75
411.48	3645.38
411.70	3563.47
411.91	3612.62
412.12	3680.20
412.33	3571.66
412.54	3665.86
412.76	3635.14
412.97	3669.96
413.18	3631.05
413.39	3694.54
413.60	3727.30
413.81	3780.55
414.03	3690.44
414.24	3678.15
414.45	3860.42
414.66	3624.90
414.87	3835.85
415.08	3768.26
415.30	3872.71
415.51	3717.06
415.72	3792.84
415.93	3817.41
416.14	3760.07
416.35	3866.56
416.56	3858.37
416.78	3874.76
416.99	3997.64
417.20	4032.45
417.41	3930.05
417.62	4046.79
417.83	4034.50
418.04	3897.28
418.26	4050.88
418.47	3846.09
418.68	4124.61
418.89	3981.25
419.10	4095.94
419.31	4026.31
419.52	4059.07
419.73	4087.75
419.95	4220.86
420.16	3966.92
420.37	4147.14
420.58	4188.10
420.79	4024.26
421.00	4054.98
421.21	4124.61
421.42	4116.42
421.63	4161.47
421.85	4335.55
422.06	4214.72
422.27	4229.06
422.48	4224.96
422.69	4362.17
422.90	4222.91
423.11	4288.45
423.32	4376.51
423.53	4487.10
423.75	4372.41
423.96	4521.92
424.17	4460.48
424.38	4560.83
424.59	4515.77
424.80	4530.11
425.01	4579.26
425.22	4569.02
425.43	4554.68
425.64	4605.88
425.85	4722.62
426.06	4624.31
426.28	4530.11
426.49	4536.25
426.70	4698.04
426.91	4775.86
427.12	4771.77
427.33	4632.51
427.54	4669.37
427.75	4730.81
427.96	4896.69
428.17	4859.83
428.38	4868.02
428.59	4923.32
428.80	4827.06
429.01	4872.12
429.23	4915.12
429.44	5224.37
429.65	4986.80
429.86	5033.91
430.07	4931.51
430.28	5033.91
430.49	4972.47
430.70	5126.07
430.91	5181.36
431.12	5119.92
431.33	5064.63
431.54	5199.79
431.75	5199.79
431.96	5289.90
432.17	5224.37
432.38	5203.89
432.59	5402.54
432.80	5357.49
433.01	5380.01
433.22	5537.71
433.43	5402.54
433.64	5261.23
433.85	5314.48
434.06	5543.85
434.27	5324.72
434.49	5312.43
434.70	5556.14
434.91	5547.95
435.12	5480.36
435.33	5382.06
435.54	5443.50
435.75	5351.34
435.96	5492.65
436.17	5502.89
436.38	5754.79
436.59	5672.87
436.80	5666.73
437.01	5750.70
437.22	5664.68
437.43	5595.05
437.64	5326.77
437.85	5812.14
438.06	5756.84
438.27	5605.29
438.48	5722.02
438.69	5932.97
438.90	5713.83
439.11	5662.63
439.32	5883.81
439.53	5849.00
439.74	5914.53
439.95	5861.29
440.16	5943.21
440.37	5785.51
440.57	5793.70
440.78	5928.87
440.99	5910.44
441.20	5992.36
441.41	5904.29
441.62	5990.31
441.83	5775.27
442.04	6098.85
442.25	5971.88
442.46	5978.02
442.67	5941.16
442.88	6471.58
443.09	5904.29
443.30	6309.79
443.51	6229.92
443.72	6291.36
443.93	6141.86
444.14	6338.46
444.35	6168.48
444.56	6293.41
444.77	6248.35
444.98	6369.18
445.19	6328.22
445.40	6307.74
445.61	6352.80
445.81	6559.64
446.02	6485.92
446.23	6356.90
446.44	6309.79
446.65	6504.35
446.86	6356.90
447.07	6528.92
447.28	6668.19
447.49	6670.23
447.70	6428.57
447.91	6694.81
448.12	6475.68
448.33	6629.27
448.54	6686.62
448.74	6629.27
448.95	6791.06
449.16	6631.32
449.37	7016.34
449.58	6649.75
449.79	7079.83
450.00	6743.96
450.21	6897.56
450.42	7049.11
450.63	6928.28
450.84	6997.91
451.05	7014.29
451.25	6995.86
451.46	6840.22
451.67	7217.04
451.88	7155.60
452.09	7118.74
452.30	7118.74
452.51	7010.20
452.72	7290.77
452.93	7487.37
453.13	7114.64
453.34	7229.33
453.55	7364.50
453.76	7305.10
453.97	7432.08
454.18	7499.66
454.39	7364.50
454.60	7536.52
454.81	7339.92
455.01	7563.15
455.22	7378.83
455.43	7683.98
455.64	7813.00
455.85	7733.13
456.06	7890.82
456.27	7823.24
456.48	7690.12
456.68	7790.47
456.89	7821.19
457.10	8177.54
457.31	7860.10
457.52	8007.56
457.73	8034.18
457.94	8249.22
458.14	7872.39
458.35	8478.59
458.56	8185.73
458.77	8130.44
458.98	8302.47
459.19	8277.89
459.39	8429.44
459.60	8671.10
459.81	8298.37
460.02	8511.36
460.23	8564.61
460.44	8718.20
460.65	8843.13
460.85	8720.25
461.06	8855.42
461.27	8564.61
461.48	8914.81
461.69	8972.15
461.89	8765.31
462.10	9111.41
462.31	8568.70
462.52	8804.22
462.73	8972.15
462.94	9117.56
463.14	9127.80
463.35	9068.41
463.56	9662.32
463.77	9527.15
463.98	9379.70
464.18	9342.83
464.39	9576.30
464.60	9643.88
464.81	9887.59
465.02	9668.46
465.23	9998.18
465.43	9824.11
465.64	9873.26
465.85	10022.76
466.06	9873.26
466.27	10198.88
466.47	10164.07
466.68	10008.42
466.89	10239.84
467.10	10356.58
467.30	10057.57
467.51	10418.02
467.72	10653.53
467.93	10389.35
468.14	10563.42
468.34	10821.47
468.55	10860.38
468.76	10794.84
468.97	10839.90
469.17	10866.52
469.38	10979.16
469.59	11370.32
469.80	10866.52
470.01	11005.78
470.21	11140.95
470.42	11345.75
470.63	11345.75
470.84	11405.14
471.04	11513.68
471.25	11573.07
471.46	11534.16
471.67	11712.33
471.87	11763.53
472.08	11779.92
472.29	12027.72
472.50	11900.75
472.70	11800.40
472.91	11988.81
473.12	12240.71
473.33	12435.27
473.53	12324.68
473.74	12232.52
473.95	12394.31
474.16	12750.65
474.36	12607.30
474.57	12644.16
474.78	13047.61
474.99	12937.02
475.19	12906.30
475.40	13193.01
475.61	13176.63
475.81	13389.62
476.02	13379.38
476.23	13457.20
476.44	13666.10
476.64	13981.48
476.85	13948.72
477.06	13967.15
477.27	13924.14
477.47	13950.76
477.68	14237.48
477.89	13979.43
478.09	14307.11
478.30	14499.62
478.51	14507.81
478.71	14688.03
478.92	14753.57
479.13	14661.41
479.34	14972.70
479.54	14847.77
479.75	15005.47
479.96	14950.17
480.16	15267.61
480.37	15208.22
480.58	15329.05
480.78	15560.47
480.99	15580.95
481.20	15591.19
481.41	15591.19
481.61	15916.81
481.82	16051.98
482.03	15861.52
482.23	15822.61
482.44	16252.68
482.65	16492.29
482.85	16469.76
483.06	16488.20
483.27	16535.30
483.47	16736.00
483.68	16758.53
483.89	16916.22
484.09	16834.30
484.30	16981.76
484.51	17293.05
484.71	17123.07
484.92	17192.70
485.13	17463.03
485.33	17383.16
485.54	17315.58
485.75	17764.08
485.95	17856.24
486.16	18073.32
486.37	17874.67
486.57	17907.44
486.78	17964.78
486.98	17964.78
487.19	18302.70
487.40	18290.41
487.60	18130.67
487.81	18568.93
488.02	18394.86
488.22	18704.10
488.43	19029.73
488.64	18515.69
488.84	18999.01
489.05	19080.92
489.25	18912.99
489.46	19326.68
489.67	19234.52
489.87	19515.09
490.08	19533.53
490.29	19519.19
490.49	19717.84
490.70	19654.36
490.90	19869.39
491.11	19918.54
491.32	20053.71
491.52	20086.48
491.73	19965.65
491.94	20180.68
492.14	20321.99
492.35	20481.74
492.55	20264.65
492.76	20350.67
492.97	20588.23
493.17	20795.07
493.38	20899.52
493.58	20922.05
493.79	20985.54
494.00	21073.60
494.20	21069.50
494.41	21366.46
494.61	21135.04
494.82	21212.86
495.02	21182.14
495.23	21632.69
495.44	21515.96
495.64	21616.31
495.85	21673.65
496.05	21739.19
496.26	21780.15
496.47	21872.31
496.67	21843.63
496.88	21982.90
497.08	21821.11
497.29	22138.54
497.49	22134.45
497.70	22306.48
497.91	22535.85
498.11	22529.70
498.32	22464.17
498.52	22736.55
498.73	22933.15
498.93	22748.84
499.14	22867.62
499.34	22752.93
499.55	23070.37
499.76	22920.87
499.96	23105.18
500.17	23150.24
500.37	23183.01
500.58	23414.43
500.78	23320.22
500.99	23140.00
501.19	23363.23
501.40	23357.08
501.60	23613.08
501.81	23359.13
502.02	23498.39
502.22	23598.74
502.43	23565.98
502.63	23961.23
502.84	23692.95
503.04	23824.02
503.25	24129.17
503.45	23910.04
503.66	24223.37
503.86	24266.38
504.07	24252.05
504.27	24401.55
504.48	24774.28
504.68	24135.31
504.89	24647.30
505.09	24772.23
505.30	24667.78
505.50	24878.72
505.71	24813.19
505.91	25032.32
506.12	24815.24
506.32	24546.95
506.53	25175.68
506.73	25116.29
506.94	24915.59
507.14	25147.01
507.35	25247.36
507.55	25400.96
507.76	25204.35
507.96	25134.72
508.17	25198.21
508.37	25716.34
508.58	25661.05
508.78	25603.71
508.99	25732.73
509.19	25716.34
509.40	25976.44
509.60	25810.55
509.81	25919.09
510.01	25689.72
510.22	25818.74
510.42	26035.83
510.63	26324.59
510.83	26257.01
511.04	26007.16
511.24	26431.08
511.44	26123.89
511.65	26248.82
511.85	26302.06
512.06	26285.68
512.26	26760.81
512.47	26529.39
512.67	26613.35
512.88	26822.25
513.08	26431.08
513.29	26914.41
513.49	26699.37
513.69	26861.16
513.90	27055.72
514.10	27039.33
514.31	27041.38
514.51	27215.46
514.72	27123.30
514.92	26945.12
515.13	27004.52
515.33	27305.57
515.53	27399.77
515.74	27086.43
515.94	27385.44
516.15	27741.78
516.35	27567.71
516.56	27600.47
516.76	27428.45
516.96	27463.26
517.17	28272.21
517.37	28042.84
517.58	27838.04
517.78	27919.96
517.99	28100.18
518.19	27936.34
518.39	28055.12
518.60	28565.07
518.80	28145.23
519.01	28663.37
519.21	28339.79
519.41	28384.85
519.62	28470.86
519.82	28481.10
520.03	28712.52
520.23	28862.02
520.43	28577.36
520.64	29369.92
520.84	29095.49
521.05	29068.87
521.25	29376.06
521.45	29548.09
521.66	29433.41
521.86	29146.69
522.07	29496.89
522.27	29466.17
522.47	29435.45
522.68	29832.76
522.88	29806.14
523.08	30101.04
523.29	29912.63
523.49	29763.13
523.70	30342.70
523.90	30391.86
524.10	30004.79
524.31	30486.06
524.51	30301.75
524.71	31006.25
524.92	30420.53
525.12	31118.89
525.33	30725.68
525.53	31127.08
525.73	31202.85
525.94	30993.96
526.14	31049.25
526.34	31069.73
526.55	31395.36
526.75	31346.21
526.95	31766.04
527.16	31516.19
527.36	31743.52
527.56	31811.10
527.77	32269.84
527.97	31798.81
528.17	31833.63
528.38	32206.36
528.58	32210.45
528.78	32472.59
528.99	32464.40
529.19	32558.61
529.39	32306.71
529.60	32800.27
529.80	32953.87
530.00	32601.61
530.21	33150.47
530.41	33078.79
530.61	33226.24
530.82	33254.92
531.02	33156.61
531.22	33654.27
531.43	33396.23
531.63	34022.90
531.83	34041.34
532.04	34450.93
532.24	33971.71
532.44	34262.52
532.64	34512.37
532.85	34610.67
533.05	34326.00
533.25	34559.47
533.46	34735.60
533.66	34909.68
533.86	35237.35
534.07	35151.34
534.27	34942.44
534.47	35526.11
534.67	34708.97
534.88	35511.78
535.08	35192.30
535.28	35653.09
535.49	35536.35
535.69	36097.50
535.89	36074.97
536.09	35765.73
536.30	36515.28
536.50	36142.55
536.70	36226.52
536.91	36720.08
537.11	36312.53
537.31	36472.28
537.51	36490.71
537.72	37207.50
537.92	37352.90
538.12	37422.53
538.32	37588.42
538.53	37488.07
538.73	37295.56
538.93	37338.57
539.13	37252.55
539.34	37295.56
539.54	37682.62
539.74	37717.44
539.94	37877.18
540.15	37799.36
540.35	37957.05
540.55	38118.84
540.75	37938.62
540.96	38213.05
541.16	38462.90
541.36	38335.93
541.56	38524.34
541.77	38901.17
541.97	38923.69
542.17	38575.54
542.37	39105.96
542.58	39134.63
542.78	38786.48
542.98	38882.73
543.18	39435.69
543.38	39341.48
543.59	39837.09
543.79	39636.39
543.99	39710.11
544.19	39538.08
544.40	39658.91
544.60	39757.22
544.80	39845.28
545.00	39714.21
545.20	40314.26
545.41	39992.73
545.61	39906.72
545.81	40234.39
546.01	40541.59
546.21	40279.45
546.42	40304.02
546.62	40662.42
546.82	40744.34
547.02	40568.21
547.22	40832.40
547.43	40617.36
547.63	40439.19
547.83	41014.67
548.03	40785.30
548.23	41119.12
548.44	41186.70
548.64	41069.97
548.84	41127.31
549.04	41186.70
549.24	41405.83
549.45	41598.34
549.65	41631.11
549.85	41710.98
550.05	41631.11
550.25	41579.91
550.45	42050.94
550.66	42024.32
550.86	41792.90
551.06	42128.77
551.26	41964.93
551.46	41897.34
551.66	41883.01
551.87	42302.84
552.07	41848.19
552.27	41866.63
552.47	42313.08
552.67	42149.24
552.87	42319.23
553.07	42358.14
553.28	42546.55
553.48	42595.70
553.68	42581.37
553.88	42800.50
554.08	42374.52
554.28	42855.79
554.48	42585.46
554.69	43083.12
554.89	43009.39
555.09	42456.44
555.29	42997.10
555.49	42976.62
555.69	42892.66
555.89	42880.37
556.10	43369.83
556.30	42831.22
556.50	43525.48
556.70	43300.20
556.90	43150.70
557.10	43761.00
557.30	43111.79
557.50	43537.77
557.70	43793.76
557.91	43457.90
558.11	43535.72
558.31	43568.49
558.51	43480.42
558.71	43724.13
558.91	43933.03
559.11	43517.29
559.31	43783.52
559.51	43498.86
559.72	43713.89
559.92	44125.53
560.12	43646.31
560.32	44141.92
560.52	43941.22
560.72	44049.76
560.92	44244.32
561.12	44037.47
561.32	44311.90
561.52	43791.72
561.72	44442.97
561.93	44074.34
562.13	44369.24
562.33	44096.86
562.53	44811.60
562.73	44078.43
562.93	44316.00
563.13	44477.79
563.33	44318.04
563.53	44741.97
563.73	43867.49
563.93	44258.65
564.13	44791.12
564.33	44635.48
564.53	44549.46
564.74	44606.81
564.94	44262.75
565.14	44809.56
565.34	44627.29
565.54	44586.33
565.74	44666.20
565.94	45153.62
566.14	44336.48
566.34	44549.46
566.54	44846.42
566.74	44799.32
566.94	45131.09
567.14	45071.70
567.34	44754.26
567.54	44977.49
567.74	44950.87
567.94	45129.04
568.14	45143.38
568.34	45362.51
568.54	44717.40
568.74	45469.00
568.94	45071.70
569.14	45475.15
569.34	45434.19
569.54	45565.26
569.75	45120.85
569.95	44887.38
570.15	45647.18
570.35	45862.21
570.55	45380.94
570.75	45401.42
570.95	45610.31
571.15	45399.37
571.35	45413.71
571.55	45794.63
571.75	45315.40
571.95	45415.76
572.15	45608.26
572.35	45638.98
572.55	45702.47
572.75	45382.99
572.95	45374.80
573.15	45626.70
573.35	45714.76
573.55	45929.80
573.75	46093.63
573.95	45880.64
574.15	45536.59
574.35	46167.36
574.55	45747.53
574.75	45788.49
574.95	46161.22
575.15	45526.35
575.34	46122.30
575.54	46396.73
575.74	46118.21
575.94	46185.79
576.14	46355.77
576.34	46368.06
576.54	46435.64
576.74	46288.19
576.94	46343.48
577.14	46286.14
577.34	46454.08
577.54	46482.75
577.74	46521.66
577.94	46800.18
578.14	46433.60
578.34	46845.24
578.54	45864.26
578.74	46515.51
578.94	46898.48
579.14	46626.10
579.34	46720.31
579.54	46789.94
579.74	46812.47
579.94	47228.21
580.13	47248.69
580.33	46867.76
580.53	47119.66
580.73	47392.04
580.93	46855.48
581.13	47295.79
581.33	47293.74
581.53	47297.84
581.73	47099.19
581.93	47371.57
582.13	47369.52
582.33	47447.34
582.53	46914.87
582.73	47383.85
582.92	47465.77
583.12	47936.80
583.32	47693.10
583.52	47537.45
583.72	47555.88
583.92	47682.86
584.12	47596.84
584.32	47914.28
584.52	47766.82
584.72	47691.05
584.92	47736.10
585.11	48309.53
585.31	48094.50
585.51	48145.70
585.71	47654.18
585.91	48110.88
586.11	48207.14
586.31	47801.64
586.51	48102.69
586.71	48131.36
586.91	48264.48
587.10	48074.02
587.30	48309.53
587.50	48112.93
587.70	48866.58
587.90	48235.81
588.10	48321.82
588.30	48651.55
588.50	48395.55
588.69	48436.51
588.89	48590.11
589.09	48792.86
589.29	48608.54
589.49	49235.22
589.69	48942.36
589.89	48653.59
590.08	48989.46
590.28	48772.38
590.48	48868.63
590.68	48842.01
590.88	49071.38
591.08	48543.00
591.28	48545.05
591.47	49579.28
591.67	49147.15
591.87	49366.29
592.07	49055.00
592.27	49110.29
592.47	49118.48
592.67	49007.89
592.86	49026.32
593.06	49149.20
593.26	49485.07
593.46	49497.36
593.66	49839.37
593.86	49200.40
594.05	49405.20
594.25	49579.28
594.45	49593.61
594.65	49650.95
594.85	49306.90
595.05	50130.18
595.24	49788.17
595.44	50068.74
595.64	50124.04
595.84	49796.36
596.04	49712.39
596.23	49558.80
596.43	49583.37
596.63	50070.79
596.83	49956.10
597.03	50482.43
597.22	50390.27
597.42	50353.41
597.62	49937.67
597.82	50324.74
598.02	50226.43
598.21	50631.93
598.41	49995.01
598.61	50507.01
598.81	50488.57
599.01	50818.30
599.20	50584.83
599.40	50398.46
599.60	50693.37
599.80	50771.19
600.00	50502.91
600.19	51062.00
600.39	50611.45
600.59	50926.84
600.79	50898.17
600.98	50396.42
601.18	51258.61
601.38	51574.00
601.58	51223.79
601.78	51199.22
601.97	51608.81
602.17	51950.82
602.37	51524.85
602.57	51696.88
602.76	51858.66
602.96	51381.49
603.16	52221.16
603.36	51752.17
603.55	51936.49
603.75	51932.39
603.95	52030.69
604.15	51973.35
604.34	51852.52
604.54	52286.69
604.74	52530.40
604.94	52034.79
605.13	52434.14
605.33	52241.63
605.53	51856.62
605.73	52370.66
605.92	52288.74
606.12	52567.26
606.32	52632.80
606.52	52583.65
606.71	52557.02
606.91	52483.30
607.11	52540.64
607.30	52569.31
607.50	52915.42
607.70	52763.87
607.90	52896.98
608.09	53050.58
608.29	52829.40
608.49	53005.53
608.68	52970.71
608.88	52978.90
609.08	53064.92
609.28	53150.93
609.47	52810.97
609.67	53277.91
609.87	53302.48
610.06	53419.22
610.26	53239.00
610.46	53101.78
610.66	52901.08
610.85	53572.81
611.05	53415.12
611.25	53677.26
611.44	53284.05
611.64	53732.56
611.84	53654.73
612.03	53122.26
612.23	53490.90
612.43	53861.58
612.62	53589.20
612.82	53687.50
613.02	53853.39
613.21	53832.91
613.41	53615.82
613.61	54078.66
613.80	53451.98
614.00	54232.26
614.20	53875.91
614.39	53875.91
614.59	53859.53
614.79	53953.74
614.98	53671.12
615.18	54037.70
615.38	54373.57
615.57	53861.58
615.77	54475.97
615.97	54066.38
616.16	54486.21
616.36	53998.79
616.56	54314.18
616.75	54017.22
616.95	53470.42
617.15	53779.66
617.34	54222.02
617.54	54093.00
617.74	54525.12
617.93	54097.09
618.13	53767.37
618.32	54213.83
618.52	53863.63
618.72	54514.88
618.91	54107.33
619.11	54234.31
619.31	54400.19
619.50	54410.43
619.70	54170.82
619.90	54336.71
620.09	54058.18
620.29	54273.22
620.48	54623.42
620.68	54762.68
620.88	53992.65
621.07	54250.69
621.27	54711.49
621.46	53916.87
621.66	54463.68
621.86	54629.57
622.05	54156.49
622.25	54869.18
622.44	54547.65
622.64	54666.43
622.84	54230.21
623.03	54131.91
623.23	54557.89
623.42	54140.10
623.62	54432.96
623.82	54887.61
624.01	54729.92
624.21	54801.60
624.40	54557.89
624.60	54899.90
624.80	54469.82
624.99	54697.15
625.19	54371.52
625.38	54723.77
625.58	54531.26
625.77	54990.01
625.97	55121.08
626.17	54801.60
626.36	54787.26
626.56	55063.74
626.75	54815.93
626.95	55180.47
627.14	54570.18
627.34	55209.14
627.54	54877.37
627.73	54777.02
627.93	54820.03
628.12	54549.70
628.32	55198.90
628.51	55182.52
628.71	55344.31
628.90	55104.70
629.10	55030.97
629.30	55166.13
629.49	55377.08
629.69	55340.21
629.88	55192.76
630.08	55002.30
630.27	55712.94
630.47	55284.92
630.66	55291.06
630.86	55270.58
631.05	54863.03
631.25	55450.80
631.44	55409.84
631.64	55162.04
631.84	55880.88
632.03	55549.10
632.23	55547.06
632.42	55801.00
632.62	55403.70
632.81	55383.22
633.01	55274.68
633.20	56372.39
633.40	55878.83
633.59	55573.68
633.79	54994.10
633.98	55395.51
634.18	55768.24
634.37	55620.78
634.57	55844.01
634.76	55792.81
634.96	55821.48
635.15	55909.55
635.35	55506.10
635.54	55745.71
635.74	55895.21
635.93	56091.82
636.13	56204.45
636.32	56087.72
636.52	55456.95
636.71	55973.03
636.91	55819.44
637.10	55858.35
637.30	56341.67
637.49	55792.81
637.69	56261.80
637.88	56300.71
638.08	56020.14
638.27	56319.14
638.46	55977.13
638.66	55755.95
638.85	55964.84
639.05	55743.66
639.24	56212.65
639.44	55696.56
639.63	56245.41
639.83	55991.47
640.02	56487.07
640.22	56300.71
640.41	56474.79
640.61	56431.78
640.80	56546.47
640.99	56116.39
641.19	56849.56
641.38	56351.91
641.58	56235.17
641.77	56532.13
641.97	56257.70
642.16	56593.57
642.36	56769.69
642.55	57074.84
642.74	56528.03
642.94	56945.82
643.13	56456.35
643.33	56573.09
643.52	57451.67
643.72	56999.07
643.91	56710.30
644.10	56456.35
644.30	57035.93
644.49	56931.48
644.69	56513.70
644.88	56800.41
645.08	56804.51
645.27	56968.35
645.46	56890.52
645.66	57533.59
645.85	56618.14
646.05	57261.21
646.24	56958.11
646.43	57341.08
646.63	57541.78
646.82	57570.45
647.02	57085.08
647.21	57261.21
647.40	57220.25
647.60	57255.06
647.79	57449.62
647.99	57343.12
648.18	57201.82
648.37	57640.08
648.57	57633.94
648.76	57406.61
648.96	57107.61
649.15	57607.31
649.34	57685.14
649.54	57218.20
649.73	57418.90
649.92	57826.45
650.12	57932.94
650.31	58037.39
650.51	57808.01
650.70	58283.14
650.89	57494.67
651.09	58147.98
651.28	57898.12
651.47	58033.29
651.67	57781.39
651.86	58274.95
652.06	57869.45
652.25	57992.33
652.44	57785.49
652.64	57695.38
652.83	57808.01
653.02	57740.43
653.22	58045.58
653.41	57762.96
653.60	57566.35
653.80	58047.63
653.99	58193.03
654.18	58010.76
654.38	58045.58
654.57	58260.62
654.76	58432.64
654.96	58096.78
655.15	57685.14
655.34	57894.03
655.54	57574.55
655.73	57883.79
655.92	58309.77
656.12	58184.84
656.31	57836.69
656.50	58430.60
656.70	58025.10
656.89	58193.03
657.08	58154.12
657.28	58260.62
657.47	57836.69
657.66	58373.25
657.86	58193.03
658.05	58174.60
658.24	58381.45
658.43	57834.64
658.63	58567.81
658.82	58496.13
659.01	58518.66
659.21	58569.86
659.40	58496.13
659.59	58262.66
659.79	58438.79
659.98	58412.16
660.17	58664.06
660.36	58363.01
660.56	58692.74
660.75	58483.84
660.94	58569.86
661.14	58305.67
661.33	58619.01
661.52	58008.71
661.71	58784.90
661.91	57779.34
662.10	57885.84
662.29	58260.62
662.49	58350.73
662.68	58489.99
662.87	58440.84
663.06	58229.90
663.26	58317.96
663.45	58401.92
663.64	58506.37
663.83	58629.25
664.03	58588.29
664.22	58385.54
664.41	58385.54
664.60	58309.77
664.80	58463.36
664.99	58471.56
665.18	58465.41
665.37	58588.29
665.57	58651.78
665.76	58457.22
665.95	58586.24
666.14	58487.94
666.34	58246.28
666.53	58815.61
666.72	58389.64
666.91	58045.58
667.11	57924.75
667.30	58283.14
667.49	58500.23
667.68	58477.70
667.87	58463.36
668.07	58528.90
668.26	58393.73
668.45	58391.68
668.64	58037.39
668.84	58913.92
669.03	58395.78
669.22	58637.44
669.41	58264.71
669.60	58381.45
669.80	57982.09
669.99	58393.73
670.18	57939.08
670.37	58250.38
670.57	58444.93
670.76	57752.72
670.95	58567.81
671.14	57937.04
671.33	57865.36
671.53	58602.63
671.72	58287.24
671.91	58315.91
672.10	58285.19
672.29	57904.27
672.48	57734.29
672.68	58754.18
672.87	58064.01
673.06	58403.97
673.25	57728.14
673.44	58000.52
673.64	57922.70
673.83	57730.19
674.02	57537.68
674.21	57644.18
674.40	58205.32
674.59	57447.57
674.79	57771.15
674.98	57949.32
675.17	57691.28
675.36	57474.20
675.55	57861.26
675.74	57390.23
675.94	57619.60
676.13	57924.75
676.32	58029.19
676.51	57990.28
676.70	57885.84
676.89	57867.40
677.08	58166.41
677.28	57687.18
677.47	57769.10
677.66	57476.24
677.85	57787.53
678.04	57808.01
678.23	58123.40
678.42	57896.08
678.62	57367.70
678.81	57670.80
679.00	57699.47
679.19	57836.69
679.38	58033.29
679.57	57410.71
679.76	57459.86
679.96	57867.40
680.15	57519.25
680.34	57220.25
680.53	57201.82
680.72	57814.16
680.91	57605.26
681.10	57435.28
681.29	57357.46
681.48	56806.56
681.68	57040.03
681.87	57332.89
682.06	57379.99
682.25	56845.47
682.44	57371.80
682.63	57339.03
682.82	56630.43
683.01	57054.36
683.20	56587.42
683.39	56990.87
683.59	57056.41
683.78	56845.47
683.97	56843.42
684.16	57119.90
684.35	56222.89
684.54	56603.81
684.73	56718.49
684.92	56898.72
685.11	56648.86
685.30	56499.36
685.49	56755.36
685.69	56562.85
685.88	56487.07
686.07	56421.54
686.26	56521.89
686.45	56319.14
686.64	56906.91
686.83	56638.62
687.02	56530.08
687.21	56923.29
687.40	56626.34
687.59	56624.29
687.78	56091.82
687.97	56943.77
688.16	56335.52
688.35	56153.26
688.54	55706.80
688.74	56362.15
688.93	56360.10
689.12	56220.84
689.31	56171.69
689.50	56136.87
689.69	55862.44
689.88	55665.84
690.07	55383.22
690.26	55827.63
690.45	55897.26
690.64	56093.86
690.83	55813.29
691.02	55430.32
691.21	55399.60
691.40	55805.10
691.59	55819.44
691.78	55497.91
691.97	55829.68
692.16	55753.90
692.35	55489.71
692.54	55768.24
692.73	55651.50
692.92	55313.59
693.11	55329.97
693.30	55272.63
693.49	55317.68
693.68	55039.16
693.87	55260.34
694.06	54815.93
694.25	55186.61
694.44	54834.36
694.63	54711.49
694.82	54879.42
695.01	55125.17
695.20	54701.25
695.39	55166.13
695.58	54301.89
695.77	54625.47
695.96	54463.68
696.15	55051.45
696.34	55362.74
696.53	54867.13
696.72	54994.10
696.91	54516.93
697.10	54762.68
697.29	54375.62
697.48	54672.57
697.67	54318.28
697.86	53892.30
698.05	54170.82
698.24	54406.34
698.43	54056.14
698.62	54461.63
698.81	53863.63
699.00	54447.30
699.19	54117.57
699.38	54199.49
699.57	53716.17
699.76	54475.97
699.95	54121.67
700.14	53845.19
700.32	54002.89
700.51	53900.49
700.70	54095.05
700.89	54392.00
701.08	54179.01
701.27	53765.32
701.46	53802.19
701.65	53429.46
701.84	53478.61
702.03	53224.66
702.22	53556.43
702.41	53095.64
702.60	53365.97
702.79	53535.95
702.98	52860.12
703.17	53411.02
703.35	53165.27
703.54	53492.94
703.73	53449.94
703.92	53083.35
704.11	53413.07
704.30	52839.64
704.49	53046.49
704.68	52591.84
704.87	52604.13
705.06	52933.85
705.25	53093.59
705.43	52888.79
705.62	52237.54
705.81	52524.25
706.00	52790.49
706.19	52286.69
706.38	52501.73
706.57	52561.12
706.76	52157.67
706.95	52653.28
707.14	52559.07
707.32	52487.39
707.51	52346.08
707.70	52552.93
707.89	52321.51
708.08	52102.37
708.27	52327.65
708.46	52514.01
708.65	52090.09
708.84	52401.38
709.02	52151.52
709.21	52221.16
709.40	52065.51
709.59	52405.47
709.78	51606.76
709.97	52124.90
710.16	51672.30
710.34	51778.79
710.53	52094.18
710.72	51434.74
710.91	51909.86
711.10	52626.65
711.29	51649.77
711.48	51680.49
711.66	51684.59
711.85	51461.36
712.04	51404.02
712.23	51553.52
712.42	51455.21
712.61	51479.79
712.80	51289.33
712.98	51358.96
713.17	50871.54
713.36	50978.04
713.55	51016.95
713.74	51430.64
713.93	51328.24
714.11	51043.57
714.30	50912.50
714.49	50939.13
714.68	51199.22
714.87	51076.34
715.06	50924.79
715.24	50746.62
715.43	50228.48
715.62	50533.63
715.81	50461.95
716.00	50904.31
716.18	50396.42
716.37	50435.33
716.56	50289.92
716.75	50670.84
716.94	50353.41
717.12	50441.47
717.31	50638.08
717.50	50507.01
717.69	50240.77
717.88	50310.40
718.06	50375.94
718.25	50263.30
718.44	50017.54
718.63	49898.76
718.82	49921.29
719.00	50074.88
719.19	49630.47
719.38	49296.66
719.57	49237.26
719.76	49143.06
719.94	49126.67
720.13	49487.12
720.32	49779.98
720.51	49732.87
720.69	49573.13
720.88	48792.86
721.07	48936.21
721.26	48915.73
721.44	49485.07
721.63	48854.29
721.82	49032.47
722.01	48872.73
722.20	49083.67
722.38	48620.83
722.57	48280.86
722.76	48919.83
722.95	48870.68
723.13	48553.24
723.32	48219.42
723.51	48436.51
723.70	48108.83
723.88	48157.99
724.07	47787.30
724.26	48620.83
724.44	47293.74
724.63	48258.34
724.82	48342.30
725.01	47807.78
725.19	48350.49
725.38	47674.66
725.57	47633.71
725.76	48280.86
725.94	47625.51
726.13	47670.57
726.32	47709.48
726.51	47584.55
726.69	48223.52
726.88	47766.82
727.07	47818.02
727.25	47353.13
727.44	47514.92
727.63	47580.46
727.82	47584.55
728.00	47695.14
728.19	47815.97
728.38	47435.05
728.56	47097.14
728.75	47617.32
728.94	47283.50
729.12	47551.79
729.31	47344.94
729.50	47404.33
729.69	47463.72
729.87	47752.49
730.06	47521.07
730.25	47525.16
730.43	47699.24
730.62	47455.53
730.81	47541.55
730.99	47713.58
731.18	47293.74
731.37	47783.21
731.55	47299.89
731.74	47535.40
731.93	47336.75
732.11	47222.06
732.30	47351.09
732.49	47408.43
732.67	47379.76
732.86	47387.95
733.05	47064.37
733.23	47332.65
733.42	47637.80
733.61	47398.19
733.79	47566.12
733.98	47404.33
734.17	47074.61
734.35	47019.31
734.54	47506.73
734.73	47361.33
734.91	47281.45
735.10	47334.70
735.29	47463.72
735.47	47052.08
735.66	47045.94
735.84	47062.32
736.03	47084.85
736.22	47615.27
736.40	47252.78
736.59	47174.96
736.78	46783.80
736.96	47127.86
737.15	47052.08
737.33	46884.15
737.52	46912.82
737.71	46744.89
737.89	46910.77
738.08	46695.74
738.27	46689.59
738.45	46906.68
738.64	46587.19
738.82	46271.81
739.01	46740.79
739.20	46806.33
739.38	46769.46
739.57	46814.52
739.75	47050.03
739.94	46050.63
740.13	46886.20
740.31	46134.59
740.50	46728.50
740.68	46351.68
740.87	46417.21
741.06	46808.37
741.24	46533.95
741.43	46282.05
741.61	46384.44
741.80	46388.54
741.99	46069.06
742.17	46126.40
742.36	46077.25
742.54	46120.26
742.73	46132.54
742.91	46286.14
743.10	46040.39
743.29	46363.96
743.47	46212.41
743.66	46126.40
743.84	46372.16
744.03	46019.91
744.21	46095.68
744.40	46656.82
744.59	45925.70
744.77	45677.90
744.96	45892.93
745.14	46150.98
745.33	45874.50
745.51	45763.91
745.70	45944.13
745.88	46136.64
746.07	45966.66
746.26	45362.51
746.44	45757.77
746.63	45677.90
746.81	45925.70
747.00	45667.66
747.18	45931.84
747.37	45577.54
747.55	45481.29
747.74	45888.84
747.92	45446.47
748.11	45538.63
748.29	45643.08
748.48	45821.25
748.66	45428.04
748.85	45317.45
749.03	45579.59
749.22	45632.84
749.41	45407.56
749.59	45739.33
749.78	45018.45
749.96	44719.45
750.15	45155.66
750.33	45223.25
750.52	44891.48
750.70	45057.36
750.89	44883.28
751.07	44911.95
751.26	45030.74
751.44	45133.14
751.63	45190.48
751.81	44660.05
752.00	44942.67
752.18	45333.84
752.37	44686.68
752.55	44512.60
752.74	44846.42
752.92	44797.27
753.10	44465.50
753.29	44510.55
753.47	44526.94
753.66	44285.28
753.84	44760.40
754.03	44623.19
754.21	44391.77
754.40	44455.26
754.58	44561.75
754.77	44414.30
754.95	44256.60
755.14	44076.38
755.32	44305.76
755.51	44041.57
755.69	44219.74
755.88	44152.16
756.06	44547.42
756.24	44143.97
756.43	43939.17
756.61	44100.96
756.80	44158.30
756.98	43777.38
757.17	44270.94
757.35	44350.81
757.54	44078.43
757.72	44064.10
757.90	43685.22
758.09	43838.82
758.27	43795.81
758.46	43754.85
758.64	43957.60
758.83	43746.66
759.01	44121.44
759.19	43779.43
759.38	43986.27
759.56	44158.30
759.75	43720.04
759.93	43754.85
760.12	43840.87
760.30	43750.76
760.48	43599.21
760.67	43537.77
760.85	43740.52
761.04	43476.33
761.22	43634.02
761.40	43693.41
761.59	43464.04
761.77	43541.86
761.96	43382.12
762.14	43332.97
762.32	43199.85
762.51	43156.85
762.69	43267.44
762.88	43042.16
763.06	43373.93
763.24	43482.47
763.43	43132.27
763.61	42843.51
763.80	42896.75
763.98	43070.83
764.16	42876.27
764.35	42843.51
764.53	42782.07
764.72	42696.05
764.90	42947.95
765.08	42489.21
765.27	42927.47
765.45	42560.89
765.63	42136.96
765.82	42950.00
766.00	42562.93
766.18	42390.91
766.37	42898.80
766.55	42300.79
766.74	42556.79
766.92	42302.84
767.10	42593.65
767.29	42179.96
767.47	41977.22
767.65	42450.30
767.84	42046.85
768.02	42227.07
768.20	42055.04
768.39	42335.61
768.57	41909.63
768.75	42448.25
768.94	42372.47
769.12	42151.29
769.30	41880.96
769.49	41932.16
769.67	41997.70
769.85	41618.82
770.04	41536.90
770.22	41293.19
770.40	41473.42
770.59	41670.02
770.77	41684.36
770.95	41555.33
771.14	41604.49
771.32	41223.56
771.50	41420.17
771.69	41160.08
771.87	41459.08
772.05	41454.98
772.24	41311.63
772.42	41301.39
772.60	41055.63
772.78	41129.36
772.97	41031.05
773.15	41530.76
773.33	40967.57
773.52	40811.92
773.70	41004.43
773.88	41239.95
774.07	40607.12
774.25	41465.22
774.43	41303.43
774.61	41133.45
774.80	41180.56
774.98	41207.18
775.16	41520.52
775.34	41207.18
775.53	40662.42
775.71	41569.67
775.89	41280.91
776.08	41592.20
776.26	41518.47
776.44	41395.59
776.62	41192.84
776.81	40744.34
776.99	41366.92
777.17	41170.32
777.35	41534.85
777.54	41452.94
777.72	41379.21
777.90	41403.78
778.08	41493.89
778.27	41155.98
778.45	41776.51
778.63	41704.84
778.81	41395.59
779.00	41796.99
779.18	41862.53
779.36	42069.37
779.54	41772.42
779.73	41905.54
779.91	41915.78
780.09	41893.25
780.27	42124.67
780.46	42036.61
780.64	42225.02
780.82	42020.22
781.00	42028.41
781.19	42018.17
781.37	42171.77
781.55	42200.44
781.73	42366.33
781.91	42042.75
782.10	42321.27
782.28	42020.22
782.46	42251.64
782.64	42333.56
782.82	42325.37
783.01	42663.28
783.19	42366.33
783.37	42284.41
783.55	42388.86
783.74	42722.68
783.92	42413.43
784.10	43134.32
784.28	42458.49
784.46	42261.88
784.64	41966.98
784.83	42409.34
785.01	42575.22
785.19	42587.51
785.37	42351.99
785.55	42595.70
785.74	41887.10
785.92	42012.03
786.10	42481.02
786.28	42132.86
786.46	42145.15
786.64	42091.90
786.83	42292.60
787.01	42433.91
787.19	42294.65
787.37	42542.45
787.55	41813.38
787.74	42177.92
787.92	42177.92
788.10	41682.31
788.28	41821.57
788.46	41966.98
788.64	42018.17
788.82	42112.38
789.01	42173.82
789.19	42079.61
789.37	41821.57
789.55	42007.94
789.73	41735.56
789.91	41477.51
790.09	41598.34
790.28	41297.29
790.46	41676.16
790.64	41618.82
790.82	41424.26
791.00	41405.83
791.18	40672.66
791.36	41330.06
791.55	41710.98
791.73	40994.19
791.91	40781.20
792.09	41137.55
792.27	40861.07
792.45	41039.25
792.63	40351.13
792.81	40467.86
793.00	40871.31
793.18	40170.91
793.36	40717.71
793.54	40519.06
793.72	40056.22
793.90	40211.87
794.08	39830.94
794.26	40326.55
794.44	39789.98
794.62	39792.03
794.81	40062.36
794.99	39476.65
795.17	39593.38
795.35	39628.20
795.53	39804.32
795.71	39767.46
795.89	39220.65
796.07	39220.65
796.25	39239.08
796.43	39173.55
796.61	39388.58
796.80	39204.27
796.98	39245.23
797.16	39079.34
797.34	38557.11
797.52	38782.38
797.70	39075.24
797.88	38636.98
798.06	38409.65
798.24	37858.75
798.42	38389.17
798.60	38280.63
798.78	37914.05
798.96	38286.78
799.14	37823.93
799.32	38057.40
799.51	37619.14
799.69	37770.69
799.87	37705.15
800.05	37617.09
800.23	37537.22
800.41	37701.06
800.59	37400.01
800.77	37457.35
800.95	36945.36
801.13	36953.55
801.31	36777.42
801.49	36914.64
801.67	36910.54
801.85	37109.19
802.03	36902.35
802.21	36734.42
802.39	36660.69
802.57	36709.84
802.75	36412.88
802.93	36320.73
803.11	36169.18
803.29	36304.34
803.47	36191.70
803.65	36066.78
803.83	36316.63
804.01	36095.45
804.19	35747.29
804.37	35513.83
804.55	35829.21
804.73	35872.22
804.91	35692.00
805.09	35550.69
805.27	35567.07
805.45	35757.53
805.63	35448.29
805.81	35636.70
805.99	35546.59
806.17	35681.76
806.35	35268.07
806.53	35145.19
806.71	35001.83
806.89	35167.72
807.07	34938.35
807.25	34952.68
807.43	34938.35
807.61	35120.62
807.79	34637.30
807.97	34383.35
808.15	34649.58
808.33	34215.41
808.51	34276.85
808.69	34375.16
808.87	34184.69
809.05	33744.38
809.23	34125.30
809.41	34041.34
809.59	33959.42
809.77	33916.41
809.95	33326.60
810.13	33768.96
810.31	33445.38
810.49	33734.14
810.67	33773.05
810.84	33768.96
811.02	33193.48
811.20	33181.19
811.38	33580.54
811.56	32998.92
811.74	33185.29
811.92	33111.56
812.10	33334.79
812.28	33367.55
812.46	33162.76
812.64	32781.84
812.82	32712.20
813.00	33050.12
813.18	32976.39
813.36	32497.17
813.53	32650.77
813.71	32450.06
813.89	32626.19
814.07	32515.60
814.25	32312.85
814.43	32282.13
814.61	32132.63
814.79	32220.69
814.97	32151.06
815.15	32050.71
815.33	32026.14
815.50	31960.60
815.68	31970.84
815.86	32153.11
816.04	31757.85
816.22	31591.97
816.40	31680.03
816.58	31694.36
816.76	31647.26
816.94	31421.98
817.11	31557.15
817.29	31659.55
817.47	31614.49
817.65	31424.03
817.83	31415.84
818.01	31204.90
818.19	31178.28
818.37	30993.96
818.54	30856.75
818.72	30746.15
818.90	31374.88
819.08	30918.18
819.26	30838.31
819.44	30547.50
819.62	30684.72
819.80	30946.86
819.97	30578.22
820.15	30809.64
820.33	30144.05
820.51	30524.97
820.69	30168.63
820.87	30492.21
821.05	30387.76
821.22	30168.63
821.40	30658.09
821.58	30191.16
821.76	30228.02
821.94	30260.79
822.12	30074.42
822.29	30045.75
822.47	29824.57
822.65	30127.67
822.83	29765.18
823.01	30029.37
823.19	29548.09
823.36	29498.94
823.54	29539.90
823.72	29363.78
823.90	29707.83
824.08	29550.14
824.25	29705.79
824.43	29466.17
824.61	29554.24
824.79	29480.51
824.97	29150.79
825.15	29560.38
825.32	29595.20
825.50	29007.43
825.68	29021.77
825.86	29281.86
826.04	29158.98
826.21	29050.44
826.39	29251.14
826.57	28821.06
826.75	29050.44
826.93	28661.32
827.10	28771.91
827.28	28948.04
827.46	28952.13
827.64	28708.43
827.81	28511.82
827.99	28798.54
828.17	28270.16
828.35	28311.12
828.53	28372.56
828.70	28616.27
828.88	28710.47
829.06	28464.72
829.24	28520.01
829.41	28137.04
829.59	28247.63
829.77	28278.35
829.95	28270.16
830.12	28253.78
830.30	28401.23
830.48	28038.74
830.66	27629.15
830.84	28010.07
831.01	27786.84
831.19	27928.15
831.37	27936.34
831.55	27747.93
831.72	27649.63
831.90	27633.24
832.08	27719.26
832.25	27293.28
832.43	27856.47
832.61	27354.72
832.79	27270.75
832.96	27659.87
833.14	27235.94
833.32	27580.00
833.50	27094.63
833.67	27629.15
833.85	27115.11
834.03	27270.75
834.20	27160.16
834.38	27436.64
834.56	27348.57
834.74	27207.26
834.91	27047.52
835.09	27063.91
835.27	26717.80
835.44	26588.78
835.62	26566.25
835.80	26769.00
835.98	26963.56
836.15	26904.17
836.33	26807.91
836.51	27143.78
836.68	26775.14
836.86	26674.79
837.04	26791.53
837.21	26658.41
837.39	26519.15
837.57	26633.83
837.75	26793.58
837.92	26300.01
838.10	26463.85
838.28	26132.08
838.45	25933.43
838.63	26166.90
838.81	26314.35
838.98	25968.24
839.16	26005.11
839.34	25851.51
839.51	25851.51
839.69	26021.49
839.87	25777.78
840.04	25714.30
840.22	26037.87
840.40	25642.62
840.57	25345.66
840.75	26199.66
840.93	25190.02
841.10	25517.69
841.28	26238.58
841.46	25534.07
841.63	25865.85
841.81	25443.96
841.98	25443.96
842.16	25425.53
842.34	25458.30
842.51	25529.98
842.69	25638.52
842.87	25155.20
843.04	25394.81
843.22	25132.67
843.40	25130.62
843.57	25155.20
843.75	25290.37
843.92	25329.28
844.10	25364.09
844.28	25169.54
844.45	25253.50
844.63	24948.36
844.81	24931.97
844.98	25091.71
845.16	24741.51
845.33	24958.60
845.51	24958.60
845.69	25011.84
845.86	24675.98
846.04	24604.30
846.21	24505.99
846.39	24850.05
846.57	24323.72
846.74	24669.83
846.92	24520.33
847.09	24356.49
847.27	24159.89
847.45	24632.97
847.62	24583.82
847.80	24755.85
847.97	24180.37
848.15	24262.29
848.32	24008.34
848.50	24471.18
848.68	23819.92
848.85	23942.80
849.03	24252.05
849.20	24333.96
849.38	24112.78
849.56	24016.53
849.73	23877.27
849.91	24116.88
850.08	23994.00
850.26	23676.57
850.43	23873.17
850.61	23828.12
850.78	23608.98
850.96	23658.14
851.14	23445.15
851.31	24010.39
851.49	23889.56
851.66	23791.25
851.84	23396.00
852.01	23623.32
852.19	23613.08
852.36	23320.22
852.54	23393.95
852.71	23441.05
852.89	23201.44
853.07	23682.71
853.24	23555.74
853.42	23322.27
853.59	23295.64
853.77	23434.91
853.94	23246.49
854.12	23508.63
854.29	23035.55
854.47	23238.30
854.64	23281.31
854.82	22963.87
854.99	23058.08
855.17	22902.43
855.34	23064.22
855.52	22820.52
855.69	23058.08
855.87	22677.16
856.04	22687.40
856.22	22843.04
856.39	22660.77
856.57	22820.52
856.74	22625.96
856.92	22738.60
857.09	22324.91
857.27	22578.86
857.44	22337.20
857.62	22806.18
857.79	22697.64
857.97	22519.46
858.14	22294.19
858.32	22386.35
858.49	22410.92
858.67	22212.27
858.84	22251.18
859.02	22394.54
859.19	22187.69
859.37	22050.48
859.54	22103.73
859.72	22369.96
859.89	22130.35
860.06	22070.96
860.24	22273.71
860.41	22199.98
860.59	21745.33
860.76	21962.42
860.94	21757.62
861.11	21894.83
861.29	21784.24
861.46	21962.42
861.64	21976.75
861.81	21726.90
861.98	21630.65
862.16	21575.35
862.33	21407.42
862.51	21397.18
862.68	21872.31
862.86	21448.38
863.03	21411.51
863.21	21483.19
863.38	21313.21
863.55	21382.84
863.73	21413.56
863.90	21442.23
864.08	21204.67
864.25	21223.10
864.43	21141.18
864.60	20958.91
864.77	21221.05
864.95	21081.79
865.12	20905.66
865.30	21055.17
865.47	20844.23
865.64	20915.90
865.82	21118.65
865.99	21022.40
866.17	20897.47
866.34	20948.67
866.51	20670.15
866.69	20848.32
866.86	20772.55
867.04	20817.60
867.21	20977.34
867.38	20152.01
867.56	20248.27
867.73	20610.76
867.91	20442.82
868.08	20506.31
868.25	20383.43
868.43	20391.62
868.60	20276.94
868.78	20252.36
868.95	20602.57
869.12	20551.37
869.30	20104.91
869.47	20135.63
869.64	19918.54
869.82	20321.99
869.99	19945.17
870.16	20301.51
870.34	19979.98
870.51	20215.50
870.69	19883.73
870.86	19734.23
871.03	20014.80
871.21	19709.65
871.38	19965.65
871.55	19625.68
871.73	19668.69
871.90	19345.11
872.07	19494.61
872.25	19353.30
872.42	19416.79
872.59	19357.40
872.77	19467.99
872.94	19277.53
873.11	19308.25
873.29	19605.20
873.46	19140.32
873.63	19476.18
873.81	19402.46
873.98	19179.23
874.15	19107.55
874.33	18937.57
874.50	19080.92
874.67	19291.87
874.85	18962.14
875.02	18810.59
875.19	18642.66
875.37	18611.94
875.54	18609.89
875.71	18718.43
875.88	18540.26
876.06	18892.51
876.23	18464.49
876.40	18589.41
876.58	18300.65
876.75	18376.42
876.92	18450.15
877.10	18444.01
877.27	18224.87
877.44	18351.85
877.61	18192.11
877.79	18173.67
877.96	18261.74
878.13	18181.87
878.31	18118.38
878.48	17815.28
878.65	17864.43
878.82	17860.34
879.00	18083.56
879.17	18126.57
879.34	17907.44
879.51	17729.27
879.69	17770.22
879.86	17946.35
880.03	17731.31
880.21	17669.87
880.38	17688.31
880.55	17821.42
880.72	17567.48
880.90	17704.69
881.07	17590.00
881.24	17581.81
881.41	17440.50
881.59	17481.46
881.76	17401.59
881.93	17221.37
882.10	17254.14
882.28	17348.34
882.45	17360.63
882.62	17350.39
882.79	17360.63
882.96	17082.11
883.14	17172.22
883.31	17352.44
883.48	17301.24
883.65	17170.17
883.83	17215.23
884.00	17032.96
884.17	17123.07
884.34	17309.43
884.51	16989.95
884.69	16779.01
884.86	16983.80
885.03	17168.12
885.20	16822.02
885.38	16994.04
885.55	16776.96
885.72	16547.59
885.89	16822.02
886.06	16813.82
886.24	16674.56
886.41	16477.96
886.58	16877.31
886.75	16740.10
886.92	16621.31
887.10	17006.33
887.27	16445.19
887.44	16475.91
887.61	16488.20
887.78	16637.70
887.95	16666.37
888.13	16410.37
888.30	16361.22
888.47	16353.03
888.64	16543.49
888.81	16348.93
888.99	16271.11
889.16	16002.83
889.33	16297.74
889.50	16158.47
889.67	16168.71
889.84	15879.95
890.01	16359.17
890.19	16084.75
890.36	16189.19
890.53	16011.02
890.70	15963.92
890.87	16035.60
891.04	15922.96
891.22	15884.05
891.39	15857.42
891.56	15857.42
891.73	15718.16
891.90	15644.43
892.07	15582.99
892.24	15757.07
892.42	15623.95
892.59	15699.73
892.76	15763.22
892.93	15707.92
893.10	15703.82
893.27	15523.60
893.44	15451.92
893.61	15595.28
893.79	15546.13
893.96	15470.36
894.13	15523.60
894.30	15486.74
894.47	15568.66
894.64	15593.23
894.81	15435.54
894.98	15650.58
895.15	15394.58
895.33	15331.09
895.50	15370.01
895.67	15365.91
895.84	15271.70
896.01	15367.96
896.18	15161.11
896.35	15392.53
896.52	15519.51
896.69	15372.05
896.86	15265.56
897.04	15517.46
897.21	15292.18
897.38	15408.92
897.55	15349.53
897.72	15298.33
897.89	15435.54
898.06	15400.72
898.23	15300.37
898.40	15427.35
898.57	14991.13
898.74	15247.13
898.91	15240.98
899.08	15187.74
899.26	15193.88
899.43	15099.67
899.60	15222.55
899.77	15175.45
899.94	15095.58
900.11	14937.88
900.28	15103.77
900.45	15017.75
900.62	15107.87
900.79	15300.37
900.96	15134.49
901.13	15349.53
901.30	15122.20
901.47	15118.11
901.64	15173.40
901.81	15060.76
901.98	14823.20
902.15	15312.66
902.32	15105.82
902.49	15007.52
902.66	15019.80
902.83	14903.07
903.01	14901.02
903.18	15236.89
903.35	15046.43
903.52	15093.53
903.69	15060.76
903.86	14892.83
904.03	15075.10
904.20	15279.89
904.37	15052.57
904.54	15294.23
904.71	15210.26
904.88	15232.79
905.05	14989.08
905.22	14962.46
905.39	15087.39
905.56	14991.13
905.73	14972.70
905.90	14747.42
906.07	14726.94
906.24	14892.83
906.41	14931.74
906.58	15054.62
906.75	15021.85
906.92	14880.54
907.09	15040.28
907.26	14950.17
907.43	14925.60
907.60	14960.41
907.77	15025.95
907.93	14984.99
908.10	15071.00
908.27	14921.50
908.44	14880.54
908.61	14651.17
908.78	14735.14
908.95	14677.79
909.12	14937.88
909.29	14759.71
909.46	14694.18
909.63	15044.38
909.80	15111.96
909.97	14827.29
910.14	14913.31
910.31	14722.85
910.48	14612.26
910.65	14677.79
910.82	14526.24
910.99	14665.50
911.16	14552.87
911.33	14550.82
911.50	14720.80
911.66	14403.36
911.83	14798.62
912.00	14692.13
912.17	14503.71
912.34	14425.89
912.51	14622.50
912.68	14563.11
912.85	14278.44
913.02	14509.86
913.19	14530.34
913.36	14313.25
913.53	14479.14
913.70	14184.23
913.86	14503.71
914.03	14300.97
914.20	14149.42
914.37	14303.01
914.54	14014.25
914.71	14206.76
914.88	14186.28
915.05	13967.15
915.22	14061.35
915.39	14202.66
915.55	13940.52
915.72	13977.39
915.89	13842.22
916.06	13836.08
916.23	13801.26
916.40	13926.19
916.57	13418.29
916.74	13776.69
916.91	13612.85
917.07	13672.24
917.24	13563.70
917.41	13639.47
917.58	13688.62
917.75	13426.48
917.92	13295.41
918.09	13360.95
918.26	13336.37
918.42	13492.02
918.59	13403.96
918.76	13209.40
918.93	13162.30
919.10	13035.32
919.27	12887.87
919.44	13176.63
919.60	13252.41
919.77	12926.78
919.94	12943.16
920.11	13182.77
920.28	13147.96
920.45	12998.46
920.61	12701.50
920.78	12930.87
920.95	12836.67
921.12	12701.50
921.29	12676.93
921.46	12771.13
921.62	12486.47
921.79	12629.82
921.96	12627.78
922.13	12457.79
922.30	12558.14
922.47	12484.42
922.63	12343.11
922.80	12461.89
922.97	12285.76
923.14	12015.43
923.31	12298.05
923.47	12158.79
923.64	12406.59
923.81	11923.27
923.98	12171.08
924.15	12064.58
924.32	11870.03
924.48	12031.82
924.65	11925.32
924.82	11839.31
924.99	11677.52
925.15	11632.46
925.32	11933.51
925.49	11456.34
925.66	11618.13
925.83	11460.43
925.99	11632.46
926.16	11657.04
926.33	11466.58
926.50	11284.31
926.67	11245.40
926.83	11267.92
927.00	11003.74
927.17	11099.99
927.34	11052.89
927.50	11188.05
927.67	11169.62
927.84	11052.89
928.01	10852.19
928.17	10882.91
928.34	10903.39
928.51	10887.00
928.68	10796.89
928.84	10856.28
929.01	10671.97
929.18	10618.72
929.35	10639.20
929.51	10669.92
929.68	10243.94
929.85	10370.91
930.02	10649.44
930.18	10289.00
930.35	10536.80
930.52	10227.56
930.69	10196.84
930.85	10227.56
931.02	9981.80
931.19	10078.05
931.36	10145.64
931.52	10184.55
931.69	9914.22
931.86	9889.64
932.02	9871.21
932.19	9934.70
932.36	9813.87
932.53	9875.31
932.69	9815.91
932.86	9908.07
933.03	9770.86
933.19	9488.24
933.36	9647.98
933.53	9680.75
933.70	9594.73
933.86	9506.67
934.03	9424.75
934.20	9240.44
934.36	9328.50
934.53	9174.90
934.70	9107.32
934.86	9084.79
935.03	8935.29
935.20	8841.08
935.36	8896.38
935.53	8861.56
935.70	8697.72
935.86	8730.49
936.03	8693.63
936.20	8527.74
936.36	8398.72
936.53	8398.72
936.70	8359.81
936.86	8445.82
937.03	8271.75
937.20	7884.68
937.36	8165.25
937.53	7829.38
937.70	7864.20
937.86	7710.60
938.03	7745.42
938.20	7696.27
938.36	7499.66
938.53	7597.96
938.70	7344.02
938.86	7350.16
939.03	7307.15
939.20	7350.16
939.36	7135.12
939.53	7301.01
939.70	7210.90
939.86	6668.19
940.03	6727.58
940.19	6639.51
940.36	6678.43
940.53	6582.17
940.69	6518.68
940.86	6608.80
941.03	6375.33
941.19	6252.45
941.36	6176.67
941.52	6145.95
941.69	6135.71
941.86	6098.85
942.02	6168.48
942.19	6033.32
942.35	6201.25
942.52	5971.88
942.69	5910.44
942.85	5840.81
943.02	5773.22
943.18	5781.42
943.35	5879.72
943.52	5769.13
943.68	5584.81
943.85	5621.67
944.01	5584.81
944.18	5584.81
944.35	5627.82
944.51	5427.12
944.68	5416.88
944.84	5404.59
945.01	5355.44
945.17	5345.20
945.34	5300.14
945.51	5453.74
945.67	5420.97
945.84	5406.64
946.00	5287.86
946.17	5318.57
946.33	5222.32
946.50	5447.60
946.67	5285.81
946.83	5218.22
947.00	5330.86
947.16	5259.18
947.33	5212.08
947.49	5189.55
947.66	5207.98
947.82	5189.55
947.99	5248.94
948.16	5197.74
948.32	5263.28
948.49	5257.14
948.65	5173.17
948.82	5240.75
948.98	5339.05
949.15	5111.73
949.31	5361.58
949.48	5343.15
949.64	5121.97
949.81	5339.05
949.97	5175.22
950.14	5283.76
950.30	5115.83
950.47	5437.36
950.63	5296.05
950.80	5121.97
950.96	5218.22
951.13	5343.15
951.30	5199.79
951.46	5277.62
951.63	5312.43
951.79	5390.25
951.96	5441.45
952.12	5377.97
952.29	5361.58
952.45	5298.10
952.62	5144.50
952.78	5289.90
952.94	5250.99
953.11	5285.81
953.27	5144.50
953.44	5302.19
953.60	5404.59
953.77	5466.03
953.93	5369.77
954.10	5283.76
954.26	5298.10
954.43	5269.42
954.59	5429.17
954.76	5523.37
954.92	5562.28
955.09	5476.27
955.25	5445.55
955.42	5312.43
955.58	5496.75
955.75	5418.93
955.91	5304.24
956.07	5427.12
956.24	5345.20
956.40	5316.53
956.57	5361.58
956.73	5461.93
956.90	5375.92
957.06	5259.18
957.23	5267.38
957.39	5326.77
957.56	5322.67
957.72	5318.57
957.88	5318.57
958.05	5470.12
958.21	5529.52
958.38	5466.03
958.54	5418.93
958.71	5568.43
958.87	5373.87
959.03	5488.56
959.20	5306.29
959.36	5353.39
959.53	5302.19
959.69	5195.70
959.85	5455.79
960.02	5343.15
960.18	5355.44
960.35	5541.80
960.51	5496.75
960.68	5330.86
960.84	5466.03
961.00	5255.09
961.17	5218.22
961.33	5357.49
961.50	5443.50
961.66	5496.75
961.82	5283.76
961.99	5463.98
962.15	5437.36
962.31	5255.09
962.48	5339.05
962.64	5365.68
962.81	5332.91
962.97	5451.69
963.13	5435.31
963.30	5410.73
963.46	5365.68
963.62	5390.25
963.79	5222.32
963.95	5398.45
964.12	5242.80
964.28	5298.10
964.44	5169.07
964.61	5337.01
964.77	5261.23
964.93	5363.63
965.10	5363.63
965.26	5201.84
965.42	5224.37
965.59	5377.97
965.75	5281.71
965.92	5250.99
966.08	5328.81
966.24	5240.75
966.41	5234.61
966.57	5218.22
966.73	5359.53
966.90	5250.99
967.06	5220.27
967.22	5111.73
967.39	5337.01
967.55	5156.79
967.71	5197.74
967.88	5087.15
968.04	5181.36
968.20	5042.10
968.37	5044.15
968.53	5062.58
968.69	5109.68
968.85	5074.87
969.02	5103.54
969.18	5070.77
969.34	5124.02
969.51	5078.96
969.67	5216.18
969.83	5025.72
970.00	5156.79
970.16	5017.52
970.32	4968.37
970.48	5101.49
970.65	4962.23
970.81	5087.15
970.97	4935.60
971.14	4992.95
971.30	5087.15
971.46	4974.52
971.63	4935.60
971.79	5035.96
971.95	4978.61
972.11	4796.34
972.28	4898.74
972.44	4937.65
972.60	4792.25
972.76	4935.60
972.93	4822.97
973.09	4843.45
973.25	4966.32
973.42	4784.06
973.58	4941.75
973.74	4933.56
973.90	4943.80
974.07	4804.53
974.23	4835.25
974.39	4927.41
974.55	4769.72
974.72	4818.87
974.88	4597.69
975.04	4769.72
975.20	4769.72
975.37	4753.34
975.53	4624.31
975.69	4667.32
975.85	4679.61
976.01	4739.00
976.18	4779.96
976.34	4687.80
976.50	4720.57
976.66	4788.15
976.83	4663.22
976.99	4583.35
977.15	4612.03
977.31	4483.00
977.47	4579.26
977.64	4661.18
977.80	4597.69
977.96	4612.03
978.12	4532.15
978.29	4573.11
978.45	4534.20
978.61	4429.76
978.77	4577.21
978.93	4444.09
979.10	4507.58
979.26	4562.87
979.42	4741.05
979.58	4409.28
979.74	4435.90
979.91	4511.68
980.07	4437.95
980.23	4526.01
980.39	4407.23
980.55	4370.37
980.71	4429.76
980.88	4403.13
981.04	4444.09
981.20	4364.22
981.36	4499.39
981.52	4413.37
981.68	4333.50
981.85	4540.35
982.01	4407.23
982.17	4325.31
982.33	4351.93
982.49	4304.83
982.65	4255.68
982.82	4345.79
982.98	4401.08
983.14	4218.82
983.30	4370.37
983.46	4329.41
983.62	4368.32
983.79	4157.38
983.95	4100.03
984.11	4018.11
984.27	4194.24
984.43	4159.42
984.59	4118.47
984.75	4276.16
984.91	4161.47
985.08	4138.94
985.24	4190.14
985.40	4067.27
985.56	4108.23
985.72	4032.45
985.88	4118.47
986.04	4093.89
986.20	4083.65
986.37	4091.84
986.53	3993.54
986.69	4007.87
986.85	3958.72
987.01	4038.59
987.17	4022.21
987.33	4106.18
987.49	4040.64
987.65	3860.42
987.82	3915.72
987.98	3968.96
988.14	3885.00
988.30	4114.37
988.46	3895.24
988.62	3938.24
988.78	3889.09
988.94	3846.09
989.10	3801.03
989.26	3930.05
989.42	3829.70
989.59	3776.45
989.75	3723.21
989.91	3805.13
990.07	3798.98
990.23	3637.19
990.39	3735.50
990.55	3745.73
990.71	3659.72
990.87	3934.15
991.03	3815.37
991.19	3688.39
991.35	3719.11
991.51	3729.35
991.67	3858.37
991.83	3715.02
992.00	3786.69
992.16	3690.44
992.32	3708.87
992.48	3741.64
992.64	3692.49
992.80	3633.10
992.96	3682.25
993.12	3708.87
993.28	3764.17
993.44	3657.67
993.60	3700.68
993.76	3569.61
993.92	3534.79
994.08	3760.07
994.24	3700.68
994.40	3561.42
994.56	3690.44
994.72	3473.36
994.88	3567.56
995.04	3547.08
995.20	3631.05
995.36	3553.23
995.52	3565.51
995.68	3559.37
995.84	3473.36
996.00	3653.58
996.16	3657.67
996.32	3483.59
996.48	3514.31
996.64	3454.92
996.80	3399.63
996.96	3438.54
997.12	3524.55
997.28	3471.31
997.44	3409.87
997.60	3346.38
997.76	3395.53
997.92	3465.16
998.08	3321.81
998.24	3170.26
998.40	3440.59
998.56	3332.05
998.72	3360.72
998.88	3303.37
999.04	3289.04
999.20	3356.62
999.36	3248.08
999.52	3432.40
999.68	3307.47
999.84	3295.18
1000.00	3221.45
1000.16	3430.35
1000.32	3221.45
1000.48	3432.40
1000.64	3311.57
1000.80	3205.07
1000.95	3233.74
1001.11	3203.02
1001.27	3155.92
1001.43	3305.42
1001.59	3065.81
1001.75	3133.39
1001.91	3239.89
1002.07	3086.29
1002.23	3246.03
1002.39	3223.50
1002.55	3190.74
1002.71	3055.57
1002.87	3131.34
1003.03	3188.69
1003.19	3084.24
1003.34	3039.19
1003.50	3004.37
1003.66	3198.93
1003.82	3125.20
1003.98	2969.55
1004.14	3129.30
1004.30	3059.67
1004.46	2977.75
1004.62	2961.36
1004.78	3051.47
1004.94	2994.13
1005.09	3188.69
1005.25	3051.47
1005.41	2969.55
1005.57	2967.51
1005.73	2957.27
1005.89	2910.16
1006.05	2955.22
1006.21	2953.17
1006.37	2910.16
1006.52	2940.88
1006.68	2940.88
1006.84	3045.33
1007.00	2856.92
1007.16	3049.43
1007.32	2897.88
1007.48	2908.12
1007.64	2953.17
1007.79	2951.12
1007.95	2822.10
1008.11	2957.27
1008.27	2811.86
1008.43	2947.03
1008.59	2813.91
1008.75	2912.21
1008.91	2930.64
1009.06	2803.67
1009.22	2793.43
1009.38	2824.15
1009.54	2863.06
1009.70	2830.29
1009.86	2865.11
1010.01	2809.81
1010.17	2736.09
1010.33	2748.37
1010.49	2721.75
1010.65	2875.35
1010.81	2826.20
1010.96	2748.37
1011.12	2807.77
1011.28	2682.84
1011.44	2721.75
1011.60	2666.46
1011.76	2668.50
1011.91	2867.16
1012.07	2635.74
1012.23	2691.03
1012.39	2641.88
1012.55	2648.02
1012.71	2637.78
1012.86	2549.72
1013.02	2715.61
1013.18	2668.50
1013.34	2564.06
1013.50	2738.13
1013.65	2633.69
1013.81	2586.58
1013.97	2553.82
1014.13	2682.84
1014.29	2547.67
1014.44	2674.65
1014.60	2570.20
1014.76	2586.58
1014.92	2590.68
1015.07	2574.30
1015.23	2629.59
1015.39	2688.98
1015.55	2594.78
1015.71	2621.40
1015.86	2471.90
1016.02	2439.13
1016.18	2469.85
1016.34	2623.45
1016.49	2461.66
1016.65	2635.74
1016.81	2449.37
1016.97	2576.34
1017.12	2590.68
1017.28	2439.13
1017.44	2404.32
1017.60	2439.13
1017.75	2555.86
1017.91	2420.70
1018.07	2396.12
1018.23	2367.45
1018.38	2455.51
1018.54	2447.32
1018.70	2467.80
1018.86	2420.70
1019.01	2375.64
1019.17	2414.56
1019.33	2453.47
1019.49	2449.37
1019.64	2447.32
1019.80	2430.94
1019.96	2398.17
1020.12	2355.16
1020.27	2338.78
1020.43	2437.08
1020.59	2379.74
1020.74	2437.08
1020.90	2379.74
1021.06	2318.30
1021.22	2396.12
1021.37	2357.21
1021.53	2314.20
1021.69	2394.08
1021.84	2330.59
1022.00	2273.25
1022.16	2291.68
1022.31	2256.86
1022.47	2349.02
1022.63	2344.92
1022.79	2197.47
1022.94	2271.20
1023.10	2449.37
1023.26	2299.87
1023.41	2226.14
1023.57	2258.91
1023.73	2297.82
1023.88	2275.29
1024.04	2244.57
1024.20	2183.13
1024.35	2246.62
1024.51	2289.63
1024.67	2236.38
1024.82	2416.60
1024.98	2207.71
1025.14	2246.62
1025.29	2176.99
1025.45	2297.82
1025.61	2207.71
1025.76	2138.08
1025.92	2189.28
1026.08	2211.81
1026.23	2256.86
1026.39	2222.05
1026.55	2174.94
1026.70	2224.09
1026.86	2197.47
1027.02	2252.77
1027.17	2097.12
1027.33	2164.70
1027.48	2197.47
1027.64	2074.59
1027.80	2093.02
1027.95	2168.80
1028.11	2121.70
1028.27	2203.61
1028.42	2183.13
1028.58	2064.35
1028.73	2138.08
1028.89	2138.08
1029.05	2256.86
1029.20	2093.02
>>>>>End Processed Spectral Data<<<<<
