SpectraSuite Data File
++++++++++++++++++++++++++++++++++++
Date: Fri Jun 02 14:53:33 CEST 2017
User: INFO_000
Dark Spectrum Present: No
Reference Spectrum Present: No
Number of Sampled Component Spectra: 1
Spectrometers: USB4H00879
Integration Time (usec): 80000 (USB4H00879)
Spectra Averaged: 1 (USB4H00879)
Boxcar Smoothing: 0 (USB4H00879)
Correct for Electrical Dark: No (USB4H00879)
Strobe/Lamp Enabled: No (USB4H00879)
Correct for Detector Non-linearity: No (USB4H00879)
Correct for Stray Light: No (USB4H00879)
Number of Pixels in Processed Spectrum: 3648
>>>>>Begin Processed Spectral Data<<<<<
345.13	1294.32
345.34	1294.32
345.56	1294.32
345.78	1306.60
345.99	1243.12
346.21	1769.44
346.42	1685.48
346.64	1722.34
346.86	1806.31
347.07	1632.23
347.29	1765.35
347.50	1605.61
347.72	1638.38
347.94	1699.81
348.15	1558.50
348.37	1642.47
348.59	1671.14
348.80	1640.42
349.02	1804.26
349.23	1902.56
349.45	1769.44
349.67	1912.80
349.88	1800.16
350.10	2013.15
350.31	1880.04
350.53	1695.72
350.75	1920.99
350.96	1822.69
351.18	1880.04
351.39	1871.84
351.61	1884.13
351.82	1875.94
352.04	1982.43
352.26	1779.68
352.47	1898.47
352.69	1875.94
352.90	1767.40
353.12	1982.43
353.34	1875.94
353.55	2013.15
353.77	1877.99
353.98	1794.02
354.20	1875.94
354.41	1871.84
354.63	1914.85
354.85	2066.40
355.06	1974.24
355.28	1720.29
355.49	1834.98
355.71	1894.37
355.92	1914.85
356.14	1961.95
356.35	1888.23
356.57	1869.80
356.79	1920.99
357.00	1886.18
357.22	1884.13
357.43	1886.18
357.65	1984.48
357.86	1826.79
358.08	1861.60
358.29	1906.66
358.51	1970.15
358.72	1961.95
358.94	1955.81
359.16	1853.41
359.37	2000.87
359.59	1966.05
359.80	1998.82
360.02	2043.87
360.23	1968.10
360.45	2047.97
360.66	1957.86
360.88	1767.40
361.09	1918.95
361.31	2027.49
361.52	1892.32
361.74	2117.60
361.95	2076.64
362.17	1978.34
362.38	2070.50
362.60	2041.82
362.81	2060.26
363.03	1953.76
363.24	1957.86
363.46	2017.25
363.67	2119.65
363.89	2011.11
364.10	2062.30
364.32	1968.10
364.53	2080.74
364.75	1935.33
364.96	2023.39
365.18	2074.59
365.39	2027.49
365.61	2045.92
365.82	2070.50
366.04	2033.63
366.25	1992.67
366.47	2086.88
366.68	2029.54
366.90	2037.73
367.11	2082.78
367.33	2090.98
367.54	2097.12
367.76	1974.24
367.97	2101.22
368.19	2123.74
368.40	2027.49
368.62	1955.81
368.83	2037.73
369.05	2011.11
369.26	1935.33
369.48	1933.28
369.69	2009.06
369.91	2164.70
370.12	1990.63
370.33	2187.23
370.55	1980.39
370.76	1972.19
370.98	2093.02
371.19	2162.66
371.41	1970.15
371.62	2107.36
371.84	2076.64
372.05	2238.43
372.27	2068.45
372.48	2119.65
372.69	2117.60
372.91	2121.70
373.12	2244.57
373.34	2043.87
373.55	2086.88
373.77	2082.78
373.98	2099.17
374.20	2193.37
374.41	2297.82
374.62	2113.50
374.84	2152.42
375.05	2068.45
375.27	2203.61
375.48	2230.24
375.70	2160.61
375.91	2308.06
376.12	2234.33
376.34	2191.33
376.55	2191.33
376.77	2166.75
376.98	2088.93
377.19	2209.76
377.41	2056.16
377.62	2254.81
377.84	2287.58
378.05	2306.01
378.27	2201.57
378.48	2324.44
378.69	2461.66
378.91	2349.02
379.12	2263.01
379.34	2252.77
379.55	2293.72
379.76	2361.31
379.98	2258.91
380.19	2310.11
380.41	2336.73
380.62	2273.25
380.83	2269.15
381.05	2254.81
381.26	2381.79
381.47	2187.23
381.69	2271.20
381.90	2422.75
382.12	2248.67
382.33	2279.39
382.54	2326.49
382.76	2312.16
382.97	2297.82
383.19	2228.19
383.40	2443.23
383.61	2371.55
383.83	2299.87
384.04	2295.77
384.25	2392.03
384.47	2398.17
384.68	2359.26
384.89	2242.53
385.11	2308.06
385.32	2293.72
385.54	2416.60
385.75	2324.44
385.96	2418.65
386.18	2383.84
386.39	2387.93
386.60	2414.56
386.82	2387.93
387.03	2351.07
387.24	2469.85
387.46	2451.42
387.67	2506.71
387.88	2539.48
388.10	2430.94
388.31	2412.51
388.52	2703.32
388.74	2529.24
388.95	2471.90
389.16	2596.82
389.38	2441.18
389.59	2519.00
389.80	2641.88
390.02	2625.50
390.23	2656.22
390.44	2547.67
390.66	2533.34
390.87	2410.46
391.08	2762.71
391.30	2641.88
391.51	2619.35
391.72	2674.65
391.94	2725.85
392.15	2586.58
392.36	2596.82
392.58	2609.11
392.79	2652.12
393.00	2678.74
393.22	2834.39
393.43	2654.17
393.64	2818.00
393.85	2775.00
394.07	2678.74
394.28	2764.76
394.49	2770.90
394.71	2846.68
394.92	2772.95
395.13	2641.88
395.35	2715.61
395.56	2787.29
395.77	2801.62
395.98	2754.52
396.20	2861.01
396.41	2881.49
396.62	2846.68
396.84	2875.35
397.05	2897.88
397.26	3006.42
397.47	3028.95
397.69	2879.44
397.90	3055.57
398.11	2938.84
398.32	2852.82
398.54	2795.48
398.75	2854.87
398.96	2861.01
399.18	3043.28
399.39	3000.27
399.60	3014.61
399.81	3014.61
400.03	2947.03
400.24	3338.19
400.45	3110.86
400.66	3184.59
400.88	3110.86
401.09	3190.74
401.30	3084.24
401.51	3223.50
401.73	3182.54
401.94	3106.77
402.15	3170.26
402.36	3274.70
402.58	3100.62
402.79	3207.12
403.00	3217.36
403.21	3188.69
403.43	3289.04
403.64	3284.94
403.85	3137.49
404.06	3239.89
404.27	3160.02
404.49	3194.83
404.70	3176.40
404.91	3370.96
405.12	3289.04
405.34	3203.02
405.55	3362.76
405.76	3203.02
405.97	3276.75
406.19	3387.34
406.40	3284.94
406.61	3299.28
406.82	3475.40
407.03	3336.14
407.25	3332.05
407.46	3348.43
407.67	3379.15
407.88	3530.70
408.09	3411.92
408.31	3485.64
408.52	3350.48
408.73	3377.10
408.94	3424.20
409.15	3418.06
409.37	3526.60
409.58	3426.25
409.79	3530.70
410.00	3614.66
410.21	3485.64
410.43	3360.72
410.64	3487.69
410.85	3522.51
411.06	3540.94
411.27	3581.90
411.48	3694.54
411.70	3526.60
411.91	3567.56
412.12	3747.78
412.33	3602.38
412.54	3645.38
412.76	3721.16
412.97	3608.52
413.18	3592.14
413.39	3837.89
413.60	3645.38
413.81	3805.13
414.03	3573.71
414.24	3764.17
414.45	3866.56
414.66	3706.82
414.87	3743.69
415.08	3735.50
415.30	3964.87
415.51	3839.94
415.72	3831.75
415.93	3833.80
416.14	3895.24
416.35	3786.69
416.56	3866.56
416.78	3985.35
416.99	3864.52
417.20	3817.41
417.41	3887.04
417.62	3950.53
417.83	4046.79
418.04	3971.01
418.26	3962.82
418.47	3899.33
418.68	4093.89
418.89	4085.70
419.10	4149.18
419.31	4057.03
419.52	4145.09
419.73	3893.19
419.95	4061.12
420.16	3993.54
420.37	4034.50
420.58	4065.22
420.79	3915.72
421.00	4147.14
421.21	4282.30
421.42	4104.13
421.63	4171.71
421.85	4112.32
422.06	4235.20
422.27	4249.54
422.48	4165.57
422.69	4288.45
422.90	4239.30
423.11	4366.27
423.32	4288.45
423.53	4505.53
423.75	4300.73
423.96	4493.24
424.17	4394.94
424.38	4493.24
424.59	4337.60
424.80	4659.13
425.01	4413.37
425.22	4353.98
425.43	4411.32
425.64	4718.52
425.85	4759.48
426.06	4585.40
426.28	4536.25
426.49	4378.56
426.70	4399.04
426.91	4566.97
427.12	4614.07
427.33	4630.46
427.54	4626.36
427.75	4648.89
427.96	4773.82
428.17	4722.62
428.38	4939.70
428.59	4808.63
428.80	4720.57
429.01	4966.32
429.23	4704.18
429.44	5040.05
429.65	4974.52
429.86	4943.80
430.07	4870.07
430.28	4943.80
430.49	5017.52
430.70	5226.42
430.91	5054.39
431.12	5117.87
431.33	5187.50
431.54	5228.46
431.75	5126.07
431.96	5009.33
432.17	5124.02
432.38	5109.68
432.59	5353.39
432.80	5289.90
433.01	5304.24
433.22	5418.93
433.43	5279.66
433.64	5199.79
433.85	5341.10
434.06	5382.06
434.27	5300.14
434.49	5441.45
434.70	5511.08
434.91	5369.77
435.12	5355.44
435.33	5322.67
435.54	5513.13
435.75	5334.96
435.96	5511.08
436.17	5384.11
436.38	5554.09
436.59	5638.06
436.80	5531.56
437.01	5713.83
437.22	5781.42
437.43	5562.28
437.64	5648.30
437.85	5636.01
438.06	5832.62
438.27	5722.02
438.48	5660.59
438.69	5855.14
438.90	5687.21
439.11	5552.04
439.32	5924.77
439.53	5828.52
439.74	5955.49
439.95	5904.29
440.16	5883.81
440.37	5840.81
440.57	5912.49
440.78	5849.00
440.99	5916.58
441.20	5910.44
441.41	5781.42
441.62	6029.22
441.83	5885.86
442.04	6041.51
442.25	5949.35
442.46	6012.84
442.67	6113.19
442.88	6453.15
443.09	5980.07
443.30	6088.61
443.51	6133.67
443.72	6281.12
443.93	6205.35
444.14	6506.40
444.35	6188.96
444.56	6336.42
444.77	6363.04
444.98	6428.57
445.19	6373.28
445.40	6356.90
445.61	6389.66
445.81	6432.67
446.02	6524.83
446.23	6498.20
446.44	6352.80
446.65	6600.60
446.86	6594.46
447.07	6444.96
447.28	6555.55
447.49	6821.78
447.70	6590.36
447.91	6885.27
448.12	6659.99
448.33	6672.28
448.54	6719.39
448.74	6789.02
448.95	6834.07
449.16	6680.47
449.37	7212.95
449.58	6860.70
449.79	7061.40
450.00	6883.22
450.21	7098.26
450.42	7157.65
450.63	7081.88
450.84	7024.53
451.05	7024.53
451.25	6905.75
451.46	7077.78
451.67	7208.85
451.88	7262.10
452.09	7313.30
452.30	7165.84
452.51	7253.91
452.72	7180.18
452.93	7550.86
453.13	7106.45
453.34	7274.38
453.55	7362.45
453.76	7475.09
453.97	7729.03
454.18	7583.63
454.39	7499.66
454.60	7653.26
454.81	7579.53
455.01	7778.19
455.22	7423.89
455.43	7671.69
455.64	7788.43
455.85	8025.99
456.06	8179.59
456.27	8046.47
456.48	7913.35
456.68	8032.13
456.89	7901.06
457.10	8056.71
457.31	8093.57
457.52	8048.52
457.73	8036.23
457.94	8241.03
458.14	8003.46
458.35	8525.69
458.56	8484.73
458.77	8314.75
458.98	8447.87
459.19	8368.00
459.39	8578.94
459.60	8550.27
459.81	8290.18
460.02	8736.63
460.23	8589.18
460.44	8656.76
460.65	8857.46
460.85	8869.75
461.06	8943.48
461.27	8667.00
461.48	9082.74
461.69	9185.14
461.89	8791.93
462.10	9125.75
462.31	9191.28
462.52	8851.32
462.73	9099.13
462.94	9312.11
463.14	9273.20
463.35	9310.07
463.56	9764.72
463.77	9531.25
463.98	9379.70
464.18	9365.36
464.39	9592.69
464.60	9903.98
464.81	9668.46
465.02	9932.65
465.23	10123.11
465.43	9846.63
465.64	10121.06
465.85	9963.37
466.06	9830.25
466.27	10239.84
466.47	10336.10
466.68	10272.61
466.89	10297.19
467.10	10444.64
467.30	10289.00
467.51	10485.60
467.72	10618.72
467.93	10278.76
468.14	10661.73
468.34	10544.99
468.55	10706.78
468.76	10776.41
468.97	10614.62
469.17	11054.94
469.38	10973.02
469.59	11091.80
469.80	10968.92
470.01	11050.84
470.21	11183.96
470.42	11243.35
470.63	11345.75
470.84	11186.01
471.04	11429.71
471.25	11650.89
471.46	11460.43
471.67	11872.07
471.87	11661.13
472.08	11964.23
472.29	12111.69
472.50	11865.93
472.70	11704.14
472.91	11847.50
473.12	12568.38
473.33	12275.52
473.53	12377.92
473.74	12312.39
473.95	12709.69
474.16	12707.65
474.36	12631.87
474.57	12752.70
474.78	12980.03
474.99	12758.85
475.19	12707.65
475.40	13020.99
475.61	13252.41
475.81	13502.26
476.02	13598.51
476.23	13229.88
476.44	13408.05
476.64	13680.43
476.85	13750.06
477.06	13438.77
477.27	13961.00
477.47	13905.71
477.68	14042.92
477.89	14051.11
478.09	14094.12
478.30	14253.86
478.51	14233.38
478.71	14362.40
478.92	14376.74
479.13	14487.33
479.34	14628.64
479.54	14714.66
479.75	14749.47
479.96	14903.07
480.16	15007.52
480.37	14964.51
480.58	15240.98
480.78	15347.48
480.99	15281.94
481.20	15533.84
481.41	15767.31
481.61	15869.71
481.82	15929.10
482.03	15669.01
482.23	15646.48
482.44	15978.25
482.65	16113.42
482.85	16367.37
483.06	16285.45
483.27	16207.62
483.47	16348.93
483.68	16553.73
483.89	16748.29
484.09	16600.83
484.30	16686.85
484.51	16883.45
484.71	16914.17
484.92	16762.62
485.13	17344.25
485.33	16844.54
485.54	17088.25
485.75	17422.07
485.95	17360.63
486.16	17467.13
486.37	17657.59
486.57	17503.99
486.78	17661.68
486.98	17581.81
487.19	17749.75
487.40	17915.63
487.60	17825.52
487.81	18370.28
488.02	18020.08
488.22	18196.20
488.43	18484.97
488.64	18108.14
488.84	18460.39
489.05	18919.14
489.25	18403.05
489.46	18966.24
489.67	18560.74
489.87	18923.23
490.08	19142.36
490.29	19015.39
490.49	19496.66
490.70	19211.99
490.90	19511.00
491.11	19533.53
491.32	19443.42
491.52	19627.73
491.73	19803.86
491.94	19719.89
492.14	19646.16
492.35	19877.58
492.55	20125.39
492.76	20219.60
492.97	20297.42
493.17	20352.71
493.38	20678.34
493.58	20610.76
493.79	20577.99
494.00	20528.84
494.20	20692.68
494.41	21040.83
494.61	20973.25
494.82	21202.62
495.02	20989.63
495.23	21227.20
495.44	21186.24
495.64	21442.23
495.85	21444.28
496.05	21612.21
496.26	21313.21
496.47	21774.00
496.67	21462.71
496.88	21864.11
497.08	21487.29
497.29	22079.15
497.49	22025.90
497.70	21821.11
497.91	22156.97
498.11	22005.42
498.32	22347.44
498.52	22605.48
498.73	22613.67
498.93	22703.78
499.14	22689.45
499.34	22767.27
499.55	22709.93
499.76	22548.14
499.96	22591.14
500.17	22873.76
500.37	23109.28
500.58	22884.00
500.78	23191.20
500.99	23088.80
501.19	23152.29
501.40	23383.71
501.60	23240.35
501.81	23475.87
502.02	23322.27
502.22	23258.78
502.43	23502.49
502.63	23840.40
502.84	23940.75
503.04	23867.03
503.25	23979.67
503.45	24092.30
503.66	24268.43
503.86	24192.65
504.07	24272.53
504.27	24008.34
504.48	24434.32
504.68	24446.60
504.89	24884.87
505.09	24802.95
505.30	24757.89
505.50	24944.26
505.71	24616.58
505.91	24915.59
506.12	24682.12
506.32	24925.83
506.53	24899.20
506.73	24934.02
506.94	24954.50
507.14	25009.79
507.35	25263.74
507.55	25413.24
507.76	25464.44
507.96	25312.89
508.17	25513.59
508.37	25667.19
508.58	25587.32
508.78	25955.96
508.99	25667.19
509.19	25673.34
509.40	26056.31
509.60	26119.79
509.81	26125.94
510.01	26037.87
510.22	26105.46
510.42	26183.28
510.63	26297.97
510.83	26234.48
511.04	26291.82
511.24	26580.59
511.44	26465.90
511.65	26818.15
511.85	26431.08
512.06	26644.07
512.26	26633.83
512.47	26934.88
512.67	26932.84
512.88	26941.03
513.08	26732.14
513.29	27381.34
513.49	27280.99
513.69	27143.78
513.90	27360.86
514.10	27547.23
514.31	27555.42
514.51	27264.61
514.72	27651.67
514.92	27473.50
515.13	27547.23
515.33	27776.60
515.53	27821.66
515.74	27774.55
515.94	28026.45
516.15	27909.72
516.35	28040.79
516.56	28311.12
516.76	27694.68
516.96	28130.90
517.17	28210.77
517.37	28454.48
517.58	28184.15
517.78	28755.53
517.99	28434.00
518.19	28751.43
518.39	28728.91
518.60	29066.82
518.80	28847.69
519.01	29322.82
519.21	28976.71
519.41	29322.82
519.62	28853.83
519.82	29365.82
520.03	29019.72
520.23	29259.33
520.43	29275.71
520.64	29664.83
520.84	29677.12
521.05	29666.88
521.25	29984.31
521.45	29781.56
521.66	29976.12
521.86	29992.50
522.07	30211.64
522.27	30346.80
522.47	30099.00
522.68	30619.18
522.88	30127.67
523.08	30430.77
523.29	30428.72
523.49	30893.61
523.70	30821.93
523.90	30721.58
524.10	30740.01
524.31	30799.40
524.51	30762.54
524.71	31360.55
524.92	31092.26
525.12	31333.92
525.33	31456.80
525.53	31546.91
525.73	31782.43
525.94	31962.65
526.14	31702.56
526.34	31911.45
526.55	31907.35
526.75	31847.96
526.95	32298.52
527.16	32126.49
527.36	32294.42
527.56	32349.71
527.77	32808.46
527.97	32726.54
528.17	32507.41
528.38	32828.94
528.58	32804.36
528.78	33207.81
528.99	32763.40
529.19	33431.04
529.39	33334.79
529.60	33431.04
529.80	33265.16
530.00	33414.66
530.21	33809.92
530.41	33932.79
530.61	34016.76
530.82	33635.84
531.02	33713.66
531.22	34043.38
531.43	34379.25
531.63	34303.48
531.83	34690.54
532.04	35089.90
532.24	34344.44
532.44	35186.15
532.64	34735.60
532.85	34928.11
533.05	34655.73
533.25	35134.95
533.46	35233.25
533.66	35349.99
533.86	35204.58
534.07	35825.12
534.27	35788.25
534.47	36058.59
534.67	35610.08
534.88	35753.44
535.08	35931.61
535.28	36140.50
535.49	36443.60
535.69	36564.43
535.89	36599.25
536.09	36957.64
536.30	36834.77
536.50	36722.13
536.70	36787.66
536.91	36832.72
537.11	36816.33
537.31	37068.23
537.51	36900.30
537.72	37184.97
537.92	37490.12
538.12	37164.49
538.32	37363.14
538.53	37680.58
538.73	37555.65
538.93	37727.68
539.13	37756.35
539.34	37672.39
539.54	37582.27
539.74	38313.40
539.94	37959.10
540.15	38360.50
540.35	38356.41
540.55	38245.82
540.75	38358.45
540.96	38600.12
541.16	38589.88
541.36	38813.10
541.56	39169.45
541.77	38989.23
541.97	38798.77
542.17	39048.62
542.37	39028.14
542.58	39280.04
542.78	38901.17
542.98	38655.41
543.18	39298.47
543.38	40234.39
543.59	39570.85
543.79	39259.56
543.99	39294.38
544.19	40136.09
544.40	39558.56
544.60	40054.17
544.80	40080.80
545.00	40109.47
545.20	40340.89
545.41	39978.40
545.61	39964.06
545.81	40246.68
546.01	40351.13
546.21	40097.18
546.42	40086.94
546.62	40474.01
546.82	40312.22
547.02	41160.08
547.22	40494.49
547.43	40207.77
547.63	40795.54
547.83	40947.09
548.03	40551.83
548.23	41098.64
548.44	40697.24
548.64	40854.93
548.84	41057.68
549.04	40848.78
549.24	40981.90
549.45	41401.74
549.65	40799.63
549.85	41100.68
550.05	41317.77
550.25	41012.62
550.45	42151.29
550.66	41571.72
550.86	41366.92
551.06	41624.96
551.26	41723.27
551.46	41655.68
551.66	41717.12
551.87	41500.04
552.07	41876.86
552.27	41991.55
552.47	41977.22
552.67	41833.86
552.87	41897.34
553.07	42071.42
553.28	42184.06
553.48	42098.05
553.68	41753.99
553.88	42601.85
554.08	42034.56
554.28	42505.59
554.48	41950.59
554.69	42646.90
554.89	42182.01
555.09	42421.62
555.29	41899.39
555.49	42589.56
555.69	42227.07
555.89	42464.63
556.10	42495.35
556.30	42681.72
556.50	43005.30
556.70	42644.85
556.90	42784.12
557.10	43240.81
557.30	42419.58
557.50	42882.42
557.70	42755.44
557.91	43185.52
558.11	43050.35
558.31	43435.37
558.51	42968.43
558.71	42904.95
558.91	42939.76
559.11	42812.79
559.31	42923.38
559.51	42997.10
559.72	43353.45
559.92	43099.50
560.12	43210.09
560.32	43119.98
560.52	43296.11
560.72	43562.34
560.92	43416.94
561.12	43107.69
561.32	43619.69
561.52	43089.26
561.72	43445.61
561.93	43201.90
562.13	43320.68
562.33	43177.33
562.53	44029.28
562.73	43289.96
562.93	43492.71
563.13	43689.32
563.33	43611.49
563.53	43914.59
563.73	43828.58
563.93	43830.63
564.13	44227.93
564.33	43797.86
564.53	43709.80
564.74	44092.77
564.94	43736.42
565.14	44014.94
565.34	43703.65
565.54	43906.40
565.74	43933.03
565.94	43713.89
566.14	43773.28
566.34	43865.44
566.54	44324.19
566.74	43783.52
566.94	44397.91
567.14	44340.57
567.34	43955.55
567.54	44467.55
567.74	44086.62
567.94	44064.10
568.14	44365.15
568.34	44537.18
568.54	44213.60
568.74	44424.54
568.94	44651.86
569.14	44940.63
569.34	44455.26
569.54	44543.32
569.75	44352.86
569.95	44610.90
570.15	44897.62
570.35	44473.69
570.55	44328.28
570.75	44631.38
570.95	44563.80
571.15	44754.26
571.35	45022.54
571.55	45210.96
571.75	44727.64
571.95	44977.49
572.15	44733.78
572.35	44911.95
572.55	45112.66
572.75	44873.04
572.95	44995.92
573.15	44834.13
573.35	44668.25
573.55	44914.00
573.75	44819.80
573.95	45208.91
574.15	44868.95
574.35	45014.35
574.55	44821.84
574.75	44995.92
574.95	45557.06
575.15	45122.90
575.34	45143.38
575.54	45372.75
575.74	45499.72
575.94	45864.26
576.14	45595.98
576.34	45905.22
576.54	45583.69
576.74	46081.34
576.94	45516.11
577.14	45759.81
577.34	46077.25
577.54	45624.65
577.74	45999.43
577.94	46077.25
578.14	46333.24
578.34	46509.37
578.54	45170.00
578.74	46208.32
578.94	46859.57
579.14	46101.82
579.34	45673.80
579.54	46021.95
579.74	46521.66
579.94	46015.81
580.13	46585.15
580.33	46544.19
580.53	46589.24
580.73	46646.58
580.93	46544.19
581.13	46413.12
581.33	46699.83
581.53	47064.37
581.73	46734.65
581.93	46843.19
582.13	46945.59
582.33	47035.70
582.53	47072.56
582.73	47433.00
582.92	46931.25
583.12	47316.27
583.32	47134.00
583.52	47002.93
583.72	47283.50
583.92	46892.34
584.12	47334.70
584.32	47496.49
584.52	47693.10
584.72	47136.05
584.92	47207.73
585.11	47871.27
585.31	47611.18
585.51	47693.10
585.71	47387.95
585.91	48184.61
586.11	47506.73
586.31	47367.47
586.51	47408.43
586.71	47967.52
586.91	47801.64
587.10	48137.51
587.30	47807.78
587.50	48332.06
587.70	47969.57
587.90	48338.21
588.10	48209.18
588.30	48442.65
588.50	48622.87
588.69	48379.17
588.89	48063.78
589.09	48801.05
589.29	48629.02
589.49	48915.73
589.69	48440.60
589.89	49208.59
590.08	48928.02
590.28	48624.92
590.48	48555.29
590.68	48454.94
590.88	49224.98
591.08	49046.80
591.28	49005.84
591.47	49079.57
591.67	48999.70
591.87	49071.38
592.07	49229.07
592.27	49380.62
592.47	48977.17
592.67	49349.90
592.86	49087.76
593.06	49382.67
593.26	49435.92
593.46	49456.40
593.66	49247.50
593.86	49507.60
594.05	49653.00
594.25	49868.04
594.45	49433.87
594.65	49571.08
594.85	49272.08
595.05	49952.01
595.24	50214.15
595.44	49794.31
595.64	49628.43
595.84	49964.29
596.04	49607.95
596.23	50240.77
596.43	50285.82
596.63	50142.47
596.83	50367.74
597.03	50588.92
597.22	50812.15
597.42	50078.98
597.62	50398.46
597.82	50377.98
598.02	50928.89
598.21	50943.22
598.41	50496.77
598.61	50709.75
598.81	51016.95
599.01	50932.98
599.20	51258.61
599.40	50963.70
599.60	51291.38
599.80	50896.12
600.00	50846.97
600.19	51213.55
600.39	50949.37
600.59	51498.22
600.79	51262.71
600.98	51606.76
601.18	51940.58
601.38	51690.73
601.58	51477.74
601.78	51762.41
601.97	51617.00
602.17	52258.02
602.37	51772.65
602.57	51934.44
602.76	52284.64
602.96	51369.20
603.16	52239.59
603.36	52032.74
603.55	52411.62
603.75	52339.94
603.95	52399.33
604.15	52552.93
604.34	52647.13
604.54	52921.56
604.74	52649.18
604.94	52884.70
605.13	52589.79
605.33	52667.61
605.53	52411.62
605.73	52864.22
605.92	52677.85
606.12	53171.41
606.32	53167.32
606.52	53030.10
606.71	53454.03
606.91	53130.45
607.11	53408.98
607.30	53681.36
607.50	53490.90
607.70	53589.20
607.90	53552.33
608.09	53335.25
608.29	53519.57
608.49	54193.35
608.68	53898.44
608.88	53974.22
609.08	54133.96
609.28	53595.34
609.47	53632.21
609.67	54348.99
609.87	54254.79
610.06	53957.83
610.26	53949.64
610.46	54211.78
610.66	54195.40
610.85	54179.01
611.05	54305.99
611.25	54957.24
611.44	54459.58
611.64	54031.56
611.84	54340.80
612.03	54219.97
612.23	54396.10
612.43	54566.08
612.62	54359.23
612.82	54641.85
613.02	54901.95
613.21	54777.02
613.41	54295.75
613.61	54719.68
613.80	54318.28
614.00	54707.39
614.20	54656.19
614.39	54424.77
614.59	54990.01
614.79	54897.85
614.98	54916.28
615.18	54713.53
615.38	54871.23
615.57	54496.45
615.77	55035.06
615.97	55088.31
616.16	55119.03
616.36	54949.05
616.56	55268.53
616.75	55018.68
616.95	55020.73
617.15	55096.50
617.34	54928.57
617.54	55026.87
617.74	55426.23
617.93	55246.00
618.13	54928.57
618.32	55362.74
618.52	54703.29
618.72	54936.76
618.91	55424.18
619.11	55024.82
619.31	55235.77
619.50	55215.29
619.70	54883.51
619.90	55356.60
620.09	55182.52
620.29	55360.69
620.48	55151.80
620.68	55571.63
620.88	54781.12
621.07	55422.13
621.27	55213.24
621.46	54699.20
621.66	55076.02
621.86	55196.85
622.05	55157.94
622.25	55473.33
622.44	55239.86
622.64	55264.44
622.84	55436.47
623.03	55293.11
623.23	55741.61
623.42	55639.22
623.62	55563.44
623.82	55801.00
624.01	55317.68
624.21	55547.06
624.40	55561.39
624.60	55803.05
624.80	55776.43
624.99	55839.92
625.19	55340.21
625.38	55538.86
625.58	55461.04
625.77	55551.15
625.97	55352.50
626.17	55186.61
626.36	55549.10
626.56	55727.28
626.75	54893.75
626.95	55760.05
627.14	55602.35
627.34	56067.24
627.54	55461.04
627.73	56011.95
627.93	55917.74
628.12	55635.12
628.32	56009.90
628.51	55739.57
628.71	55776.43
628.90	56095.91
629.10	56151.21
629.30	55887.02
629.49	56054.95
629.69	55852.20
629.88	55815.34
630.08	56218.79
630.27	56249.51
630.47	56464.55
630.66	56026.28
630.86	56290.47
631.05	56102.06
631.25	56085.67
631.44	56515.75
631.64	55803.05
631.84	56202.41
632.03	56558.75
632.23	55952.55
632.42	56638.62
632.62	55979.18
632.81	56140.97
633.01	56300.71
633.20	56337.57
633.40	56753.31
633.59	56505.51
633.79	56261.80
633.98	56347.81
634.18	56956.06
634.37	56413.35
634.57	56691.87
634.76	56767.65
634.96	56503.46
635.15	56833.18
635.35	56202.41
635.54	56667.30
635.74	56599.71
635.93	56194.21
636.13	56482.98
636.32	56640.67
636.52	55858.35
636.71	56632.48
636.91	56693.92
637.10	56489.12
637.30	56343.72
637.49	56689.82
637.69	56265.89
637.88	56841.37
638.08	56169.64
638.27	57076.89
638.46	57146.52
638.66	56151.21
638.85	56423.59
639.05	56456.35
639.24	56738.97
639.44	56345.76
639.63	56532.13
639.83	56874.14
640.02	56626.34
640.22	56562.85
640.41	56751.26
640.61	56089.77
640.80	57033.88
640.99	56759.45
641.19	56943.77
641.38	56601.76
641.58	56749.21
641.77	57490.58
641.97	56657.06
642.16	56835.23
642.36	57279.64
642.55	57443.48
642.74	56974.49
642.94	57539.73
643.13	57013.40
643.33	57029.79
643.52	57132.18
643.72	57439.38
643.91	57162.90
644.10	57336.98
644.30	57713.81
644.49	57074.84
644.69	57599.12
644.88	57191.58
645.08	57001.11
645.27	57240.73
645.46	57044.12
645.66	57332.89
645.85	57351.32
646.05	57654.42
646.24	57261.21
646.43	57420.95
646.63	57394.32
646.82	57474.20
647.02	57549.97
647.21	57486.48
647.40	57500.82
647.60	57525.39
647.79	57545.87
647.99	57846.93
648.18	57449.62
648.37	57775.25
648.57	57846.93
648.76	57713.81
648.96	57154.71
649.15	57986.19
649.34	57959.56
649.54	57746.57
649.73	57267.35
649.92	57713.81
650.12	57613.46
650.31	57824.40
650.51	57779.34
650.70	58104.97
650.89	57855.12
651.09	58303.62
651.28	57939.08
651.47	58090.63
651.67	57812.11
651.86	58027.15
652.06	57476.24
652.25	57916.56
652.44	57404.56
652.64	58047.63
652.83	57560.21
653.02	57607.31
653.22	57578.64
653.41	57400.47
653.60	57398.42
653.80	57681.04
653.99	58274.95
654.18	57580.69
654.38	57687.18
654.57	58064.01
654.76	57930.89
654.96	57326.74
655.15	57832.59
655.34	57830.54
655.54	57574.55
655.73	57855.12
655.92	58000.52
656.12	57674.90
656.31	57648.27
656.50	57955.47
656.70	57775.25
656.89	57695.38
657.08	58049.67
657.28	57584.79
657.47	58162.31
657.66	57754.77
657.86	57388.18
658.05	57687.18
658.24	57803.92
658.43	57930.89
658.63	57928.84
658.82	58037.39
659.01	58299.53
659.21	57730.19
659.40	57732.24
659.59	57316.50
659.79	57930.89
659.98	58059.91
660.17	57896.08
660.36	57951.37
660.56	58025.10
660.75	58203.27
660.94	58010.76
661.14	57967.76
661.33	57732.24
661.52	57400.47
661.71	57975.95
661.91	57373.84
662.10	57838.73
662.29	57943.18
662.49	57760.91
662.68	58160.26
662.87	58225.80
663.06	57564.31
663.26	57635.98
663.45	57795.73
663.64	58307.72
663.83	58532.99
664.03	58008.71
664.22	58100.87
664.41	57941.13
664.60	57947.28
664.80	57795.73
664.99	57617.55
665.18	58131.59
665.37	57797.77
665.57	57773.20
665.76	57717.90
665.95	57590.93
666.14	57685.14
666.34	57746.57
666.53	57676.94
666.72	57494.67
666.91	57611.41
667.11	57048.22
667.30	57388.18
667.49	57193.62
667.68	57466.00
667.87	57355.41
668.07	57969.80
668.26	57562.26
668.45	57597.07
668.64	56902.81
668.84	58344.58
669.03	57742.48
669.22	57447.57
669.41	57787.53
669.60	57879.69
669.80	57554.07
669.99	57496.72
670.18	57234.58
670.37	57910.41
670.57	57947.28
670.76	57654.42
670.95	57873.55
671.14	57615.50
671.33	57443.48
671.53	57910.41
671.72	57535.63
671.91	57005.21
672.10	57490.58
672.29	57365.65
672.48	57300.12
672.68	57488.53
672.87	57351.32
673.06	57414.80
673.25	57703.57
673.44	56861.85
673.64	57074.84
673.83	57216.15
674.02	57355.41
674.21	57015.45
674.40	57162.90
674.59	56628.38
674.79	57001.11
674.98	56935.58
675.17	56865.95
675.36	57179.29
675.55	57431.19
675.74	56974.49
675.94	56829.08
676.13	57183.38
676.32	56874.14
676.51	57537.68
676.70	57109.66
676.89	57033.88
677.08	57203.86
677.28	56997.02
677.47	57007.26
677.66	57228.44
677.85	56712.35
678.04	57207.96
678.23	57631.89
678.42	56665.25
678.62	56816.80
678.81	56741.02
679.00	56693.92
679.19	57418.90
679.38	56777.89
679.57	56530.08
679.76	56923.29
679.96	56650.91
680.15	56542.37
680.34	57132.18
680.53	56544.42
680.72	56884.38
680.91	56890.52
681.10	56419.49
681.29	56601.76
681.48	56528.03
681.68	56005.80
681.87	56663.20
682.06	56249.51
682.25	55786.67
682.44	56485.03
682.63	56267.94
682.82	56276.13
683.01	56603.81
683.20	55714.99
683.39	55809.20
683.59	55956.65
683.78	55784.62
683.97	55805.10
684.16	56370.34
684.35	55819.44
684.54	55682.22
684.73	55860.40
684.92	55665.84
685.11	55532.72
685.30	55714.99
685.49	55770.28
685.69	55661.74
685.88	56161.45
686.07	55555.25
686.26	55647.41
686.45	55747.76
686.64	55659.69
686.83	55602.35
687.02	55753.90
687.21	56093.86
687.40	55260.34
687.59	55565.49
687.78	55655.60
687.97	55803.05
688.16	55215.29
688.35	55297.20
688.54	54803.64
688.74	55518.38
688.93	55186.61
689.12	55131.32
689.31	54951.10
689.50	55409.84
689.69	54805.69
689.88	54580.42
690.07	55039.16
690.26	55323.83
690.45	55375.03
690.64	54799.55
690.83	54703.29
691.02	54584.51
691.21	54719.68
691.40	54697.15
691.59	54975.67
691.78	54897.85
691.97	55039.16
692.16	54756.54
692.35	54865.08
692.54	54326.47
692.73	54762.68
692.92	54478.02
693.11	54588.61
693.30	54723.77
693.49	54975.67
693.68	54912.19
693.87	54533.31
694.06	53785.80
694.25	54428.87
694.44	54277.32
694.63	54432.96
694.82	54453.44
695.01	54465.73
695.20	53882.06
695.39	54256.84
695.58	54148.29
695.77	54596.80
695.96	53783.76
696.15	54283.46
696.34	54330.56
696.53	54027.46
696.72	54269.12
696.91	54191.30
697.10	53888.20
697.29	54189.25
697.48	54236.36
697.67	53820.62
697.86	53597.39
698.05	53451.98
698.24	53748.94
698.43	53343.44
698.62	53599.44
698.81	53193.94
699.00	53607.63
699.19	53138.65
699.38	53449.94
699.57	53216.47
699.76	54093.00
699.95	53531.86
700.14	53189.84
700.32	53333.20
700.51	53454.03
700.70	53322.96
700.89	53484.75
701.08	53566.67
701.27	53275.86
701.46	53449.94
701.65	52761.82
701.84	53224.66
702.03	53304.53
702.22	53105.88
702.41	53073.11
702.60	53202.13
702.79	52853.98
702.98	52716.76
703.17	52835.55
703.35	52536.54
703.54	52636.89
703.73	53097.69
703.92	52473.06
704.11	52405.47
704.30	52419.81
704.49	52489.44
704.68	52208.87
704.87	52212.96
705.06	52329.70
705.25	52208.87
705.43	52518.11
705.62	52581.60
705.81	52024.55
706.00	52311.27
706.19	52124.90
706.38	51967.21
706.57	52288.74
706.76	51770.60
706.95	52081.89
707.14	51916.01
707.32	51903.72
707.51	51533.04
707.70	52139.24
707.89	51938.54
708.08	51909.86
708.27	52053.22
708.46	52163.81
708.65	51684.59
708.84	51832.04
709.02	52262.11
709.21	52067.56
709.40	51860.71
709.59	51657.96
709.78	51166.45
709.97	51578.09
710.16	51455.21
710.34	51485.93
710.53	51520.75
710.72	51299.57
710.91	51436.78
711.10	51598.57
711.29	51598.57
711.48	51565.81
711.66	51102.96
711.85	51236.08
712.04	51627.24
712.23	51002.61
712.42	51485.93
712.61	51117.30
712.80	51330.29
712.98	51035.38
713.17	51139.83
713.36	50836.73
713.55	51156.21
713.74	50996.47
713.93	50990.33
714.11	50902.26
714.30	50834.68
714.49	51145.97
714.68	50896.12
714.87	51057.91
715.06	51090.68
715.24	50689.27
715.43	50246.91
715.62	50377.98
715.81	50834.68
716.00	50654.46
716.18	50275.58
716.37	50330.88
716.56	50601.21
716.75	50511.10
716.94	50339.07
717.12	50232.58
717.31	50625.79
717.50	50197.76
717.69	49952.01
717.88	50451.71
718.06	50189.57
718.25	50455.81
718.44	49898.76
718.63	50322.69
718.82	49966.34
719.00	49634.57
719.19	49949.96
719.38	49962.25
719.57	49069.33
719.76	49081.62
719.94	49587.47
720.13	49560.84
720.32	49405.20
720.51	49343.76
720.69	49239.31
720.88	49349.90
721.07	49224.98
721.26	48583.96
721.44	49093.91
721.63	48878.87
721.82	48710.94
722.01	48766.23
722.20	49222.93
722.38	48596.25
722.57	48575.77
722.76	48397.60
722.95	49106.19
723.13	48317.73
723.32	48434.46
723.51	48209.18
723.70	48170.27
723.88	48485.66
724.07	48547.10
724.26	47867.17
724.44	47938.85
724.63	48256.29
724.82	48043.30
725.01	48297.25
725.19	47945.00
725.38	47887.65
725.57	48112.93
725.76	48313.63
725.94	48076.07
726.13	48024.87
726.32	47682.86
726.51	47789.35
726.69	48600.35
726.88	48033.06
727.07	47611.18
727.25	47848.74
727.44	48110.88
727.63	47500.59
727.82	47977.76
728.00	47985.96
728.19	47480.11
728.38	47549.74
728.56	47396.14
728.75	47736.10
728.94	47725.86
729.12	47875.37
729.31	47650.09
729.50	47744.30
729.69	48041.25
729.87	48131.36
730.06	47559.98
730.25	47723.82
730.43	47875.37
730.62	47664.42
730.81	47963.43
730.99	47715.62
731.18	47775.02
731.37	47699.24
731.55	47957.28
731.74	47904.04
731.93	47916.32
732.11	47723.82
732.30	47848.74
732.49	47461.68
732.67	47562.03
732.86	47590.70
733.05	47281.45
733.23	47480.11
733.42	47416.62
733.61	47336.75
733.79	47969.57
733.98	47904.04
734.17	47906.08
734.35	47404.33
734.54	47725.86
734.73	47482.16
734.91	47623.47
735.10	47762.73
735.29	47754.54
735.47	47254.83
735.66	47050.03
735.84	47494.44
736.03	47396.14
736.22	47916.32
736.40	47007.03
736.59	47361.33
736.78	47281.45
736.96	47164.72
737.15	47580.46
737.33	47316.27
737.52	47275.31
737.71	46957.88
737.89	46875.96
738.08	46810.42
738.27	46986.55
738.45	47144.24
738.64	47430.96
738.82	47004.98
739.01	47082.80
739.20	47467.82
739.38	46974.26
739.57	47301.93
739.75	47441.20
739.94	47070.51
740.13	46851.38
740.31	46824.76
740.50	46478.65
740.68	46824.76
740.87	47289.65
741.06	47207.73
741.24	46669.11
741.43	46531.90
741.61	47074.61
741.80	46568.76
741.99	46609.72
742.17	46822.71
742.36	46636.34
742.54	46423.36
742.73	46937.40
742.91	46351.68
743.10	46753.08
743.29	46726.46
743.47	46437.69
743.66	46339.39
743.84	46884.15
744.03	46646.58
744.21	46232.89
744.40	46976.31
744.59	46261.57
744.77	45921.60
744.96	46685.50
745.14	46538.04
745.33	46789.94
745.51	46355.77
745.70	46572.86
745.88	46435.64
746.07	46794.04
746.26	46167.36
746.44	46042.43
746.63	46411.07
746.81	46382.40
747.00	46320.96
747.18	46716.22
747.37	46462.27
747.55	46167.36
747.74	46218.56
747.92	46138.69
748.11	46253.37
748.29	46204.22
748.48	46306.62
748.66	46042.43
748.85	45997.38
749.03	46183.74
749.22	45931.84
749.41	45890.88
749.59	45794.63
749.78	45688.13
749.96	45825.35
750.15	45978.95
750.33	46052.67
750.52	45688.13
750.70	45872.45
750.89	45618.50
751.07	45090.13
751.26	45720.90
751.44	45686.09
751.63	45565.26
751.81	45673.80
752.00	45884.74
752.18	45452.62
752.37	45430.09
752.55	45063.50
752.74	44842.32
752.92	45106.51
753.10	45182.29
753.29	45325.64
753.47	45223.25
753.66	44987.73
753.84	45266.25
754.03	45374.80
754.21	45260.11
754.40	45012.31
754.58	45440.33
754.77	45022.54
754.95	45188.43
755.14	44770.64
755.32	45022.54
755.51	44815.70
755.69	44834.13
755.88	44834.13
756.06	44866.90
756.24	44840.28
756.43	44533.08
756.61	44893.52
756.80	44471.64
756.98	44686.68
757.17	44711.25
757.35	44447.07
757.54	44864.85
757.72	44635.48
757.90	44510.55
758.09	44414.30
758.27	44496.22
758.46	44477.79
758.64	44584.28
758.83	44252.51
759.01	44817.75
759.19	44420.44
759.38	44234.08
759.56	44588.38
759.75	44440.92
759.93	44516.70
760.12	44305.76
760.30	44254.56
760.48	44318.04
760.67	44242.27
760.85	43892.07
761.04	44326.24
761.22	44291.42
761.40	44113.25
761.59	44326.24
761.77	44078.43
761.96	44176.73
762.14	43892.07
762.32	43785.57
762.51	43488.62
762.69	43834.72
762.88	43740.52
763.06	43726.18
763.24	44012.90
763.43	43517.29
763.61	43732.32
763.80	43560.30
763.98	43402.60
764.16	44111.20
764.35	43556.20
764.53	43244.91
764.72	43756.90
764.90	43517.29
765.08	43681.13
765.27	43578.73
765.45	42724.72
765.63	43328.87
765.82	43666.79
766.00	43060.59
766.18	43003.25
766.37	43648.36
766.55	43156.85
766.74	43054.45
766.92	43052.40
767.10	42802.55
767.29	42825.07
767.47	42767.73
767.65	43072.88
767.84	42974.58
768.02	42655.09
768.20	42292.60
768.39	42685.81
768.57	43054.45
768.75	42675.57
768.94	42687.86
769.12	42397.05
769.30	42182.01
769.49	42438.01
769.67	42243.45
769.85	41880.96
770.04	42544.50
770.22	42134.91
770.40	41837.95
770.59	42345.85
770.77	42184.06
770.95	42784.12
771.14	42122.62
771.32	41717.12
771.50	41708.93
771.69	41895.30
771.87	42032.51
772.05	41784.71
772.24	41815.43
772.42	42036.61
772.60	41805.19
772.78	41782.66
772.97	41426.31
773.15	41850.24
773.33	41549.19
773.52	41526.66
773.70	41858.43
773.88	42249.60
774.07	41557.38
774.25	41643.40
774.43	41997.70
774.61	41827.71
774.80	41457.03
774.98	41788.80
775.16	41856.39
775.34	42171.77
775.53	41815.43
775.71	41788.80
775.89	41319.82
776.08	41835.91
776.26	41940.35
776.44	41633.16
776.62	41809.28
776.81	41411.98
776.99	42255.74
777.17	41840.00
777.35	42331.51
777.54	42288.51
777.72	41891.20
777.90	42034.56
778.08	42220.92
778.27	41854.34
778.45	42202.49
778.63	42356.09
778.81	41973.12
779.00	42610.04
779.18	42040.70
779.36	42515.83
779.54	42366.33
779.73	42317.18
779.91	42403.19
780.09	42415.48
780.27	42222.97
780.46	42386.81
780.64	42513.78
780.82	42308.99
781.00	42673.52
781.19	42753.40
781.37	42661.24
781.55	42726.77
781.73	43380.07
781.91	42587.51
782.10	42661.24
782.28	42798.45
782.46	42761.59
782.64	42818.93
782.82	42859.89
783.01	42935.66
783.19	42984.82
783.37	42839.41
783.55	42757.49
783.74	43431.27
783.92	42567.03
784.10	43287.92
784.28	42960.24
784.46	42726.77
784.64	42913.14
784.83	42505.59
785.01	42984.82
785.19	42808.69
785.37	43058.54
785.55	42808.69
785.74	42622.33
785.92	42644.85
786.10	42491.26
786.28	42657.14
786.46	42519.93
786.64	42272.12
786.83	42755.44
787.01	42694.00
787.19	42712.44
787.37	42845.55
787.55	42583.41
787.74	42337.66
787.92	42411.38
788.10	42542.45
788.28	41944.45
788.46	42950.00
788.64	41966.98
788.82	42603.89
789.01	42231.16
789.19	42567.03
789.37	42059.13
789.55	42300.79
789.73	42284.41
789.91	41710.98
790.09	41842.05
790.28	41772.42
790.46	41622.92
790.64	41688.45
790.82	41684.36
791.00	41311.63
791.18	41645.44
791.36	41321.87
791.55	41620.87
791.73	41086.35
791.91	40924.56
792.09	41014.67
792.27	41225.61
792.45	41061.77
792.63	40844.69
792.81	40945.04
793.00	40988.05
793.18	40500.63
793.36	40431.00
793.54	40623.51
793.72	40674.71
793.90	40566.16
794.08	40648.08
794.26	40687.00
794.44	40154.52
794.62	40099.23
794.81	40410.52
794.99	39796.13
795.17	39783.84
795.35	40207.77
795.53	40179.10
795.71	39992.73
795.89	39513.51
796.07	39744.93
796.25	39439.78
796.43	39531.94
796.61	39341.48
796.80	38903.21
796.98	39411.11
797.16	38925.74
797.34	38839.73
797.52	38823.34
797.70	39134.63
797.88	38591.92
798.06	38608.31
798.24	38841.78
798.42	38641.07
798.60	38563.25
798.78	38393.27
798.96	38538.68
799.14	38127.03
799.32	38327.74
799.51	38006.20
799.69	38137.27
799.87	38090.17
800.05	38120.89
800.23	37801.41
800.41	37383.62
800.59	37496.26
800.77	37445.06
800.95	37184.97
801.13	37053.90
801.31	37074.38
801.49	37090.76
801.67	37117.39
801.85	37258.70
802.03	36820.43
802.21	36763.09
802.39	36906.44
802.57	36664.78
802.75	36621.78
802.93	36781.52
803.11	36623.83
803.29	36238.81
803.47	36034.01
803.65	36212.18
803.83	36259.29
804.01	36197.85
804.19	36062.68
804.37	35739.10
804.55	35749.34
804.73	35726.81
804.91	35800.54
805.09	35757.53
805.27	35675.62
805.45	35667.42
805.63	35466.72
805.81	35544.55
805.99	35653.09
806.17	35458.53
806.35	35272.17
806.53	35370.47
806.71	35143.14
806.89	35010.03
807.07	34866.67
807.25	34823.66
807.43	34940.39
807.61	35024.36
807.79	34878.96
807.97	34706.93
808.15	34504.18
808.33	34373.11
808.51	34369.01
808.69	34315.76
808.87	34272.76
809.05	34283.00
809.23	34409.97
809.41	33771.00
809.59	33863.16
809.77	34121.21
809.95	33674.75
810.13	34037.24
810.31	33797.63
810.49	33828.35
810.67	33701.37
810.84	33654.27
811.02	33455.62
811.20	33428.99
811.38	33541.63
811.56	32794.12
811.74	33377.79
811.92	33461.76
812.10	33054.22
812.28	33379.84
812.46	32740.88
812.64	32716.30
812.82	32960.01
813.00	32929.29
813.18	33000.97
813.36	32808.46
813.53	32329.23
813.71	32529.94
813.89	32624.14
814.07	32568.85
814.25	32392.72
814.43	32501.26
814.61	32253.46
814.79	31868.44
814.97	32306.71
815.15	32269.84
815.33	31657.50
815.50	31608.35
815.68	31864.35
815.86	31886.87
816.04	31694.36
816.22	31790.62
816.40	31604.25
816.58	31540.77
816.76	31141.41
816.94	31129.12
817.11	31594.01
817.29	31401.50
817.47	31184.42
817.65	31135.27
817.83	31280.67
818.01	31098.41
818.19	31047.21
818.37	31444.51
818.54	30856.75
818.72	30514.73
818.90	30897.70
819.08	30651.95
819.26	30811.69
819.44	30492.21
819.62	30359.09
819.80	30541.36
819.97	30828.07
820.15	30412.34
820.33	30236.21
820.51	30111.28
820.69	30228.02
820.87	30084.66
821.05	30606.89
821.22	30211.64
821.40	30117.43
821.58	29765.18
821.76	30012.98
821.94	29802.04
822.12	30105.14
822.29	30058.04
822.47	29812.28
822.65	30137.91
822.83	29697.59
823.01	29744.70
823.19	29625.92
823.36	29863.48
823.54	29593.15
823.72	29589.05
823.90	29371.97
824.08	29093.44
824.25	29402.69
824.43	29433.41
824.61	29331.01
824.79	29316.67
824.97	29165.12
825.15	29386.30
825.32	29318.72
825.50	29075.01
825.68	28960.33
825.86	29044.29
826.04	29083.20
826.21	28945.99
826.39	28989.00
826.57	28829.26
826.75	28384.85
826.93	28393.04
827.10	28714.57
827.28	28507.72
827.46	28454.48
827.64	28657.23
827.81	28214.87
827.99	28266.06
828.17	28321.36
828.35	28212.82
828.53	27995.73
828.70	28282.45
828.88	28034.64
829.06	27995.73
829.24	28261.97
829.41	27958.87
829.59	28292.69
829.77	27962.97
829.95	27840.09
830.12	28005.97
830.30	27944.53
830.48	27993.68
830.66	27684.44
830.84	28149.33
831.01	27676.25
831.19	27782.74
831.37	27442.78
831.55	27543.13
831.72	27637.34
831.90	27643.48
832.08	27557.47
832.25	27135.59
832.43	27303.52
832.61	27102.82
832.79	27113.06
832.96	27149.92
833.14	27246.18
833.32	27307.62
833.50	27094.63
833.67	27168.35
833.85	26807.91
834.03	26617.45
834.20	26967.65
834.38	27303.52
834.56	27143.78
834.74	26779.24
834.91	26805.86
835.09	27000.42
835.27	26406.51
835.44	26639.98
835.62	26287.73
835.80	26410.60
835.98	26551.91
836.15	26685.03
836.33	26371.69
836.51	26855.01
836.68	26560.11
836.86	26388.08
837.04	26291.82
837.21	26392.17
837.39	26252.91
837.57	26539.63
837.75	26674.79
837.92	26156.66
838.10	25998.96
838.28	25847.41
838.45	25943.67
838.63	25898.61
838.81	26105.46
838.98	25831.03
839.16	25538.17
839.34	25724.54
839.51	25609.85
839.69	25607.80
839.87	25433.72
840.04	25521.79
840.22	25759.35
840.40	25677.43
840.57	25333.37
840.75	25493.12
840.93	25171.58
841.10	25499.26
841.28	25634.42
841.46	25675.38
841.63	25366.14
841.81	25773.69
841.98	25267.84
842.16	24948.36
842.34	25302.65
842.51	25032.32
842.69	25312.89
842.87	24966.79
843.04	25017.99
843.22	24905.35
843.40	24868.48
843.57	24972.93
843.75	24800.90
843.92	24766.09
844.10	24927.88
844.28	24675.98
844.45	24819.33
844.63	24874.63
844.81	24542.86
844.98	25003.65
845.16	24819.33
845.33	24655.50
845.51	24262.29
845.69	24729.22
845.86	24247.95
846.04	24245.90
846.21	24512.14
846.39	24381.07
846.57	24231.57
846.74	24393.36
846.92	24151.70
847.09	24411.79
847.27	24096.40
847.45	24125.07
847.62	24088.21
847.80	24178.32
847.97	24301.20
848.15	24088.21
848.32	23520.92
848.50	24106.64
848.68	23754.39
848.85	23955.09
849.03	23510.68
849.20	23711.38
849.38	23789.20
849.56	23883.41
849.73	23864.98
849.91	23713.43
850.08	23568.02
850.26	23379.61
850.43	23641.75
850.61	23617.18
850.78	23074.46
850.96	23418.52
851.14	23426.71
851.31	23840.40
851.49	23070.37
851.66	23154.33
851.84	23408.28
852.01	23361.18
852.19	23275.16
852.36	23127.71
852.54	23078.56
852.71	23232.16
852.89	23072.42
853.07	23158.43
853.24	23266.97
853.42	22955.68
853.59	23051.94
853.77	22900.39
853.94	23207.58
854.12	22939.30
854.29	22703.78
854.47	23000.74
854.64	22881.95
854.82	22486.70
854.99	22881.95
855.17	22552.23
855.34	22415.02
855.52	22871.72
855.69	22879.91
855.87	22439.59
856.04	22441.64
856.22	22470.31
856.39	22218.41
856.57	22394.54
856.74	22261.42
856.92	22374.06
857.09	22156.97
857.27	22275.76
857.44	22228.65
857.62	22298.28
857.79	22257.32
857.97	22367.91
858.14	22263.47
858.32	22015.66
858.49	22091.44
858.67	21589.69
858.84	21950.13
859.02	21982.90
859.19	21747.38
859.37	21819.06
859.54	21851.83
859.72	22034.10
859.89	21649.08
860.06	21970.61
860.24	21489.34
860.41	21821.11
860.59	21601.97
860.76	21737.14
860.94	21178.04
861.11	21810.87
861.29	21659.32
861.46	21556.92
861.64	21305.02
861.81	21546.68
861.98	21429.94
862.16	21237.44
862.33	21104.32
862.51	21046.97
862.68	21305.02
862.86	21354.17
863.03	21163.71
863.21	21069.50
863.38	21087.93
863.55	21094.08
863.73	21147.33
863.90	21104.32
864.08	21089.98
864.25	21257.92
864.43	20891.33
864.60	20616.90
864.77	20969.15
864.95	20606.66
865.12	20580.04
865.30	20754.12
865.47	20752.07
865.64	20551.37
865.82	20856.51
865.99	20807.36
866.17	20483.78
866.34	20643.52
866.51	20440.78
866.69	20780.74
866.86	20448.97
867.04	20442.82
867.21	20395.72
867.38	20577.99
867.56	20401.86
867.73	20217.55
867.91	20029.13
868.08	20098.77
868.25	20211.40
868.43	19908.30
868.60	19973.84
868.78	19799.76
868.95	20371.15
869.12	19850.96
869.30	19773.14
869.47	19965.65
869.64	19846.87
869.82	19932.88
869.99	19928.78
870.16	20207.31
870.34	19875.54
870.51	20027.09
870.69	19523.29
870.86	19590.87
871.03	19996.37
871.21	19668.69
871.38	19648.21
871.55	19517.14
871.73	19504.85
871.90	19410.65
872.07	19474.13
872.25	19402.46
872.42	19447.51
872.59	19281.63
872.77	19250.91
872.94	19302.11
873.11	19134.17
873.29	19408.60
873.46	19140.32
873.63	19115.74
873.81	19166.94
873.98	19082.97
874.15	18896.61
874.33	18798.31
874.50	18775.78
874.67	18925.28
874.85	18618.08
875.02	18804.45
875.19	18577.12
875.37	18491.11
875.54	18605.80
875.71	18726.63
875.88	18370.28
876.06	18333.42
876.23	18296.55
876.40	18247.40
876.58	18312.94
876.75	18323.18
876.92	18294.50
877.10	18245.35
877.27	17946.35
877.44	18349.80
877.61	18036.46
877.79	18116.33
877.96	18165.48
878.13	17968.88
878.31	17827.57
878.48	17565.43
878.65	17710.83
878.82	17743.60
879.00	17975.02
879.17	17690.35
879.34	17606.39
879.51	17821.42
879.69	17630.96
879.86	17456.89
880.03	17821.42
880.21	17659.63
880.38	17491.70
880.55	17684.21
880.72	17192.70
880.90	17401.59
881.07	17329.91
881.24	17200.89
881.41	17510.13
881.59	17213.18
881.76	17061.63
881.93	17393.40
882.10	17176.31
882.28	16885.50
882.45	17438.45
882.62	17082.11
882.79	17299.19
882.96	16901.89
883.14	16957.18
883.31	16889.60
883.48	17082.11
883.65	17217.27
883.83	16903.93
884.00	16611.07
884.17	16924.41
884.34	16891.65
884.51	16748.29
884.69	16998.14
884.86	16512.77
885.03	16754.43
885.20	16623.36
885.38	16764.67
885.55	16697.09
885.72	16412.42
885.89	16535.30
886.06	16809.73
886.24	16643.84
886.41	16533.25
886.58	16754.43
886.75	16811.78
886.92	16320.26
887.10	16463.62
887.27	16230.15
887.44	16576.26
887.61	16557.83
887.78	16355.08
887.95	16406.28
888.13	16412.42
888.30	16410.37
888.47	16148.23
888.64	16322.31
888.81	16393.99
888.99	16246.54
889.16	15974.16
889.33	16019.21
889.50	16021.26
889.67	15904.53
889.84	16115.47
890.01	15963.92
890.19	15937.29
890.36	16267.02
890.53	16076.55
890.70	15988.49
890.87	15890.19
891.04	15912.72
891.22	15783.70
891.39	15707.92
891.56	15943.44
891.73	15611.67
891.90	15453.97
892.07	15482.64
892.24	15763.22
892.42	15353.62
892.59	15607.57
892.76	15380.25
892.93	15685.39
893.10	15716.11
893.27	15648.53
893.44	15167.26
893.61	15376.15
893.79	15398.68
893.96	15398.68
894.13	15558.42
894.30	15390.49
894.47	15402.77
894.64	15730.45
894.81	15230.74
894.98	15486.74
895.15	15335.19
895.33	15267.61
895.50	15286.04
895.67	15466.26
895.84	15175.45
896.01	15093.53
896.18	15341.33
896.35	15298.33
896.52	15169.30
896.69	15099.67
896.86	15087.39
897.04	15191.83
897.21	15384.34
897.38	15396.63
897.55	15044.38
897.72	15216.41
897.89	15114.01
898.06	15296.28
898.23	15165.21
898.40	15286.04
898.57	15296.28
898.74	15152.92
898.91	15189.78
899.08	15267.61
899.26	15238.94
899.43	15109.91
899.60	15023.90
899.77	15052.57
899.94	15208.22
900.11	14751.52
900.28	15212.31
900.45	15128.35
900.62	14923.55
900.79	15157.02
900.96	15183.64
901.13	14978.84
901.30	15003.42
901.47	15095.58
901.64	14845.73
901.81	15134.49
901.98	15023.90
902.15	15204.12
902.32	14913.31
902.49	14880.54
902.66	15320.85
902.83	15013.66
903.01	15036.19
903.18	15107.87
903.35	14980.89
903.52	14884.64
903.69	15027.99
903.86	15085.34
904.03	15085.34
904.20	15058.71
904.37	14978.84
904.54	14956.32
904.71	14931.74
904.88	14921.50
905.05	14978.84
905.22	14958.36
905.39	14841.63
905.56	14933.79
905.73	14638.88
905.90	15054.62
906.07	14890.78
906.24	15107.87
906.41	15114.01
906.58	14872.35
906.75	14966.56
906.92	14774.05
907.09	14925.60
907.26	14782.24
907.43	14720.80
907.60	14792.48
907.77	15017.75
907.93	14976.80
908.10	14782.24
908.27	14886.68
908.44	14595.87
908.61	14620.45
908.78	14792.48
908.95	14620.45
909.12	14782.24
909.29	14610.21
909.46	14651.17
909.63	14931.74
909.80	14849.82
909.97	14708.51
910.14	14522.15
910.31	14829.34
910.48	14745.38
910.65	14659.36
910.82	14728.99
910.99	14696.22
911.16	14468.90
911.33	14438.18
911.50	14696.22
911.66	14583.59
911.83	14520.10
912.00	14673.70
912.17	14405.41
912.34	14511.91
912.51	14438.18
912.68	14192.42
912.85	14546.72
913.02	14325.54
913.19	14423.84
913.36	14520.10
913.53	14266.15
913.70	14368.55
913.86	14339.88
914.03	14239.53
914.20	13979.43
914.37	14036.78
914.54	14079.79
914.71	14118.70
914.88	14145.32
915.05	13977.39
915.22	13825.84
915.39	14128.94
915.55	13993.77
915.72	13735.73
915.89	13938.48
916.06	13764.40
916.23	13682.48
916.40	13735.73
916.57	13762.35
916.74	14032.68
916.91	13610.80
917.07	13483.83
917.24	13651.76
917.41	13664.05
917.58	13446.96
917.75	13487.92
917.92	13250.36
918.09	13307.70
918.26	13410.10
918.42	13530.93
918.59	13178.68
918.76	13213.49
918.93	13156.15
919.10	13178.68
919.27	13102.90
919.44	13338.42
919.60	13324.08
919.77	13053.75
919.94	13068.09
920.11	12986.17
920.28	13098.81
920.45	13014.84
920.61	12914.49
920.78	12838.72
920.95	12814.14
921.12	12969.79
921.29	12783.42
921.46	12693.31
921.62	12853.05
921.79	12480.32
921.96	12472.13
922.13	12410.69
922.30	12312.39
922.47	12488.51
922.63	12339.01
922.80	12377.92
922.97	12306.24
923.14	12132.17
923.31	12410.69
923.47	12154.69
923.64	12320.58
923.81	12046.15
923.98	12048.20
924.15	11837.26
924.32	11894.60
924.48	12046.15
924.65	12076.87
924.82	11839.31
924.99	11648.85
925.15	11560.78
925.32	11683.66
925.49	11562.83
925.66	11622.22
925.83	11530.06
925.99	11390.80
926.16	11452.24
926.33	11466.58
926.50	11315.03
926.67	11466.58
926.83	11300.69
927.00	11132.76
927.17	11304.79
927.34	11007.83
927.50	10989.40
927.67	11308.88
927.84	11034.46
928.01	11132.76
928.17	10790.75
928.34	10706.78
928.51	10856.28
928.68	10860.38
928.84	10823.51
929.01	10618.72
929.18	10549.09
929.35	10391.39
929.51	10751.84
929.68	10479.46
929.85	10555.23
930.02	10469.22
930.18	10352.48
930.35	10397.54
930.52	10289.00
930.69	10379.11
930.85	10252.13
931.02	9981.80
931.19	10225.51
931.36	10067.81
931.52	10121.06
931.69	10022.76
931.86	9953.13
932.02	9998.18
932.19	9897.83
932.36	9930.60
932.53	10073.96
932.69	9795.43
932.86	9736.04
933.03	9619.31
933.19	9693.04
933.36	9725.80
933.53	9707.37
933.70	9400.18
933.86	9332.59
934.03	9494.38
934.20	9391.98
934.36	9430.90
934.53	9086.84
934.70	9066.36
934.86	9148.28
935.03	8949.62
935.20	9062.26
935.36	8970.10
935.53	8861.56
935.70	8877.94
935.86	8902.52
936.03	8712.06
936.20	8505.21
936.36	8507.26
936.53	8413.06
936.70	8275.84
936.86	8476.54
937.03	8404.86
937.20	8155.01
937.36	8107.91
937.53	8005.51
937.70	7880.58
937.86	7673.74
938.03	7729.03
938.20	7892.87
938.36	7516.05
938.53	7491.47
938.70	7186.32
938.86	7548.81
939.03	7393.17
939.20	7274.38
939.36	7319.44
939.53	7081.88
939.70	7237.52
939.86	6834.07
940.03	6754.20
940.19	6754.20
940.36	6698.91
940.53	6676.38
940.69	6705.05
940.86	6635.42
941.03	6477.73
941.19	6270.88
941.36	6342.56
941.52	6418.33
941.69	6367.13
941.86	6164.39
942.02	6143.91
942.19	6047.65
942.35	6074.28
942.52	6033.32
942.69	5967.78
942.85	5775.27
943.02	5734.31
943.18	5779.37
943.35	5824.42
943.52	5758.89
943.68	5633.96
943.85	5760.94
944.01	5629.87
944.18	5468.08
944.35	5726.12
944.51	5554.09
944.68	5468.08
944.84	5429.17
945.01	5492.65
945.17	5384.11
945.34	5500.84
945.51	5423.02
945.67	5588.91
945.84	5250.99
946.00	5242.80
946.17	5177.26
946.33	5263.28
946.50	5332.91
946.67	5382.06
946.83	5484.46
947.00	5445.55
947.16	5277.62
947.33	5380.01
947.49	5148.59
947.66	5140.40
947.82	5310.38
947.99	5195.70
948.16	5289.90
948.32	5103.54
948.49	5197.74
948.65	5222.32
948.82	5306.29
948.98	5167.03
949.15	5128.11
949.31	5146.55
949.48	5382.06
949.64	5277.62
949.81	5238.70
949.97	5228.46
950.14	5320.62
950.30	5148.59
950.47	5439.40
950.63	5226.42
950.80	5269.42
950.96	5281.71
951.13	5240.75
951.30	5275.57
951.46	5332.91
951.63	5334.96
951.79	5373.87
951.96	5410.73
952.12	5242.80
952.29	5285.81
952.45	5308.34
952.62	5244.85
952.78	5345.20
952.94	5203.89
953.11	5361.58
953.27	5189.55
953.44	5398.45
953.60	5408.69
953.77	5375.92
953.93	5377.97
954.10	5423.02
954.26	5330.86
954.43	5373.87
954.59	5414.83
954.76	5423.02
954.92	5480.36
955.09	5418.93
955.25	5228.46
955.42	5314.48
955.58	5480.36
955.75	5513.13
955.91	5492.65
956.07	5545.90
956.24	5472.17
956.40	5494.70
956.57	5525.42
956.73	5390.25
956.90	5455.79
957.06	5406.64
957.23	5466.03
957.39	5373.87
957.56	5488.56
957.72	5255.09
957.88	5353.39
958.05	5476.27
958.21	5494.70
958.38	5449.64
958.54	5390.25
958.71	5582.76
958.87	5363.63
959.03	5306.29
959.20	5377.97
959.36	5361.58
959.53	5457.84
959.69	5449.64
959.85	5396.40
960.02	5377.97
960.18	5304.24
960.35	5425.07
960.51	5515.18
960.68	5359.53
960.84	5433.26
961.00	5398.45
961.17	5427.12
961.33	5480.36
961.50	5599.15
961.66	5369.77
961.82	5373.87
961.99	5447.60
962.15	5402.54
962.31	5345.20
962.48	5517.23
962.64	5451.69
962.81	5414.83
962.97	5498.80
963.13	5459.88
963.30	5437.36
963.46	5396.40
963.62	5365.68
963.79	5289.90
963.95	5373.87
964.12	5291.95
964.28	5425.07
964.44	5244.85
964.61	5316.53
964.77	5457.84
964.93	5433.26
965.10	5279.66
965.26	5377.97
965.42	5328.81
965.59	5218.22
965.75	5207.98
965.92	5291.95
966.08	5271.47
966.24	5312.43
966.41	5289.90
966.57	5431.21
966.73	5275.57
966.90	5351.34
967.06	5306.29
967.22	5197.74
967.39	5115.83
967.55	5205.94
967.71	5283.76
967.88	5160.88
968.04	5271.47
968.20	5146.55
968.37	5070.77
968.53	5072.82
968.69	5160.88
968.85	5205.94
969.02	5234.61
969.18	5173.17
969.34	5132.21
969.51	5285.81
969.67	5091.25
969.83	5007.28
970.00	5224.37
970.16	5058.48
970.32	5146.55
970.48	5085.11
970.65	5035.96
970.81	5015.48
970.97	4892.60
971.14	5021.62
971.30	5105.59
971.46	4951.99
971.63	4980.66
971.79	4976.56
971.95	4931.51
972.11	4870.07
972.28	5007.28
972.44	5097.39
972.60	4833.21
972.76	5074.87
972.93	4935.60
973.09	4951.99
973.25	4915.12
973.42	4988.85
973.58	4982.71
973.74	4921.27
973.90	4853.69
974.07	4886.45
974.23	4978.61
974.39	4898.74
974.55	4804.53
974.72	4960.18
974.88	4749.24
975.04	4845.49
975.20	4829.11
975.37	4966.32
975.53	4769.72
975.69	4837.30
975.85	4722.62
976.01	4734.90
976.18	4679.61
976.34	4728.76
976.50	4761.53
976.66	4759.48
976.83	4739.00
976.99	4607.93
977.15	4755.38
977.31	4485.05
977.47	4671.42
977.64	4650.94
977.80	4730.81
977.96	4552.63
978.12	4683.70
978.29	4622.27
978.45	4640.70
978.61	4503.48
978.77	4730.81
978.93	4483.00
979.10	4734.90
979.26	4542.39
979.42	4657.08
979.58	4530.11
979.74	4454.33
979.91	4607.93
980.07	4452.28
980.23	4464.57
980.39	4358.08
980.55	4575.16
980.71	4517.82
980.88	4364.22
981.04	4382.65
981.20	4419.52
981.36	4358.08
981.52	4427.71
981.68	4255.68
981.85	4368.32
982.01	4300.73
982.17	4218.82
982.33	4300.73
982.49	4298.69
982.65	4216.77
982.82	4243.39
982.98	4329.41
983.14	4112.32
983.30	4405.18
983.46	4368.32
983.62	4272.06
983.79	4261.82
983.95	4278.21
984.11	4267.97
984.27	4202.43
984.43	4261.82
984.59	4153.28
984.75	4353.98
984.91	4081.60
985.08	4202.43
985.24	4136.90
985.40	4186.05
985.56	4042.69
985.72	4149.18
985.88	4237.25
986.04	4157.38
986.20	4097.99
986.37	4114.37
986.53	4065.22
986.69	4073.41
986.85	4116.42
987.01	4007.87
987.17	4108.23
987.33	4054.98
987.49	3913.67
987.65	4018.11
987.82	4050.88
987.98	4038.59
988.14	4057.03
988.30	4011.97
988.46	3930.05
988.62	3917.76
988.78	3938.24
988.94	4007.87
989.10	3893.19
989.26	3786.69
989.42	3807.17
989.59	3887.04
989.75	3809.22
989.91	3895.24
990.07	3768.26
990.23	3696.58
990.39	3833.80
990.55	3803.08
990.71	3706.82
990.87	3782.60
991.03	3897.28
991.19	3764.17
991.35	3753.93
991.51	3755.97
991.67	3829.70
991.83	3821.51
992.00	3719.11
992.16	3801.03
992.32	3764.17
992.48	3794.89
992.64	3612.62
992.80	3631.05
992.96	3645.38
993.12	3880.90
993.28	3758.02
993.44	3620.81
993.60	3649.48
993.76	3645.38
993.92	3682.25
994.08	3676.10
994.24	3629.00
994.40	3674.06
994.56	3655.62
994.72	3622.86
994.88	3557.32
995.04	3534.79
995.20	3608.52
995.36	3444.68
995.52	3459.02
995.68	3592.14
995.84	3506.12
996.00	3610.57
996.16	3606.47
996.32	3497.93
996.48	3420.11
996.64	3649.48
996.80	3538.89
996.96	3485.64
997.12	3456.97
997.28	3327.95
997.44	3448.78
997.60	3395.53
997.76	3450.83
997.92	3461.07
998.08	3395.53
998.24	3325.90
998.40	3385.29
998.56	3481.55
998.72	3311.57
998.88	3387.34
999.04	3260.37
999.20	3387.34
999.36	3256.27
999.52	3483.59
999.68	3286.99
999.84	3352.52
1000.00	3383.24
1000.16	3463.12
1000.32	3280.85
1000.48	3303.37
1000.64	3274.70
1000.80	3278.80
1000.95	3178.45
1001.11	3178.45
1001.27	3170.26
1001.43	3160.02
1001.59	3250.13
1001.75	3227.60
1001.91	3270.61
1002.07	3117.01
1002.23	3213.26
1002.39	3127.25
1002.55	3164.11
1002.71	3147.73
1002.87	3028.95
1003.03	3016.66
1003.19	3090.38
1003.34	3155.92
1003.50	3018.71
1003.66	3213.26
1003.82	3139.54
1003.98	3088.34
1004.14	3055.57
1004.30	3012.56
1004.46	3026.90
1004.62	3028.95
1004.78	3084.24
1004.94	3088.34
1005.09	3051.47
1005.25	3071.95
1005.41	2987.99
1005.57	2985.94
1005.73	3082.19
1005.89	2998.23
1006.05	3000.27
1006.21	2975.70
1006.37	2871.25
1006.52	2949.08
1006.68	2822.10
1006.84	2977.75
1007.00	2871.25
1007.16	2899.92
1007.32	2856.92
1007.48	2912.21
1007.64	2990.03
1007.79	2895.83
1007.95	2756.57
1008.11	2920.40
1008.27	2916.31
1008.43	2877.40
1008.59	2766.81
1008.75	2871.25
1008.91	2809.81
1009.06	2781.14
1009.22	2844.63
1009.38	2852.82
1009.54	2838.48
1009.70	2848.72
1009.86	2762.71
1010.01	2811.86
1010.17	2758.61
1010.33	2787.29
1010.49	2815.96
1010.65	3012.56
1010.81	2691.03
1010.96	2768.85
1011.12	2707.41
1011.28	2582.49
1011.44	2752.47
1011.60	2715.61
1011.76	2830.29
1011.91	2863.06
1012.07	2695.13
1012.23	2645.98
1012.39	2703.32
1012.55	2748.37
1012.71	2684.89
1012.86	2615.26
1013.02	2680.79
1013.18	2611.16
1013.34	2658.26
1013.50	2713.56
1013.65	2660.31
1013.81	2598.87
1013.97	2566.10
1014.13	2617.30
1014.29	2617.30
1014.44	2652.12
1014.60	2566.10
1014.76	2543.58
1014.92	2531.29
1015.07	2633.69
1015.23	2660.31
1015.39	2463.71
1015.55	2502.62
1015.71	2521.05
1015.86	2592.73
1016.02	2531.29
1016.18	2394.08
1016.34	2498.52
1016.49	2543.58
1016.65	2645.98
1016.81	2426.84
1016.97	2461.66
1017.12	2504.67
1017.28	2471.90
1017.44	2441.18
1017.60	2525.15
1017.75	2437.08
1017.91	2422.75
1018.07	2467.80
1018.23	2516.95
1018.38	2414.56
1018.54	2492.38
1018.70	2459.61
1018.86	2316.25
1019.01	2400.22
1019.17	2381.79
1019.33	2529.24
1019.49	2377.69
1019.64	2416.60
1019.80	2396.12
1019.96	2416.60
1020.12	2469.85
1020.27	2377.69
1020.43	2383.84
1020.59	2328.54
1020.74	2467.80
1020.90	2377.69
1021.06	2297.82
1021.22	2451.42
1021.37	2408.41
1021.53	2310.11
1021.69	2363.36
1021.84	2369.50
1022.00	2342.88
1022.16	2295.77
1022.31	2353.12
1022.47	2355.16
1022.63	2385.88
1022.79	2170.85
1022.94	2271.20
1023.10	2430.94
1023.26	2260.96
1023.41	2269.15
1023.57	2318.30
1023.73	2275.29
1023.88	2322.40
1024.04	2181.09
1024.20	2256.86
1024.35	2213.85
1024.51	2265.05
1024.67	2242.53
1024.82	2240.48
1024.98	2168.80
1025.14	2162.66
1025.29	2248.67
1025.45	2224.09
1025.61	2154.46
1025.76	2144.22
1025.92	2226.14
1026.08	2238.43
1026.23	2213.85
1026.39	2248.67
1026.55	2181.09
1026.70	2127.84
1026.86	2144.22
1027.02	2240.48
1027.17	2252.77
1027.33	2133.98
1027.48	2131.94
1027.64	2162.66
1027.80	2195.42
1027.95	2228.19
1028.11	2080.74
1028.27	2201.57
1028.42	2115.55
1028.58	2187.23
1028.73	2109.41
1028.89	2033.63
1029.05	2234.33
1029.20	2109.41
>>>>>End Processed Spectral Data<<<<<
