SpectraSuite Data File
++++++++++++++++++++++++++++++++++++
Date: Fri Jun 02 14:53:34 CEST 2017
User: INFO_000
Dark Spectrum Present: No
Reference Spectrum Present: No
Number of Sampled Component Spectra: 1
Spectrometers: USB4H00879
Integration Time (usec): 80000 (USB4H00879)
Spectra Averaged: 1 (USB4H00879)
Boxcar Smoothing: 0 (USB4H00879)
Correct for Electrical Dark: No (USB4H00879)
Strobe/Lamp Enabled: No (USB4H00879)
Correct for Detector Non-linearity: No (USB4H00879)
Correct for Stray Light: No (USB4H00879)
Number of Pixels in Processed Spectrum: 3648
>>>>>Begin Processed Spectral Data<<<<<
345.13	1226.73
345.34	1226.73
345.56	1226.73
345.78	1206.25
345.99	1257.45
346.21	1740.77
346.42	1695.72
346.64	1607.66
346.86	1779.68
347.07	1710.05
347.29	1689.57
347.50	1632.23
347.72	1621.99
347.94	1751.01
348.15	1540.07
348.37	1660.90
348.59	1716.20
348.80	1595.37
349.02	1761.25
349.23	1947.62
349.45	1798.12
349.67	1875.94
349.88	1771.49
350.10	2025.44
350.31	1904.61
350.53	1781.73
350.75	2066.40
350.96	1740.77
351.18	1918.95
351.39	1818.60
351.61	1900.52
351.82	1990.63
352.04	1908.71
352.26	1857.51
352.47	1945.57
352.69	1875.94
352.90	1800.16
353.12	1853.41
353.34	1875.94
353.55	1988.58
353.77	1884.13
353.98	1880.04
354.20	1880.04
354.41	1920.99
354.63	1933.28
354.85	2017.25
355.06	1914.85
355.28	1869.80
355.49	1834.98
355.71	1855.46
355.92	1843.17
356.14	1929.19
356.35	1882.08
356.57	1875.94
356.79	1882.08
357.00	1923.04
357.22	1964.00
357.43	1867.75
357.65	1992.67
357.86	1806.31
358.08	1818.60
358.29	1953.76
358.51	2015.20
358.72	2011.11
358.94	1986.53
359.16	1935.33
359.37	2019.30
359.59	2041.82
359.80	1978.34
360.02	1904.61
360.23	2025.44
360.45	2025.44
360.66	1929.19
360.88	1869.80
361.09	1941.47
361.31	1980.39
361.52	1994.72
361.74	2064.35
361.95	2027.49
362.17	1914.85
362.38	2115.55
362.60	2025.44
362.81	1996.77
363.03	1957.86
363.24	2004.96
363.46	2105.31
363.67	2056.16
363.89	1957.86
364.10	2023.39
364.32	1927.14
364.53	2039.78
364.75	1886.18
364.96	2066.40
365.18	2023.39
365.39	2019.30
365.61	1996.77
365.82	2109.41
366.04	1998.82
366.25	1970.15
366.47	2142.18
366.68	2095.07
366.90	1943.52
367.11	2123.74
367.33	2076.64
367.54	2086.88
367.76	2007.01
367.97	2133.98
368.19	1961.95
368.40	2084.83
368.62	1961.95
368.83	2056.16
369.05	2066.40
369.26	1994.72
369.48	2066.40
369.69	2015.20
369.91	2047.97
370.12	2113.50
370.33	2154.46
370.55	1947.62
370.76	2068.45
370.98	2136.03
371.19	2107.36
371.41	2136.03
371.62	2033.63
371.84	2031.58
372.05	2121.70
372.27	2056.16
372.48	2142.18
372.69	2054.11
372.91	2179.04
373.12	2207.71
373.34	2019.30
373.55	2158.56
373.77	2154.46
373.98	2129.89
374.20	2211.81
374.41	2211.81
374.62	2133.98
374.84	2156.51
375.05	2201.57
375.27	2222.05
375.48	2215.90
375.70	2203.61
375.91	2152.42
376.12	2291.68
376.34	2097.12
376.55	2166.75
376.77	2162.66
376.98	2080.74
377.19	2127.84
377.41	2101.22
377.62	2209.76
377.84	2191.33
378.05	2310.11
378.27	2238.43
378.48	2303.96
378.69	2379.74
378.91	2277.34
379.12	2269.15
379.34	2189.28
379.55	2318.30
379.76	2238.43
379.98	2267.10
380.19	2271.20
380.41	2275.29
380.62	2256.86
380.83	2281.44
381.05	2133.98
381.26	2375.64
381.47	2254.81
381.69	2265.05
381.90	2455.51
382.12	2283.49
382.33	2269.15
382.54	2408.41
382.76	2367.45
382.97	2260.96
383.19	2263.01
383.40	2375.64
383.61	2299.87
383.83	2344.92
384.04	2355.16
384.25	2359.26
384.47	2385.88
384.68	2361.31
384.89	2314.20
385.11	2316.25
385.32	2420.70
385.54	2320.35
385.75	2430.94
385.96	2404.32
386.18	2441.18
386.39	2412.51
386.60	2445.27
386.82	2514.91
387.03	2467.80
387.24	2555.86
387.46	2445.27
387.67	2541.53
387.88	2529.24
388.10	2473.95
388.31	2555.86
388.52	2588.63
388.74	2516.95
388.95	2566.10
389.16	2539.48
389.38	2506.71
389.59	2609.11
389.80	2582.49
390.02	2580.44
390.23	2576.34
390.44	2549.72
390.66	2605.02
390.87	2586.58
391.08	2648.02
391.30	2697.17
391.51	2568.15
391.72	2619.35
391.94	2662.36
392.15	2590.68
392.36	2672.60
392.58	2576.34
392.79	2654.17
393.00	2711.51
393.22	2789.33
393.43	2748.37
393.64	2729.94
393.85	2815.96
394.07	2676.70
394.28	2797.53
394.49	2781.14
394.71	2748.37
394.92	2854.87
395.13	2680.79
395.35	2701.27
395.56	2832.34
395.77	2850.77
395.98	2842.58
396.20	2926.55
396.41	2719.70
396.62	2893.78
396.84	2826.20
397.05	2842.58
397.26	2928.60
397.47	2951.12
397.69	2953.17
397.90	3086.29
398.11	2912.21
398.32	2887.64
398.54	2869.20
398.75	2844.63
398.96	2922.45
399.18	3162.06
399.39	3043.28
399.60	3018.71
399.81	3018.71
400.03	2961.36
400.24	3248.08
400.45	2973.65
400.66	3030.99
400.88	3022.80
401.09	3084.24
401.30	3121.10
401.51	3241.93
401.73	3102.67
401.94	3194.83
402.15	3133.39
402.36	3125.20
402.58	3170.26
402.79	3157.97
403.00	3166.16
403.21	3223.50
403.43	3286.99
403.64	3340.24
403.85	3069.91
404.06	3317.71
404.27	3180.50
404.49	3243.98
404.70	3178.45
404.91	3270.61
405.12	3278.80
405.34	3262.41
405.55	3489.74
405.76	3170.26
405.97	3327.95
406.19	3391.44
406.40	3256.27
406.61	3452.88
406.82	3305.42
407.03	3272.65
407.25	3336.14
407.46	3561.42
407.67	3405.77
407.88	3442.64
408.09	3452.88
408.31	3299.28
408.52	3315.66
408.73	3416.01
408.94	3330.00
409.15	3510.22
409.37	3426.25
409.58	3444.68
409.79	3553.23
410.00	3481.55
410.21	3422.16
410.43	3536.84
410.64	3518.41
410.85	3555.27
411.06	3604.42
411.27	3528.65
411.48	3669.96
411.70	3514.31
411.91	3620.81
412.12	3706.82
412.33	3606.47
412.54	3577.80
412.76	3723.21
412.97	3669.96
413.18	3504.07
413.39	3643.34
413.60	3702.73
413.81	3729.35
414.03	3684.30
414.24	3598.28
414.45	3825.61
414.66	3602.38
414.87	3706.82
415.08	3680.20
415.30	3798.98
415.51	3798.98
415.72	3768.26
415.93	3649.48
416.14	3874.76
416.35	3821.51
416.56	3805.13
416.78	3772.36
416.99	3807.17
417.20	3803.08
417.41	3827.65
417.62	3936.20
417.83	4046.79
418.04	3915.72
418.26	4038.59
418.47	3948.48
418.68	3964.87
418.89	3944.39
419.10	4192.19
419.31	3940.29
419.52	3983.30
419.73	3938.24
419.95	4184.00
420.16	3999.68
420.37	4079.55
420.58	4028.35
420.79	3991.49
421.00	4048.83
421.21	4245.44
421.42	3983.30
421.63	4134.85
421.85	4124.61
422.06	4212.67
422.27	4300.73
422.48	4145.09
422.69	4335.55
422.90	4245.44
423.11	4267.97
423.32	4308.93
423.53	4421.56
423.75	4392.89
423.96	4548.54
424.17	4505.53
424.38	4409.28
424.59	4335.55
424.80	4519.87
425.01	4380.61
425.22	4462.52
425.43	4446.14
425.64	4513.72
425.85	4736.95
426.06	4620.22
426.28	4624.31
426.49	4571.07
426.70	4468.67
426.91	4652.98
427.12	4671.42
427.33	4745.14
427.54	4708.28
427.75	4810.68
427.96	4882.36
428.17	4771.77
428.38	4730.81
428.59	4831.16
428.80	4911.03
429.01	5068.72
429.23	4937.65
429.44	4917.17
429.65	4992.95
429.86	5044.15
430.07	4911.03
430.28	4951.99
430.49	4888.50
430.70	5171.12
430.91	5167.03
431.12	4992.95
431.33	5205.94
431.54	5167.03
431.75	5277.62
431.96	5154.74
432.17	5121.97
432.38	5183.41
432.59	5390.25
432.80	5185.46
433.01	5359.53
433.22	5351.34
433.43	5345.20
433.64	5343.15
433.85	5357.49
434.06	5443.50
434.27	5250.99
434.49	5308.34
434.70	5552.04
434.91	5457.84
435.12	5564.33
435.33	5490.60
435.54	5601.19
435.75	5418.93
435.96	5427.12
436.17	5377.97
436.38	5595.05
436.59	5754.79
436.80	5750.70
437.01	5840.81
437.22	5896.10
437.43	5853.09
437.64	5427.12
437.85	5832.62
438.06	5883.81
438.27	5801.90
438.48	5687.21
438.69	5863.33
438.90	5808.04
439.11	5752.74
439.32	5900.20
439.53	5826.47
439.74	6080.42
439.95	6164.39
440.16	5912.49
440.37	6008.74
440.57	5851.05
440.78	6002.60
440.99	6225.82
441.20	6080.42
441.41	6031.27
441.62	6088.61
441.83	5998.50
442.04	6178.72
442.25	6150.05
442.46	6029.22
442.67	6180.77
442.88	6573.98
443.09	6092.71
443.30	6203.30
443.51	6262.69
443.72	6496.16
443.93	6254.50
444.14	6483.87
444.35	6281.12
444.56	6410.14
444.77	6303.65
444.98	6481.82
445.19	6457.25
445.40	6537.12
445.61	6477.73
445.81	6616.99
446.02	6502.30
446.23	6524.83
446.44	6426.53
446.65	6664.09
446.86	6559.64
447.07	6703.00
447.28	6838.17
447.49	6709.15
447.70	6664.09
447.91	6739.87
448.12	6866.84
448.33	6877.08
448.54	6854.55
448.74	6758.30
448.95	6864.79
449.16	6866.84
449.37	7157.65
449.58	6741.91
449.79	7102.36
450.00	6721.43
450.21	7118.74
450.42	6997.91
450.63	7030.68
450.84	7067.54
451.05	7002.01
451.25	7085.97
451.46	7032.72
451.67	7126.93
451.88	7374.74
452.09	7303.06
452.30	7145.36
452.51	7190.42
452.72	7462.80
452.93	7614.35
453.13	7305.10
453.34	7284.62
453.55	7364.50
453.76	7255.95
453.97	7896.97
454.18	7696.27
454.39	7649.16
454.60	7606.16
454.81	7557.00
455.01	7634.83
455.22	7372.69
455.43	7606.16
455.64	7868.30
455.85	7964.55
456.06	8103.81
456.27	7864.20
456.48	7866.25
456.68	7993.22
456.89	7939.97
457.10	8077.19
457.31	8003.46
457.52	7933.83
457.73	8150.92
457.94	8306.56
458.14	8155.01
458.35	8505.21
458.56	8290.18
458.77	8226.69
458.98	8161.16
459.19	8492.93
459.39	8482.69
459.60	8380.29
459.81	8318.85
460.02	8568.70
460.23	8494.97
460.44	8800.12
460.65	8646.52
460.85	8695.68
461.06	8818.55
461.27	8492.93
461.48	8818.55
461.69	8988.53
461.89	8701.82
462.10	9017.21
462.31	8789.88
462.52	8820.60
462.73	8882.04
462.94	9105.27
463.14	9000.82
463.35	9138.04
463.56	9531.25
463.77	9506.67
463.98	9078.65
464.18	9160.56
464.39	9596.78
464.60	9650.03
464.81	9590.64
465.02	9439.09
465.23	9793.39
465.43	9688.94
465.64	9869.16
465.85	9674.60
466.06	9768.81
466.27	10065.77
466.47	9860.97
466.68	10061.67
466.89	10174.31
467.10	10225.51
467.30	9838.44
467.51	10250.08
467.72	10575.71
467.93	10067.81
468.14	10174.31
468.34	10475.36
468.55	10628.96
468.76	10391.39
468.97	10524.51
469.17	10731.36
469.38	10704.73
469.59	10878.81
469.80	10751.84
470.01	10776.41
470.21	10968.92
470.42	11145.05
470.63	11032.41
470.84	10999.64
471.04	11272.02
471.25	11521.87
471.46	11165.53
471.67	11538.26
471.87	11489.10
472.08	11691.85
472.29	11880.27
472.50	11417.43
472.70	11716.43
472.91	11757.39
473.12	11951.95
473.33	11984.71
473.53	12250.95
473.74	12001.10
473.95	12140.36
474.16	12410.69
474.36	12209.99
474.57	12490.56
474.78	12603.20
474.99	12717.89
475.19	12498.75
475.40	12857.15
475.61	12992.31
475.81	13107.00
476.02	13000.51
476.23	13029.18
476.44	13168.44
476.64	13254.45
476.85	13723.44
477.06	13483.83
477.27	13707.05
477.47	13866.80
477.68	13653.81
477.89	13903.66
478.09	13909.80
478.30	14135.08
478.51	13983.53
478.71	14294.82
478.92	14112.55
479.13	14452.52
479.34	14501.67
479.54	14567.20
479.75	14792.48
479.96	14772.00
480.16	14626.59
480.37	14825.25
480.58	15281.94
480.78	15404.82
480.99	15183.64
481.20	15251.22
481.41	15398.68
481.61	15652.63
481.82	15525.65
482.03	15685.39
482.23	15826.70
482.44	15941.39
482.65	15882.00
482.85	15943.44
483.06	16131.85
483.27	16129.80
483.47	16307.98
483.68	16490.24
483.89	16314.12
484.09	16631.55
484.30	16770.82
484.51	16891.65
484.71	16791.30
484.92	16891.65
485.13	16936.70
485.33	17172.22
485.54	17207.03
485.75	17450.74
485.95	17688.31
486.16	17647.35
486.37	17995.50
486.57	17651.44
486.78	17612.53
486.98	17903.34
487.19	17921.77
487.40	17977.07
487.60	17991.41
487.81	18333.42
488.02	18294.50
488.22	18530.02
488.43	18683.62
488.64	18642.66
488.84	18773.73
489.05	18802.40
489.25	18851.55
489.46	18857.70
489.67	19062.49
489.87	19345.11
490.08	19635.92
490.29	19398.36
490.49	19914.45
490.70	19668.69
490.90	19709.65
491.11	19707.60
491.32	19918.54
491.52	20043.47
491.73	20086.48
491.94	20195.02
492.14	19979.98
492.35	20676.29
492.55	20514.50
492.76	20375.24
492.97	20688.58
493.17	20569.80
493.38	20836.03
493.58	21067.45
493.79	20965.06
494.00	21294.78
494.20	21296.83
494.41	21300.92
494.61	21475.00
494.82	21518.01
495.02	21552.82
495.23	21687.99
495.44	21573.30
495.64	21939.89
495.85	21692.08
496.05	22064.82
496.26	22050.48
496.47	22056.62
496.67	22175.41
496.88	22335.15
497.08	21935.79
497.29	22464.17
497.49	22648.49
497.70	22980.26
497.91	23015.07
498.11	22795.94
498.32	22857.38
498.52	23185.05
498.73	23279.26
498.93	23105.18
499.14	23064.22
499.34	23262.88
499.55	23551.64
499.76	23568.02
499.96	23746.20
500.17	23656.09
500.37	23629.46
500.58	23828.12
500.78	23877.27
500.99	23738.01
501.19	24256.14
501.40	23785.11
501.60	23862.93
501.81	24422.03
502.02	24170.13
502.22	24008.34
502.43	24333.96
502.63	24798.85
502.84	24696.46
503.04	24813.19
503.25	24766.09
503.45	24880.77
503.66	24934.02
503.86	24954.50
504.07	25134.72
504.27	24813.19
504.48	25284.22
504.68	25046.66
504.89	25491.07
505.09	25267.84
505.30	25476.73
505.50	25656.95
505.71	25835.13
505.91	25489.02
506.12	25845.37
506.32	25505.40
506.53	25958.00
506.73	25687.67
506.94	26123.89
507.14	26109.55
507.35	25837.17
507.55	26242.67
507.76	26037.87
507.96	25980.53
508.17	26451.56
508.37	26117.75
508.58	26300.01
508.78	26297.97
508.99	26826.34
509.19	26584.68
509.40	26650.22
509.60	26486.38
509.81	26723.94
510.01	26664.55
510.22	26891.88
510.42	27002.47
510.63	27010.66
510.83	26969.70
511.04	27008.61
511.24	27104.87
511.44	27283.04
511.65	27342.43
511.85	27414.11
512.06	27465.31
512.26	27113.06
512.47	27553.37
512.67	27262.56
512.88	27336.29
513.08	27303.52
513.29	27663.96
513.49	27676.25
513.69	27588.19
513.90	27784.79
514.10	28280.40
514.31	27973.21
514.51	27739.74
514.72	27995.73
514.92	28026.45
515.13	28165.71
515.33	28350.03
515.53	28315.22
515.74	28264.02
515.94	28307.02
516.15	28362.32
516.35	28130.90
516.56	28649.03
516.76	28120.66
516.96	28364.37
517.17	28528.20
517.37	28702.28
517.58	28837.45
517.78	28872.26
517.99	28403.28
518.19	28952.13
518.39	29212.23
518.60	29056.58
518.80	29093.44
519.01	29206.08
519.21	29224.51
519.41	29650.49
519.62	29318.72
519.82	29351.49
520.03	29232.71
520.23	29486.65
520.43	29238.85
520.64	29902.39
520.84	29761.08
521.05	29646.40
521.25	29740.60
521.45	29660.73
521.66	29914.68
521.86	29996.60
522.07	30162.48
522.27	30266.93
522.47	29945.40
522.68	30623.28
522.88	30201.40
523.08	30826.03
523.29	30135.86
523.49	30570.03
523.70	30406.19
523.90	30866.98
524.10	30549.55
524.31	30969.38
524.51	30391.86
524.71	31268.39
524.92	31100.45
525.12	31114.79
525.33	31421.98
525.53	31448.61
525.73	31407.65
525.94	31381.03
526.14	31639.07
526.34	31350.31
526.55	31581.73
526.75	31729.18
526.95	31870.49
527.16	31927.83
527.36	31731.23
527.56	31921.69
527.77	32249.36
527.97	32243.22
528.17	32138.77
528.38	32386.58
528.58	32495.12
528.78	32486.93
528.99	32171.54
529.19	32710.16
529.39	32734.73
529.60	32896.52
529.80	32826.89
530.00	32835.08
530.21	33201.67
530.41	33140.23
530.61	32990.73
530.82	32947.72
531.02	32820.75
531.22	33431.04
531.43	32927.24
531.63	33568.26
531.83	33900.03
532.04	34149.88
532.24	33748.48
532.44	34174.45
532.64	34110.97
532.85	34278.90
533.05	34326.00
533.25	34256.37
533.46	34362.87
533.66	34555.38
533.86	34127.35
534.07	34719.21
534.27	34149.88
534.47	35362.28
534.67	34735.60
534.88	34829.80
535.08	34944.49
535.28	35083.75
535.49	34727.41
535.69	35489.25
535.89	35296.74
536.09	35575.27
536.30	35618.27
536.50	35356.13
536.70	35425.76
536.91	35767.77
537.11	35778.01
537.31	36005.34
537.51	35841.50
537.72	35941.85
537.92	36314.58
538.12	36328.92
538.32	36308.44
538.53	36468.18
538.73	36304.34
538.93	36457.94
539.13	36711.89
539.34	36582.87
539.54	36341.21
539.74	36914.64
539.94	36763.09
540.15	36593.11
540.35	37004.75
540.55	37334.47
540.75	37107.15
540.96	37303.75
541.16	37565.89
541.36	37547.46
541.56	37037.51
541.77	38108.60
541.97	37447.11
542.17	37651.91
542.37	37518.79
542.58	37858.75
542.78	37563.84
542.98	37989.82
543.18	37885.37
543.38	38419.89
543.59	38526.39
543.79	38124.99
543.99	38409.65
544.19	38786.48
544.40	38069.69
544.60	38507.96
544.80	38364.60
545.00	38573.49
545.20	38792.62
545.41	38520.24
545.61	38561.20
545.81	39138.73
546.01	39304.62
546.21	38890.93
546.42	39050.67
546.62	38956.46
546.82	39146.92
547.02	39261.61
547.22	39609.76
547.43	39132.59
547.63	39296.42
547.83	39441.83
548.03	38991.28
548.23	39658.91
548.44	39419.30
548.64	39783.84
548.84	39835.04
549.04	39822.75
549.24	39892.38
549.45	40197.53
549.65	39824.80
549.85	40000.93
550.05	40228.25
550.25	40232.35
550.45	40590.74
550.66	40187.29
550.86	39867.81
551.06	40783.25
551.26	40639.89
551.46	40596.88
551.66	40693.14
551.87	40705.43
552.07	40785.30
552.27	40361.37
552.47	41229.71
552.67	40928.66
552.87	41115.02
553.07	40945.04
553.28	41270.67
553.48	41481.61
553.68	41076.11
553.88	41291.15
554.08	41315.72
554.28	41080.21
554.48	41166.22
554.69	41670.02
554.89	41575.81
555.09	41426.31
555.29	41305.48
555.49	41831.81
555.69	41495.94
555.89	41774.47
556.10	42167.68
556.30	41926.02
556.50	42022.27
556.70	41833.86
556.90	41905.54
557.10	42057.09
557.30	41831.81
557.50	42587.51
557.70	42456.44
557.91	43068.78
558.11	42294.65
558.31	42358.14
558.51	42433.91
558.71	42206.59
558.91	42556.79
559.11	42526.07
559.31	42321.27
559.51	42351.99
559.72	42431.86
559.92	43040.11
560.12	42382.71
560.32	43070.83
560.52	42362.23
560.72	42904.95
560.92	42937.71
561.12	43062.64
561.32	43222.38
561.52	42997.10
561.72	43613.54
561.93	43232.62
562.13	43558.25
562.33	43111.79
562.53	43728.23
562.73	43150.70
562.93	43390.31
563.13	43259.24
563.33	43666.79
563.53	43740.52
563.73	43410.79
563.93	43332.97
564.13	44260.70
564.33	43896.16
564.53	43591.01
564.74	44062.05
564.94	43896.16
565.14	43713.89
565.34	43851.11
565.54	43984.22
565.74	44180.83
565.94	44363.10
566.14	44252.51
566.34	43924.83
566.54	44420.44
566.74	43761.00
566.94	44514.65
567.14	44836.18
567.34	44295.52
567.54	44576.09
567.74	44549.46
567.94	44471.64
568.14	45067.60
568.34	44909.91
568.54	44801.36
568.74	45161.81
568.94	44660.05
569.14	45256.01
569.34	44758.36
569.54	44940.63
569.75	44799.32
569.95	45131.09
570.15	45620.55
570.35	45577.54
570.55	45430.09
570.75	44850.52
570.95	45489.48
571.15	45217.10
571.35	45915.46
571.55	45845.83
571.75	45391.18
571.95	45604.17
572.15	45407.56
572.35	45989.19
572.55	45413.71
572.75	45729.09
572.95	45532.49
573.15	46044.48
573.35	45520.20
573.55	45823.30
573.75	45878.60
573.95	46312.77
574.15	45749.57
574.35	46335.29
574.55	46220.61
574.75	46212.41
574.95	46196.03
575.15	46427.45
575.34	46437.69
575.54	46763.32
575.74	46339.39
575.94	46699.83
576.14	46773.56
576.34	46918.96
576.54	47080.75
576.74	47187.25
576.94	46835.00
577.14	47789.35
577.34	47570.22
577.54	46746.93
577.74	47207.73
577.94	47043.89
578.14	47236.40
578.34	47658.28
578.54	46984.50
578.74	46992.69
578.94	47756.58
579.14	47396.14
579.34	47645.99
579.54	47623.47
579.74	47758.63
579.94	47625.51
580.13	47828.26
580.33	47826.21
580.53	47951.14
580.73	48092.45
580.93	47815.97
581.13	47645.99
581.33	48162.08
581.53	48743.70
581.73	48379.17
581.93	48588.06
582.13	48715.03
582.33	48809.24
582.53	48545.05
582.73	48786.71
582.92	48649.50
583.12	48893.21
583.32	49063.19
583.52	48559.39
583.72	49143.06
583.92	48897.30
584.12	49151.25
584.32	49878.28
584.52	49327.38
584.72	49141.01
584.92	48897.30
585.11	50158.85
585.31	49403.15
585.51	49997.06
585.71	49343.76
585.91	49497.36
586.11	49491.21
586.31	49403.15
586.51	49915.14
586.71	49788.17
586.91	50124.04
587.10	49841.42
587.30	49970.44
587.50	49839.37
587.70	50300.16
587.90	49999.11
588.10	50251.01
588.30	50212.10
588.50	50029.83
588.69	50722.04
588.89	50126.08
589.09	50156.80
589.29	50355.46
589.49	51064.05
589.69	49982.73
589.89	50451.71
590.08	50550.01
590.28	50285.82
590.48	50822.39
590.68	50789.62
590.88	50689.27
591.08	50760.95
591.28	50695.42
591.47	50996.47
591.67	50771.19
591.87	50537.72
592.07	51100.92
592.27	51283.19
592.47	50959.61
592.67	51068.15
592.86	50697.47
593.06	51250.42
593.26	51361.01
593.46	51381.49
593.66	51326.19
593.86	51311.86
594.05	51414.26
594.25	51895.53
594.45	51231.99
594.65	51946.73
594.85	51084.53
595.05	52026.60
595.24	51725.55
595.44	51713.26
595.64	51496.17
595.84	51952.87
596.04	52077.80
596.23	52239.59
596.43	51721.45
596.63	51291.38
596.83	52112.61
597.03	51733.74
597.22	52280.55
597.42	52032.74
597.62	52569.31
597.82	52430.05
598.02	52145.38
598.21	52614.37
598.41	52065.51
598.61	52403.42
598.81	52499.68
599.01	52569.31
599.20	52200.68
599.40	52718.81
599.60	52729.05
599.80	52677.85
600.00	52645.08
600.19	52806.87
600.39	52931.80
600.59	53468.37
600.79	52817.11
600.98	52843.74
601.18	53472.46
601.38	53175.51
601.58	53406.93
601.78	53271.76
601.97	53388.50
602.17	53458.13
602.37	53146.84
602.57	53621.97
602.76	53581.01
602.96	53079.25
603.16	53638.35
603.36	53517.52
603.55	53697.74
603.75	53855.43
603.95	54006.98
604.15	53941.45
604.34	54004.94
604.54	53943.50
604.74	53949.64
604.94	53638.35
605.13	53804.24
605.33	53597.39
605.53	53802.19
605.73	54138.05
605.92	54246.60
606.12	54191.30
606.32	54244.55
606.52	53566.67
606.71	54234.31
606.91	54353.09
607.11	54006.98
607.30	54686.91
607.50	54441.15
607.70	54402.24
607.90	54762.68
608.09	54314.18
608.29	54498.50
608.49	54566.08
608.68	54461.63
608.88	54744.25
609.08	54774.97
609.28	54359.23
609.47	54228.16
609.67	54703.29
609.87	54834.36
610.06	54613.18
610.26	54617.28
610.46	54711.49
610.66	54805.69
610.85	54879.42
611.05	54418.63
611.25	54951.10
611.44	54738.11
611.64	54844.60
611.84	54658.24
612.03	54713.53
612.23	54903.99
612.43	54990.01
612.62	54785.21
612.82	55082.17
613.02	55073.98
613.21	55295.16
613.41	54463.68
613.61	54981.82
613.80	54756.54
614.00	55049.40
614.20	55065.78
614.39	54885.56
614.59	54916.28
614.79	54953.15
614.98	55180.47
615.18	54860.99
615.38	54877.37
615.57	54658.24
615.77	55426.23
615.97	54842.56
616.16	54998.20
616.36	55299.25
616.56	55039.16
616.75	54912.19
616.95	54748.35
617.15	54697.15
617.34	54664.38
617.54	54977.72
617.74	55186.61
617.93	54881.47
618.13	54801.60
618.32	54846.65
618.52	54695.10
618.72	54830.27
618.91	54883.51
619.11	54764.73
619.31	55110.84
619.50	54895.80
619.70	54662.33
619.90	54693.05
620.09	54629.57
620.29	54580.42
620.48	55071.93
620.68	55137.46
620.88	54439.11
621.07	55149.75
621.27	54674.62
621.46	54402.24
621.66	54527.17
621.86	54734.01
622.05	54254.79
622.25	55356.60
622.44	54269.12
622.64	54471.87
622.84	54957.24
623.03	54439.11
623.23	54674.62
623.42	54310.08
623.62	54373.57
623.82	54770.88
624.01	54658.24
624.21	54310.08
624.40	54301.89
624.60	54461.63
624.80	54238.40
624.99	54359.23
625.19	53843.15
625.38	54639.81
625.58	54613.18
625.77	54822.08
625.97	54310.08
626.17	54621.37
626.36	54523.07
626.56	54527.17
626.75	53910.73
626.95	54582.46
627.14	54256.84
627.34	54834.36
627.54	54199.49
627.73	54293.70
627.93	54580.42
628.12	54281.41
628.32	54285.51
628.51	54752.44
628.71	54502.59
628.90	54432.96
629.10	54113.48
629.30	54228.16
629.49	54330.56
629.69	54172.87
629.88	54367.43
630.08	54654.14
630.27	54332.61
630.47	54068.42
630.66	54170.82
630.86	54621.37
631.05	53994.70
631.25	54736.06
631.44	54478.02
631.64	54572.22
631.84	54545.60
632.03	54609.09
632.23	54310.08
632.42	54930.62
632.62	54502.59
632.81	54027.46
633.01	54197.44
633.20	54777.02
633.40	54424.77
633.59	54363.33
633.79	53775.56
633.98	54416.58
634.18	54817.98
634.37	54535.36
634.57	54404.29
634.76	54508.74
634.96	54549.70
635.15	54740.16
635.35	54222.02
635.54	54193.35
635.74	54424.77
635.93	54095.05
636.13	54623.42
636.32	54267.08
636.52	54260.93
636.71	54127.81
636.91	54512.83
637.10	54596.80
637.30	54424.77
637.49	54805.69
637.69	54465.73
637.88	54920.38
638.08	53861.58
638.27	54865.08
638.46	54121.67
638.66	54320.32
638.85	54371.52
639.05	54734.01
639.24	54496.45
639.44	54369.47
639.63	54170.82
639.83	54490.30
640.02	54494.40
640.22	54658.24
640.41	54408.39
640.61	54041.80
640.80	54850.75
640.99	54572.22
641.19	55184.57
641.38	54586.56
641.58	54863.03
641.77	54465.73
641.97	54725.82
642.16	54353.09
642.36	54754.49
642.55	54875.32
642.74	54666.43
642.94	55067.83
643.13	54490.30
643.33	55116.98
643.52	55049.40
643.72	55268.53
643.91	54578.37
644.10	54664.38
644.30	55073.98
644.49	54801.60
644.69	55137.46
644.88	54664.38
645.08	54725.82
645.27	55057.59
645.46	54531.26
645.66	54668.48
645.85	54908.09
646.05	55227.57
646.24	54975.67
646.43	55340.21
646.63	55827.63
646.82	55188.66
647.02	54729.92
647.21	55264.44
647.40	55030.97
647.60	55395.51
647.79	55321.78
647.99	55297.20
648.18	54875.32
648.37	55669.93
648.57	55542.96
648.76	55170.23
648.96	54934.71
649.15	55512.24
649.34	55614.64
649.54	55637.17
649.73	55203.00
649.92	55473.33
650.12	55921.83
650.31	56136.87
650.51	55628.98
650.70	55866.54
650.89	55807.15
651.09	56212.65
651.28	55540.91
651.47	55737.52
651.67	55458.99
651.86	55997.61
652.06	55377.08
652.25	55575.73
652.44	55352.50
652.64	55104.70
652.83	55934.12
653.02	55479.47
653.22	56128.68
653.41	55362.74
653.60	55608.50
653.80	55563.44
653.99	55780.52
654.18	55596.21
654.38	55514.29
654.57	55706.80
654.76	55760.05
654.96	55555.25
655.15	55502.00
655.34	55444.66
655.54	55704.75
655.73	55665.84
655.92	56194.21
656.12	55891.12
656.31	55895.21
656.50	55909.55
656.70	55794.86
656.89	55882.92
657.08	56100.01
657.28	56370.34
657.47	56054.95
657.66	56315.04
657.86	56059.05
658.05	56018.09
658.24	56120.49
658.43	55641.26
658.63	55858.35
658.82	56255.65
659.01	56020.14
659.21	56442.02
659.40	56102.06
659.59	56315.04
659.79	56482.98
659.98	56876.19
660.17	56990.87
660.36	56278.18
660.56	56020.14
660.75	56501.41
660.94	56489.12
661.14	56528.03
661.33	56718.49
661.52	55823.53
661.71	56986.78
661.91	56081.58
662.10	55999.66
662.29	56523.94
662.49	56468.64
662.68	56419.49
662.87	56497.31
663.06	56726.69
663.26	56169.64
663.45	56663.20
663.64	56341.67
663.83	56663.20
664.03	56980.63
664.22	56589.47
664.41	56538.27
664.60	56736.93
664.80	56562.85
664.99	56382.63
665.18	56474.79
665.37	56374.44
665.57	56751.26
665.76	56603.81
665.95	56634.53
666.14	56349.86
666.34	56837.28
666.53	56491.17
666.72	56552.61
666.91	56444.07
667.11	56276.13
667.30	56722.59
667.49	56689.82
667.68	56927.39
667.87	56972.44
668.07	57005.21
668.26	56575.14
668.45	56800.41
668.64	56747.17
668.84	57328.79
669.03	57187.48
669.22	56677.54
669.41	56990.87
669.60	56954.01
669.80	56589.47
669.99	56923.29
670.18	56829.08
670.37	57072.79
670.57	56812.70
670.76	56718.49
670.95	57369.75
671.14	56722.59
671.33	56648.86
671.53	57773.20
671.72	57138.33
671.91	57132.18
672.10	56851.61
672.29	56732.83
672.48	56698.01
672.68	57347.22
672.87	56970.39
673.06	57136.28
673.25	56947.87
673.44	57291.93
673.64	57021.59
673.83	57085.08
674.02	56792.22
674.21	56681.63
674.40	56704.16
674.59	56845.47
674.79	56868.00
674.98	56399.01
675.17	57187.48
675.36	56751.26
675.55	57068.70
675.74	56923.29
675.94	57078.94
676.13	57087.13
676.32	56956.06
676.51	57396.37
676.70	57136.28
676.89	57275.54
677.08	57236.63
677.28	56556.70
677.47	57402.52
677.66	57349.27
677.85	57052.31
678.04	56939.68
678.23	57549.97
678.42	57369.75
678.62	57009.31
678.81	57463.96
679.00	56972.44
679.19	57687.18
679.38	57787.53
679.57	57250.97
679.76	57222.29
679.96	57263.25
680.15	56982.68
680.34	56947.87
680.53	56970.39
680.72	56908.96
680.91	57310.36
681.10	56890.52
681.29	57463.96
681.48	57212.06
681.68	56761.50
681.87	56915.10
682.06	57091.22
682.25	56876.19
682.44	56706.21
682.63	57300.12
682.82	57064.60
683.01	56614.05
683.20	56616.10
683.39	57072.79
683.59	56919.20
683.78	56614.05
683.97	57023.64
684.16	56859.80
684.35	56650.91
684.54	57083.03
684.73	56814.75
684.92	56525.99
685.11	56554.66
685.30	56906.91
685.49	56845.47
685.69	56861.85
685.88	56800.41
686.07	56757.41
686.26	56634.53
686.45	56736.93
686.64	57072.79
686.83	56800.41
687.02	56997.02
687.21	57158.81
687.40	56554.66
687.59	56743.07
687.78	56898.72
687.97	57635.98
688.16	56997.02
688.35	56712.35
688.54	57185.43
688.74	57005.21
688.93	56609.95
689.12	56972.44
689.31	56788.13
689.50	56589.47
689.69	56427.68
689.88	56548.51
690.07	56767.65
690.26	56636.58
690.45	56804.51
690.64	56894.62
690.83	56706.21
691.02	56521.89
691.21	56235.17
691.40	56517.79
691.59	56923.29
691.78	56462.50
691.97	56822.94
692.16	56585.38
692.35	56992.92
692.54	56646.82
692.73	56345.76
692.92	56413.35
693.11	56214.69
693.30	56472.74
693.49	56652.96
693.68	56114.34
693.87	56278.18
694.06	55927.98
694.25	55813.29
694.44	56018.09
694.63	56564.90
694.82	56276.13
695.01	56157.35
695.20	56128.68
695.39	56110.25
695.58	55944.36
695.77	55815.34
695.96	55794.86
696.15	55741.61
696.34	55821.48
696.53	56392.87
696.72	56419.49
696.91	56032.42
697.10	55911.59
697.29	55698.61
697.48	56509.60
697.67	55647.41
697.86	55551.15
698.05	55717.04
698.24	56337.57
698.43	55585.97
698.62	55901.36
698.81	55334.07
699.00	55915.69
699.19	55575.73
699.38	55899.31
699.57	55534.77
699.76	56353.96
699.95	55751.85
700.14	55620.78
700.32	55465.14
700.51	55493.81
700.70	56071.34
700.89	55661.74
701.08	55352.50
701.27	55065.78
701.46	55704.75
701.65	54969.53
701.84	55538.86
702.03	55588.02
702.22	55090.36
702.41	55024.82
702.60	55508.14
702.79	55450.80
702.98	54795.45
703.17	54973.63
703.35	55014.58
703.54	55049.40
703.73	55741.61
703.92	55071.93
704.11	54957.24
704.30	54820.03
704.49	54764.73
704.68	54506.69
704.87	54846.65
705.06	54486.21
705.25	54660.29
705.43	55067.83
705.62	54666.43
705.81	54262.98
706.00	54686.91
706.19	54377.67
706.38	54418.63
706.57	54713.53
706.76	54361.28
706.95	54588.61
707.14	54392.00
707.32	54203.59
707.51	54457.54
707.70	54287.56
707.89	54473.92
708.08	54334.66
708.27	54793.40
708.46	55055.54
708.65	54293.70
708.84	54262.98
709.02	54527.17
709.21	54252.74
709.40	54365.38
709.59	54367.43
709.78	53818.57
709.97	54623.42
710.16	54277.32
710.34	53806.28
710.53	53986.50
710.72	53712.08
710.91	54201.54
711.10	54142.15
711.29	54238.40
711.48	53794.00
711.66	53789.90
711.85	53423.31
712.04	53646.54
712.23	54170.82
712.42	53652.69
712.61	53628.11
712.80	53640.40
712.98	53787.85
713.17	53404.88
713.36	53771.47
713.55	53087.45
713.74	52993.24
713.93	53576.91
714.11	53007.58
714.30	52794.59
714.49	53103.83
714.68	53288.15
714.87	53339.35
715.06	53585.10
715.24	52745.44
715.43	53138.65
715.62	53130.45
715.81	52571.36
716.00	52929.75
716.18	52554.97
716.37	52614.37
716.56	52417.76
716.75	53339.35
716.94	52739.29
717.12	52679.90
717.31	52536.54
717.50	52475.10
717.69	52411.62
717.88	52550.88
718.06	52483.30
718.25	52528.35
718.44	52090.09
718.63	52602.08
718.82	52004.07
719.00	52268.26
719.19	51866.86
719.38	52116.71
719.57	51469.55
719.76	51877.10
719.94	51133.68
720.13	51447.02
720.32	51451.12
720.51	51307.76
720.69	51500.27
720.88	51442.93
721.07	51950.82
721.26	51033.33
721.44	51102.96
721.63	51092.72
721.82	50341.12
722.01	50842.87
722.20	51250.42
722.38	51172.60
722.57	50406.65
722.76	50994.42
722.95	51123.44
723.13	50191.62
723.32	50369.79
723.51	50341.12
723.70	50468.09
723.88	50377.98
724.07	50404.61
724.26	50445.57
724.44	49988.87
724.63	50113.80
724.82	50158.85
725.01	49835.27
725.19	50144.51
725.38	49990.92
725.57	49861.90
725.76	49956.10
725.94	49849.61
726.13	49822.98
726.32	49763.59
726.51	49499.40
726.69	50144.51
726.88	49683.72
727.07	49472.78
727.25	49681.67
727.44	49816.84
727.63	49542.41
727.82	49757.45
728.00	49235.22
728.19	49370.38
728.38	49687.82
728.56	49210.64
728.75	49923.33
728.94	49446.16
729.12	49757.45
729.31	49716.49
729.50	49071.38
729.69	49702.15
729.87	49034.52
730.06	49075.48
730.25	49460.49
730.43	49558.80
730.62	49343.76
730.81	49650.95
730.99	49653.00
731.18	49093.91
731.37	49321.23
731.55	49300.75
731.74	49501.45
731.93	49624.33
732.11	49233.17
732.30	49159.44
732.49	48821.53
732.67	49020.18
732.86	49024.28
733.05	48880.92
733.23	49009.94
733.42	49231.12
733.61	49118.48
733.79	49091.86
733.98	49005.84
734.17	49073.43
734.35	48674.07
734.54	49089.81
734.73	49022.23
734.91	49046.80
735.10	48581.91
735.29	48913.69
735.47	48659.74
735.66	48878.87
735.84	48915.73
736.03	48534.81
736.22	49046.80
736.40	48387.36
736.59	48645.40
736.78	48362.78
736.96	48268.58
737.15	48274.72
737.33	48178.46
737.52	48979.22
737.71	48418.08
737.89	48291.10
738.08	48164.13
738.27	48125.22
738.45	48289.06
738.64	48287.01
738.82	48133.41
739.01	48135.46
739.20	48352.54
739.38	48162.08
739.57	48295.20
739.75	47979.81
739.94	47719.72
740.13	47680.81
740.31	47924.52
740.50	47936.80
740.68	47996.20
740.87	47748.39
741.06	48237.86
741.24	47584.55
741.43	47164.72
741.61	47478.06
741.80	47275.31
741.99	47406.38
742.17	47439.15
742.36	47445.29
742.54	47490.35
742.73	46568.76
742.91	47678.76
743.10	47228.21
743.29	47527.21
743.47	47519.02
743.66	47334.70
743.84	47291.69
744.03	47177.01
744.21	47058.23
744.40	47371.57
744.59	46486.84
744.77	47078.71
744.96	47043.89
745.14	47021.36
745.33	47244.59
745.51	47086.90
745.70	47328.56
745.88	46648.63
746.07	46716.22
746.26	46429.50
746.44	46472.51
746.63	47004.98
746.81	46464.32
747.00	46007.62
747.18	46488.89
747.37	46462.27
747.55	46392.64
747.74	47101.23
747.92	46337.34
748.11	46873.91
748.29	46208.32
748.48	46345.53
748.66	45972.80
748.85	46249.28
749.03	46105.92
749.22	45897.03
749.41	45821.25
749.59	45782.34
749.78	45813.06
749.96	45395.28
750.15	45759.81
750.33	45821.25
750.52	45776.20
750.70	45571.40
750.89	45380.94
751.07	45407.56
751.26	45645.13
751.44	45194.57
751.63	45557.06
751.81	45489.48
752.00	45170.00
752.18	45587.78
752.37	45370.70
752.55	44868.95
752.74	45202.77
752.92	45028.69
753.10	44991.83
753.29	45229.39
753.47	44987.73
753.66	44920.15
753.84	44678.49
754.03	44860.76
754.21	44459.35
754.40	45008.21
754.58	44741.97
754.77	44983.63
754.95	44668.25
755.14	44520.79
755.32	44277.08
755.51	44385.63
755.69	44348.76
755.88	44006.75
756.06	44557.66
756.24	44436.83
756.43	44232.03
756.61	44135.77
756.80	44385.63
756.98	44062.05
757.17	43898.21
757.35	44207.45
757.54	43961.70
757.72	44205.41
757.90	43578.73
758.09	43566.44
758.27	43947.36
758.46	43859.30
758.64	43861.35
758.83	44207.45
759.01	44070.24
759.19	43971.94
759.38	43711.84
759.56	43732.32
759.75	43607.40
759.93	43373.93
760.12	43238.76
760.30	43859.30
760.48	43324.78
760.67	43634.02
760.85	43586.92
761.04	43582.82
761.22	43267.44
761.40	43349.35
761.59	42823.03
761.77	43046.26
761.96	43154.80
762.14	43103.60
762.32	43175.28
762.51	42841.46
762.69	42788.21
762.88	42603.89
763.06	42710.39
763.24	42947.95
763.43	43085.17
763.61	42542.45
763.80	42513.78
763.98	43036.02
764.16	42417.53
764.35	42419.58
764.53	41999.74
764.72	42698.10
764.90	42243.45
765.08	42671.48
765.27	42061.18
765.45	42270.08
765.63	42081.66
765.82	42182.01
766.00	42132.86
766.18	41876.86
766.37	42366.33
766.55	41989.50
766.74	42259.84
766.92	41913.73
767.10	41981.31
767.29	41799.04
767.47	41383.30
767.65	41692.55
767.84	41340.30
768.02	41921.92
768.20	41510.28
768.39	41489.80
768.57	41463.18
768.75	41190.80
768.94	41751.94
769.12	41432.46
769.30	40918.42
769.49	41149.84
769.67	40922.51
769.85	40447.38
770.04	40908.18
770.22	40807.83
770.40	40617.36
770.59	40785.30
770.77	40703.38
770.95	40789.39
771.14	40459.67
771.32	40551.83
771.50	40312.22
771.69	40371.61
771.87	40633.75
772.05	40111.52
772.24	40201.63
772.42	40764.82
772.60	40334.74
772.78	39957.92
772.97	39982.49
773.15	40508.82
773.33	40082.84
773.52	40451.48
773.70	39955.87
773.88	40443.29
774.07	39939.49
774.25	40031.65
774.43	40265.11
774.61	40070.56
774.80	40492.44
774.98	39718.31
775.16	40107.42
775.34	40390.04
775.53	39749.03
775.71	40150.43
775.89	40215.96
776.08	39986.59
776.26	40041.88
776.44	40015.26
776.62	40035.74
776.81	40023.45
776.99	40248.73
777.17	40402.33
777.35	40324.50
777.54	40183.19
777.72	40234.39
777.90	40230.30
778.08	40723.86
778.27	40318.36
778.45	40392.09
778.63	40840.59
778.81	40455.57
779.00	40650.13
779.18	40496.53
779.36	40797.59
779.54	40127.90
779.73	40355.22
779.91	40373.66
780.09	40553.88
780.27	40508.82
780.46	40756.63
780.64	40961.42
780.82	40461.72
781.00	40713.62
781.19	40650.13
781.37	40838.54
781.55	40912.27
781.73	41082.25
781.91	40791.44
782.10	40830.35
782.28	41024.91
782.46	40832.40
782.64	41123.21
782.82	40383.90
783.01	40717.71
783.19	41305.48
783.37	41090.44
783.55	41141.64
783.74	40940.94
783.92	40498.58
784.10	40922.51
784.28	40871.31
784.46	40566.16
784.64	40592.79
784.83	41053.58
785.01	41176.46
785.19	40818.07
785.37	41063.82
785.55	41051.53
785.74	40768.91
785.92	40543.64
786.10	40738.19
786.28	41241.99
786.46	40381.85
786.64	40490.39
786.83	40324.50
787.01	40510.87
787.19	40549.78
787.37	40615.32
787.55	40920.46
787.74	40326.55
787.92	40207.77
788.10	40351.13
788.28	40160.67
788.46	40363.42
788.64	40115.61
788.82	40560.02
789.01	40234.39
789.19	40246.68
789.37	40027.55
789.55	40365.46
789.73	39882.14
789.91	39892.38
790.09	39577.00
790.28	39581.09
790.46	39577.00
790.64	39734.69
790.82	39828.90
791.00	39996.83
791.18	39609.76
791.36	39433.64
791.55	39620.00
791.73	39257.51
791.91	39026.09
792.09	39749.03
792.27	39110.06
792.45	39290.28
792.63	38983.09
792.81	38878.64
793.00	38876.59
793.18	38962.61
793.36	38925.74
793.54	38606.26
793.72	38806.96
793.90	38821.30
794.08	38634.93
794.26	38665.65
794.44	38290.87
794.62	38137.27
794.81	38432.18
794.99	38104.51
795.17	38446.52
795.35	37952.96
795.53	38141.37
795.71	37879.23
795.89	37754.30
796.07	37678.53
796.25	37191.11
796.43	37264.84
796.61	37467.59
796.80	37215.69
796.98	37180.87
797.16	37107.15
797.34	37162.44
797.52	36541.91
797.70	37332.42
797.88	37264.84
798.06	36785.61
798.24	36906.44
798.42	37027.28
798.60	36439.51
798.78	36568.53
798.96	36597.20
799.14	36376.02
799.32	36193.75
799.51	36087.26
799.69	36343.25
799.87	36136.41
800.05	35823.07
800.23	35886.56
800.41	35876.32
800.59	35737.05
800.77	35722.72
800.95	35573.22
801.13	35612.13
801.31	35442.15
801.49	35546.59
801.67	35384.80
801.85	35589.60
802.03	34854.38
802.21	35153.38
802.39	34911.72
802.57	35171.82
802.75	34878.96
802.93	35044.84
803.11	34688.49
803.29	34790.89
803.47	34819.56
803.65	34375.16
803.83	34414.07
804.01	34561.52
804.19	33916.41
804.37	34016.76
804.55	34538.99
804.73	34459.12
804.91	33930.75
805.09	34248.18
805.27	33867.26
805.45	34176.50
805.63	34186.74
805.81	33885.69
805.99	33852.92
806.17	33836.54
806.35	33584.64
806.53	33760.76
806.71	33850.88
806.89	33562.11
807.07	33439.23
807.25	33422.85
807.43	33164.81
807.61	33703.42
807.79	33211.91
807.97	33064.46
808.15	33123.85
808.33	32845.32
808.51	32888.33
808.69	32644.62
808.87	32806.41
809.05	32464.40
809.23	32595.47
809.41	32329.23
809.59	32292.37
809.77	32431.63
809.95	32411.15
810.13	32157.21
810.31	32110.10
810.49	32245.27
810.67	32122.39
810.84	32192.02
811.02	32456.21
811.20	32013.85
811.38	32091.67
811.56	31458.85
811.74	31927.83
811.92	31999.51
812.10	31858.20
812.28	32249.36
812.46	31538.72
812.64	31759.90
812.82	31421.98
813.00	31825.43
813.18	31483.42
813.36	31430.18
813.53	31114.79
813.71	31378.98
813.89	31098.41
814.07	31346.21
814.25	31196.71
814.43	31370.79
814.61	30756.39
814.79	30756.39
814.97	31036.97
815.15	31084.07
815.33	30426.67
815.50	30608.94
815.68	30922.28
815.86	30889.51
816.04	30514.73
816.22	30805.55
816.40	30467.63
816.58	30064.18
816.76	30363.18
816.94	30211.64
817.11	29984.31
817.29	30178.87
817.47	30277.17
817.65	29990.45
817.83	30295.60
818.01	30049.85
818.19	29924.92
818.37	29963.83
818.54	29789.75
818.72	29605.44
818.90	29967.93
819.08	29945.40
819.26	29666.88
819.44	29871.67
819.62	29441.60
819.80	29474.37
819.97	29607.48
820.15	29529.66
820.33	29320.77
820.51	29584.96
820.69	29142.60
820.87	29371.97
821.05	29492.80
821.22	29378.11
821.40	29396.54
821.58	29314.62
821.76	28970.57
821.94	29191.75
822.12	29146.69
822.29	29244.99
822.47	28835.40
822.65	29247.04
822.83	28954.18
823.01	28907.08
823.19	28841.54
823.36	28851.78
823.54	28704.33
823.72	28624.46
823.90	28718.67
824.08	28689.99
824.25	28790.34
824.43	28292.69
824.61	28501.58
824.79	28702.28
824.97	28675.66
825.15	28612.17
825.32	28350.03
825.50	28278.35
825.68	28063.32
825.86	28331.60
826.04	28323.41
826.21	28104.28
826.39	28042.84
826.57	27946.58
826.75	28085.84
826.93	27975.25
827.10	28071.51
827.28	28188.24
827.46	27936.34
827.64	27967.06
827.81	27551.32
827.99	27903.57
828.17	27729.50
828.35	27692.63
828.53	27631.19
828.70	27493.98
828.88	27493.98
829.06	27711.07
829.24	27696.73
829.41	27604.57
829.59	27754.07
829.77	27360.86
829.95	27414.11
830.12	27524.70
830.30	27221.60
830.48	27360.86
830.66	27309.66
830.84	27221.60
831.01	27303.52
831.19	27250.27
831.37	26910.31
831.55	27102.82
831.72	27080.29
831.90	27250.27
832.08	27078.24
832.25	27088.48
832.43	26857.06
832.61	26783.34
832.79	26715.75
832.96	26793.58
833.14	26617.45
833.32	27094.63
833.50	26941.03
833.67	26738.28
833.85	26943.08
834.03	26316.40
834.20	26920.55
834.38	26625.64
834.56	26715.75
834.74	26410.60
834.91	26711.66
835.09	26433.13
835.27	26138.23
835.44	26322.54
835.62	25851.51
835.80	26234.48
835.98	26347.12
836.15	26121.84
836.33	26093.17
836.51	26539.63
836.68	25949.81
836.86	26230.38
837.04	26252.91
837.21	26168.94
837.39	26170.99
837.57	26248.82
837.75	26136.18
837.92	26013.30
838.10	26025.59
838.28	25675.38
838.45	25996.92
838.63	25550.46
838.81	26105.46
838.98	25855.61
839.16	25777.78
839.34	25503.35
839.51	25671.29
839.69	25413.24
839.87	25652.86
840.04	25427.58
840.22	25720.44
840.40	25822.84
840.57	25241.21
840.75	25564.79
840.93	25067.14
841.10	25462.40
841.28	25765.49
841.46	25407.10
841.63	25460.35
841.81	24999.55
841.98	25054.85
842.16	25331.33
842.34	25187.97
842.51	24772.23
842.69	25343.61
842.87	25214.59
843.04	25202.30
843.22	24815.24
843.40	24884.87
843.57	24897.16
843.75	24882.82
843.92	24927.88
844.10	25321.09
844.28	24979.07
844.45	25011.84
844.63	24778.37
844.81	24872.58
844.98	24776.33
845.16	24854.15
845.33	24657.54
845.51	24827.53
845.69	24512.14
845.86	24532.62
846.04	24839.81
846.21	24206.99
846.39	24323.72
846.57	24106.64
846.74	24354.44
846.92	24426.12
847.09	23895.70
847.27	24123.02
847.45	24190.61
847.62	24454.79
847.80	24374.92
847.97	24385.16
848.15	24147.60
848.32	24192.65
848.50	24090.26
848.68	24026.77
848.85	24166.03
849.03	23836.31
849.20	24059.54
849.38	24053.39
849.56	24014.48
849.73	24037.01
849.91	23725.72
850.08	24176.27
850.26	23721.62
850.43	23830.16
850.61	23666.33
850.78	23547.54
850.96	23942.80
851.14	23518.87
851.31	23994.00
851.49	23498.39
851.66	23666.33
851.84	23570.07
852.01	23688.85
852.19	23795.35
852.36	23365.28
852.54	23701.14
852.71	23336.60
852.89	23486.11
853.07	23508.63
853.24	23545.50
853.42	23654.04
853.59	23240.35
853.77	23385.76
853.94	23430.81
854.12	23819.92
854.29	22879.91
854.47	23215.77
854.64	23279.26
854.82	23248.54
854.99	23221.92
855.17	23131.81
855.34	23183.01
855.52	23553.69
855.69	23275.16
855.87	22683.30
856.04	22927.01
856.22	22978.21
856.39	22699.69
856.57	22875.81
856.74	22929.06
856.92	23101.09
857.09	22722.21
857.27	22910.63
857.44	22976.16
857.62	22754.98
857.79	22677.16
857.97	22931.11
858.14	22482.60
858.32	22920.87
858.49	22599.34
858.67	22435.50
858.84	22474.41
859.02	22671.01
859.19	22486.70
859.37	22525.61
859.54	22316.72
859.72	22673.06
859.89	22318.76
860.06	22744.74
860.24	22437.55
860.41	22369.96
860.59	22228.65
860.76	22236.84
860.94	22206.13
861.11	22316.72
861.29	22101.68
861.46	22034.10
861.64	21794.48
861.81	22003.38
861.98	21739.19
862.16	21784.24
862.33	21708.47
862.51	21999.28
862.68	22038.19
862.86	21601.97
863.03	22015.66
863.21	21802.68
863.38	21665.46
863.55	21616.31
863.73	21935.79
863.90	21776.05
864.08	21790.39
864.25	21585.59
864.43	21690.04
864.60	21649.08
864.77	21509.82
864.95	21587.64
865.12	21350.07
865.30	21307.07
865.47	21386.94
865.64	21282.49
865.82	21671.61
865.99	21431.99
866.17	21163.71
866.34	21423.80
866.51	21208.76
866.69	21425.85
866.86	21391.03
867.04	21237.44
867.21	21202.62
867.38	21163.71
867.56	20774.60
867.73	20960.96
867.91	20928.19
868.08	20938.43
868.25	20694.72
868.43	20715.20
868.60	20821.70
868.78	20598.47
868.95	21036.74
869.12	20596.42
869.30	20510.41
869.47	20637.38
869.64	20414.15
869.82	20682.44
869.99	20393.67
870.16	20805.31
870.34	20623.05
870.51	20729.54
870.69	20385.48
870.86	20539.08
871.03	20760.26
871.21	20463.30
871.38	20360.91
871.55	20512.46
871.73	20002.51
871.90	20096.72
872.07	20211.40
872.25	20109.01
872.42	20111.05
872.59	19764.95
872.77	20031.18
872.94	20248.27
873.11	19660.50
873.29	20139.72
873.46	19820.24
873.63	19762.90
873.81	19992.27
873.98	19721.94
874.15	19752.66
874.33	19322.59
874.50	19517.14
874.67	19525.33
874.85	19685.08
875.02	19322.59
875.19	19191.52
875.37	19322.59
875.54	19306.20
875.71	19304.15
875.88	19150.56
876.06	19271.39
876.23	18935.52
876.40	19269.34
876.58	19209.95
876.75	18882.27
876.92	19072.73
877.10	19230.43
877.27	18958.05
877.44	18788.07
877.61	18720.48
877.79	18771.68
877.96	18599.65
878.13	18835.17
878.31	18728.67
878.48	18560.74
878.65	18573.03
878.82	18509.54
879.00	18421.48
879.17	18755.30
879.34	18550.50
879.51	18439.91
879.69	18261.74
879.86	18441.96
880.03	18503.40
880.21	18327.27
880.38	18073.32
880.55	18507.49
880.72	18228.97
880.90	18368.23
881.07	18212.59
881.24	18163.43
881.41	18120.43
881.59	18308.84
881.76	18087.66
881.93	18056.94
882.10	18034.41
882.28	17624.82
882.45	18007.79
882.62	18024.17
882.79	18396.90
882.96	17770.22
883.14	17755.89
883.31	17751.79
883.48	17848.05
883.65	17792.75
883.83	17737.46
884.00	17630.96
884.17	17526.52
884.34	17925.87
884.51	17628.92
884.69	17655.54
884.86	17473.27
885.03	17397.49
885.20	17477.37
885.38	17516.28
885.55	17227.51
885.72	17489.65
885.89	17452.79
886.06	17391.35
886.24	17354.49
886.41	17544.95
886.58	17329.91
886.75	17395.45
886.92	17258.23
887.10	17364.73
887.27	17088.25
887.44	17157.88
887.61	17254.14
887.78	17526.52
887.95	17088.25
888.13	16987.90
888.30	17213.18
888.47	16969.47
888.64	17262.33
888.81	17030.91
888.99	16791.30
889.16	16830.21
889.33	17061.63
889.50	16815.87
889.67	17014.52
889.84	16666.37
890.01	16660.23
890.19	16809.73
890.36	16897.79
890.53	16656.13
890.70	16643.84
890.87	16697.09
891.04	16631.55
891.22	16506.63
891.39	16760.58
891.56	16418.57
891.73	16527.11
891.90	16219.91
892.07	16477.96
892.24	16500.48
892.42	16318.22
892.59	16424.71
892.76	16121.61
892.93	16224.01
893.10	16285.45
893.27	16205.58
893.44	16209.67
893.61	16336.65
893.79	16371.46
893.96	16226.06
894.13	16148.23
894.30	16244.49
894.47	16060.17
894.64	16273.16
894.81	16047.88
894.98	16191.24
895.15	16031.50
895.33	16025.36
895.50	16043.79
895.67	16166.67
895.84	16000.78
896.01	16099.08
896.18	15906.57
896.35	16189.19
896.52	16146.19
896.69	15814.41
896.86	16072.46
897.04	16203.53
897.21	15687.44
897.38	15882.00
897.55	15988.49
897.72	15927.05
897.89	15922.96
898.06	16252.68
898.23	15765.26
898.40	15965.96
898.57	15916.81
898.74	15777.55
898.91	16062.22
899.08	15879.95
899.26	16035.60
899.43	15961.87
899.60	15732.50
899.77	15765.26
899.94	15879.95
900.11	15845.13
900.28	15732.50
900.45	15879.95
900.62	15525.65
900.79	15873.81
900.96	15982.35
901.13	15810.32
901.30	15906.57
901.47	15716.11
901.64	15687.44
901.81	15568.66
901.98	15709.97
902.15	15814.41
902.32	15720.21
902.49	15824.65
902.66	15810.32
902.83	15759.12
903.01	15845.13
903.18	15722.26
903.35	15787.79
903.52	15656.72
903.69	15560.47
903.86	15582.99
904.03	15550.23
904.20	15927.05
904.37	15781.65
904.54	15480.60
904.71	15580.95
904.88	15865.61
905.05	15636.24
905.22	15734.54
905.39	15523.60
905.56	15386.39
905.73	15445.78
905.90	15603.47
906.07	15537.94
906.24	15734.54
906.41	15449.88
906.58	15572.75
906.75	15589.14
906.92	15410.96
907.09	15558.42
907.26	15671.06
907.43	15537.94
907.60	15470.36
907.77	15630.10
907.93	15673.10
908.10	15615.76
908.27	15419.16
908.44	15687.44
908.61	15343.38
908.78	15775.50
908.95	15671.06
909.12	15548.18
909.29	15494.93
909.46	15460.12
909.63	15480.60
909.80	15505.17
909.97	15550.23
910.14	15484.69
910.31	15474.45
910.48	15456.02
910.65	15296.28
910.82	15300.37
910.99	15283.99
911.16	15257.37
911.33	15286.04
911.50	15486.74
911.66	15132.44
911.83	15580.95
912.00	15132.44
912.17	15134.49
912.34	15007.52
912.51	15122.20
912.68	15079.19
912.85	15001.37
913.02	15001.37
913.19	15126.30
913.36	15048.47
913.53	14884.64
913.70	14825.25
913.86	14968.60
914.03	14958.36
914.20	14649.12
914.37	14821.15
914.54	14835.49
914.71	14741.28
914.88	14638.88
915.05	14800.67
915.22	14571.30
915.39	14475.04
915.55	14671.65
915.72	14602.02
915.89	14573.35
916.06	14489.38
916.23	14282.53
916.40	14634.78
916.57	14178.09
916.74	14399.27
916.91	14135.08
917.07	14186.28
917.24	14110.50
917.41	14112.55
917.58	14059.31
917.75	13965.10
917.92	13819.69
918.09	13977.39
918.26	14075.69
918.42	13903.66
918.59	13864.75
918.76	13793.07
918.93	13801.26
919.10	13557.55
919.27	13705.01
919.44	13803.31
919.60	13770.54
919.77	13592.37
919.94	13543.22
920.11	13614.90
920.28	13442.87
920.45	13547.31
920.61	13162.30
920.78	13498.16
920.95	13428.53
921.12	13117.24
921.29	13117.24
921.46	13502.26
921.62	12932.92
921.79	13084.47
921.96	13150.01
922.13	12887.87
922.30	12941.11
922.47	12824.38
922.63	12775.23
922.80	12914.49
922.97	12658.49
923.14	12799.80
923.31	12764.99
923.47	12455.75
923.64	12830.52
923.81	12621.63
923.98	12394.31
924.15	12351.30
924.32	12556.10
924.48	12644.16
924.65	12386.12
924.82	12369.73
924.99	12154.69
925.15	12132.17
925.32	12177.22
925.49	11956.04
925.66	12103.50
925.83	11947.85
925.99	11935.56
926.16	11820.88
926.33	12052.30
926.50	11499.34
926.67	11988.81
926.83	11843.40
927.00	11773.77
927.17	11614.03
927.34	11513.68
927.50	11464.53
927.67	11607.89
927.84	11444.05
928.01	11482.96
928.17	11358.03
928.34	11304.79
928.51	11304.79
928.68	11208.53
928.84	11120.47
929.01	11222.87
929.18	11059.03
929.35	10934.11
929.51	10856.28
929.68	10770.27
929.85	10946.39
930.02	10739.55
930.18	10798.94
930.35	10563.42
930.52	10719.07
930.69	10805.08
930.85	10598.24
931.02	10356.58
931.19	10567.52
931.36	10377.06
931.52	10581.85
931.69	10573.66
931.86	10211.17
932.02	10477.41
932.19	10143.59
932.36	10129.25
932.53	10061.67
932.69	9879.40
932.86	10162.02
933.03	10073.96
933.19	9766.76
933.36	9766.76
933.53	10063.72
933.70	9721.71
933.86	9607.02
934.03	9709.42
934.20	9496.43
934.36	9506.67
934.53	9326.45
934.70	9443.18
934.86	9412.46
935.03	9168.76
935.20	9111.41
935.36	9203.57
935.53	9013.11
935.70	9062.26
935.86	9148.28
936.03	8660.86
936.20	8630.14
936.36	8812.41
936.53	8689.53
936.70	8603.52
936.86	8777.59
937.03	8488.83
937.20	8294.27
937.36	8427.39
937.53	8134.53
937.70	8025.99
937.86	8046.47
938.03	7946.12
938.20	7991.17
938.36	7915.40
938.53	7704.46
938.70	7542.67
938.86	7604.11
939.03	7301.01
939.20	7323.54
939.36	7323.54
939.53	7112.60
939.70	7382.93
939.86	7026.58
940.03	6844.31
940.19	6981.53
940.36	6735.77
940.53	6676.38
940.69	6543.26
940.86	6676.38
941.03	6567.84
941.19	6545.31
941.36	6467.49
941.52	6371.23
941.69	6244.26
941.86	6342.56
942.02	6180.77
942.19	6133.67
942.35	6178.72
942.52	6078.37
942.69	6148.00
942.85	5881.77
943.02	5918.63
943.18	5887.91
943.35	5812.14
943.52	5695.40
943.68	5746.60
943.85	5738.41
944.01	5660.59
944.18	5597.10
944.35	5777.32
944.51	5539.76
944.68	5601.19
944.84	5466.03
945.01	5447.60
945.17	5511.08
945.34	5525.42
945.51	5568.43
945.67	5384.11
945.84	5416.88
946.00	5343.15
946.17	5406.64
946.33	5263.28
946.50	5283.76
946.67	5388.21
946.83	5306.29
947.00	5423.02
947.16	5359.53
947.33	5332.91
947.49	5328.81
947.66	5238.70
947.82	5365.68
947.99	5199.79
948.16	5275.57
948.32	5195.70
948.49	5361.58
948.65	5470.12
948.82	5459.88
948.98	5242.80
949.15	5250.99
949.31	5220.27
949.48	5394.35
949.64	5212.08
949.81	5357.49
949.97	5255.09
950.14	5410.73
950.30	5210.03
950.47	5369.77
950.63	5197.74
950.80	5404.59
950.96	5330.86
951.13	5390.25
951.30	5236.66
951.46	5312.43
951.63	5568.43
951.79	5351.34
951.96	5431.21
952.12	5322.67
952.29	5480.36
952.45	5246.90
952.62	5402.54
952.78	5463.98
952.94	5322.67
953.11	5210.03
953.27	5339.05
953.44	5437.36
953.60	5343.15
953.77	5476.27
953.93	5279.66
954.10	5435.31
954.26	5359.53
954.43	5365.68
954.59	5535.66
954.76	5490.60
954.92	5318.57
955.09	5365.68
955.25	5416.88
955.42	5558.19
955.58	5490.60
955.75	5420.97
955.91	5339.05
956.07	5339.05
956.24	5552.04
956.40	5410.73
956.57	5502.89
956.73	5353.39
956.90	5455.79
957.06	5455.79
957.23	5324.72
957.39	5382.06
957.56	5484.46
957.72	5455.79
957.88	5490.60
958.05	5500.84
958.21	5525.42
958.38	5447.60
958.54	5310.38
958.71	5468.08
958.87	5349.29
959.03	5410.73
959.20	5509.04
959.36	5414.83
959.53	5361.58
959.69	5369.77
959.85	5496.75
960.02	5492.65
960.18	5566.38
960.35	5414.83
960.51	5431.21
960.68	5443.50
960.84	5328.81
961.00	5357.49
961.17	5439.40
961.33	5357.49
961.50	5425.07
961.66	5502.89
961.82	5328.81
961.99	5449.64
962.15	5382.06
962.31	5320.62
962.48	5382.06
962.64	5382.06
962.81	5425.07
962.97	5300.14
963.13	5371.82
963.30	5521.32
963.46	5347.25
963.62	5414.83
963.79	5427.12
963.95	5345.20
964.12	5257.14
964.28	5347.25
964.44	5369.77
964.61	5322.67
964.77	5341.10
964.93	5433.26
965.10	5298.10
965.26	5238.70
965.42	5224.37
965.59	5179.31
965.75	5271.47
965.92	5300.14
966.08	5267.38
966.24	5343.15
966.41	5128.11
966.57	5255.09
966.73	5210.03
966.90	5236.66
967.06	5363.63
967.22	5369.77
967.39	5326.77
967.55	5103.54
967.71	5300.14
967.88	5144.50
968.04	5138.35
968.20	5029.81
968.37	5126.07
968.53	5081.01
968.69	5103.54
968.85	5175.22
969.02	5154.74
969.18	5074.87
969.34	5046.20
969.51	5121.97
969.67	5164.98
969.83	5081.01
970.00	5138.35
970.16	5062.58
970.32	4966.32
970.48	5040.05
970.65	4970.42
970.81	4892.60
970.97	5011.38
971.14	4964.28
971.30	4874.17
971.46	4997.04
971.63	4984.76
971.79	5072.82
971.95	4931.51
972.11	4884.41
972.28	4900.79
972.44	4999.09
972.60	4759.48
972.76	4908.98
972.93	4898.74
973.09	4878.26
973.25	4911.03
973.42	4892.60
973.58	4855.73
973.74	4876.21
973.90	4865.97
974.07	4863.93
974.23	4894.65
974.39	4794.29
974.55	4812.73
974.72	4712.38
974.88	4736.95
975.04	4863.93
975.20	4863.93
975.37	4798.39
975.53	4779.96
975.69	4818.87
975.85	4634.55
976.01	4718.52
976.18	4777.91
976.34	4704.18
976.50	4736.95
976.66	4695.99
976.83	4702.14
976.99	4607.93
977.15	4587.45
977.31	4468.67
977.47	4605.88
977.64	4517.82
977.80	4507.58
977.96	4564.92
978.12	4540.35
978.29	4468.67
978.45	4523.96
978.61	4591.55
978.77	4573.11
978.93	4364.22
979.10	4628.41
979.26	4505.53
979.42	4427.71
979.58	4464.57
979.74	4448.19
979.91	4460.48
980.07	4435.90
980.23	4503.48
980.39	4255.68
980.55	4306.88
980.71	4296.64
980.88	4353.98
981.04	4278.21
981.20	4407.23
981.36	4530.11
981.52	4286.40
981.68	4372.41
981.85	4444.09
982.01	4306.88
982.17	4333.50
982.33	4204.48
982.49	4421.56
982.65	4263.87
982.82	4188.10
982.98	4220.86
983.14	4177.86
983.30	4302.78
983.46	4313.02
983.62	4282.30
983.79	4120.51
983.95	4177.86
984.11	4110.27
984.27	4192.19
984.43	4245.44
984.59	4171.71
984.75	4239.30
984.91	4181.95
985.08	4140.99
985.24	4014.02
985.40	3960.77
985.56	4132.80
985.72	4093.89
985.88	4024.26
986.04	4075.46
986.20	4036.55
986.37	4024.26
986.53	3915.72
986.69	3932.10
986.85	3876.80
987.01	3973.06
987.17	4003.78
987.33	3938.24
987.49	3952.58
987.65	3895.24
987.82	3989.44
987.98	3966.92
988.14	3854.28
988.30	4026.31
988.46	3917.76
988.62	3936.20
988.78	3958.72
988.94	3794.89
989.10	3741.64
989.26	3792.84
989.42	3758.02
989.59	3637.19
989.75	3803.08
989.91	3815.37
990.07	3686.34
990.23	3712.97
990.39	3817.41
990.55	3837.89
990.71	3684.30
990.87	3768.26
991.03	3782.60
991.19	3706.82
991.35	3712.97
991.51	3833.80
991.67	3706.82
991.83	3768.26
992.00	3686.34
992.16	3715.02
992.32	3661.77
992.48	3727.30
992.64	3489.74
992.80	3686.34
992.96	3729.35
993.12	3647.43
993.28	3704.78
993.44	3663.82
993.60	3694.54
993.76	3588.04
993.92	3551.18
994.08	3702.73
994.24	3612.62
994.40	3563.47
994.56	3596.23
994.72	3444.68
994.88	3565.51
995.04	3502.03
995.20	3424.20
995.36	3379.15
995.52	3542.99
995.68	3502.03
995.84	3330.00
996.00	3590.09
996.16	3483.59
996.32	3321.81
996.48	3481.55
996.64	3424.20
996.80	3432.40
996.96	3416.01
997.12	3389.39
997.28	3317.71
997.44	3309.52
997.60	3356.62
997.76	3289.04
997.92	3559.37
998.08	3375.05
998.24	3141.58
998.40	3284.94
998.56	3420.11
998.72	3319.76
998.88	3254.22
999.04	3231.69
999.20	3246.03
999.36	3342.28
999.52	3278.80
999.68	3375.05
999.84	3395.53
1000.00	3377.10
1000.16	3207.12
1000.32	3289.04
1000.48	3330.00
1000.64	3112.91
1000.80	3135.44
1000.95	3059.67
1001.11	3129.30
1001.27	3108.82
1001.43	3188.69
1001.59	3176.40
1001.75	3112.91
1001.91	3125.20
1002.07	3157.97
1002.23	3180.50
1002.39	3104.72
1002.55	3088.34
1002.71	3080.14
1002.87	3022.80
1003.03	3024.85
1003.19	3104.72
1003.34	3078.10
1003.50	3131.34
1003.66	3086.29
1003.82	3137.49
1003.98	2942.93
1004.14	3039.19
1004.30	2973.65
1004.46	2975.70
1004.62	2969.55
1004.78	2961.36
1004.94	3026.90
1005.09	2899.92
1005.25	2969.55
1005.41	2940.88
1005.57	2996.18
1005.73	2881.49
1005.89	2912.21
1006.05	2961.36
1006.21	2967.51
1006.37	2904.02
1006.52	2904.02
1006.68	2791.38
1006.84	3014.61
1007.00	2881.49
1007.16	2990.03
1007.32	2842.58
1007.48	2877.40
1007.64	2791.38
1007.79	2863.06
1007.95	2856.92
1008.11	3020.75
1008.27	2805.72
1008.43	2830.29
1008.59	2811.86
1008.75	2875.35
1008.91	2795.48
1009.06	2832.34
1009.22	2881.49
1009.38	2813.91
1009.54	2918.36
1009.70	2772.95
1009.86	2832.34
1010.01	2801.62
1010.17	2760.66
1010.33	2713.56
1010.49	2746.33
1010.65	2838.48
1010.81	2705.37
1010.96	2686.94
1011.12	2682.84
1011.28	2586.58
1011.44	2748.37
1011.60	2645.98
1011.76	2564.06
1011.91	2787.29
1012.07	2584.54
1012.23	2594.78
1012.39	2539.48
1012.55	2758.61
1012.71	2619.35
1012.86	2648.02
1013.02	2613.21
1013.18	2609.11
1013.34	2592.73
1013.50	2588.63
1013.65	2645.98
1013.81	2514.91
1013.97	2547.67
1014.13	2658.26
1014.29	2541.53
1014.44	2648.02
1014.60	2596.82
1014.76	2473.95
1014.92	2547.67
1015.07	2629.59
1015.23	2631.64
1015.39	2492.38
1015.55	2439.13
1015.71	2467.80
1015.86	2539.48
1016.02	2478.04
1016.18	2430.94
1016.34	2496.47
1016.49	2500.57
1016.65	2537.43
1016.81	2449.37
1016.97	2426.84
1017.12	2430.94
1017.28	2375.64
1017.44	2404.32
1017.60	2428.89
1017.75	2375.64
1017.91	2412.51
1018.07	2451.42
1018.23	2461.66
1018.38	2428.89
1018.54	2385.88
1018.70	2432.99
1018.86	2353.12
1019.01	2392.03
1019.17	2334.68
1019.33	2443.23
1019.49	2465.75
1019.64	2488.28
1019.80	2318.30
1019.96	2287.58
1020.12	2273.25
1020.27	2285.53
1020.43	2371.55
1020.59	2353.12
1020.74	2404.32
1020.90	2383.84
1021.06	2285.53
1021.22	2375.64
1021.37	2385.88
1021.53	2220.00
1021.69	2308.06
1021.84	2209.76
1022.00	2287.58
1022.16	2297.82
1022.31	2285.53
1022.47	2263.01
1022.63	2385.88
1022.79	2224.09
1022.94	2230.24
1023.10	2408.41
1023.26	2234.33
1023.41	2224.09
1023.57	2166.75
1023.73	2252.77
1023.88	2334.68
1024.04	2183.13
1024.20	2213.85
1024.35	2146.27
1024.51	2164.70
1024.67	2258.91
1024.82	2400.22
1024.98	2226.14
1025.14	2174.94
1025.29	2201.57
1025.45	2226.14
1025.61	2166.75
1025.76	2185.18
1025.92	2205.66
1026.08	2179.04
1026.23	2260.96
1026.39	2236.38
1026.55	2136.03
1026.70	2236.38
1026.86	2080.74
1027.02	2238.43
1027.17	2166.75
1027.33	2271.20
1027.48	2142.18
1027.64	2068.45
1027.80	2072.54
1027.95	2164.70
1028.11	2060.26
1028.27	2207.71
1028.42	2174.94
1028.58	2093.02
1028.73	2142.18
1028.89	2064.35
1029.05	2232.29
1029.20	2189.28
>>>>>End Processed Spectral Data<<<<<
