SpectraSuite Data File
++++++++++++++++++++++++++++++++++++
Date: Fri Jun 02 14:53:33 CEST 2017
User: INFO_000
Dark Spectrum Present: No
Reference Spectrum Present: No
Number of Sampled Component Spectra: 1
Spectrometers: USB4H00879
Integration Time (usec): 80000 (USB4H00879)
Spectra Averaged: 1 (USB4H00879)
Boxcar Smoothing: 0 (USB4H00879)
Correct for Electrical Dark: No (USB4H00879)
Strobe/Lamp Enabled: No (USB4H00879)
Correct for Detector Non-linearity: No (USB4H00879)
Correct for Stray Light: No (USB4H00879)
Number of Pixels in Processed Spectrum: 3648
>>>>>Begin Processed Spectral Data<<<<<
345.13	1222.64
345.34	1222.64
345.56	1222.64
345.78	1253.36
345.99	1322.99
346.21	1724.39
346.42	1703.91
346.64	1607.66
346.86	1744.87
347.07	1648.61
347.29	1769.44
347.50	1660.90
347.72	1734.63
347.94	1753.06
348.15	1523.69
348.37	1630.18
348.59	1675.24
348.80	1662.95
349.02	1732.58
349.23	1855.46
349.45	1828.84
349.67	1806.31
349.88	1847.27
350.10	1998.82
350.31	1847.27
350.53	1834.98
350.75	1927.14
350.96	1824.74
351.18	1927.14
351.39	1828.84
351.61	1851.36
351.82	1896.42
352.04	1970.15
352.26	1927.14
352.47	1935.33
352.69	1970.15
352.90	1806.31
353.12	1845.22
353.34	1808.36
353.55	1943.52
353.77	1910.75
353.98	1871.84
354.20	1800.16
354.41	1910.75
354.63	1951.71
354.85	2021.35
355.06	1933.28
355.28	1826.79
355.49	1896.42
355.71	1910.75
355.92	1814.50
356.14	1941.47
356.35	1845.22
356.57	1861.60
356.79	1984.48
357.00	1920.99
357.22	1951.71
357.43	1908.71
357.65	1892.32
357.86	1847.27
358.08	1851.36
358.29	1910.75
358.51	1998.82
358.72	1976.29
358.94	1951.71
359.16	1935.33
359.37	1929.19
359.59	1964.00
359.80	2027.49
360.02	1990.63
360.23	2041.82
360.45	1953.76
360.66	1916.90
360.88	1869.80
361.09	1923.04
361.31	1972.19
361.52	1994.72
361.74	2054.11
361.95	2105.31
362.17	1986.53
362.38	2076.64
362.60	1998.82
362.81	1935.33
363.03	1972.19
363.24	1902.56
363.46	2058.21
363.67	2062.30
363.89	2000.87
364.10	2041.82
364.32	1970.15
364.53	2066.40
364.75	1970.15
364.96	2017.25
365.18	2002.91
365.39	2035.68
365.61	2009.06
365.82	2203.61
366.04	2058.21
366.25	1941.47
366.47	1955.81
366.68	1990.63
366.90	2009.06
367.11	2050.02
367.33	2164.70
367.54	2078.69
367.76	2039.78
367.97	2123.74
368.19	2033.63
368.40	2164.70
368.62	1902.56
368.83	1951.71
369.05	2109.41
369.26	2029.54
369.48	2002.91
369.69	1998.82
369.91	2103.26
370.12	2029.54
370.33	2037.73
370.55	1953.76
370.76	2027.49
370.98	2129.89
371.19	2066.40
371.41	2021.35
371.62	1988.58
371.84	2035.68
372.05	2090.98
372.27	2039.78
372.48	2170.85
372.69	2033.63
372.91	2191.33
373.12	2213.85
373.34	2156.51
373.55	2060.26
373.77	2160.61
373.98	2142.18
374.20	2191.33
374.41	2213.85
374.62	2224.09
374.84	2232.29
375.05	2248.67
375.27	2093.02
375.48	2205.66
375.70	2144.22
375.91	2248.67
376.12	2254.81
376.34	2201.57
376.55	2242.53
376.77	2336.73
376.98	2099.17
377.19	2146.27
377.41	2181.09
377.62	2232.29
377.84	2265.05
378.05	2351.07
378.27	2179.04
378.48	2344.92
378.69	2369.50
378.91	2332.64
379.12	2263.01
379.34	2207.71
379.55	2357.21
379.76	2279.39
379.98	2295.77
380.19	2299.87
380.41	2301.92
380.62	2349.02
380.83	2344.92
381.05	2293.72
381.26	2414.56
381.47	2297.82
381.69	2295.77
381.90	2332.64
382.12	2312.16
382.33	2289.63
382.54	2369.50
382.76	2344.92
382.97	2328.54
383.19	2242.53
383.40	2402.27
383.61	2279.39
383.83	2322.40
384.04	2400.22
384.25	2449.37
384.47	2426.84
384.68	2396.12
384.89	2330.59
385.11	2437.08
385.32	2328.54
385.54	2437.08
385.75	2363.36
385.96	2545.63
386.18	2437.08
386.39	2426.84
386.60	2324.44
386.82	2488.28
387.03	2338.78
387.24	2469.85
387.46	2516.95
387.67	2504.67
387.88	2519.00
388.10	2504.67
388.31	2562.01
388.52	2535.39
388.74	2447.32
388.95	2568.15
389.16	2414.56
389.38	2559.96
389.59	2592.73
389.80	2617.30
390.02	2533.34
390.23	2592.73
390.44	2598.87
390.66	2613.21
390.87	2621.40
391.08	2631.64
391.30	2723.80
391.51	2637.78
391.72	2740.18
391.94	2625.50
392.15	2570.20
392.36	2631.64
392.58	2748.37
392.79	2742.23
393.00	2555.86
393.22	2711.51
393.43	2766.81
393.64	2838.48
393.85	2787.29
394.07	2613.21
394.28	2723.80
394.49	2750.42
394.71	2734.04
394.92	2748.37
395.13	2666.46
395.35	2697.17
395.56	2850.77
395.77	2828.24
395.98	2824.15
396.20	2910.16
396.41	2838.48
396.62	2867.16
396.84	2875.35
397.05	2844.63
397.26	2856.92
397.47	2944.98
397.69	2858.96
397.90	3076.05
398.11	2895.83
398.32	2813.91
398.54	2887.64
398.75	2879.44
398.96	2840.53
399.18	3106.77
399.39	2887.64
399.60	2942.93
399.81	2944.98
400.03	2916.31
400.24	3211.22
400.45	2951.12
400.66	3098.58
400.88	3004.37
401.09	3166.16
401.30	2987.99
401.51	3119.06
401.73	3139.54
401.94	2953.17
402.15	3086.29
402.36	3157.97
402.58	3035.09
402.79	3157.97
403.00	3174.35
403.21	3162.06
403.43	3176.40
403.64	3299.28
403.85	3092.43
404.06	3194.83
404.27	3188.69
404.49	3117.01
404.70	3160.02
404.91	3272.65
405.12	3135.44
405.34	3182.54
405.55	3401.68
405.76	3147.73
405.97	3237.84
406.19	3327.95
406.40	3327.95
406.61	3289.04
406.82	3350.48
407.03	3207.12
407.25	3291.09
407.46	3409.87
407.67	3336.14
407.88	3422.16
408.09	3327.95
408.31	3342.28
408.52	3463.12
408.73	3385.29
408.94	3373.00
409.15	3485.64
409.37	3538.89
409.58	3463.12
409.79	3452.88
410.00	3583.95
410.21	3461.07
410.43	3475.40
410.64	3393.48
410.85	3508.17
411.06	3565.51
411.27	3485.64
411.48	3608.52
411.70	3553.23
411.91	3567.56
412.12	3719.11
412.33	3547.08
412.54	3604.42
412.76	3651.53
412.97	3678.15
413.18	3645.38
413.39	3553.23
413.60	3735.50
413.81	3739.59
414.03	3680.20
414.24	3641.29
414.45	3887.04
414.66	3510.22
414.87	3641.29
415.08	3727.30
415.30	3708.87
415.51	3827.65
415.72	3792.84
415.93	3715.02
416.14	3758.02
416.35	3801.03
416.56	3819.46
416.78	3719.11
416.99	3864.52
417.20	4007.87
417.41	3983.30
417.62	3846.09
417.83	4018.11
418.04	3954.63
418.26	3973.06
418.47	3899.33
418.68	3973.06
418.89	4083.65
419.10	4290.49
419.31	4073.41
419.52	4061.12
419.73	3928.00
419.95	4018.11
420.16	3930.05
420.37	4108.23
420.58	4100.03
420.79	4059.07
421.00	4227.01
421.21	4143.04
421.42	4001.73
421.63	4196.29
421.85	4218.82
422.06	4319.17
422.27	4202.43
422.48	4319.17
422.69	4259.78
422.90	4235.20
423.11	4245.44
423.32	4345.79
423.53	4460.48
423.75	4394.94
423.96	4542.39
424.17	4423.61
424.38	4597.69
424.59	4519.87
424.80	4597.69
425.01	4392.89
425.22	4452.28
425.43	4452.28
425.64	4775.86
425.85	4753.34
426.06	4702.14
426.28	4657.08
426.49	4562.87
426.70	4614.07
426.91	4767.67
427.12	4829.11
427.33	4747.19
427.54	4763.58
427.75	4839.35
427.96	4945.84
428.17	4816.82
428.38	4949.94
428.59	4974.52
428.80	4796.34
429.01	4962.23
429.23	4886.45
429.44	5191.60
429.65	5015.48
429.86	5160.88
430.07	4966.32
430.28	4917.17
430.49	5130.16
430.70	5183.41
430.91	5197.74
431.12	5058.48
431.33	5304.24
431.54	5343.15
431.75	5171.12
431.96	5273.52
432.17	5226.42
432.38	5332.91
432.59	5398.45
432.80	5402.54
433.01	5439.40
433.22	5427.12
433.43	5441.45
433.64	5394.35
433.85	5236.66
434.06	5533.61
434.27	5308.34
434.49	5416.88
434.70	5558.19
434.91	5443.50
435.12	5527.47
435.33	5511.08
435.54	5644.20
435.75	5429.17
435.96	5652.39
436.17	5574.57
436.38	5707.69
436.59	5719.98
436.80	5674.92
437.01	5990.31
437.22	5935.01
437.43	5666.73
437.64	5593.00
437.85	5877.67
438.06	5777.32
438.27	5754.79
438.48	5824.42
438.69	5887.91
438.90	5975.97
439.11	5797.80
439.32	6057.89
439.53	5853.09
439.74	6004.64
439.95	6031.27
440.16	5975.97
440.37	5844.90
440.57	5898.15
440.78	5996.45
440.99	6045.60
441.20	6080.42
441.41	5910.44
441.62	5992.36
441.83	5945.25
442.04	6199.20
442.25	6131.62
442.46	5992.36
442.67	6234.02
442.88	6555.55
443.09	6070.18
443.30	6184.87
443.51	6158.24
443.72	6514.59
443.93	6231.97
444.14	6367.13
444.35	6156.19
444.56	6258.59
444.77	6188.96
444.98	6451.10
445.19	6281.12
445.40	6367.13
445.61	6401.95
445.81	6539.16
446.02	6619.04
446.23	6547.36
446.44	6322.08
446.65	6440.86
446.86	6461.34
447.07	6426.53
447.28	6610.84
447.49	6631.32
447.70	6543.26
447.91	6703.00
448.12	6647.71
448.33	6860.70
448.54	6741.91
448.74	6637.47
448.95	6653.85
449.16	6664.09
449.37	7153.55
449.58	6694.81
449.79	6825.88
450.00	6840.22
450.21	6961.05
450.42	7081.88
450.63	7030.68
450.84	7075.73
451.05	6985.62
451.25	7040.92
451.46	6907.80
451.67	7145.36
451.88	7159.70
452.09	7167.89
452.30	6942.61
452.51	7057.30
452.72	7258.00
452.93	7393.17
453.13	7088.02
453.34	7120.79
453.55	7337.87
453.76	7264.15
453.97	7649.16
454.18	7470.99
454.39	7341.97
454.60	7296.91
454.81	7413.65
455.01	7503.76
455.22	7399.31
455.43	7452.56
455.64	7899.02
455.85	7925.64
456.06	7921.54
456.27	7665.55
456.48	7778.19
456.68	7786.38
456.89	7778.19
457.10	7870.34
457.31	7944.07
457.52	7923.59
457.73	7974.79
457.94	8155.01
458.14	7890.82
458.35	8247.17
458.56	8081.28
458.77	8005.51
458.98	8361.86
459.19	8011.65
459.39	8329.09
459.60	8302.47
459.81	8202.11
460.02	8413.06
460.23	8365.95
460.44	8847.22
460.65	8568.70
460.85	8558.46
461.06	8638.33
461.27	8374.14
461.48	8896.38
461.69	8843.13
461.89	8554.37
462.10	8888.18
462.31	8601.47
462.52	8894.33
462.73	8890.23
462.94	9111.41
463.14	9121.65
463.35	8929.14
463.56	9478.00
463.77	9422.70
463.98	9330.55
464.18	9228.15
464.39	9308.02
464.60	9535.34
464.81	9500.53
465.02	9496.43
465.23	9572.21
465.43	9613.17
465.64	9789.29
465.85	9815.91
466.06	9564.01
466.27	10205.03
466.47	10016.62
466.68	10053.48
466.89	10012.52
467.10	10217.32
467.30	10055.53
467.51	10299.23
467.72	10391.39
467.93	10008.42
468.14	10272.61
468.34	10358.63
468.55	10514.27
468.76	10518.37
468.97	10551.14
469.17	10747.74
469.38	10743.64
469.59	10989.40
469.80	10692.44
470.01	10727.26
470.21	11009.88
470.42	11265.88
470.63	11233.11
470.84	11136.85
471.04	11421.52
471.25	11272.02
471.46	11429.71
471.67	11759.44
471.87	11509.58
472.08	11767.63
472.29	11861.84
472.50	11384.66
472.70	11654.99
472.91	12197.70
473.12	12257.09
473.33	12160.84
473.53	12232.52
473.74	12388.16
473.95	12410.69
474.16	12461.89
474.36	12670.78
474.57	12701.50
474.78	12767.04
474.99	12691.26
475.19	12652.35
475.40	13111.10
475.61	12902.20
475.81	13360.95
476.02	13430.58
476.23	13158.20
476.44	13305.65
476.64	13731.63
476.85	13739.82
477.06	13764.40
477.27	13981.48
477.47	14155.56
477.68	14165.80
477.89	14108.46
478.09	14208.81
478.30	14161.70
478.51	14546.72
478.71	14470.95
478.92	14581.54
479.13	14704.42
479.34	14839.58
479.54	14886.68
479.75	14679.84
479.96	14964.51
480.16	15206.17
480.37	15298.33
480.58	15224.60
480.78	15529.75
480.99	15595.28
481.20	15619.86
481.41	15642.39
481.61	15791.89
481.82	16099.08
482.03	16240.39
482.23	16068.36
482.44	16416.52
482.65	16523.01
482.85	16510.72
483.06	16531.20
483.27	16437.00
483.47	17008.38
483.68	16994.04
483.89	17133.31
484.09	16740.10
484.30	17121.02
484.51	17323.77
484.71	17229.56
484.92	17469.17
485.13	17741.55
485.33	17551.09
485.54	17831.66
485.75	17702.64
485.95	18095.85
486.16	18028.27
486.37	18335.46
486.57	18167.53
486.78	18321.13
486.98	18194.15
487.19	18593.51
487.40	18695.91
487.60	18702.05
487.81	18730.72
488.02	18798.31
488.22	18595.56
488.43	18929.38
488.64	18919.14
488.84	19422.94
489.05	19236.57
489.25	19343.06
489.46	19433.18
489.67	19408.60
489.87	19746.51
490.08	19830.48
490.29	19816.15
490.49	20113.10
490.70	19961.55
490.90	20213.45
491.11	20342.47
491.32	20381.38
491.52	20121.29
491.73	20500.17
491.94	20530.89
492.14	20281.03
492.35	20942.53
492.55	20739.78
492.76	21161.66
492.97	21036.74
493.17	20950.72
493.38	21276.35
493.58	21333.69
493.79	21208.76
494.00	21503.67
494.20	21700.28
494.41	21624.50
494.61	21831.35
494.82	21999.28
495.02	21892.79
495.23	21700.28
495.44	21817.01
495.64	22075.06
495.85	22208.17
496.05	22351.53
496.26	22249.13
496.47	22265.52
496.67	22173.36
496.88	22722.21
497.08	22535.85
497.29	22773.41
497.49	22730.41
497.70	23103.14
497.91	22994.59
498.11	22632.10
498.32	22806.18
498.52	23146.14
498.73	23326.36
498.93	23291.55
499.14	23570.07
499.34	23381.66
499.55	23512.73
499.76	23240.35
499.96	23637.66
500.17	23363.23
500.37	23606.94
500.58	23576.22
500.78	23832.21
500.99	23701.14
501.19	24223.37
501.40	24002.19
501.60	24084.11
501.81	23928.47
502.02	24133.26
502.22	24110.74
502.43	24137.36
502.63	24481.42
502.84	24641.16
503.04	24397.45
503.25	24657.54
503.45	24559.24
503.66	24721.03
503.86	24635.02
504.07	25099.90
504.27	24456.84
504.48	24985.22
504.68	24692.36
504.89	25427.58
505.09	25073.28
505.30	25204.35
505.50	24979.07
505.71	25273.98
505.91	25396.86
506.12	25306.75
506.32	25228.93
506.53	25411.20
506.73	25456.25
506.94	25728.63
507.14	25712.25
507.35	25439.87
507.55	25704.06
507.76	25452.16
507.96	25587.32
508.17	25687.67
508.37	26023.54
508.58	25759.35
508.78	25740.92
508.99	26283.63
509.19	25935.48
509.40	25902.71
509.60	26168.94
509.81	26347.12
510.01	26287.73
510.22	25988.72
510.42	26111.60
510.63	26259.06
510.83	26504.81
511.04	26175.09
511.24	26412.65
511.44	26426.99
511.65	26316.40
511.85	26586.73
512.06	26398.32
512.26	26695.27
512.47	26558.06
512.67	26949.22
512.88	26738.28
513.08	26715.75
513.29	27068.00
513.49	26728.04
513.69	26906.21
513.90	27080.29
514.10	27172.45
514.31	27217.50
514.51	26785.38
514.72	27102.82
514.92	27184.74
515.13	27221.60
515.33	27324.00
515.53	27469.40
515.74	27397.73
515.94	27780.70
516.15	27586.14
516.35	27336.29
516.56	27596.38
516.76	27586.14
516.96	27567.71
517.17	27762.26
517.37	27647.58
517.58	27838.04
517.78	27666.01
517.99	27913.81
518.19	28272.21
518.39	28022.36
518.60	28419.66
518.80	28370.51
519.01	28221.01
519.21	28241.49
519.41	28212.82
519.62	28204.63
519.82	28171.86
520.03	28913.22
520.23	28857.93
520.43	28550.73
520.64	28788.30
520.84	28909.13
521.05	28882.50
521.25	28819.02
521.45	28802.63
521.66	29226.56
521.86	28786.25
522.07	29404.74
522.27	29441.60
522.47	28991.05
522.68	29668.92
522.88	29523.52
523.08	29402.69
523.29	29685.31
523.49	30004.79
523.70	29969.97
523.90	29996.60
524.10	29980.21
524.31	29969.97
524.51	29847.10
524.71	30281.27
524.92	30015.03
525.12	30570.03
525.33	30506.54
525.53	30522.93
525.73	30821.93
525.94	30901.80
526.14	30633.52
526.34	30819.88
526.55	30633.52
526.75	30787.11
526.95	31104.55
527.16	31014.44
527.36	31112.74
527.56	31225.38
527.77	31907.35
527.97	31508.00
528.17	31731.23
528.38	31895.07
528.58	31790.62
528.78	31743.52
528.99	31618.59
529.19	32099.86
529.39	31823.39
529.60	32013.85
529.80	31632.93
530.00	31884.83
530.21	32732.68
530.41	32574.99
530.61	32407.06
530.82	32405.01
531.02	32761.36
531.22	32955.91
531.43	32863.75
531.63	32976.39
531.83	33291.78
532.04	33498.62
532.24	33261.06
532.44	33185.29
532.64	33572.35
532.85	33912.31
533.05	33764.86
533.25	33754.62
533.46	33912.31
533.66	34029.05
533.86	33932.79
534.07	34532.85
534.27	34246.13
534.47	34850.28
534.67	34506.23
534.88	34399.73
535.08	34649.58
535.28	34899.44
535.49	35091.94
535.69	35159.53
535.89	35112.42
536.09	35540.45
536.30	35679.71
536.50	35290.60
536.70	35861.98
536.91	35591.65
537.11	36036.06
537.31	35880.41
537.51	35634.66
537.72	36122.07
537.92	35948.00
538.12	36509.14
538.32	36269.53
538.53	36396.50
538.73	36238.81
538.93	36629.97
539.13	36619.73
539.34	36931.02
539.54	36464.08
539.74	37217.74
539.94	37307.85
540.15	36943.31
540.35	37219.78
540.55	37467.59
540.75	37176.78
540.96	37414.34
541.16	37619.14
541.36	37733.82
541.56	37707.20
541.77	38301.11
541.97	37782.98
542.17	38192.57
542.37	38239.67
542.58	38258.10
542.78	38176.19
542.98	38290.87
543.18	38372.79
543.38	38802.86
543.59	38927.79
543.79	38688.18
543.99	38931.89
544.19	39237.03
544.40	38919.60
544.60	39056.81
544.80	39351.72
545.00	39185.83
545.20	39509.41
545.41	39245.23
545.61	39323.05
545.81	39663.01
546.01	40060.32
546.21	39986.59
546.42	39654.82
546.62	39798.18
546.82	39855.52
547.02	40218.01
547.22	40134.04
547.43	40578.45
547.63	40453.53
547.83	40789.39
548.03	40224.15
548.23	40848.78
548.44	40826.26
548.64	40637.84
548.84	40680.85
549.04	40713.62
549.24	41215.37
549.45	41364.87
549.65	40934.80
549.85	41147.79
550.05	40932.75
550.25	41377.16
550.45	41534.85
550.66	41481.61
550.86	41248.14
551.06	41975.17
551.26	41612.68
551.46	41639.30
551.66	42057.09
551.87	41829.76
552.07	42009.98
552.27	42192.25
552.47	41825.67
552.67	42423.67
552.87	42177.92
553.07	42194.30
553.28	42118.53
553.48	42470.78
553.68	42407.29
553.88	42958.19
554.08	42513.78
554.28	42405.24
554.48	42648.95
554.69	42538.36
554.89	42411.38
555.09	42497.40
555.29	42855.79
555.49	43111.79
555.69	43304.30
555.89	43128.17
556.10	43324.78
556.30	42816.88
556.50	43185.52
556.70	42927.47
556.90	43263.34
557.10	43273.58
557.30	43072.88
557.50	43631.97
557.70	43449.70
557.91	43969.89
558.11	43955.55
558.31	43961.70
558.51	43484.52
558.71	43447.66
558.91	43720.04
559.11	43758.95
559.31	44060.00
559.51	43611.49
559.72	44236.12
559.92	44049.76
560.12	44086.62
560.32	44596.57
560.52	43978.08
560.72	43801.96
560.92	44201.31
561.12	44168.54
561.32	44514.65
561.52	44041.57
561.72	45122.90
561.93	44483.93
562.13	44682.58
562.33	44363.10
562.53	44707.16
562.73	44561.75
562.93	44311.90
563.13	44772.69
563.33	44420.44
563.53	45124.94
563.73	44631.38
563.93	44889.43
564.13	45272.40
564.33	44881.24
564.53	44971.35
564.74	45671.75
564.94	44877.14
565.14	45012.31
565.34	45014.35
565.54	45258.06
565.74	45393.23
565.94	45471.05
566.14	45083.98
566.34	45161.81
566.54	45835.59
566.74	45307.21
566.94	45526.35
567.14	45421.90
567.34	45204.81
567.54	45835.59
567.74	45434.19
567.94	45137.23
568.14	45980.99
568.34	45839.68
568.54	45735.24
568.74	45970.75
568.94	45823.30
569.14	45913.41
569.34	45794.63
569.54	45989.19
569.75	45827.40
569.95	45991.23
570.15	46564.67
570.35	45980.99
570.55	45997.38
570.75	46220.61
570.95	46169.41
571.15	46753.08
571.35	45731.14
571.55	46742.84
571.75	45983.04
571.95	46138.69
572.15	46116.16
572.35	46454.08
572.55	46236.99
572.75	46206.27
572.95	46431.55
573.15	46822.71
573.35	46323.01
573.55	46757.17
573.75	46611.77
573.95	46929.20
574.15	46576.95
574.35	46535.99
574.55	46568.76
574.75	46292.29
574.95	47039.79
575.15	46689.59
575.34	47240.50
575.54	46873.91
575.74	47289.65
575.94	47449.39
576.14	47121.71
576.34	47684.90
576.54	47320.37
576.74	47406.38
576.94	47494.44
577.14	47478.06
577.34	47750.44
577.54	47387.95
577.74	47568.17
577.94	47392.04
578.14	47430.96
578.34	47895.85
578.54	46884.15
578.74	47547.69
578.94	47635.75
579.14	47412.52
579.34	47508.78
579.54	48053.54
579.74	48383.26
579.94	48035.11
580.13	48387.36
580.33	47932.71
580.53	48239.90
580.73	47996.20
580.93	47879.46
581.13	48416.03
581.33	48477.47
581.53	48391.45
581.73	48190.75
581.93	48117.03
582.13	48413.98
582.33	48117.03
582.53	48430.36
582.73	48284.96
582.92	48721.18
583.12	48370.97
583.32	48561.44
583.52	48182.56
583.72	48641.31
583.92	48512.28
584.12	48600.35
584.32	48987.41
584.52	48852.25
584.72	48755.99
584.92	48864.53
585.11	49071.38
585.31	49366.29
585.51	48876.82
585.71	49026.32
585.91	48942.36
586.11	48891.16
586.31	48895.25
586.51	48897.30
586.71	49030.42
586.91	49335.57
587.10	49435.92
587.30	49300.75
587.50	49392.91
587.70	49411.34
587.90	49591.56
588.10	49151.25
588.30	49149.20
588.50	49937.67
588.69	49804.55
588.89	49566.99
589.09	49669.39
589.29	49509.64
589.49	49970.44
589.69	49345.81
589.89	50052.36
590.08	49863.94
590.28	49763.59
590.48	49429.77
590.68	49683.72
590.88	49587.47
591.08	49610.00
591.28	49478.92
591.47	50023.68
591.67	50066.69
591.87	50052.36
592.07	49650.95
592.27	49722.63
592.47	50025.73
592.67	49974.53
592.86	49947.91
593.06	49894.66
593.26	50081.03
593.46	50132.23
593.66	50119.94
593.86	50134.28
594.05	50191.62
594.25	50435.33
594.45	49841.42
594.65	50556.16
594.85	50398.46
595.05	50408.70
595.24	50625.79
595.44	50181.38
595.64	49927.43
595.84	50253.06
596.04	50296.06
596.23	50502.91
596.43	50920.70
596.63	50361.60
596.83	50504.96
597.03	50883.83
597.22	51066.10
597.42	50861.30
597.62	50640.12
597.82	50689.27
598.02	50691.32
598.21	51162.36
598.41	50658.56
598.61	50842.87
598.81	50763.00
599.01	51315.95
599.20	50926.84
599.40	50877.69
599.60	51062.00
599.80	51133.68
600.00	50889.98
600.19	51303.67
600.39	50887.93
600.59	51543.28
600.79	51408.11
600.98	51504.37
601.18	51289.33
601.38	51467.50
601.58	51094.77
601.78	51369.20
601.97	51385.58
602.17	52229.35
602.37	51977.45
602.57	51533.04
602.76	52002.02
602.96	51741.93
603.16	51862.76
603.36	51541.23
603.55	52042.98
603.75	52040.93
603.95	52110.56
604.15	52163.81
604.34	51784.94
604.54	52202.72
604.74	52233.44
604.94	52423.90
605.13	52180.20
605.33	52454.62
605.53	52221.16
605.73	52587.74
605.92	52122.85
606.12	52411.62
606.32	52563.17
606.52	52143.33
606.71	52647.13
606.91	52888.79
607.11	52511.97
607.30	52522.21
607.50	52593.89
607.70	52688.09
607.90	52491.49
608.09	52487.39
608.29	52944.09
608.49	52839.64
608.68	53050.58
608.88	52944.09
609.08	53255.38
609.28	53142.74
609.47	52731.10
609.67	53576.91
609.87	52860.12
610.06	52911.32
610.26	53189.84
610.46	53036.25
610.66	53198.04
610.85	53150.93
611.05	53191.89
611.25	53134.55
611.44	53159.12
611.64	53325.01
611.84	53019.86
612.03	53464.27
612.23	53093.59
612.43	52999.38
612.62	52942.04
612.82	53200.08
613.02	53277.91
613.21	53433.55
613.41	52942.04
613.61	53697.74
613.80	52778.20
614.00	53466.32
614.20	53157.08
614.39	53597.39
614.59	53572.81
614.79	53564.62
614.98	53769.42
615.18	53339.35
615.38	53327.06
615.57	53165.27
615.77	53243.09
615.97	53462.22
616.16	53413.07
616.36	53574.86
616.56	53392.59
616.75	53675.21
616.95	53267.67
617.15	53331.15
617.34	53568.72
617.54	53202.13
617.74	53918.92
617.93	53673.16
618.13	53159.12
618.32	53673.16
618.52	53423.31
618.72	53787.85
618.91	53425.36
619.11	53380.31
619.31	53505.23
619.50	53724.36
619.70	53435.60
619.90	53468.37
620.09	53413.07
620.29	53929.16
620.48	53574.86
620.68	54119.62
620.88	53460.18
621.07	53390.55
621.27	53343.44
621.46	53253.33
621.66	53294.29
621.86	53365.97
622.05	53511.38
622.25	54068.42
622.44	53236.95
622.64	53857.48
622.84	53806.28
623.03	53208.28
623.23	53738.70
623.42	53558.48
623.62	54015.18
623.82	53955.78
624.01	53519.57
624.21	53834.95
624.40	53931.21
624.60	53720.27
624.80	53392.59
624.99	53746.89
625.19	53681.36
625.38	54252.74
625.58	54062.28
625.77	53849.29
625.97	53482.70
626.17	53523.66
626.36	54049.99
626.56	54015.18
626.75	53159.12
626.95	54006.98
627.14	53634.25
627.34	54211.78
627.54	53828.81
627.73	54215.88
627.93	54164.68
628.12	53605.58
628.32	54183.11
628.51	53935.30
628.71	54000.84
628.90	53605.58
629.10	53599.44
629.30	53845.19
629.49	54242.50
629.69	54045.90
629.88	53826.76
630.08	54594.75
630.27	54514.88
630.47	53931.21
630.66	53875.91
630.86	54441.15
631.05	53959.88
631.25	54463.68
631.44	54383.81
631.64	54195.40
631.84	54305.99
632.03	54961.34
632.23	54404.29
632.42	54318.28
632.62	54398.15
632.81	53865.67
633.01	54181.06
633.20	54310.08
633.40	54944.95
633.59	54877.37
633.79	54492.35
633.98	54705.34
634.18	54850.75
634.37	54938.81
634.57	54631.61
634.76	54768.83
634.96	54482.11
635.15	54981.82
635.35	54068.42
635.54	54426.82
635.74	54809.79
635.93	54629.57
636.13	54660.29
636.32	55170.23
636.52	54414.53
636.71	54746.30
636.91	54652.09
637.10	55080.12
637.30	54897.85
637.49	54906.04
637.69	54768.83
637.88	55749.81
638.08	54779.07
638.27	55170.23
638.46	55272.63
638.66	54330.56
638.85	55100.60
639.05	55286.96
639.24	54947.00
639.44	54940.86
639.63	55387.31
639.83	55411.89
640.02	55192.76
640.22	54994.10
640.41	55678.13
640.61	54977.72
640.80	55395.51
640.99	55327.92
641.19	55975.08
641.38	55612.59
641.58	55708.85
641.77	55311.54
641.97	55344.31
642.16	55307.44
642.36	55817.39
642.55	55739.57
642.74	55448.75
642.94	55801.00
643.13	56091.82
643.33	56038.57
643.52	56034.47
643.72	56452.26
643.91	55758.00
644.10	56186.02
644.30	56556.70
644.49	55874.73
644.69	56190.12
644.88	56087.72
645.08	56069.29
645.27	55721.13
645.46	55379.12
645.66	55874.73
645.85	56104.10
646.05	56396.96
646.24	56245.41
646.43	56179.88
646.63	56781.98
646.82	56839.32
647.02	56925.34
647.21	56677.54
647.40	56392.87
647.60	56237.22
647.79	56853.66
647.99	56843.42
648.18	56411.30
648.37	57070.75
648.57	56962.20
648.76	56669.34
648.96	56431.78
649.15	56890.52
649.34	56894.62
649.54	57167.00
649.73	57021.59
649.92	57472.15
650.12	57158.81
650.31	57316.50
650.51	57238.68
650.70	57476.24
650.89	56923.29
651.09	57941.13
651.28	57312.41
651.47	57406.61
651.67	57552.02
651.86	57576.59
652.06	57353.36
652.25	57652.37
652.44	57068.70
652.64	57040.03
652.83	57029.79
653.02	57107.61
653.22	57156.76
653.41	57218.20
653.60	57279.64
653.80	57300.12
653.99	57855.12
654.18	57646.22
654.38	57324.69
654.57	57705.62
654.76	57449.62
654.96	57253.01
655.15	57818.25
655.34	57390.23
655.54	57382.04
655.73	57406.61
655.92	57762.96
656.12	57652.37
656.31	58055.82
656.50	58021.00
656.70	58184.84
656.89	57922.70
657.08	57992.33
657.28	57611.41
657.47	57934.99
657.66	58111.11
657.86	57504.91
658.05	57922.70
658.24	57832.59
658.43	57988.24
658.63	58082.44
658.82	57775.25
659.01	58031.24
659.21	58113.16
659.40	58199.18
659.59	57930.89
659.79	58035.34
659.98	58397.83
660.17	58713.22
660.36	58221.70
660.56	57998.48
660.75	58410.12
660.94	58397.83
661.14	57906.32
661.33	57941.13
661.52	57771.15
661.71	58430.60
661.91	58080.39
662.10	58352.77
662.29	58291.33
662.49	58393.73
662.68	58504.32
662.87	58377.35
663.06	58348.68
663.26	58055.82
663.45	58340.49
663.64	58545.28
663.83	58877.05
664.03	58702.98
664.22	58459.27
664.41	58887.29
664.60	58199.18
664.80	58012.81
664.99	58272.90
665.18	58262.66
665.37	58397.83
665.57	58926.20
665.76	58360.97
665.95	59020.41
666.14	58750.08
666.34	58946.68
666.53	58358.92
666.72	58227.85
666.91	58686.59
667.11	58205.32
667.30	58598.53
667.49	58455.17
667.68	58279.05
667.87	58598.53
668.07	58403.97
668.26	59032.70
668.45	58619.01
668.64	57605.26
668.84	59151.48
669.03	59092.09
669.22	58948.73
669.41	58453.12
669.60	58561.67
669.80	58053.77
669.99	58782.85
670.18	58649.73
670.37	58707.07
670.57	58950.78
670.76	58684.54
670.95	58991.74
671.14	58643.59
671.33	58635.39
671.53	58688.64
671.72	58715.26
671.91	58729.60
672.10	58008.71
672.29	58715.26
672.48	58539.14
672.68	58750.08
672.87	58397.83
673.06	58481.80
673.25	58598.53
673.44	58760.32
673.64	58178.70
673.83	58889.34
674.02	58193.03
674.21	58168.46
674.40	58983.55
674.59	58107.02
674.79	58279.05
674.98	58203.27
675.17	58547.33
675.36	58008.71
675.55	58440.84
675.74	58045.58
675.94	58272.90
676.13	58418.31
676.32	58408.07
676.51	58879.10
676.70	58416.26
676.89	58383.49
677.08	58825.85
677.28	58303.62
677.47	58676.35
677.66	58586.24
677.85	58172.55
678.04	58379.40
678.23	58594.43
678.42	58600.58
678.62	58444.93
678.81	58895.49
679.00	58184.84
679.19	59382.90
679.38	58537.09
679.57	58098.83
679.76	58571.91
679.96	58727.55
680.15	58176.65
680.34	58514.56
680.53	58285.19
680.72	58156.17
680.91	58246.28
681.10	57990.28
681.29	58311.81
681.48	57793.68
681.68	57996.43
681.87	58219.66
682.06	58418.31
682.25	57572.50
682.44	57963.66
682.63	58225.80
682.82	57562.26
683.01	57922.70
683.20	57959.56
683.39	58186.89
683.59	58035.34
683.78	57736.34
683.97	57148.57
684.16	57779.34
684.35	57183.38
684.54	57619.60
684.73	57611.41
684.92	57138.33
685.11	57537.68
685.30	57666.70
685.49	58049.67
685.69	57789.58
685.88	57214.10
686.07	57652.37
686.26	57615.50
686.45	57533.59
686.64	57824.40
686.83	57408.66
687.02	57298.07
687.21	57701.52
687.40	57631.89
687.59	57466.00
687.78	57457.81
687.97	57648.27
688.16	57042.07
688.35	57142.42
688.54	57640.08
688.74	56982.68
688.93	56704.16
689.12	57083.03
689.31	57128.09
689.50	57476.24
689.69	56593.57
689.88	56732.83
690.07	56908.96
690.26	56865.95
690.45	57332.89
690.64	56974.49
690.83	56929.44
691.02	56808.61
691.21	56503.46
691.40	56638.62
691.59	56423.59
691.78	56286.37
691.97	56956.06
692.16	56497.31
692.35	56671.39
692.54	56614.05
692.73	56396.96
692.92	56349.86
693.11	56403.11
693.30	56444.07
693.49	56743.07
693.68	56292.52
693.87	56564.90
694.06	56190.12
694.25	56292.52
694.44	55434.42
694.63	56177.83
694.82	56562.85
695.01	55915.69
695.20	56255.65
695.39	56274.09
695.58	56048.81
695.77	55663.79
695.96	55567.54
696.15	55743.66
696.34	55471.28
696.53	55442.61
696.72	55696.56
696.91	55614.64
697.10	55706.80
697.29	55213.24
697.48	55628.98
697.67	55745.71
697.86	55223.48
698.05	55325.88
698.24	55585.97
698.43	54924.47
698.62	55442.61
698.81	55012.54
699.00	55428.27
699.19	55225.53
699.38	54883.51
699.57	54742.20
699.76	55569.58
699.95	54949.05
700.14	55030.97
700.32	55028.92
700.51	55002.30
700.70	55264.44
700.89	55334.07
701.08	55411.89
701.27	54908.09
701.46	54707.39
701.65	53863.63
701.84	54363.33
702.03	54637.76
702.22	54412.48
702.41	54369.47
702.60	54498.50
702.79	54183.11
702.98	54197.44
703.17	54465.73
703.35	54086.85
703.54	54326.47
703.73	54688.96
703.92	53705.93
704.11	54019.27
704.30	53814.47
704.49	53902.54
704.68	54037.70
704.87	54150.34
705.06	53685.45
705.25	53544.14
705.43	53650.64
705.62	53818.57
705.81	53982.41
706.00	53750.99
706.19	53611.73
706.38	53730.51
706.57	53929.16
706.76	53040.34
706.95	53378.26
707.14	53161.17
707.32	53402.83
707.51	52821.21
707.70	53118.17
707.89	53296.34
708.08	53507.28
708.27	53298.39
708.46	53413.07
708.65	52894.94
708.84	53064.92
709.02	52929.75
709.21	52729.05
709.40	52817.11
709.59	52872.41
709.78	52387.04
709.97	53318.87
710.16	52692.19
710.34	52841.69
710.53	52796.63
710.72	52679.90
710.91	52899.03
711.10	52663.52
711.29	52829.40
711.48	52401.38
711.66	53155.03
711.85	51952.87
712.04	52444.38
712.23	52237.54
712.42	52528.35
712.61	52520.16
712.80	51989.73
712.98	51901.67
713.17	51813.61
713.36	52040.93
713.55	52139.24
713.74	52077.80
713.93	51905.77
714.11	51655.92
714.30	51834.09
714.49	52221.16
714.68	51526.89
714.87	51879.14
715.06	51793.13
715.24	51741.93
715.43	51436.78
715.62	51463.41
715.81	51145.97
716.00	51389.68
716.18	51258.61
716.37	51408.11
716.56	50961.65
716.75	51371.25
716.94	50939.13
717.12	50771.19
717.31	51098.87
717.50	51197.17
717.69	50855.16
717.88	51027.19
718.06	51219.70
718.25	51186.93
718.44	50339.07
718.63	50173.19
718.82	49980.68
719.00	50697.47
719.19	50468.09
719.38	50222.34
719.57	49749.26
719.76	49839.37
719.94	49888.52
720.13	50181.38
720.32	49831.18
720.51	49947.91
720.69	49886.47
720.88	49558.80
721.07	49777.93
721.26	49239.31
721.44	49790.22
721.63	49661.19
721.82	49634.57
722.01	49341.71
722.20	49454.35
722.38	49079.57
722.57	48758.04
722.76	49288.46
722.95	49284.37
723.13	48551.20
723.32	49091.86
723.51	48856.34
723.70	48819.48
723.88	48715.03
724.07	48583.96
724.26	48170.27
724.44	48088.35
724.63	48780.57
724.82	48682.27
725.01	48739.61
725.19	48661.79
725.38	48223.52
725.57	47977.76
725.76	48252.19
725.94	48282.91
726.13	47609.13
726.32	48424.22
726.51	48026.92
726.69	48456.99
726.88	48028.96
727.07	48248.10
727.25	47760.68
727.44	48272.67
727.63	47760.68
727.82	47881.51
728.00	47701.29
728.19	47848.74
728.38	48059.68
728.56	47619.37
728.75	48039.20
728.94	47785.25
729.12	47715.62
729.31	47781.16
729.50	47648.04
729.69	47752.49
729.87	47611.18
730.06	47826.21
730.25	47510.83
730.43	48321.82
730.62	47476.01
730.81	47525.16
730.99	47938.85
731.18	47619.37
731.37	47627.56
731.55	47842.60
731.74	47883.56
731.93	47799.59
732.11	48074.02
732.30	47766.82
732.49	47318.32
732.67	47480.11
732.86	47451.44
733.05	47445.29
733.23	47314.22
733.42	47445.29
733.61	46880.05
733.79	47410.48
733.98	47559.98
734.17	47191.34
734.35	47318.32
734.54	47047.99
734.73	47613.23
734.91	47310.13
735.10	47136.05
735.29	47498.54
735.47	47068.47
735.66	47770.92
735.84	46695.74
736.03	47045.94
736.22	47404.33
736.40	46914.87
736.59	46990.64
736.78	46953.78
736.96	46804.28
737.15	47011.12
737.33	46736.69
737.52	46667.06
737.71	46673.21
737.89	46474.55
738.08	46597.43
738.27	46701.88
738.45	47134.00
738.64	46693.69
738.82	46761.27
739.01	46591.29
739.20	46970.16
739.38	46519.61
739.57	46712.12
739.75	46873.91
739.94	46290.24
740.13	46538.04
740.31	45983.04
740.50	46490.94
740.68	46351.68
740.87	46435.64
741.06	46343.48
741.24	46363.96
741.43	45944.13
741.61	46390.59
741.80	46196.03
741.99	46089.54
742.17	45819.20
742.36	46044.48
742.54	46091.58
742.73	45733.19
742.91	46564.67
743.10	45946.18
743.29	46079.30
743.47	46083.39
743.66	45573.45
743.84	45882.69
744.03	45520.20
744.21	45907.27
744.40	45833.54
744.59	45831.49
744.77	45333.84
744.96	45706.57
745.14	45890.88
745.33	45868.36
745.51	45315.40
745.70	45753.67
745.88	45436.23
746.07	45649.22
746.26	45348.17
746.44	45380.94
746.63	45507.91
746.81	45651.27
747.00	45229.39
747.18	45866.31
747.37	45286.73
747.55	45241.68
747.74	45679.94
747.92	45170.00
748.11	45448.52
748.29	45528.39
748.48	45186.38
748.66	44873.04
748.85	44735.83
749.03	44825.94
749.22	44717.40
749.41	44606.81
749.59	44936.53
749.78	44680.53
749.96	44060.00
750.15	44737.88
750.33	44981.59
750.52	44584.28
750.70	44578.14
750.89	44817.75
751.07	44152.16
751.26	44752.21
751.44	44543.32
751.63	44426.59
751.81	44057.95
752.00	44412.25
752.18	44313.95
752.37	44150.11
752.55	44375.39
752.74	43961.70
752.92	43892.07
753.10	43988.32
753.29	44139.87
753.47	44045.66
753.66	43785.57
753.84	44309.85
754.03	44201.31
754.21	43750.76
754.40	43828.58
754.58	44268.89
754.77	43980.13
754.95	43490.66
755.14	43881.83
755.32	43498.86
755.51	43646.31
755.69	43865.44
755.88	43703.65
756.06	43687.27
756.24	43447.66
756.43	43451.75
756.61	43582.82
756.80	43474.28
756.98	43099.50
757.17	43591.01
757.35	43382.12
757.54	43044.21
757.72	43148.65
757.90	43079.02
758.09	43054.45
758.27	43521.38
758.46	43079.02
758.64	43050.35
758.83	43179.37
759.01	43337.07
759.19	43130.22
759.38	43445.61
759.56	43447.66
759.75	43048.30
759.93	43066.73
760.12	42874.23
760.30	43052.40
760.48	43144.56
760.67	42927.47
760.85	43312.49
761.04	43079.02
761.22	42839.41
761.40	43081.07
761.59	42515.83
761.77	42349.95
761.96	42825.07
762.14	42775.92
762.32	42487.16
762.51	42124.67
762.69	42325.37
762.88	42468.73
763.06	42505.59
763.24	42696.05
763.43	42579.32
763.61	42712.44
763.80	42401.14
763.98	42136.96
764.16	42399.10
764.35	42061.18
764.53	41782.66
764.72	42055.04
764.90	42073.47
765.08	41946.50
765.27	42073.47
765.45	41819.52
765.63	41450.89
765.82	41901.44
766.00	41567.62
766.18	41901.44
766.37	42050.94
766.55	41227.66
766.74	42007.94
766.92	41588.10
767.10	41905.54
767.29	41936.26
767.47	41414.02
767.65	41473.42
767.84	41295.24
768.02	41622.92
768.20	41207.18
768.39	41323.91
768.57	41561.48
768.75	41264.52
768.94	41082.25
769.12	41422.22
769.30	41137.55
769.49	40975.76
769.67	41158.03
769.85	40838.54
770.04	41039.25
770.22	41031.05
770.40	40383.90
770.59	40730.00
770.77	41260.43
770.95	41012.62
771.14	40672.66
771.32	40797.59
771.50	40181.15
771.69	40254.87
771.87	40697.24
772.05	40650.13
772.24	39863.71
772.42	40539.54
772.60	40383.90
772.78	40045.98
772.97	40099.23
773.15	40406.42
773.33	40295.83
773.52	40551.83
773.70	40506.77
773.88	40402.33
774.07	40598.93
774.25	40191.39
774.43	40447.38
774.61	40140.19
774.80	40484.25
774.98	40404.38
775.16	40230.30
775.34	40588.69
775.53	40181.15
775.71	40449.43
775.89	40334.74
776.08	40371.61
776.26	40371.61
776.44	40377.75
776.62	40369.56
776.81	40355.22
776.99	40854.93
777.17	40652.18
777.35	40746.39
777.54	41047.44
777.72	40474.01
777.90	40504.73
778.08	41004.43
778.27	41059.73
778.45	40469.91
778.63	41076.11
778.81	40908.18
779.00	41440.65
779.18	41006.48
779.36	41207.18
779.54	41063.82
779.73	41024.91
779.91	41520.52
780.09	41239.95
780.27	41031.05
780.46	41321.87
780.64	41479.56
780.82	41086.35
781.00	41309.58
781.19	41543.05
781.37	41325.96
781.55	41354.63
781.73	41823.62
781.91	41438.60
782.10	41305.48
782.28	41541.00
782.46	41391.50
782.64	41641.35
782.82	41137.55
783.01	41389.45
783.19	42106.24
783.37	41676.16
783.55	41485.70
783.74	42038.65
783.92	41715.08
784.10	41948.54
784.28	41876.86
784.46	41438.60
784.64	41811.33
784.83	41862.53
785.01	41977.22
785.19	41846.15
785.37	41825.67
785.55	41555.33
785.74	41397.64
785.92	41364.87
786.10	41653.64
786.28	41627.01
786.46	41483.66
786.64	41086.35
786.83	41530.76
787.01	41543.05
787.19	41667.97
787.37	41713.03
787.55	41031.05
787.74	41313.67
787.92	41364.87
788.10	41002.38
788.28	41178.51
788.46	41254.28
788.64	41196.94
788.82	41604.49
789.01	41088.40
789.19	41477.51
789.37	41383.30
789.55	40768.91
789.73	40682.90
789.91	40754.58
790.09	41094.54
790.28	40961.42
790.46	40811.92
790.64	40646.04
790.82	40465.81
791.00	40445.33
791.18	40693.14
791.36	40787.35
791.55	40871.31
791.73	40557.97
791.91	40471.96
792.09	40408.47
792.27	40138.14
792.45	40068.51
792.63	40359.32
792.81	39972.25
793.00	40220.06
793.18	40220.06
793.36	39787.94
793.54	39724.45
793.72	39310.76
793.90	39298.47
794.08	39323.05
794.26	39456.17
794.44	39343.53
794.62	39349.67
794.81	39327.14
794.99	39228.84
795.17	38962.61
795.35	39204.27
795.53	39013.80
795.71	39069.10
795.89	38780.34
796.07	38692.27
796.25	38679.99
796.43	38436.28
796.61	38770.10
796.80	38323.64
796.98	38311.35
797.16	38225.34
797.34	38323.64
797.52	38198.71
797.70	38622.64
797.88	37961.15
798.06	37959.10
798.24	37905.85
798.42	37901.76
798.60	37852.61
798.78	37830.08
798.96	38124.99
799.14	37424.58
799.32	37549.51
799.51	37144.01
799.69	37453.25
799.87	37703.10
800.05	36957.64
800.23	37336.52
800.41	36894.16
800.59	36963.79
800.77	36787.66
800.95	36566.48
801.13	36855.25
801.31	36791.76
801.49	37236.17
801.67	36509.14
801.85	36664.78
802.03	36533.71
802.21	36572.63
802.39	36058.59
802.57	36599.25
802.75	36103.64
802.93	35864.03
803.11	36138.46
803.29	35935.71
803.47	35583.46
803.65	36034.01
803.83	35716.58
804.01	35524.07
804.19	35143.14
804.37	35497.44
804.55	35266.02
804.73	35569.12
804.91	35491.30
805.09	35470.82
805.27	35218.92
805.45	35210.73
805.63	35321.32
805.81	34838.00
805.99	35190.25
806.17	35134.95
806.35	34725.36
806.53	34729.45
806.71	34586.10
806.89	34878.96
807.07	34823.66
807.25	34840.04
807.43	34600.43
807.61	34850.28
807.79	34319.86
807.97	34090.49
808.15	34127.35
808.33	33902.07
808.51	33959.42
808.69	33926.65
808.87	33908.22
809.05	34010.62
809.23	33551.87
809.41	33533.44
809.59	33476.10
809.77	33771.00
809.95	33459.71
810.13	33512.96
810.31	33302.02
810.49	33519.10
810.67	33213.96
810.84	33621.50
811.02	33256.96
811.20	32697.87
811.38	33234.44
811.56	32849.42
811.74	32822.80
811.92	33023.50
812.10	32929.29
812.28	33070.60
812.46	32730.64
812.64	32669.20
812.82	32353.81
813.00	32624.14
813.18	32562.70
813.36	32382.48
813.53	31929.88
813.71	32355.86
813.89	32294.42
814.07	32744.97
814.25	32157.21
814.43	32269.84
814.61	32040.47
814.79	32050.71
814.97	31979.03
815.15	32204.31
815.33	31888.92
815.50	31284.77
815.68	31907.35
815.86	31929.88
816.04	31501.86
816.22	31575.58
816.40	31704.60
816.58	31421.98
816.76	31491.62
816.94	31610.40
817.11	31258.15
817.29	31612.45
817.47	31292.96
817.65	31217.19
817.83	31264.29
818.01	30914.09
818.19	30854.70
818.37	31227.43
818.54	30854.70
818.72	30864.94
818.90	31028.77
819.08	30662.19
819.26	31067.69
819.44	30670.38
819.62	30551.60
819.80	30567.98
819.97	30291.51
820.15	30592.56
820.33	30590.51
820.51	30678.57
820.69	30223.92
820.87	30242.35
821.05	30553.65
821.22	30285.36
821.40	30496.30
821.58	29988.41
821.76	30094.90
821.94	30101.04
822.12	30334.51
822.29	30193.20
822.47	29832.76
822.65	30037.56
822.83	30035.51
823.01	29951.54
823.19	29699.64
823.36	29632.06
823.54	29337.15
823.72	29552.19
823.90	29314.62
824.08	29500.99
824.25	29646.40
824.43	29390.40
824.61	29466.17
824.79	29447.74
824.97	29576.76
825.15	29175.36
825.32	29369.92
825.50	29009.48
825.68	29183.55
825.86	29228.61
826.04	29363.78
826.21	29161.03
826.39	28747.34
826.57	28921.41
826.75	28896.84
826.93	28991.05
827.10	28839.50
827.28	29154.88
827.46	29005.38
827.64	28864.07
827.81	28513.87
827.99	29005.38
828.17	28472.91
828.35	28591.69
828.53	28399.18
828.70	28388.94
828.88	28401.23
829.06	28606.03
829.24	28571.21
829.41	28300.88
829.59	28448.33
829.77	28360.27
829.95	28251.73
830.12	28245.58
830.30	28325.46
830.48	28221.01
830.66	27979.35
830.84	27901.53
831.01	27911.77
831.19	28169.81
831.37	28112.47
831.55	27647.58
831.72	27911.77
831.90	27723.35
832.08	27895.38
832.25	27721.30
832.43	27811.42
832.61	27608.67
832.79	27438.69
832.96	27549.28
833.14	27416.16
833.32	27989.59
833.50	27635.29
833.67	27700.83
833.85	27461.21
834.03	27203.17
834.20	27453.02
834.38	27670.11
834.56	27469.40
834.74	27190.88
834.91	27364.96
835.09	27371.10
835.27	27141.73
835.44	26830.44
835.62	26809.96
835.80	26947.17
835.98	26867.30
836.15	27031.14
836.33	26742.38
836.51	27059.81
836.68	26730.09
836.86	26979.94
837.04	27133.54
837.21	26832.49
837.39	26822.25
837.57	27039.33
837.75	26889.83
837.92	26383.98
838.10	26451.56
838.28	26236.53
838.45	26470.00
838.63	26642.03
838.81	26621.55
838.98	26343.02
839.16	26445.42
839.34	26310.25
839.51	26300.01
839.69	25714.30
839.87	26314.35
840.04	26265.20
840.22	26297.97
840.40	26199.66
840.57	25937.52
840.75	25826.93
840.93	25630.33
841.10	25974.39
841.28	26142.32
841.46	25728.63
841.63	26027.63
841.81	25550.46
841.98	25915.00
842.16	25990.77
842.34	25714.30
842.51	25486.97
842.69	25642.62
842.87	25882.23
843.04	25919.09
843.22	25333.37
843.40	25126.53
843.57	25099.90
843.75	25503.35
843.92	25431.68
844.10	25724.54
844.28	25386.62
844.45	25517.69
844.63	25552.51
844.81	25089.67
844.98	25521.79
845.16	25366.14
845.33	25316.99
845.51	25067.14
845.69	25079.43
845.86	24974.98
846.04	24966.79
846.21	24716.93
846.39	24813.19
846.57	24833.67
846.74	24862.34
846.92	24626.82
847.09	24450.70
847.27	24456.84
847.45	24485.51
847.62	24721.03
847.80	24862.34
847.97	24784.52
848.15	24747.65
848.32	24168.08
848.50	24532.62
848.68	24233.61
848.85	24696.46
849.03	24196.75
849.20	24178.32
849.38	24323.72
849.56	24448.65
849.73	24133.26
849.91	24032.91
850.08	24659.59
850.26	23828.12
850.43	24282.77
850.61	23953.04
850.78	23991.95
850.96	23914.13
851.14	23717.53
851.31	24123.02
851.49	23864.98
851.66	24145.55
851.84	23983.76
852.01	23719.57
852.19	23977.62
852.36	23776.92
852.54	23783.06
852.71	23871.12
852.89	23649.94
853.07	23967.38
853.24	23557.78
853.42	23809.68
853.59	23484.06
853.77	23727.77
853.94	23623.32
854.12	23658.14
854.29	23027.36
854.47	23340.70
854.64	23199.39
854.82	23588.50
854.99	23303.84
855.17	23160.48
855.34	23084.70
855.52	23402.14
855.69	23467.67
855.87	23084.70
856.04	23088.80
856.22	23004.83
856.39	22750.88
856.57	22994.59
856.74	22906.53
856.92	23086.75
857.09	22949.54
857.27	23066.27
857.44	23219.87
857.62	22978.21
857.79	23223.97
857.97	22685.35
858.14	22814.37
858.32	22918.82
858.49	22566.57
858.67	22761.12
858.84	22605.48
859.02	22609.58
859.19	22818.47
859.37	22056.62
859.54	22318.76
859.72	22488.74
859.89	22206.13
860.06	22550.18
860.24	22335.15
860.41	22558.38
860.59	22242.99
860.76	22462.12
860.94	22138.54
861.11	22306.48
861.29	22503.08
861.46	22406.83
861.64	22068.91
861.81	21986.99
861.98	22056.62
862.16	22046.38
862.33	21982.90
862.51	21890.74
862.68	22195.89
862.86	21882.55
863.03	21690.04
863.21	21825.20
863.38	21683.89
863.55	21726.90
863.73	21782.20
863.90	21503.67
864.08	21386.94
864.25	21630.65
864.43	21702.32
864.60	21333.69
864.77	21536.44
864.95	21544.63
865.12	21214.91
865.30	21614.26
865.47	21216.96
865.64	21169.85
865.82	20971.20
865.99	21429.94
866.17	21145.28
866.34	21339.83
866.51	21069.50
866.69	21057.21
866.86	21395.13
867.04	21067.45
867.21	20897.47
867.38	20940.48
867.56	20799.17
867.73	20958.91
867.91	20885.19
868.08	20608.71
868.25	21085.89
868.43	20653.76
868.60	20502.22
868.78	20201.16
868.95	20915.90
869.12	20600.52
869.30	20666.05
869.47	20573.89
869.64	20471.50
869.82	20180.68
869.99	20278.99
870.16	20831.94
870.34	20500.17
870.51	20219.60
870.69	20145.87
870.86	20152.01
871.03	20102.86
871.21	19844.82
871.38	20348.62
871.55	20020.94
871.73	20180.68
871.90	20020.94
872.07	19826.39
872.25	19883.73
872.42	19797.71
872.59	19959.50
872.77	19816.15
872.94	20033.23
873.11	19834.58
873.29	19949.26
873.46	19650.26
873.63	19648.21
873.81	20010.70
873.98	19359.45
874.15	19625.68
874.33	19513.05
874.50	19082.97
874.67	19373.78
874.85	19488.47
875.02	19298.01
875.19	19087.07
875.37	19252.95
875.54	19136.22
875.71	18962.14
875.88	19085.02
876.06	19107.55
876.23	18917.09
876.40	18794.21
876.58	18771.68
876.75	18927.33
876.92	18652.90
877.10	18800.35
877.27	19050.21
877.44	18667.24
877.61	18706.15
877.79	18435.81
877.96	18548.45
878.13	18345.70
878.31	18151.15
878.48	18343.66
878.65	18304.74
878.82	18093.80
879.00	18527.97
879.17	18419.43
879.34	18214.63
879.51	18056.94
879.69	18104.04
879.86	17895.15
880.03	17903.34
880.21	18058.99
880.38	17747.70
880.55	17981.17
880.72	18009.84
880.90	17874.67
881.07	17868.53
881.24	17938.16
881.41	17833.71
881.59	17981.17
881.76	17628.92
881.93	17624.82
882.10	17626.87
882.28	17469.17
882.45	17710.83
882.62	17616.63
882.79	17762.03
882.96	17430.26
883.14	17549.04
883.31	17473.27
883.48	17417.97
883.65	17338.10
883.83	17460.98
884.00	17450.74
884.17	17329.91
884.34	17372.92
884.51	17200.89
884.69	17254.14
884.86	17528.56
885.03	17254.14
885.20	17207.03
885.38	17149.69
885.55	17131.26
885.72	17303.29
885.89	17186.55
886.06	16989.95
886.24	16867.07
886.41	17084.16
886.58	17037.05
886.75	17047.29
886.92	16871.17
887.10	16955.13
887.27	16705.28
887.44	16774.91
887.61	16969.47
887.78	17192.70
887.95	17065.72
888.13	16948.99
888.30	16897.79
888.47	16465.67
888.64	16975.61
888.81	16834.30
888.99	16658.18
889.16	16461.57
889.33	16486.15
889.50	16334.60
889.67	16539.40
889.84	16357.13
890.01	16445.19
890.19	16473.86
890.36	16477.96
890.53	16434.95
890.70	16078.60
890.87	16320.26
891.04	16072.46
891.22	16080.65
891.39	16103.18
891.56	16162.57
891.73	16070.41
891.90	16228.10
892.07	15836.94
892.24	16054.03
892.42	15855.37
892.59	15970.06
892.76	15834.89
892.93	15634.19
893.10	15781.65
893.27	16049.93
893.44	15677.20
893.61	15929.10
893.79	16002.83
893.96	15812.37
894.13	15617.81
894.30	15728.40
894.47	15505.17
894.64	15789.84
894.81	15480.60
894.98	15587.09
895.15	15660.82
895.33	15634.19
895.50	15707.92
895.67	15761.17
895.84	15601.43
896.01	15486.74
896.18	15537.94
896.35	15808.27
896.52	15582.99
896.69	15464.21
896.86	15525.65
897.04	15738.64
897.21	15552.27
897.38	15361.81
897.55	15456.02
897.72	15566.61
897.89	15439.64
898.06	15337.24
898.23	15189.78
898.40	15253.27
898.57	15638.29
898.74	15609.62
898.91	15525.65
899.08	15251.22
899.26	15544.08
899.43	15431.44
899.60	15466.26
899.77	15263.51
899.94	15423.25
900.11	15337.24
900.28	15331.09
900.45	15200.02
900.62	15267.61
900.79	15249.18
900.96	15339.29
901.13	15429.40
901.30	15247.13
901.47	15169.30
901.64	15372.05
901.81	15648.53
901.98	15142.68
902.15	15445.78
902.32	15052.57
902.49	15175.45
902.66	15294.23
902.83	15218.46
903.01	15169.30
903.18	15230.74
903.35	15451.92
903.52	15294.23
903.69	15236.89
903.86	15388.44
904.03	15300.37
904.20	15296.28
904.37	15427.35
904.54	15132.44
904.71	15202.07
904.88	15245.08
905.05	14997.28
905.22	15216.41
905.39	15263.51
905.56	15046.43
905.73	15300.37
905.90	15089.43
906.07	15114.01
906.24	15249.18
906.41	15218.46
906.58	15234.84
906.75	15150.87
906.92	14780.19
907.09	14954.27
907.26	15179.54
907.43	15062.81
907.60	14853.92
907.77	15120.15
907.93	15226.65
908.10	14790.43
908.27	15073.05
908.44	14858.01
908.61	14925.60
908.78	15171.35
908.95	15032.09
909.12	14782.24
909.29	14993.18
909.46	14995.23
909.63	15046.43
909.80	14972.70
909.97	15077.15
910.14	15089.43
910.31	14851.87
910.48	14853.92
910.65	14829.34
910.82	14640.93
910.99	14872.35
911.16	15200.02
911.33	14851.87
911.50	14823.20
911.66	14774.05
911.83	14911.26
912.00	14489.38
912.17	14411.56
912.34	14499.62
912.51	14667.55
912.68	14438.18
912.85	14628.64
913.02	14640.93
913.19	14378.79
913.36	14581.54
913.53	14362.40
913.70	14354.21
913.86	14649.12
914.03	14522.15
914.20	14296.87
914.37	14362.40
914.54	14210.86
914.71	14307.11
914.88	14313.25
915.05	14204.71
915.22	14444.32
915.39	14300.97
915.55	14284.58
915.72	14194.47
915.89	13856.56
916.06	13860.65
916.23	14051.11
916.40	14010.15
916.57	13686.58
916.74	13748.01
916.91	13803.31
917.07	13741.87
917.24	13657.90
917.41	13688.62
917.58	13662.00
917.75	13565.74
917.92	13526.83
918.09	13623.09
918.26	13223.73
918.42	13387.57
918.59	13379.38
918.76	13279.03
918.93	13231.93
919.10	13399.86
919.27	13182.77
919.44	13260.60
919.60	13328.18
919.77	13176.63
919.94	12973.88
920.11	13156.15
920.28	12914.49
920.45	12797.76
920.61	12846.91
920.78	13129.53
920.95	12812.09
921.12	12986.17
921.29	12638.02
921.46	12724.03
921.62	12678.97
921.79	12787.52
921.96	12566.34
922.13	12701.50
922.30	12554.05
922.47	12492.61
922.63	12422.98
922.80	12363.59
922.97	12183.37
923.14	12171.08
923.31	12300.10
923.47	12379.97
923.64	12306.24
923.81	12076.87
923.98	12287.81
924.15	12011.34
924.32	12078.92
924.48	12095.30
924.65	12156.74
924.82	11947.85
924.99	11712.33
925.15	11700.05
925.32	12058.44
925.49	11509.58
925.66	11671.37
925.83	11779.92
925.99	11654.99
926.16	11513.68
926.33	11433.81
926.50	11241.30
926.67	11689.81
926.83	11325.27
927.00	11255.64
927.17	11194.20
927.34	10819.42
927.50	10995.54
927.67	11116.37
927.84	11204.44
928.01	11020.12
928.17	10923.87
928.34	11081.56
928.51	10848.09
928.68	10690.40
928.84	10790.75
929.01	10788.70
929.18	10776.41
929.35	10696.54
929.51	10620.77
929.68	10506.08
929.85	10526.56
930.02	10651.49
930.18	10444.64
930.35	10544.99
930.52	10413.92
930.69	10303.33
930.85	10354.53
931.02	10053.48
931.19	10192.74
931.36	10131.30
931.52	10076.01
931.69	10086.25
931.86	10129.25
932.02	10139.49
932.19	9914.22
932.36	9867.11
932.53	9703.28
932.69	9736.04
932.86	9768.81
933.03	9914.22
933.19	9340.79
933.36	9504.62
933.53	9586.54
933.70	9619.31
933.86	9408.37
934.03	9566.06
934.20	9348.98
934.36	9320.31
934.53	9088.89
934.70	9009.01
934.86	9105.27
935.03	9121.65
935.20	8867.70
935.36	9002.87
935.53	8746.87
935.70	8910.71
935.86	8697.72
936.03	8634.24
936.20	8429.44
936.36	8490.88
936.53	8519.55
936.70	8292.23
936.86	8372.10
937.03	8175.49
937.20	8009.61
937.36	8025.99
937.53	7974.79
937.70	7919.50
937.86	7749.51
938.03	7743.37
938.20	7817.10
938.36	7518.09
938.53	7600.01
938.70	7393.17
938.86	7298.96
939.03	7307.15
939.20	7321.49
939.36	7176.08
939.53	7040.92
939.70	7274.38
939.86	6881.18
940.03	6754.20
940.19	6657.95
940.36	6627.23
940.53	6731.67
940.69	6492.06
940.86	6637.47
941.03	6391.71
941.19	6297.50
941.36	6219.68
941.52	6254.50
941.69	6244.26
941.86	6115.23
942.02	5996.45
942.19	5959.59
942.35	6059.94
942.52	6006.69
942.69	5859.24
942.85	5926.82
943.02	5636.01
943.18	5775.27
943.35	5740.46
943.52	5685.16
943.68	5859.24
943.85	5570.48
944.01	5711.78
944.18	5478.32
944.35	5633.96
944.51	5371.82
944.68	5429.17
944.84	5373.87
945.01	5437.36
945.17	5306.29
945.34	5412.78
945.51	5412.78
945.67	5250.99
945.84	5369.77
946.00	5234.61
946.17	5296.05
946.33	5124.02
946.50	5279.66
946.67	5177.26
946.83	5320.62
947.00	5343.15
947.16	5177.26
947.33	5181.36
947.49	5263.28
947.66	5126.07
947.82	5250.99
947.99	5253.04
948.16	5236.66
948.32	5248.94
948.49	5341.10
948.65	5263.28
948.82	5218.22
948.98	5167.03
949.15	5156.79
949.31	5128.11
949.48	5261.23
949.64	5263.28
949.81	5205.94
949.97	5099.44
950.14	5320.62
950.30	5191.60
950.47	5173.17
950.63	5257.14
950.80	5283.76
950.96	5277.62
951.13	5318.57
951.30	5369.77
951.46	5408.69
951.63	5388.21
951.79	5263.28
951.96	5300.14
952.12	5244.85
952.29	5361.58
952.45	5146.55
952.62	5253.04
952.78	5289.90
952.94	5189.55
953.11	5205.94
953.27	5105.59
953.44	5279.66
953.60	5324.72
953.77	5337.01
953.93	5320.62
954.10	5304.24
954.26	5402.54
954.43	5277.62
954.59	5124.02
954.76	5502.89
954.92	5318.57
955.09	5478.32
955.25	5230.51
955.42	5394.35
955.58	5357.49
955.75	5294.00
955.91	5326.77
956.07	5384.11
956.24	5197.74
956.40	5380.01
956.57	5341.10
956.73	5353.39
956.90	5365.68
957.06	5314.48
957.23	5267.38
957.39	5384.11
957.56	5343.15
957.72	5177.26
957.88	5238.70
958.05	5439.40
958.21	5371.82
958.38	5371.82
958.54	5294.00
958.71	5541.80
958.87	5371.82
959.03	5398.45
959.20	5468.08
959.36	5191.60
959.53	5408.69
959.69	5267.38
959.85	5476.27
960.02	5392.30
960.18	5279.66
960.35	5373.87
960.51	5351.34
960.68	5267.38
960.84	5439.40
961.00	5396.40
961.17	5355.44
961.33	5296.05
961.50	5394.35
961.66	5402.54
961.82	5359.53
961.99	5384.11
962.15	5433.26
962.31	5253.04
962.48	5304.24
962.64	5367.73
962.81	5459.88
962.97	5179.31
963.13	5447.60
963.30	5365.68
963.46	5316.53
963.62	5306.29
963.79	5255.09
963.95	5304.24
964.12	5343.15
964.28	5468.08
964.44	5220.27
964.61	5302.19
964.77	5306.29
964.93	5390.25
965.10	5326.77
965.26	5242.80
965.42	5230.51
965.59	5339.05
965.75	5185.46
965.92	5316.53
966.08	5234.61
966.24	5248.94
966.41	5066.67
966.57	5279.66
966.73	5232.56
966.90	5257.14
967.06	5232.56
967.22	5089.20
967.39	5339.05
967.55	5099.44
967.71	5189.55
967.88	5027.76
968.04	5083.06
968.20	5130.16
968.37	5148.59
968.53	4982.71
968.69	5115.83
968.85	5230.51
969.02	5195.70
969.18	5093.30
969.34	5050.29
969.51	5189.55
969.67	5144.50
969.83	5040.05
970.00	5119.92
970.16	4857.78
970.32	4999.09
970.48	5171.12
970.65	4939.70
970.81	4904.89
970.97	5056.43
971.14	4771.77
971.30	5056.43
971.46	4695.99
971.63	4779.96
971.79	5027.76
971.95	4980.66
972.11	4853.69
972.28	4999.09
972.44	4790.20
972.60	4822.97
972.76	4773.82
972.93	4908.98
973.09	4808.63
973.25	4878.26
973.42	4927.41
973.58	4915.12
973.74	4827.06
973.90	4898.74
974.07	4765.62
974.23	4763.58
974.39	4749.24
974.55	4732.86
974.72	4736.95
974.88	4548.54
975.04	4751.29
975.20	4652.98
975.37	4655.03
975.53	4630.46
975.69	4726.71
975.85	4698.04
976.01	4665.27
976.18	4534.20
976.34	4632.51
976.50	4718.52
976.66	4677.56
976.83	4632.51
976.99	4638.65
977.15	4616.12
977.31	4538.30
977.47	4612.03
977.64	4511.68
977.80	4466.62
977.96	4548.54
978.12	4605.88
978.29	4523.96
978.45	4501.44
978.61	4607.93
978.77	4532.15
978.93	4470.72
979.10	4474.81
979.26	4591.55
979.42	4458.43
979.58	4378.56
979.74	4450.24
979.91	4405.18
980.07	4372.41
980.23	4310.97
980.39	4384.70
980.55	4353.98
980.71	4417.47
980.88	4317.12
981.04	4257.73
981.20	4335.55
981.36	4378.56
981.52	4337.60
981.68	4237.25
981.85	4329.41
982.01	4388.80
982.17	4251.58
982.33	4204.48
982.49	4313.02
982.65	4165.57
982.82	4329.41
982.98	4272.06
983.14	4220.86
983.30	4204.48
983.46	4218.82
983.62	4233.15
983.79	4239.30
983.95	4143.04
984.11	4231.10
984.27	4149.18
984.43	4192.19
984.59	4179.90
984.75	4132.80
984.91	4040.64
985.08	4147.14
985.24	4083.65
985.40	4089.79
985.56	4054.98
985.72	4104.13
985.88	4065.22
986.04	3968.96
986.20	3997.64
986.37	4024.26
986.53	3885.00
986.69	4063.17
986.85	4050.88
987.01	4057.03
987.17	4095.94
987.33	4001.73
987.49	3968.96
987.65	3960.77
987.82	3923.91
987.98	3825.61
988.14	3848.13
988.30	3962.82
988.46	3882.95
988.62	3932.10
988.78	3864.52
988.94	3794.89
989.10	3809.22
989.26	3827.65
989.42	3919.81
989.59	3815.37
989.75	3815.37
989.91	3928.00
990.07	3622.86
990.23	3704.78
990.39	3682.25
990.55	3829.70
990.71	3747.78
990.87	3733.45
991.03	3715.02
991.19	3688.39
991.35	3764.17
991.51	3811.27
991.67	3807.17
991.83	3608.52
992.00	3725.26
992.16	3702.73
992.32	3708.87
992.48	3743.69
992.64	3545.03
992.80	3614.66
992.96	3641.29
993.12	3598.28
993.28	3624.90
993.44	3641.29
993.60	3682.25
993.76	3690.44
993.92	3637.19
994.08	3704.78
994.24	3641.29
994.40	3522.51
994.56	3563.47
994.72	3561.42
994.88	3497.93
995.04	3493.83
995.20	3465.16
995.36	3469.26
995.52	3432.40
995.68	3540.94
995.84	3424.20
996.00	3676.10
996.16	3424.20
996.32	3389.39
996.48	3385.29
996.64	3491.79
996.80	3456.97
996.96	3465.16
997.12	3354.57
997.28	3416.01
997.44	3327.95
997.60	3383.24
997.76	3387.34
997.92	3373.00
998.08	3368.91
998.24	3172.30
998.40	3342.28
998.56	3362.76
998.72	3336.14
998.88	3313.61
999.04	3284.94
999.20	3444.68
999.36	3194.83
999.52	3168.21
999.68	3237.84
999.84	3309.52
1000.00	3321.81
1000.16	3237.84
1000.32	3194.83
1000.48	3262.41
1000.64	3248.08
1000.80	3221.45
1000.95	3145.68
1001.11	3203.02
1001.27	3133.39
1001.43	3190.74
1001.59	3096.53
1001.75	3114.96
1001.91	3289.04
1002.07	3035.09
1002.23	3047.38
1002.39	3043.28
1002.55	3084.24
1002.71	3114.96
1002.87	3080.14
1003.03	3053.52
1003.19	3043.28
1003.34	3141.58
1003.50	3022.80
1003.66	3129.30
1003.82	2992.08
1003.98	3143.63
1004.14	3004.37
1004.30	3000.27
1004.46	3053.52
1004.62	3020.75
1004.78	2981.84
1004.94	2963.41
1005.09	2998.23
1005.25	3104.72
1005.41	2994.13
1005.57	3045.33
1005.73	2936.79
1005.89	2949.08
1006.05	3028.95
1006.21	2977.75
1006.37	2908.12
1006.52	2879.44
1006.68	2861.01
1006.84	2973.65
1007.00	2834.39
1007.16	2930.64
1007.32	2838.48
1007.48	2895.83
1007.64	2940.88
1007.79	2852.82
1007.95	2811.86
1008.11	2959.31
1008.27	2711.51
1008.43	2949.08
1008.59	2861.01
1008.75	2973.65
1008.91	2951.12
1009.06	2793.43
1009.22	2772.95
1009.38	2803.67
1009.54	2926.55
1009.70	2754.52
1009.86	2791.38
1010.01	2861.01
1010.17	2742.23
1010.33	2850.77
1010.49	2707.41
1010.65	2813.91
1010.81	2750.42
1010.96	2744.28
1011.12	2695.13
1011.28	2639.83
1011.44	2746.33
1011.60	2660.31
1011.76	2654.17
1011.91	2768.85
1012.07	2566.10
1012.23	2684.89
1012.39	2668.50
1012.55	2727.89
1012.71	2598.87
1012.86	2682.84
1013.02	2588.63
1013.18	2666.46
1013.34	2623.45
1013.50	2766.81
1013.65	2529.24
1013.81	2521.05
1013.97	2547.67
1014.13	2658.26
1014.29	2652.12
1014.44	2686.94
1014.60	2527.19
1014.76	2580.44
1014.92	2514.91
1015.07	2621.40
1015.23	2607.06
1015.39	2541.53
1015.55	2662.36
1015.71	2498.52
1015.86	2529.24
1016.02	2484.19
1016.18	2492.38
1016.34	2516.95
1016.49	2488.28
1016.65	2519.00
1016.81	2420.70
1016.97	2457.56
1017.12	2523.10
1017.28	2502.62
1017.44	2475.99
1017.60	2486.23
1017.75	2439.13
1017.91	2478.04
1018.07	2424.80
1018.23	2461.66
1018.38	2449.37
1018.54	2418.65
1018.70	2412.51
1018.86	2322.40
1019.01	2455.51
1019.17	2447.32
1019.33	2488.28
1019.49	2453.47
1019.64	2394.08
1019.80	2418.65
1019.96	2441.18
1020.12	2365.40
1020.27	2246.62
1020.43	2351.07
1020.59	2369.50
1020.74	2416.60
1020.90	2351.07
1021.06	2308.06
1021.22	2312.16
1021.37	2367.45
1021.53	2260.96
1021.69	2367.45
1021.84	2293.72
1022.00	2344.92
1022.16	2211.81
1022.31	2295.77
1022.47	2332.64
1022.63	2344.92
1022.79	2244.57
1022.94	2342.88
1023.10	2222.05
1023.26	2289.63
1023.41	2351.07
1023.57	2289.63
1023.73	2269.15
1023.88	2267.10
1024.04	2228.19
1024.20	2117.60
1024.35	2207.71
1024.51	2267.10
1024.67	2246.62
1024.82	2326.49
1024.98	2127.84
1025.14	2273.25
1025.29	2252.77
1025.45	2230.24
1025.61	2269.15
1025.76	2191.33
1025.92	2189.28
1026.08	2316.25
1026.23	2263.01
1026.39	2232.29
1026.55	2156.51
1026.70	2156.51
1026.86	2136.03
1027.02	2195.42
1027.17	2189.28
1027.33	2129.89
1027.48	2043.87
1027.64	2093.02
1027.80	2119.65
1027.95	2295.77
1028.11	2027.49
1028.27	2152.42
1028.42	2166.75
1028.58	2133.98
1028.73	2185.18
1028.89	2045.92
1029.05	2242.53
1029.20	2093.02
>>>>>End Processed Spectral Data<<<<<
