SpectraSuite Data File
++++++++++++++++++++++++++++++++++++
Date: Fri Jun 02 14:53:33 CEST 2017
User: INFO_000
Dark Spectrum Present: No
Reference Spectrum Present: No
Number of Sampled Component Spectra: 1
Spectrometers: USB4H00879
Integration Time (usec): 80000 (USB4H00879)
Spectra Averaged: 1 (USB4H00879)
Boxcar Smoothing: 0 (USB4H00879)
Correct for Electrical Dark: No (USB4H00879)
Strobe/Lamp Enabled: No (USB4H00879)
Correct for Detector Non-linearity: No (USB4H00879)
Correct for Stray Light: No (USB4H00879)
Number of Pixels in Processed Spectrum: 3648
>>>>>Begin Processed Spectral Data<<<<<
345.13	1343.47
345.34	1343.47
345.56	1343.47
345.78	1306.60
345.99	1320.94
346.21	1699.81
346.42	1732.58
346.64	1630.18
346.86	1806.31
347.07	1720.29
347.29	1699.81
347.50	1646.57
347.72	1667.05
347.94	1767.40
348.15	1658.85
348.37	1624.04
348.59	1667.05
348.80	1638.38
349.02	1746.92
349.23	1863.65
349.45	1843.17
349.67	1894.37
349.88	1818.60
350.10	1900.52
350.31	1906.66
350.53	1871.84
350.75	1945.57
350.96	1787.88
351.18	1884.13
351.39	1867.75
351.61	1761.25
351.82	1839.08
352.04	1888.23
352.26	1828.84
352.47	1900.52
352.69	1898.47
352.90	1687.53
353.12	1841.12
353.34	1785.83
353.55	1886.18
353.77	1867.75
353.98	1814.50
354.20	1847.27
354.41	1916.90
354.63	2000.87
354.85	1984.48
355.06	1945.57
355.28	1785.83
355.49	1927.14
355.71	1923.04
355.92	1861.60
356.14	1906.66
356.35	1910.75
356.57	1857.51
356.79	1959.91
357.00	1855.46
357.22	1984.48
357.43	1853.41
357.65	1951.71
357.86	1824.74
358.08	1964.00
358.29	1943.52
358.51	1953.76
358.72	2021.35
358.94	1927.14
359.16	1904.61
359.37	1968.10
359.59	1894.37
359.80	1994.72
360.02	2041.82
360.23	1937.38
360.45	2103.26
360.66	1904.61
360.88	1845.22
361.09	1949.67
361.31	2050.02
361.52	1955.81
361.74	2025.44
361.95	2109.41
362.17	1955.81
362.38	2181.09
362.60	2007.01
362.81	1972.19
363.03	1976.29
363.24	1941.47
363.46	2076.64
363.67	1955.81
363.89	2076.64
364.10	1978.34
364.32	1935.33
364.53	2045.92
364.75	1882.08
364.96	1984.48
365.18	2011.11
365.39	2023.39
365.61	1968.10
365.82	2162.66
366.04	1959.91
366.25	1933.28
366.47	2021.35
366.68	2103.26
366.90	2019.30
367.11	2131.94
367.33	2119.65
367.54	2052.06
367.76	2031.58
367.97	2125.79
368.19	2090.98
368.40	2115.55
368.62	1988.58
368.83	1964.00
369.05	2189.28
369.26	1994.72
369.48	1994.72
369.69	1982.43
369.91	2099.17
370.12	2064.35
370.33	2064.35
370.55	1992.67
370.76	2088.93
370.98	2084.83
371.19	2131.94
371.41	2052.06
371.62	2045.92
371.84	2004.96
372.05	2187.23
372.27	2023.39
372.48	2107.36
372.69	2111.46
372.91	2156.51
373.12	2183.13
373.34	2068.45
373.55	2156.51
373.77	2230.24
373.98	2107.36
374.20	2148.32
374.41	2258.91
374.62	2146.27
374.84	2197.47
375.05	2203.61
375.27	2234.33
375.48	2152.42
375.70	2115.55
375.91	2265.05
376.12	2363.36
376.34	2136.03
376.55	2193.37
376.77	2197.47
376.98	2066.40
377.19	2117.60
377.41	2303.96
377.62	2265.05
377.84	2158.56
378.05	2248.67
378.27	2199.52
378.48	2389.98
378.69	2328.54
378.91	2381.79
379.12	2256.86
379.34	2236.38
379.55	2277.34
379.76	2295.77
379.98	2279.39
380.19	2277.34
380.41	2277.34
380.62	2291.68
380.83	2238.43
381.05	2273.25
381.26	2383.84
381.47	2351.07
381.69	2332.64
381.90	2455.51
382.12	2371.55
382.33	2281.44
382.54	2381.79
382.76	2338.78
382.97	2269.15
383.19	2260.96
383.40	2447.32
383.61	2346.97
383.83	2303.96
384.04	2322.40
384.25	2396.12
384.47	2447.32
384.68	2426.84
384.89	2332.64
385.11	2365.40
385.32	2338.78
385.54	2402.27
385.75	2371.55
385.96	2383.84
386.18	2340.83
386.39	2437.08
386.60	2344.92
386.82	2465.75
387.03	2523.10
387.24	2461.66
387.46	2516.95
387.67	2463.71
387.88	2537.43
388.10	2525.15
388.31	2459.61
388.52	2562.01
388.74	2578.39
388.95	2521.05
389.16	2537.43
389.38	2519.00
389.59	2650.07
389.80	2670.55
390.02	2619.35
390.23	2658.26
390.44	2605.02
390.66	2500.57
390.87	2572.25
391.08	2543.58
391.30	2650.07
391.51	2639.83
391.72	2707.41
391.94	2633.69
392.15	2623.45
392.36	2668.50
392.58	2652.12
392.79	2719.70
393.00	2744.28
393.22	2781.14
393.43	2738.13
393.64	2785.24
393.85	2713.56
394.07	2723.80
394.28	2684.89
394.49	2770.90
394.71	2738.13
394.92	2828.24
395.13	2729.94
395.35	2693.08
395.56	2740.18
395.77	2789.33
395.98	2811.86
396.20	2908.12
396.41	2914.26
396.62	2926.55
396.84	2869.20
397.05	2805.72
397.26	2918.36
397.47	2955.22
397.69	2910.16
397.90	2973.65
398.11	2971.60
398.32	2811.86
398.54	2815.96
398.75	2932.69
398.96	2942.93
399.18	3104.72
399.39	2998.23
399.60	2987.99
399.81	2977.75
400.03	3018.71
400.24	3119.06
400.45	2998.23
400.66	3119.06
400.88	3008.47
401.09	3198.93
401.30	3082.19
401.51	3117.01
401.73	3166.16
401.94	3194.83
402.15	3186.64
402.36	3170.26
402.58	3229.65
402.79	3135.44
403.00	3252.17
403.21	3276.75
403.43	3248.08
403.64	3200.98
403.85	3094.48
404.06	3266.51
404.27	3123.15
404.49	3141.58
404.70	3198.93
404.91	3227.60
405.12	3297.23
405.34	3311.57
405.55	3407.82
405.76	3231.69
405.97	3182.54
406.19	3385.29
406.40	3270.61
406.61	3418.06
406.82	3473.36
407.03	3330.00
407.25	3295.18
407.46	3452.88
407.67	3420.11
407.88	3569.61
408.09	3436.49
408.31	3364.81
408.52	3506.12
408.73	3436.49
408.94	3366.86
409.15	3379.15
409.37	3618.76
409.58	3534.79
409.79	3483.59
410.00	3538.89
410.21	3528.65
410.43	3516.36
410.64	3497.93
410.85	3631.05
411.06	3565.51
411.27	3516.36
411.48	3694.54
411.70	3577.80
411.91	3585.99
412.12	3674.06
412.33	3592.14
412.54	3620.81
412.76	3649.48
412.97	3780.55
413.18	3612.62
413.39	3637.19
413.60	3801.03
413.81	3600.33
414.03	3655.62
414.24	3665.86
414.45	3831.75
414.66	3690.44
414.87	3887.04
415.08	3704.78
415.30	3712.97
415.51	3813.32
415.72	3612.62
415.93	3727.30
416.14	3805.13
416.35	3938.24
416.56	3854.28
416.78	3854.28
416.99	3856.33
417.20	3907.52
417.41	3985.35
417.62	3917.76
417.83	4026.31
418.04	3901.38
418.26	3946.44
418.47	3968.96
418.68	4034.50
418.89	4116.42
419.10	4163.52
419.31	4091.84
419.52	4124.61
419.73	4050.88
419.95	4235.20
420.16	3854.28
420.37	4179.90
420.58	4083.65
420.79	3993.54
421.00	4104.13
421.21	4140.99
421.42	3983.30
421.63	4145.09
421.85	4241.34
422.06	4274.11
422.27	4198.34
422.48	4110.27
422.69	4310.97
422.90	4214.72
423.11	4282.30
423.32	4267.97
423.53	4351.93
423.75	4313.02
423.96	4460.48
424.17	4427.71
424.38	4497.34
424.59	4433.85
424.80	4554.68
425.01	4544.44
425.22	4515.77
425.43	4396.99
425.64	4657.08
425.85	4632.51
426.06	4579.26
426.28	4638.65
426.49	4501.44
426.70	4583.35
426.91	4577.21
427.12	4657.08
427.33	4573.11
427.54	4663.22
427.75	4624.31
427.96	4835.25
428.17	4677.56
428.38	4804.53
428.59	4925.36
428.80	4810.68
429.01	4853.69
429.23	4771.77
429.44	5046.20
429.65	4970.42
429.86	4886.45
430.07	4937.65
430.28	4896.69
430.49	5013.43
430.70	5199.79
430.91	5167.03
431.12	5058.48
431.33	5236.66
431.54	5210.03
431.75	5142.45
431.96	5242.80
432.17	5179.31
432.38	5169.07
432.59	5412.78
432.80	5377.97
433.01	5261.23
433.22	5267.38
433.43	5271.47
433.64	5310.38
433.85	5248.94
434.06	5269.42
434.27	5189.55
434.49	5490.60
434.70	5572.52
434.91	5420.97
435.12	5541.80
435.33	5386.16
435.54	5451.69
435.75	5380.01
435.96	5533.61
436.17	5435.31
436.38	5552.04
436.59	5607.34
436.80	5427.12
437.01	5922.73
437.22	5844.90
437.43	5918.63
437.64	5357.49
437.85	5590.95
438.06	5920.68
438.27	5810.09
438.48	5738.41
438.69	5879.72
438.90	5892.01
439.11	5533.61
439.32	5928.87
439.53	5922.73
439.74	5965.73
439.95	5883.81
440.16	5885.86
440.37	5926.82
440.57	6029.22
440.78	6049.70
440.99	6039.46
441.20	5947.30
441.41	5949.35
441.62	6186.91
441.83	5980.07
442.04	6252.45
442.25	6047.65
442.46	6145.95
442.67	6279.07
442.88	6406.05
443.09	6037.41
443.30	6256.54
443.51	6236.06
443.72	6512.54
443.93	6246.30
444.14	6408.09
444.35	6150.05
444.56	6330.27
444.77	6348.70
444.98	6496.16
445.19	6524.83
445.40	6414.24
445.61	6340.51
445.81	6631.32
446.02	6432.67
446.23	6629.27
446.44	6279.07
446.65	6606.75
446.86	6541.21
447.07	6563.74
447.28	6834.07
447.49	6782.87
447.70	6600.60
447.91	6891.41
448.12	6598.56
448.33	7016.34
448.54	6829.98
448.74	6829.98
448.95	6909.85
449.16	6750.10
449.37	7081.88
449.58	6842.26
449.79	6993.81
450.00	6915.99
450.21	7085.97
450.42	7167.89
450.63	7147.41
450.84	7014.29
451.05	6944.66
451.25	7069.59
451.46	7096.21
451.67	7135.12
451.88	7364.50
452.09	7204.75
452.30	7313.30
452.51	7145.36
452.72	7346.06
452.93	7559.05
453.13	7149.46
453.34	7237.52
453.55	7561.10
453.76	7384.98
453.97	7747.47
454.18	7473.04
454.39	7483.28
454.60	7538.57
454.81	7659.40
455.01	7817.10
455.22	7559.05
455.43	7827.34
455.64	7888.78
455.85	7876.49
456.06	7987.08
456.27	7845.77
456.48	7886.73
456.68	8132.48
456.89	7956.36
457.10	8277.89
457.31	8019.85
457.52	8056.71
457.73	8120.20
457.94	8261.51
458.14	8099.72
458.35	8458.11
458.56	8318.85
458.77	8228.74
458.98	8380.29
459.19	8480.64
459.39	8427.39
459.60	8556.41
459.81	8501.12
460.02	8570.75
460.23	8710.01
460.44	8793.98
460.65	8859.51
460.85	8767.35
461.06	8886.14
461.27	8644.48
461.48	8996.73
461.69	9117.56
461.89	8855.42
462.10	9064.31
462.31	9023.35
462.52	8974.20
462.73	8888.18
462.94	9332.59
463.14	9340.79
463.35	9115.51
463.56	9473.90
463.77	9451.38
463.98	9076.60
464.18	9318.26
464.39	9490.29
464.60	9693.04
464.81	9637.74
465.02	9609.07
465.23	9889.64
465.43	9740.14
465.64	9858.92
465.85	10039.14
466.06	9873.26
466.27	10041.19
466.47	10170.21
466.68	10016.62
466.89	10155.88
467.10	10336.10
467.30	10076.01
467.51	10463.07
467.72	10563.42
467.93	10129.25
468.14	10467.17
468.34	10661.73
468.55	10692.44
468.76	10577.76
468.97	10555.23
469.17	10872.67
469.38	10786.65
469.59	10813.28
469.80	10782.56
470.01	10782.56
470.21	10899.29
470.42	11171.67
470.63	11190.10
470.84	11073.37
471.04	11263.83
471.25	11353.94
471.46	11450.19
471.67	11716.43
471.87	11456.34
472.08	11781.96
472.29	12099.40
472.50	11478.86
472.70	11458.39
472.91	11839.31
473.12	12103.50
473.33	12046.15
473.53	12142.41
473.74	12128.07
473.95	12263.24
474.16	12441.41
474.36	12373.83
474.57	12513.09
474.78	12789.56
474.99	12461.89
475.19	12388.16
475.40	12937.02
475.61	12963.64
475.81	13147.96
476.02	13229.88
476.23	13004.60
476.44	13092.66
476.64	13487.92
476.85	13649.71
477.06	13535.03
477.27	13651.76
477.47	13745.97
477.68	13561.65
477.89	13934.38
478.09	14098.22
478.30	13913.90
478.51	14133.03
478.71	14225.19
478.92	14485.28
479.13	14450.47
479.34	14573.35
479.54	14642.98
479.75	14624.54
479.96	14769.95
480.16	14728.99
480.37	14821.15
480.58	14823.20
480.78	15206.17
480.99	15210.26
481.20	15263.51
481.41	15456.02
481.61	15517.46
481.82	15703.82
482.03	15691.54
482.23	15550.23
482.44	15808.27
482.65	16066.31
482.85	16172.81
483.06	16406.28
483.27	16228.10
483.47	16289.54
483.68	16582.40
483.89	16645.89
484.09	16410.37
484.30	16291.59
484.51	16715.52
484.71	16850.69
484.92	16795.39
485.13	16723.71
485.33	17133.31
485.54	17233.66
485.75	17450.74
485.95	17714.93
486.16	17651.44
486.37	17835.76
486.57	17747.70
486.78	17802.99
486.98	17737.46
487.19	17966.83
487.40	18034.41
487.60	18196.20
487.81	18149.10
488.02	18493.16
488.22	18347.75
488.43	18726.63
488.64	18779.87
488.84	18884.32
489.05	18904.80
489.25	18749.15
489.46	19130.08
489.67	19023.58
489.87	18976.48
490.08	19416.79
490.29	19177.18
490.49	19625.68
490.70	19707.60
490.90	19842.77
491.11	19431.13
491.32	19908.30
491.52	19914.45
491.73	19787.47
491.94	19838.67
492.14	20141.77
492.35	20231.88
492.55	20418.25
492.76	20510.41
492.97	20438.73
493.17	20553.41
493.38	20575.94
493.58	21077.69
493.79	20930.24
494.00	20829.89
494.20	20674.24
494.41	21036.74
494.61	21229.24
494.82	21733.04
495.02	21126.85
495.23	21481.14
495.44	21520.06
495.64	21735.09
495.85	21780.15
496.05	21890.74
496.26	21565.11
496.47	22107.82
496.67	21733.04
496.88	22156.97
497.08	22101.68
497.29	22509.22
497.49	22451.88
497.70	22683.30
497.91	22683.30
498.11	22580.90
498.32	22730.41
498.52	22910.63
498.73	23146.14
498.93	22832.80
499.14	23217.82
499.34	23178.91
499.55	23463.58
499.76	23119.52
499.96	23471.77
500.17	23363.23
500.37	23484.06
500.58	23721.62
500.78	23690.90
500.99	23776.92
501.19	23731.86
501.40	23807.64
501.60	23854.74
501.81	24049.30
502.02	23998.10
502.22	24112.78
502.43	24209.04
502.63	24254.09
502.84	24303.25
503.04	24557.19
503.25	24493.71
503.45	24665.74
503.66	24768.13
503.86	24376.97
504.07	24700.55
504.27	24409.74
504.48	25063.04
504.68	25024.13
504.89	25110.14
505.09	24901.25
505.30	25214.59
505.50	25167.49
505.71	25194.11
505.91	25486.97
506.12	25589.37
506.32	25583.23
506.53	25646.71
506.73	25607.80
506.94	25845.37
507.14	25566.84
507.35	25906.80
507.55	26224.24
507.76	26146.42
507.96	25986.68
508.17	25978.48
508.37	26039.92
508.58	26232.43
508.78	26254.96
508.99	26668.65
509.19	26330.73
509.40	26517.10
509.60	26535.53
509.81	26560.11
510.01	26488.43
510.22	26838.63
510.42	26566.25
510.63	26664.55
510.83	26562.15
511.04	26885.73
511.24	27127.39
511.44	27205.22
511.65	27068.00
511.85	27070.05
512.06	27088.48
512.26	27467.36
512.47	27545.18
512.67	27194.98
512.88	27305.57
513.08	27127.39
513.29	27481.69
513.49	27377.25
513.69	27530.84
513.90	27682.39
514.10	27778.65
514.31	27856.47
514.51	27811.42
514.72	27926.10
514.92	27692.63
515.13	28020.31
515.33	27917.91
515.53	28044.88
515.74	28134.99
515.94	28180.05
516.15	28569.16
516.35	27928.15
516.56	28499.53
516.76	28229.20
516.96	28214.87
517.17	28374.61
517.37	28610.12
517.58	28442.19
517.78	28902.98
517.99	28886.60
518.19	28845.64
518.39	28827.21
518.60	29095.49
518.80	29261.38
519.01	28995.14
519.21	29244.99
519.41	29224.51
519.62	29423.17
519.82	29386.30
520.03	29480.51
520.23	29021.77
520.43	29609.53
520.64	29935.16
520.84	29711.93
521.05	29804.09
521.25	29949.50
521.45	29951.54
521.66	29916.73
521.86	30127.67
522.07	30078.52
522.27	29843.00
522.47	30004.79
522.68	30336.56
522.88	30260.79
523.08	30610.99
523.29	30737.96
523.49	30434.86
523.70	30170.68
523.90	30850.60
524.10	30746.15
524.31	30903.85
524.51	30836.27
524.71	31565.34
524.92	31288.87
525.12	31383.07
525.33	31223.33
525.53	31700.51
525.73	31800.86
525.94	31477.28
526.14	31600.16
526.34	31409.70
526.55	32019.99
526.75	31596.06
526.95	32116.25
527.16	31766.04
527.36	32267.80
527.56	32026.14
527.77	32441.87
527.97	32558.61
528.17	32699.92
528.38	32314.90
528.58	32491.02
528.78	32667.15
528.99	32534.03
529.19	32644.62
529.39	32345.62
529.60	33050.12
529.80	32792.08
530.00	32742.92
530.21	32912.91
530.41	33355.27
530.61	33173.00
530.82	33390.08
531.02	33355.27
531.22	33658.37
531.43	33684.99
531.63	33809.92
531.83	33455.62
532.04	34563.57
532.24	33549.82
532.44	34123.26
532.64	34428.40
532.85	34612.72
533.05	34399.73
533.25	34414.07
533.46	34340.34
533.66	34850.28
533.86	34604.53
534.07	35190.25
534.27	34952.68
534.47	34899.44
534.67	35259.88
534.88	35259.88
535.08	35349.99
535.28	34969.07
535.49	35272.17
535.69	35696.10
535.89	35452.39
536.09	35556.83
536.30	36074.97
536.50	35849.69
536.70	36029.91
536.91	35853.79
537.11	36140.50
537.31	36189.66
537.51	35935.71
537.72	36183.51
537.92	36754.90
538.12	36871.63
538.32	36732.37
538.53	37039.56
538.73	36541.91
538.93	36775.37
539.13	36965.84
539.34	36924.88
539.54	36701.65
539.74	37563.84
539.94	37096.91
540.15	36877.77
540.35	37144.01
540.55	37199.30
540.75	37381.57
540.96	37893.57
541.16	37445.06
541.36	37651.91
541.56	37625.28
541.77	37780.93
541.97	38133.18
542.17	38028.73
542.37	37823.93
542.58	37774.78
542.78	38012.35
542.98	37987.77
543.18	38426.04
543.38	38745.52
543.59	38618.55
543.79	38460.85
543.99	38385.08
544.19	38284.73
544.40	38442.42
544.60	39167.40
544.80	38782.38
545.00	38806.96
545.20	39134.63
545.41	38679.99
545.61	39036.33
545.81	39472.55
546.01	38821.30
546.21	39114.16
546.42	38909.36
546.62	39521.70
546.82	39574.95
547.02	39392.68
547.22	39591.33
547.43	39450.02
547.63	39452.07
547.83	39601.57
548.03	39282.09
548.23	39798.18
548.44	40029.60
548.64	40068.51
548.84	39742.88
549.04	39587.24
549.24	40113.56
549.45	40775.06
549.65	40091.04
549.85	40371.61
550.05	40424.86
550.25	40381.85
550.45	40572.31
550.66	40334.74
550.86	40615.32
551.06	40758.67
551.26	40799.63
551.46	40662.42
551.66	40990.09
551.87	40447.38
552.07	40990.09
552.27	40904.08
552.47	40826.26
552.67	41125.26
552.87	40916.37
553.07	41301.39
553.28	41203.08
553.48	41055.63
553.68	41270.67
553.88	41616.77
554.08	41416.07
554.28	41115.02
554.48	41270.67
554.69	41702.79
554.89	41655.68
555.09	41768.32
555.29	41510.28
555.49	41831.81
555.69	41645.44
555.89	42128.77
556.10	41760.13
556.30	41459.08
556.50	41792.90
556.70	41926.02
556.90	42337.66
557.10	42173.82
557.30	41473.42
557.50	42503.54
557.70	42495.35
557.91	42270.08
558.11	42343.80
558.31	42433.91
558.51	42104.19
558.71	42198.40
558.91	42323.32
559.11	42739.06
559.31	42741.11
559.51	42425.72
559.72	42399.10
559.92	42767.73
560.12	42202.49
560.32	42569.08
560.52	42567.03
560.72	42607.99
560.92	43064.69
561.12	43087.21
561.32	43285.87
561.52	42685.81
561.72	43425.13
561.93	43277.68
562.13	43048.30
562.33	43068.78
562.53	43685.22
562.73	43249.00
562.93	43369.83
563.13	43185.52
563.33	43351.40
563.53	43853.15
563.73	42878.32
563.93	43861.35
564.13	44066.14
564.33	43427.18
564.53	43279.72
564.74	43562.34
564.94	44014.94
565.14	44119.39
565.34	43588.97
565.54	43928.93
565.74	43758.95
565.94	44191.07
566.14	43668.84
566.34	43717.99
566.54	44287.32
566.74	43961.70
566.94	44397.91
567.14	44363.10
567.34	43744.61
567.54	44586.33
567.74	44232.03
567.94	44408.15
568.14	44596.57
568.34	44688.73
568.54	44494.17
568.74	44954.96
568.94	44451.16
569.14	45350.22
569.34	44598.62
569.54	44410.20
569.75	44518.74
569.95	45077.84
570.15	45159.76
570.35	44997.97
570.55	45081.94
570.75	45053.26
570.95	45176.14
571.15	45202.77
571.35	45292.88
571.55	45233.49
571.75	45114.70
571.95	45184.33
572.15	45342.03
572.35	45626.70
572.55	45512.01
572.75	45604.17
572.95	45628.74
573.15	45475.15
573.35	45741.38
573.55	45477.19
573.75	45804.87
573.95	45899.08
574.15	45466.95
574.35	45817.16
574.55	45796.68
574.75	46169.41
574.95	46075.20
575.15	45925.70
575.34	46449.98
575.54	46257.47
575.74	46290.24
575.94	46474.55
576.14	46609.72
576.34	46904.63
576.54	46785.85
576.74	46689.59
576.94	46544.19
577.14	47076.66
577.34	46828.85
577.54	46697.78
577.74	46714.17
577.94	46982.45
578.14	47136.05
578.34	47539.50
578.54	46912.82
578.74	47019.31
578.94	47439.15
579.14	47719.72
579.34	47336.75
579.54	47248.69
579.74	47496.49
579.94	47809.83
580.13	47768.87
580.33	47506.73
580.53	47920.42
580.73	48055.59
580.93	47404.33
581.13	48016.68
581.33	47768.87
581.53	48035.11
581.73	48373.02
581.93	48373.02
582.13	47906.08
582.33	48299.30
582.53	48035.11
582.73	48502.04
582.92	48588.06
583.12	48831.77
583.32	48520.48
583.52	48348.45
583.72	48747.80
583.92	48311.58
584.12	48692.50
584.32	49059.09
584.52	48948.50
584.72	48846.10
584.92	48975.12
585.11	49265.94
585.31	49179.92
585.51	48882.97
585.71	49018.13
585.91	49550.60
586.11	49280.27
586.31	49585.42
586.51	49194.26
586.71	49456.40
586.91	49218.83
587.10	49653.00
587.30	49718.54
587.50	49575.18
587.70	49917.19
587.90	49839.37
588.10	50091.27
588.30	49741.06
588.50	50398.46
588.69	49911.05
588.89	49972.49
589.09	50019.59
589.29	50095.36
589.49	50361.60
589.69	50175.23
589.89	50603.26
590.08	50380.03
590.28	50324.74
590.48	50345.22
590.68	50537.72
590.88	50550.01
591.08	50124.04
591.28	50144.51
591.47	51125.49
591.67	50445.57
591.87	50631.93
592.07	50978.04
592.27	50998.52
592.47	50771.19
592.67	50658.56
592.86	50883.83
593.06	50889.98
593.26	51043.57
593.46	51139.83
593.66	50656.51
593.86	51111.16
594.05	51086.58
594.25	51342.58
594.45	50865.40
594.65	51406.06
594.85	50861.30
595.05	51905.77
595.24	51971.30
595.44	51264.75
595.64	51594.48
595.84	51365.10
596.04	51305.71
596.23	51729.64
596.43	51842.28
596.63	51713.26
596.83	51625.20
597.03	52002.02
597.22	52202.72
597.42	51746.03
597.62	52221.16
597.82	52042.98
598.02	51954.92
598.21	52253.92
598.41	52049.13
598.61	52196.58
598.81	52634.84
599.01	52831.45
599.20	52155.62
599.40	52094.18
599.60	52280.55
599.80	52583.65
600.00	52276.45
600.19	53056.73
600.39	52346.08
600.59	52946.14
600.79	53304.53
600.98	52763.87
601.18	53441.74
601.38	53040.34
601.58	53540.05
601.78	53183.70
601.97	53132.50
602.17	53073.11
602.37	53691.60
602.57	53316.82
602.76	53673.16
602.96	53499.09
603.16	53417.17
603.36	53490.90
603.55	54031.56
603.75	53226.71
603.95	53566.67
604.15	53746.89
604.34	53519.57
604.54	53789.90
604.74	53818.57
604.94	53906.63
605.13	53499.09
605.33	53804.24
605.53	54267.08
605.73	54353.09
605.92	54047.94
606.12	54381.76
606.32	54533.31
606.52	54287.56
606.71	54156.49
606.91	54297.80
607.11	53808.33
607.30	54181.06
607.50	54277.32
607.70	54437.06
607.90	54150.34
608.09	54369.47
608.29	54756.54
608.49	54727.87
608.68	54191.30
608.88	55006.39
609.08	55327.92
609.28	54691.01
609.47	54594.75
609.67	54682.81
609.87	55026.87
610.06	55008.44
610.26	54729.92
610.46	54731.96
610.66	54680.77
610.85	54537.41
611.05	54576.32
611.25	55067.83
611.44	54645.95
611.64	54506.69
611.84	54582.46
612.03	54854.84
612.23	54738.11
612.43	54783.16
612.62	54475.97
612.82	55209.14
613.02	54844.60
613.21	54762.68
613.41	54695.10
613.61	55221.43
613.80	54756.54
614.00	55346.36
614.20	55010.49
614.39	55076.02
614.59	55469.23
614.79	54883.51
614.98	55119.03
615.18	54879.42
615.38	55069.88
615.57	54897.85
615.77	55231.67
615.97	54979.77
616.16	54779.07
616.36	55026.87
616.56	55149.75
616.75	55174.33
616.95	54695.10
617.15	54951.10
617.34	55010.49
617.54	54811.84
617.74	55291.06
617.93	55055.54
618.13	54965.43
618.32	54879.42
618.52	54654.14
618.72	54721.72
618.91	54912.19
619.11	54760.64
619.31	54895.80
619.50	54912.19
619.70	54840.51
619.90	54740.16
620.09	54983.86
620.29	54568.13
620.48	54820.03
620.68	55200.95
620.88	54746.30
621.07	55112.89
621.27	55207.09
621.46	54381.76
621.66	54703.29
621.86	54838.46
622.05	54504.64
622.25	55110.84
622.44	54670.53
622.64	54533.31
622.84	54891.71
623.03	54164.68
623.23	55063.74
623.42	54199.49
623.62	54586.56
623.82	54885.56
624.01	54865.08
624.21	54637.76
624.40	54539.46
624.60	54846.65
624.80	54570.18
624.99	54596.80
625.19	54521.02
625.38	54568.13
625.58	54686.91
625.77	54457.54
625.97	54764.73
626.17	54303.94
626.36	54367.43
626.56	54568.13
626.75	53929.16
626.95	54731.96
627.14	54779.07
627.34	54820.03
627.54	54748.35
627.73	54977.72
627.93	55065.78
628.12	54258.88
628.32	54799.55
628.51	54086.85
628.71	54224.07
628.90	54686.91
629.10	54678.72
629.30	54656.19
629.49	54508.74
629.69	54430.91
629.88	54490.30
630.08	54748.35
630.27	54205.64
630.47	55020.73
630.66	54361.28
630.86	54684.86
631.05	54615.23
631.25	54793.40
631.44	54523.07
631.64	54199.49
631.84	54484.16
632.03	54807.74
632.23	54654.14
632.42	54803.64
632.62	54619.33
632.81	54469.82
633.01	54639.81
633.20	54953.15
633.40	54705.34
633.59	54662.33
633.79	54406.34
633.98	54357.19
634.18	54654.14
634.37	54627.52
634.57	54443.20
634.76	54940.86
634.96	54572.22
635.15	54574.27
635.35	54287.56
635.54	54609.09
635.74	54838.46
635.93	54670.53
636.13	55315.64
636.32	54744.25
636.52	54273.22
636.71	54648.00
636.91	54758.59
637.10	54668.48
637.30	54553.79
637.49	54396.10
637.69	54551.74
637.88	54916.28
638.08	54426.82
638.27	55024.82
638.46	54494.40
638.66	54604.99
638.85	54701.25
639.05	54832.32
639.24	54924.47
639.44	54516.93
639.63	54615.23
639.83	54496.45
640.02	54559.94
640.22	54785.21
640.41	55272.63
640.61	54316.23
640.80	54727.87
640.99	55166.13
641.19	55063.74
641.38	54580.42
641.58	55002.30
641.77	54707.39
641.97	54592.70
642.16	54936.76
642.36	54846.65
642.55	55567.54
642.74	54869.18
642.94	55473.33
643.13	54740.16
643.33	55106.74
643.52	55084.22
643.72	54756.54
643.91	55229.62
644.10	55110.84
644.30	55172.28
644.49	54815.93
644.69	55203.00
644.88	55131.32
645.08	55198.90
645.27	55082.17
645.46	54875.32
645.66	55293.11
645.85	54768.83
646.05	55198.90
646.24	55264.44
646.43	55307.44
646.63	55798.96
646.82	55198.90
647.02	55559.34
647.21	55655.60
647.40	55504.05
647.60	55448.75
647.79	55598.26
647.99	55772.33
648.18	55334.07
648.37	55620.78
648.57	55284.92
648.76	55432.37
648.96	55112.89
649.15	55909.55
649.34	55628.98
649.54	55702.70
649.73	55205.05
649.92	55923.88
650.12	55776.43
650.31	55811.24
650.51	55837.87
650.70	55723.18
650.89	55643.31
651.09	56061.10
651.28	55624.88
651.47	55940.27
651.67	56114.34
651.86	56349.86
652.06	55174.33
652.25	56071.34
652.44	55964.84
652.64	55671.98
652.83	56042.66
653.02	56161.45
653.22	55530.67
653.41	55655.60
653.60	54979.77
653.80	55696.56
653.99	55907.50
654.18	55858.35
654.38	56071.34
654.57	55948.46
654.76	55909.55
654.96	56001.71
655.15	55973.03
655.34	55991.47
655.54	55766.19
655.73	56274.09
655.92	56065.19
656.12	56083.62
656.31	56169.64
656.50	56112.30
656.70	56093.86
656.89	55973.03
657.08	55913.64
657.28	56038.57
657.47	56192.17
657.66	56087.72
657.86	56065.19
658.05	55985.32
658.24	56216.74
658.43	55817.39
658.63	56159.40
658.82	56310.95
659.01	56485.03
659.21	56372.39
659.40	56093.86
659.59	55983.27
659.79	56560.80
659.98	56321.19
660.17	56716.45
660.36	56775.84
660.56	56618.14
660.75	56722.59
660.94	56362.15
661.14	56544.42
661.33	56581.28
661.52	56147.11
661.71	56927.39
661.91	55973.03
662.10	56743.07
662.29	56712.35
662.49	56632.48
662.68	56757.41
662.87	56712.35
663.06	56882.33
663.26	56480.93
663.45	57193.62
663.64	56644.77
663.83	56845.47
664.03	57169.05
664.22	56159.40
664.41	56714.40
664.60	56464.55
664.80	56982.68
664.99	56937.63
665.18	56470.69
665.37	56427.68
665.57	57015.45
665.76	56646.82
665.95	56763.55
666.14	56927.39
666.34	56804.51
666.53	56894.62
666.72	56525.99
666.91	56300.71
667.11	56509.60
667.30	56423.59
667.49	56966.30
667.68	56784.03
667.87	56833.18
668.07	56849.56
668.26	56849.56
668.45	57167.00
668.64	56554.66
668.84	57271.45
669.03	57046.17
669.22	57091.22
669.41	56968.35
669.60	56911.00
669.80	57011.35
669.99	57289.88
670.18	57289.88
670.37	56677.54
670.57	57271.45
670.76	57078.94
670.95	57023.64
671.14	56994.97
671.33	56734.88
671.53	57193.62
671.72	56870.04
671.91	56865.95
672.10	56728.73
672.29	56431.78
672.48	57140.38
672.68	57277.59
672.87	56814.75
673.06	56951.96
673.25	56675.49
673.44	56972.44
673.64	57025.69
673.83	56999.07
674.02	56595.62
674.21	56763.55
674.40	56726.69
674.59	56804.51
674.79	57087.13
674.98	56581.28
675.17	57210.01
675.36	56820.89
675.55	56943.77
675.74	56726.69
675.94	56667.30
676.13	56775.84
676.32	57152.66
676.51	57463.96
676.70	57076.89
676.89	56900.76
677.08	57355.41
677.28	56841.37
677.47	57695.38
677.66	57511.06
677.85	56933.53
678.04	57185.43
678.23	57418.90
678.42	57269.40
678.62	56931.48
678.81	57398.42
679.00	57029.79
679.19	57306.26
679.38	57253.01
679.57	57021.59
679.76	56759.45
679.96	57050.27
680.15	57201.82
680.34	57408.66
680.53	56759.45
680.72	57230.49
680.91	57359.51
681.10	57216.15
681.29	57167.00
681.48	56800.41
681.68	56489.12
681.87	56837.28
682.06	56806.56
682.25	56581.28
682.44	56439.97
682.63	57152.66
682.82	56450.21
683.01	57023.64
683.20	56612.00
683.39	56667.30
683.59	56335.52
683.78	56726.69
683.97	56546.47
684.16	56808.61
684.35	56710.30
684.54	57140.38
684.73	56554.66
684.92	56587.42
685.11	56814.75
685.30	56691.87
685.49	56919.20
685.69	56824.99
685.88	56509.60
686.07	56732.83
686.26	56401.06
686.45	56792.22
686.64	57123.99
686.83	56736.93
687.02	56399.01
687.21	56786.08
687.40	57218.20
687.59	56741.02
687.78	56517.79
687.97	57117.85
688.16	56685.73
688.35	56749.21
688.54	56857.76
688.74	56538.27
688.93	56624.29
689.12	56923.29
689.31	56331.43
689.50	56509.60
689.69	56007.85
689.88	56376.48
690.07	56525.99
690.26	56642.72
690.45	56784.03
690.64	56214.69
690.83	56167.59
691.02	56007.85
691.21	55958.70
691.40	56153.26
691.59	56595.62
691.78	56556.70
691.97	56636.58
692.16	56413.35
692.35	56753.31
692.54	56433.83
692.73	56081.58
692.92	56091.82
693.11	56190.12
693.30	56100.01
693.49	55919.79
693.68	56530.08
693.87	56048.81
694.06	55588.02
694.25	55774.38
694.44	55801.00
694.63	56020.14
694.82	56288.42
695.01	56231.08
695.20	56399.01
695.39	55657.65
695.58	55985.32
695.77	55542.96
695.96	55794.86
696.15	55686.32
696.34	55743.66
696.53	55661.74
696.72	55723.18
696.91	55657.65
697.10	55821.48
697.29	55891.12
697.48	56235.17
697.67	55909.55
697.86	55221.43
698.05	55231.67
698.24	55563.44
698.43	54865.08
698.62	55555.25
698.81	55090.36
699.00	55710.89
699.19	55420.08
699.38	55821.48
699.57	55205.05
699.76	55907.50
699.95	55309.49
700.14	55000.25
700.32	55078.07
700.51	54990.01
700.70	55313.59
700.89	55532.72
701.08	55452.85
701.27	55268.53
701.46	55284.92
701.65	54660.29
701.84	55143.61
702.03	55033.02
702.22	54983.86
702.41	54985.91
702.60	55274.68
702.79	54711.49
702.98	55131.32
703.17	55289.01
703.35	54834.36
703.54	54652.09
703.73	54760.64
703.92	54240.45
704.11	54600.89
704.30	54598.85
704.49	54219.97
704.68	53966.02
704.87	54574.27
705.06	54588.61
705.25	54473.92
705.43	54510.78
705.62	54316.23
705.81	54582.46
706.00	54535.36
706.19	54127.81
706.38	54236.36
706.57	54443.20
706.76	54168.77
706.95	54533.31
707.14	53994.70
707.32	53902.54
707.51	54228.16
707.70	54383.81
707.89	54232.26
708.08	54023.37
708.27	54289.60
708.46	54131.91
708.65	53667.02
708.84	54574.27
709.02	53923.02
709.21	54236.36
709.40	53720.27
709.59	53888.20
709.78	54000.84
709.97	53880.01
710.16	54123.72
710.34	53488.85
710.53	53959.88
710.72	53576.91
710.91	53953.74
711.10	53433.55
711.29	53527.76
711.48	54043.85
711.66	53736.65
711.85	53384.40
712.04	53837.00
712.23	53501.14
712.42	53019.86
712.61	53562.57
712.80	53351.63
712.98	53335.25
713.17	53146.84
713.36	53087.45
713.55	53236.95
713.74	53187.80
713.93	53222.61
714.11	53339.35
714.30	52606.17
714.49	52677.85
714.68	53120.21
714.87	52655.32
715.06	52944.09
715.24	52733.15
715.43	52966.62
715.62	52856.03
715.81	52647.13
716.00	52944.09
716.18	52415.71
716.37	52577.50
716.56	52137.19
716.75	52815.07
716.94	52606.17
717.12	52161.76
717.31	52464.86
717.50	52249.83
717.69	52350.18
717.88	52053.22
718.06	52479.20
718.25	52417.76
718.44	51629.29
718.63	52368.61
718.82	52155.62
719.00	51901.67
719.19	51961.06
719.38	51686.64
719.57	51451.12
719.76	51510.51
719.94	50808.06
720.13	51680.49
720.32	51451.12
720.51	51668.20
720.69	51311.86
720.88	51277.04
721.07	51363.06
721.26	51203.31
721.44	51158.26
721.63	50935.03
721.82	50818.30
722.01	50754.81
722.20	51197.17
722.38	50742.52
722.57	50156.80
722.76	50525.44
722.95	50304.26
723.13	50418.94
723.32	50175.23
723.51	50459.90
723.70	50337.02
723.88	50834.68
724.07	49902.85
724.26	50326.78
724.44	49427.73
724.63	50306.30
724.82	50164.99
725.01	50218.24
725.19	50068.74
725.38	49784.07
725.57	49687.82
725.76	50060.55
725.94	49876.23
726.13	49722.63
726.32	49599.76
726.51	49595.66
726.69	50068.74
726.88	49986.82
727.07	49397.01
727.25	49493.26
727.44	49267.98
727.63	49145.11
727.82	49513.74
728.00	49247.50
728.19	49255.70
728.38	49710.35
728.56	49110.29
728.75	49474.83
728.94	49022.23
729.12	49513.74
729.31	49349.90
729.50	49345.81
729.69	49440.01
729.87	49202.45
730.06	49085.72
730.25	49237.26
730.43	49726.73
730.62	49063.19
730.81	49622.28
730.99	49390.86
731.18	49354.00
731.37	49329.42
731.55	49030.42
731.74	49403.15
731.93	49210.64
732.11	49083.67
732.30	49044.76
732.49	49026.32
732.67	49014.04
732.86	48669.98
733.05	48891.16
733.23	48639.26
733.42	48854.29
733.61	48809.24
733.79	48997.65
733.98	49259.79
734.17	48809.24
734.35	48975.12
734.54	48727.32
734.73	48985.36
734.91	48624.92
735.10	48600.35
735.29	48829.72
735.47	48409.89
735.66	49018.13
735.84	48663.83
736.03	48368.93
736.22	48571.67
736.40	48223.52
736.59	48731.42
736.78	48561.44
736.96	48227.62
737.15	48389.41
737.33	48463.13
737.52	47885.61
737.71	48373.02
737.89	48014.63
738.08	47945.00
738.27	47766.82
738.45	48086.31
738.64	48182.56
738.82	48485.66
739.01	48274.72
739.20	47748.39
739.38	48084.26
739.57	48217.38
739.75	47895.85
739.94	48151.84
740.13	48196.90
740.31	47559.98
740.50	47359.28
740.68	47564.07
740.87	47662.38
741.06	47564.07
741.24	47641.90
741.43	47273.26
741.61	47662.38
741.80	47246.64
741.99	47484.20
742.17	47291.69
742.36	47240.50
742.54	47156.53
742.73	47424.81
742.91	47584.55
743.10	47521.07
743.29	47559.98
743.47	47453.48
743.66	46843.19
743.84	47136.05
744.03	47279.41
744.21	46800.18
744.40	47220.02
744.59	46671.16
744.77	46865.72
744.96	47232.30
745.14	47002.93
745.33	47355.18
745.51	47054.13
745.70	47134.00
745.88	46439.74
746.07	46841.14
746.26	46873.91
746.44	46556.47
746.63	46656.82
746.81	46896.44
747.00	46179.65
747.18	46742.84
747.37	46423.36
747.55	46005.57
747.74	46845.24
747.92	46275.90
748.11	46191.94
748.29	46320.96
748.48	46239.04
748.66	45765.96
748.85	46155.07
749.03	46128.45
749.22	46198.08
749.41	46105.92
749.59	46236.99
749.78	45757.77
749.96	45911.36
750.15	45659.46
750.33	45741.38
750.52	45948.23
750.70	45487.43
750.89	45681.99
751.07	45028.69
751.26	45804.87
751.44	44918.10
751.63	45700.42
751.81	45395.28
752.00	44860.76
752.18	45741.38
752.37	45579.59
752.55	44688.73
752.74	45356.36
752.92	45194.57
753.10	44805.46
753.29	45239.63
753.47	45210.96
753.66	44502.36
753.84	45188.43
754.03	44617.05
754.21	44635.48
754.40	44778.84
754.58	45065.55
754.77	44770.64
754.95	44705.11
755.14	44533.08
755.32	44682.58
755.51	44107.10
755.69	44473.69
755.88	44352.86
756.06	44293.47
756.24	44246.36
756.43	44082.53
756.61	44209.50
756.80	44170.59
756.98	43980.13
757.17	44422.49
757.35	44291.42
757.54	44406.11
757.72	44420.44
757.90	44084.58
758.09	44035.42
758.27	43539.82
758.46	43844.96
758.64	43928.93
758.83	43828.58
759.01	43629.93
759.19	43965.79
759.38	43982.18
759.56	43799.91
759.75	43777.38
759.93	44068.19
760.12	43566.44
760.30	43726.18
760.48	43593.06
760.67	43570.54
760.85	43709.80
761.04	43406.70
761.22	43341.16
761.40	43455.85
761.59	43410.79
761.77	42937.71
761.96	43226.48
762.14	43150.70
762.32	42712.44
762.51	42950.00
762.69	42820.98
762.88	43212.14
763.06	42739.06
763.24	42788.21
763.43	43421.03
763.61	42982.77
763.80	42921.33
763.98	42616.18
764.16	42818.93
764.35	42130.81
764.53	42284.41
764.72	42476.92
764.90	42483.06
765.08	42386.81
765.27	42251.64
765.45	42444.15
765.63	42317.18
765.82	42325.37
766.00	42085.76
766.18	41743.75
766.37	42222.97
766.55	41885.06
766.74	41878.91
766.92	41846.15
767.10	42075.52
767.29	41891.20
767.47	41541.00
767.65	41993.60
767.84	41792.90
768.02	41438.60
768.20	41252.23
768.39	41782.66
768.57	41571.72
768.75	41448.84
768.94	41532.81
769.12	41444.74
769.30	41168.27
769.49	41059.73
769.67	41170.32
769.85	40449.43
770.04	41366.92
770.22	41244.04
770.40	40611.22
770.59	40539.54
770.77	41201.04
770.95	41031.05
771.14	40519.06
771.32	40639.89
771.50	40691.09
771.69	40756.63
771.87	40826.26
772.05	40441.24
772.24	40232.35
772.42	40426.90
772.60	40285.59
772.78	40025.50
772.97	39982.49
773.15	40304.02
773.33	40295.83
773.52	40275.35
773.70	40400.28
773.88	40383.90
774.07	40265.11
774.25	40099.23
774.43	40492.44
774.61	40181.15
774.80	40469.91
774.98	39794.08
775.16	40119.71
775.34	40076.70
775.53	40039.84
775.71	39914.91
775.89	40091.04
776.08	40314.26
776.26	40326.55
776.44	40134.04
776.62	40349.08
776.81	39939.49
776.99	40478.10
777.17	40502.68
777.35	40392.09
777.54	40514.97
777.72	40353.18
777.90	40484.25
778.08	40879.50
778.27	40367.51
778.45	40777.11
778.63	40746.39
778.81	40543.64
779.00	41039.25
779.18	40502.68
779.36	41457.03
779.54	40297.88
779.73	40813.97
779.91	40822.16
780.09	40777.11
780.27	40736.15
780.46	40807.83
780.64	40674.71
780.82	40570.26
781.00	40904.08
781.19	40994.19
781.37	41209.23
781.55	40877.46
781.73	41022.86
781.91	40789.39
782.10	41002.38
782.28	41364.87
782.46	41274.76
782.64	41198.99
782.82	40336.79
783.01	41229.71
783.19	40977.81
783.37	41594.25
783.55	41235.85
783.74	41407.88
783.92	41010.57
784.10	41117.07
784.28	41188.75
784.46	40836.50
784.64	40830.35
784.83	41299.34
785.01	41436.55
785.19	41266.57
785.37	41272.71
785.55	41418.12
785.74	40418.71
785.92	40678.80
786.10	40973.71
786.28	40879.50
786.46	40803.73
786.64	40113.56
786.83	41020.81
787.01	40930.70
787.19	40717.71
787.37	40953.23
787.55	40781.20
787.74	40672.66
787.92	40443.29
788.10	40498.58
788.28	40375.70
788.46	40572.31
788.64	40328.60
788.82	40611.22
789.01	40684.95
789.19	40682.90
789.37	40627.60
789.55	40426.90
789.73	40277.40
789.91	39914.91
790.09	40506.77
790.28	39904.67
790.46	39542.18
790.64	40097.18
790.82	39906.72
791.00	39472.55
791.18	39310.76
791.36	39726.50
791.55	39984.54
791.73	39521.70
791.91	39364.01
792.09	39695.78
792.27	39120.30
792.45	39234.99
792.63	39239.08
792.81	39163.31
793.00	38870.45
793.18	38856.11
793.36	38743.47
793.54	38890.93
793.72	38610.35
793.90	38473.14
794.08	38833.58
794.26	38555.06
794.44	38483.38
794.62	38360.50
794.81	38243.77
794.99	38299.06
795.17	38413.75
795.35	38239.67
795.53	38067.64
795.71	38327.74
795.89	37502.40
796.07	37731.78
796.25	37690.82
796.43	37557.70
796.61	37254.60
796.80	37318.09
796.98	37205.45
797.16	37533.12
797.34	37135.82
797.52	37201.35
797.70	37557.70
797.88	36873.68
798.06	36625.87
798.24	37240.26
798.42	36875.73
798.60	36900.30
798.78	36144.60
798.96	37055.95
799.14	36507.09
799.32	36455.89
799.51	36146.65
799.69	36287.96
799.87	35958.24
800.05	36189.66
800.23	35999.19
800.41	35941.85
800.59	36167.13
800.77	35745.25
800.95	35534.31
801.13	35569.12
801.31	35503.59
801.49	35712.48
801.67	35339.75
801.85	35409.38
802.03	34876.91
802.21	35116.52
802.39	34993.64
802.57	35122.66
802.75	35345.89
802.93	35020.27
803.11	34768.37
803.29	34969.07
803.47	34305.52
803.65	34919.92
803.83	34772.46
804.01	34487.79
804.19	34299.38
804.37	34442.74
804.55	34526.71
804.73	34244.09
804.91	34221.56
805.09	34239.99
805.27	34344.44
805.45	34278.90
805.63	34360.82
805.81	33945.08
805.99	33768.96
806.17	34141.69
806.35	33836.54
806.53	33826.30
806.71	33469.95
806.89	33689.09
807.07	33572.35
807.25	33373.70
807.43	33226.24
807.61	33633.79
807.79	33041.93
807.97	33064.46
808.15	33259.01
808.33	33183.24
808.51	32990.73
808.69	32757.26
808.87	32957.96
809.05	32697.87
809.23	32574.99
809.41	32656.91
809.59	32548.37
809.77	32681.49
809.95	32374.29
810.13	32611.85
810.31	32339.47
810.49	32513.55
810.67	32304.66
810.84	32583.18
811.02	31997.46
811.20	32232.98
811.38	31807.00
811.56	31581.73
811.74	31751.71
811.92	31389.22
812.10	31747.61
812.28	31893.02
812.46	31802.91
812.64	31913.50
812.82	31766.04
813.00	31673.88
813.18	31696.41
813.36	31567.39
813.53	31127.08
813.71	31579.68
813.89	31305.25
814.07	31256.10
814.25	31571.49
814.43	31333.92
814.61	31055.40
814.79	31008.29
814.97	30709.29
815.15	30942.76
815.33	30676.52
815.50	30674.48
815.68	30631.47
815.86	30807.59
816.04	30285.36
816.22	30844.46
816.40	30654.00
816.58	30289.46
816.76	30381.62
816.94	30244.40
817.11	30285.36
817.29	30373.42
817.47	30324.27
817.65	30135.86
817.83	30207.54
818.01	29922.87
818.19	30070.33
818.37	30266.93
818.54	30234.16
818.72	29845.05
818.90	30142.00
819.08	29654.59
819.26	29914.68
819.44	29527.61
819.62	29630.01
819.80	30166.58
819.97	29689.40
820.15	29544.00
820.33	29535.81
820.51	29462.08
820.69	29097.54
820.87	29427.26
821.05	29888.06
821.22	29593.15
821.40	29392.45
821.58	29140.55
821.76	29107.78
821.94	29208.13
822.12	29111.88
822.29	29271.62
822.47	28890.70
822.65	29226.56
822.83	28968.52
823.01	29308.48
823.19	28810.82
823.36	28454.48
823.54	28612.17
823.72	28911.17
823.90	28618.32
824.08	28311.12
824.25	28464.72
824.43	28767.82
824.61	28755.53
824.79	28577.36
824.97	28315.22
825.15	28395.09
825.32	28458.57
825.50	28294.74
825.68	28134.99
825.86	28544.59
826.04	28376.66
826.21	28319.31
826.39	28198.48
826.57	28106.32
826.75	27999.83
826.93	28003.92
827.10	28022.36
827.28	28110.42
827.46	28335.70
827.64	27811.42
827.81	27999.83
827.99	28091.99
828.17	27698.78
828.35	27805.27
828.53	27659.87
828.70	27835.99
828.88	27688.54
829.06	27647.58
829.24	27522.65
829.41	27541.08
829.59	27586.14
829.77	27313.76
829.95	27795.03
830.12	27350.62
830.30	27389.53
830.48	27135.59
830.66	27391.58
830.84	27424.35
831.01	27115.11
831.19	27348.57
831.37	27248.22
831.55	27166.31
831.72	27094.63
831.90	27129.44
832.08	27074.15
832.25	26900.07
832.43	26879.59
832.61	27022.95
832.79	26830.44
832.96	27022.95
833.14	26781.29
833.32	26826.34
833.50	27162.21
833.67	26867.30
833.85	27059.81
834.03	26631.79
834.20	27078.24
834.38	27149.92
834.56	26709.61
834.74	26429.04
834.91	26693.22
835.09	26426.99
835.27	26199.66
835.44	26629.74
835.62	25925.24
835.80	26046.07
835.98	26365.55
836.15	26084.98
836.33	26218.10
836.51	26560.11
836.68	26029.68
836.86	26312.30
837.04	26136.18
837.21	26177.14
837.39	26334.83
837.57	25992.82
837.75	26136.18
837.92	25869.94
838.10	25779.83
838.28	25654.90
838.45	25702.01
838.63	25704.06
838.81	25888.37
838.98	25501.31
839.16	25486.97
839.34	25685.62
839.51	25816.69
839.69	25411.20
839.87	25765.49
840.04	25532.03
840.22	25501.31
840.40	25306.75
840.57	25167.49
840.75	25462.40
840.93	25124.48
841.10	25538.17
841.28	25552.51
841.46	25360.00
841.63	25652.86
841.81	25472.64
841.98	25360.00
842.16	25425.53
842.34	25155.20
842.51	24987.27
842.69	25065.09
842.87	25017.99
843.04	24878.72
843.22	24931.97
843.40	24811.14
843.57	24788.61
843.75	24958.60
843.92	25093.76
844.10	24813.19
844.28	24882.82
844.45	24909.44
844.63	24718.98
844.81	24936.07
844.98	24950.40
845.16	24792.71
845.33	25128.58
845.51	25026.18
845.69	24508.04
845.86	24505.99
846.04	24446.60
846.21	24690.31
846.39	24594.06
846.57	24366.73
846.74	24325.77
846.92	24432.27
847.09	24491.66
847.27	24266.38
847.45	24219.28
847.62	24815.24
847.80	24495.75
847.97	24301.20
848.15	24155.79
848.32	24118.93
848.50	23998.10
848.68	23871.12
848.85	23828.12
849.03	23883.41
849.20	23862.93
849.38	23905.94
849.56	23885.46
849.73	23828.12
849.91	24114.83
850.08	23928.47
850.26	23426.71
850.43	23750.29
850.61	23885.46
850.78	23244.45
850.96	23668.37
851.14	23381.66
851.31	23828.12
851.49	23887.51
851.66	23529.11
851.84	23871.12
852.01	23623.32
852.19	23389.85
852.36	23688.85
852.54	23375.52
852.71	23105.18
852.89	23529.11
853.07	23428.76
853.24	23432.86
853.42	23586.46
853.59	23285.40
853.77	23482.01
853.94	23357.08
854.12	23645.85
854.29	23041.70
854.47	23154.33
854.64	23096.99
854.82	23004.83
854.99	23254.69
855.17	22951.59
855.34	23117.47
855.52	23099.04
855.69	23271.07
855.87	22748.84
856.04	22849.19
856.22	22877.86
856.39	22644.39
856.57	22838.95
856.74	22877.86
856.92	22879.91
857.09	22505.13
857.27	22800.04
857.44	22580.90
857.62	22787.75
857.79	22793.89
857.97	22599.34
858.14	22812.32
858.32	22531.75
858.49	22609.58
858.67	22449.83
858.84	22593.19
859.02	22838.95
859.19	22787.75
859.37	22406.83
859.54	21989.04
859.72	22464.17
859.89	22507.18
860.06	22630.05
860.24	22236.84
860.41	22230.70
860.59	22302.38
860.76	22365.87
860.94	21923.51
861.11	22224.56
861.29	21931.70
861.46	22283.95
861.64	21804.72
861.81	22073.01
861.98	21872.31
862.16	21921.46
862.33	21784.24
862.51	21874.35
862.68	21683.89
862.86	21763.76
863.03	21954.22
863.21	21794.48
863.38	21827.25
863.55	21757.62
863.73	21860.02
863.90	21499.58
864.08	21219.00
864.25	21769.91
864.43	21665.46
864.60	21227.20
864.77	21345.98
864.95	21294.78
865.12	21081.79
865.30	21405.37
865.47	21214.91
865.64	21573.30
865.82	21481.14
865.99	21409.47
866.17	21270.20
866.34	21214.91
866.51	20965.06
866.69	21210.81
866.86	21198.52
867.04	21071.55
867.21	21069.50
867.38	20944.58
867.56	21046.97
867.73	20954.82
867.91	20750.02
868.08	20801.22
868.25	20735.68
868.43	20795.07
868.60	20657.86
868.78	20516.55
868.95	20944.58
869.12	20612.81
869.30	20502.22
869.47	20475.59
869.64	20276.94
869.82	20661.96
869.99	20299.47
870.16	20889.28
870.34	20504.26
870.51	20350.67
870.69	20530.89
870.86	20453.06
871.03	20395.72
871.21	20319.95
871.38	20246.22
871.55	20186.83
871.73	20084.43
871.90	20303.56
872.07	19932.88
872.25	19969.74
872.42	20090.57
872.59	19990.22
872.77	19611.35
872.94	19934.93
873.11	19936.98
873.29	20076.24
873.46	19746.51
873.63	19599.06
873.81	19742.42
873.98	19691.22
874.15	19623.64
874.33	19197.66
874.50	19457.75
874.67	19490.52
874.85	19283.67
875.02	19355.35
875.19	19201.76
875.37	19171.04
875.54	19259.10
875.71	19146.46
875.88	19322.59
876.06	19177.18
876.23	18902.75
876.40	19052.25
876.58	19046.11
876.75	18900.70
876.92	18931.42
877.10	19269.34
877.27	18861.79
877.44	18822.88
877.61	18781.92
877.79	18796.26
877.96	18691.81
878.13	18773.73
878.31	18542.31
878.48	18394.86
878.65	18568.93
878.82	18468.58
879.00	18325.22
879.17	18355.94
879.34	18331.37
879.51	18378.47
879.69	18102.00
879.86	18210.54
880.03	18505.45
880.21	18102.00
880.38	18147.05
880.55	18224.87
880.72	17848.05
880.90	18218.73
881.07	18142.96
881.24	17862.38
881.41	18337.51
881.59	17952.49
881.76	17805.04
881.93	17966.83
882.10	17901.29
882.28	17692.40
882.45	17864.43
882.62	17737.46
882.79	18030.32
882.96	17538.80
883.14	17802.99
883.31	17766.13
883.48	17571.57
883.65	17667.83
883.83	17581.81
884.00	17659.63
884.17	17573.62
884.34	17487.61
884.51	17741.55
884.69	17534.71
884.86	17432.31
885.03	17534.71
885.20	17256.18
885.38	17483.51
885.55	17512.18
885.72	17483.51
885.89	17321.72
886.06	17483.51
886.24	17381.11
886.41	17247.99
886.58	17465.08
886.75	17305.34
886.92	17112.83
887.10	17231.61
887.27	17145.59
887.44	17166.07
887.61	17176.31
887.78	17106.68
887.95	17344.25
888.13	17051.39
888.30	16903.93
888.47	16746.24
888.64	16963.33
888.81	17084.16
888.99	17032.96
889.16	16688.90
889.33	16733.95
889.50	16844.54
889.67	16699.14
889.84	16742.14
890.01	16744.19
890.19	16881.41
890.36	16865.02
890.53	16627.46
890.70	16582.40
890.87	16600.83
891.04	16545.54
891.22	16639.75
891.39	16338.69
891.56	16406.28
891.73	16420.61
891.90	16258.82
892.07	16219.91
892.24	16150.28
892.42	16189.19
892.59	16307.98
892.76	16051.98
892.93	16385.80
893.10	16172.81
893.27	16058.12
893.44	16123.66
893.61	16103.18
893.79	16205.58
893.96	16217.86
894.13	16119.56
894.30	16117.51
894.47	15957.77
894.64	16236.30
894.81	15986.44
894.98	16107.27
895.15	16181.00
895.33	15652.63
895.50	15693.58
895.67	16209.67
895.84	16002.83
896.01	16107.27
896.18	15802.13
896.35	16146.19
896.52	15953.68
896.69	15986.44
896.86	16015.12
897.04	15851.28
897.21	15941.39
897.38	15957.77
897.55	15900.43
897.72	16045.84
897.89	15828.75
898.06	15892.24
898.23	16060.17
898.40	15869.71
898.57	15863.57
898.74	15841.04
898.91	15687.44
899.08	15767.31
899.26	15593.23
899.43	15978.25
899.60	15638.29
899.77	15546.13
899.94	15554.32
900.11	15496.98
900.28	15722.26
900.45	15806.22
900.62	15693.58
900.79	15681.30
900.96	15879.95
901.13	15574.80
901.30	15871.76
901.47	15488.79
901.64	15642.39
901.81	15925.00
901.98	15363.86
902.15	15703.82
902.32	15611.67
902.49	15900.43
902.66	15916.81
902.83	15685.39
903.01	15619.86
903.18	15580.95
903.35	15529.75
903.52	15589.14
903.69	15675.15
903.86	15916.81
904.03	15640.34
904.20	15822.61
904.37	15734.54
904.54	15646.48
904.71	15580.95
904.88	15746.83
905.05	15646.48
905.22	15689.49
905.39	15615.76
905.56	15640.34
905.73	15578.90
905.90	15832.85
906.07	15609.62
906.24	15621.91
906.41	15445.78
906.58	15728.40
906.75	15681.30
906.92	15515.41
907.09	15812.37
907.26	15638.29
907.43	15185.69
907.60	15388.44
907.77	15589.14
907.93	15585.04
908.10	15429.40
908.27	15415.06
908.44	15394.58
908.61	15308.57
908.78	15460.12
908.95	15324.95
909.12	15382.29
909.29	15462.16
909.46	15351.57
909.63	15329.05
909.80	15363.86
909.97	15443.73
910.14	15335.19
910.31	15558.42
910.48	15505.17
910.65	15253.27
910.82	15320.85
910.99	15255.32
911.16	15308.57
911.33	15306.52
911.50	15327.00
911.66	15337.24
911.83	15124.25
912.00	15148.82
912.17	15191.83
912.34	15079.19
912.51	14923.55
912.68	15034.14
912.85	15114.01
913.02	15007.52
913.19	14952.22
913.36	15036.19
913.53	14995.23
913.70	14851.87
913.86	14976.80
914.03	14835.49
914.20	14669.60
914.37	14790.43
914.54	14694.18
914.71	14681.89
914.88	14690.08
915.05	14575.39
915.22	14806.81
915.39	14554.91
915.55	14624.54
915.72	14489.38
915.89	14559.01
916.06	14278.44
916.23	14290.73
916.40	14262.05
916.57	14442.28
916.74	14348.07
916.91	14147.37
917.07	14180.14
917.24	14171.94
917.41	13934.38
917.58	14182.18
917.75	14049.07
917.92	13733.68
918.09	13768.49
918.26	14016.30
918.42	13979.43
918.59	13969.19
918.76	13819.69
918.93	13614.90
919.10	13457.20
919.27	13750.06
919.44	13543.22
919.60	13522.74
919.77	13772.59
919.94	13676.34
920.11	13420.34
920.28	13659.95
920.45	13436.72
920.61	13440.82
920.78	13410.10
920.95	13387.57
921.12	13303.60
921.29	13209.40
921.46	13092.66
921.62	12814.14
921.79	13002.55
921.96	12934.97
922.13	13063.99
922.30	12769.09
922.47	12922.68
922.63	12744.51
922.80	12775.23
922.97	12912.44
923.14	12693.31
923.31	12709.69
923.47	12433.22
923.64	12771.13
923.81	12361.54
923.98	12492.61
924.15	12545.86
924.32	12541.76
924.48	12388.16
924.65	12306.24
924.82	12375.88
924.99	12011.34
925.15	12107.59
925.32	12336.96
925.49	11908.94
925.66	11913.03
925.83	11810.64
925.99	11915.08
926.16	11974.47
926.33	11738.96
926.50	11632.46
926.67	11867.98
926.83	11693.90
927.00	11781.96
927.17	11538.26
927.34	11300.69
927.50	11409.23
927.67	11560.78
927.84	11454.29
928.01	11413.33
928.17	11192.15
928.34	11294.55
928.51	11360.08
928.68	10987.35
928.84	11153.24
929.01	11018.07
929.18	11118.42
929.35	10985.30
929.51	10962.78
929.68	10690.40
929.85	10731.36
930.02	10803.04
930.18	10848.09
930.35	10696.54
930.52	10784.60
930.69	10708.83
930.85	10571.61
931.02	10434.40
931.19	10590.05
931.36	10397.54
931.52	10336.10
931.69	10446.69
931.86	10227.56
932.02	10190.69
932.19	10076.01
932.36	10012.52
932.53	10127.21
932.69	9965.42
932.86	10141.54
933.03	9883.50
933.19	9850.73
933.36	9981.80
933.53	9850.73
933.70	9817.96
933.86	9703.28
934.03	9641.84
934.20	9643.88
934.36	9576.30
934.53	9316.21
934.70	9457.52
934.86	9191.28
935.03	9183.09
935.20	9412.46
935.36	9230.20
935.53	8859.51
935.70	9019.25
935.86	9062.26
936.03	9049.97
936.20	8781.69
936.36	8740.73
936.53	8912.76
936.70	8593.28
936.86	8646.52
937.03	8417.15
937.20	8286.08
937.36	8529.79
937.53	8060.80
937.70	8030.09
937.86	7884.68
938.03	7878.54
938.20	8087.43
938.36	7804.81
938.53	7755.66
938.70	7667.60
938.86	7571.34
939.03	7491.47
939.20	7393.17
939.36	7423.89
939.53	7251.86
939.70	7489.42
939.86	7253.91
940.03	7147.41
940.19	6778.78
940.36	6895.51
940.53	6860.70
940.69	6700.95
940.86	6653.85
941.03	6602.65
941.19	6428.57
941.36	6447.01
941.52	6274.98
941.69	6348.70
941.86	6258.59
942.02	6148.00
942.19	6164.39
942.35	6246.30
942.52	6145.95
942.69	6027.17
942.85	5840.81
943.02	6008.74
943.18	6014.88
943.35	5828.52
943.52	5832.62
943.68	5701.54
943.85	5728.17
944.01	5617.58
944.18	5556.14
944.35	5683.11
944.51	5623.72
944.68	5566.38
944.84	5431.21
945.01	5484.46
945.17	5515.18
945.34	5504.94
945.51	5468.08
945.67	5433.26
945.84	5451.69
946.00	5388.21
946.17	5291.95
946.33	5287.86
946.50	5429.17
946.67	5277.62
946.83	5250.99
947.00	5492.65
947.16	5265.33
947.33	5361.58
947.49	5345.20
947.66	5267.38
947.82	5498.80
947.99	5328.81
948.16	5365.68
948.32	5273.52
948.49	5212.08
948.65	5373.87
948.82	5427.12
948.98	5369.77
949.15	5302.19
949.31	5365.68
949.48	5347.25
949.64	5279.66
949.81	5351.34
949.97	5341.10
950.14	5312.43
950.30	5228.46
950.47	5257.14
950.63	5222.32
950.80	5271.47
950.96	5218.22
951.13	5277.62
951.30	5347.25
951.46	5117.87
951.63	5431.21
951.79	5318.57
951.96	5427.12
952.12	5447.60
952.29	5316.53
952.45	5373.87
952.62	5402.54
952.78	5371.82
952.94	5304.24
953.11	5371.82
953.27	5328.81
953.44	5439.40
953.60	5455.79
953.77	5367.73
953.93	5429.17
954.10	5506.99
954.26	5308.34
954.43	5392.30
954.59	5562.28
954.76	5715.88
954.92	5367.73
955.09	5525.42
955.25	5517.23
955.42	5382.06
955.58	5414.83
955.75	5384.11
955.91	5502.89
956.07	5377.97
956.24	5443.50
956.40	5500.84
956.57	5492.65
956.73	5435.31
956.90	5545.90
957.06	5414.83
957.23	5373.87
957.39	5324.72
957.56	5494.70
957.72	5388.21
957.88	5277.62
958.05	5500.84
958.21	5300.14
958.38	5418.93
958.54	5402.54
958.71	5488.56
958.87	5453.74
959.03	5269.42
959.20	5590.95
959.36	5287.86
959.53	5386.16
959.69	5377.97
959.85	5500.84
960.02	5357.49
960.18	5324.72
960.35	5337.01
960.51	5597.10
960.68	5361.58
960.84	5337.01
961.00	5312.43
961.17	5410.73
961.33	5515.18
961.50	5582.76
961.66	5423.02
961.82	5345.20
961.99	5402.54
962.15	5240.75
962.31	5353.39
962.48	5490.60
962.64	5394.35
962.81	5339.05
962.97	5302.19
963.13	5492.65
963.30	5343.15
963.46	5240.75
963.62	5347.25
963.79	5345.20
963.95	5287.86
964.12	5562.28
964.28	5402.54
964.44	5265.33
964.61	5433.26
964.77	5343.15
964.93	5521.32
965.10	5308.34
965.26	5300.14
965.42	5257.14
965.59	5173.17
965.75	5183.41
965.92	5277.62
966.08	5445.55
966.24	5244.85
966.41	5144.50
966.57	5250.99
966.73	5267.38
966.90	5210.03
967.06	5250.99
967.22	5279.66
967.39	5158.83
967.55	5093.30
967.71	5224.37
967.88	5074.87
968.04	5048.24
968.20	5316.53
968.37	4992.95
968.53	5097.39
968.69	5312.43
968.85	5273.52
969.02	5072.82
969.18	5185.46
969.34	5103.54
969.51	5193.65
969.67	5062.58
969.83	4980.66
970.00	5115.83
970.16	5109.68
970.32	5148.59
970.48	5085.11
970.65	4949.94
970.81	4894.65
970.97	5011.38
971.14	4913.08
971.30	5087.15
971.46	5074.87
971.63	4968.37
971.79	5093.30
971.95	4896.69
972.11	4898.74
972.28	4964.28
972.44	4956.08
972.60	4841.40
972.76	5023.67
972.93	4849.59
973.09	5023.67
973.25	4792.25
973.42	4732.86
973.58	4939.70
973.74	4849.59
973.90	4951.99
974.07	4763.58
974.23	4933.56
974.39	4878.26
974.55	4822.97
974.72	4847.54
974.88	4657.08
975.04	4829.11
975.20	4773.82
975.37	4739.00
975.53	4792.25
975.69	4655.03
975.85	4712.38
976.01	4732.86
976.18	4665.27
976.34	4523.96
976.50	4665.27
976.66	4784.06
976.83	4689.85
976.99	4655.03
977.15	4614.07
977.31	4530.11
977.47	4556.73
977.64	4657.08
977.80	4679.61
977.96	4538.30
978.12	4575.16
978.29	4495.29
978.45	4444.09
978.61	4425.66
978.77	4530.11
978.93	4378.56
979.10	4622.27
979.26	4446.14
979.42	4562.87
979.58	4433.85
979.74	4497.34
979.91	4425.66
980.07	4454.33
980.23	4333.50
980.39	4409.28
980.55	4435.90
980.71	4280.25
980.88	4403.13
981.04	4396.99
981.20	4302.78
981.36	4337.60
981.52	4425.66
981.68	4181.95
981.85	4353.98
982.01	4341.69
982.17	4335.55
982.33	4286.40
982.49	4411.32
982.65	4247.49
982.82	4227.01
982.98	4313.02
983.14	4163.52
983.30	4243.39
983.46	4245.44
983.62	4251.58
983.79	4167.62
983.95	4243.39
984.11	3991.49
984.27	4188.10
984.43	4145.09
984.59	4169.66
984.75	4179.90
984.91	4128.70
985.08	4216.77
985.24	4048.83
985.40	4040.64
985.56	4202.43
985.72	3979.20
985.88	4167.62
986.04	3971.01
986.20	4057.03
986.37	3964.87
986.53	3915.72
986.69	4048.83
986.85	4059.07
987.01	3909.57
987.17	4091.84
987.33	3966.92
987.49	3905.48
987.65	3952.58
987.82	3958.72
987.98	3823.56
988.14	3938.24
988.30	3989.44
988.46	3829.70
988.62	3968.96
988.78	3868.61
988.94	3811.27
989.10	3774.41
989.26	3755.97
989.42	3835.85
989.59	3710.92
989.75	3772.36
989.91	3731.40
990.07	3776.45
990.23	3643.34
990.39	3669.96
990.55	3809.22
990.71	3694.54
990.87	3674.06
991.03	3694.54
991.19	3723.21
991.35	3696.58
991.51	3674.06
991.67	3708.87
991.83	3712.97
992.00	3868.61
992.16	3659.72
992.32	3780.55
992.48	3739.59
992.64	3596.23
992.80	3622.86
992.96	3620.81
993.12	3579.85
993.28	3622.86
993.44	3557.32
993.60	3622.86
993.76	3653.58
993.92	3633.10
994.08	3661.77
994.24	3538.89
994.40	3618.76
994.56	3522.51
994.72	3575.75
994.88	3514.31
995.04	3426.25
995.20	3471.31
995.36	3491.79
995.52	3416.01
995.68	3444.68
995.84	3446.73
996.00	3504.07
996.16	3352.52
996.32	3330.00
996.48	3432.40
996.64	3475.40
996.80	3454.92
996.96	3465.16
997.12	3422.16
997.28	3264.46
997.44	3246.03
997.60	3307.47
997.76	3291.09
997.92	3309.52
998.08	3395.53
998.24	3198.93
998.40	3405.77
998.56	3317.71
998.72	3239.89
998.88	3252.17
999.04	3280.85
999.20	3481.55
999.36	3291.09
999.52	3311.57
999.68	3196.88
999.84	3237.84
1000.00	3395.53
1000.16	3229.65
1000.32	3198.93
1000.48	3366.86
1000.64	3160.02
1000.80	3215.31
1000.95	3178.45
1001.11	3106.77
1001.27	3112.91
1001.43	3262.41
1001.59	3123.15
1001.75	3170.26
1001.91	3160.02
1002.07	2990.03
1002.23	3133.39
1002.39	3178.45
1002.55	3129.30
1002.71	3102.67
1002.87	3080.14
1003.03	3065.81
1003.19	3080.14
1003.34	3117.01
1003.50	3143.63
1003.66	3160.02
1003.82	3043.28
1003.98	2897.88
1004.14	3016.66
1004.30	3053.52
1004.46	2963.41
1004.62	3016.66
1004.78	2996.18
1004.94	2979.79
1005.09	3047.38
1005.25	3033.04
1005.41	3053.52
1005.57	2975.70
1005.73	2953.17
1005.89	2908.12
1006.05	3041.23
1006.21	3000.27
1006.37	2836.44
1006.52	2936.79
1006.68	2951.12
1006.84	2879.44
1007.00	2772.95
1007.16	2963.41
1007.32	2838.48
1007.48	2846.68
1007.64	2828.24
1007.79	2858.96
1007.95	2854.87
1008.11	2813.91
1008.27	2783.19
1008.43	2899.92
1008.59	2844.63
1008.75	2801.62
1008.91	2861.01
1009.06	2772.95
1009.22	2815.96
1009.38	2848.72
1009.54	2797.53
1009.70	2795.48
1009.86	2809.81
1010.01	2811.86
1010.17	2770.90
1010.33	2764.76
1010.49	2709.46
1010.65	2836.44
1010.81	2727.89
1010.96	2672.60
1011.12	2764.76
1011.28	2727.89
1011.44	2801.62
1011.60	2662.36
1011.76	2699.22
1011.91	2738.13
1012.07	2619.35
1012.23	2721.75
1012.39	2639.83
1012.55	2664.41
1012.71	2607.06
1012.86	2559.96
1013.02	2656.22
1013.18	2623.45
1013.34	2590.68
1013.50	2738.13
1013.65	2666.46
1013.81	2598.87
1013.97	2582.49
1014.13	2568.15
1014.29	2596.82
1014.44	2537.43
1014.60	2596.82
1014.76	2584.54
1014.92	2486.23
1015.07	2543.58
1015.23	2568.15
1015.39	2473.95
1015.55	2590.68
1015.71	2494.43
1015.86	2443.23
1016.02	2426.84
1016.18	2443.23
1016.34	2494.43
1016.49	2486.23
1016.65	2639.83
1016.81	2510.81
1016.97	2496.47
1017.12	2557.91
1017.28	2269.15
1017.44	2441.18
1017.60	2398.17
1017.75	2439.13
1017.91	2430.94
1018.07	2461.66
1018.23	2412.51
1018.38	2373.60
1018.54	2420.70
1018.70	2475.99
1018.86	2308.06
1019.01	2326.49
1019.17	2416.60
1019.33	2504.67
1019.49	2447.32
1019.64	2435.03
1019.80	2412.51
1019.96	2359.26
1020.12	2435.03
1020.27	2295.77
1020.43	2355.16
1020.59	2275.29
1020.74	2385.88
1020.90	2422.75
1021.06	2252.77
1021.22	2306.01
1021.37	2402.27
1021.53	2301.92
1021.69	2316.25
1021.84	2293.72
1022.00	2228.19
1022.16	2320.35
1022.31	2308.06
1022.47	2310.11
1022.63	2355.16
1022.79	2170.85
1022.94	2222.05
1023.10	2344.92
1023.26	2273.25
1023.41	2283.49
1023.57	2289.63
1023.73	2232.29
1023.88	2273.25
1024.04	2119.65
1024.20	2207.71
1024.35	2324.44
1024.51	2293.72
1024.67	2189.28
1024.82	2246.62
1024.98	2168.80
1025.14	2179.04
1025.29	2140.13
1025.45	2193.37
1025.61	2174.94
1025.76	2215.90
1025.92	2252.77
1026.08	2232.29
1026.23	2246.62
1026.39	2242.53
1026.55	2158.56
1026.70	2090.98
1026.86	2271.20
1027.02	2320.35
1027.17	2105.31
1027.33	2213.85
1027.48	2207.71
1027.64	2131.94
1027.80	2125.79
1027.95	2129.89
1028.11	2064.35
1028.27	2148.32
1028.42	2174.94
1028.58	2105.31
1028.73	2123.74
1028.89	2068.45
1029.05	2107.36
1029.20	2105.31
>>>>>End Processed Spectral Data<<<<<
