SpectraSuite Data File
++++++++++++++++++++++++++++++++++++
Date: Fri Jun 02 14:53:33 CEST 2017
User: INFO_000
Dark Spectrum Present: No
Reference Spectrum Present: No
Number of Sampled Component Spectra: 1
Spectrometers: USB4H00879
Integration Time (usec): 80000 (USB4H00879)
Spectra Averaged: 1 (USB4H00879)
Boxcar Smoothing: 0 (USB4H00879)
Correct for Electrical Dark: No (USB4H00879)
Strobe/Lamp Enabled: No (USB4H00879)
Correct for Detector Non-linearity: No (USB4H00879)
Correct for Stray Light: No (USB4H00879)
Number of Pixels in Processed Spectrum: 3648
>>>>>Begin Processed Spectral Data<<<<<
345.13	1318.89
345.34	1318.89
345.56	1318.89
345.78	1286.12
345.99	1277.93
346.21	1679.33
346.42	1658.85
346.64	1574.89
346.86	1839.08
347.07	1624.04
347.29	1718.25
347.50	1615.85
347.72	1613.80
347.94	1802.21
348.15	1542.12
348.37	1593.32
348.59	1691.62
348.80	1728.49
349.02	1775.59
349.23	1855.46
349.45	1798.12
349.67	1916.90
349.88	1736.68
350.10	1961.95
350.31	1902.56
350.53	1818.60
350.75	2070.50
350.96	1773.54
351.18	1859.56
351.39	1865.70
351.61	1824.74
351.82	1839.08
352.04	1892.32
352.26	1869.80
352.47	1808.36
352.69	1970.15
352.90	1806.31
353.12	1904.61
353.34	1890.28
353.55	1877.99
353.77	1843.17
353.98	1882.08
354.20	1886.18
354.41	1912.80
354.63	2000.87
354.85	2084.83
355.06	1945.57
355.28	1830.88
355.49	1902.56
355.71	1884.13
355.92	1822.69
356.14	1925.09
356.35	1886.18
356.57	1814.50
356.79	1957.86
357.00	1863.65
357.22	1986.53
357.43	1849.32
357.65	2013.15
357.86	1796.07
358.08	1896.42
358.29	2011.11
358.51	2093.02
358.72	1959.91
358.94	1990.63
359.16	1943.52
359.37	1888.23
359.59	1906.66
359.80	1992.67
360.02	2064.35
360.23	1992.67
360.45	1984.48
360.66	1886.18
360.88	1839.08
361.09	1904.61
361.31	1988.58
361.52	1998.82
361.74	2107.36
361.95	2031.58
362.17	1910.75
362.38	2129.89
362.60	2066.40
362.81	1961.95
363.03	1959.91
363.24	1996.77
363.46	1990.63
363.67	2023.39
363.89	1953.76
364.10	1982.43
364.32	2002.91
364.53	2072.54
364.75	1871.84
364.96	2007.01
365.18	1939.43
365.39	2002.91
365.61	2007.01
365.82	2150.37
366.04	1978.34
366.25	1984.48
366.47	2088.93
366.68	2039.78
366.90	1998.82
367.11	2093.02
367.33	2050.02
367.54	2056.16
367.76	2013.15
367.97	2187.23
368.19	1984.48
368.40	2121.70
368.62	1964.00
368.83	2011.11
369.05	2027.49
369.26	2033.63
369.48	1961.95
369.69	1894.37
369.91	2060.26
370.12	2025.44
370.33	2154.46
370.55	2064.35
370.76	2021.35
370.98	2105.31
371.19	2039.78
371.41	1961.95
371.62	2037.73
371.84	2025.44
372.05	2183.13
372.27	2101.22
372.48	2076.64
372.69	2131.94
372.91	2025.44
373.12	2146.27
373.34	2105.31
373.55	2160.61
373.77	2254.81
373.98	2189.28
374.20	2222.05
374.41	2316.25
374.62	2111.46
374.84	2152.42
375.05	2230.24
375.27	2154.46
375.48	2168.80
375.70	2197.47
375.91	2234.33
376.12	2246.62
376.34	2154.46
376.55	2101.22
376.77	2265.05
376.98	2101.22
377.19	2097.12
377.41	2131.94
377.62	2176.99
377.84	2353.12
378.05	2355.16
378.27	2109.41
378.48	2234.33
378.69	2385.88
378.91	2377.69
379.12	2322.40
379.34	2168.80
379.55	2314.20
379.76	2312.16
379.98	2220.00
380.19	2265.05
380.41	2256.86
380.62	2232.29
380.83	2176.99
381.05	2230.24
381.26	2381.79
381.47	2269.15
381.69	2291.68
381.90	2336.73
382.12	2328.54
382.33	2291.68
382.54	2385.88
382.76	2359.26
382.97	2353.12
383.19	2285.53
383.40	2363.36
383.61	2287.58
383.83	2260.96
384.04	2443.23
384.25	2306.01
384.47	2367.45
384.68	2349.02
384.89	2351.07
385.11	2404.32
385.32	2351.07
385.54	2373.60
385.75	2344.92
385.96	2346.97
386.18	2363.36
386.39	2402.27
386.60	2336.73
386.82	2451.42
387.03	2486.23
387.24	2406.36
387.46	2355.16
387.67	2467.80
387.88	2555.86
388.10	2480.09
388.31	2428.89
388.52	2580.44
388.74	2602.97
388.95	2494.43
389.16	2514.91
389.38	2459.61
389.59	2625.50
389.80	2594.78
390.02	2598.87
390.23	2625.50
390.44	2537.43
390.66	2598.87
390.87	2516.95
391.08	2666.46
391.30	2822.10
391.51	2717.65
391.72	2658.26
391.94	2641.88
392.15	2639.83
392.36	2686.94
392.58	2619.35
392.79	2666.46
393.00	2631.64
393.22	2707.41
393.43	2799.57
393.64	2822.10
393.85	2797.53
394.07	2699.22
394.28	2744.28
394.49	2850.77
394.71	2801.62
394.92	2858.96
395.13	2729.94
395.35	2666.46
395.56	2746.33
395.77	2838.48
395.98	2916.31
396.20	2877.40
396.41	2871.25
396.62	2899.92
396.84	2904.02
397.05	2928.60
397.26	2994.13
397.47	3047.38
397.69	2947.03
397.90	2922.45
398.11	2928.60
398.32	2895.83
398.54	2914.26
398.75	2936.79
398.96	2883.54
399.18	3135.44
399.39	2981.84
399.60	3092.43
399.81	3104.72
400.03	3012.56
400.24	3321.81
400.45	3026.90
400.66	2979.79
400.88	3100.62
401.09	3215.31
401.30	3082.19
401.51	3174.35
401.73	3076.05
401.94	3237.84
402.15	3256.27
402.36	3133.39
402.58	3256.27
402.79	3102.67
403.00	3297.23
403.21	3190.74
403.43	3260.37
403.64	3196.88
403.85	3108.82
404.06	3268.56
404.27	3065.81
404.49	3153.87
404.70	3117.01
404.91	3325.90
405.12	3274.70
405.34	3319.76
405.55	3434.44
405.76	3203.02
405.97	3368.91
406.19	3403.72
406.40	3239.89
406.61	3305.42
406.82	3469.26
407.03	3254.22
407.25	3264.46
407.46	3436.49
407.67	3416.01
407.88	3424.20
408.09	3350.48
408.31	3420.11
408.52	3395.53
408.73	3338.19
408.94	3373.00
409.15	3456.97
409.37	3497.93
409.58	3514.31
409.79	3418.06
410.00	3504.07
410.21	3440.59
410.43	3571.66
410.64	3399.63
410.85	3575.75
411.06	3485.64
411.27	3461.07
411.48	3616.71
411.70	3540.94
411.91	3483.59
412.12	3520.46
412.33	3622.86
412.54	3610.57
412.76	3594.19
412.97	3622.86
413.18	3526.60
413.39	3563.47
413.60	3692.49
413.81	3657.67
414.03	3721.16
414.24	3657.67
414.45	3860.42
414.66	3577.80
414.87	3762.12
415.08	3594.19
415.30	3790.79
415.51	3665.86
415.72	3698.63
415.93	3645.38
416.14	3780.55
416.35	3743.69
416.56	3829.70
416.78	3790.79
416.99	3891.14
417.20	3803.08
417.41	3846.09
417.62	3805.13
417.83	3952.58
418.04	3985.35
418.26	3930.05
418.47	3870.66
418.68	4005.83
418.89	3987.40
419.10	4104.13
419.31	4011.97
419.52	4089.79
419.73	3995.59
419.95	4038.59
420.16	3850.18
420.37	3987.40
420.58	3973.06
420.79	4014.02
421.00	4149.18
421.21	4165.57
421.42	4042.69
421.63	3997.64
421.85	4034.50
422.06	4175.81
422.27	4128.70
422.48	4077.51
422.69	4087.75
422.90	4181.95
423.11	4343.74
423.32	4190.14
423.53	4335.55
423.75	4300.73
423.96	4372.41
424.17	4388.80
424.38	4444.09
424.59	4466.62
424.80	4425.66
425.01	4542.39
425.22	4446.14
425.43	4364.22
425.64	4564.92
425.85	4732.86
426.06	4538.30
426.28	4655.03
426.49	4372.41
426.70	4448.19
426.91	4513.72
427.12	4747.19
427.33	4630.46
427.54	4470.72
427.75	4702.14
427.96	4892.60
428.17	4706.23
428.38	5023.67
428.59	4798.39
428.80	4722.62
429.01	4833.21
429.23	4796.34
429.44	5015.48
429.65	4997.04
429.86	4966.32
430.07	4861.88
430.28	4960.18
430.49	5019.57
430.70	5132.21
430.91	5126.07
431.12	5046.20
431.33	5105.59
431.54	5185.46
431.75	5162.93
431.96	5181.36
432.17	5138.35
432.38	5148.59
432.59	5457.84
432.80	5175.22
433.01	5115.83
433.22	5328.81
433.43	5382.06
433.64	5263.28
433.85	5410.73
434.06	5420.97
434.27	5429.17
434.49	5392.30
434.70	5578.67
434.91	5572.52
435.12	5463.98
435.33	5470.12
435.54	5476.27
435.75	5332.91
435.96	5527.47
436.17	5480.36
436.38	5670.83
436.59	5640.11
436.80	5611.43
437.01	5851.05
437.22	5879.72
437.43	5728.17
437.64	5740.46
437.85	5814.18
438.06	5861.29
438.27	5793.70
438.48	5593.00
438.69	5867.43
438.90	5957.54
439.11	5916.58
439.32	5955.49
439.53	5894.05
439.74	6188.96
439.95	6031.27
440.16	6055.84
440.37	6195.11
440.57	5887.91
440.78	6074.28
440.99	6107.04
441.20	6121.38
441.41	6203.30
441.62	6213.54
441.83	5984.16
442.04	6184.87
442.25	6160.29
442.46	6143.91
442.67	6242.21
442.88	6688.67
443.09	6133.67
443.30	6186.91
443.51	6234.02
443.72	6592.41
443.93	6291.36
444.14	6557.60
444.35	6320.03
444.56	6533.02
444.77	6498.20
444.98	6506.40
445.19	6608.80
445.40	6625.18
445.61	6514.59
445.81	6606.75
446.02	6557.60
446.23	6471.58
446.44	6479.77
446.65	6637.47
446.86	6569.88
447.07	6760.34
447.28	6754.20
447.49	6991.77
447.70	6952.85
447.91	6872.98
448.12	6719.39
448.33	6922.13
448.54	6971.29
448.74	6786.97
448.95	6866.84
449.16	6842.26
449.37	7229.33
449.58	6946.71
449.79	7159.70
450.00	6893.46
450.21	7200.66
450.42	7241.62
450.63	7182.23
450.84	7237.52
451.05	7049.11
451.25	7116.69
451.46	7186.32
451.67	7196.56
451.88	7413.65
452.09	7344.02
452.30	7313.30
452.51	7243.67
452.72	7393.17
452.93	7706.51
453.13	7208.85
453.34	7260.05
453.55	7532.43
453.76	7489.42
453.97	7706.51
454.18	7597.96
454.39	7532.43
454.60	7647.12
454.81	7542.67
455.01	7620.49
455.22	7520.14
455.43	7847.82
455.64	7833.48
455.85	7980.93
456.06	8001.41
456.27	7901.06
456.48	7659.40
456.68	7991.17
456.89	8089.48
457.10	8150.92
457.31	8048.52
457.52	7794.57
457.73	8238.98
457.94	8259.46
458.14	8062.85
458.35	8380.29
458.56	8324.99
458.77	8243.07
458.98	8337.28
459.19	8490.88
459.39	8583.04
459.60	8365.95
459.81	8427.39
460.02	8656.76
460.23	8599.42
460.44	8710.01
460.65	8619.90
460.85	8699.77
461.06	8763.26
461.27	8488.83
461.48	8845.18
461.69	9103.22
461.89	8515.45
462.10	8929.14
462.31	8748.92
462.52	8867.70
462.73	8879.99
462.94	9248.63
463.14	9035.64
463.35	9142.13
463.56	9521.01
463.77	9336.69
463.98	9117.56
464.18	9160.56
464.39	9469.81
464.60	9609.07
464.81	9432.94
465.02	9514.86
465.23	9672.56
465.43	9629.55
465.64	9856.87
465.85	9680.75
466.06	9570.16
466.27	9996.14
466.47	9877.35
466.68	9693.04
466.89	9760.62
467.10	10000.23
467.30	9946.98
467.51	10205.03
467.72	10291.04
467.93	9873.26
468.14	10274.66
468.34	10475.36
468.55	10217.32
468.76	10360.67
468.97	10149.73
469.17	10473.31
469.38	10577.76
469.59	10764.12
469.80	10588.00
470.01	10714.97
470.21	10792.80
470.42	11075.42
470.63	10938.20
470.84	11050.84
471.04	11255.64
471.25	11233.11
471.46	11145.05
471.67	11487.06
471.87	11315.03
472.08	11468.62
472.29	11472.72
472.50	11267.92
472.70	11288.40
472.91	11542.35
473.12	11687.76
473.33	11614.03
473.53	12175.17
473.74	11747.15
473.95	12078.92
474.16	12242.76
474.36	12078.92
474.57	12242.76
474.78	12431.17
474.99	12320.58
475.19	12414.79
475.40	12910.40
475.61	12764.99
475.81	12902.20
476.02	13143.86
476.23	13104.95
476.44	13107.00
476.64	13205.30
476.85	13315.89
477.06	13147.96
477.27	13618.99
477.47	13784.88
477.68	13453.11
477.89	13983.53
478.09	13682.48
478.30	13817.65
478.51	13557.55
478.71	14094.12
478.92	14151.46
479.13	14300.97
479.34	14429.99
479.54	14429.99
479.75	14362.40
479.96	14468.90
480.16	14669.60
480.37	14815.01
480.58	14970.65
480.78	14984.99
480.99	15177.50
481.20	15175.45
481.41	15245.08
481.61	15396.63
481.82	15423.25
482.03	15718.16
482.23	15468.31
482.44	15767.31
482.65	16084.75
482.85	15998.73
483.06	15851.28
483.27	16082.70
483.47	16217.86
483.68	16353.03
483.89	16340.74
484.09	16563.97
484.30	16676.61
484.51	16893.69
484.71	17018.62
484.92	16764.67
485.13	16996.09
485.33	16985.85
485.54	17188.60
485.75	17383.16
485.95	17608.44
486.16	17520.37
486.37	17598.20
486.57	17698.55
486.78	17602.29
486.98	17721.07
487.19	18102.00
487.40	18085.61
487.60	18018.03
487.81	18388.71
488.02	18218.73
488.22	18403.05
488.43	18362.09
488.64	18589.41
488.84	18818.78
489.05	18996.96
489.25	18859.74
489.46	18992.86
489.67	19156.70
489.87	19156.70
490.08	19322.59
490.29	19500.76
490.49	19633.88
490.70	19797.71
490.90	20051.66
491.11	19576.53
491.32	19846.87
491.52	20049.61
491.73	19947.22
491.94	20178.64
492.14	20426.44
492.35	20475.59
492.55	20516.55
492.76	20727.49
492.97	20786.88
493.17	20838.08
493.38	21046.97
493.58	21149.37
493.79	21300.92
494.00	21163.71
494.20	21479.10
494.41	21204.67
494.61	21466.81
494.82	21880.50
495.02	21483.19
495.23	21655.22
495.44	21868.21
495.64	21911.22
495.85	22128.30
496.05	22095.53
496.26	22259.37
496.47	22650.53
496.67	22462.12
496.88	22685.35
497.08	22488.74
497.29	22681.25
497.49	22744.74
497.70	22988.45
497.91	22892.19
498.11	22828.71
498.32	23234.21
498.52	23094.94
498.73	23334.56
498.93	23271.07
499.14	23635.61
499.34	23785.11
499.55	23656.09
499.76	23627.42
499.96	23750.29
500.17	23754.39
500.37	23877.27
500.58	23889.56
500.78	23961.23
500.99	24080.02
501.19	24481.42
501.40	24383.12
501.60	24587.91
501.81	24499.85
502.02	24426.12
502.22	24092.30
502.43	24575.62
502.63	25044.61
502.84	24823.43
503.04	25044.61
503.25	25024.13
503.45	24630.92
503.66	25056.90
503.86	25124.48
504.07	25468.54
504.27	25163.39
504.48	25349.76
504.68	25394.81
504.89	25728.63
505.09	25691.77
505.30	25675.38
505.50	25446.01
505.71	26005.11
505.91	26076.79
506.12	26062.45
506.32	26033.78
506.53	25706.10
506.73	26252.91
506.94	26267.25
507.14	26480.24
507.35	26273.39
507.55	26318.45
507.76	26332.78
507.96	26547.82
508.17	26556.01
508.37	26707.56
508.58	26721.90
508.78	26709.61
508.99	27006.56
509.19	26838.63
509.40	26785.38
509.60	26881.64
509.81	26848.87
510.01	26625.64
510.22	27129.44
510.42	27086.43
510.63	27125.35
510.83	27020.90
511.04	27090.53
511.24	27481.69
511.44	27424.35
511.65	27420.25
511.85	27295.33
512.06	27663.96
512.26	27577.95
512.47	27580.00
512.67	27580.00
512.88	27842.14
513.08	27625.05
513.29	27879.00
513.49	27817.56
513.69	27993.68
513.90	27731.54
514.10	28036.69
514.31	28128.85
514.51	28116.56
514.72	27866.71
514.92	28292.69
515.13	28192.34
515.33	27993.68
515.53	28231.25
515.74	28382.80
515.94	28360.27
516.15	28356.18
516.35	28055.12
516.56	28708.43
516.76	28401.23
516.96	28655.18
517.17	28538.44
517.37	28679.75
517.58	28460.62
517.78	29050.44
517.99	28845.64
518.19	29126.21
518.39	29085.25
518.60	29107.78
518.80	29064.77
519.01	29242.95
519.21	29134.40
519.41	29046.34
519.62	29421.12
519.82	29539.90
520.03	29195.84
520.23	29470.27
520.43	29242.95
520.64	29818.42
520.84	29886.01
521.05	29279.81
521.25	30127.67
521.45	29877.82
521.66	30031.41
521.86	29777.47
522.07	29687.36
522.27	30170.68
522.47	30049.85
522.68	30334.51
522.88	30037.56
523.08	30443.06
523.29	30252.59
523.49	30559.79
523.70	30285.36
523.90	30500.40
524.10	30692.91
524.31	30697.00
524.51	30375.47
524.71	30901.80
524.92	30770.73
525.12	30776.87
525.33	31225.38
525.53	31082.02
525.73	30991.91
525.94	30965.29
526.14	31106.60
526.34	31454.75
526.55	31213.09
526.75	31127.08
526.95	31428.13
527.16	31311.39
527.36	31358.50
527.56	31700.51
527.77	32087.57
527.97	31608.35
528.17	31473.18
528.38	32063.00
528.58	32060.95
528.78	32134.68
528.99	31782.43
529.19	32407.06
529.39	32243.22
529.60	32519.70
529.80	32699.92
530.00	32196.12
530.21	32601.61
530.41	32935.43
530.61	32531.98
530.82	32941.58
531.02	32759.31
531.22	33371.65
531.43	32880.14
531.63	33293.83
531.83	33218.05
532.04	33762.81
532.24	33412.61
532.44	33664.51
532.64	33666.56
532.85	33381.89
533.05	33943.03
533.25	33881.60
533.46	33850.88
533.66	34180.60
533.86	33809.92
534.07	34121.21
534.27	34074.10
534.47	34682.35
534.67	34633.20
534.88	34422.26
535.08	34362.87
535.28	34289.14
535.49	34895.34
535.69	35100.14
535.89	35122.66
536.09	35212.77
536.30	35294.69
536.50	35102.18
536.70	35558.88
536.91	35276.26
537.11	35333.60
537.31	35532.26
537.51	35542.50
537.72	35980.76
537.92	35874.27
538.12	36017.63
538.32	35720.67
538.53	35724.77
538.73	35771.87
538.93	35945.95
539.13	36300.25
539.34	36333.01
539.54	35950.04
539.74	36279.77
539.94	36521.43
540.15	36335.06
540.35	36744.66
540.55	36496.85
540.75	36906.44
540.96	36845.01
541.16	37127.63
541.36	36906.44
541.56	37189.06
541.77	37068.23
541.97	37246.41
542.17	37139.91
542.37	37195.21
542.58	37074.38
542.78	37420.48
542.98	37330.37
543.18	37680.58
543.38	37942.72
543.59	37594.56
543.79	37776.83
543.99	37782.98
544.19	37899.71
544.40	37621.19
544.60	38467.00
544.80	38374.84
545.00	38112.70
545.20	38286.78
545.41	38225.34
545.61	38358.45
545.81	38745.52
546.01	38415.80
546.21	38675.89
546.42	38542.77
546.62	38778.29
546.82	38729.14
547.02	38839.73
547.22	39181.74
547.43	38821.30
547.63	38952.37
547.83	39163.31
548.03	39155.11
548.23	39339.43
548.44	38974.89
548.64	39552.42
548.84	39519.65
549.04	39509.41
549.24	39847.33
549.45	39679.39
549.65	39574.95
549.85	39957.92
550.05	40297.88
550.25	39978.40
550.45	40500.63
550.66	40375.70
550.86	40166.81
551.06	39912.86
551.26	40203.67
551.46	40502.68
551.66	40385.94
551.87	40549.78
552.07	40418.71
552.27	40332.70
552.47	40838.54
552.67	41158.03
552.87	40705.43
553.07	40889.74
553.28	40820.11
553.48	40963.47
553.68	40764.82
553.88	41354.63
554.08	41274.76
554.28	41026.96
554.48	41051.53
554.69	41346.44
554.89	41244.04
555.09	41295.24
555.29	41436.55
555.49	41559.43
555.69	41588.10
555.89	42007.94
556.10	41645.44
556.30	41829.76
556.50	41563.53
556.70	41581.96
556.90	42114.43
557.10	42087.81
557.30	41917.82
557.50	42495.35
557.70	42132.86
557.91	42210.68
558.11	42241.40
558.31	42476.92
558.51	42333.56
558.71	42526.07
558.91	42532.22
559.11	42698.10
559.31	42351.99
559.51	42206.59
559.72	42792.31
559.92	42892.66
560.12	42573.17
560.32	42796.40
560.52	42337.66
560.72	43115.89
560.92	43007.34
561.12	42960.24
561.32	43414.89
561.52	43292.01
561.72	43584.87
561.93	43222.38
562.13	43169.13
562.33	43349.35
562.53	43853.15
562.73	43167.09
562.93	43392.36
563.13	43775.33
563.33	43593.06
563.53	43865.44
563.73	43724.13
563.93	43459.94
564.13	44434.78
564.33	43754.85
564.53	43873.63
564.74	44430.68
564.94	43689.32
565.14	44397.91
565.34	43967.84
565.54	44146.01
565.74	44225.89
565.94	44512.60
566.14	44494.17
566.34	44225.89
566.54	44983.63
566.74	44270.94
566.94	44670.29
567.14	44584.28
567.34	44889.43
567.54	44961.11
567.74	44762.45
567.94	44604.76
568.14	45364.56
568.34	44977.49
568.54	45327.69
568.74	45174.09
568.94	45151.57
569.14	45487.43
569.34	45466.95
569.54	44997.97
569.75	45120.85
569.95	45479.24
570.15	45886.79
570.35	45718.85
570.55	45358.41
570.75	45659.46
570.95	45636.94
571.15	45999.43
571.35	45909.32
571.55	46028.10
571.75	45704.52
571.95	46038.34
572.15	45681.99
572.35	46462.27
572.55	45925.70
572.75	45954.37
572.95	46568.76
573.15	46535.99
573.35	46193.98
573.55	46329.15
573.75	45966.66
573.95	46888.24
574.15	46556.47
574.35	46638.39
574.55	46695.74
574.75	46609.72
574.95	46789.94
575.15	46339.39
575.34	46896.44
575.54	47021.36
575.74	46900.53
575.94	47301.93
576.14	47193.39
576.34	47639.85
576.54	47566.12
576.74	47342.89
576.94	47437.10
577.14	47674.66
577.34	47928.61
577.54	47826.21
577.74	47508.78
577.94	47576.36
578.14	47576.36
578.34	48178.46
578.54	47408.43
578.74	47371.57
578.94	47910.18
579.14	47873.32
579.34	47916.32
579.54	47807.78
579.74	48819.48
579.94	48272.67
580.13	48776.47
580.33	48770.33
580.53	48561.44
580.73	48135.46
580.93	47783.21
581.13	48512.28
581.33	48870.68
581.53	48631.07
581.73	48833.81
581.93	49087.76
582.13	49382.67
582.33	49415.44
582.53	49036.56
582.73	49526.03
582.92	49298.70
583.12	49370.38
583.32	49032.47
583.52	49313.04
583.72	49493.26
583.92	49069.33
584.12	49566.99
584.32	49759.50
584.52	49566.99
584.72	49859.85
584.92	49935.62
585.11	50238.72
585.31	49718.54
585.51	49937.67
585.71	49360.14
585.91	50058.50
586.11	50009.35
586.31	49865.99
586.51	49720.59
586.71	50363.65
586.91	50617.60
587.10	50177.28
587.30	50205.95
587.50	50312.45
587.70	50676.99
587.90	50824.44
588.10	50627.84
588.30	50271.49
588.50	50824.44
588.69	50464.00
588.89	50740.47
589.09	51059.96
589.29	50693.37
589.49	51266.80
589.69	50656.51
589.89	50730.23
590.08	50806.01
590.28	50795.77
590.48	50945.27
590.68	50648.32
590.88	50994.42
591.08	51469.55
591.28	50988.28
591.47	51330.29
591.67	51207.41
591.87	51184.88
592.07	51272.95
592.27	51166.45
592.47	51176.69
592.67	51199.22
592.86	51207.41
593.06	51389.68
593.26	51647.72
593.46	51428.59
593.66	51496.17
593.86	52081.89
594.05	51471.60
594.25	51848.42
594.45	51664.11
594.65	51705.07
594.85	51262.71
595.05	51954.92
595.24	52315.36
595.44	51856.62
595.64	51881.19
595.84	51860.71
596.04	51807.47
596.23	51770.60
596.43	52165.86
596.63	52227.30
596.83	51522.80
597.03	52182.24
597.22	52325.60
597.42	52282.59
597.62	52268.26
597.82	52561.12
598.02	52532.45
598.21	52692.19
598.41	51995.88
598.61	52415.71
598.81	52534.49
599.01	52606.17
599.20	52425.95
599.40	52491.49
599.60	52720.86
599.80	52335.84
600.00	52978.90
600.19	53011.67
600.39	52344.03
600.59	52825.31
600.79	52888.79
600.98	52937.94
601.18	52929.75
601.38	53146.84
601.58	53535.95
601.78	52802.78
601.97	52956.38
602.17	53220.56
602.37	53245.14
602.57	52917.46
602.76	54033.61
602.96	53056.73
603.16	53570.77
603.36	53288.15
603.55	53851.34
603.75	53161.17
603.95	53599.44
604.15	53705.93
604.34	53187.80
604.54	53775.56
604.74	53810.38
604.94	53720.27
605.13	53722.32
605.33	54084.81
605.53	53490.90
605.73	53998.79
605.92	53804.24
606.12	53963.98
606.32	54133.96
606.52	54052.04
606.71	53837.00
606.91	54236.36
607.11	53271.76
607.30	54248.64
607.50	54109.38
607.70	54152.39
607.90	54015.18
608.09	53849.29
608.29	54136.01
608.49	54314.18
608.68	54340.80
608.88	53976.26
609.08	54179.01
609.28	54621.37
609.47	54086.85
609.67	54789.31
609.87	54301.89
610.06	54707.39
610.26	54441.15
610.46	54693.05
610.66	54508.74
610.85	54412.48
611.05	54004.94
611.25	54305.99
611.44	54308.04
611.64	54512.83
611.84	54342.85
612.03	54146.25
612.23	54465.73
612.43	54402.24
612.62	54285.51
612.82	54516.93
613.02	54222.02
613.21	54211.78
613.41	53837.00
613.61	54416.58
613.80	53959.88
614.00	54592.70
614.20	54260.93
614.39	54029.51
614.59	54830.27
614.79	54543.55
614.98	54463.68
615.18	54207.68
615.38	54326.47
615.57	54191.30
615.77	54287.56
615.97	54353.09
616.16	54316.23
616.36	54224.07
616.56	54305.99
616.75	54527.17
616.95	53779.66
617.15	54455.49
617.34	54209.73
617.54	54201.54
617.74	54353.09
617.93	54514.88
618.13	54215.88
618.32	54033.61
618.52	53777.61
618.72	54521.02
618.91	54248.64
619.11	53832.91
619.31	54056.14
619.50	53812.43
619.70	53728.46
619.90	54111.43
620.09	54195.40
620.29	54412.48
620.48	54070.47
620.68	54066.38
620.88	53812.43
621.07	53857.48
621.27	53957.83
621.46	53685.45
621.66	54148.29
621.86	54205.64
622.05	53744.84
622.25	54074.57
622.44	54029.51
622.64	54064.33
622.84	54248.64
623.03	53955.78
623.23	53984.46
623.42	53896.39
623.62	53718.22
623.82	53896.39
624.01	53796.04
624.21	54308.04
624.40	53759.18
624.60	53509.33
624.80	53615.82
624.99	53976.26
625.19	53150.93
625.38	53658.83
625.58	53908.68
625.77	54219.97
625.97	53791.95
626.17	53220.56
626.36	53896.39
626.56	53619.92
626.75	53339.35
626.95	54252.74
627.14	53400.79
627.34	54254.79
627.54	53597.39
627.73	53286.10
627.93	53992.65
628.12	53355.73
628.32	53552.33
628.51	53988.55
628.71	53486.80
628.90	53763.28
629.10	53695.69
629.30	53521.62
629.49	53535.95
629.69	53529.81
629.88	53785.80
630.08	53988.55
630.27	54209.73
630.47	53998.79
630.66	53415.12
630.86	53826.76
631.05	53515.47
631.25	53767.37
631.44	53773.52
631.64	53667.02
631.84	53288.15
632.03	54277.32
632.23	53443.79
632.42	54154.44
632.62	53609.68
632.81	53568.72
633.01	53427.41
633.20	54377.67
633.40	53671.12
633.59	54099.14
633.79	53239.00
633.98	54232.26
634.18	53910.73
634.37	53988.55
634.57	54090.95
634.76	54088.90
634.96	53925.07
635.15	54056.14
635.35	53179.60
635.54	53888.20
635.74	53968.07
635.93	53556.43
636.13	53744.84
636.32	53943.50
636.52	53376.21
636.71	53646.54
636.91	53773.52
637.10	54002.89
637.30	53683.40
637.49	53984.46
637.69	53664.97
637.88	53972.17
638.08	53834.95
638.27	54111.43
638.46	54090.95
638.66	53882.06
638.85	53554.38
639.05	53949.64
639.24	54385.86
639.44	53558.48
639.63	54074.57
639.83	54146.25
640.02	54179.01
640.22	54093.00
640.41	54471.87
640.61	54209.73
640.80	53986.50
640.99	53869.77
641.19	54527.17
641.38	54596.80
641.58	54277.32
641.77	54072.52
641.97	54203.59
642.16	54138.05
642.36	54564.03
642.55	54748.35
642.74	54170.82
642.94	54559.94
643.13	54015.18
643.33	54488.26
643.52	54865.08
643.72	54781.12
643.91	54678.72
644.10	54652.09
644.30	54447.30
644.49	54437.06
644.69	54545.60
644.88	54654.14
645.08	54439.11
645.27	54318.28
645.46	54443.20
645.66	55284.92
645.85	54181.06
646.05	54719.68
646.24	54406.34
646.43	54856.89
646.63	54779.07
646.82	55008.44
647.02	54731.96
647.21	55153.85
647.40	54875.32
647.60	55598.26
647.79	54869.18
647.99	55055.54
648.18	54885.56
648.37	55655.60
648.57	55407.79
648.76	55176.37
648.96	54944.95
649.15	55409.84
649.34	55620.78
649.54	55456.95
649.73	55280.82
649.92	55553.20
650.12	55385.27
650.31	55276.72
650.51	55819.44
650.70	55915.69
650.89	55465.14
651.09	55846.06
651.28	55919.79
651.47	55514.29
651.67	55862.44
651.86	56054.95
652.06	55123.13
652.25	55764.14
652.44	55606.45
652.64	55424.18
652.83	55559.34
653.02	55403.70
653.22	55891.12
653.41	55844.01
653.60	55524.53
653.80	55960.75
653.99	56077.48
654.18	56112.30
654.38	55706.80
654.57	55940.27
654.76	55751.85
654.96	55751.85
655.15	55590.06
655.34	55606.45
655.54	55651.50
655.73	56032.42
655.92	55733.42
656.12	56423.59
656.31	56009.90
656.50	55833.77
656.70	55927.98
656.89	56216.74
657.08	56249.51
657.28	56034.47
657.47	55917.74
657.66	56827.04
657.86	56145.06
658.05	55968.94
658.24	56274.09
658.43	56061.10
658.63	56476.83
658.82	56233.13
659.01	56917.15
659.21	56763.55
659.40	56521.89
659.59	56292.52
659.79	56521.89
659.98	56726.69
660.17	56671.39
660.36	56343.72
660.56	56368.29
660.75	57060.51
660.94	56640.67
661.14	55999.66
661.33	56382.63
661.52	56177.83
661.71	56884.38
661.91	56464.55
662.10	56368.29
662.29	56968.35
662.49	57316.50
662.68	56685.73
662.87	56900.76
663.06	56800.41
663.26	56501.41
663.45	57205.91
663.64	56878.24
663.83	57267.35
664.03	57142.42
664.22	57013.40
664.41	56849.56
664.60	56542.37
664.80	57377.94
664.99	57040.03
665.18	56853.66
665.37	57089.18
665.57	57236.63
665.76	57121.94
665.95	57250.97
666.14	57083.03
666.34	57359.51
666.53	57216.15
666.72	56997.02
666.91	56448.16
667.11	56943.77
667.30	56925.34
667.49	57457.81
667.68	56958.11
667.87	56900.76
668.07	57332.89
668.26	57003.16
668.45	57482.39
668.64	57291.93
668.84	57939.08
669.03	57437.33
669.22	57123.99
669.41	57822.35
669.60	57308.31
669.80	57144.47
669.99	57785.49
670.18	56945.82
670.37	57724.05
670.57	57916.56
670.76	57341.08
670.95	57822.35
671.14	57302.17
671.33	57144.47
671.53	57177.24
671.72	57214.10
671.91	57621.65
672.10	57693.33
672.29	57541.78
672.48	57588.88
672.68	57875.60
672.87	57379.99
673.06	57332.89
673.25	57044.12
673.44	57296.02
673.64	57314.45
673.83	57535.63
674.02	57500.82
674.21	57341.08
674.40	57799.82
674.59	57154.71
674.79	57222.29
674.98	57308.31
675.17	57515.15
675.36	57392.28
675.55	57916.56
675.74	57418.90
675.94	57308.31
676.13	57472.15
676.32	57808.01
676.51	58229.90
676.70	57752.72
676.89	57533.59
677.08	57662.61
677.28	57488.53
677.47	57920.65
677.66	58012.81
677.85	57312.41
678.04	58100.87
678.23	58012.81
678.42	57480.34
678.62	57656.46
678.81	57963.66
679.00	57914.51
679.19	58727.55
679.38	58172.55
679.57	57814.16
679.76	57543.83
679.96	57787.53
680.15	57324.69
680.34	57828.49
680.53	57783.44
680.72	58037.39
680.91	57869.45
681.10	57488.53
681.29	57771.15
681.48	57857.17
681.68	57566.35
681.87	57433.24
682.06	57547.92
682.25	57629.84
682.44	57267.35
682.63	57898.12
682.82	57394.32
683.01	57472.15
683.20	57617.55
683.39	57791.63
683.59	57185.43
683.78	57326.74
683.97	57277.59
684.16	57281.69
684.35	57592.98
684.54	57050.27
684.73	57224.34
684.92	56978.59
685.11	57359.51
685.30	57156.76
685.49	57586.83
685.69	57013.40
685.88	57244.82
686.07	57664.66
686.26	57189.53
686.45	57384.08
686.64	57201.82
686.83	57240.73
687.02	57265.30
687.21	57814.16
687.40	57627.79
687.59	57441.43
687.78	57384.08
687.97	57545.87
688.16	57592.98
688.35	57128.09
688.54	57175.19
688.74	57351.32
688.93	56980.63
689.12	57324.69
689.31	57562.26
689.50	57652.37
689.69	56824.99
689.88	56546.47
690.07	56745.12
690.26	56974.49
690.45	57230.49
690.64	56908.96
690.83	56956.06
691.02	56988.83
691.21	56792.22
691.40	56929.44
691.59	56980.63
691.78	57109.66
691.97	57214.10
692.16	56890.52
692.35	57173.14
692.54	57019.55
692.73	56806.56
692.92	56939.68
693.11	57078.94
693.30	56693.92
693.49	56628.38
693.68	56523.94
693.87	56777.89
694.06	56593.57
694.25	56138.92
694.44	56515.75
694.63	56370.34
694.82	56751.26
695.01	56566.94
695.20	56523.94
695.39	56415.40
695.58	56556.70
695.77	55659.69
695.96	56161.45
696.15	56370.34
696.34	56071.34
696.53	56714.40
696.72	56155.30
696.91	56186.02
697.10	56616.10
697.29	56634.53
697.48	56538.27
697.67	55528.62
697.86	55893.16
698.05	55815.34
698.24	56747.17
698.43	55391.41
698.62	56030.38
698.81	55921.83
699.00	56251.56
699.19	55774.38
699.38	56169.64
699.57	55469.23
699.76	56595.62
699.95	55919.79
700.14	55743.66
700.32	55674.03
700.51	55647.41
700.70	55962.79
700.89	56278.18
701.08	56390.82
701.27	55643.31
701.46	55911.59
701.65	55338.16
701.84	55571.63
702.03	55286.96
702.22	55411.89
702.41	55682.22
702.60	55442.61
702.79	55010.49
702.98	54936.76
703.17	55393.46
703.35	55188.66
703.54	55383.22
703.73	55385.27
703.92	55379.12
704.11	54944.95
704.30	54541.50
704.49	54903.99
704.68	54867.13
704.87	55157.94
705.06	55200.95
705.25	54424.77
705.43	54951.10
705.62	54760.64
705.81	54869.18
706.00	54797.50
706.19	54125.77
706.38	54396.10
706.57	55039.16
706.76	54336.71
706.95	54920.38
707.14	54258.88
707.32	54348.99
707.51	54195.40
707.70	54097.09
707.89	54539.46
708.08	54185.16
708.27	54187.21
708.46	54895.80
708.65	53884.11
708.84	54545.60
709.02	54748.35
709.21	54123.72
709.40	54142.15
709.59	54363.33
709.78	53998.79
709.97	54183.11
710.16	53933.26
710.34	53906.63
710.53	54015.18
710.72	53738.70
710.91	53834.95
711.10	54146.25
711.29	54002.89
711.48	53679.31
711.66	53658.83
711.85	53361.87
712.04	53597.39
712.23	53525.71
712.42	53288.15
712.61	53312.72
712.80	53318.87
712.98	53206.23
713.17	52993.24
713.36	53712.08
713.55	53431.50
713.74	53402.83
713.93	53376.21
714.11	53273.81
714.30	53222.61
714.49	52954.33
714.68	53345.49
714.87	53239.00
715.06	53263.57
715.24	52737.24
715.43	53134.55
715.62	52677.85
715.81	52409.57
716.00	52888.79
716.18	52483.30
716.37	52407.52
716.56	52225.25
716.75	52835.55
716.94	52401.38
717.12	52477.15
717.31	52774.11
717.50	52344.03
717.69	52348.13
717.88	52243.68
718.06	52305.12
718.25	52522.21
718.44	51922.15
718.63	52071.65
718.82	51774.70
719.00	51700.97
719.19	51942.63
719.38	51674.35
719.57	51555.57
719.76	51070.20
719.94	50853.11
720.13	51055.86
720.32	51371.25
720.51	51086.58
720.69	51197.17
720.88	51127.54
721.07	51549.42
721.26	50691.32
721.44	50742.52
721.63	50779.39
721.82	50384.13
722.01	50468.09
722.20	50834.68
722.38	50773.24
722.57	50429.18
722.76	50263.30
722.95	50128.13
723.13	49820.94
723.32	50160.90
723.51	49911.05
723.70	49777.93
723.88	50261.25
724.07	50488.57
724.26	50242.82
724.44	49741.06
724.63	50003.20
724.82	50025.73
725.01	50093.32
725.19	49648.91
725.38	49472.78
725.57	49470.73
725.76	49421.58
725.94	49364.24
726.13	49356.05
726.32	49165.59
726.51	49591.56
726.69	49739.02
726.88	49521.93
727.07	49124.63
727.25	49011.99
727.44	49106.19
727.63	49155.35
727.82	49227.02
728.00	49206.55
728.19	48956.69
728.38	49779.98
728.56	48706.84
728.75	49366.29
728.94	48702.74
729.12	49243.41
729.31	49317.14
729.50	49100.05
729.69	48968.98
729.87	49186.07
730.06	48788.76
730.25	48635.16
730.43	49413.39
730.62	48801.05
730.81	49022.23
730.99	49075.48
731.18	48831.77
731.37	48526.62
731.55	48891.16
731.74	48954.64
731.93	48823.58
732.11	48885.01
732.30	48815.38
732.49	48411.93
732.67	48997.65
732.86	48813.34
733.05	49034.52
733.23	48209.18
733.42	48356.64
733.61	48500.00
733.79	48491.80
733.98	48616.73
734.17	48473.37
734.35	48342.30
734.54	48426.27
734.73	48573.72
734.91	48557.34
735.10	48069.92
735.29	48413.98
735.47	48082.21
735.66	48268.58
735.84	47736.10
736.03	48000.29
736.22	48882.97
736.40	48020.77
736.59	47949.09
736.78	47928.61
736.96	48045.35
737.15	47899.94
737.33	47838.50
737.52	47570.22
737.71	47820.07
737.89	48291.10
738.08	47658.28
738.27	47279.41
738.45	48231.71
738.64	47559.98
738.82	47469.87
739.01	47740.20
739.20	47535.40
739.38	47463.72
739.57	47637.80
739.75	47785.25
739.94	47308.08
740.13	47158.58
740.31	47375.66
740.50	46832.95
740.68	47080.75
740.87	47301.93
741.06	47443.24
741.24	46615.86
741.43	46830.90
741.61	46865.72
741.80	46900.53
741.99	47066.42
742.17	46660.92
742.36	46816.57
742.54	46642.49
742.73	46482.75
742.91	46873.91
743.10	46486.84
743.29	47058.23
743.47	46290.24
743.66	46329.15
743.84	46839.09
744.03	46794.04
744.21	46480.70
744.40	46669.11
744.59	46249.28
744.77	46116.16
744.96	46456.12
745.14	46671.16
745.33	46400.83
745.51	46314.81
745.70	46495.03
745.88	46067.01
746.07	46611.77
746.26	46064.96
746.44	46148.93
746.63	45823.30
746.81	45563.21
747.00	45765.96
747.18	46079.30
747.37	45862.21
747.55	45856.07
747.74	46153.02
747.92	45512.01
748.11	45643.08
748.29	45768.01
748.48	45589.83
748.66	45626.70
748.85	45688.13
749.03	45512.01
749.22	45198.67
749.41	45233.49
749.59	45460.81
749.78	45167.95
749.96	44928.34
750.15	45421.90
750.33	45122.90
750.52	45067.60
750.70	45108.56
750.89	44987.73
751.07	45129.04
751.26	44924.24
751.44	44756.31
751.63	45200.72
751.81	44600.66
752.00	44791.12
752.18	45112.66
752.37	44477.79
752.55	44518.74
752.74	44346.72
752.92	44232.03
753.10	44584.28
753.29	44176.73
753.47	44262.75
753.66	44238.17
753.84	44455.26
754.03	44242.27
754.21	44238.17
754.40	44195.17
754.58	44410.20
754.77	44176.73
754.95	44086.62
755.14	43746.66
755.32	43943.27
755.51	43736.42
755.69	43726.18
755.88	43529.58
756.06	44254.56
756.24	43609.45
756.43	43636.07
756.61	43558.25
756.80	43552.10
756.98	43588.97
757.17	43920.74
757.35	43717.99
757.54	43679.08
757.72	43855.20
757.90	43316.59
758.09	43128.17
758.27	43246.96
758.46	43206.00
758.64	43306.35
758.83	43586.92
759.01	43246.96
759.19	43122.03
759.38	43482.47
759.56	43724.13
759.75	43464.04
759.93	43113.84
760.12	43068.78
760.30	42997.10
760.48	43107.69
760.67	42734.96
760.85	42898.80
761.04	43115.89
761.22	42614.13
761.40	42720.63
761.59	42521.98
761.77	42141.05
761.96	42896.75
762.14	43029.87
762.32	42143.10
762.51	42460.54
762.69	42741.11
762.88	42225.02
763.06	42317.18
763.24	42274.17
763.43	42272.12
763.61	42075.52
763.80	42548.60
763.98	42204.54
764.16	42126.72
764.35	42089.85
764.53	41608.58
764.72	41706.88
764.90	41620.87
765.08	42050.94
765.27	41715.08
765.45	41813.38
765.63	41268.62
765.82	41698.69
766.00	41352.58
766.18	41442.70
766.37	41667.97
766.55	41350.54
766.74	41670.02
766.92	41393.54
767.10	41309.58
767.29	41483.66
767.47	40797.59
767.65	41426.31
767.84	41268.62
768.02	41016.72
768.20	41016.72
768.39	41166.22
768.57	41231.75
768.75	41252.23
768.94	40975.76
769.12	41135.50
769.30	40660.37
769.49	40580.50
769.67	40543.64
769.85	40099.23
770.04	40852.88
770.22	40598.93
770.40	40332.70
770.59	40086.94
770.77	40293.79
770.95	40404.38
771.14	40209.82
771.32	39904.67
771.50	40113.56
771.69	39927.20
771.87	40424.86
772.05	40449.43
772.24	40007.07
772.42	39957.92
772.60	40062.36
772.78	39613.86
772.97	39548.32
773.15	39773.60
773.33	40119.71
773.52	39613.86
773.70	39792.03
773.88	40000.93
774.07	39708.07
774.25	39679.39
774.43	40166.81
774.61	40187.29
774.80	39947.68
774.98	39751.07
775.16	39507.37
775.34	39878.05
775.53	39632.29
775.71	40099.23
775.89	39886.24
776.08	39910.82
776.26	40293.79
776.44	39933.34
776.62	39775.65
776.81	39789.98
776.99	40189.34
777.17	39847.33
777.35	39904.67
777.54	40107.42
777.72	39910.82
777.90	39638.44
778.08	40232.35
778.27	40072.60
778.45	40258.97
778.63	40390.04
778.81	39876.00
779.00	40701.33
779.18	40560.02
779.36	40609.17
779.54	39810.46
779.73	40179.10
779.91	40351.13
780.09	40355.22
780.27	40566.16
780.46	40789.39
780.64	40611.22
780.82	40252.83
781.00	40570.26
781.19	40867.22
781.37	41018.77
781.55	40809.87
781.73	40785.30
781.91	40435.10
782.10	40566.16
782.28	40856.98
782.46	40562.07
782.64	40742.29
782.82	40353.18
783.01	40758.67
783.19	40803.73
783.37	40732.05
783.55	40557.97
783.74	41092.49
783.92	41004.43
784.10	41244.04
784.28	41127.31
784.46	40646.04
784.64	40662.42
784.83	40887.70
785.01	41002.38
785.19	40938.90
785.37	40836.50
785.55	41168.27
785.74	40271.26
785.92	40512.92
786.10	41000.33
786.28	40598.93
786.46	40768.91
786.64	40719.76
786.83	40730.00
787.01	40678.80
787.19	40525.21
787.37	40670.61
787.55	40580.50
787.74	40643.99
787.92	40449.43
788.10	40492.44
788.28	40578.45
788.46	40560.02
788.64	40035.74
788.82	40611.22
789.01	40455.57
789.19	40455.57
789.37	39986.59
789.55	40000.93
789.73	39988.64
789.91	39749.03
790.09	39837.09
790.28	39892.38
790.46	39579.04
790.64	39992.73
790.82	40244.63
791.00	39900.58
791.18	39374.25
791.36	39425.45
791.55	39562.66
791.73	39495.08
791.91	38790.58
792.09	39458.21
792.27	39341.48
792.45	39185.83
792.63	38935.98
792.81	39036.33
793.00	39361.96
793.18	38802.86
793.36	38999.47
793.54	38745.52
793.72	38702.51
793.90	38735.28
794.08	38360.50
794.26	38540.72
794.44	38229.43
794.62	38084.03
794.81	38479.28
794.99	38319.54
795.17	37866.94
795.35	37780.93
795.53	38284.73
795.71	38290.87
795.89	37578.18
796.07	37619.14
796.25	37690.82
796.43	37133.77
796.61	37467.59
796.80	37438.92
796.98	37490.12
797.16	37348.81
797.34	36912.59
797.52	37293.51
797.70	37336.52
797.88	36763.09
798.06	36584.91
798.24	36496.85
798.42	37148.11
798.60	36761.04
798.78	36748.75
798.96	36996.56
799.14	36472.28
799.32	36732.37
799.51	36361.69
799.69	36740.56
799.87	36388.31
800.05	36167.13
800.23	36312.53
800.41	36144.60
800.59	35972.57
800.77	36031.96
800.95	35634.66
801.13	35644.90
801.31	35489.25
801.49	36011.48
801.67	35415.52
801.85	35272.17
802.03	35362.28
802.21	35239.40
802.39	35108.33
802.57	35218.92
802.75	35214.82
802.93	35040.75
803.11	34858.48
803.29	35024.36
803.47	34551.28
803.65	34905.58
803.83	34874.86
804.01	34809.32
804.19	34631.15
804.37	34387.44
804.55	34614.77
804.73	34643.44
804.91	34358.77
805.09	34092.54
805.27	34117.11
805.45	34196.98
805.63	33977.85
805.81	33875.45
805.99	34352.63
806.17	34248.18
806.35	33998.33
806.53	33850.88
806.71	34217.46
806.89	33824.25
807.07	33725.95
807.25	33918.46
807.43	33912.31
807.61	33400.32
807.79	33342.98
807.97	33195.53
808.15	32953.87
808.33	33232.39
808.51	33078.79
808.69	33349.12
808.87	33107.46
809.05	32730.64
809.23	32642.57
809.41	32751.12
809.59	32282.13
809.77	32865.80
809.95	32257.56
810.13	32908.81
810.31	32462.35
810.49	32628.24
810.67	32683.53
810.84	32425.49
811.02	32314.90
811.20	32251.41
811.38	32323.09
811.56	31923.74
811.74	32271.89
811.92	31870.49
812.10	32284.18
812.28	31876.63
812.46	31960.60
812.64	31811.10
812.82	31682.08
813.00	31823.39
813.18	31766.04
813.36	31622.69
813.53	31557.15
813.71	31557.15
813.89	31573.53
814.07	31782.43
814.25	31718.94
814.43	31176.23
814.61	31370.79
814.79	31340.07
814.97	31407.65
815.15	30889.51
815.33	30527.02
815.50	31018.53
815.68	30922.28
815.86	31192.61
816.04	30909.99
816.22	30791.21
816.40	30834.22
816.58	30606.89
816.76	30694.96
816.94	30477.87
817.11	30596.65
817.29	30881.32
817.47	30187.06
817.65	29937.21
817.83	30678.57
818.01	30060.09
818.19	30152.24
818.37	30541.36
818.54	29967.93
818.72	29853.24
818.90	30344.75
819.08	30176.82
819.26	30191.16
819.44	30029.37
819.62	29670.97
819.80	29945.40
819.97	30023.22
820.15	29783.61
820.33	29298.24
820.51	29687.36
820.69	29734.46
820.87	29668.92
821.05	30080.56
821.22	29294.14
821.40	29646.40
821.58	29441.60
821.76	29437.50
821.94	29775.42
822.12	29453.89
822.29	29810.23
822.47	29347.39
822.65	29408.83
822.83	29310.53
823.01	29417.02
823.19	29341.25
823.36	28878.41
823.54	29505.09
823.72	28929.61
823.90	28800.58
824.08	28808.78
824.25	28798.54
824.43	29042.24
824.61	28673.61
824.79	28974.66
824.97	28870.22
825.15	28986.95
825.32	28757.58
825.50	28638.80
825.68	28210.77
825.86	28548.68
826.04	28831.30
826.21	28309.07
826.39	28522.06
826.57	28634.70
826.75	28644.94
826.93	28276.30
827.10	28094.04
827.28	28345.94
827.46	28307.02
827.64	28329.55
827.81	28073.56
827.99	28178.00
828.17	27975.25
828.35	27852.38
828.53	28022.36
828.70	27987.54
828.88	27989.59
829.06	27960.92
829.24	28075.60
829.41	27944.53
829.59	28112.47
829.77	27725.40
829.95	27848.28
830.12	27399.77
830.30	27700.83
830.48	27758.17
830.66	27639.39
830.84	27641.43
831.01	27571.80
831.19	27569.76
831.37	27678.30
831.55	27266.66
831.72	27194.98
831.90	27131.49
832.08	27303.52
832.25	27446.88
832.43	27127.39
832.61	27006.56
832.79	26904.17
832.96	27387.49
833.14	27051.62
833.32	27209.31
833.50	27147.87
833.67	27283.04
833.85	26928.74
834.03	26658.41
834.20	26873.45
834.38	27098.72
834.56	26824.29
834.74	26584.68
834.91	26943.08
835.09	26482.28
835.27	26601.07
835.44	26564.20
835.62	26578.54
835.80	26402.41
835.98	26467.95
836.15	26728.04
836.33	26406.51
836.51	26537.58
836.68	26193.52
836.86	26443.37
837.04	26846.82
837.21	26390.13
837.39	26459.76
837.57	26457.71
837.75	26506.86
837.92	26027.63
838.10	26109.55
838.28	25986.68
838.45	26074.74
838.63	26021.49
838.81	26226.29
838.98	26029.68
839.16	25624.18
839.34	25796.21
839.51	25808.50
839.69	25843.32
839.87	25597.56
840.04	25880.18
840.22	25925.24
840.40	25661.05
840.57	25273.98
840.75	25702.01
840.93	25419.39
841.10	25501.31
841.28	25579.13
841.46	25501.31
841.63	25515.64
841.81	25519.74
841.98	25177.73
842.16	25601.66
842.34	25427.58
842.51	25056.90
842.69	25353.85
842.87	25435.77
843.04	25267.84
843.22	25267.84
843.40	25239.17
843.57	24688.26
843.75	25112.19
843.92	25316.99
844.10	25437.82
844.28	25351.81
844.45	25110.14
844.63	25255.55
844.81	25013.89
844.98	25437.82
845.16	25075.33
845.33	24792.71
845.51	25222.78
845.69	24997.51
845.86	24954.50
846.04	24567.43
846.21	24774.28
846.39	24872.58
846.57	24606.34
846.74	24813.19
846.92	24635.02
847.09	24690.31
847.27	24268.43
847.45	24585.86
847.62	24295.05
847.80	24802.95
847.97	24768.13
848.15	24405.64
848.32	24397.45
848.50	24356.49
848.68	24215.18
848.85	24237.71
849.03	24057.49
849.20	23979.67
849.38	24401.55
849.56	24118.93
849.73	23864.98
849.91	24108.69
850.08	24217.23
850.26	24190.61
850.43	23793.30
850.61	24090.26
850.78	23914.13
850.96	24014.48
851.14	23744.15
851.31	24100.50
851.49	23914.13
851.66	23856.79
851.84	23907.99
852.01	23791.25
852.19	24000.15
852.36	23858.84
852.54	23799.44
852.71	23907.99
852.89	23422.62
853.07	23383.71
853.24	23729.81
853.42	23656.09
853.59	23553.69
853.77	23963.28
853.94	23424.67
854.12	23654.04
854.29	23203.49
854.47	23146.14
854.64	23381.66
854.82	23553.69
854.99	23144.09
855.17	23449.24
855.34	23393.95
855.52	23473.82
855.69	23494.30
855.87	22996.64
856.04	23049.89
856.22	23258.78
856.39	22902.43
856.57	22931.11
856.74	22707.88
856.92	23074.46
857.09	22859.43
857.27	22865.57
857.44	22953.63
857.62	23086.75
857.79	22853.28
857.97	22832.80
858.14	22810.28
858.32	22808.23
858.49	22439.59
858.67	22580.90
858.84	22650.53
859.02	22851.24
859.19	22490.79
859.37	22668.97
859.54	22189.74
859.72	22662.82
859.89	22417.07
860.06	22498.98
860.24	22578.86
860.41	22363.82
860.59	22394.54
860.76	22501.03
860.94	22359.72
861.11	22529.70
861.29	22238.89
861.46	22331.05
861.64	22044.34
861.81	21837.49
861.98	22406.83
862.16	22251.18
862.33	21948.08
862.51	21872.31
862.68	21860.02
862.86	21843.63
863.03	21972.66
863.21	21870.26
863.38	21868.21
863.55	21792.44
863.73	21868.21
863.90	21741.24
864.08	21649.08
864.25	21624.50
864.43	21776.05
864.60	21622.45
864.77	21671.61
864.95	21491.38
865.12	21483.19
865.30	21644.98
865.47	21348.03
865.64	21487.29
865.82	21288.64
865.99	21571.25
866.17	21358.27
866.34	21294.78
866.51	21192.38
866.69	21253.82
866.86	21556.92
867.04	21210.81
867.21	21085.89
867.38	21067.45
867.56	20844.23
867.73	21188.28
867.91	20747.97
868.08	20846.27
868.25	20586.18
868.43	20856.51
868.60	20731.59
868.78	20719.30
868.95	20842.18
869.12	20649.67
869.30	20455.11
869.47	20612.81
869.64	20489.93
869.82	20737.73
869.99	20670.15
870.16	20508.36
870.34	20674.24
870.51	20610.76
870.69	20455.11
870.86	20532.93
871.03	20645.57
871.21	20428.49
871.38	20784.83
871.55	20348.62
871.73	20344.52
871.90	20227.79
872.07	20012.75
872.25	19943.12
872.42	19877.58
872.59	20317.90
872.77	20166.35
872.94	19973.84
873.11	19992.27
873.29	20047.57
873.46	19965.65
873.63	19883.73
873.81	19883.73
873.98	19769.04
874.15	19525.33
874.33	19629.78
874.50	19631.83
874.67	19592.92
874.85	19529.43
875.02	19728.08
875.19	19316.44
875.37	19543.77
875.54	19050.21
875.71	19400.41
875.88	19097.31
876.06	19199.71
876.23	19156.70
876.40	19134.17
876.58	19039.97
876.75	19035.87
876.92	19166.94
877.10	19138.27
877.27	18986.72
877.44	19072.73
877.61	19019.49
877.79	18986.72
877.96	18720.48
878.13	18790.11
878.31	18423.53
878.48	18536.17
878.65	18386.66
878.82	18480.87
879.00	18484.97
879.17	18956.00
879.34	18519.78
879.51	18558.69
879.69	18294.50
879.86	18472.68
880.03	18364.14
880.21	18067.18
880.38	18482.92
880.55	18417.38
880.72	18226.92
880.90	18319.08
881.07	17966.83
881.24	18212.59
881.41	18177.77
881.59	18042.60
881.76	17917.68
881.93	17985.26
882.10	17903.34
882.28	17837.81
882.45	17981.17
882.62	18087.66
882.79	18083.56
882.96	17661.68
883.14	17766.13
883.31	17948.40
883.48	17538.80
883.65	18034.41
883.83	17788.66
884.00	17878.77
884.17	17534.71
884.34	17608.44
884.51	17583.86
884.69	17602.29
884.86	17749.75
885.03	17626.87
885.20	17282.81
885.38	17399.54
885.55	17420.02
885.72	17630.96
885.89	17602.29
886.06	17518.32
886.24	17147.64
886.41	17114.87
886.58	17463.03
886.75	17692.40
886.92	17147.64
887.10	17348.34
887.27	17051.39
887.44	17131.26
887.61	17530.61
887.78	17225.47
887.95	17352.44
888.13	17153.79
888.30	16963.33
888.47	16981.76
888.64	17135.35
888.81	17088.25
888.99	16942.85
889.16	16758.53
889.33	16822.02
889.50	16934.65
889.67	16979.71
889.84	16555.78
890.01	16709.38
890.19	16500.48
890.36	16666.37
890.53	16609.03
890.70	16547.59
890.87	16631.55
891.04	16449.28
891.22	16553.73
891.39	16584.45
891.56	16443.14
891.73	16588.55
891.90	16437.00
892.07	16146.19
892.24	16385.80
892.42	16140.04
892.59	16338.69
892.76	16123.66
892.93	16162.57
893.10	16129.80
893.27	16170.76
893.44	15922.96
893.61	15970.06
893.79	16185.10
893.96	16103.18
894.13	16250.63
894.30	16107.27
894.47	16037.64
894.64	16054.03
894.81	16088.84
894.98	15982.35
895.15	16142.09
895.33	16150.28
895.50	15849.23
895.67	15773.46
895.84	16058.12
896.01	15746.83
896.18	15847.18
896.35	16187.14
896.52	15968.01
896.69	15894.29
896.86	15943.44
897.04	15695.63
897.21	15810.32
897.38	15912.72
897.55	15771.41
897.72	15871.76
897.89	15734.54
898.06	15982.35
898.23	15945.48
898.40	15843.09
898.57	15902.48
898.74	15765.26
898.91	15918.86
899.08	15689.49
899.26	15806.22
899.43	15638.29
899.60	15701.78
899.77	15724.30
899.94	15634.19
900.11	15482.64
900.28	15644.43
900.45	15503.12
900.62	15621.91
900.79	15701.78
900.96	15793.94
901.13	15640.34
901.30	15558.42
901.47	15660.82
901.64	15468.31
901.81	15615.76
901.98	15527.70
902.15	15712.02
902.32	15642.39
902.49	15767.31
902.66	15582.99
902.83	15603.47
903.01	15247.13
903.18	15787.79
903.35	15519.51
903.52	15300.37
903.69	15425.30
903.86	15783.70
904.03	15486.74
904.20	15814.41
904.37	15558.42
904.54	15509.27
904.71	15644.43
904.88	15390.49
905.05	15511.32
905.22	15445.78
905.39	15595.28
905.56	15468.31
905.73	15337.24
905.90	15480.60
906.07	15515.41
906.24	15656.72
906.41	15613.71
906.58	15314.71
906.75	15363.86
906.92	15226.65
907.09	15128.35
907.26	15521.56
907.43	15425.30
907.60	15312.66
907.77	15359.77
907.93	15431.44
908.10	15460.12
908.27	15173.40
908.44	15384.34
908.61	15421.20
908.78	15312.66
908.95	15298.33
909.12	15075.10
909.29	15159.06
909.46	15429.40
909.63	15496.98
909.80	15308.57
909.97	15343.38
910.14	15236.89
910.31	15281.94
910.48	15294.23
910.65	15193.88
910.82	14884.64
910.99	15232.79
911.16	15564.56
911.33	15118.11
911.50	15136.54
911.66	15361.81
911.83	15148.82
912.00	14790.43
912.17	14984.99
912.34	15042.33
912.51	14819.10
912.68	15056.67
912.85	14855.97
913.02	15128.35
913.19	14958.36
913.36	14692.13
913.53	14788.38
913.70	14673.70
913.86	14806.81
914.03	14700.32
914.20	14817.05
914.37	14585.63
914.54	14794.53
914.71	14436.13
914.88	14346.02
915.05	14745.38
915.22	14528.29
915.39	14550.82
915.55	14397.22
915.72	14323.49
915.89	14464.80
916.06	14270.25
916.23	14135.08
916.40	14231.33
916.57	14145.32
916.74	14307.11
916.91	14075.69
917.07	13973.29
917.24	13942.57
917.41	13993.77
917.58	13901.61
917.75	14110.50
917.92	13872.94
918.09	13770.54
918.26	13758.25
918.42	13705.01
918.59	13799.21
918.76	13643.57
918.93	13528.88
919.10	13627.18
919.27	13821.74
919.44	13582.13
919.60	13473.59
919.77	13381.43
919.94	13455.15
920.11	13358.90
920.28	13391.67
920.45	13168.44
920.61	13285.17
920.78	13328.18
920.95	13193.01
921.12	12963.64
921.29	13227.83
921.46	12865.34
921.62	12824.38
921.79	12928.83
921.96	13098.81
922.13	13033.27
922.30	12791.61
922.47	12644.16
922.63	12783.42
922.80	12625.73
922.97	12592.96
923.14	12388.16
923.31	12789.56
923.47	12443.46
923.64	12586.82
923.81	12234.57
923.98	12361.54
924.15	12232.52
924.32	12431.17
924.48	12193.61
924.65	12201.80
924.82	11953.99
924.99	11847.50
925.15	12015.43
925.32	12046.15
925.49	11917.13
925.66	11947.85
925.83	11747.15
925.99	11702.09
926.16	11775.82
926.33	11980.62
926.50	11478.86
926.67	11716.43
926.83	11675.47
927.00	11511.63
927.17	11372.37
927.34	11417.43
927.50	11487.06
927.67	11394.90
927.84	11263.83
928.01	11210.58
928.17	11104.09
928.34	11267.92
928.51	11218.77
928.68	10936.15
928.84	11007.83
929.01	11069.27
929.18	10889.05
929.35	10790.75
929.51	10823.51
929.68	10860.38
929.85	10647.39
930.02	10637.15
930.18	10608.48
930.35	10911.58
930.52	10360.67
930.69	10588.00
930.85	10493.79
931.02	10325.86
931.19	10397.54
931.36	10270.56
931.52	10332.00
931.69	10442.59
931.86	10276.71
932.02	10170.21
932.19	10039.14
932.36	9981.80
932.53	10033.00
932.69	9869.16
932.86	9922.41
933.03	10012.52
933.19	9686.89
933.36	9791.34
933.53	9848.68
933.70	9762.67
933.86	9631.60
934.03	9678.70
934.20	9430.90
934.36	9611.12
934.53	9299.83
934.70	9176.95
934.86	9308.02
935.03	9013.11
935.20	9201.52
935.36	9082.74
935.53	8763.26
935.70	8847.22
935.86	8912.76
936.03	8568.70
936.20	8689.53
936.36	8540.03
936.53	8544.13
936.70	8589.18
936.86	8523.65
937.03	8415.10
937.20	8109.96
937.36	8236.93
937.53	8220.55
937.70	8032.13
937.86	7839.62
938.03	7858.06
938.20	7958.41
938.36	7923.59
938.53	7675.79
938.70	7427.98
938.86	7671.69
939.03	7530.38
939.20	7202.71
939.36	7186.32
939.53	7069.59
939.70	7270.29
939.86	6954.90
940.03	6846.36
940.19	6772.63
940.36	6737.82
940.53	6776.73
940.69	6670.23
940.86	6582.17
941.03	6477.73
941.19	6313.89
941.36	6336.42
941.52	6401.95
941.69	6463.39
941.86	6229.92
942.02	6178.72
942.19	6172.58
942.35	6221.73
942.52	6174.63
942.69	5984.16
942.85	5844.90
943.02	5824.42
943.18	5859.24
943.35	5738.41
943.52	5767.08
943.68	5762.98
943.85	5701.54
944.01	5615.53
944.18	5572.52
944.35	5713.83
944.51	5492.65
944.68	5539.76
944.84	5523.37
945.01	5423.02
945.17	5476.27
945.34	5545.90
945.51	5500.84
945.67	5519.28
945.84	5461.93
946.00	5398.45
946.17	5353.39
946.33	5234.61
946.50	5367.73
946.67	5173.17
946.83	5255.09
947.00	5353.39
947.16	5197.74
947.33	5121.97
947.49	5294.00
947.66	5265.33
947.82	5330.86
947.99	5146.55
948.16	5322.67
948.32	5267.38
948.49	5287.86
948.65	5439.40
948.82	5255.09
948.98	5275.57
949.15	5056.43
949.31	5248.94
949.48	5259.18
949.64	5320.62
949.81	5302.19
949.97	5156.79
950.14	5281.71
950.30	5216.18
950.47	5253.04
950.63	5248.94
950.80	5291.95
950.96	5197.74
951.13	5279.66
951.30	5271.47
951.46	5353.39
951.63	5359.53
951.79	5324.72
951.96	5343.15
952.12	5285.81
952.29	5353.39
952.45	5410.73
952.62	5382.06
952.78	5341.10
952.94	5330.86
953.11	5195.70
953.27	5212.08
953.44	5515.18
953.60	5390.25
953.77	5451.69
953.93	5275.57
954.10	5375.92
954.26	5316.53
954.43	5285.81
954.59	5300.14
954.76	5586.86
954.92	5423.02
955.09	5396.40
955.25	5384.11
955.42	5367.73
955.58	5480.36
955.75	5515.18
955.91	5478.32
956.07	5461.93
956.24	5433.26
956.40	5384.11
956.57	5500.84
956.73	5392.30
956.90	5361.58
957.06	5277.62
957.23	5326.77
957.39	5361.58
957.56	5367.73
957.72	5435.31
957.88	5412.78
958.05	5414.83
958.21	5492.65
958.38	5486.51
958.54	5451.69
958.71	5550.00
958.87	5328.81
959.03	5316.53
959.20	5410.73
959.36	5222.32
959.53	5353.39
959.69	5255.09
959.85	5345.20
960.02	5308.34
960.18	5420.97
960.35	5466.03
960.51	5556.14
960.68	5283.76
960.84	5365.68
961.00	5523.37
961.17	5281.71
961.33	5416.88
961.50	5463.98
961.66	5408.69
961.82	5343.15
961.99	5341.10
962.15	5306.29
962.31	5296.05
962.48	5377.97
962.64	5402.54
962.81	5404.59
962.97	5197.74
963.13	5269.42
963.30	5365.68
963.46	5289.90
963.62	5347.25
963.79	5224.37
963.95	5257.14
964.12	5343.15
964.28	5238.70
964.44	5277.62
964.61	5349.29
964.77	5257.14
964.93	5461.93
965.10	5218.22
965.26	5175.22
965.42	5148.59
965.59	5312.43
965.75	5234.61
965.92	5250.99
966.08	5234.61
966.24	5236.66
966.41	5099.44
966.57	5234.61
966.73	5160.88
966.90	5285.81
967.06	5148.59
967.22	5277.62
967.39	5183.41
967.55	5130.16
967.71	5132.21
967.88	5058.48
968.04	5070.77
968.20	5048.24
968.37	5179.31
968.53	5095.35
968.69	5087.15
968.85	5148.59
969.02	5273.52
969.18	5101.49
969.34	5081.01
969.51	5066.67
969.67	5048.24
969.83	4947.89
970.00	5087.15
970.16	5054.39
970.32	4878.26
970.48	5095.35
970.65	4941.75
970.81	4976.56
970.97	4951.99
971.14	4777.91
971.30	4933.56
971.46	4937.65
971.63	4833.21
971.79	4886.45
971.95	4919.22
972.11	5009.33
972.28	4782.01
972.44	4886.45
972.60	4745.14
972.76	4958.13
972.93	4892.60
973.09	5029.81
973.25	4956.08
973.42	4902.84
973.58	4804.53
973.74	4908.98
973.90	4734.90
974.07	4675.51
974.23	4751.29
974.39	4749.24
974.55	4788.15
974.72	4868.02
974.88	4650.94
975.04	4724.66
975.20	4751.29
975.37	4841.40
975.53	4646.84
975.69	4650.94
975.85	4634.55
976.01	4648.89
976.18	4534.20
976.34	4679.61
976.50	4716.47
976.66	4802.49
976.83	4673.46
976.99	4550.59
977.15	4585.40
977.31	4411.32
977.47	4728.76
977.64	4605.88
977.80	4595.64
977.96	4534.20
978.12	4548.54
978.29	4593.59
978.45	4491.20
978.61	4528.06
978.77	4491.20
978.93	4476.86
979.10	4339.65
979.26	4534.20
979.42	4564.92
979.58	4235.20
979.74	4198.34
979.91	4503.48
980.07	4341.69
980.23	4403.13
980.39	4427.71
980.55	4392.89
980.71	4308.93
980.88	4384.70
981.04	4315.07
981.20	4319.17
981.36	4497.34
981.52	4292.54
981.68	4257.73
981.85	4360.13
982.01	4272.06
982.17	4261.82
982.33	4218.82
982.49	4310.97
982.65	4278.21
982.82	4218.82
982.98	4192.19
983.14	4077.51
983.30	4300.73
983.46	4198.34
983.62	4196.29
983.79	4200.38
983.95	4136.90
984.11	3985.35
984.27	4120.51
984.43	4159.42
984.59	4159.42
984.75	4073.41
984.91	4151.23
985.08	4204.48
985.24	4018.11
985.40	4038.59
985.56	4108.23
985.72	4186.05
985.88	4020.16
986.04	4011.97
986.20	3897.28
986.37	4089.79
986.53	3981.25
986.69	3923.91
986.85	3985.35
987.01	3962.82
987.17	4024.26
987.33	3831.75
987.49	3925.96
987.65	3968.96
987.82	3952.58
987.98	3753.93
988.14	3958.72
988.30	3997.64
988.46	3801.03
988.62	3788.74
988.78	3852.23
988.94	3794.89
989.10	3794.89
989.26	3764.17
989.42	3727.30
989.59	3702.73
989.75	3817.41
989.91	3749.83
990.07	3590.09
990.23	3784.65
990.39	3762.12
990.55	3755.97
990.71	3680.20
990.87	3764.17
991.03	3731.40
991.19	3667.91
991.35	3631.05
991.51	3807.17
991.67	3758.02
991.83	3811.27
992.00	3606.47
992.16	3663.82
992.32	3653.58
992.48	3659.72
992.64	3557.32
992.80	3672.01
992.96	3618.76
993.12	3669.96
993.28	3645.38
993.44	3618.76
993.60	3561.42
993.76	3463.12
993.92	3534.79
994.08	3522.51
994.24	3499.98
994.40	3581.90
994.56	3680.20
994.72	3563.47
994.88	3418.06
995.04	3512.27
995.20	3477.45
995.36	3467.21
995.52	3411.92
995.68	3516.36
995.84	3516.36
996.00	3522.51
996.16	3387.34
996.32	3356.62
996.48	3370.96
996.64	3516.36
996.80	3346.38
996.96	3387.34
997.12	3426.25
997.28	3280.85
997.44	3354.57
997.60	3418.06
997.76	3303.37
997.92	3442.64
998.08	3381.20
998.24	3254.22
998.40	3289.04
998.56	3317.71
998.72	3223.50
998.88	3207.12
999.04	3231.69
999.20	3401.68
999.36	3174.35
999.52	3418.06
999.68	3190.74
999.84	3303.37
1000.00	3256.27
1000.16	3282.89
1000.32	3205.07
1000.48	3254.22
1000.64	3153.87
1000.80	3153.87
1000.95	3078.10
1001.11	3141.58
1001.27	3110.86
1001.43	3231.69
1001.59	3026.90
1001.75	3151.82
1001.91	3067.86
1002.07	3123.15
1002.23	3129.30
1002.39	3151.82
1002.55	3123.15
1002.71	3061.71
1002.87	3030.99
1003.03	3002.32
1003.19	3131.34
1003.34	3125.20
1003.50	3119.06
1003.66	3088.34
1003.82	3049.43
1003.98	2932.69
1004.14	3024.85
1004.30	2975.70
1004.46	2961.36
1004.62	3022.80
1004.78	2979.79
1004.94	3035.09
1005.09	3043.28
1005.25	2985.94
1005.41	2934.74
1005.57	3012.56
1005.73	2920.40
1005.89	3016.66
1006.05	2940.88
1006.21	2967.51
1006.37	2834.39
1006.52	2879.44
1006.68	2863.06
1006.84	3035.09
1007.00	2865.11
1007.16	3000.27
1007.32	2768.85
1007.48	2768.85
1007.64	2856.92
1007.79	2830.29
1007.95	2756.57
1008.11	2867.16
1008.27	2836.44
1008.43	2834.39
1008.59	2717.65
1008.75	2856.92
1008.91	2918.36
1009.06	2822.10
1009.22	2807.77
1009.38	2850.77
1009.54	2871.25
1009.70	2754.52
1009.86	2846.68
1010.01	2748.37
1010.17	2787.29
1010.33	2762.71
1010.49	2738.13
1010.65	2861.01
1010.81	2701.27
1010.96	2729.94
1011.12	2643.93
1011.28	2695.13
1011.44	2670.55
1011.60	2703.32
1011.76	2723.80
1011.91	2736.09
1012.07	2619.35
1012.23	2559.96
1012.39	2537.43
1012.55	2607.06
1012.71	2633.69
1012.86	2637.78
1013.02	2660.31
1013.18	2564.06
1013.34	2635.74
1013.50	2648.02
1013.65	2682.84
1013.81	2523.10
1013.97	2519.00
1014.13	2613.21
1014.29	2582.49
1014.44	2752.47
1014.60	2539.48
1014.76	2590.68
1014.92	2539.48
1015.07	2623.45
1015.23	2508.76
1015.39	2451.42
1015.55	2539.48
1015.71	2537.43
1015.86	2465.75
1016.02	2502.62
1016.18	2385.88
1016.34	2533.34
1016.49	2469.85
1016.65	2519.00
1016.81	2521.05
1016.97	2459.61
1017.12	2463.71
1017.28	2353.12
1017.44	2351.07
1017.60	2414.56
1017.75	2500.57
1017.91	2516.95
1018.07	2412.51
1018.23	2455.51
1018.38	2428.89
1018.54	2437.08
1018.70	2478.04
1018.86	2377.69
1019.01	2369.50
1019.17	2424.80
1019.33	2467.80
1019.49	2435.03
1019.64	2500.57
1019.80	2478.04
1019.96	2408.41
1020.12	2441.18
1020.27	2312.16
1020.43	2363.36
1020.59	2267.10
1020.74	2310.11
1020.90	2346.97
1021.06	2258.91
1021.22	2369.50
1021.37	2365.40
1021.53	2240.48
1021.69	2285.53
1021.84	2342.88
1022.00	2332.64
1022.16	2269.15
1022.31	2320.35
1022.47	2371.55
1022.63	2306.01
1022.79	2203.61
1022.94	2222.05
1023.10	2332.64
1023.26	2222.05
1023.41	2303.96
1023.57	2234.33
1023.73	2289.63
1023.88	2238.43
1024.04	2166.75
1024.20	2211.81
1024.35	2314.20
1024.51	2236.38
1024.67	2215.90
1024.82	2279.39
1024.98	2125.79
1025.14	2205.66
1025.29	2199.52
1025.45	2220.00
1025.61	2174.94
1025.76	2191.33
1025.92	2299.87
1026.08	2111.46
1026.23	2191.33
1026.39	2195.42
1026.55	2138.08
1026.70	2119.65
1026.86	2197.47
1027.02	2238.43
1027.17	2215.90
1027.33	2158.56
1027.48	2170.85
1027.64	2211.81
1027.80	2121.70
1027.95	2236.38
1028.11	2052.06
1028.27	2154.46
1028.42	2195.42
1028.58	2144.22
1028.73	2056.16
1028.89	1998.82
1029.05	2150.37
1029.20	2215.90
>>>>>End Processed Spectral Data<<<<<
