SpectraSuite Data File
++++++++++++++++++++++++++++++++++++
Date: Fri Jun 02 14:53:31 CEST 2017
User: INFO_000
Dark Spectrum Present: No
Reference Spectrum Present: No
Number of Sampled Component Spectra: 1
Spectrometers: USB4H00879
Integration Time (usec): 80000 (USB4H00879)
Spectra Averaged: 1 (USB4H00879)
Boxcar Smoothing: 0 (USB4H00879)
Correct for Electrical Dark: No (USB4H00879)
Strobe/Lamp Enabled: No (USB4H00879)
Correct for Detector Non-linearity: No (USB4H00879)
Correct for Stray Light: No (USB4H00879)
Number of Pixels in Processed Spectrum: 3648
>>>>>Begin Processed Spectral Data<<<<<
345.13	1290.22
345.34	1290.22
345.56	1290.22
345.78	1253.36
345.99	1267.69
346.21	1681.38
346.42	1708.01
346.64	1695.72
346.86	1839.08
347.07	1640.42
347.29	1685.48
347.50	1673.19
347.72	1652.71
347.94	1753.06
348.15	1523.69
348.37	1665.00
348.59	1685.48
348.80	1619.94
349.02	1785.83
349.23	1814.50
349.45	1812.45
349.67	1925.09
349.88	1843.17
350.10	1947.62
350.31	1841.12
350.53	1830.88
350.75	2011.11
350.96	1880.04
351.18	1845.22
351.39	1877.99
351.61	1818.60
351.82	1847.27
352.04	1957.86
352.26	1808.36
352.47	1994.72
352.69	1886.18
352.90	1798.12
353.12	1894.37
353.34	1867.75
353.55	1978.34
353.77	1886.18
353.98	1853.41
354.20	1845.22
354.41	1982.43
354.63	1929.19
354.85	1978.34
355.06	1904.61
355.28	1785.83
355.49	1843.17
355.71	1949.67
355.92	1853.41
356.14	1920.99
356.35	1886.18
356.57	1802.21
356.79	1945.57
357.00	1812.45
357.22	1904.61
357.43	1746.92
357.65	1929.19
357.86	1814.50
358.08	1920.99
358.29	2002.91
358.51	1974.24
358.72	1990.63
358.94	1912.80
359.16	1949.67
359.37	1931.23
359.59	1966.05
359.80	2033.63
360.02	1947.62
360.23	1986.53
360.45	2047.97
360.66	1925.09
360.88	1912.80
361.09	1916.90
361.31	1988.58
361.52	1982.43
361.74	2113.50
361.95	2002.91
362.17	1951.71
362.38	2170.85
362.60	2000.87
362.81	1957.86
363.03	1906.66
363.24	1992.67
363.46	2080.74
363.67	1974.24
363.89	1972.19
364.10	2052.06
364.32	1986.53
364.53	2047.97
364.75	1927.14
364.96	2015.20
365.18	2002.91
365.39	1966.05
365.61	1992.67
365.82	2025.44
366.04	2004.96
366.25	1986.53
366.47	2064.35
366.68	1966.05
366.90	1986.53
367.11	2131.94
367.33	2136.03
367.54	1994.72
367.76	1992.67
367.97	2088.93
368.19	2004.96
368.40	2062.30
368.62	1992.67
368.83	1943.52
369.05	2078.69
369.26	1980.39
369.48	1998.82
369.69	1998.82
369.91	2099.17
370.12	2047.97
370.33	2144.22
370.55	1978.34
370.76	2035.68
370.98	2113.50
371.19	2041.82
371.41	2080.74
371.62	2099.17
371.84	2002.91
372.05	2164.70
372.27	2054.11
372.48	2027.49
372.69	2056.16
372.91	2158.56
373.12	2168.80
373.34	2097.12
373.55	2199.52
373.77	2109.41
373.98	2101.22
374.20	2111.46
374.41	2234.33
374.62	2179.04
374.84	2115.55
375.05	2082.78
375.27	2129.89
375.48	2197.47
375.70	2197.47
375.91	2125.79
376.12	2371.55
376.34	2150.37
376.55	2121.70
376.77	2285.53
376.98	2187.23
377.19	2125.79
377.41	2277.34
377.62	2160.61
377.84	2293.72
378.05	2314.20
378.27	2168.80
378.48	2244.57
378.69	2473.95
378.91	2279.39
379.12	2297.82
379.34	2179.04
379.55	2258.91
379.76	2273.25
379.98	2295.77
380.19	2209.76
380.41	2293.72
380.62	2353.12
380.83	2291.68
381.05	2226.14
381.26	2301.92
381.47	2308.06
381.69	2170.85
381.90	2414.56
382.12	2299.87
382.33	2228.19
382.54	2260.96
382.76	2254.81
382.97	2328.54
383.19	2252.77
383.40	2424.80
383.61	2373.60
383.83	2357.21
384.04	2344.92
384.25	2385.88
384.47	2459.61
384.68	2342.88
384.89	2260.96
385.11	2306.01
385.32	2435.03
385.54	2328.54
385.75	2369.50
385.96	2361.31
386.18	2471.90
386.39	2498.52
386.60	2381.79
386.82	2463.71
387.03	2365.40
387.24	2506.71
387.46	2488.28
387.67	2488.28
387.88	2586.58
388.10	2414.56
388.31	2469.85
388.52	2502.62
388.74	2430.94
388.95	2527.19
389.16	2562.01
389.38	2469.85
389.59	2588.63
389.80	2535.39
390.02	2506.71
390.23	2682.84
390.44	2559.96
390.66	2553.82
390.87	2541.53
391.08	2592.73
391.30	2633.69
391.51	2551.77
391.72	2713.56
391.94	2633.69
392.15	2557.91
392.36	2576.34
392.58	2607.06
392.79	2617.30
393.00	2748.37
393.22	2680.79
393.43	2748.37
393.64	2811.86
393.85	2678.74
394.07	2779.09
394.28	2824.15
394.49	2809.81
394.71	2762.71
394.92	2914.26
395.13	2770.90
395.35	2736.09
395.56	2781.14
395.77	2772.95
395.98	2768.85
396.20	2879.44
396.41	2750.42
396.62	2875.35
396.84	2785.24
397.05	2904.02
397.26	2762.71
397.47	2977.75
397.69	2881.49
397.90	3004.37
398.11	2959.31
398.32	2830.29
398.54	2877.40
398.75	2838.48
398.96	2881.49
399.18	3080.14
399.39	2959.31
399.60	2977.75
399.81	2875.35
400.03	2985.94
400.24	3305.42
400.45	3004.37
400.66	3092.43
400.88	2990.03
401.09	3182.54
401.30	3112.91
401.51	3147.73
401.73	3100.62
401.94	3108.82
402.15	3151.82
402.36	3205.07
402.58	3213.26
402.79	3168.21
403.00	3110.86
403.21	3239.89
403.43	3368.91
403.64	3327.95
403.85	3080.14
404.06	3145.68
404.27	3141.58
404.49	3172.30
404.70	3223.50
404.91	3252.17
405.12	3309.52
405.34	3270.61
405.55	3381.20
405.76	3272.65
405.97	3225.55
406.19	3334.09
406.40	3235.79
406.61	3459.02
406.82	3319.76
407.03	3295.18
407.25	3260.37
407.46	3313.61
407.67	3393.48
407.88	3465.16
408.09	3325.90
408.31	3420.11
408.52	3471.31
408.73	3418.06
408.94	3389.39
409.15	3497.93
409.37	3639.24
409.58	3565.51
409.79	3577.80
410.00	3549.13
410.21	3590.09
410.43	3557.32
410.64	3553.23
410.85	3588.04
411.06	3551.18
411.27	3684.30
411.48	3555.27
411.70	3551.18
411.91	3655.62
412.12	3674.06
412.33	3606.47
412.54	3729.35
412.76	3659.72
412.97	3690.44
413.18	3641.29
413.39	3741.64
413.60	3770.31
413.81	3631.05
414.03	3614.66
414.24	3715.02
414.45	3885.00
414.66	3579.85
414.87	3772.36
415.08	3643.34
415.30	3774.41
415.51	3862.47
415.72	3686.34
415.93	3798.98
416.14	3940.29
416.35	3905.48
416.56	3786.69
416.78	3979.20
416.99	3979.20
417.20	3870.66
417.41	3966.92
417.62	4024.26
417.83	3950.53
418.04	3983.30
418.26	4016.07
418.47	4028.35
418.68	3999.68
418.89	4081.60
419.10	4147.14
419.31	4054.98
419.52	4138.94
419.73	4093.89
419.95	4224.96
420.16	3950.53
420.37	4057.03
420.58	4087.75
420.79	3852.23
421.00	4181.95
421.21	4251.58
421.42	4100.03
421.63	4263.87
421.85	4204.48
422.06	4280.25
422.27	4372.41
422.48	4290.49
422.69	4356.03
422.90	4417.47
423.11	4296.64
423.32	4220.86
423.53	4556.73
423.75	4319.17
423.96	4485.05
424.17	4493.24
424.38	4554.68
424.59	4474.81
424.80	4648.89
425.01	4427.71
425.22	4386.75
425.43	4491.20
425.64	4722.62
425.85	4657.08
426.06	4685.75
426.28	4605.88
426.49	4569.02
426.70	4566.97
426.91	4773.82
427.12	4689.85
427.33	4708.28
427.54	4677.56
427.75	4771.77
427.96	4855.73
428.17	4816.82
428.38	4931.51
428.59	4984.76
428.80	4859.83
429.01	4833.21
429.23	4925.36
429.44	5113.78
429.65	4997.04
429.86	5052.34
430.07	4835.25
430.28	4966.32
430.49	4974.52
430.70	5173.17
430.91	5126.07
431.12	4968.37
431.33	5294.00
431.54	5267.38
431.75	5083.06
431.96	5142.45
432.17	5154.74
432.38	5220.27
432.59	5560.24
432.80	5261.23
433.01	5199.79
433.22	5310.38
433.43	5361.58
433.64	5386.16
433.85	5279.66
434.06	5351.34
434.27	5390.25
434.49	5443.50
434.70	5519.28
434.91	5564.33
435.12	5435.31
435.33	5410.73
435.54	5408.69
435.75	5257.14
435.96	5402.54
436.17	5363.63
436.38	5636.01
436.59	5654.44
436.80	5539.76
437.01	5904.29
437.22	5881.77
437.43	5650.35
437.64	5582.76
437.85	5736.36
438.06	5814.18
438.27	5711.78
438.48	5711.78
438.69	5697.45
438.90	6029.22
439.11	5676.97
439.32	5799.85
439.53	5822.38
439.74	5746.60
439.95	5824.42
440.16	5896.10
440.37	5832.62
440.57	5840.81
440.78	5892.01
440.99	5853.09
441.20	6006.69
441.41	5853.09
441.62	6049.70
441.83	5834.66
442.04	5988.26
442.25	6188.96
442.46	6156.19
442.67	6283.17
442.88	6760.34
443.09	6037.41
443.30	6057.89
443.51	6301.60
443.72	6463.39
443.93	6025.12
444.14	6438.81
444.35	6139.81
444.56	6266.78
444.77	6186.91
444.98	6518.68
445.19	6309.79
445.40	6418.33
445.61	6418.33
445.81	6500.25
446.02	6449.05
446.23	6352.80
446.44	6254.50
446.65	6432.67
446.86	6494.11
447.07	6551.45
447.28	6789.02
447.49	6735.77
447.70	6541.21
447.91	6623.13
448.12	6639.51
448.33	6668.19
448.54	6596.51
448.74	6490.01
448.95	6838.17
449.16	6662.04
449.37	6870.94
449.58	6786.97
449.79	7090.07
450.00	6786.97
450.21	6952.85
450.42	7006.10
450.63	7077.78
450.84	6838.17
451.05	7028.63
451.25	7100.31
451.46	6915.99
451.67	7270.29
451.88	7196.56
452.09	7212.95
452.30	7245.71
452.51	7030.68
452.72	7378.83
452.93	7589.77
453.13	7008.15
453.34	7258.00
453.55	7464.85
453.76	7380.88
453.97	7757.71
454.18	7503.76
454.39	7688.07
454.60	7516.05
454.81	7516.05
455.01	7704.46
455.22	7481.23
455.43	7767.95
455.64	7792.52
455.85	7880.58
456.06	8083.33
456.27	7726.99
456.48	7677.83
456.68	7944.07
456.89	7876.49
457.10	8140.68
457.31	8136.58
457.52	7862.15
457.73	7937.93
457.94	8277.89
458.14	7993.22
458.35	8464.25
458.56	8351.62
458.77	8300.42
458.98	8488.83
459.19	8472.45
459.39	8523.65
459.60	8648.57
459.81	8478.59
460.02	8722.30
460.23	8589.18
460.44	8753.02
460.65	8757.11
460.85	8925.05
461.06	8728.44
461.27	8554.37
461.48	9000.82
461.69	9066.36
461.89	8818.55
462.10	9068.41
462.31	8923.00
462.52	8943.48
462.73	9166.71
462.94	9207.67
463.14	9226.10
463.35	9398.13
463.56	9746.28
463.77	9645.93
463.98	9324.40
464.18	9457.52
464.39	9723.76
464.60	9969.51
464.81	9760.62
465.02	9467.76
465.23	10030.95
465.43	9975.66
465.64	9967.46
465.85	10071.91
466.06	9848.68
466.27	10315.62
466.47	10145.64
466.68	10256.23
466.89	10155.88
467.10	10243.94
467.30	10108.77
467.51	10520.42
467.72	10706.78
467.93	10377.06
468.14	10504.03
468.34	10839.90
468.55	10809.18
468.76	10839.90
468.97	10766.17
469.17	11024.22
469.38	11128.66
469.59	11280.21
469.80	11036.50
470.01	10970.97
470.21	11366.23
470.42	11407.19
470.63	11595.60
470.84	11398.99
471.04	11661.13
471.25	11691.85
471.46	11634.51
471.67	11923.27
471.87	11773.77
472.08	11851.60
472.29	12078.92
472.50	11691.85
472.70	11904.84
472.91	12128.07
473.12	12412.74
473.33	12408.64
473.53	12420.93
473.74	12158.79
473.95	12562.24
474.16	12689.21
474.36	12685.12
474.57	12865.34
474.78	13102.90
474.99	12834.62
475.19	12758.85
475.40	13348.66
475.61	13289.27
475.81	13414.20
476.02	13813.55
476.23	13203.25
476.44	13360.95
476.64	14010.15
476.85	13836.08
477.06	13600.56
477.27	14026.54
477.47	14124.84
477.68	14169.90
477.89	14405.41
478.09	14329.64
478.30	14470.95
478.51	14364.45
478.71	14393.12
478.92	14741.28
479.13	14704.42
479.34	14909.21
479.54	14688.03
479.75	15152.92
479.96	15023.90
480.16	15154.97
480.37	15331.09
480.58	15292.18
480.78	15740.69
480.99	15601.43
481.20	15630.10
481.41	15834.89
481.61	15998.73
481.82	16060.17
482.03	15673.10
482.23	16084.75
482.44	16232.20
482.65	16381.70
482.85	16437.00
483.06	16688.90
483.27	16291.59
483.47	16598.79
483.68	16682.75
483.89	16783.10
484.09	16985.85
484.30	16832.26
484.51	17002.24
484.71	17114.87
484.92	17002.24
485.13	17147.64
485.33	17614.58
485.54	17413.88
485.75	17551.09
485.95	17923.82
486.16	17696.50
486.37	18032.36
486.57	17743.60
486.78	17956.59
486.98	18050.80
487.19	17968.88
487.40	18286.31
487.60	18015.98
487.81	18403.05
488.02	18317.03
488.22	18540.26
488.43	18333.42
488.64	18859.74
488.84	18919.14
489.05	18704.10
489.25	18906.85
489.46	19168.99
489.67	19074.78
489.87	19283.67
490.08	19236.57
490.29	19580.63
490.49	19887.82
490.70	19699.41
490.90	19562.20
491.11	19498.71
491.32	19549.91
491.52	19910.35
491.73	19807.95
491.94	19965.65
492.14	19828.43
492.35	20199.12
492.55	20504.26
492.76	20375.24
492.97	20414.15
493.17	20512.46
493.38	20725.44
493.58	20641.48
493.79	20702.92
494.00	20717.25
494.20	21079.74
494.41	21073.60
494.61	21069.50
494.82	20876.99
495.02	21012.16
495.23	21053.12
495.44	21388.99
495.64	21350.07
495.85	21731.00
496.05	21558.97
496.26	21460.66
496.47	21808.82
496.67	21812.92
496.88	22173.36
497.08	21866.16
497.29	22120.11
497.49	22308.52
497.70	22105.77
497.91	22351.53
498.11	22433.45
498.32	22206.13
498.52	22447.79
498.73	22537.90
498.93	22603.43
499.14	22763.17
499.34	22980.26
499.55	22888.10
499.76	22787.75
499.96	22972.07
500.17	23090.85
500.37	23146.14
500.58	23219.87
500.78	23148.19
500.99	23232.16
501.19	23602.84
501.40	23471.77
501.60	23439.00
501.81	23424.67
502.02	23572.12
502.22	23836.31
502.43	23918.23
502.63	23875.22
502.84	23994.00
503.04	24135.31
503.25	24125.07
503.45	24299.15
503.66	24182.42
503.86	24172.18
504.07	24542.86
504.27	24231.57
504.48	24645.26
504.68	24211.09
504.89	24790.66
505.09	24417.93
505.30	24702.60
505.50	24991.36
505.71	24917.64
505.91	24901.25
506.12	24618.63
506.32	24940.16
506.53	25034.37
506.73	24950.40
506.94	25230.98
507.14	25087.62
507.35	25286.27
507.55	25441.92
507.76	25206.40
507.96	25394.81
508.17	25720.44
508.37	25730.68
508.58	25501.31
508.78	25685.62
508.99	25611.90
509.19	25446.01
509.40	25824.89
509.60	25718.39
509.81	26023.54
510.01	26076.79
510.22	25794.17
510.42	26134.13
510.63	26029.68
510.83	26316.40
511.04	26218.10
511.24	26678.89
511.44	26064.50
511.65	26381.93
511.85	26420.84
512.06	26594.92
512.26	26570.35
512.47	26568.30
512.67	26736.23
512.88	26951.27
513.08	26687.08
513.29	26979.94
513.49	26642.03
513.69	27166.31
513.90	27143.78
514.10	27119.20
514.31	27182.69
514.51	27344.48
514.72	27256.42
514.92	27096.67
515.13	27385.44
515.33	27491.93
515.53	27330.14
515.74	27725.40
515.94	27905.62
516.15	27678.30
516.35	27850.33
516.56	28169.81
516.76	27741.78
516.96	27870.81
517.17	28327.50
517.37	28014.16
517.58	27889.24
517.78	28313.17
517.99	28186.19
518.19	28507.72
518.39	28622.41
518.60	28513.87
518.80	28692.04
519.01	28659.27
519.21	28849.74
519.41	28788.30
519.62	28827.21
519.82	28829.26
520.03	29113.92
520.23	28995.14
520.43	28890.70
520.64	29181.51
520.84	29503.04
521.05	29281.86
521.25	29498.94
521.45	29695.55
521.66	29713.98
521.86	29843.00
522.07	29670.97
522.27	29924.92
522.47	29787.71
522.68	29865.53
522.88	29668.92
523.08	30318.13
523.29	29879.86
523.49	30049.85
523.70	30398.00
523.90	30615.08
524.10	30510.64
524.31	30582.32
524.51	30346.80
524.71	31204.90
524.92	30699.05
525.12	31227.43
525.33	30729.77
525.53	31069.73
525.73	31684.12
525.94	31464.99
526.14	31458.85
526.34	31786.52
526.55	31800.86
526.75	31800.86
526.95	31776.28
527.16	32185.88
527.36	31964.70
527.56	31970.84
527.77	32458.26
527.97	32486.93
528.17	32353.81
528.38	32716.30
528.58	32509.46
528.78	32779.79
528.99	32726.54
529.19	33007.11
529.39	32912.91
529.60	33351.17
529.80	33328.64
530.00	32980.49
530.21	33345.03
530.41	33379.84
530.61	33547.78
530.82	33936.89
531.02	33697.28
531.22	33897.98
531.43	33865.21
531.63	34121.21
531.83	34000.38
532.04	34100.73
532.24	34139.64
532.44	34848.24
532.64	34932.20
532.85	34924.01
533.05	34762.22
533.25	34778.61
533.46	34905.58
533.66	35296.74
533.86	35212.77
534.07	35679.71
534.27	35403.24
534.47	35884.51
534.67	35833.31
534.88	35501.54
535.08	35966.43
535.28	35966.43
535.49	36111.83
535.69	36292.05
535.89	36273.62
536.09	36373.97
536.30	36464.08
536.50	36453.84
536.70	36656.59
536.91	36761.04
537.11	36484.56
537.31	37068.23
537.51	36894.16
537.72	36845.01
537.92	37447.11
538.12	37586.37
538.32	37451.20
538.53	37680.58
538.73	37465.54
538.93	38084.03
539.13	37719.49
539.34	37701.06
539.54	37645.76
539.74	38254.01
539.94	37944.76
540.15	37887.42
540.35	38383.03
540.55	38360.50
540.75	38374.84
540.96	38753.71
541.16	38360.50
541.36	38905.26
541.56	39052.72
541.77	39155.11
541.97	38706.61
542.17	39183.79
542.37	39296.42
542.58	39241.13
542.78	39046.57
542.98	39161.26
543.18	39642.53
543.38	39712.16
543.59	39923.10
543.79	39476.65
543.99	39785.89
544.19	39859.62
544.40	39777.70
544.60	39962.01
544.80	39794.08
545.00	40170.91
545.20	40326.55
545.41	40181.15
545.61	40340.89
545.81	40662.42
546.01	40861.07
546.21	40226.20
546.42	40480.15
546.62	40736.15
546.82	40449.43
547.02	40529.30
547.22	40889.74
547.43	40805.78
547.63	41264.52
547.83	41131.40
548.03	40707.47
548.23	41055.63
548.44	41311.63
548.64	41151.88
548.84	41600.39
549.04	41020.81
549.24	41588.10
549.45	41719.17
549.65	41362.82
549.85	41260.43
550.05	41670.02
550.25	41518.47
550.45	41670.02
550.66	41997.70
550.86	41717.12
551.06	42118.53
551.26	42286.46
551.46	41825.67
551.66	41790.85
551.87	41575.81
552.07	42145.15
552.27	42112.38
552.47	42452.34
552.67	42710.39
552.87	42198.40
553.07	42851.70
553.28	42362.23
553.48	42904.95
553.68	42323.32
553.88	42536.31
554.08	42456.44
554.28	42771.83
554.48	42509.69
554.69	42917.23
554.89	42906.99
555.09	42687.86
555.29	42956.14
555.49	43292.01
555.69	42960.24
555.89	42884.47
556.10	43404.65
556.30	42960.24
556.50	43263.34
556.70	43119.98
556.90	43304.30
557.10	43167.09
557.30	43103.60
557.50	43296.11
557.70	43328.87
557.91	43769.19
558.11	43341.16
558.31	43830.63
558.51	43367.79
558.71	43472.23
558.91	43963.75
559.11	43236.72
559.31	43461.99
559.51	43345.26
559.72	43431.27
559.92	43662.69
560.12	43744.61
560.32	43799.91
560.52	43576.68
560.72	43758.95
560.92	43814.24
561.12	43965.79
561.32	44281.18
561.52	43464.04
561.72	44221.79
561.93	43625.83
562.13	44332.38
562.33	43623.78
562.53	44430.68
562.73	44254.56
562.93	43961.70
563.13	44082.53
563.33	44031.33
563.53	44406.11
563.73	43922.79
563.93	44299.61
564.13	44817.75
564.33	44311.90
564.53	44133.73
564.74	44528.98
564.94	44438.87
565.14	44354.91
565.34	43939.17
565.54	44246.36
565.74	44649.81
565.94	44944.72
566.14	44727.64
566.34	44721.49
566.54	44875.09
566.74	44397.91
566.94	44768.60
567.14	44957.01
567.34	44719.45
567.54	44885.33
567.74	44660.05
567.94	44692.82
568.14	45389.13
568.34	44879.19
568.54	44899.67
568.74	45000.02
568.94	45202.77
569.14	45311.31
569.34	45219.15
569.54	45006.16
569.75	44682.58
569.95	45053.26
570.15	45507.91
570.35	44940.63
570.55	45061.46
570.75	45122.90
570.95	45172.05
571.15	45356.36
571.35	45245.77
571.55	45495.63
571.75	45079.89
571.95	45389.13
572.15	45118.80
572.35	45684.04
572.55	45333.84
572.75	45446.47
572.95	45217.10
573.15	45405.52
573.35	45487.43
573.55	45380.94
573.75	45323.60
573.95	45673.80
574.15	45413.71
574.35	45712.71
574.55	45831.49
574.75	45358.41
574.95	45933.89
575.15	45131.09
575.34	45632.84
575.54	45778.25
575.74	45669.70
575.94	45901.12
576.14	45782.34
576.34	46146.88
576.54	46191.94
576.74	46116.16
576.94	46060.87
577.14	46351.68
577.34	46445.88
577.54	45923.65
577.74	46103.87
577.94	46067.01
578.14	46472.51
578.34	46660.92
578.54	46040.39
578.74	46144.83
578.94	46970.16
579.14	46597.43
579.34	46576.95
579.54	46613.82
579.74	46796.09
579.94	46665.02
580.13	46898.48
580.33	46726.46
580.53	46974.26
580.73	47203.63
580.93	46994.74
581.13	46673.21
581.33	47050.03
581.53	46865.72
581.73	47099.19
581.93	47441.20
582.13	46843.19
582.33	46994.74
582.53	47258.93
582.73	46961.97
582.92	46945.59
583.12	47650.09
583.32	47504.68
583.52	47191.34
583.72	47406.38
583.92	47336.75
584.12	47443.24
584.32	48229.66
584.52	47676.71
584.72	47527.21
584.92	47654.18
585.11	47963.43
585.31	47736.10
585.51	47936.80
585.71	47715.62
585.91	47994.15
586.11	48000.29
586.31	47547.69
586.51	47609.13
586.71	48151.84
586.91	48524.57
587.10	48264.48
587.30	48381.21
587.50	48141.60
587.70	48125.22
587.90	48522.52
588.10	48395.55
588.30	48366.88
588.50	48772.38
588.69	48354.59
588.89	48301.34
589.09	48297.25
589.29	48545.05
589.49	48817.43
589.69	48803.10
589.89	48971.03
590.08	48686.36
590.28	48829.72
590.48	48895.25
590.68	48852.25
590.88	48514.33
591.08	48799.00
591.28	48778.52
591.47	49368.33
591.67	48942.36
591.87	49546.51
592.07	49214.74
592.27	49360.14
592.47	48979.22
592.67	49141.01
592.86	49167.63
593.06	48950.55
593.26	49501.45
593.46	49589.52
593.66	49511.69
593.86	49632.52
594.05	49511.69
594.25	49798.41
594.45	48938.26
594.65	49677.58
594.85	49351.95
595.05	50068.74
595.24	49730.83
595.44	49677.58
595.64	49728.78
595.84	49734.92
596.04	50230.53
596.23	50128.13
596.43	50169.09
596.63	50271.49
596.83	49708.30
597.03	50599.16
597.22	50709.75
597.42	50580.73
597.62	50476.29
597.82	50126.08
598.02	50281.73
598.21	50668.79
598.41	50244.87
598.61	50879.74
598.81	50322.69
599.01	50320.64
599.20	50568.44
599.40	50910.46
599.60	51094.77
599.80	50922.74
600.00	51260.66
600.19	51547.37
600.39	50951.41
600.59	51217.65
600.79	51229.94
600.98	51092.72
601.18	51094.77
601.38	51543.28
601.58	51584.24
601.78	51686.64
601.97	51434.74
602.17	51797.23
602.37	51721.45
602.57	51643.63
602.76	51913.96
602.96	51969.26
603.16	51936.49
603.36	51731.69
603.55	52466.91
603.75	51817.71
603.95	52311.27
604.15	51969.26
604.34	52335.84
604.54	52096.23
604.74	52542.69
604.94	52325.60
605.13	52839.64
605.33	52495.58
605.53	51981.54
605.73	52741.34
605.92	52421.86
606.12	52747.48
606.32	52948.18
606.52	52675.80
606.71	52532.45
606.91	52999.38
607.11	52362.46
607.30	52958.42
607.50	52751.58
607.70	53363.92
607.90	52819.16
608.09	52939.99
608.29	53576.91
608.49	53163.22
608.68	53193.94
608.88	53222.61
609.08	53646.54
609.28	53417.17
609.47	53193.94
609.67	53880.01
609.87	53494.99
610.06	54179.01
610.26	53695.69
610.46	54244.55
610.66	53306.58
610.85	53736.65
611.05	54006.98
611.25	53986.50
611.44	53777.61
611.64	53791.95
611.84	53581.01
612.03	53957.83
612.23	53894.35
612.43	54207.68
612.62	54105.29
612.82	54312.13
613.02	54043.85
613.21	54383.81
613.41	53834.95
613.61	53982.41
613.80	53718.22
614.00	54070.47
614.20	54322.37
614.39	54228.16
614.59	54232.26
614.79	54219.97
614.98	54258.88
615.18	54148.29
615.38	54752.44
615.57	54113.48
615.77	54731.96
615.97	54543.55
616.16	54199.49
616.36	54699.20
616.56	54621.37
616.75	54389.95
616.95	54224.07
617.15	54580.42
617.34	54543.55
617.54	54361.28
617.74	54947.00
617.93	55063.74
618.13	54629.57
618.32	54903.99
618.52	54662.33
618.72	54500.54
618.91	55110.84
619.11	54473.92
619.31	54723.77
619.50	54785.21
619.70	54635.71
619.90	54426.82
620.09	54871.23
620.29	54848.70
620.48	54801.60
620.68	55215.29
620.88	54879.42
621.07	54703.29
621.27	55020.73
621.46	54908.09
621.66	55139.51
621.86	54883.51
622.05	54766.78
622.25	55313.59
622.44	55047.35
622.64	54584.51
622.84	55073.98
623.03	54953.15
623.23	55671.98
623.42	55139.51
623.62	55317.68
623.82	55620.78
624.01	55043.26
624.21	55491.76
624.40	55024.82
624.60	55456.95
624.80	54940.86
624.99	55301.30
625.19	55018.68
625.38	55172.28
625.58	55049.40
625.77	55301.30
625.97	55682.22
626.17	54891.71
626.36	55624.88
626.56	55680.17
626.75	55149.75
626.95	55282.87
627.14	55323.83
627.34	55502.00
627.54	55262.39
627.73	55442.61
627.93	55088.31
628.12	55403.70
628.32	55708.85
628.51	55479.47
628.71	55848.11
628.90	55559.34
629.10	56016.04
629.30	55420.08
629.49	55811.24
629.69	55213.24
629.88	55461.04
630.08	55954.60
630.27	55770.28
630.47	55760.05
630.66	55377.08
630.86	55895.21
631.05	55436.47
631.25	55956.65
631.44	56120.49
631.64	55555.25
631.84	55823.53
632.03	56593.57
632.23	55813.29
632.42	56308.90
632.62	56097.96
632.81	55846.06
633.01	55588.02
633.20	55993.51
633.40	55893.16
633.59	55751.85
633.79	55997.61
633.98	56243.37
634.18	56204.45
634.37	56511.65
634.57	56489.12
634.76	56452.26
634.96	56179.88
635.15	56358.05
635.35	56140.97
635.54	56063.14
635.74	56554.66
635.93	56417.44
636.13	56585.38
636.32	56415.40
636.52	56132.78
636.71	55981.23
636.91	56339.62
637.10	56548.51
637.30	56009.90
637.49	56698.01
637.69	56175.78
637.88	56937.63
638.08	56622.24
638.27	56868.00
638.46	56186.02
638.66	56523.94
638.85	56714.40
639.05	56485.03
639.24	56646.82
639.44	56593.57
639.63	56915.10
639.83	57263.25
640.02	56331.43
640.22	56874.14
640.41	56941.72
640.61	56429.73
640.80	56954.01
640.99	56607.90
641.19	57201.82
641.38	56835.23
641.58	56323.24
641.77	57191.58
641.97	56755.36
642.16	56978.59
642.36	56935.58
642.55	57511.06
642.74	56503.46
642.94	57873.55
643.13	56566.94
643.33	57394.32
643.52	57355.41
643.72	57740.43
643.91	57353.36
644.10	57330.84
644.30	57322.65
644.49	57592.98
644.69	57578.64
644.88	57406.61
645.08	56741.02
645.27	57359.51
645.46	57093.27
645.66	57533.59
645.85	57189.53
646.05	57521.30
646.24	57152.66
646.43	57439.38
646.63	57556.11
646.82	57982.09
647.02	57242.77
647.21	57832.59
647.40	57797.77
647.60	58287.24
647.79	57660.56
647.99	57851.02
648.18	57285.78
648.37	58061.96
648.57	57820.30
648.76	57775.25
648.96	57832.59
649.15	58180.74
649.34	57865.36
649.54	57918.60
649.73	57861.26
649.92	57994.38
650.12	57717.90
650.31	58508.42
650.51	58420.36
650.70	58291.33
650.89	57943.18
651.09	58399.88
651.28	57994.38
651.47	58113.16
651.67	57848.97
651.86	58545.28
652.06	57861.26
652.25	58147.98
652.44	57900.17
652.64	57912.46
652.83	57943.18
653.02	57941.13
653.22	58127.50
653.41	58041.48
653.60	57787.53
653.80	58344.58
653.99	58678.40
654.18	58315.91
654.38	58039.43
654.57	58664.06
654.76	57859.21
654.96	58139.78
655.15	57588.88
655.34	58164.36
655.54	57953.42
655.73	58301.57
655.92	58385.54
656.12	58332.29
656.31	58393.73
656.50	58358.92
656.70	58176.65
656.89	58354.82
657.08	58221.70
657.28	58203.27
657.47	58432.64
657.66	58823.81
657.86	58037.39
658.05	58223.75
658.24	58758.27
658.43	57668.75
658.63	58381.45
658.82	58223.75
659.01	58625.15
659.21	58541.19
659.40	58469.51
659.59	58213.51
659.79	58397.83
659.98	58762.37
660.17	58485.89
660.36	58553.47
660.56	58569.86
660.75	58262.66
660.94	58483.84
661.14	58293.38
661.33	58307.72
661.52	58231.94
661.71	58774.66
661.91	58287.24
662.10	58225.80
662.29	58631.30
662.49	58809.47
662.68	58244.23
662.87	58649.73
663.06	58371.21
663.26	58227.85
663.45	58438.79
663.64	58334.34
663.83	58913.92
664.03	58643.59
664.22	58281.09
664.41	58045.58
664.60	57875.60
664.80	57996.43
664.99	58111.11
665.18	58287.24
665.37	58209.42
665.57	58213.51
665.76	58348.68
665.95	58573.95
666.14	58154.12
666.34	58219.66
666.53	57965.71
666.72	58131.59
666.91	58246.28
667.11	57949.32
667.30	57957.52
667.49	58305.67
667.68	58315.91
667.87	58047.63
668.07	58553.47
668.26	57898.12
668.45	58289.29
668.64	57771.15
668.84	59169.91
669.03	58434.69
669.22	58930.30
669.41	58107.02
669.60	57967.76
669.80	57896.08
669.99	58004.62
670.18	58195.08
670.37	57980.04
670.57	58440.84
670.76	58045.58
670.95	58326.15
671.14	58031.24
671.33	57644.18
671.53	58502.28
671.72	58059.91
671.91	58014.86
672.10	57742.48
672.29	58295.43
672.48	57830.54
672.68	58348.68
672.87	57955.47
673.06	57775.25
673.25	57881.74
673.44	57654.42
673.64	58090.63
673.83	57543.83
674.02	57169.05
674.21	57541.78
674.40	57951.37
674.59	57523.35
674.79	57439.38
674.98	57136.28
675.17	57619.60
675.36	57228.44
675.55	57394.32
675.74	57310.36
675.94	57379.99
676.13	57554.07
676.32	57736.34
676.51	58209.42
676.70	57750.67
676.89	57431.19
677.08	57734.29
677.28	57334.93
677.47	57943.18
677.66	57961.61
677.85	57312.41
678.04	57466.00
678.23	57750.67
678.42	57396.37
678.62	57371.80
678.81	57635.98
679.00	57472.15
679.19	57693.33
679.38	57271.45
679.57	57652.37
679.76	57529.49
679.96	57488.53
680.15	57427.09
680.34	57156.76
680.53	57324.69
680.72	57146.52
680.91	57330.84
681.10	57234.58
681.29	57351.32
681.48	56786.08
681.68	56951.96
681.87	57068.70
682.06	57048.22
682.25	56640.67
682.44	56751.26
682.63	57126.04
682.82	56530.08
683.01	56853.66
683.20	56638.62
683.39	56956.06
683.59	56523.94
683.78	56269.99
683.97	56583.33
684.16	56630.43
684.35	56100.01
684.54	56360.10
684.73	56708.25
684.92	56308.90
685.11	56032.42
685.30	56171.69
685.49	56577.18
685.69	56009.90
685.88	56169.64
686.07	56194.21
686.26	56374.44
686.45	55989.42
686.64	56003.75
686.83	56460.45
687.02	56034.47
687.21	55991.47
687.40	56597.66
687.59	56013.99
687.78	56226.98
687.97	55987.37
688.16	55766.19
688.35	56007.85
688.54	55712.94
688.74	55751.85
688.93	55753.90
689.12	56110.25
689.31	55762.09
689.50	55714.99
689.69	55321.78
689.88	55276.72
690.07	55768.24
690.26	55239.86
690.45	55723.18
690.64	55512.24
690.83	54934.71
691.02	54822.08
691.21	55479.47
691.40	55098.55
691.59	55344.31
691.78	55225.53
691.97	55538.86
692.16	55246.00
692.35	55454.90
692.54	55553.20
692.73	55194.81
692.92	55106.74
693.11	55221.43
693.30	55317.68
693.49	54928.57
693.68	55121.08
693.87	55006.39
694.06	54670.53
694.25	54789.31
694.44	54465.73
694.63	54566.08
694.82	54772.92
695.01	54703.29
695.20	54525.12
695.39	54594.75
695.58	54678.72
695.77	54213.83
695.96	54797.50
696.15	54416.58
696.34	54447.30
696.53	54164.68
696.72	54392.00
696.91	54592.70
697.10	54729.92
697.29	54674.62
697.48	54779.07
697.67	54232.26
697.86	53945.54
698.05	53724.36
698.24	54172.87
698.43	53533.90
698.62	54004.94
698.81	53863.63
699.00	54179.01
699.19	53523.66
699.38	54109.38
699.57	53265.62
699.76	54461.63
699.95	53761.23
700.14	53462.22
700.32	53542.10
700.51	53081.30
700.70	53785.80
700.89	53935.30
701.08	53804.24
701.27	53408.98
701.46	53529.81
701.65	52829.40
701.84	53370.07
702.03	53357.78
702.22	52880.60
702.41	53447.89
702.60	53519.57
702.79	53566.67
702.98	52647.13
703.17	53036.25
703.35	53107.93
703.54	53228.76
703.73	53171.41
703.92	53171.41
704.11	53050.58
704.30	52661.47
704.49	52651.23
704.68	52739.29
704.87	52872.41
705.06	52622.56
705.25	52593.89
705.43	52389.09
705.62	52671.71
705.81	52968.66
706.00	52397.28
706.19	52157.67
706.38	51852.52
706.57	52301.03
706.76	52090.09
706.95	52126.95
707.14	52088.04
707.32	52112.61
707.51	51752.17
707.70	52114.66
707.89	52212.96
708.08	52085.99
708.27	52671.71
708.46	52260.07
708.65	51926.25
708.84	52157.67
709.02	52081.89
709.21	52208.87
709.40	52253.92
709.59	51786.99
709.78	51668.20
709.97	51809.51
710.16	51756.27
710.34	51815.66
710.53	51553.52
710.72	51303.67
710.91	51670.25
711.10	51578.09
711.29	51707.12
711.48	51690.73
711.66	51483.89
711.85	51264.75
712.04	51262.71
712.23	51348.72
712.42	51627.24
712.61	51287.28
712.80	51014.90
712.98	51395.82
713.17	50984.18
713.36	50990.33
713.55	50791.67
713.74	51213.55
713.93	51438.83
714.11	51262.71
714.30	50582.78
714.49	50996.47
714.68	50806.01
714.87	51426.54
715.06	51057.91
715.24	50357.50
715.43	50402.56
715.62	50480.38
715.81	50238.72
716.00	50644.22
716.18	50435.33
716.37	50445.57
716.56	50537.72
716.75	50679.03
716.94	50140.42
717.12	50447.61
717.31	50781.43
717.50	50244.87
717.69	49726.73
717.88	50341.12
718.06	50361.60
718.25	50453.76
718.44	49798.41
718.63	49927.43
718.82	49808.65
719.00	49888.52
719.19	50275.58
719.38	49812.74
719.57	49605.90
719.76	49165.59
719.94	49390.86
720.13	49163.54
720.32	49327.38
720.51	49786.12
720.69	49399.05
720.88	48878.87
721.07	49571.08
721.26	48856.34
721.44	49036.56
721.63	49050.90
721.82	48534.81
722.01	48823.58
722.20	49235.22
722.38	48952.60
722.57	48553.24
722.76	48416.03
722.95	48739.61
723.13	48155.94
723.32	48155.94
723.51	48219.42
723.70	48121.12
723.88	48352.54
724.07	47998.24
724.26	48289.06
724.44	47703.34
724.63	48708.89
724.82	48235.81
725.01	48190.75
725.19	48000.29
725.38	48078.11
725.57	48112.93
725.76	48094.50
725.94	47985.96
726.13	47748.39
726.32	47531.31
726.51	47740.20
726.69	47752.49
726.88	47969.57
727.07	47969.57
727.25	47764.78
727.44	47467.82
727.63	47873.32
727.82	47203.63
728.00	47670.57
728.19	47906.08
728.38	47686.95
728.56	47191.34
728.75	48133.41
728.94	47127.86
729.12	47609.13
729.31	47811.88
729.50	47455.53
729.69	47326.51
729.87	47437.10
730.06	47551.79
730.25	47553.83
730.43	47865.13
730.62	47275.31
730.81	47420.72
730.99	47719.72
731.18	47172.91
731.37	47721.77
731.55	47410.48
731.74	47803.69
731.93	47918.37
732.11	47451.44
732.30	47719.72
732.49	47220.02
732.67	47705.38
732.86	47465.77
733.05	47363.37
733.23	47312.17
733.42	47394.09
733.61	47142.19
733.79	47492.40
733.98	47678.76
734.17	47195.44
734.35	47236.40
734.54	47537.45
734.73	47607.08
734.91	47496.49
735.10	47379.76
735.29	47707.43
735.47	47109.43
735.66	46789.94
735.84	47303.98
736.03	47142.19
736.22	47869.22
736.40	47402.28
736.59	47756.58
736.78	47179.06
736.96	46812.47
737.15	46835.00
737.33	47086.90
737.52	46927.16
737.71	46824.76
737.89	46835.00
738.08	46699.83
738.27	46775.61
738.45	47076.66
738.64	46908.72
738.82	46787.89
739.01	47043.89
739.20	46691.64
739.38	46955.83
739.57	47002.93
739.75	46728.50
739.94	46482.75
740.13	46937.40
740.31	46812.47
740.50	46566.71
740.68	46552.38
740.87	47072.56
741.06	46888.24
741.24	46691.64
741.43	45901.12
741.61	46398.78
741.80	46376.25
741.99	46490.94
742.17	46437.69
742.36	46153.02
742.54	46579.00
742.73	46839.09
742.91	46865.72
743.10	46517.56
743.29	46359.87
743.47	46277.95
743.66	46181.70
743.84	46806.33
744.03	46347.58
744.21	46519.61
744.40	46589.24
744.59	46062.91
744.77	46290.24
744.96	46069.06
745.14	46710.07
745.33	46314.81
745.51	46208.32
745.70	46474.55
745.88	46269.76
746.07	46357.82
746.26	46107.97
746.44	45811.01
746.63	46093.63
746.81	46312.77
747.00	45698.37
747.18	45933.89
747.37	45944.13
747.55	45808.96
747.74	46650.68
747.92	45706.57
748.11	46005.57
748.29	45929.80
748.48	46083.39
748.66	45729.09
748.85	45776.20
749.03	45839.68
749.22	45520.20
749.41	45491.53
749.59	45718.85
749.78	45544.78
749.96	45266.25
750.15	45694.28
750.33	45870.40
750.52	45403.47
750.70	45262.16
750.89	45000.02
751.07	45438.28
751.26	45528.39
751.44	45385.04
751.63	45192.53
751.81	44807.51
752.00	45339.98
752.18	45507.91
752.37	45491.53
752.55	44721.49
752.74	44891.48
752.92	44852.56
753.10	44571.99
753.29	44987.73
753.47	45237.58
753.66	44574.04
753.84	45385.04
754.03	44686.68
754.21	44547.42
754.40	44852.56
754.58	44854.61
754.77	44399.96
754.95	44821.84
755.14	44643.67
755.32	44709.21
755.51	44205.41
755.69	44500.31
755.88	44309.85
756.06	44672.34
756.24	44430.68
756.43	44430.68
756.61	44328.28
756.80	44252.51
756.98	44334.43
757.17	44555.61
757.35	44647.77
757.54	44463.45
757.72	44139.87
757.90	44260.70
758.09	44201.31
758.27	44211.55
758.46	44027.23
758.64	44340.57
758.83	44246.36
759.01	44234.08
759.19	44246.36
759.38	44356.96
759.56	44307.80
759.75	44279.13
759.93	44234.08
760.12	43828.58
760.30	43926.88
760.48	43640.17
760.67	43959.65
760.85	44045.66
761.04	44217.69
761.22	44246.36
761.40	43961.70
761.59	44131.68
761.77	43629.93
761.96	44217.69
762.14	43445.61
762.32	43588.97
762.51	43234.67
762.69	43412.84
762.88	43443.56
763.06	43601.25
763.24	43672.93
763.43	43771.24
763.61	43715.94
763.80	43543.91
763.98	43621.73
764.16	43068.78
764.35	43134.32
764.53	42882.42
764.72	43318.64
764.90	43091.31
765.08	43040.11
765.27	43308.40
765.45	42685.81
765.63	42722.68
765.82	42995.06
766.00	42642.81
766.18	42866.03
766.37	43236.72
766.55	42999.15
766.74	42753.40
766.92	42851.70
767.10	42495.35
767.29	42698.10
767.47	42503.54
767.65	42648.95
767.84	42442.10
768.02	42708.34
768.20	42397.05
768.39	42065.28
768.57	42440.06
768.75	42333.56
768.94	42595.70
769.12	42456.44
769.30	42079.61
769.49	42134.91
769.67	42196.35
769.85	41645.44
770.04	41999.74
770.22	42091.90
770.40	41844.10
770.59	41852.29
770.77	41805.19
770.95	41973.12
771.14	41708.93
771.32	41870.72
771.50	41614.72
771.69	41893.25
771.87	42112.38
772.05	41780.61
772.24	40971.66
772.42	41543.05
772.60	41545.09
772.78	41549.19
772.97	41368.97
773.15	41885.06
773.33	41379.21
773.52	41186.70
773.70	41872.77
773.88	41624.96
774.07	41414.02
774.25	41442.70
774.43	41446.79
774.61	41512.33
774.80	41213.32
774.98	41555.33
775.16	41334.15
775.34	41661.83
775.53	41276.81
775.71	41432.46
775.89	41403.78
776.08	41745.80
776.26	41706.88
776.44	41227.66
776.62	41620.87
776.81	41387.40
776.99	41831.81
777.17	41659.78
777.35	41893.25
777.54	42157.44
777.72	41553.29
777.90	41858.43
778.08	41887.10
778.27	41817.47
778.45	42493.30
778.63	42372.47
778.81	42065.28
779.00	42575.22
779.18	42077.57
779.36	42259.84
779.54	42165.63
779.73	42036.61
779.91	41883.01
780.09	42491.26
780.27	42325.37
780.46	42202.49
780.64	42661.24
780.82	42247.55
781.00	42388.86
781.19	42558.84
781.37	42812.79
781.55	42700.15
781.73	42323.32
781.91	42321.27
782.10	42659.19
782.28	42841.46
782.46	42450.30
782.64	42638.71
782.82	42794.36
783.01	42618.23
783.19	42651.00
783.37	42536.31
783.55	42665.33
783.74	43027.82
783.92	42481.02
784.10	43300.20
784.28	42722.68
784.46	42560.89
784.64	42259.84
784.83	42808.69
785.01	43169.13
785.19	42634.61
785.37	42861.94
785.55	42872.18
785.74	42179.96
785.92	42763.64
786.10	42796.40
786.28	42950.00
786.46	42351.99
786.64	42313.08
786.83	42677.62
787.01	42491.26
787.19	42954.10
787.37	42751.35
787.55	42509.69
787.74	42411.38
787.92	42593.65
788.10	42505.59
788.28	42501.50
788.46	42462.58
788.64	42327.42
788.82	42681.72
789.01	42468.73
789.19	42382.71
789.37	41891.20
789.55	42429.82
789.73	41782.66
789.91	41850.24
790.09	41930.11
790.28	41786.75
790.46	41588.10
790.64	41969.02
790.82	41915.78
791.00	41471.37
791.18	41612.68
791.36	41833.86
791.55	41631.11
791.73	41594.25
791.91	40867.22
792.09	41315.72
792.27	41209.23
792.45	41141.64
792.63	41491.85
792.81	40760.72
793.00	40897.94
793.18	40842.64
793.36	40899.98
793.54	41100.68
793.72	40381.85
793.90	40471.96
794.08	40015.26
794.26	40420.76
794.44	40093.08
794.62	39931.29
794.81	40154.52
794.99	39962.01
795.17	39933.34
795.35	39896.48
795.53	39914.91
795.71	40453.53
795.89	39947.68
796.07	39329.19
796.25	39140.78
796.43	39409.06
796.61	39112.11
796.80	39245.23
796.98	38948.27
797.16	39116.20
797.34	38606.26
797.52	38542.77
797.70	39034.28
797.88	39122.35
798.06	38581.68
798.24	38532.53
798.42	39067.05
798.60	38540.72
798.78	38423.99
798.96	38430.13
799.14	38217.14
799.32	38280.63
799.51	38008.25
799.69	38346.17
799.87	38163.90
800.05	37619.14
800.23	38043.07
800.41	37821.89
800.59	37895.61
800.77	37500.36
800.95	37215.69
801.13	37473.73
801.31	37529.03
801.49	37357.00
801.67	37316.04
801.85	37133.77
802.03	36982.22
802.21	36705.74
802.39	36582.87
802.57	36855.25
802.75	36623.83
802.93	36693.46
803.11	36484.56
803.29	36433.36
803.47	36214.23
803.65	36398.55
803.83	36314.58
804.01	36105.69
804.19	35833.31
804.37	36103.64
804.55	35909.08
804.73	35708.38
804.91	35624.42
805.09	35825.12
805.27	35679.71
805.45	35818.97
805.63	35528.16
805.81	35466.72
805.99	35663.33
806.17	35116.52
806.35	35393.00
806.53	35407.33
806.71	35294.69
806.89	35249.64
807.07	35214.82
807.25	35382.76
807.43	34979.31
807.61	35112.42
807.79	34493.94
807.97	34764.27
808.15	34326.00
808.33	34625.01
808.51	34364.92
808.69	34401.78
808.87	34299.38
809.05	34244.09
809.23	34102.78
809.41	33910.27
809.59	33768.96
809.77	34307.57
809.95	33965.56
810.13	33949.18
810.31	33721.85
810.49	33811.96
810.67	33310.21
810.84	33621.50
811.02	33388.03
811.20	33232.39
811.38	33633.79
811.56	33299.97
811.74	33586.69
811.92	33027.59
812.10	33265.16
812.28	33152.52
812.46	33033.74
812.64	33197.57
812.82	33041.93
813.00	32966.15
813.18	33127.94
813.36	32699.92
813.53	32495.12
813.71	32704.01
813.89	32726.54
814.07	32667.15
814.25	32566.80
814.43	32437.78
814.61	32589.33
814.79	32292.37
814.97	32095.77
815.15	32286.23
815.33	31880.73
815.50	31565.34
815.68	31843.87
815.86	32108.05
816.04	31950.36
816.22	31819.29
816.40	31684.12
816.58	31628.83
816.76	31432.22
816.94	31477.28
817.11	31626.78
817.29	31534.62
817.47	31524.38
817.65	31331.87
817.83	31651.36
818.01	31514.14
818.19	31264.29
818.37	31399.46
818.54	30936.62
818.72	31082.02
818.90	30998.06
819.08	30864.94
819.26	30758.44
819.44	30684.72
819.62	30426.67
819.80	30914.09
819.97	30830.12
820.15	30574.13
820.33	30510.64
820.51	30586.41
820.69	30244.40
820.87	30490.16
821.05	30510.64
821.22	30350.90
821.40	30238.26
821.58	29959.73
821.76	30156.34
821.94	29965.88
822.12	30268.98
822.29	30473.78
822.47	29947.45
822.65	30094.90
822.83	29935.16
823.01	29957.69
823.19	29668.92
823.36	29503.04
823.54	29511.23
823.72	29578.81
823.90	29589.05
824.08	29498.94
824.25	29472.32
824.43	29019.72
824.61	29595.20
824.79	29320.77
824.97	29277.76
825.15	29560.38
825.32	29226.56
825.50	29040.20
825.68	29034.05
825.86	29304.38
826.04	29075.01
826.21	29521.47
826.39	29101.64
826.57	29138.50
826.75	28630.60
826.93	28708.43
827.10	28909.13
827.28	28608.08
827.46	28952.13
827.64	28782.15
827.81	28687.95
827.99	28747.34
828.17	28419.66
828.35	28249.68
828.53	28452.43
828.70	28620.36
828.88	28657.23
829.06	28161.62
829.24	28247.63
829.41	28040.79
829.59	28460.62
829.77	28087.89
829.95	28300.88
830.12	27897.43
830.30	28356.18
830.48	28169.81
830.66	28184.15
830.84	28026.45
831.01	27739.74
831.19	28110.42
831.37	27553.37
831.55	28128.85
831.72	27788.89
831.90	27792.98
832.08	27659.87
832.25	27682.39
832.43	27498.08
832.61	27555.42
832.79	27297.38
832.96	27735.64
833.14	27149.92
833.32	27631.19
833.50	27563.61
833.67	27371.10
833.85	27086.43
834.03	26842.73
834.20	27276.90
834.38	27194.98
834.56	27100.77
834.74	26887.78
834.91	27174.50
835.09	27055.72
835.27	26875.49
835.44	26867.30
835.62	26592.87
835.80	26613.35
835.98	26662.51
836.15	26685.03
836.33	26721.90
836.51	26701.42
836.68	26670.70
836.86	26658.41
837.04	26570.35
837.21	26494.57
837.39	26549.87
837.57	26850.92
837.75	26521.20
837.92	26062.45
838.10	26197.62
838.28	26097.27
838.45	26211.95
838.63	26044.02
838.81	25876.09
838.98	26033.78
839.16	25849.46
839.34	25974.39
839.51	26175.09
839.69	25865.85
839.87	25628.28
840.04	25810.55
840.22	26029.68
840.40	25853.56
840.57	25446.01
840.75	25702.01
840.93	25581.18
841.10	25615.99
841.28	26058.35
841.46	25491.07
841.63	25626.23
841.81	25462.40
841.98	25562.75
842.16	25568.89
842.34	25446.01
842.51	25353.85
842.69	25452.16
842.87	25265.79
843.04	25386.62
843.22	24974.98
843.40	25339.52
843.57	25081.47
843.75	25454.20
843.92	25273.98
844.10	25226.88
844.28	25032.32
844.45	24858.24
844.63	24909.44
844.81	24688.26
844.98	25069.19
845.16	24716.93
845.33	24870.53
845.51	24952.45
845.69	24829.57
845.86	24624.78
846.04	24540.81
846.21	24501.90
846.39	24770.18
846.57	24247.95
846.74	24178.32
846.92	24342.16
847.09	24403.60
847.27	24188.56
847.45	24598.15
847.62	24557.19
847.80	24374.92
847.97	24364.68
848.15	24155.79
848.32	24274.57
848.50	24180.37
848.68	24090.26
848.85	24194.70
849.03	23662.23
849.20	24145.55
849.38	23770.77
849.56	23844.50
849.73	23584.41
849.91	24067.73
850.08	23832.21
850.26	23576.22
850.43	23752.34
850.61	23942.80
850.78	23365.28
850.96	23445.15
851.14	23600.79
851.31	23602.84
851.49	23617.18
851.66	23758.49
851.84	23586.46
852.01	23570.07
852.19	23746.20
852.36	23408.28
852.54	23342.75
852.71	23162.53
852.89	23461.53
853.07	23387.80
853.24	23119.52
853.42	23500.44
853.59	23096.99
853.77	23103.14
853.94	23332.51
854.12	23350.94
854.29	22853.28
854.47	22849.19
854.64	23051.94
854.82	22849.19
854.99	23158.43
855.17	22953.63
855.34	22634.15
855.52	22935.20
855.69	23051.94
855.87	22615.72
856.04	22531.75
856.22	22675.11
856.39	22527.66
856.57	22509.22
856.74	22392.49
856.92	22640.29
857.09	22396.59
857.27	22263.47
857.44	22116.01
857.62	22402.73
857.79	22281.90
857.97	22554.28
858.14	22308.52
858.32	21991.09
858.49	22331.05
858.67	22240.94
858.84	22134.45
859.02	22060.72
859.19	22204.08
859.37	22154.93
859.54	22107.82
859.72	22036.14
859.89	21999.28
860.06	21935.79
860.24	22122.16
860.41	21917.36
860.59	21866.16
860.76	21964.46
860.94	21556.92
861.11	22001.33
861.29	21632.69
861.46	21685.94
861.64	21255.87
861.81	21583.54
861.98	21501.62
862.16	21167.80
862.33	21558.97
862.51	21700.28
862.68	21628.60
862.86	21415.61
863.03	21475.00
863.21	21399.23
863.38	21149.37
863.55	21378.75
863.73	21403.32
863.90	21540.54
864.08	21001.92
864.25	21122.75
864.43	21216.96
864.60	21020.35
864.77	20928.19
864.95	20995.78
865.12	20696.77
865.30	21120.70
865.47	20770.50
865.64	20602.57
865.82	20788.93
865.99	21026.50
866.17	20774.60
866.34	20825.79
866.51	20856.51
866.69	20803.27
866.86	20573.89
867.04	20596.42
867.21	20588.23
867.38	20365.00
867.56	19982.03
867.73	20573.89
867.91	20637.38
868.08	20465.35
868.25	20346.57
868.43	20266.70
868.60	20229.84
868.78	20227.79
868.95	20342.47
869.12	19947.22
869.30	20125.39
869.47	19984.08
869.64	19822.29
869.82	19795.67
869.99	19898.06
870.16	20043.47
870.34	19721.94
870.51	19644.12
870.69	19637.97
870.86	19810.00
871.03	19998.41
871.21	19816.15
871.38	19779.28
871.55	19791.57
871.73	19535.57
871.90	19584.73
872.07	19527.38
872.25	19390.17
872.42	19308.25
872.59	19273.43
872.77	19529.43
872.94	19250.91
873.11	19379.93
873.29	19392.22
873.46	19244.76
873.63	19316.44
873.81	19295.96
873.98	18941.66
874.15	19060.45
874.33	18972.38
874.50	18790.11
874.67	18851.55
874.85	18888.42
875.02	18677.48
875.19	18714.34
875.37	18730.72
875.54	18767.59
875.71	18798.31
875.88	18740.96
876.06	18593.51
876.23	18169.58
876.40	18384.62
876.58	18331.37
876.75	18478.82
876.92	18487.01
877.10	18403.05
877.27	18255.59
877.44	18331.37
877.61	18308.84
877.79	18050.80
877.96	18357.99
878.13	17970.93
878.31	18032.36
878.48	17925.87
878.65	18046.70
878.82	17821.42
879.00	18116.33
879.17	17757.94
879.34	17979.12
879.51	17700.59
879.69	17633.01
879.86	17479.41
880.03	17827.57
880.21	17467.13
880.38	17688.31
880.55	17614.58
880.72	17669.87
880.90	17723.12
881.07	17465.08
881.24	17471.22
881.41	17657.59
881.59	17479.41
881.76	17428.21
881.93	17264.38
882.10	17053.44
882.28	17262.33
882.45	17401.59
882.62	17198.84
882.79	17266.42
882.96	17024.76
883.14	17043.20
883.31	17164.03
883.48	16899.84
883.65	17114.87
883.83	17020.67
884.00	16932.61
884.17	17016.57
884.34	16926.46
884.51	16883.45
884.69	16803.58
884.86	16963.33
885.03	16924.41
885.20	16641.79
885.38	17037.05
885.55	16752.38
885.72	16738.05
885.89	16776.96
886.06	16631.55
886.24	16711.42
886.41	16713.47
886.58	16955.13
886.75	16883.45
886.92	16748.29
887.10	16688.90
887.27	16385.80
887.44	16428.81
887.61	16889.60
887.78	16764.67
887.95	16621.31
888.13	16437.00
888.30	16359.17
888.47	16592.64
888.64	16346.89
888.81	16166.67
888.99	16205.58
889.16	16262.92
889.33	16316.17
889.50	15994.64
889.67	16131.85
889.84	15976.20
890.01	16144.14
890.19	16246.54
890.36	16109.32
890.53	16109.32
890.70	16013.07
890.87	16174.86
891.04	15918.86
891.22	15826.70
891.39	15820.56
891.56	15804.17
891.73	15892.24
891.90	15736.59
892.07	15591.19
892.24	15492.88
892.42	15527.70
892.59	15589.14
892.76	15515.41
892.93	15482.64
893.10	15474.45
893.27	15468.31
893.44	15447.83
893.61	15441.68
893.79	15722.26
893.96	15474.45
894.13	15386.39
894.30	15511.32
894.47	15210.26
894.64	15611.67
894.81	15144.73
894.98	15503.12
895.15	15376.15
895.33	15134.49
895.50	15365.91
895.67	15367.96
895.84	15197.98
896.01	15253.27
896.18	15232.79
896.35	15419.16
896.52	15361.81
896.69	15116.06
896.86	15314.71
897.04	15163.16
897.21	15191.83
897.38	15372.05
897.55	15101.72
897.72	15085.34
897.89	15243.03
898.06	15427.35
898.23	15058.71
898.40	15206.17
898.57	15204.12
898.74	15253.27
898.91	15197.98
899.08	15388.44
899.26	15052.57
899.43	14995.23
899.60	15132.44
899.77	14964.51
899.94	15005.47
900.11	14956.32
900.28	15220.50
900.45	14860.06
900.62	15167.26
900.79	15171.35
900.96	15210.26
901.13	15054.62
901.30	15154.97
901.47	14892.83
901.64	14952.22
901.81	15095.58
901.98	14987.04
902.15	15343.38
902.32	15181.59
902.49	15030.04
902.66	15052.57
902.83	15173.40
903.01	14939.93
903.18	14937.88
903.35	15118.11
903.52	15040.28
903.69	14970.65
903.86	15357.72
904.03	15030.04
904.20	15122.20
904.37	15417.11
904.54	14860.06
904.71	14987.04
904.88	15107.87
905.05	15075.10
905.22	15032.09
905.39	15009.56
905.56	14962.46
905.73	14903.07
905.90	15044.38
906.07	14911.26
906.24	14970.65
906.41	14802.72
906.58	15114.01
906.75	14821.15
906.92	14747.42
907.09	14878.49
907.26	14800.67
907.43	14655.26
907.60	14892.83
907.77	14915.36
907.93	15114.01
908.10	14769.95
908.27	14927.64
908.44	14843.68
908.61	14776.09
908.78	14815.01
908.95	14751.52
909.12	14622.50
909.29	14757.66
909.46	14599.97
909.63	14876.44
909.80	14757.66
909.97	14937.88
910.14	14638.88
910.31	14937.88
910.48	14728.99
910.65	14702.37
910.82	14917.40
910.99	14657.31
911.16	14612.26
911.33	14583.59
911.50	14714.66
911.66	14483.24
911.83	14505.76
912.00	14610.21
912.17	14391.08
912.34	14446.37
912.51	14417.70
912.68	14135.08
912.85	14311.21
913.02	14434.08
913.19	14376.74
913.36	14253.86
913.53	14380.84
913.70	14165.80
913.86	14282.53
914.03	14268.20
914.20	14176.04
914.37	14196.52
914.54	14235.43
914.71	14206.76
914.88	14163.75
915.05	13885.23
915.22	14036.78
915.39	14171.94
915.55	13938.48
915.72	13817.65
915.89	14075.69
916.06	13612.85
916.23	13651.76
916.40	13598.51
916.57	13952.81
916.74	13639.47
916.91	13637.42
917.07	13676.34
917.24	13713.20
917.41	13662.00
917.58	13819.69
917.75	13395.76
917.92	13401.91
918.09	13342.52
918.26	13438.77
918.42	13287.22
918.59	13281.08
918.76	13287.22
918.93	13139.77
919.10	13283.13
919.27	13221.69
919.44	13326.13
919.60	13082.42
919.77	13035.32
919.94	12928.83
920.11	13143.86
920.28	13145.91
920.45	12945.21
920.61	12781.37
920.78	12980.03
920.95	13012.79
921.12	12742.46
921.29	12744.51
921.46	12631.87
921.62	12511.04
921.79	12496.71
921.96	12619.58
922.13	12377.92
922.30	12488.51
922.47	12334.92
922.63	12392.26
922.80	12371.78
922.97	12212.04
923.14	12060.49
923.31	12146.50
923.47	12013.38
923.64	12115.78
923.81	11908.94
923.98	12199.75
924.15	12085.06
924.32	11788.11
924.48	11882.31
924.65	11917.13
924.82	11626.32
924.99	11755.34
925.15	11781.96
925.32	11607.89
925.49	11542.35
925.66	11558.74
925.83	11620.17
925.99	11571.02
926.16	11683.66
926.33	11726.67
926.50	11419.47
926.67	11396.95
926.83	11124.57
927.00	11353.94
927.17	11136.85
927.34	11026.26
927.50	11157.33
927.67	11102.04
927.84	11016.02
928.01	10901.34
928.17	10753.88
928.34	10829.66
928.51	10755.93
928.68	10882.91
928.84	10813.28
929.01	10862.43
929.18	10710.88
929.35	10491.74
929.51	10774.36
929.68	10518.37
929.85	10370.91
930.02	10348.39
930.18	10499.94
930.35	10585.95
930.52	10332.00
930.69	10442.59
930.85	10239.84
931.02	10135.40
931.19	10289.00
931.36	10084.20
931.52	10190.69
931.69	10162.02
931.86	9953.13
932.02	9951.08
932.19	9979.75
932.36	9834.35
932.53	9963.37
932.69	9586.54
932.86	9738.09
933.03	9625.45
933.19	9750.38
933.36	9633.64
933.53	9598.83
933.70	9291.63
933.86	9398.13
934.03	9363.31
934.20	9244.53
934.36	9334.64
934.53	9074.55
934.70	8867.70
934.86	9101.17
935.03	8898.42
935.20	8847.22
935.36	9033.59
935.53	8740.73
935.70	8789.88
935.86	8851.32
936.03	8785.79
936.20	8396.67
936.36	8478.59
936.53	8413.06
936.70	8210.31
936.86	8386.43
937.03	8273.79
937.20	8173.44
937.36	8083.33
937.53	7958.41
937.70	7896.97
937.86	7915.40
938.03	7851.91
938.20	7737.23
938.36	7630.73
938.53	7620.49
938.70	7468.94
938.86	7438.22
939.03	7296.91
939.20	7176.08
939.36	7145.36
939.53	7206.80
939.70	7266.19
939.86	6989.72
940.03	6846.36
940.19	6748.06
940.36	6647.71
940.53	6758.30
940.69	6512.54
940.86	6565.79
941.03	6414.24
941.19	6115.23
941.36	6383.52
941.52	6299.55
941.69	6252.45
941.86	6145.95
942.02	5994.40
942.19	6070.18
942.35	5975.97
942.52	5887.91
942.69	5867.43
942.85	5844.90
943.02	5896.10
943.18	5885.86
943.35	5541.80
943.52	5672.87
943.68	5580.71
943.85	5773.22
944.01	5666.73
944.18	5468.08
944.35	5640.11
944.51	5531.56
944.68	5377.97
944.84	5420.97
945.01	5445.55
945.17	5400.49
945.34	5314.48
945.51	5476.27
945.67	5404.59
945.84	5384.11
946.00	5240.75
946.17	5410.73
946.33	5164.98
946.50	5343.15
946.67	5384.11
946.83	5269.42
947.00	5261.23
947.16	5339.05
947.33	5156.79
947.49	5183.41
947.66	5156.79
947.82	5246.90
947.99	5189.55
948.16	5302.19
948.32	5230.51
948.49	5347.25
948.65	5306.29
948.82	5312.43
948.98	5244.85
949.15	5185.46
949.31	5216.18
949.48	5287.86
949.64	5126.07
949.81	5173.17
949.97	5255.09
950.14	5306.29
950.30	5119.92
950.47	5373.87
950.63	5357.49
950.80	5349.29
950.96	5240.75
951.13	5248.94
951.30	5060.53
951.46	5294.00
951.63	5253.04
951.79	5207.98
951.96	5392.30
952.12	5304.24
952.29	5347.25
952.45	5287.86
952.62	5216.18
952.78	5269.42
952.94	5347.25
953.11	5328.81
953.27	5062.58
953.44	5263.28
953.60	5349.29
953.77	5457.84
953.93	5361.58
954.10	5310.38
954.26	5341.10
954.43	5271.47
954.59	5478.32
954.76	5494.70
954.92	5390.25
955.09	5390.25
955.25	5382.06
955.42	5375.92
955.58	5535.66
955.75	5343.15
955.91	5437.36
956.07	5437.36
956.24	5400.49
956.40	5402.54
956.57	5566.38
956.73	5474.22
956.90	5322.67
957.06	5466.03
957.23	5400.49
957.39	5271.47
957.56	5513.13
957.72	5482.41
957.88	5312.43
958.05	5394.35
958.21	5457.84
958.38	5425.07
958.54	5425.07
958.71	5525.42
958.87	5437.36
959.03	5392.30
959.20	5349.29
959.36	5246.90
959.53	5414.83
959.69	5341.10
959.85	5451.69
960.02	5441.45
960.18	5447.60
960.35	5365.68
960.51	5502.89
960.68	5425.07
960.84	5439.40
961.00	5439.40
961.17	5234.61
961.33	5373.87
961.50	5478.32
961.66	5533.61
961.82	5226.42
961.99	5459.88
962.15	5343.15
962.31	5386.16
962.48	5390.25
962.64	5431.21
962.81	5404.59
962.97	5449.64
963.13	5445.55
963.30	5433.26
963.46	5267.38
963.62	5371.82
963.79	5246.90
963.95	5250.99
964.12	5443.50
964.28	5375.92
964.44	5359.53
964.61	5277.62
964.77	5326.77
964.93	5441.45
965.10	5310.38
965.26	5263.28
965.42	5294.00
965.59	5451.69
965.75	5349.29
965.92	5244.85
966.08	5296.05
966.24	5261.23
966.41	5246.90
966.57	5365.68
966.73	5220.27
966.90	5248.94
967.06	5277.62
967.22	5214.13
967.39	5224.37
967.55	5179.31
967.71	5148.59
967.88	5124.02
968.04	5167.03
968.20	5083.06
968.37	5050.29
968.53	5107.63
968.69	5171.12
968.85	5195.70
969.02	5121.97
969.18	5173.17
969.34	5121.97
969.51	5072.82
969.67	5183.41
969.83	4939.70
970.00	5228.46
970.16	5101.49
970.32	5025.72
970.48	5171.12
970.65	5091.25
970.81	5009.33
970.97	5119.92
971.14	4808.63
971.30	5117.87
971.46	4900.79
971.63	4876.21
971.79	5027.76
971.95	4831.16
972.11	4896.69
972.28	4911.03
972.44	4970.42
972.60	4945.84
972.76	4882.36
972.93	4782.01
973.09	4798.39
973.25	4988.85
973.42	4992.95
973.58	4917.17
973.74	4861.88
973.90	4884.41
974.07	4845.49
974.23	4956.08
974.39	4919.22
974.55	4773.82
974.72	4777.91
974.88	4655.03
975.04	4861.88
975.20	4759.48
975.37	4822.97
975.53	4736.95
975.69	4724.66
975.85	4794.29
976.01	4675.51
976.18	4712.38
976.34	4747.19
976.50	4767.67
976.66	4804.53
976.83	4818.87
976.99	4845.49
977.15	4741.05
977.31	4483.00
977.47	4792.25
977.64	4624.31
977.80	4657.08
977.96	4589.50
978.12	4693.94
978.29	4605.88
978.45	4433.85
978.61	4493.24
978.77	4554.68
978.93	4587.45
979.10	4425.66
979.26	4544.44
979.42	4530.11
979.58	4382.65
979.74	4468.67
979.91	4513.72
980.07	4413.37
980.23	4474.81
980.39	4503.48
980.55	4390.84
980.71	4417.47
980.88	4364.22
981.04	4368.32
981.20	4435.90
981.36	4407.23
981.52	4364.22
981.68	4319.17
981.85	4370.37
982.01	4378.56
982.17	4353.98
982.33	4298.69
982.49	4460.48
982.65	4380.61
982.82	4310.97
982.98	4335.55
983.14	4302.78
983.30	4227.01
983.46	4483.00
983.62	4308.93
983.79	4186.05
983.95	4249.54
984.11	4167.62
984.27	4247.49
984.43	4165.57
984.59	4165.57
984.75	4296.64
984.91	4085.70
985.08	4114.37
985.24	4188.10
985.40	4044.74
985.56	4145.09
985.72	4153.28
985.88	4216.77
986.04	4126.66
986.20	3983.30
986.37	4022.21
986.53	4087.75
986.69	4097.99
986.85	4071.36
987.01	3977.16
987.17	4046.79
987.33	3989.44
987.49	3944.39
987.65	4028.35
987.82	4059.07
987.98	3968.96
988.14	3993.54
988.30	4116.42
988.46	3989.44
988.62	3977.16
988.78	3936.20
988.94	3934.15
989.10	3809.22
989.26	3821.51
989.42	3907.52
989.59	3774.41
989.75	3764.17
989.91	3928.00
990.07	3753.93
990.23	3827.65
990.39	3848.13
990.55	3780.55
990.71	3766.21
990.87	3796.93
991.03	3882.95
991.19	3753.93
991.35	3624.90
991.51	3823.56
991.67	3839.94
991.83	3749.83
992.00	3723.21
992.16	3733.45
992.32	3696.58
992.48	3751.88
992.64	3659.72
992.80	3676.10
992.96	3747.78
993.12	3674.06
993.28	3649.48
993.44	3710.92
993.60	3717.06
993.76	3700.68
993.92	3704.78
994.08	3665.86
994.24	3534.79
994.40	3649.48
994.56	3682.25
994.72	3489.74
994.88	3502.03
995.04	3547.08
995.20	3524.55
995.36	3557.32
995.52	3522.51
995.68	3577.80
995.84	3573.71
996.00	3575.75
996.16	3485.64
996.32	3475.40
996.48	3473.36
996.64	3524.55
996.80	3512.27
996.96	3534.79
997.12	3530.70
997.28	3383.24
997.44	3377.10
997.60	3407.82
997.76	3461.07
997.92	3405.77
998.08	3418.06
998.24	3303.37
998.40	3432.40
998.56	3327.95
998.72	3286.99
998.88	3297.23
999.04	3475.40
999.20	3444.68
999.36	3293.13
999.52	3483.59
999.68	3327.95
999.84	3397.58
1000.00	3375.05
1000.16	3327.95
1000.32	3233.74
1000.48	3350.48
1000.64	3133.39
1000.80	3100.62
1000.95	3186.64
1001.11	3256.27
1001.27	3219.41
1001.43	3219.41
1001.59	3260.37
1001.75	3084.24
1001.91	3266.51
1002.07	3131.34
1002.23	3135.44
1002.39	3067.86
1002.55	3291.09
1002.71	3174.35
1002.87	3035.09
1003.03	3155.92
1003.19	3088.34
1003.34	3200.98
1003.50	3133.39
1003.66	3194.83
1003.82	3131.34
1003.98	3041.23
1004.14	3141.58
1004.30	3080.14
1004.46	3071.95
1004.62	3104.72
1004.78	3057.62
1004.94	3057.62
1005.09	2996.18
1005.25	3131.34
1005.41	3006.42
1005.57	2987.99
1005.73	3061.71
1005.89	2908.12
1006.05	3076.05
1006.21	3045.33
1006.37	2955.22
1006.52	2934.74
1006.68	2901.97
1006.84	3041.23
1007.00	2893.78
1007.16	2969.55
1007.32	2875.35
1007.48	2932.69
1007.64	2895.83
1007.79	2899.92
1007.95	2721.75
1008.11	3006.42
1008.27	2904.02
1008.43	2928.60
1008.59	2830.29
1008.75	2811.86
1008.91	2848.72
1009.06	2811.86
1009.22	2752.47
1009.38	2914.26
1009.54	2889.68
1009.70	2758.61
1009.86	2707.41
1010.01	2840.53
1010.17	2766.81
1010.33	2791.38
1010.49	2828.24
1010.65	2850.77
1010.81	2613.21
1010.96	2754.52
1011.12	2770.90
1011.28	2799.57
1011.44	2805.72
1011.60	2766.81
1011.76	2680.79
1011.91	2707.41
1012.07	2658.26
1012.23	2684.89
1012.39	2658.26
1012.55	2715.61
1012.71	2682.84
1012.86	2619.35
1013.02	2691.03
1013.18	2711.51
1013.34	2588.63
1013.50	2705.37
1013.65	2617.30
1013.81	2586.58
1013.97	2668.50
1014.13	2703.32
1014.29	2650.07
1014.44	2666.46
1014.60	2639.83
1014.76	2666.46
1014.92	2625.50
1015.07	2584.54
1015.23	2645.98
1015.39	2478.04
1015.55	2519.00
1015.71	2617.30
1015.86	2531.29
1016.02	2537.43
1016.18	2441.18
1016.34	2486.23
1016.49	2480.09
1016.65	2529.24
1016.81	2443.23
1016.97	2494.43
1017.12	2574.30
1017.28	2400.22
1017.44	2371.55
1017.60	2475.99
1017.75	2498.52
1017.91	2402.27
1018.07	2465.75
1018.23	2426.84
1018.38	2469.85
1018.54	2453.47
1018.70	2430.94
1018.86	2451.42
1019.01	2406.36
1019.17	2396.12
1019.33	2592.73
1019.49	2371.55
1019.64	2406.36
1019.80	2443.23
1019.96	2346.97
1020.12	2486.23
1020.27	2285.53
1020.43	2353.12
1020.59	2410.46
1020.74	2426.84
1020.90	2500.57
1021.06	2306.01
1021.22	2332.64
1021.37	2398.17
1021.53	2330.59
1021.69	2404.32
1021.84	2394.08
1022.00	2277.34
1022.16	2346.97
1022.31	2355.16
1022.47	2377.69
1022.63	2363.36
1022.79	2238.43
1022.94	2222.05
1023.10	2410.46
1023.26	2265.05
1023.41	2275.29
1023.57	2230.24
1023.73	2346.97
1023.88	2379.74
1024.04	2203.61
1024.20	2217.95
1024.35	2281.44
1024.51	2246.62
1024.67	2224.09
1024.82	2246.62
1024.98	2203.61
1025.14	2209.76
1025.29	2277.34
1025.45	2338.78
1025.61	2195.42
1025.76	2265.05
1025.92	2179.04
1026.08	2191.33
1026.23	2293.72
1026.39	2220.00
1026.55	2176.99
1026.70	2166.75
1026.86	2205.66
1027.02	2291.68
1027.17	2160.61
1027.33	2211.81
1027.48	2205.66
1027.64	2228.19
1027.80	2131.94
1027.95	2195.42
1028.11	2062.30
1028.27	2148.32
1028.42	2109.41
1028.58	2150.37
1028.73	2121.70
1028.89	2072.54
1029.05	2211.81
1029.20	2181.09
>>>>>End Processed Spectral Data<<<<<
