SpectraSuite Data File
++++++++++++++++++++++++++++++++++++
Date: Fri Jun 02 14:53:28 CEST 2017
User: INFO_000
Dark Spectrum Present: No
Reference Spectrum Present: No
Number of Sampled Component Spectra: 1
Spectrometers: USB4H00879
Integration Time (usec): 80000 (USB4H00879)
Spectra Averaged: 1 (USB4H00879)
Boxcar Smoothing: 0 (USB4H00879)
Correct for Electrical Dark: No (USB4H00879)
Strobe/Lamp Enabled: No (USB4H00879)
Correct for Detector Non-linearity: No (USB4H00879)
Correct for Stray Light: No (USB4H00879)
Number of Pixels in Processed Spectrum: 3648
>>>>>Begin Processed Spectral Data<<<<<
345.13	1284.08
345.34	1284.08
345.56	1284.08
345.78	1279.98
345.99	1255.40
346.21	1681.38
346.42	1732.58
346.64	1642.47
346.86	1703.91
347.07	1671.14
347.29	1648.61
347.50	1632.23
347.72	1708.01
347.94	1753.06
348.15	1589.22
348.37	1638.38
348.59	1689.57
348.80	1710.05
349.02	1724.39
349.23	1775.59
349.45	1814.50
349.67	1804.26
349.88	1738.73
350.10	1988.58
350.31	1816.55
350.53	1705.96
350.75	1933.28
350.96	1685.48
351.18	1785.83
351.39	1753.06
351.61	1789.92
351.82	1748.97
352.04	1806.31
352.26	1761.25
352.47	1873.89
352.69	1839.08
352.90	1798.12
353.12	1718.25
353.34	1777.64
353.55	1787.88
353.77	1742.82
353.98	1791.97
354.20	1710.05
354.41	1798.12
354.63	1806.31
354.85	2045.92
355.06	1853.41
355.28	1683.43
355.49	1808.36
355.71	1767.40
355.92	1806.31
356.14	1830.88
356.35	1777.64
356.57	1748.97
356.79	1910.75
357.00	1722.34
357.22	1929.19
357.43	1671.14
357.65	1918.95
357.86	1818.60
358.08	1857.51
358.29	1818.60
358.51	1859.56
358.72	1857.51
358.94	1791.97
359.16	1808.36
359.37	1771.49
359.59	1871.84
359.80	1992.67
360.02	1871.84
360.23	1871.84
360.45	1902.56
360.66	1783.78
360.88	1746.92
361.09	1794.02
361.31	1800.16
361.52	1828.84
361.74	1990.63
361.95	2002.91
362.17	1871.84
362.38	1941.47
362.60	2007.01
362.81	1804.26
363.03	1800.16
363.24	1882.08
363.46	1923.04
363.67	1873.89
363.89	1847.27
364.10	1886.18
364.32	1957.86
364.53	1945.57
364.75	1791.97
364.96	1875.94
365.18	1935.33
365.39	1896.42
365.61	1890.28
365.82	2066.40
366.04	2011.11
366.25	1816.55
366.47	2015.20
366.68	1943.52
366.90	1970.15
367.11	1974.24
367.33	1974.24
367.54	1964.00
367.76	1941.47
367.97	2039.78
368.19	1894.37
368.40	1972.19
368.62	1832.93
368.83	1861.60
369.05	1855.46
369.26	1863.65
369.48	1914.85
369.69	1886.18
369.91	1953.76
370.12	1918.95
370.33	1947.62
370.55	1900.52
370.76	1986.53
370.98	2027.49
371.19	1992.67
371.41	1961.95
371.62	1943.52
371.84	1865.70
372.05	2154.46
372.27	1945.57
372.48	2074.59
372.69	2043.87
372.91	2072.54
373.12	2052.06
373.34	1986.53
373.55	2045.92
373.77	2088.93
373.98	2043.87
374.20	2027.49
374.41	2158.56
374.62	1970.15
374.84	2119.65
375.05	2138.08
375.27	2054.11
375.48	2138.08
375.70	2009.06
375.91	2113.50
376.12	2230.24
376.34	2039.78
376.55	2090.98
376.77	2109.41
376.98	2039.78
377.19	2002.91
377.41	2090.98
377.62	2056.16
377.84	2228.19
378.05	2244.57
378.27	2170.85
378.48	2187.23
378.69	2273.25
378.91	2248.67
379.12	2234.33
379.34	2205.66
379.55	2174.94
379.76	2174.94
379.98	2101.22
380.19	2228.19
380.41	2256.86
380.62	2168.80
380.83	2133.98
381.05	2248.67
381.26	2385.88
381.47	2170.85
381.69	2248.67
381.90	2308.06
382.12	2217.95
382.33	2172.89
382.54	2230.24
382.76	2267.10
382.97	2277.34
383.19	2148.32
383.40	2340.83
383.61	2293.72
383.83	2185.18
384.04	2312.16
384.25	2338.78
384.47	2392.03
384.68	2287.58
384.89	2226.14
385.11	2363.36
385.32	2303.96
385.54	2336.73
385.75	2332.64
385.96	2459.61
386.18	2377.69
386.39	2363.36
386.60	2369.50
386.82	2330.59
387.03	2420.70
387.24	2469.85
387.46	2365.40
387.67	2422.75
387.88	2404.32
388.10	2396.12
388.31	2420.70
388.52	2645.98
388.74	2514.91
388.95	2480.09
389.16	2437.08
389.38	2559.96
389.59	2547.67
389.80	2592.73
390.02	2598.87
390.23	2549.72
390.44	2580.44
390.66	2555.86
390.87	2461.66
391.08	2662.36
391.30	2576.34
391.51	2775.00
391.72	2664.41
391.94	2760.66
392.15	2562.01
392.36	2643.93
392.58	2586.58
392.79	2688.98
393.00	2736.09
393.22	2662.36
393.43	2893.78
393.64	2801.62
393.85	2793.43
394.07	2564.06
394.28	2645.98
394.49	2744.28
394.71	2723.80
394.92	2750.42
395.13	2688.98
395.35	2764.76
395.56	2645.98
395.77	2818.00
395.98	2916.31
396.20	2869.20
396.41	2885.59
396.62	2951.12
396.84	2852.82
397.05	2885.59
397.26	2961.36
397.47	2969.55
397.69	2828.24
397.90	3026.90
398.11	2912.21
398.32	2969.55
398.54	2869.20
398.75	2932.69
398.96	2930.64
399.18	3080.14
399.39	2932.69
399.60	2992.08
399.81	2963.41
400.03	2883.54
400.24	3219.41
400.45	3014.61
400.66	2977.75
400.88	3059.67
401.09	3207.12
401.30	3141.58
401.51	3270.61
401.73	3209.17
401.94	3231.69
402.15	3104.72
402.36	3180.50
402.58	3053.52
402.79	3176.40
403.00	3149.78
403.21	3190.74
403.43	3254.22
403.64	3284.94
403.85	3194.83
404.06	3231.69
404.27	3229.65
404.49	3268.56
404.70	3233.74
404.91	3291.09
405.12	3227.60
405.34	3237.84
405.55	3395.53
405.76	3274.70
405.97	3178.45
406.19	3491.79
406.40	3170.26
406.61	3389.39
406.82	3370.96
407.03	3407.82
407.25	3256.27
407.46	3389.39
407.67	3479.50
407.88	3522.51
408.09	3327.95
408.31	3422.16
408.52	3469.26
408.73	3393.48
408.94	3407.82
409.15	3528.65
409.37	3536.84
409.58	3547.08
409.79	3465.16
410.00	3594.19
410.21	3442.64
410.43	3538.89
410.64	3520.46
410.85	3446.73
411.06	3585.99
411.27	3704.78
411.48	3516.36
411.70	3585.99
411.91	3680.20
412.12	3622.86
412.33	3678.15
412.54	3518.41
412.76	3698.63
412.97	3715.02
413.18	3540.94
413.39	3598.28
413.60	3719.11
413.81	3674.06
414.03	3665.86
414.24	3598.28
414.45	3803.08
414.66	3600.33
414.87	3727.30
415.08	3833.80
415.30	3768.26
415.51	3751.88
415.72	3911.62
415.93	3778.50
416.14	3747.78
416.35	3866.56
416.56	3833.80
416.78	3782.60
416.99	3901.38
417.20	3825.61
417.41	3944.39
417.62	4044.74
417.83	4050.88
418.04	3917.76
418.26	3864.52
418.47	3889.09
418.68	3991.49
418.89	3934.15
419.10	4165.57
419.31	4048.83
419.52	4071.36
419.73	4108.23
419.95	4081.60
420.16	4034.50
420.37	4054.98
420.58	4147.14
420.79	3946.44
421.00	4081.60
421.21	4173.76
421.42	4130.75
421.63	4231.10
421.85	4159.42
422.06	4300.73
422.27	4274.11
422.48	4181.95
422.69	4177.86
422.90	4210.62
423.11	4173.76
423.32	4345.79
423.53	4433.85
423.75	4360.13
423.96	4569.02
424.17	4544.44
424.38	4710.33
424.59	4378.56
424.80	4595.64
425.01	4507.58
425.22	4497.34
425.43	4501.44
425.64	4675.51
425.85	4655.03
426.06	4773.82
426.28	4603.83
426.49	4579.26
426.70	4585.40
426.91	4558.78
427.12	4734.90
427.33	4741.05
427.54	4755.38
427.75	4698.04
427.96	4976.56
428.17	4706.23
428.38	4992.95
428.59	4892.60
428.80	4763.58
429.01	4865.97
429.23	4771.77
429.44	5038.00
429.65	4859.83
429.86	5121.97
430.07	4894.65
430.28	4921.27
430.49	4960.18
430.70	5130.16
430.91	5175.22
431.12	4992.95
431.33	5124.02
431.54	5322.67
431.75	5279.66
431.96	5275.57
432.17	5183.41
432.38	5205.94
432.59	5603.24
432.80	5199.79
433.01	5406.64
433.22	5218.22
433.43	5328.81
433.64	5261.23
433.85	5351.34
434.06	5353.39
434.27	5287.86
434.49	5525.42
434.70	5552.04
434.91	5570.48
435.12	5504.94
435.33	5631.91
435.54	5523.37
435.75	5433.26
435.96	5447.60
436.17	5533.61
436.38	5701.54
436.59	5613.48
436.80	5703.59
437.01	5889.96
437.22	5844.90
437.43	5836.71
437.64	5435.31
437.85	5681.07
438.06	5812.14
438.27	5550.00
438.48	5781.42
438.69	5939.11
438.90	5892.01
439.11	5758.89
439.32	5998.50
439.53	5853.09
439.74	5916.58
439.95	6090.66
440.16	5889.96
440.37	5789.61
440.57	5861.29
440.78	6064.04
440.99	6098.85
441.20	5898.15
441.41	6043.56
441.62	6225.82
441.83	5961.64
442.04	6225.82
442.25	6135.71
442.46	6100.90
442.67	6090.66
442.88	6664.09
443.09	6008.74
443.30	6008.74
443.51	6379.42
443.72	6596.51
443.93	6287.26
444.14	6533.02
444.35	6057.89
444.56	6205.35
444.77	6401.95
444.98	6326.18
445.19	6559.64
445.40	6512.54
445.61	6408.09
445.81	6514.59
446.02	6545.31
446.23	6524.83
446.44	6471.58
446.65	6602.65
446.86	6670.23
447.07	6619.04
447.28	6680.47
447.49	6668.19
447.70	6549.40
447.91	6731.67
448.12	6664.09
448.33	6950.81
448.54	6938.52
448.74	6668.19
448.95	6838.17
449.16	6848.41
449.37	7147.41
449.58	6819.74
449.79	7188.37
450.00	6883.22
450.21	7090.07
450.42	7137.17
450.63	7067.54
450.84	6965.14
451.05	7139.22
451.25	7188.37
451.46	6938.52
451.67	7169.94
451.88	7335.82
452.09	7229.33
452.30	7208.85
452.51	7233.43
452.72	7397.26
452.93	7663.50
453.13	7229.33
453.34	7182.23
453.55	7612.30
453.76	7403.41
453.97	7731.08
454.18	7520.14
454.39	7710.60
454.60	7466.89
454.81	7638.92
455.01	7655.31
455.22	7307.15
455.43	7597.96
455.64	7966.60
455.85	7858.06
456.06	8017.80
456.27	7806.86
456.48	7806.86
456.68	7911.30
456.89	7987.08
457.10	8132.48
457.31	8097.67
457.52	7987.08
457.73	8064.90
457.94	8404.86
458.14	8054.66
458.35	8626.04
458.56	8302.47
458.77	8249.22
458.98	8435.58
459.19	8544.13
459.39	8441.73
459.60	8521.60
459.81	8460.16
460.02	8640.38
460.23	8574.85
460.44	8871.80
460.65	8884.09
460.85	8931.19
461.06	8945.53
461.27	8679.29
461.48	9189.24
461.69	8998.77
461.89	8767.35
462.10	8910.71
462.31	8734.59
462.52	8882.04
462.73	9023.35
462.94	9402.22
463.14	9166.71
463.35	9346.93
463.56	9557.87
463.77	9478.00
463.98	9265.01
464.18	9293.68
464.39	9463.66
464.60	9867.11
464.81	9596.78
465.02	9723.76
465.23	9858.92
465.43	9682.80
465.64	9850.73
465.85	9916.26
466.06	9906.02
466.27	10245.99
466.47	10076.01
466.68	10182.50
466.89	10170.21
467.10	10305.38
467.30	10241.89
467.51	10284.90
467.72	10499.94
467.93	10145.64
468.14	10520.42
468.34	10493.79
468.55	10637.15
468.76	10659.68
468.97	10450.78
469.17	10940.25
469.38	10895.19
469.59	10962.78
469.80	10882.91
470.01	10936.15
470.21	10958.68
470.42	11126.61
470.63	11292.50
470.84	11118.42
471.04	11335.51
471.25	11528.02
471.46	11493.20
471.67	11409.23
471.87	11685.71
472.08	11720.53
472.29	11824.97
472.50	11415.38
472.70	11571.02
472.91	11695.95
473.12	12097.35
473.33	12224.33
473.53	12261.19
473.74	12074.82
473.95	12281.67
474.16	12779.32
474.36	12549.95
474.57	12697.41
474.78	12633.92
474.99	12734.27
475.19	12607.30
475.40	13205.30
475.61	13059.90
475.81	13360.95
476.02	13371.19
476.23	13180.73
476.44	13164.34
476.64	13750.06
476.85	13612.85
477.06	13467.44
477.27	13922.09
477.47	13987.63
477.68	13965.10
477.89	14124.84
478.09	14016.30
478.30	13987.63
478.51	14018.35
478.71	14294.82
478.92	14341.93
479.13	14642.98
479.34	14778.14
479.54	14524.19
479.75	14690.08
479.96	14554.91
480.16	14810.91
480.37	14880.54
480.58	15077.15
480.78	15216.41
480.99	15566.61
481.20	15374.10
481.41	15570.71
481.61	15716.11
481.82	15843.09
482.03	15470.36
482.23	15744.78
482.44	16049.93
482.65	16123.66
482.85	16410.37
483.06	16029.45
483.27	16062.22
483.47	16434.95
483.68	16529.16
483.89	16736.00
484.09	16576.26
484.30	16566.02
484.51	16916.22
484.71	17065.72
484.92	17086.20
485.13	17340.15
485.33	17170.17
485.54	16971.52
485.75	17628.92
485.95	17618.68
486.16	17571.57
486.37	17876.72
486.57	17624.82
486.78	17942.25
486.98	17862.38
487.19	17942.25
487.40	18102.00
487.60	18372.33
487.81	18405.10
488.02	18253.55
488.22	18538.21
488.43	18786.02
488.64	18716.39
488.84	18990.81
489.05	19050.21
489.25	18861.79
489.46	19136.22
489.67	18915.04
489.87	19328.73
490.08	19506.90
490.29	19449.56
490.49	19951.31
490.70	19703.51
490.90	19693.27
491.11	19754.71
491.32	19955.41
491.52	19893.97
491.73	20016.85
491.94	20068.05
492.14	20043.47
492.35	20698.82
492.55	20700.87
492.76	20399.82
492.97	20743.88
493.17	20670.15
493.38	20633.29
493.58	21087.93
493.79	20739.78
494.00	21204.67
494.20	21354.17
494.41	21001.92
494.61	21417.66
494.82	21442.23
495.02	21300.92
495.23	21761.72
495.44	21573.30
495.64	21909.17
495.85	22216.36
496.05	22048.43
496.26	21884.59
496.47	22261.42
496.67	21937.84
496.88	22443.69
497.08	22208.17
497.29	22578.86
497.49	22183.60
497.70	22621.86
497.91	22838.95
498.11	22709.93
498.32	22965.92
498.52	22662.82
498.73	23039.65
498.93	23000.74
499.14	23287.45
499.34	23019.17
499.55	23158.43
499.76	23156.38
499.96	23230.11
500.17	23424.67
500.37	23774.87
500.58	23496.35
500.78	23912.08
500.99	23805.59
501.19	24112.78
501.40	23850.64
501.60	23811.73
501.81	24057.49
502.02	24090.26
502.22	23924.37
502.43	24112.78
502.63	24467.08
502.84	24295.05
503.04	24307.34
503.25	24536.71
503.45	24487.56
503.66	24815.24
503.86	24428.17
504.07	25032.32
504.27	24624.78
504.48	25282.17
504.68	24911.49
504.89	25339.52
505.09	24903.30
505.30	25286.27
505.50	25288.32
505.71	25331.33
505.91	25058.95
506.12	25341.57
506.32	25517.69
506.53	25302.65
506.73	25601.66
506.94	25562.75
507.14	25661.05
507.35	25607.80
507.55	26054.26
507.76	25841.27
507.96	25726.58
508.17	25849.46
508.37	25923.19
508.58	25943.67
508.78	26168.94
508.99	26445.42
509.19	26173.04
509.40	26467.95
509.60	26429.04
509.81	26379.89
510.01	26314.35
510.22	26558.06
510.42	26529.39
510.63	26535.53
510.83	26855.01
511.04	26218.10
511.24	26879.59
511.44	26766.95
511.65	26861.16
511.85	26902.12
512.06	27043.43
512.26	27074.15
512.47	27065.96
512.67	27262.56
512.88	27000.42
513.08	26996.32
513.29	27471.45
513.49	27410.01
513.69	27389.53
513.90	27305.57
514.10	27389.53
514.31	27489.88
514.51	28098.13
514.72	27471.45
514.92	27459.16
515.13	27526.75
515.33	27895.38
515.53	27895.38
515.74	28112.47
515.94	27967.06
516.15	28149.33
516.35	27893.33
516.56	28087.89
516.76	28200.53
516.96	28329.55
517.17	28229.20
517.37	28448.33
517.58	28409.42
517.78	28550.73
517.99	28401.23
518.19	28827.21
518.39	28702.28
518.60	29029.96
518.80	28884.55
519.01	28950.09
519.21	28778.06
519.41	29167.17
519.62	28964.42
519.82	29070.92
520.03	29322.82
520.23	29355.58
520.43	29167.17
520.64	29812.28
520.84	29574.72
521.05	29713.98
521.25	29871.67
521.45	29818.42
521.66	30154.29
521.86	29765.18
522.07	29906.49
522.27	29789.75
522.47	29877.82
522.68	30623.28
522.88	30262.83
523.08	30518.83
523.29	30336.56
523.49	30860.84
523.70	30490.16
523.90	30899.75
524.10	30506.54
524.31	30838.31
524.51	30504.49
524.71	31254.05
524.92	30979.62
525.12	31327.78
525.33	31055.40
525.53	31204.90
525.73	31739.42
525.94	31680.03
526.14	31364.64
526.34	31417.89
526.55	31473.18
526.75	31829.53
526.95	32273.94
527.16	32046.62
527.36	32007.70
527.56	32103.96
527.77	32439.82
527.97	32349.71
528.17	32468.50
528.38	32579.09
528.58	32615.95
528.78	32511.50
528.99	32697.87
529.19	33007.11
529.39	32646.67
529.60	33209.86
529.80	32675.34
530.00	33142.28
530.21	33283.59
530.41	33512.96
530.61	33533.44
530.82	33465.86
531.02	33771.00
531.22	33533.44
531.43	33775.10
531.63	33879.55
531.83	34186.74
532.04	34442.74
532.24	34145.78
532.44	34366.96
532.64	34520.56
532.85	34334.20
533.05	34821.61
533.25	34756.08
533.46	34498.03
533.66	35190.25
533.86	35229.16
534.07	35458.53
534.27	35327.46
534.47	35495.39
534.67	35659.23
534.88	35409.38
535.08	35591.65
535.28	35542.50
535.49	36103.64
535.69	36210.14
535.89	36054.49
536.09	35933.66
536.30	36165.08
536.50	36589.01
536.70	36345.30
536.91	36312.53
537.11	36412.88
537.31	36312.53
537.51	36462.04
537.72	37436.87
537.92	37129.67
538.12	37193.16
538.32	37017.04
538.53	37187.02
538.73	37176.78
538.93	37199.30
539.13	37242.31
539.34	37113.29
539.54	37223.88
539.74	37871.04
539.94	37539.27
540.15	37221.83
540.35	37608.90
540.55	38102.46
540.75	37871.04
540.96	37969.34
541.16	38024.64
541.36	38131.13
541.56	38671.79
541.77	38819.25
541.97	38335.93
542.17	38387.13
542.37	38835.63
542.58	38720.95
542.78	38522.29
542.98	38516.15
543.18	38950.32
543.38	39337.38
543.59	38913.45
543.79	38927.79
543.99	38735.28
544.19	39200.17
544.40	39065.00
544.60	39687.59
544.80	39589.28
545.00	39542.18
545.20	39552.42
545.41	39675.30
545.61	39533.99
545.81	39716.26
546.01	40064.41
546.21	40043.93
546.42	39630.24
546.62	39818.66
546.82	40025.50
547.02	39869.86
547.22	40295.83
547.43	39906.72
547.63	40048.03
547.83	39992.73
548.03	40033.69
548.23	40674.71
548.44	40093.08
548.64	40426.90
548.84	40275.35
549.04	40420.76
549.24	40469.91
549.45	40932.75
549.65	40562.07
549.85	40701.33
550.05	40871.31
550.25	40953.23
550.45	41409.93
550.66	41418.12
550.86	40338.84
551.06	41555.33
551.26	41239.95
551.46	41287.05
551.66	41244.04
551.87	41213.32
552.07	41514.37
552.27	41170.32
552.47	41536.90
552.67	41457.03
552.87	41248.14
553.07	41817.47
553.28	41682.31
553.48	41880.96
553.68	41790.85
553.88	41833.86
554.08	41805.19
554.28	41758.08
554.48	41807.23
554.69	41948.54
554.89	41690.50
555.09	41643.40
555.29	41831.81
555.49	42052.99
555.69	41907.58
555.89	41954.69
556.10	42466.68
556.30	41883.01
556.50	42231.16
556.70	42132.86
556.90	42296.70
557.10	42319.23
557.30	42231.16
557.50	42245.50
557.70	42610.04
557.91	42571.13
558.11	43042.16
558.31	42661.24
558.51	42597.75
558.71	42276.22
558.91	42906.99
559.11	42567.03
559.31	42833.27
559.51	42759.54
559.72	42872.18
559.92	42964.34
560.12	42681.72
560.32	42827.12
560.52	42724.72
560.72	43126.13
560.92	43222.38
561.12	43025.78
561.32	43238.76
561.52	43095.41
561.72	43236.72
561.93	42931.57
562.13	43451.75
562.33	43320.68
562.53	43890.02
562.73	43249.00
562.93	43646.31
563.13	43531.62
563.33	43472.23
563.53	43711.84
563.73	43144.56
563.93	43701.61
564.13	43922.79
564.33	43556.20
564.53	43629.93
564.74	43963.75
564.94	43382.12
565.14	44121.44
565.34	43566.44
565.54	43973.98
565.74	43851.11
565.94	44053.86
566.14	44029.28
566.34	43773.28
566.54	44170.59
566.74	44023.14
566.94	44152.16
567.14	44557.66
567.34	44432.73
567.54	44815.70
567.74	44438.87
567.94	44359.00
568.14	44356.96
568.34	44672.34
568.54	44488.03
568.74	44340.57
568.94	44467.55
569.14	44959.06
569.34	44539.22
569.54	44508.50
569.75	44336.48
569.95	44723.54
570.15	44942.67
570.35	45163.85
570.55	44924.24
570.75	45292.88
570.95	45065.55
571.15	45352.27
571.35	44932.43
571.55	45061.46
571.75	44873.04
571.95	45405.52
572.15	45036.88
572.35	45487.43
572.55	45684.04
572.75	45419.85
572.95	45126.99
573.15	45313.36
573.35	45679.94
573.55	45311.31
573.75	45962.56
573.95	45831.49
574.15	45903.17
574.35	45806.92
574.55	45798.73
574.75	45626.70
574.95	45899.08
575.15	45929.80
575.34	46077.25
575.54	46523.71
575.74	46791.99
575.94	46409.02
576.14	46421.31
576.34	46726.46
576.54	46386.49
576.74	46372.16
576.94	46292.29
577.14	46875.96
577.34	46710.07
577.54	46562.62
577.74	46863.67
577.94	46734.65
578.14	46755.13
578.34	46769.46
578.54	46523.71
578.74	46773.56
578.94	47346.99
579.14	47310.13
579.34	47017.27
579.54	47088.95
579.74	47447.34
579.94	47430.96
580.13	47467.82
580.33	47643.94
580.53	47777.06
580.73	47746.34
580.93	47467.82
581.13	47871.27
581.33	47838.50
581.53	47877.41
581.73	47945.00
581.93	48225.57
582.13	48168.22
582.33	48319.77
582.53	48198.94
582.73	48135.46
582.92	48278.82
583.12	48885.01
583.32	48319.77
583.52	47994.15
583.72	48272.67
583.92	48569.63
584.12	48704.79
584.32	49220.88
584.52	48608.54
584.72	48872.73
584.92	48692.50
585.11	49173.78
585.31	48932.12
585.51	48862.49
585.71	48854.29
585.91	49386.77
586.11	49235.22
586.31	48936.21
586.51	49401.10
586.71	49538.32
586.91	49562.89
587.10	49566.99
587.30	49618.19
587.50	49450.25
587.70	49771.78
587.90	49863.94
588.10	49366.29
588.30	49734.92
588.50	49718.54
588.69	49972.49
588.89	50160.90
589.09	50259.20
589.29	50101.51
589.49	50218.24
589.69	49923.33
589.89	50377.98
590.08	49935.62
590.28	50330.88
590.48	50113.80
590.68	50042.12
590.88	50349.31
591.08	50517.25
591.28	50218.24
591.47	50715.90
591.67	50441.47
591.87	50619.64
592.07	50531.58
592.27	50394.37
592.47	50568.44
592.67	50955.51
592.86	50693.37
593.06	50949.37
593.26	50961.65
593.46	50752.76
593.66	50975.99
593.86	51107.06
594.05	51270.90
594.25	51485.93
594.45	51094.77
594.65	51217.65
594.85	50951.41
595.05	50963.70
595.24	51469.55
595.44	51399.92
595.64	51121.40
595.84	51477.74
596.04	51561.71
596.23	51789.03
596.43	51862.76
596.63	51580.14
596.83	51541.23
597.03	51700.97
597.22	52333.79
597.42	51522.80
597.62	51748.07
597.82	51985.64
598.02	52110.56
598.21	51946.73
598.41	51764.46
598.61	51811.56
598.81	52032.74
599.01	52411.62
599.20	52145.38
599.40	51895.53
599.60	52258.02
599.80	52245.73
600.00	52542.69
600.19	52696.28
600.39	52190.44
600.59	52530.40
600.79	52663.52
600.98	52313.31
601.18	52847.83
601.38	52778.20
601.58	52587.74
601.78	52858.07
601.97	52954.33
602.17	53163.22
602.37	52829.40
602.57	53204.18
602.76	53650.64
602.96	52565.21
603.16	53394.64
603.36	53071.06
603.55	53228.76
603.75	53288.15
603.95	53325.01
604.15	53413.07
604.34	53480.66
604.54	53497.04
604.74	53451.98
604.94	53570.77
605.13	53236.95
605.33	53654.73
605.53	53251.28
605.73	53990.60
605.92	53691.60
606.12	53638.35
606.32	53851.34
606.52	53703.88
606.71	53957.83
606.91	53869.77
607.11	53753.04
607.30	53630.16
607.50	54015.18
607.70	54572.22
607.90	54375.62
608.09	53687.50
608.29	54131.91
608.49	54365.38
608.68	53933.26
608.88	54392.00
609.08	54420.67
609.28	54269.12
609.47	54273.22
609.67	54305.99
609.87	54637.76
610.06	54193.35
610.26	54226.12
610.46	54881.47
610.66	53787.85
610.85	54441.15
611.05	54052.04
611.25	54578.37
611.44	54365.38
611.64	54850.75
611.84	54314.18
612.03	54355.14
612.23	54449.35
612.43	54682.81
612.62	54512.83
612.82	55088.31
613.02	54766.78
613.21	54793.40
613.41	54473.92
613.61	54686.91
613.80	54174.92
614.00	54975.67
614.20	54564.03
614.39	54779.07
614.59	54811.84
614.79	54752.44
614.98	54912.19
615.18	54574.27
615.38	54637.76
615.57	54527.17
615.77	55231.67
615.97	55162.04
616.16	54492.35
616.36	55162.04
616.56	54715.58
616.75	54944.95
616.95	54363.33
617.15	55088.31
617.34	54588.61
617.54	54871.23
617.74	55278.77
617.93	54826.17
618.13	54486.21
618.32	55180.47
618.52	54957.24
618.72	54494.40
618.91	55035.06
619.11	54426.82
619.31	54871.23
619.50	54756.54
619.70	54592.70
619.90	54768.83
620.09	55147.70
620.29	54899.90
620.48	55153.85
620.68	55207.09
620.88	54547.65
621.07	54402.24
621.27	55229.62
621.46	54437.06
621.66	54779.07
621.86	54367.43
622.05	54222.02
622.25	54975.67
622.44	54891.71
622.64	54471.87
622.84	55131.32
623.03	54826.17
623.23	54695.10
623.42	54744.25
623.62	54566.08
623.82	54832.32
624.01	54457.54
624.21	54910.14
624.40	54967.48
624.60	54908.09
624.80	54600.89
624.99	54740.16
625.19	54451.39
625.38	54975.67
625.58	54744.25
625.77	54934.71
625.97	54871.23
626.17	54668.48
626.36	54469.82
626.56	55076.02
626.75	54064.33
626.95	55030.97
627.14	54699.20
627.34	55211.19
627.54	54779.07
627.73	54639.81
627.93	54965.43
628.12	54570.18
628.32	54559.94
628.51	54658.24
628.71	54764.73
628.90	54572.22
629.10	54707.39
629.30	54674.62
629.49	55121.08
629.69	54797.50
629.88	54678.72
630.08	55090.36
630.27	55305.40
630.47	54600.89
630.66	54613.18
630.86	55051.45
631.05	54674.62
631.25	55168.18
631.44	55162.04
631.64	54652.09
631.84	54797.50
632.03	55762.09
632.23	55004.34
632.42	55387.31
632.62	55223.48
632.81	54602.94
633.01	55139.51
633.20	55411.89
633.40	55684.27
633.59	55477.43
633.79	55194.81
633.98	55391.41
634.18	55436.47
634.37	55309.49
634.57	55526.58
634.76	55442.61
634.96	55002.30
635.15	55325.88
635.35	55381.17
635.54	55344.31
635.74	55696.56
635.93	55203.00
636.13	55866.54
636.32	55555.25
636.52	55073.98
636.71	55489.71
636.91	55557.30
637.10	55592.11
637.30	55461.04
637.49	55467.19
637.69	55235.77
637.88	55762.09
638.08	55657.65
638.27	55731.37
638.46	55428.27
638.66	55518.38
638.85	55514.29
639.05	55549.10
639.24	55534.77
639.44	55680.17
639.63	55698.61
639.83	55684.27
640.02	55669.93
640.22	55833.77
640.41	55901.36
640.61	55530.67
640.80	56155.30
640.99	55559.34
641.19	56712.35
641.38	55778.48
641.58	55968.94
641.77	56038.57
641.97	55508.14
642.16	56169.64
642.36	55817.39
642.55	56237.22
642.74	55977.13
642.94	56499.36
643.13	55776.43
643.33	56442.02
643.52	56435.87
643.72	56364.20
643.91	56237.22
644.10	56382.63
644.30	56491.17
644.49	55938.22
644.69	56800.41
644.88	56360.10
645.08	56317.09
645.27	56521.89
645.46	56206.50
645.66	56661.15
645.85	56077.48
646.05	56276.13
646.24	56390.82
646.43	56525.99
646.63	56773.79
646.82	56915.10
647.02	56849.56
647.21	56892.57
647.40	56292.52
647.60	56759.45
647.79	56849.56
647.99	57123.99
648.18	56466.59
648.37	56824.99
648.57	56988.83
648.76	56861.85
648.96	56489.12
649.15	57253.01
649.34	56679.58
649.54	57177.24
649.73	56681.63
649.92	57029.79
650.12	57138.33
650.31	57300.12
650.51	56962.20
650.70	57543.83
650.89	56681.63
651.09	57443.48
651.28	57101.46
651.47	57275.54
651.67	57021.59
651.86	57308.31
652.06	56509.60
652.25	56779.93
652.44	57113.75
652.64	57351.32
652.83	56677.54
653.02	56923.29
653.22	57341.08
653.41	57250.97
653.60	57101.46
653.80	56818.84
653.99	57652.37
654.18	57177.24
654.38	57259.16
654.57	57349.27
654.76	57601.17
654.96	57205.91
655.15	56671.39
655.34	57423.00
655.54	56931.48
655.73	57267.35
655.92	57105.56
656.12	57040.03
656.31	57128.09
656.50	57556.11
656.70	57431.19
656.89	57619.60
657.08	57519.25
657.28	57918.60
657.47	57511.06
657.66	57543.83
657.86	57246.87
658.05	57627.79
658.24	57472.15
658.43	57275.54
658.63	57463.96
658.82	57590.93
659.01	57406.61
659.21	57353.36
659.40	57345.17
659.59	57101.46
659.79	57578.64
659.98	57916.56
660.17	57941.13
660.36	57611.41
660.56	57627.79
660.75	57851.02
660.94	57570.45
661.14	57259.16
661.33	57451.67
661.52	57320.60
661.71	57642.13
661.91	56937.63
662.10	57103.51
662.29	57660.56
662.49	57746.57
662.68	57592.98
662.87	57668.75
663.06	57425.04
663.26	57306.26
663.45	57799.82
663.64	57326.74
663.83	57240.73
664.03	58107.02
664.22	57232.53
664.41	57588.88
664.60	56966.30
664.80	57568.40
664.99	57152.66
665.18	57197.72
665.37	57672.85
665.57	57509.01
665.76	57332.89
665.95	57382.04
666.14	57539.73
666.34	57320.60
666.53	57476.24
666.72	57316.50
666.91	57076.89
667.11	57189.53
667.30	57341.08
667.49	57423.00
667.68	57308.31
667.87	57453.72
668.07	57078.94
668.26	57017.50
668.45	57668.75
668.64	57195.67
668.84	57545.87
669.03	57384.08
669.22	57586.83
669.41	57433.24
669.60	57169.05
669.80	57119.90
669.99	57681.04
670.18	56894.62
670.37	57244.82
670.57	57328.79
670.76	56923.29
670.95	57406.61
671.14	57222.29
671.33	56911.00
671.53	57320.60
671.72	56874.14
671.91	57253.01
672.10	56978.59
672.29	56898.72
672.48	56878.24
672.68	57742.48
672.87	56824.99
673.06	56962.20
673.25	56607.90
673.44	56827.04
673.64	56904.86
673.83	56788.13
674.02	56904.86
674.21	56464.55
674.40	56579.23
674.59	56849.56
674.79	56726.69
674.98	56614.05
675.17	56865.95
675.36	56646.82
675.55	56818.84
675.74	56458.40
675.94	56564.90
676.13	56757.41
676.32	56691.87
676.51	57205.91
676.70	57021.59
676.89	57042.07
677.08	56845.47
677.28	56405.16
677.47	56896.67
677.66	57310.36
677.85	56546.47
678.04	57259.16
678.23	56661.15
678.42	57140.38
678.62	56835.23
678.81	56868.00
679.00	56585.38
679.19	57025.69
679.38	57130.14
679.57	57117.85
679.76	56718.49
679.96	56929.44
680.15	56577.18
680.34	56640.67
680.53	56468.64
680.72	56546.47
680.91	56595.62
681.10	56403.11
681.29	56460.45
681.48	55968.94
681.68	55936.17
681.87	56325.28
682.06	56444.07
682.25	55989.42
682.44	55995.56
682.63	56704.16
682.82	56269.99
683.01	56241.32
683.20	55731.37
683.39	56237.22
683.59	56063.14
683.78	55547.06
683.97	55604.40
684.16	56120.49
684.35	55639.22
684.54	55923.88
684.73	55764.14
684.92	55633.07
685.11	55452.85
685.30	55698.61
685.49	56046.76
685.69	55794.86
685.88	55882.92
686.07	55745.71
686.26	56013.99
686.45	55794.86
686.64	56362.15
686.83	55610.54
687.02	55581.87
687.21	55743.66
687.40	55833.77
687.59	55735.47
687.78	55651.50
687.97	55768.24
688.16	55516.34
688.35	55592.11
688.54	55493.81
688.74	55436.47
688.93	55547.06
689.12	55362.74
689.31	55409.84
689.50	55319.73
689.69	54938.81
689.88	54678.72
690.07	55364.79
690.26	55059.64
690.45	55647.41
690.64	55370.93
690.83	55491.76
691.02	54680.77
691.21	55186.61
691.40	55446.71
691.59	54961.34
691.78	55002.30
691.97	55059.64
692.16	54584.51
692.35	55155.89
692.54	54834.36
692.73	55393.46
692.92	54715.58
693.11	54836.41
693.30	54990.01
693.49	55282.87
693.68	55043.26
693.87	54822.08
694.06	54602.94
694.25	54389.95
694.44	54174.92
694.63	54564.03
694.82	54772.92
695.01	54940.86
695.20	54351.04
695.39	54762.68
695.58	54774.97
695.77	54539.46
695.96	54289.60
696.15	55024.82
696.34	54523.07
696.53	54514.88
696.72	54721.72
696.91	54410.43
697.10	54770.88
697.29	54410.43
697.48	54506.69
697.67	54115.53
697.86	54146.25
698.05	54389.95
698.24	54465.73
698.43	53746.89
698.62	54277.32
698.81	54099.14
699.00	54498.50
699.19	53423.31
699.38	54445.25
699.57	53884.11
699.76	54574.27
699.95	53929.16
700.14	53882.06
700.32	54119.62
700.51	54099.14
700.70	54514.88
700.89	54275.27
701.08	54101.19
701.27	54064.33
701.46	54293.70
701.65	53494.99
701.84	53849.29
702.03	53650.64
702.22	53603.53
702.41	53820.62
702.60	53587.15
702.79	53855.43
702.98	53232.85
703.17	53505.23
703.35	53611.73
703.54	53726.41
703.73	53810.38
703.92	53402.83
704.11	53873.87
704.30	53343.44
704.49	53359.83
704.68	53419.22
704.87	53384.40
705.06	53454.03
705.25	53265.62
705.43	52921.56
705.62	53566.67
705.81	53337.30
706.00	53445.84
706.19	52935.90
706.38	53116.12
706.57	53437.65
706.76	53277.91
706.95	53179.60
707.14	53118.17
707.32	53026.01
707.51	52456.67
707.70	52835.55
707.89	53255.38
708.08	52997.34
708.27	53451.98
708.46	53523.66
708.65	52706.52
708.84	53069.01
709.02	53191.89
709.21	52993.24
709.40	52915.42
709.59	52962.52
709.78	52866.27
709.97	53134.55
710.16	52858.07
710.34	53056.73
710.53	52968.66
710.72	52368.61
710.91	52595.93
711.10	52708.57
711.29	52608.22
711.48	52608.22
711.66	52743.39
711.85	52647.13
712.04	52917.46
712.23	52702.43
712.42	52464.86
712.61	52331.75
712.80	52747.48
712.98	52610.27
713.17	52085.99
713.36	52317.41
713.55	52286.69
713.74	52647.13
713.93	52133.09
714.11	52344.03
714.30	51928.30
714.49	51967.21
714.68	52333.79
714.87	52163.81
715.06	52712.67
715.24	52282.59
715.43	52157.67
715.62	51791.08
715.81	51911.91
716.00	52229.35
716.18	51733.74
716.37	51819.75
716.56	51627.24
716.75	52415.71
716.94	51975.40
717.12	51660.01
717.31	51885.29
717.50	51676.40
717.69	51553.52
717.88	52153.57
718.06	51399.92
718.25	52202.72
718.44	51361.01
718.63	51571.95
718.82	51574.00
719.00	51133.68
719.19	51309.81
719.38	51748.07
719.57	50879.74
719.76	50758.91
719.94	51223.79
720.13	50736.38
720.32	51143.92
720.51	51260.66
720.69	50922.74
720.88	51133.68
721.07	51031.29
721.26	50443.52
721.44	50631.93
721.63	50717.95
721.82	50531.58
722.01	50629.88
722.20	50572.54
722.38	50709.75
722.57	50197.76
722.76	50222.34
722.95	50052.36
723.13	50160.90
723.32	49949.96
723.51	49808.65
723.70	50072.84
723.88	49747.21
724.07	50095.36
724.26	50025.73
724.44	49845.51
724.63	49769.74
724.82	49839.37
725.01	49603.85
725.19	49640.71
725.38	49614.09
725.57	49452.30
725.76	49519.88
725.94	49470.73
726.13	49265.94
726.32	49556.75
726.51	49423.63
726.69	49882.37
726.88	49728.78
727.07	49657.10
727.25	49452.30
727.44	49206.55
727.63	49605.90
727.82	49366.29
728.00	49257.74
728.19	49632.52
728.38	49509.64
728.56	49147.15
728.75	49390.86
728.94	49179.92
729.12	49491.21
729.31	49657.10
729.50	49489.16
729.69	49327.38
729.87	49399.05
730.06	49616.14
730.25	49499.40
730.43	49554.70
730.62	49018.13
730.81	49450.25
730.99	49339.66
731.18	48899.35
731.37	49624.33
731.55	49315.09
731.74	49677.58
731.93	49317.14
732.11	49145.11
732.30	49073.43
732.49	48989.46
732.67	49108.24
732.86	49251.60
733.05	49227.02
733.23	49011.99
733.42	49069.33
733.61	48504.09
733.79	49278.22
733.98	49517.84
734.17	49169.68
734.35	49302.80
734.54	49122.58
734.73	49304.85
734.91	48993.56
735.10	49343.76
735.29	49390.86
735.47	48569.63
735.66	48512.28
735.84	49130.77
736.03	48954.64
736.22	49405.20
736.40	48983.32
736.59	48956.69
736.78	48985.36
736.96	48780.57
737.15	48968.98
737.33	48776.47
737.52	48422.17
737.71	48592.15
737.89	48616.73
738.08	48790.81
738.27	48360.73
738.45	48827.67
738.64	48545.05
738.82	48203.04
739.01	48626.97
739.20	48282.91
739.38	48809.24
739.57	49202.45
739.75	48899.35
739.94	47906.08
740.13	48370.97
740.31	48299.30
740.50	48078.11
740.68	48366.88
740.87	48305.44
741.06	48354.59
741.24	47875.37
741.43	48061.73
741.61	48461.08
741.80	47510.83
741.99	47799.59
742.17	48143.65
742.36	47662.38
742.54	47775.02
742.73	47877.41
742.91	48192.80
743.10	47711.53
743.29	47965.48
743.47	48373.02
743.66	47709.48
743.84	48086.31
744.03	47826.21
744.21	47795.49
744.40	48194.85
744.59	47482.16
744.77	47600.94
744.96	47387.95
745.14	47887.65
745.33	47506.73
745.51	47185.20
745.70	47631.66
745.88	47527.21
746.07	47580.46
746.26	47076.66
746.44	47537.45
746.63	46884.15
746.81	47594.79
747.00	47029.55
747.18	47269.17
747.37	47060.27
747.55	46847.29
747.74	47412.52
747.92	46679.35
748.11	47111.47
748.29	47115.57
748.48	46982.45
748.66	46587.19
748.85	46826.81
749.03	46677.30
749.22	47101.23
749.41	46613.82
749.59	46912.82
749.78	46517.56
749.96	46445.88
750.15	46667.06
750.33	46689.59
750.52	46191.94
750.70	46507.32
750.89	45929.80
751.07	46251.33
751.26	46185.79
751.44	46124.35
751.63	45882.69
751.81	45837.64
752.00	45811.01
752.18	45907.27
752.37	45522.25
752.55	45505.87
752.74	45892.93
752.92	45673.80
753.10	45610.31
753.29	46028.10
753.47	45741.38
753.66	45776.20
753.84	45913.41
754.03	45178.19
754.21	45485.39
754.40	45344.08
754.58	45569.35
754.77	45235.53
754.95	44596.57
755.14	45374.80
755.32	45358.41
755.51	44827.99
755.69	44936.53
755.88	45245.77
756.06	44746.07
756.24	45024.59
756.43	44922.19
756.61	44514.65
756.80	44709.21
756.98	44717.40
757.17	44920.15
757.35	44666.20
757.54	44776.79
757.72	45196.62
757.90	44643.67
758.09	44326.24
758.27	44711.25
758.46	44406.11
758.64	44713.30
758.83	44621.14
759.01	44973.39
759.19	44320.09
759.38	44309.85
759.56	44817.75
759.75	44608.86
759.93	44326.24
760.12	43822.44
760.30	44236.12
760.48	44127.58
760.67	44107.10
760.85	44209.50
761.04	44363.10
761.22	43928.93
761.40	43844.96
761.59	43945.31
761.77	43859.30
761.96	43922.79
762.14	43677.03
762.32	43429.23
762.51	43750.76
762.69	43240.81
762.88	43173.23
763.06	43500.90
763.24	44096.86
763.43	43599.21
763.61	43384.17
763.80	43459.94
763.98	43261.29
764.16	43154.80
764.35	43093.36
764.53	42696.05
764.72	43212.14
764.90	42984.82
765.08	42894.71
765.27	43087.21
765.45	42892.66
765.63	42419.58
765.82	42743.16
766.00	42132.86
766.18	42532.22
766.37	42753.40
766.55	42435.96
766.74	42579.32
766.92	42691.96
767.10	42222.97
767.29	42214.78
767.47	41872.77
767.65	42380.67
767.84	42231.16
768.02	42521.98
768.20	41905.54
768.39	42308.99
768.57	42278.27
768.75	41829.76
768.94	42036.61
769.12	41975.17
769.30	41719.17
769.49	41442.70
769.67	41518.47
769.85	41371.02
770.04	41653.64
770.22	41225.61
770.40	41299.34
770.59	41170.32
770.77	41430.41
770.95	41457.03
771.14	41121.16
771.32	41332.11
771.50	41164.17
771.69	40965.52
771.87	41149.84
772.05	40945.04
772.24	40760.72
772.42	40869.26
772.60	40883.60
772.78	40617.36
772.97	40682.90
773.15	41123.21
773.33	40451.48
773.52	40639.89
773.70	40844.69
773.88	41106.83
774.07	40441.24
774.25	41170.32
774.43	40807.83
774.61	40578.45
774.80	40988.05
774.98	40875.41
775.16	40654.23
775.34	40852.88
775.53	40310.17
775.71	40897.94
775.89	40795.54
776.08	40529.30
776.26	40953.23
776.44	40707.47
776.62	40635.80
776.81	40218.01
776.99	40760.72
777.17	40768.91
777.35	40836.50
777.54	40584.60
777.72	40623.51
777.90	40541.59
778.08	41452.94
778.27	40932.75
778.45	41098.64
778.63	41254.28
778.81	40756.63
779.00	41393.54
779.18	40887.70
779.36	41004.43
779.54	41178.51
779.73	40924.56
779.91	41035.15
780.09	41252.23
780.27	40965.52
780.46	40764.82
780.64	41131.40
780.82	41192.84
781.00	41176.46
781.19	41121.16
781.37	41575.81
781.55	41381.26
781.73	41747.84
781.91	41227.66
782.10	41477.51
782.28	41358.73
782.46	41536.90
782.64	41401.74
782.82	40906.13
783.01	41715.08
783.19	41850.24
783.37	41356.68
783.55	41383.30
783.74	41899.39
783.92	41235.85
784.10	42155.39
784.28	41471.37
784.46	41198.99
784.64	41516.42
784.83	41919.87
785.01	41731.46
785.19	41463.18
785.37	41393.54
785.55	41352.58
785.74	41340.30
785.92	41534.85
786.10	41407.88
786.28	41330.06
786.46	41239.95
786.64	41184.65
786.83	41444.74
787.01	41461.13
787.19	41184.65
787.37	41096.59
787.55	41262.47
787.74	40856.98
787.92	41330.06
788.10	40566.16
788.28	40902.03
788.46	41127.31
788.64	40689.04
788.82	41194.89
789.01	40852.88
789.19	40736.15
789.37	40789.39
789.55	40973.71
789.73	40519.06
789.91	40416.66
790.09	40584.60
790.28	40195.48
790.46	39902.62
790.64	40799.63
790.82	40392.09
791.00	40185.24
791.18	39882.14
791.36	40314.26
791.55	40373.66
791.73	39968.16
791.91	39677.35
792.09	40132.00
792.27	39900.58
792.45	40154.52
792.63	39607.72
792.81	39198.12
793.00	39470.50
793.18	39310.76
793.36	39568.80
793.54	39146.92
793.72	39015.85
793.90	38788.53
794.08	39253.42
794.26	39024.04
794.44	38434.23
794.62	38548.92
794.81	38913.45
794.99	39316.90
795.17	38690.23
795.35	38712.75
795.53	38854.06
795.71	38727.09
795.89	38370.74
796.07	38049.21
796.25	38133.18
796.43	37864.89
796.61	37721.54
796.80	37627.33
796.98	38342.07
797.16	37500.36
797.34	37635.52
797.52	37418.44
797.70	38106.55
797.88	37637.57
798.06	37492.16
798.24	37197.26
798.42	37144.01
798.60	37471.68
798.78	37385.67
798.96	37449.16
799.14	36769.23
799.32	37180.87
799.51	37019.08
799.69	37125.58
799.87	36976.08
800.05	36507.09
800.23	36773.33
800.41	36459.99
800.59	36433.36
800.77	36142.55
800.95	36333.01
801.13	36449.75
801.31	36109.78
801.49	36189.66
801.67	35948.00
801.85	36068.83
802.03	35706.34
802.21	35628.51
802.39	35458.53
802.57	35403.24
802.75	35200.49
802.93	35397.09
803.11	35448.29
803.29	35347.94
803.47	35235.30
803.65	35202.53
803.83	35407.33
804.01	34883.05
804.19	34498.03
804.37	34717.17
804.55	34661.87
804.73	34827.76
804.91	34784.75
805.09	34975.21
805.27	34571.76
805.45	34778.61
805.63	34545.14
805.81	34430.45
805.99	34332.15
806.17	34344.44
806.35	34364.92
806.53	34053.62
806.71	34266.61
806.89	34319.86
807.07	33773.05
807.25	34201.08
807.43	33789.44
807.61	34149.88
807.79	33846.78
807.97	33803.77
808.15	33252.87
808.33	33222.15
808.51	33459.71
808.69	33420.80
808.87	33404.42
809.05	33154.57
809.23	33273.35
809.41	33005.06
809.59	32722.44
809.77	33265.16
809.95	33025.54
810.13	32765.45
810.31	32673.29
810.49	33000.97
810.67	32525.84
810.84	32775.69
811.02	32568.85
811.20	32413.20
811.38	32687.63
811.56	32290.32
811.74	32632.33
811.92	32382.48
812.10	32431.63
812.28	32550.42
812.46	32159.25
812.64	32228.88
812.82	32144.92
813.00	32173.59
813.18	32200.21
813.36	32189.97
813.53	31940.12
813.71	31870.49
813.89	31792.67
814.07	31901.21
814.25	31833.63
814.43	31508.00
814.61	31505.95
814.79	31338.02
814.97	31653.40
815.15	31348.26
815.33	31098.41
815.50	30842.41
815.68	31342.11
815.86	31372.83
816.04	31008.29
816.22	30873.13
816.40	31004.20
816.58	30967.34
816.76	30791.21
816.94	30920.23
817.11	30748.20
817.29	30746.15
817.47	30449.20
817.65	30492.21
817.83	30674.48
818.01	30588.46
818.19	30606.89
818.37	30658.09
818.54	30258.74
818.72	30400.05
818.90	30473.78
819.08	30535.21
819.26	30594.61
819.44	30197.30
819.62	30008.89
819.80	30004.79
819.97	29906.49
820.15	30006.84
820.33	29929.02
820.51	29668.92
820.69	29439.55
820.87	29992.50
821.05	29922.87
821.22	29791.80
821.40	29541.95
821.58	29785.66
821.76	29888.06
821.94	29525.57
822.12	29462.08
822.29	29752.89
822.47	29251.14
822.65	29728.31
822.83	29374.02
823.01	29242.95
823.19	29232.71
823.36	28882.50
823.54	28948.04
823.72	29310.53
823.90	29357.63
824.08	29019.72
824.25	29167.17
824.43	28960.33
824.61	29070.92
824.79	28853.83
824.97	28601.93
825.15	28837.45
825.32	28847.69
825.50	28255.82
825.68	28720.71
825.86	28657.23
826.04	28726.86
826.21	28819.02
826.39	28802.63
826.57	28319.31
826.75	28589.64
826.93	28225.11
827.10	28280.40
827.28	28261.97
827.46	28407.37
827.64	28405.33
827.81	28399.18
827.99	28567.12
828.17	28014.16
828.35	27956.82
828.53	27899.48
828.70	28266.06
828.88	27973.21
829.06	28118.61
829.24	27717.21
829.41	27692.63
829.59	27915.86
829.77	27709.02
829.95	27721.30
830.12	27596.38
830.30	27731.54
830.48	27594.33
830.66	27661.91
830.84	27524.70
831.01	27821.66
831.19	27358.81
831.37	27670.11
831.55	27563.61
831.72	27651.67
831.90	27348.57
832.08	27446.88
832.25	27504.22
832.43	27244.13
832.61	27227.74
832.79	27033.19
832.96	27133.54
833.14	27455.07
833.32	27584.09
833.50	27291.23
833.67	27352.67
833.85	27178.59
834.03	27129.44
834.20	27129.44
834.38	27080.29
834.56	27258.46
834.74	26680.94
834.91	26642.03
835.09	26619.50
835.27	26758.76
835.44	26490.48
835.62	26584.68
835.80	26254.96
835.98	26599.02
836.15	26596.97
836.33	26553.96
836.51	26719.85
836.68	26410.60
836.86	26214.00
837.04	26556.01
837.21	26027.63
837.39	26439.28
837.57	26375.79
837.75	26433.13
837.92	25923.19
838.10	26050.16
838.28	25900.66
838.45	26156.66
838.63	25929.33
838.81	26001.01
838.98	26095.22
839.16	25687.67
839.34	25515.64
839.51	25712.25
839.69	25874.04
839.87	25712.25
840.04	25749.11
840.22	26185.33
840.40	25581.18
840.57	25368.19
840.75	25863.80
840.93	25190.02
841.10	25435.77
841.28	25601.66
841.46	25550.46
841.63	25642.62
841.81	25439.87
841.98	25376.38
842.16	25562.75
842.34	25251.45
842.51	25159.30
842.69	25341.57
842.87	25104.00
843.04	25257.60
843.22	24827.53
843.40	25349.76
843.57	24772.23
843.75	25036.42
843.92	25196.16
844.10	25286.27
844.28	25081.47
844.45	25093.76
844.63	24952.45
844.81	24911.49
844.98	24831.62
845.16	24997.51
845.33	24800.90
845.51	24669.83
845.69	24700.55
845.86	24733.32
846.04	24471.18
846.21	24708.74
846.39	24620.68
846.57	24116.88
846.74	24112.78
846.92	24133.26
847.09	24192.65
847.27	24391.31
847.45	24290.96
847.62	24139.41
847.80	24376.97
847.97	24225.42
848.15	24460.94
848.32	24065.68
848.50	24301.20
848.68	24032.91
848.85	24110.74
849.03	23754.39
849.20	23897.75
849.38	23930.51
849.56	23965.33
849.73	23721.62
849.91	23893.65
850.08	23807.64
850.26	23789.20
850.43	23703.19
850.61	23766.68
850.78	23414.43
850.96	23699.09
851.14	23291.55
851.31	23527.06
851.49	23203.49
851.66	23508.63
851.84	23768.73
852.01	23613.08
852.19	23281.31
852.36	23365.28
852.54	23275.16
852.71	23553.69
852.89	23469.72
853.07	23185.05
853.24	23289.50
853.42	23176.86
853.59	23361.18
853.77	23402.14
853.94	23457.43
854.12	23191.20
854.29	22806.18
854.47	23043.74
854.64	23043.74
854.82	22881.95
854.99	22904.48
855.17	22955.68
855.34	23117.47
855.52	22953.63
855.69	23023.26
855.87	22797.99
856.04	22458.03
856.22	22576.81
856.39	22433.45
856.57	22478.50
856.74	22574.76
856.92	22744.74
857.09	22353.58
857.27	22693.54
857.44	22695.59
857.62	22765.22
857.79	22261.42
857.97	22531.75
858.14	22302.38
858.32	22339.24
858.49	22488.74
858.67	22402.73
858.84	22451.88
859.02	22070.96
859.19	22054.58
859.37	21999.28
859.54	22122.16
859.72	22105.77
859.89	22154.93
860.06	22277.80
860.24	21941.94
860.41	21966.51
860.59	22003.38
860.76	21788.34
860.94	21796.53
861.11	21911.22
861.29	21636.79
861.46	21687.99
861.64	21333.69
861.81	21663.41
861.98	21554.87
862.16	21706.42
862.33	21337.79
862.51	21266.11
862.68	21835.44
862.86	21247.68
863.03	21522.10
863.21	21229.24
863.38	21282.49
863.55	21178.04
863.73	21208.76
863.90	21268.16
864.08	21419.71
864.25	21022.40
864.43	21311.16
864.60	21108.41
864.77	21040.83
864.95	21137.09
865.12	20958.91
865.30	21055.17
865.47	20795.07
865.64	20584.13
865.82	20969.15
865.99	20997.82
866.17	20647.62
866.34	20815.55
866.51	20770.50
866.69	20975.30
866.86	20809.41
867.04	20698.82
867.21	20876.99
867.38	20561.61
867.56	20346.57
867.73	20651.72
867.91	20076.24
868.08	20453.06
868.25	20203.21
868.43	20068.05
868.60	20240.08
868.78	20137.68
868.95	20319.95
869.12	20195.02
869.30	19969.74
869.47	20147.92
869.64	20035.28
869.82	20182.73
869.99	19871.44
870.16	20170.44
870.34	19930.83
870.51	20164.30
870.69	19977.94
870.86	19867.34
871.03	19867.34
871.21	19781.33
871.38	20102.86
871.55	19754.71
871.73	19586.77
871.90	19646.16
872.07	19580.63
872.25	19230.43
872.42	19500.76
872.59	19402.46
872.77	19384.02
872.94	19273.43
873.11	19406.55
873.29	19287.77
873.46	19195.61
873.63	19128.03
873.81	19093.21
873.98	19330.78
874.15	19144.41
874.33	18966.24
874.50	18816.74
874.67	18953.95
874.85	18691.81
875.02	19074.78
875.19	18689.76
875.37	18560.74
875.54	18738.91
875.71	18820.83
875.88	18732.77
876.06	18689.76
876.23	18503.40
876.40	18650.85
876.58	18577.12
876.75	18530.02
876.92	18622.18
877.10	18458.34
877.27	18204.39
877.44	18319.08
877.61	18216.68
877.79	18085.61
877.96	18081.52
878.13	18345.70
878.31	17829.62
878.48	17837.81
878.65	18030.32
878.82	17964.78
879.00	18161.39
879.17	17948.40
879.34	17946.35
879.51	17852.14
879.69	17813.23
879.86	17567.48
880.03	17821.42
880.21	17901.29
880.38	17702.64
880.55	17708.79
880.72	17710.83
880.90	17538.80
881.07	17581.81
881.24	17518.32
881.41	17448.69
881.59	17368.82
881.76	17329.91
881.93	17377.01
882.10	17540.85
882.28	17370.87
882.45	17344.25
882.62	17166.07
882.79	17381.11
882.96	17147.64
883.14	17202.94
883.31	17049.34
883.48	16934.65
883.65	17039.10
883.83	17071.87
884.00	17139.45
884.17	17090.30
884.34	17325.82
884.51	16860.93
884.69	16924.41
884.86	16824.06
885.03	16985.85
885.20	16547.59
885.38	16936.70
885.55	16729.86
885.72	16928.51
885.89	16652.03
886.06	16697.09
886.24	16596.74
886.41	16750.34
886.58	16766.72
886.75	16987.90
886.92	16559.88
887.10	16584.45
887.27	16498.44
887.44	16471.81
887.61	16899.84
887.78	16893.69
887.95	16684.80
888.13	16258.82
888.30	16570.12
888.47	16500.48
888.64	16355.08
888.81	16334.60
888.99	16430.85
889.16	16260.87
889.33	16150.28
889.50	16111.37
889.67	16299.78
889.84	16064.27
890.01	16215.82
890.19	16342.79
890.36	15998.73
890.53	16023.31
890.70	16101.13
890.87	16080.65
891.04	16105.23
891.22	16000.78
891.39	15922.96
891.56	15914.77
891.73	15798.03
891.90	15615.76
892.07	15564.56
892.24	15800.08
892.42	15824.65
892.59	15838.99
892.76	15701.78
892.93	15662.86
893.10	15734.54
893.27	15732.50
893.44	15382.29
893.61	15392.53
893.79	15548.18
893.96	15603.47
894.13	15533.84
894.30	15556.37
894.47	15443.73
894.64	15712.02
894.81	15531.80
894.98	15601.43
895.15	15712.02
895.33	15380.25
895.50	15486.74
895.67	15488.79
895.84	15664.91
896.01	15347.48
896.18	15277.85
896.35	15826.70
896.52	15361.81
896.69	15415.06
896.86	15544.08
897.04	15245.08
897.21	15333.14
897.38	15386.39
897.55	15355.67
897.72	15261.46
897.89	15273.75
898.06	15296.28
898.23	15253.27
898.40	15148.82
898.57	15324.95
898.74	15480.60
898.91	15519.51
899.08	15329.05
899.26	15361.81
899.43	15218.46
899.60	15363.86
899.77	15327.00
899.94	15335.19
900.11	15089.43
900.28	15349.53
900.45	14995.23
900.62	15142.68
900.79	15210.26
900.96	15146.78
901.13	15331.09
901.30	15163.16
901.47	14948.12
901.64	15265.56
901.81	15214.36
901.98	15052.57
902.15	15271.70
902.32	15265.56
902.49	15015.71
902.66	15232.79
902.83	15218.46
903.01	15300.37
903.18	15099.67
903.35	15214.36
903.52	15071.00
903.69	15081.24
903.86	15238.94
904.03	15226.65
904.20	15095.58
904.37	15445.78
904.54	14878.49
904.71	14864.16
904.88	15226.65
905.05	14970.65
905.22	15107.87
905.39	15079.19
905.56	14966.56
905.73	15097.63
905.90	15058.71
906.07	15116.06
906.24	14946.08
906.41	15095.58
906.58	15222.55
906.75	15136.54
906.92	14984.99
907.09	15015.71
907.26	14935.84
907.43	15009.56
907.60	14923.55
907.77	15107.87
907.93	15204.12
908.10	15157.02
908.27	15152.92
908.44	14999.32
908.61	14823.20
908.78	14853.92
908.95	15009.56
909.12	14880.54
909.29	14911.26
909.46	14946.08
909.63	15107.87
909.80	14886.68
909.97	14950.17
910.14	14956.32
910.31	14997.28
910.48	14917.40
910.65	15058.71
910.82	14802.72
910.99	15058.71
911.16	14747.42
911.33	14835.49
911.50	14751.52
911.66	14602.02
911.83	14681.89
912.00	14575.39
912.17	14315.30
912.34	14671.65
912.51	14509.86
912.68	14516.00
912.85	14550.82
913.02	14485.28
913.19	14372.64
913.36	14468.90
913.53	14620.45
913.70	14536.48
913.86	14661.41
914.03	14350.12
914.20	14444.32
914.37	14100.26
914.54	14399.27
914.71	14524.19
914.88	14405.41
915.05	14290.73
915.22	13995.82
915.39	14251.81
915.55	14350.12
915.72	14186.28
915.89	14147.37
916.06	13946.67
916.23	14159.66
916.40	14022.44
916.57	13958.96
916.74	13862.70
916.91	13637.42
917.07	13733.68
917.24	13657.90
917.41	13698.86
917.58	13696.82
917.75	13692.72
917.92	13434.68
918.09	13575.98
918.26	13750.06
918.42	13696.82
918.59	13578.03
918.76	13322.04
918.93	13152.06
919.10	13528.88
919.27	13389.62
919.44	13492.02
919.60	13453.11
919.77	13422.39
919.94	13270.84
920.11	13049.66
920.28	13342.52
920.45	13156.15
920.61	13188.92
920.78	12963.64
920.95	13178.68
921.12	13223.73
921.29	13000.51
921.46	12865.34
921.62	12885.82
921.79	12740.41
921.96	12715.84
922.13	12676.93
922.30	12754.75
922.47	12433.22
922.63	12609.34
922.80	12799.80
922.97	12367.68
923.14	12402.50
923.31	12511.04
923.47	12289.86
923.64	12916.54
923.81	12379.97
923.98	12453.70
924.15	12115.78
924.32	12298.05
924.48	12154.69
924.65	12222.28
924.82	12191.56
924.99	11947.85
925.15	11773.77
925.32	12009.29
925.49	11886.41
925.66	11820.88
925.83	11730.76
925.99	11669.33
926.16	12035.91
926.33	11798.35
926.50	11579.22
926.67	11863.88
926.83	11528.02
927.00	11302.74
927.17	11319.12
927.34	11388.75
927.50	11220.82
927.67	11353.94
927.84	11345.75
928.01	11226.96
928.17	11087.70
928.34	11143.00
928.51	11128.66
928.68	10968.92
928.84	10882.91
929.01	10729.31
929.18	10973.02
929.35	10854.23
929.51	10823.51
929.68	10731.36
929.85	10747.74
930.02	10710.88
930.18	10741.60
930.35	10526.56
930.52	10526.56
930.69	10510.18
930.85	10528.61
931.02	10352.48
931.19	10344.29
931.36	10446.69
931.52	10573.66
931.69	10432.35
931.86	10186.60
932.02	10260.32
932.19	10305.38
932.36	9998.18
932.53	9979.75
932.69	9885.55
932.86	10088.29
933.03	10061.67
933.19	9762.67
933.36	9799.53
933.53	10000.23
933.70	9611.12
933.86	9756.52
934.03	9652.08
934.20	9492.34
934.36	9619.31
934.53	9391.98
934.70	9232.24
934.86	9426.80
935.03	9205.62
935.20	9011.06
935.36	9242.48
935.53	8963.96
935.70	8773.50
935.86	9107.32
936.03	8638.33
936.20	8576.89
936.36	8683.39
936.53	8701.82
936.70	8556.41
936.86	8626.04
937.03	8550.27
937.20	8445.82
937.36	8222.59
937.53	8038.28
937.70	7974.79
937.86	7954.31
938.03	7933.83
938.20	8044.42
938.36	7735.18
938.53	7813.00
938.70	7655.31
938.86	7804.81
939.03	7511.95
939.20	7387.02
939.36	7378.83
939.53	7272.34
939.70	7413.65
939.86	7102.36
940.03	6926.23
940.19	6973.33
940.36	6963.09
940.53	6889.37
940.69	6760.34
940.86	6762.39
941.03	6459.29
941.19	6348.70
941.36	6487.96
941.52	6404.00
941.69	6317.98
941.86	6315.94
942.02	6309.79
942.19	6039.46
942.35	6289.31
942.52	6291.36
942.69	5908.39
942.85	5937.06
943.02	5920.68
943.18	5982.12
943.35	5826.47
943.52	5814.18
943.68	5820.33
943.85	5861.29
944.01	5619.63
944.18	5963.68
944.35	5541.80
944.51	5676.97
944.68	5547.95
944.84	5593.00
945.01	5408.69
945.17	5425.07
945.34	5445.55
945.51	5590.95
945.67	5478.32
945.84	5568.43
946.00	5318.57
946.17	5412.78
946.33	5404.59
946.50	5459.88
946.67	5521.32
946.83	5453.74
947.00	5535.66
947.16	5476.27
947.33	5322.67
947.49	5375.92
947.66	5410.73
947.82	5420.97
947.99	5334.96
948.16	5341.10
948.32	5320.62
948.49	5369.77
948.65	5527.47
948.82	5375.92
948.98	5373.87
949.15	5269.42
949.31	5377.97
949.48	5420.97
949.64	5255.09
949.81	5353.39
949.97	5330.86
950.14	5400.49
950.30	5339.05
950.47	5558.19
950.63	5492.65
950.80	5449.64
950.96	5408.69
951.13	5449.64
951.30	5425.07
951.46	5504.94
951.63	5550.00
951.79	5455.79
951.96	5556.14
952.12	5439.40
952.29	5496.75
952.45	5427.12
952.62	5574.57
952.78	5539.76
952.94	5435.31
953.11	5492.65
953.27	5427.12
953.44	5451.69
953.60	5539.76
953.77	5541.80
953.93	5476.27
954.10	5500.84
954.26	5506.99
954.43	5523.37
954.59	5590.95
954.76	5595.05
954.92	5566.38
955.09	5679.02
955.25	5406.64
955.42	5633.96
955.58	5648.30
955.75	5529.52
955.91	5492.65
956.07	5609.39
956.24	5580.71
956.40	5660.59
956.57	5574.57
956.73	5463.98
956.90	5595.05
957.06	5576.62
957.23	5511.08
957.39	5453.74
957.56	5615.53
957.72	5543.85
957.88	5468.08
958.05	5654.44
958.21	5715.88
958.38	5644.20
958.54	5679.02
958.71	5550.00
958.87	5502.89
959.03	5656.49
959.20	5642.15
959.36	5576.62
959.53	5339.05
959.69	5404.59
959.85	5703.59
960.02	5537.71
960.18	5490.60
960.35	5586.86
960.51	5691.31
960.68	5466.03
960.84	5537.71
961.00	5531.56
961.17	5443.50
961.33	5740.46
961.50	5566.38
961.66	5609.39
961.82	5529.52
961.99	5574.57
962.15	5441.45
962.31	5445.55
962.48	5689.26
962.64	5539.76
962.81	5543.85
962.97	5515.18
963.13	5523.37
963.30	5638.06
963.46	5492.65
963.62	5457.84
963.79	5547.95
963.95	5441.45
964.12	5556.14
964.28	5625.77
964.44	5451.69
964.61	5463.98
964.77	5443.50
964.93	5595.05
965.10	5390.25
965.26	5490.60
965.42	5400.49
965.59	5373.87
965.75	5408.69
965.92	5580.71
966.08	5566.38
966.24	5398.45
966.41	5398.45
966.57	5351.34
966.73	5447.60
966.90	5420.97
967.06	5597.10
967.22	5396.40
967.39	5494.70
967.55	5357.49
967.71	5205.94
967.88	5316.53
968.04	5164.98
968.20	5359.53
968.37	5140.40
968.53	5162.93
968.69	5240.75
968.85	5263.28
969.02	5269.42
969.18	5326.77
969.34	5365.68
969.51	5261.23
969.67	5289.90
969.83	5136.31
970.00	5347.25
970.16	5197.74
970.32	5207.98
970.48	5162.93
970.65	5148.59
970.81	5177.26
970.97	5074.87
971.14	5064.63
971.30	5179.31
971.46	5040.05
971.63	5117.87
971.79	5083.06
971.95	5085.11
972.11	5005.24
972.28	4962.23
972.44	5214.13
972.60	5038.00
972.76	4911.03
972.93	5017.52
973.09	5033.91
973.25	5207.98
973.42	4919.22
973.58	4999.09
973.74	5035.96
973.90	5038.00
974.07	4849.59
974.23	4919.22
974.39	4872.12
974.55	4954.04
974.72	4843.45
974.88	4790.20
975.04	4951.99
975.20	4966.32
975.37	4798.39
975.53	4712.38
975.69	4827.06
975.85	4837.30
976.01	4911.03
976.18	4831.16
976.34	4820.92
976.50	4851.64
976.66	4802.49
976.83	4751.29
976.99	4665.27
977.15	4792.25
977.31	4667.32
977.47	4790.20
977.64	4759.48
977.80	4747.19
977.96	4698.04
978.12	4743.10
978.29	4636.60
978.45	4612.03
978.61	4695.99
978.77	4728.76
978.93	4685.75
979.10	4550.59
979.26	4657.08
979.42	4618.17
979.58	4577.21
979.74	4589.50
979.91	4448.19
980.07	4442.04
980.23	4499.39
980.39	4532.15
980.55	4603.83
980.71	4470.72
980.88	4446.14
981.04	4464.57
981.20	4411.32
981.36	4546.49
981.52	4507.58
981.68	4489.15
981.85	4509.63
982.01	4466.62
982.17	4251.58
982.33	4337.60
982.49	4505.53
982.65	4284.35
982.82	4519.87
982.98	4331.45
983.14	4294.59
983.30	4374.46
983.46	4376.51
983.62	4374.46
983.79	4300.73
983.95	4329.41
984.11	4220.86
984.27	4274.11
984.43	4278.21
984.59	4304.83
984.75	4265.92
984.91	4216.77
985.08	4220.86
985.24	4247.49
985.40	4110.27
985.56	4157.38
985.72	4274.11
985.88	4239.30
986.04	4108.23
986.20	4095.94
986.37	4169.66
986.53	4091.84
986.69	4130.75
986.85	4034.50
987.01	4104.13
987.17	4220.86
987.33	3985.35
987.49	4089.79
987.65	4132.80
987.82	3923.91
987.98	4026.31
988.14	4110.27
988.30	4085.70
988.46	3977.16
988.62	3950.53
988.78	4007.87
988.94	3930.05
989.10	3897.28
989.26	3893.19
989.42	3930.05
989.59	3850.18
989.75	3932.10
989.91	3870.66
990.07	3764.17
990.23	3762.12
990.39	3850.18
990.55	3839.94
990.71	3782.60
990.87	3870.66
991.03	3858.37
991.19	3973.06
991.35	3784.65
991.51	3936.20
991.67	3780.55
991.83	3825.61
992.00	3723.21
992.16	3844.04
992.32	3801.03
992.48	3774.41
992.64	3657.67
992.80	3809.22
992.96	3704.78
993.12	3835.85
993.28	3686.34
993.44	3770.31
993.60	3835.85
993.76	3725.26
993.92	3612.62
994.08	3690.44
994.24	3672.01
994.40	3649.48
994.56	3682.25
994.72	3715.02
994.88	3524.55
995.04	3653.58
995.20	3551.18
995.36	3526.60
995.52	3577.80
995.68	3583.95
995.84	3516.36
996.00	3594.19
996.16	3534.79
996.32	3456.97
996.48	3540.94
996.64	3569.61
996.80	3526.60
996.96	3512.27
997.12	3485.64
997.28	3450.83
997.44	3401.68
997.60	3368.91
997.76	3358.67
997.92	3450.83
998.08	3383.24
998.24	3370.96
998.40	3413.96
998.56	3342.28
998.72	3147.73
998.88	3436.49
999.04	3377.10
999.20	3348.43
999.36	3248.08
999.52	3516.36
999.68	3340.24
999.84	3387.34
1000.00	3323.85
1000.16	3385.29
1000.32	3266.51
1000.48	3395.53
1000.64	3243.98
1000.80	3260.37
1000.95	3133.39
1001.11	3332.05
1001.27	3194.83
1001.43	3205.07
1001.59	3184.59
1001.75	3237.84
1001.91	3235.79
1002.07	3129.30
1002.23	3127.25
1002.39	3076.05
1002.55	3151.82
1002.71	3176.40
1002.87	3188.69
1003.03	3098.58
1003.19	3119.06
1003.34	3022.80
1003.50	3106.77
1003.66	3176.40
1003.82	3043.28
1003.98	3049.43
1004.14	3145.68
1004.30	3035.09
1004.46	3155.92
1004.62	3059.67
1004.78	2926.55
1004.94	3057.62
1005.09	3133.39
1005.25	3035.09
1005.41	2998.23
1005.57	3041.23
1005.73	3000.27
1005.89	2934.74
1006.05	2977.75
1006.21	2967.51
1006.37	2869.20
1006.52	2955.22
1006.68	2887.64
1006.84	3092.43
1007.00	2846.68
1007.16	2895.83
1007.32	2910.16
1007.48	2887.64
1007.64	2922.45
1007.79	2975.70
1007.95	2918.36
1008.11	2973.65
1008.27	2863.06
1008.43	2840.53
1008.59	3004.37
1008.75	2940.88
1008.91	2803.67
1009.06	2836.44
1009.22	2850.77
1009.38	2899.92
1009.54	2838.48
1009.70	2828.24
1009.86	2805.72
1010.01	2955.22
1010.17	2822.10
1010.33	2805.72
1010.49	2678.74
1010.65	2883.54
1010.81	2793.43
1010.96	2723.80
1011.12	2791.38
1011.28	2697.17
1011.44	2766.81
1011.60	2738.13
1011.76	2695.13
1011.91	2787.29
1012.07	2654.17
1012.23	2598.87
1012.39	2641.88
1012.55	2742.23
1012.71	2596.82
1012.86	2652.12
1013.02	2600.92
1013.18	2611.16
1013.34	2574.30
1013.50	2645.98
1013.65	2645.98
1013.81	2592.73
1013.97	2562.01
1014.13	2527.19
1014.29	2555.86
1014.44	2656.22
1014.60	2551.77
1014.76	2596.82
1014.92	2594.78
1015.07	2623.45
1015.23	2555.86
1015.39	2500.57
1015.55	2512.86
1015.71	2537.43
1015.86	2502.62
1016.02	2541.53
1016.18	2455.51
1016.34	2494.43
1016.49	2504.67
1016.65	2473.95
1016.81	2396.12
1016.97	2471.90
1017.12	2504.67
1017.28	2369.50
1017.44	2351.07
1017.60	2475.99
1017.75	2414.56
1017.91	2471.90
1018.07	2418.65
1018.23	2404.32
1018.38	2473.95
1018.54	2437.08
1018.70	2412.51
1018.86	2371.55
1019.01	2385.88
1019.17	2353.12
1019.33	2404.32
1019.49	2408.41
1019.64	2363.36
1019.80	2338.78
1019.96	2363.36
1020.12	2312.16
1020.27	2303.96
1020.43	2383.84
1020.59	2306.01
1020.74	2385.88
1020.90	2437.08
1021.06	2285.53
1021.22	2367.45
1021.37	2324.44
1021.53	2238.43
1021.69	2265.05
1021.84	2211.81
1022.00	2328.54
1022.16	2435.03
1022.31	2269.15
1022.47	2318.30
1022.63	2308.06
1022.79	2191.33
1022.94	2285.53
1023.10	2377.69
1023.26	2183.13
1023.41	2195.42
1023.57	2238.43
1023.73	2172.89
1023.88	2207.71
1024.04	2121.70
1024.20	2209.76
1024.35	2195.42
1024.51	2322.40
1024.67	2176.99
1024.82	2189.28
1024.98	2037.73
1025.14	2191.33
1025.29	2172.89
1025.45	2193.37
1025.61	2035.68
1025.76	2277.34
1025.92	2131.94
1026.08	2205.66
1026.23	2121.70
1026.39	2133.98
1026.55	2207.71
1026.70	2052.06
1026.86	2117.60
1027.02	2160.61
1027.17	2133.98
1027.33	2111.46
1027.48	2031.58
1027.64	2090.98
1027.80	2047.97
1027.95	2113.50
1028.11	1929.19
1028.27	1992.67
1028.42	2097.12
1028.58	2011.11
1028.73	1994.72
1028.89	1929.19
1029.05	2150.37
1029.20	1923.04
>>>>>End Processed Spectral Data<<<<<
