SpectraSuite Data File
++++++++++++++++++++++++++++++++++++
Date: Fri Jun 02 14:53:30 CEST 2017
User: INFO_000
Dark Spectrum Present: No
Reference Spectrum Present: No
Number of Sampled Component Spectra: 1
Spectrometers: USB4H00879
Integration Time (usec): 80000 (USB4H00879)
Spectra Averaged: 1 (USB4H00879)
Boxcar Smoothing: 0 (USB4H00879)
Correct for Electrical Dark: No (USB4H00879)
Strobe/Lamp Enabled: No (USB4H00879)
Correct for Detector Non-linearity: No (USB4H00879)
Correct for Stray Light: No (USB4H00879)
Number of Pixels in Processed Spectrum: 3648
>>>>>Begin Processed Spectral Data<<<<<
345.13	1296.36
345.34	1296.36
345.56	1296.36
345.78	1288.17
345.99	1382.38
346.21	1712.10
346.42	1654.76
346.64	1658.85
346.86	1746.92
347.07	1658.85
347.29	1718.25
347.50	1626.09
347.72	1675.24
347.94	1830.88
348.15	1595.37
348.37	1609.70
348.59	1656.81
348.80	1667.05
349.02	1791.97
349.23	1886.18
349.45	1830.88
349.67	1918.95
349.88	1837.03
350.10	1978.34
350.31	1888.23
350.53	1820.64
350.75	1959.91
350.96	1773.54
351.18	1961.95
351.39	1890.28
351.61	1865.70
351.82	1904.61
352.04	1920.99
352.26	1841.12
352.47	1843.17
352.69	1943.52
352.90	1843.17
353.12	1880.04
353.34	1871.84
353.55	1900.52
353.77	1873.89
353.98	1824.74
354.20	1830.88
354.41	1904.61
354.63	1959.91
354.85	1996.77
355.06	1908.71
355.28	1816.55
355.49	1949.67
355.71	1945.57
355.92	1906.66
356.14	1906.66
356.35	1914.85
356.57	1785.83
356.79	2017.25
357.00	1896.42
357.22	1978.34
357.43	1886.18
357.65	1964.00
357.86	1931.23
358.08	1970.15
358.29	2000.87
358.51	1961.95
358.72	2031.58
358.94	2015.20
359.16	1937.38
359.37	1998.82
359.59	2025.44
359.80	1996.77
360.02	1910.75
360.23	1902.56
360.45	2021.35
360.66	1918.95
360.88	1779.68
361.09	2000.87
361.31	1994.72
361.52	2023.39
361.74	2025.44
361.95	1992.67
362.17	1964.00
362.38	2097.12
362.60	2035.68
362.81	1988.58
363.03	1980.39
363.24	1964.00
363.46	2060.26
363.67	2007.01
363.89	2080.74
364.10	1986.53
364.32	1970.15
364.53	2090.98
364.75	1931.23
364.96	2019.30
365.18	1978.34
365.39	2007.01
365.61	1990.63
365.82	2105.31
366.04	2037.73
366.25	1996.77
366.47	2019.30
366.68	2000.87
366.90	2000.87
367.11	2150.37
367.33	2205.66
367.54	2090.98
367.76	2039.78
367.97	2107.36
368.19	2037.73
368.40	2027.49
368.62	1990.63
368.83	2011.11
369.05	2013.15
369.26	1984.48
369.48	2009.06
369.69	1959.91
369.91	2041.82
370.12	2017.25
370.33	2133.98
370.55	1980.39
370.76	2052.06
370.98	2041.82
371.19	2099.17
371.41	2031.58
371.62	2080.74
371.84	2027.49
372.05	2187.23
372.27	2119.65
372.48	2021.35
372.69	2043.87
372.91	2183.13
373.12	2166.75
373.34	2045.92
373.55	2125.79
373.77	2222.05
373.98	2072.54
374.20	2224.09
374.41	2289.63
374.62	2150.37
374.84	2162.66
375.05	2156.51
375.27	2224.09
375.48	2174.94
375.70	2189.28
375.91	2215.90
376.12	2297.82
376.34	2099.17
376.55	2131.94
376.77	2129.89
376.98	2170.85
377.19	2158.56
377.41	2148.32
377.62	2213.85
377.84	2252.77
378.05	2365.40
378.27	2054.11
378.48	2281.44
378.69	2316.25
378.91	2363.36
379.12	2213.85
379.34	2215.90
379.55	2324.44
379.76	2232.29
379.98	2217.95
380.19	2240.48
380.41	2263.01
380.62	2408.41
380.83	2263.01
381.05	2236.38
381.26	2469.85
381.47	2289.63
381.69	2265.05
381.90	2410.46
382.12	2297.82
382.33	2318.30
382.54	2359.26
382.76	2265.05
382.97	2287.58
383.19	2236.38
383.40	2426.84
383.61	2392.03
383.83	2289.63
384.04	2373.60
384.25	2359.26
384.47	2412.51
384.68	2441.18
384.89	2297.82
385.11	2355.16
385.32	2330.59
385.54	2367.45
385.75	2375.64
385.96	2410.46
386.18	2396.12
386.39	2463.71
386.60	2359.26
386.82	2416.60
387.03	2494.43
387.24	2410.46
387.46	2459.61
387.67	2510.81
387.88	2568.15
388.10	2416.60
388.31	2510.81
388.52	2609.11
388.74	2492.38
388.95	2500.57
389.16	2537.43
389.38	2486.23
389.59	2559.96
389.80	2621.40
390.02	2525.15
390.23	2674.65
390.44	2566.10
390.66	2533.34
390.87	2580.44
391.08	2611.16
391.30	2637.78
391.51	2795.48
391.72	2707.41
391.94	2711.51
392.15	2650.07
392.36	2639.83
392.58	2570.20
392.79	2668.50
393.00	2719.70
393.22	2691.03
393.43	2740.18
393.64	2852.82
393.85	2830.29
394.07	2666.46
394.28	2865.11
394.49	2850.77
394.71	2858.96
394.92	2881.49
395.13	2678.74
395.35	2701.27
395.56	2762.71
395.77	2770.90
395.98	2824.15
396.20	2947.03
396.41	2994.13
396.62	2912.21
396.84	2797.53
397.05	2865.11
397.26	2922.45
397.47	2953.17
397.69	2914.26
397.90	3014.61
398.11	2953.17
398.32	3016.66
398.54	2908.12
398.75	2887.64
398.96	2965.46
399.18	3069.91
399.39	3012.56
399.60	2979.79
399.81	3000.27
400.03	3061.71
400.24	3170.26
400.45	3008.47
400.66	3182.54
400.88	2971.60
401.09	3252.17
401.30	3160.02
401.51	3205.07
401.73	3135.44
401.94	3239.89
402.15	3243.98
402.36	3211.22
402.58	3129.30
402.79	3170.26
403.00	3246.03
403.21	3209.17
403.43	3276.75
403.64	3321.81
403.85	3223.50
404.06	3280.85
404.27	3178.45
404.49	3184.59
404.70	3225.55
404.91	3346.38
405.12	3344.33
405.34	3327.95
405.55	3411.92
405.76	3233.74
405.97	3209.17
406.19	3411.92
406.40	3196.88
406.61	3461.07
406.82	3336.14
407.03	3373.00
407.25	3330.00
407.46	3323.85
407.67	3467.21
407.88	3547.08
408.09	3321.81
408.31	3377.10
408.52	3491.79
408.73	3385.29
408.94	3327.95
409.15	3411.92
409.37	3450.83
409.58	3563.47
409.79	3596.23
410.00	3542.99
410.21	3385.29
410.43	3573.71
410.64	3540.94
410.85	3600.33
411.06	3551.18
411.27	3555.27
411.48	3694.54
411.70	3514.31
411.91	3594.19
412.12	3712.97
412.33	3459.02
412.54	3542.99
412.76	3758.02
412.97	3706.82
413.18	3518.41
413.39	3694.54
413.60	3684.30
413.81	3561.42
414.03	3665.86
414.24	3624.90
414.45	3708.87
414.66	3563.47
414.87	3755.97
415.08	3712.97
415.30	3631.05
415.51	3758.02
415.72	3719.11
415.93	3717.06
416.14	3829.70
416.35	3694.54
416.56	3805.13
416.78	3825.61
416.99	3841.99
417.20	3903.43
417.41	3882.95
417.62	3903.43
417.83	3923.91
418.04	4014.02
418.26	3993.54
418.47	3776.45
418.68	3975.11
418.89	3934.15
419.10	3995.59
419.31	3930.05
419.52	4024.26
419.73	4036.55
419.95	4198.34
420.16	3858.37
420.37	4020.16
420.58	4132.80
420.79	3960.77
421.00	4167.62
421.21	4059.07
421.42	3983.30
421.63	4188.10
421.85	4048.83
422.06	4179.90
422.27	4104.13
422.48	4241.34
422.69	4288.45
422.90	4296.64
423.11	4194.24
423.32	4329.41
423.53	4304.83
423.75	4384.70
423.96	4325.31
424.17	4333.50
424.38	4540.35
424.59	4353.98
424.80	4550.59
425.01	4444.09
425.22	4474.81
425.43	4421.56
425.64	4663.22
425.85	4562.87
426.06	4569.02
426.28	4706.23
426.49	4550.59
426.70	4526.01
426.91	4556.73
427.12	4628.41
427.33	4540.35
427.54	4618.17
427.75	4794.29
427.96	4835.25
428.17	4751.29
428.38	4947.89
428.59	4829.11
428.80	4777.91
429.01	4788.15
429.23	4835.25
429.44	5105.59
429.65	5177.26
429.86	5038.00
430.07	4833.21
430.28	4843.45
430.49	5019.57
430.70	5167.03
430.91	5191.60
431.12	5074.87
431.33	5148.59
431.54	5257.14
431.75	5134.26
431.96	5226.42
432.17	5056.43
432.38	5181.36
432.59	5470.12
432.80	5367.73
433.01	5363.63
433.22	5361.58
433.43	5361.58
433.64	5369.77
433.85	5357.49
434.06	5472.17
434.27	5394.35
434.49	5515.18
434.70	5474.22
434.91	5582.76
435.12	5603.24
435.33	5738.41
435.54	5500.84
435.75	5332.91
435.96	5562.28
436.17	5466.03
436.38	5629.87
436.59	5730.22
436.80	5595.05
437.01	5814.18
437.22	5791.66
437.43	5775.27
437.64	5640.11
437.85	5924.77
438.06	5892.01
438.27	5857.19
438.48	5832.62
438.69	5939.11
438.90	5910.44
439.11	5797.80
439.32	6051.75
439.53	6029.22
439.74	6008.74
439.95	5998.50
440.16	5926.82
440.37	6041.51
440.57	5849.00
440.78	6096.80
440.99	6172.58
441.20	6170.53
441.41	5982.12
441.62	6068.13
441.83	6131.62
442.04	6315.94
442.25	6211.49
442.46	6156.19
442.67	6277.02
442.88	6633.37
443.09	6219.68
443.30	6451.10
443.51	6356.90
443.72	6604.70
443.93	6287.26
444.14	6678.43
444.35	6340.51
444.56	6350.75
444.77	6547.36
444.98	6676.38
445.19	6635.42
445.40	6533.02
445.61	6557.60
445.81	6666.14
446.02	6692.76
446.23	6520.73
446.44	6506.40
446.65	6596.51
446.86	6686.62
447.07	6774.68
447.28	6913.94
447.49	6827.93
447.70	6803.35
447.91	6791.06
448.12	6813.59
448.33	6918.04
448.54	6866.84
448.74	6741.91
448.95	7026.58
449.16	6883.22
449.37	7235.47
449.58	7012.24
449.79	7137.17
450.00	6760.34
450.21	7006.10
450.42	7231.38
450.63	7286.67
450.84	7008.15
451.05	7182.23
451.25	7163.79
451.46	6971.29
451.67	7294.86
451.88	7409.55
452.09	7358.35
452.30	7370.64
452.51	7358.35
452.72	7356.30
452.93	7655.31
453.13	7186.32
453.34	7341.97
453.55	7514.00
453.76	7434.13
453.97	7653.26
454.18	7442.32
454.39	7477.13
454.60	7690.12
454.81	7735.18
455.01	7821.19
455.22	7524.24
455.43	7630.73
455.64	7962.50
455.85	8060.80
456.06	8028.04
456.27	7862.15
456.48	7974.79
456.68	7919.50
456.89	8042.37
457.10	7991.17
457.31	7853.96
457.52	8120.20
457.73	8183.68
457.94	8388.48
458.14	8046.47
458.35	8621.95
458.56	8214.40
458.77	8171.40
458.98	8329.09
459.19	8292.23
459.39	8435.58
459.60	8609.66
459.81	8286.08
460.02	8728.44
460.23	8658.81
460.44	8705.92
460.65	8529.79
460.85	8707.96
461.06	8892.28
461.27	8568.70
461.48	8882.04
461.69	8814.46
461.89	8703.87
462.10	9043.83
462.31	8861.56
462.52	8892.28
462.73	8826.75
462.94	9187.19
463.14	8970.10
463.35	9095.03
463.56	9297.78
463.77	9490.29
463.98	9142.13
464.18	9232.24
464.39	9498.48
464.60	9537.39
464.81	9686.89
465.02	9490.29
465.23	9875.31
465.43	9559.92
465.64	9725.80
465.85	9699.18
466.06	9590.64
466.27	9924.46
466.47	10065.77
466.68	10078.05
466.89	9967.46
467.10	10149.73
467.30	10012.52
467.51	10395.49
467.72	10157.92
467.93	9875.31
468.14	10458.98
468.34	10366.82
468.55	10321.76
468.76	10415.97
468.97	10231.65
469.17	10682.20
469.38	10624.86
469.59	10827.61
469.80	10456.93
470.01	10800.99
470.21	10690.40
470.42	10968.92
470.63	11190.10
470.84	10989.40
471.04	11036.50
471.25	11102.04
471.46	11038.55
471.67	11345.75
471.87	11114.33
472.08	11413.33
472.29	11820.88
472.50	11386.71
472.70	11511.63
472.91	11603.79
473.12	11835.21
473.33	11880.27
473.53	12019.53
473.74	11855.69
473.95	12060.49
474.16	12271.43
474.36	12345.16
474.57	12345.16
474.78	12388.16
474.99	12406.59
475.19	12334.92
475.40	12826.43
475.61	12803.90
475.81	12977.98
476.02	12945.21
476.23	12805.95
476.44	13160.25
476.64	13160.25
476.85	13358.90
477.06	13266.74
477.27	13743.92
477.47	13627.18
477.68	13766.45
477.89	13823.79
478.09	13803.31
478.30	13920.04
478.51	13856.56
478.71	14077.74
478.92	14100.26
479.13	14159.66
479.34	14626.59
479.54	14577.44
479.75	14499.62
479.96	14663.46
480.16	14735.14
480.37	14839.58
480.58	15144.73
480.78	15261.46
480.99	15126.30
481.20	15331.09
481.41	15456.02
481.61	15435.54
481.82	15658.77
482.03	15402.77
482.23	15539.99
482.44	16066.31
482.65	16035.60
482.85	16025.36
483.06	16072.46
483.27	16221.96
483.47	16166.67
483.68	16350.98
483.89	16535.30
484.09	16482.05
484.30	16633.60
484.51	17041.15
484.71	17000.19
484.92	16969.47
485.13	17004.28
485.33	17137.40
485.54	17071.87
485.75	17377.01
485.95	17352.44
486.16	17436.41
486.37	17737.46
486.57	17483.51
486.78	17891.06
486.98	17938.16
487.19	18151.15
487.40	18032.36
487.60	17985.26
487.81	18523.88
488.02	18519.78
488.22	18255.59
488.43	18372.33
488.64	18507.49
488.84	18812.64
489.05	18882.27
489.25	18869.98
489.46	19144.41
489.67	19091.16
489.87	19396.31
490.08	19488.47
490.29	19554.01
490.49	19459.80
490.70	19924.69
490.90	19949.26
491.11	19846.87
491.32	19967.70
491.52	19857.10
491.73	20393.67
491.94	20066.00
492.14	20076.24
492.35	20508.36
492.55	20641.48
492.76	20833.99
492.97	20754.12
493.17	20870.85
493.38	20854.47
493.58	21405.37
493.79	21157.57
494.00	21309.11
494.20	21454.52
494.41	21587.64
494.61	21571.25
494.82	21763.76
495.02	21687.99
495.23	21683.89
495.44	22019.76
495.64	21837.49
495.85	21907.12
496.05	22238.89
496.26	22154.93
496.47	22404.78
496.67	22263.47
496.88	22601.38
497.08	22314.67
497.29	22988.45
497.49	22744.74
497.70	22896.29
497.91	23295.64
498.11	23342.75
498.32	23207.58
498.52	23103.14
498.73	23756.44
498.93	23486.11
499.14	23531.16
499.34	23584.41
499.55	23799.44
499.76	23746.20
499.96	23875.22
500.17	23670.42
500.37	23987.86
500.58	24030.87
500.78	24239.76
500.99	24448.65
501.19	24366.73
501.40	24417.93
501.60	24395.40
501.81	24424.08
502.02	24549.00
502.22	24637.06
502.43	24542.86
502.63	24884.87
502.84	24866.44
503.04	24809.09
503.25	24817.29
503.45	25050.75
503.66	25192.06
503.86	25276.03
504.07	25325.18
504.27	25210.50
504.48	25638.52
504.68	25544.31
504.89	25824.89
505.09	25708.15
505.30	25753.21
505.50	25745.02
505.71	25785.97
505.91	26123.89
506.12	25851.51
506.32	26054.26
506.53	26140.27
506.73	26203.76
506.94	26222.19
507.14	25992.82
507.35	26250.86
507.55	26351.21
507.76	26668.65
507.96	26336.88
508.17	26513.00
508.37	26535.53
508.58	26488.43
508.78	27307.62
508.99	27100.77
509.19	26916.45
509.40	27070.05
509.60	26719.85
509.81	26961.51
510.01	26926.69
510.22	26781.29
510.42	27037.28
510.63	27604.57
510.83	27381.34
511.04	27311.71
511.24	27385.44
511.44	27299.42
511.65	27604.57
511.85	27299.42
512.06	27704.92
512.26	28116.56
512.47	27825.75
512.67	27883.09
512.88	27928.15
513.08	27700.83
513.29	28042.84
513.49	27702.87
513.69	27917.91
513.90	28028.50
514.10	27825.75
514.31	28079.70
514.51	28442.19
514.72	28145.23
514.92	27862.61
515.13	28059.22
515.33	28231.25
515.53	28153.43
515.74	28536.40
515.94	28454.48
516.15	28585.55
516.35	28470.86
516.56	28649.03
516.76	28536.40
516.96	28563.02
517.17	28821.06
517.37	28878.41
517.58	28624.46
517.78	28814.92
517.99	29189.70
518.19	28870.22
518.39	28884.55
518.60	29259.33
518.80	29009.48
519.01	29234.75
519.21	29046.34
519.41	29496.89
519.62	29142.60
519.82	29253.19
520.03	29503.04
520.23	29535.81
520.43	29339.20
520.64	29818.42
520.84	29765.18
521.05	29625.92
521.25	29556.28
521.45	29847.10
521.66	29896.25
521.86	29890.10
522.07	29959.73
522.27	29816.38
522.47	29916.73
522.68	30211.64
522.88	30170.68
523.08	30733.87
523.29	30537.26
523.49	30144.05
523.70	30664.24
523.90	30711.34
524.10	30445.10
524.31	31192.61
524.51	30666.28
524.71	31301.15
524.92	30885.42
525.12	31424.03
525.33	31071.78
525.53	31141.41
525.73	31307.30
525.94	31393.31
526.14	31340.07
526.34	31782.43
526.55	31559.20
526.75	31211.04
526.95	31475.23
527.16	31342.11
527.36	31790.62
527.56	31888.92
527.77	31860.25
527.97	31901.21
528.17	31845.91
528.38	31893.02
528.58	32017.94
528.78	32497.17
528.99	32204.31
529.19	32435.73
529.39	32316.95
529.60	32630.29
529.80	32515.60
530.00	32558.61
530.21	32787.98
530.41	32968.20
530.61	32515.60
530.82	32917.00
531.02	32984.58
531.22	33037.83
531.43	32906.76
531.63	33285.64
531.83	33549.82
532.04	33754.62
532.24	33510.91
532.44	33848.83
532.64	33730.05
532.85	33801.72
533.05	33793.53
533.25	33803.77
533.46	34145.78
533.66	34231.80
533.86	34053.62
534.07	34375.16
534.27	34655.73
534.47	34549.23
534.67	34528.75
534.88	34430.45
535.08	34500.08
535.28	34618.86
535.49	35026.41
535.69	35155.43
535.89	35237.35
536.09	35075.56
536.30	35218.92
536.50	35429.86
536.70	35622.37
536.91	35722.72
537.11	35317.22
537.31	35421.67
537.51	35450.34
537.72	36019.67
537.92	36031.96
538.12	36070.87
538.32	36103.64
538.53	36558.29
538.73	36185.56
538.93	36228.57
539.13	36148.70
539.34	36318.68
539.54	36349.40
539.74	36511.19
539.94	36546.00
540.15	36406.74
540.35	36845.01
540.55	36789.71
540.75	36576.72
540.96	36810.19
541.16	36998.60
541.36	37002.70
541.56	37139.91
541.77	37619.14
541.97	37133.77
542.17	37422.53
542.37	37246.41
542.58	37492.16
542.78	37475.78
542.98	37379.53
543.18	37651.91
543.38	37612.99
543.59	37858.75
543.79	37899.71
543.99	37901.76
544.19	38354.36
544.40	37813.70
544.60	38563.25
544.80	38471.09
545.00	38522.29
545.20	38659.51
545.41	38391.22
545.61	38434.23
545.81	38565.30
546.01	38532.53
546.21	38589.88
546.42	38393.27
546.62	38725.04
546.82	38837.68
547.02	39050.67
547.22	39069.10
547.43	38884.78
547.63	39011.76
547.83	39359.91
548.03	39386.54
548.23	39837.09
548.44	39321.00
548.64	39017.90
548.84	39413.16
549.04	39486.89
549.24	39957.92
549.45	40164.76
549.65	39818.66
549.85	39902.62
550.05	39953.82
550.25	40140.19
550.45	40562.07
550.66	40422.81
550.86	40175.00
551.06	40646.04
551.26	40670.61
551.46	40514.97
551.66	40703.38
551.87	40293.79
552.07	40519.06
552.27	40431.00
552.47	40732.05
552.67	41080.21
552.87	40971.66
553.07	40986.00
553.28	41194.89
553.48	40693.14
553.68	41086.35
553.88	41710.98
554.08	41436.55
554.28	41244.04
554.48	40793.49
554.69	41518.47
554.89	41858.43
555.09	41504.13
555.29	41221.52
555.49	41928.06
555.69	41743.75
555.89	41422.22
556.10	42048.89
556.30	41385.35
556.50	41721.22
556.70	41821.57
556.90	42093.95
557.10	42139.00
557.30	41921.92
557.50	42061.18
557.70	42202.49
557.91	42112.38
558.11	42108.29
558.31	42718.58
558.51	42321.27
558.71	42640.76
558.91	42970.48
559.11	42294.65
559.31	42646.90
559.51	42704.24
559.72	42769.78
559.92	42943.86
560.12	42517.88
560.32	42724.72
560.52	42769.78
560.72	43115.89
560.92	43074.93
561.12	43359.59
561.32	43535.72
561.52	43162.99
561.72	43328.87
561.93	43402.60
562.13	43611.49
562.33	43222.38
562.53	43617.64
562.73	43310.44
562.93	43525.48
563.13	43720.04
563.33	43574.63
563.53	43672.93
563.73	43320.68
563.93	44107.10
564.13	44272.99
564.33	44092.77
564.53	44094.82
564.74	44170.59
564.94	44123.49
565.14	43963.75
565.34	44070.24
565.54	44268.89
565.74	44324.19
565.94	44750.17
566.14	44328.28
566.34	44600.66
566.54	44873.04
566.74	44408.15
566.94	45251.92
567.14	45149.52
567.34	44645.72
567.54	45110.61
567.74	45098.32
567.94	44791.12
568.14	45641.03
568.34	45333.84
568.54	45063.50
568.74	45174.09
568.94	45241.68
569.14	45612.36
569.34	45311.31
569.54	45565.26
569.75	45196.62
569.95	45196.62
570.15	46073.15
570.35	45825.35
570.55	45366.60
570.75	45743.43
570.95	45501.77
571.15	45774.15
571.35	46122.30
571.55	46189.89
571.75	45929.80
571.95	46120.26
572.15	45976.90
572.35	46318.91
572.55	46267.71
572.75	46236.99
572.95	46384.44
573.15	46245.18
573.35	46232.89
573.55	45989.19
573.75	46441.79
573.95	46783.80
574.15	46589.24
574.35	46433.60
574.55	46302.53
574.75	46687.54
574.95	47109.43
575.15	46779.70
575.34	46970.16
575.54	47455.53
575.74	47369.52
575.94	47404.33
576.14	47007.03
576.34	47543.59
576.54	47463.72
576.74	47293.74
576.94	47777.06
577.14	47981.86
577.34	47439.15
577.54	47830.31
577.74	48039.20
577.94	48119.07
578.14	47697.19
578.34	48067.87
578.54	47256.88
578.74	47635.75
578.94	48366.88
579.14	47979.81
579.34	47879.46
579.54	48551.20
579.74	48348.45
579.94	48485.66
580.13	48422.17
580.33	48334.11
580.53	48870.68
580.73	48813.34
580.93	48719.13
581.13	49014.04
581.33	49011.99
581.53	48694.55
581.73	49075.48
581.93	49345.81
582.13	49216.78
582.33	48960.79
582.53	49091.86
582.73	49009.94
582.92	49011.99
583.12	49784.07
583.32	49321.23
583.52	49274.13
583.72	49579.28
583.92	49415.44
584.12	49427.73
584.32	49814.79
584.52	49827.08
584.72	49671.43
584.92	49943.81
585.11	50220.29
585.31	49988.87
585.51	49952.01
585.71	49726.73
585.91	50078.98
586.11	49810.70
586.31	50111.75
586.51	50234.63
586.71	50521.34
586.91	50576.64
587.10	50197.76
587.30	50511.10
587.50	50781.43
587.70	50355.46
587.90	50599.16
588.10	50644.22
588.30	50857.21
588.50	50787.58
588.69	50566.40
588.89	50619.64
589.09	51074.29
589.29	51027.19
589.49	51062.00
589.69	50715.90
589.89	51377.39
590.08	51076.34
590.28	50935.03
590.48	51221.75
590.68	50818.30
590.88	51268.85
591.08	51422.45
591.28	51059.96
591.47	51442.93
591.67	50988.28
591.87	51422.45
592.07	51381.49
592.27	51231.99
592.47	51782.89
592.67	51453.17
592.86	51705.07
593.06	51655.92
593.26	51274.99
593.46	51680.49
593.66	51565.81
593.86	51737.83
594.05	51739.88
594.25	52034.79
594.45	51905.77
594.65	51680.49
594.85	51262.71
595.05	52116.71
595.24	52118.76
595.44	52051.17
595.64	52260.07
595.84	51934.44
596.04	52239.59
596.23	52239.59
596.43	52253.92
596.63	52507.87
596.83	52350.18
597.03	52215.01
597.22	52573.41
597.42	52382.94
597.62	52751.58
597.82	52430.05
598.02	52247.78
598.21	53032.15
598.41	52602.08
598.61	52712.67
598.81	52432.10
599.01	52692.19
599.20	52813.02
599.40	52573.41
599.60	52761.82
599.80	53322.96
600.00	52602.08
600.19	53310.67
600.39	52821.21
600.59	53374.16
600.79	53210.32
600.98	52810.97
601.18	53023.96
601.38	53427.41
601.58	53304.53
601.78	53155.03
601.97	53241.04
602.17	53482.70
602.37	53286.10
602.57	53394.64
602.76	53873.87
602.96	53179.60
603.16	53662.93
603.36	53402.83
603.55	53763.28
603.75	53613.77
603.95	53892.30
604.15	53581.01
604.34	53691.60
604.54	53613.77
604.74	53978.31
604.94	54381.76
605.13	53773.52
605.33	54090.95
605.53	53957.83
605.73	54432.96
605.92	53902.54
606.12	54197.44
606.32	54199.49
606.52	53769.42
606.71	54121.67
606.91	53908.68
607.11	54109.38
607.30	53732.56
607.50	54340.80
607.70	54351.04
607.90	54219.97
608.09	54367.43
608.29	54459.58
608.49	54633.66
608.68	53986.50
608.88	54785.21
609.08	54428.87
609.28	54447.30
609.47	54383.81
609.67	54883.51
609.87	54381.76
610.06	54633.66
610.26	54068.42
610.46	54437.06
610.66	54369.47
610.85	54623.42
611.05	54531.26
611.25	54787.26
611.44	54537.41
611.64	55063.74
611.84	54672.57
612.03	54381.76
612.23	54484.16
612.43	54584.51
612.62	54217.92
612.82	54353.09
613.02	54674.62
613.21	54437.06
613.41	54248.64
613.61	54795.45
613.80	54314.18
614.00	54363.33
614.20	54869.18
614.39	54666.43
614.59	54709.44
614.79	54299.84
614.98	54078.66
615.18	54351.04
615.38	54412.48
615.57	54965.43
615.77	54863.03
615.97	54095.05
616.16	54090.95
616.36	54181.06
616.56	54914.23
616.75	54451.39
616.95	54465.73
617.15	54242.50
617.34	53998.79
617.54	54127.81
617.74	54561.98
617.93	54428.87
618.13	54156.49
618.32	54678.72
618.52	54197.44
618.72	54158.53
618.91	54334.66
619.11	54058.18
619.31	54817.98
619.50	53933.26
619.70	53968.07
619.90	54226.12
620.09	54191.30
620.29	54162.63
620.48	54387.91
620.68	54709.44
620.88	53695.69
621.07	54473.92
621.27	54252.74
621.46	53761.23
621.66	54109.38
621.86	54529.22
622.05	53894.35
622.25	54615.23
622.44	53998.79
622.64	54262.98
622.84	54262.98
623.03	54154.44
623.23	54322.37
623.42	53796.04
623.62	54228.16
623.82	54054.09
624.01	53916.87
624.21	54205.64
624.40	53949.64
624.60	54191.30
624.80	53955.78
624.99	53675.21
625.19	53464.27
625.38	54320.32
625.58	54228.16
625.77	54131.91
625.97	53818.57
626.17	53654.73
626.36	53578.96
626.56	53937.35
626.75	53605.58
626.95	54332.61
627.14	54013.13
627.34	54303.94
627.54	53619.92
627.73	53611.73
627.93	54002.89
628.12	53798.09
628.32	53474.51
628.51	53982.41
628.71	53863.63
628.90	53820.62
629.10	53703.88
629.30	54060.23
629.49	53841.10
629.69	53695.69
629.88	53744.84
630.08	54033.61
630.27	54146.25
630.47	53900.49
630.66	53839.05
630.86	54064.33
631.05	53357.78
631.25	53880.01
631.44	53773.52
631.64	53607.63
631.84	53855.43
632.03	53980.36
632.23	53742.80
632.42	54129.86
632.62	54031.56
632.81	53599.44
633.01	53515.47
633.20	53996.74
633.40	53816.52
633.59	54246.60
633.79	53871.82
633.98	53593.29
634.18	53900.49
634.37	54068.42
634.57	53806.28
634.76	54052.04
634.96	54164.68
635.15	54289.60
635.35	53753.04
635.54	53939.40
635.74	54211.78
635.93	53834.95
636.13	54510.78
636.32	54447.30
636.52	53990.60
636.71	53859.53
636.91	53976.26
637.10	53966.02
637.30	53957.83
637.49	54320.32
637.69	53667.02
637.88	54490.30
638.08	53722.32
638.27	54369.47
638.46	54420.67
638.66	53470.42
638.85	54086.85
639.05	54158.53
639.24	54262.98
639.44	53748.94
639.63	54129.86
639.83	54328.52
640.02	54334.66
640.22	54191.30
640.41	54906.04
640.61	54002.89
640.80	54129.86
640.99	54314.18
641.19	54527.17
641.38	54387.91
641.58	54527.17
641.77	54279.36
641.97	53906.63
642.16	54058.18
642.36	54777.02
642.55	55243.96
642.74	53937.35
642.94	55143.61
643.13	54607.04
643.33	54852.80
643.52	54869.18
643.72	54572.22
643.91	54351.04
644.10	54535.36
644.30	54957.24
644.49	54738.11
644.69	54975.67
644.88	54910.14
645.08	54576.32
645.27	54553.79
645.46	54529.22
645.66	55227.57
645.85	54555.84
646.05	54748.35
646.24	54850.75
646.43	54785.21
646.63	55121.08
646.82	55667.89
647.02	54768.83
647.21	55278.77
647.40	54682.81
647.60	55559.34
647.79	55344.31
647.99	55180.47
648.18	54992.06
648.37	55602.35
648.57	55073.98
648.76	55065.78
648.96	55067.83
649.15	55444.66
649.34	55653.55
649.54	55669.93
649.73	55260.34
649.92	55391.41
650.12	55424.18
650.31	55508.14
650.51	55755.95
650.70	55903.40
650.89	55573.68
651.09	55803.05
651.28	55438.51
651.47	55426.23
651.67	55962.79
651.86	56163.50
652.06	55520.43
652.25	55637.17
652.44	55590.06
652.64	55663.79
652.83	55555.25
653.02	55792.81
653.22	56138.92
653.41	55743.66
653.60	55338.16
653.80	55579.82
653.99	55770.28
654.18	55463.09
654.38	55692.46
654.57	56089.77
654.76	55774.38
654.96	55944.36
655.15	55907.50
655.34	55684.27
655.54	55657.65
655.73	55932.07
655.92	55927.98
656.12	56124.58
656.31	55962.79
656.50	56005.80
656.70	55944.36
656.89	56040.62
657.08	55923.88
657.28	55862.44
657.47	56302.76
657.66	56429.73
657.86	55891.12
658.05	56732.83
658.24	56622.24
658.43	56079.53
658.63	56577.18
658.82	56476.83
659.01	56849.56
659.21	56775.84
659.40	56118.44
659.59	56343.72
659.79	57126.04
659.98	56994.97
660.17	56661.15
660.36	56546.47
660.56	56466.59
660.75	56829.08
660.94	56790.17
661.14	56925.34
661.33	56472.74
661.52	56681.63
661.71	56747.17
661.91	56464.55
662.10	56827.04
662.29	57119.90
662.49	56911.00
662.68	56890.52
662.87	57177.24
663.06	57132.18
663.26	56589.47
663.45	57261.21
663.64	56663.20
663.83	57537.68
664.03	57146.52
664.22	56816.80
664.41	57099.42
664.60	57087.13
664.80	57070.75
664.99	57212.06
665.18	56958.11
665.37	57318.55
665.57	57267.35
665.76	57111.70
665.95	57287.83
666.14	57144.47
666.34	57050.27
666.53	57119.90
666.72	57463.96
666.91	57189.53
667.11	56929.44
667.30	56999.07
667.49	56837.28
667.68	57132.18
667.87	57003.16
668.07	57324.69
668.26	57619.60
668.45	57664.66
668.64	56900.76
668.84	57898.12
669.03	57722.00
669.22	57627.79
669.41	57496.72
669.60	57365.65
669.80	57160.86
669.99	57767.05
670.18	57521.30
670.37	57701.52
670.57	58135.69
670.76	57597.07
670.95	57541.78
671.14	57267.35
671.33	57658.51
671.53	57963.66
671.72	57504.91
671.91	57683.09
672.10	57201.82
672.29	57373.84
672.48	57631.89
672.68	58131.59
672.87	57517.20
673.06	57023.64
673.25	57568.40
673.44	57701.52
673.64	57611.41
673.83	57240.73
674.02	57468.05
674.21	57234.58
674.40	57603.22
674.59	57375.89
674.79	57189.53
674.98	57201.82
675.17	57365.65
675.36	57461.91
675.55	57877.64
675.74	57498.77
675.94	57601.17
676.13	57601.17
676.32	58094.73
676.51	58305.67
676.70	57908.36
676.89	57752.72
677.08	58080.39
677.28	57506.96
677.47	58135.69
677.66	58092.68
677.85	57965.71
678.04	58102.92
678.23	58250.38
678.42	57824.40
678.62	57799.82
678.81	58143.88
679.00	57506.96
679.19	58588.29
679.38	57457.81
679.57	58000.52
679.76	57560.21
679.96	57681.04
680.15	58002.57
680.34	57732.24
680.53	57615.50
680.72	57668.75
680.91	58037.39
681.10	57722.00
681.29	57990.28
681.48	57967.76
681.68	58029.19
681.87	57771.15
682.06	57689.23
682.25	57244.82
682.44	57595.03
682.63	57619.60
682.82	57670.80
683.01	57748.62
683.20	57259.16
683.39	57711.76
683.59	57314.45
683.78	57513.11
683.97	57959.56
684.16	57160.86
684.35	57162.90
684.54	57445.52
684.73	57519.25
684.92	57402.52
685.11	57767.05
685.30	57207.96
685.49	57975.95
685.69	57828.49
685.88	57504.91
686.07	57390.23
686.26	57328.79
686.45	57627.79
686.64	57441.43
686.83	57318.55
687.02	57695.38
687.21	57570.45
687.40	57500.82
687.59	57547.92
687.78	57451.67
687.97	58229.90
688.16	57463.96
688.35	57451.67
688.54	57560.21
688.74	57535.63
688.93	57296.02
689.12	57271.45
689.31	57310.36
689.50	57638.03
689.69	57351.32
689.88	57007.26
690.07	57554.07
690.26	57164.95
690.45	57615.50
690.64	57087.13
690.83	57115.80
691.02	56913.05
691.21	57119.90
691.40	57121.94
691.59	56992.92
691.78	57158.81
691.97	57306.26
692.16	57044.12
692.35	57400.47
692.54	57222.29
692.73	57013.40
692.92	57308.31
693.11	56788.13
693.30	57023.64
693.49	56800.41
693.68	56878.24
693.87	56865.95
694.06	56767.65
694.25	56695.97
694.44	56620.19
694.63	56792.22
694.82	56788.13
695.01	57130.14
695.20	56829.08
695.39	56544.42
695.58	56833.18
695.77	56394.92
695.96	56685.73
696.15	56755.36
696.34	56540.32
696.53	56372.39
696.72	56779.93
696.91	56659.10
697.10	56841.37
697.29	56124.58
697.48	57017.50
697.67	56079.53
697.86	56089.77
698.05	55966.89
698.24	56337.57
698.43	55809.20
698.62	56265.89
698.81	56046.76
699.00	56409.25
699.19	56112.30
699.38	55946.41
699.57	55755.95
699.76	56114.34
699.95	56196.26
700.14	55682.22
700.32	55583.92
700.51	55663.79
700.70	56491.17
700.89	56186.02
701.08	56065.19
701.27	55901.36
701.46	56257.70
701.65	55194.81
701.84	55426.23
702.03	55721.13
702.22	55420.08
702.41	55645.36
702.60	56188.07
702.79	55616.69
702.98	55536.82
703.17	55469.23
703.35	55141.56
703.54	55323.83
703.73	55641.26
703.92	55149.75
704.11	55188.66
704.30	54938.81
704.49	55014.58
704.68	54742.20
704.87	55307.44
705.06	55078.07
705.25	55340.21
705.43	54969.53
705.62	54850.75
705.81	55143.61
706.00	55063.74
706.19	54856.89
706.38	54338.75
706.57	54752.44
706.76	54463.68
706.95	54793.40
707.14	54383.81
707.32	54684.86
707.51	54353.09
707.70	54211.78
707.89	54959.29
708.08	54959.29
708.27	54506.69
708.46	54928.57
708.65	54385.86
708.84	54631.61
709.02	54627.52
709.21	54244.55
709.40	54439.11
709.59	54107.33
709.78	54043.85
709.97	54715.58
710.16	53929.16
710.34	54138.05
710.53	54033.61
710.72	54017.22
710.91	54074.57
711.10	53935.30
711.29	54002.89
711.48	53488.85
711.66	53998.79
711.85	53687.50
712.04	53673.16
712.23	53728.46
712.42	53789.90
712.61	53845.19
712.80	53750.99
712.98	53914.83
713.17	53781.71
713.36	53433.55
713.55	53320.91
713.74	53038.29
713.93	53548.24
714.11	53707.98
714.30	52884.70
714.49	53286.10
714.68	53449.94
714.87	53619.92
715.06	53259.48
715.24	52872.41
715.43	53007.58
715.62	52864.22
715.81	52921.56
716.00	52946.14
716.18	52542.69
716.37	52782.30
716.56	52376.80
716.75	53083.35
716.94	52864.22
717.12	52428.00
717.31	52745.44
717.50	52868.31
717.69	52487.39
717.88	52597.98
718.06	52305.12
718.25	52767.96
718.44	52137.19
718.63	51985.64
718.82	52204.77
719.00	51805.42
719.19	52098.28
719.38	51670.25
719.57	51463.41
719.76	51451.12
719.94	51229.94
720.13	51885.29
720.32	51770.60
720.51	51612.91
720.69	51563.76
720.88	51246.32
721.07	51242.23
721.26	50943.22
721.44	51176.69
721.63	51086.58
721.82	51023.09
722.01	51039.48
722.20	51160.31
722.38	50846.97
722.57	50513.15
722.76	50500.86
722.95	50685.18
723.13	50275.58
723.32	50328.83
723.51	50195.71
723.70	49827.08
723.88	50261.25
724.07	49812.74
724.26	50398.46
724.44	49470.73
724.63	50148.61
724.82	50160.90
725.01	49898.76
725.19	49478.92
725.38	49657.10
725.57	49587.47
725.76	50150.66
725.94	49468.69
726.13	49382.67
726.32	49816.84
726.51	49370.38
726.69	49831.18
726.88	49548.56
727.07	49300.75
727.25	49558.80
727.44	49677.58
727.63	49458.45
727.82	49116.43
728.00	49552.65
728.19	49087.76
728.38	49251.60
728.56	48977.17
728.75	49390.86
728.94	49321.23
729.12	49458.45
729.31	49253.65
729.50	48989.46
729.69	49290.51
729.87	49149.20
730.06	49114.39
730.25	49460.49
730.43	49386.77
730.62	48626.97
730.81	49204.50
730.99	49132.82
731.18	48637.21
731.37	49196.31
731.55	49108.24
731.74	49108.24
731.93	49267.98
732.11	48772.38
732.30	48975.12
732.49	49198.35
732.67	48936.21
732.86	48891.16
733.05	49036.56
733.23	47961.38
733.42	48610.59
733.61	48669.98
733.79	48508.19
733.98	48807.19
734.17	48872.73
734.35	48788.76
734.54	48430.36
734.73	48588.06
734.91	48411.93
735.10	48407.84
735.29	48846.10
735.47	48211.23
735.66	48231.71
735.84	48311.58
736.03	48051.49
736.22	48330.01
736.40	47979.81
736.59	48536.86
736.78	48262.43
736.96	47926.56
737.15	47897.89
737.33	48082.21
737.52	48018.72
737.71	47783.21
737.89	47420.72
738.08	46871.86
738.27	47492.40
738.45	48241.95
738.64	47488.30
738.82	47592.75
739.01	47574.31
739.20	47865.13
739.38	47729.96
739.57	47658.28
739.75	48067.87
739.94	47086.90
740.13	47021.36
740.31	47605.03
740.50	47279.41
740.68	47445.29
740.87	47375.66
741.06	47500.59
741.24	47207.73
741.43	46744.89
741.61	46904.63
741.80	46789.94
741.99	47062.32
742.17	46996.79
742.36	46978.36
742.54	47093.04
742.73	46445.88
742.91	47486.25
743.10	47088.95
743.29	46902.58
743.47	46832.95
743.66	46601.53
743.84	46540.09
744.03	46556.47
744.21	46783.80
744.40	46972.21
744.59	46376.25
744.77	46443.84
744.96	46691.64
745.14	46609.72
745.33	46804.28
745.51	46671.16
745.70	46320.96
745.88	46249.28
746.07	46202.18
746.26	45968.71
746.44	46257.47
746.63	46320.96
746.81	45978.95
747.00	45722.95
747.18	46325.05
747.37	46251.33
747.55	45899.08
747.74	46523.71
747.92	45993.28
748.11	45593.93
748.29	45722.95
748.48	45913.41
748.66	45284.68
748.85	45581.64
749.03	45983.04
749.22	45550.92
749.41	45303.12
749.59	45669.70
749.78	45221.20
749.96	45008.21
750.15	45397.32
750.33	45225.29
750.52	45258.06
750.70	45118.80
750.89	44774.74
751.07	44973.39
751.26	45190.48
751.44	45217.10
751.63	44957.01
751.81	44619.10
752.00	44711.25
752.18	45069.65
752.37	44713.30
752.55	44451.16
752.74	44791.12
752.92	44928.34
753.10	44272.99
753.29	44959.06
753.47	44402.01
753.66	44250.46
753.84	44944.72
754.03	43941.22
754.21	43986.27
754.40	44588.38
754.58	44588.38
754.77	44234.08
754.95	44246.36
755.14	44096.86
755.32	44082.53
755.51	43967.84
755.69	43840.87
755.88	44045.66
756.06	43896.16
756.24	43683.17
756.43	43818.34
756.61	43875.68
756.80	43898.21
756.98	43797.86
757.17	43832.68
757.35	44225.89
757.54	43449.70
757.72	43904.35
757.90	43679.08
758.09	43316.59
758.27	43378.03
758.46	43343.21
758.64	43267.44
758.83	43476.33
759.01	43251.05
759.19	43500.90
759.38	43761.00
759.56	43488.62
759.75	43060.59
759.93	42872.18
760.12	42884.47
760.30	43238.76
760.48	42835.31
760.67	43158.89
760.85	43165.04
761.04	43187.56
761.22	43013.49
761.40	42827.12
761.59	43050.35
761.77	42259.84
761.96	42792.31
762.14	42591.61
762.32	42495.35
762.51	42696.05
762.69	42374.52
762.88	42577.27
763.06	42210.68
763.24	42249.60
763.43	42722.68
763.61	42149.24
763.80	42335.61
763.98	42069.37
764.16	42427.77
764.35	42171.77
764.53	41915.78
764.72	42030.46
764.90	41868.67
765.08	41991.55
765.27	42038.65
765.45	41764.23
765.63	41848.19
765.82	41911.68
766.00	41651.59
766.18	41516.42
766.37	42040.70
766.55	41794.95
766.74	41315.72
766.92	41432.46
767.10	41614.72
767.29	41420.17
767.47	41155.98
767.65	41612.68
767.84	41006.48
768.02	41317.77
768.20	41158.03
768.39	41332.11
768.57	41426.31
768.75	40906.13
768.94	41317.77
769.12	40850.83
769.30	40777.11
769.49	40951.18
769.67	40750.48
769.85	40547.73
770.04	40893.84
770.22	40750.48
770.40	40404.38
770.59	40596.88
770.77	40887.70
770.95	40662.42
771.14	40211.87
771.32	40254.87
771.50	40076.70
771.69	39994.78
771.87	40156.57
772.05	40095.13
772.24	39744.93
772.42	40211.87
772.60	40250.78
772.78	39992.73
772.97	39941.53
773.15	39753.12
773.33	39859.62
773.52	39789.98
773.70	39710.11
773.88	40228.25
774.07	39839.14
774.25	39892.38
774.43	39994.78
774.61	39789.98
774.80	39857.57
774.98	39712.16
775.16	40312.22
775.34	39849.38
775.53	39937.44
775.71	40469.91
775.89	39822.75
776.08	39839.14
776.26	40318.36
776.44	39820.70
776.62	39916.96
776.81	40078.75
776.99	40064.41
777.17	39921.05
777.35	40195.48
777.54	40379.80
777.72	40146.33
777.90	40062.36
778.08	40050.08
778.27	40127.90
778.45	40220.06
778.63	40246.68
778.81	39783.84
779.00	40924.56
779.18	40127.90
779.36	40547.73
779.54	40273.31
779.73	40400.28
779.91	40697.24
780.09	40383.90
780.27	40398.23
780.46	40371.61
780.64	40297.88
780.82	40285.59
781.00	40486.29
781.19	41162.12
781.37	40660.37
781.55	40600.98
781.73	40760.72
781.91	40435.10
782.10	40510.87
782.28	40719.76
782.46	40725.91
782.64	40779.15
782.82	40568.21
783.01	40639.89
783.19	40813.97
783.37	40961.42
783.55	41342.35
783.74	41133.45
783.92	41026.96
784.10	41246.09
784.28	40813.97
784.46	40410.52
784.64	40940.94
784.83	40994.19
785.01	41006.48
785.19	40828.30
785.37	41004.43
785.55	40648.08
785.74	40656.28
785.92	40281.50
786.10	40916.37
786.28	41037.20
786.46	40920.46
786.64	40408.47
786.83	40342.94
787.01	40693.14
787.19	40807.83
787.37	40846.74
787.55	40662.42
787.74	40285.59
787.92	40418.71
788.10	40244.63
788.28	40152.48
788.46	40392.09
788.64	40293.79
788.82	40879.50
789.01	39992.73
789.19	40203.67
789.37	40084.89
789.55	40328.60
789.73	39871.90
789.91	39916.96
790.09	39904.67
790.28	40123.80
790.46	39802.27
790.64	40218.01
790.82	39855.52
791.00	39546.28
791.18	39253.42
791.36	39814.56
791.55	39570.85
791.73	39269.80
791.91	39300.52
792.09	39302.57
792.27	39065.00
792.45	39292.33
792.63	38774.19
792.81	39091.63
793.00	38944.17
793.18	38673.84
793.36	38843.82
793.54	38524.34
793.72	38602.16
793.90	38710.71
794.08	38417.85
794.26	38510.00
794.44	38305.21
794.62	38112.70
794.81	38204.86
794.99	38501.81
795.17	38282.68
795.35	37852.61
795.53	37952.96
795.71	38014.40
795.89	37768.64
796.07	37944.76
796.25	37801.41
796.43	37385.67
796.61	37402.05
796.80	37410.25
796.98	37569.99
797.16	37410.25
797.34	37660.10
797.52	37223.88
797.70	37080.52
797.88	37096.91
798.06	37023.18
798.24	37029.32
798.42	37209.54
798.60	36816.33
798.78	36728.27
798.96	36926.92
799.14	35937.76
799.32	36754.90
799.51	36158.94
799.69	36462.04
799.87	36621.78
800.05	35931.61
800.23	36349.40
800.41	36171.22
800.59	35868.12
800.77	35882.46
800.95	35718.62
801.13	35843.55
801.31	35386.85
801.49	35648.99
801.67	35460.58
801.85	35870.17
802.03	35386.85
802.21	35284.45
802.39	35055.08
802.57	35194.34
802.75	35223.01
802.93	35253.73
803.11	34739.69
803.29	34854.38
803.47	34829.80
803.65	34823.66
803.83	34688.49
804.01	34647.54
804.19	33969.66
804.37	34524.66
804.55	34211.32
804.73	34559.47
804.91	34293.24
805.09	34145.78
805.27	34127.35
805.45	34461.17
805.63	34106.87
805.81	34360.82
805.99	34061.82
806.17	34205.17
806.35	34166.26
806.53	33861.12
806.71	33601.02
806.89	33654.27
807.07	33711.61
807.25	33682.94
807.43	33535.49
807.61	33932.79
807.79	33498.62
807.97	33080.84
808.15	33035.78
808.33	33230.34
808.51	33109.51
808.69	33424.90
808.87	32822.80
809.05	32810.51
809.23	32790.03
809.41	32708.11
809.59	32673.29
809.77	33011.21
809.95	32472.59
810.13	32699.92
810.31	32589.33
810.49	32685.58
810.67	32282.13
810.84	32699.92
811.02	32075.29
811.20	32157.21
811.38	32423.44
811.56	32017.94
811.74	32159.25
811.92	31815.19
812.10	31782.43
812.28	32063.00
812.46	32122.39
812.64	31950.36
812.82	31864.35
813.00	31735.32
813.18	31829.53
813.36	31723.04
813.53	31561.25
813.71	31657.50
813.89	31456.80
814.07	31551.01
814.25	31626.78
814.43	31446.56
814.61	31018.53
814.79	31479.33
814.97	31256.10
815.15	31297.06
815.33	30690.86
815.50	31184.42
815.68	31129.12
815.86	31176.23
816.04	31049.25
816.22	30547.50
816.40	30871.08
816.58	30561.84
816.76	30506.54
816.94	30580.27
817.11	30725.68
817.29	30565.93
817.47	30271.03
817.65	30537.26
817.83	30574.13
818.01	30463.54
818.19	30092.85
818.37	30293.55
818.54	30422.58
818.72	30152.24
818.90	29902.39
819.08	30060.09
819.26	30211.64
819.44	29830.71
819.62	29931.06
819.80	29771.32
819.97	29761.08
820.15	29961.78
820.33	29429.31
820.51	29849.14
820.69	29533.76
820.87	29617.72
821.05	29873.72
821.22	29863.48
821.40	29681.21
821.58	29392.45
821.76	29384.26
821.94	29417.02
822.12	29474.37
822.29	29431.36
822.47	29056.58
822.65	29425.22
822.83	29175.36
823.01	29353.54
823.19	29072.96
823.36	28978.76
823.54	29095.49
823.72	28968.52
823.90	28980.81
824.08	28712.52
824.25	28866.12
824.43	28808.78
824.61	28593.74
824.79	28530.25
824.97	28659.27
825.15	28665.42
825.32	28407.37
825.50	28560.97
825.68	28669.51
825.86	28976.71
826.04	28913.22
826.21	28171.86
826.39	28567.12
826.57	28390.99
826.75	28044.88
826.93	28288.59
827.10	28229.20
827.28	28415.57
827.46	28161.62
827.64	28180.05
827.81	28212.82
827.99	28247.63
828.17	27942.49
828.35	28106.32
828.53	28180.05
828.70	27827.80
828.88	27774.55
829.06	27700.83
829.24	28057.17
829.41	27590.24
829.59	27840.09
829.77	27754.07
829.95	27784.79
830.12	27491.93
830.30	27661.91
830.48	27948.63
830.66	27895.38
830.84	27782.74
831.01	27264.61
831.19	27379.29
831.37	27293.28
831.55	27233.89
831.72	27301.47
831.90	27344.48
832.08	27786.84
832.25	27457.12
832.43	27555.42
832.61	27336.29
832.79	27248.22
832.96	27106.91
833.14	27055.72
833.32	27258.46
833.50	27244.13
833.67	27231.84
833.85	26799.72
834.03	26881.64
834.20	27154.02
834.38	27151.97
834.56	27156.07
834.74	26744.42
834.91	26959.46
835.09	26855.01
835.27	26586.73
835.44	26754.66
835.62	26308.21
835.80	26728.04
835.98	26779.24
836.15	26334.83
836.33	26195.57
836.51	26787.43
836.68	26179.18
836.86	26418.80
837.04	26760.81
837.21	26142.32
837.39	26515.05
837.57	26719.85
837.75	26627.69
837.92	26318.45
838.10	26330.73
838.28	26107.51
838.45	26107.51
838.63	25728.63
838.81	26111.60
838.98	25978.48
839.16	25677.43
839.34	25933.43
839.51	25738.87
839.69	25984.63
839.87	25720.44
840.04	25753.21
840.22	25871.99
840.40	25636.47
840.57	25534.07
840.75	25960.05
840.93	25327.23
841.10	25575.03
841.28	26023.54
841.46	25642.62
841.63	25937.52
841.81	25589.37
841.98	25300.61
842.16	25794.17
842.34	25605.75
842.51	25251.45
842.69	25695.86
842.87	25638.52
843.04	25364.09
843.22	25132.67
843.40	25151.10
843.57	25216.64
843.75	25511.55
843.92	25321.09
844.10	25290.37
844.28	25237.12
844.45	25392.76
844.63	25419.39
844.81	25134.72
844.98	24954.50
845.16	24839.81
845.33	24970.88
845.51	24671.88
845.69	25153.15
845.86	24977.03
846.04	24901.25
846.21	24637.06
846.39	24512.14
846.57	24768.13
846.74	24678.02
846.92	24589.96
847.09	24729.22
847.27	24534.67
847.45	24581.77
847.62	24532.62
847.80	24692.36
847.97	24700.55
848.15	24974.98
848.32	24501.90
848.50	24561.29
848.68	24389.26
848.85	24383.12
849.03	23903.89
849.20	24352.40
849.38	24243.85
849.56	24415.88
849.73	23979.67
849.91	24098.45
850.08	24493.71
850.26	24123.02
850.43	24200.85
850.61	24174.22
850.78	23508.63
850.96	23985.81
851.14	23756.44
851.31	24131.22
851.49	23867.03
851.66	24104.59
851.84	23819.92
852.01	23826.07
852.19	24075.92
852.36	23752.34
852.54	23574.17
852.71	23854.74
852.89	23539.35
853.07	23692.95
853.24	23690.90
853.42	23758.49
853.59	23486.11
853.77	23727.77
853.94	23633.56
854.12	23852.69
854.29	23287.45
854.47	23563.93
854.64	23535.26
854.82	23140.00
854.99	23543.45
855.17	23471.77
855.34	23369.37
855.52	23148.19
855.69	23226.01
855.87	23123.62
856.04	23221.92
856.22	23160.48
856.39	23170.72
856.57	23047.84
856.74	23021.22
856.92	22816.42
857.09	22877.86
857.27	23096.99
857.44	23078.56
857.62	23015.07
857.79	23111.33
857.97	22947.49
858.14	22988.45
858.32	23211.68
858.49	22777.51
858.67	22806.18
858.84	22599.34
859.02	22679.21
859.19	22812.32
859.37	22591.14
859.54	22558.38
859.72	22541.99
859.89	22720.17
860.06	22617.77
860.24	22566.57
860.41	22539.94
860.59	22552.23
860.76	22492.84
860.94	22183.60
861.11	22619.81
861.29	22412.97
861.46	22042.29
861.64	22187.69
861.81	22197.93
861.98	22378.15
862.16	22197.93
862.33	21927.60
862.51	22347.44
862.68	22038.19
862.86	22089.39
863.03	22148.78
863.21	21864.11
863.38	21579.45
863.55	21993.14
863.73	21995.18
863.90	22070.96
864.08	21829.30
864.25	21618.36
864.43	21757.62
864.60	21599.93
864.77	21692.08
864.95	21595.83
865.12	21360.31
865.30	21698.23
865.47	21411.51
865.64	21501.62
865.82	21802.68
865.99	21804.72
866.17	21419.71
866.34	21323.45
866.51	21073.60
866.69	21448.38
866.86	21364.41
867.04	21280.44
867.21	21233.34
867.38	21339.83
867.56	21008.06
867.73	21173.95
867.91	21165.76
868.08	21024.45
868.25	20793.03
868.43	21155.52
868.60	20930.24
868.78	20637.38
868.95	20971.20
869.12	20768.45
869.30	20756.16
869.47	20670.15
869.64	20637.38
869.82	20750.02
869.99	20657.86
870.16	20905.66
870.34	20606.66
870.51	20817.60
870.69	20543.17
870.86	20575.94
871.03	20577.99
871.21	20532.93
871.38	20440.78
871.55	20207.31
871.73	20264.65
871.90	20176.59
872.07	19996.37
872.25	20061.90
872.42	20238.03
872.59	19988.18
872.77	20227.79
872.94	19953.36
873.11	20164.30
873.29	20326.09
873.46	20061.90
873.63	19779.28
873.81	20078.29
873.98	19930.83
874.15	19893.97
874.33	19572.44
874.50	19611.35
874.67	19674.84
874.85	19459.80
875.02	19578.58
875.19	19398.36
875.37	19463.90
875.54	19515.09
875.71	19463.90
875.88	19330.78
876.06	19177.18
876.23	19099.36
876.40	19054.30
876.58	19173.08
876.75	19039.97
876.92	18984.67
877.10	18939.62
877.27	18984.67
877.44	18974.43
877.61	19031.77
877.79	18740.96
877.96	18771.68
878.13	18806.50
878.31	18403.05
878.48	18681.57
878.65	18552.55
878.82	18591.46
879.00	18919.14
879.17	18480.87
879.34	18736.87
879.51	18628.32
879.69	18519.78
879.86	18204.39
880.03	18460.39
880.21	18394.86
880.38	18177.77
880.55	18505.45
880.72	18294.50
880.90	18132.72
881.07	18126.57
881.24	18216.68
881.41	18271.98
881.59	18126.57
881.76	17934.06
881.93	18056.94
882.10	17809.14
882.28	17993.45
882.45	17977.07
882.62	17676.02
882.79	18056.94
882.96	17712.88
883.14	18013.93
883.31	17805.04
883.48	17620.72
883.65	17762.03
883.83	17741.55
884.00	17708.79
884.17	17676.02
884.34	17585.91
884.51	17725.17
884.69	17573.62
884.86	17639.15
885.03	17669.87
885.20	17573.62
885.38	17755.89
885.55	17467.13
885.72	17268.47
885.89	17389.30
886.06	17354.49
886.24	17626.87
886.41	17149.69
886.58	17381.11
886.75	17483.51
886.92	17262.33
887.10	17499.89
887.27	17247.99
887.44	17164.03
887.61	17319.67
887.78	17329.91
887.95	17325.82
888.13	17004.28
888.30	17049.34
888.47	17000.19
888.64	17131.26
888.81	17078.01
888.99	16703.23
889.16	16418.57
889.33	16834.30
889.50	16889.60
889.67	16795.39
889.84	16715.52
890.01	16703.23
890.19	16738.05
890.36	16889.60
890.53	16801.54
890.70	16346.89
890.87	16637.70
891.04	16629.51
891.22	16613.12
891.39	16551.68
891.56	16424.71
891.73	16463.62
891.90	16570.12
892.07	16279.30
892.24	16563.97
892.42	16267.02
892.59	16400.13
892.76	16228.10
892.93	16307.98
893.10	16471.81
893.27	16234.25
893.44	16019.21
893.61	15986.44
893.79	16129.80
893.96	16267.02
894.13	16277.26
894.30	16295.69
894.47	15920.91
894.64	16342.79
894.81	15982.35
894.98	16383.75
895.15	16326.41
895.33	16168.71
895.50	16125.71
895.67	16176.91
895.84	15978.25
896.01	16041.74
896.18	15992.59
896.35	16062.22
896.52	15970.06
896.69	15910.67
896.86	15884.05
897.04	16064.27
897.21	15961.87
897.38	15812.37
897.55	15859.47
897.72	16017.16
897.89	15798.03
898.06	15789.84
898.23	15838.99
898.40	15802.13
898.57	15875.85
898.74	15685.39
898.91	15662.86
899.08	15920.91
899.26	15925.00
899.43	15859.47
899.60	15738.64
899.77	15773.46
899.94	15740.69
900.11	15517.46
900.28	15599.38
900.45	15726.35
900.62	15589.14
900.79	15836.94
900.96	15718.16
901.13	15757.07
901.30	15888.14
901.47	15687.44
901.64	15531.80
901.81	15695.63
901.98	15353.62
902.15	15843.09
902.32	15539.99
902.49	15531.80
902.66	15841.04
902.83	15755.02
903.01	15558.42
903.18	15806.22
903.35	15728.40
903.52	15650.58
903.69	15560.47
903.86	15683.34
904.03	15699.73
904.20	15734.54
904.37	15580.95
904.54	15642.39
904.71	15634.19
904.88	15574.80
905.05	15312.66
905.22	15564.56
905.39	15603.47
905.56	15542.03
905.73	15763.22
905.90	15621.91
906.07	15492.88
906.24	15812.37
906.41	15458.07
906.58	15578.90
906.75	15421.20
906.92	15542.03
907.09	15402.77
907.26	15560.47
907.43	15439.64
907.60	15195.93
907.77	15572.75
907.93	15306.52
908.10	15398.68
908.27	15466.26
908.44	15355.67
908.61	15191.83
908.78	15470.36
908.95	15544.08
909.12	15300.37
909.29	15134.49
909.46	15253.27
909.63	15445.78
909.80	15263.51
909.97	15535.89
910.14	15318.81
910.31	15181.59
910.48	15165.21
910.65	15367.96
910.82	15253.27
910.99	15228.70
911.16	15238.94
911.33	15206.17
911.50	15312.66
911.66	15245.08
911.83	15202.07
912.00	15027.99
912.17	14966.56
912.34	15034.14
912.51	15089.43
912.68	15046.43
912.85	14946.08
913.02	15066.91
913.19	14896.92
913.36	14915.36
913.53	14935.84
913.70	14790.43
913.86	15007.52
914.03	14765.85
914.20	14690.08
914.37	14710.56
914.54	14683.94
914.71	14751.52
914.88	14602.02
915.05	14505.76
915.22	14655.26
915.39	14647.07
915.55	14473.00
915.72	14364.45
915.89	14380.84
916.06	14288.68
916.23	14237.48
916.40	14270.25
916.57	14169.90
916.74	14260.01
916.91	14133.03
917.07	14157.61
917.24	14171.94
917.41	14040.87
917.58	13934.38
917.75	13848.36
917.92	13864.75
918.09	14087.98
918.26	13819.69
918.42	13797.17
918.59	13655.86
918.76	13608.75
918.93	13535.03
919.10	13688.62
919.27	13719.34
919.44	13717.29
919.60	13424.44
919.77	13621.04
919.94	13315.89
920.11	13551.41
920.28	13426.48
920.45	13418.29
920.61	13500.21
920.78	13229.88
920.95	13295.41
921.12	13121.34
921.29	12898.11
921.46	13107.00
921.62	12842.81
921.79	13023.03
921.96	12734.27
922.13	12988.22
922.30	12873.53
922.47	12840.76
922.63	12523.33
922.80	12658.49
922.97	12629.82
923.14	12459.84
923.31	12570.43
923.47	12414.79
923.64	12658.49
923.81	12310.34
923.98	12431.17
924.15	12093.26
924.32	12480.32
924.48	12158.79
924.65	12384.07
924.82	12042.06
924.99	12011.34
925.15	12074.82
925.32	12216.13
925.49	11988.81
925.66	11908.94
925.83	11892.55
925.99	11784.01
926.16	11949.90
926.33	11849.55
926.50	11548.50
926.67	11530.06
926.83	11622.22
927.00	11444.05
927.17	11421.52
927.34	11263.83
927.50	11403.09
927.67	11372.37
927.84	11278.16
928.01	11011.93
928.17	11179.86
928.34	11216.72
928.51	11165.53
928.68	11093.85
928.84	11022.17
929.01	10952.54
929.18	10915.67
929.35	10872.67
929.51	10962.78
929.68	10762.08
929.85	10690.40
930.02	10653.53
930.18	10741.60
930.35	10729.31
930.52	10516.32
930.69	10710.88
930.85	10612.57
931.02	10311.52
931.19	10338.15
931.36	10325.86
931.52	10358.63
931.69	10501.98
931.86	10125.16
932.02	10188.64
932.19	10096.49
932.36	10039.14
932.53	10151.78
932.69	9897.83
932.86	10131.30
933.03	9723.76
933.19	9512.81
933.36	9746.28
933.53	9893.74
933.70	9715.56
933.86	9797.48
934.03	9430.90
934.20	9342.83
934.36	9613.17
934.53	9160.56
934.70	9281.39
934.86	9164.66
935.03	9146.23
935.20	9162.61
935.36	9011.06
935.53	8920.95
935.70	9090.93
935.86	8873.85
936.03	8636.28
936.20	8626.04
936.36	8529.79
936.53	8619.90
936.70	8523.65
936.86	8644.48
937.03	8396.67
937.20	8208.26
937.36	8427.39
937.53	8013.70
937.70	8040.33
937.86	7911.30
938.03	7864.20
938.20	7890.82
938.36	7761.80
938.53	7796.62
938.70	7501.71
938.86	7491.47
939.03	7350.16
939.20	7309.20
939.36	7307.15
939.53	7098.26
939.70	7280.53
939.86	6938.52
940.03	6948.76
940.19	6752.15
940.36	6829.98
940.53	6799.26
940.69	6557.60
940.86	6621.08
941.03	6639.51
941.19	6313.89
941.36	6418.33
941.52	6430.62
941.69	6363.04
941.86	6330.27
942.02	6236.06
942.19	6066.08
942.35	6096.80
942.52	5957.54
942.69	6018.98
942.85	5717.93
943.02	5875.62
943.18	5939.11
943.35	5769.13
943.52	5625.77
943.68	5750.70
943.85	5775.27
944.01	5638.06
944.18	5578.67
944.35	5648.30
944.51	5509.04
944.68	5511.08
944.84	5408.69
945.01	5470.12
945.17	5562.28
945.34	5558.19
945.51	5562.28
945.67	5320.62
945.84	5459.88
946.00	5343.15
946.17	5339.05
946.33	5347.25
946.50	5357.49
946.67	5253.04
946.83	5283.76
947.00	5347.25
947.16	5402.54
947.33	5334.96
947.49	5263.28
947.66	5218.22
947.82	5218.22
947.99	5257.14
948.16	5386.16
948.32	5273.52
948.49	5337.01
948.65	5261.23
948.82	5201.84
948.98	5271.47
949.15	5111.73
949.31	5304.24
949.48	5193.65
949.64	5269.42
949.81	5197.74
949.97	5134.26
950.14	5351.34
950.30	5207.98
950.47	5263.28
950.63	5228.46
950.80	5265.33
950.96	5248.94
951.13	5289.90
951.30	5431.21
951.46	5425.07
951.63	5341.10
951.79	5459.88
951.96	5312.43
952.12	5361.58
952.29	5398.45
952.45	5210.03
952.62	5322.67
952.78	5177.26
952.94	5353.39
953.11	5244.85
953.27	5230.51
953.44	5468.08
953.60	5408.69
953.77	5517.23
953.93	5492.65
954.10	5541.80
954.26	5273.52
954.43	5367.73
954.59	5431.21
954.76	5478.32
954.92	5377.97
955.09	5554.09
955.25	5388.21
955.42	5330.86
955.58	5468.08
955.75	5488.56
955.91	5382.06
956.07	5443.50
956.24	5451.69
956.40	5330.86
956.57	5490.60
956.73	5345.20
956.90	5463.98
957.06	5320.62
957.23	5406.64
957.39	5294.00
957.56	5445.55
957.72	5259.18
957.88	5236.66
958.05	5429.17
958.21	5484.46
958.38	5396.40
958.54	5361.58
958.71	5398.45
958.87	5308.34
959.03	5283.76
959.20	5451.69
959.36	5248.94
959.53	5308.34
959.69	5349.29
959.85	5330.86
960.02	5400.49
960.18	5332.91
960.35	5410.73
960.51	5570.48
960.68	5291.95
960.84	5437.36
961.00	5453.74
961.17	5234.61
961.33	5375.92
961.50	5447.60
961.66	5416.88
961.82	5425.07
961.99	5570.48
962.15	5451.69
962.31	5400.49
962.48	5277.62
962.64	5271.47
962.81	5257.14
962.97	5492.65
963.13	5429.17
963.30	5347.25
963.46	5324.72
963.62	5291.95
963.79	5332.91
963.95	5257.14
964.12	5341.10
964.28	5498.80
964.44	5310.38
964.61	5269.42
964.77	5271.47
964.93	5509.04
965.10	5316.53
965.26	5287.86
965.42	5244.85
965.59	5105.59
965.75	5312.43
965.92	5316.53
966.08	5277.62
966.24	5236.66
966.41	5226.42
966.57	5193.65
966.73	5263.28
966.90	5330.86
967.06	5248.94
967.22	5234.61
967.39	5216.18
967.55	5240.75
967.71	5173.17
967.88	5091.25
968.04	5058.48
968.20	5132.21
968.37	4855.73
968.53	5140.40
968.69	5130.16
968.85	5097.39
969.02	5242.80
969.18	4976.56
969.34	5134.26
969.51	5117.87
969.67	5062.58
969.83	4863.93
970.00	5017.52
970.16	4947.89
970.32	5046.20
970.48	5140.40
970.65	4962.23
970.81	4974.52
970.97	4933.56
971.14	4933.56
971.30	5023.67
971.46	5011.38
971.63	4876.21
971.79	4906.93
971.95	4929.46
972.11	4761.53
972.28	4956.08
972.44	4777.91
972.60	4839.35
972.76	4798.39
972.93	4804.53
973.09	4892.60
973.25	4929.46
973.42	4765.62
973.58	4898.74
973.74	4880.31
973.90	4777.91
974.07	4736.95
974.23	4851.64
974.39	4868.02
974.55	4753.34
974.72	4851.64
974.88	4755.38
975.04	4728.76
975.20	4714.42
975.37	4652.98
975.53	4659.13
975.69	4691.90
975.85	4624.31
976.01	4677.56
976.18	4618.17
976.34	4573.11
976.50	4650.94
976.66	4755.38
976.83	4554.68
976.99	4665.27
977.15	4566.97
977.31	4476.86
977.47	4566.97
977.64	4671.42
977.80	4591.55
977.96	4526.01
978.12	4538.30
978.29	4462.52
978.45	4523.96
978.61	4444.09
978.77	4534.20
978.93	4421.56
979.10	4476.86
979.26	4423.61
979.42	4550.59
979.58	4378.56
979.74	4364.22
979.91	4532.15
980.07	4335.55
980.23	4429.76
980.39	4278.21
980.55	4353.98
980.71	4276.16
980.88	4374.46
981.04	4468.67
981.20	4272.06
981.36	4335.55
981.52	4331.45
981.68	4296.64
981.85	4392.89
982.01	4169.66
982.17	4313.02
982.33	4411.32
982.49	4296.64
982.65	4224.96
982.82	4247.49
982.98	4181.95
983.14	4179.90
983.30	4179.90
983.46	4233.15
983.62	4263.87
983.79	4091.84
983.95	4128.70
984.11	4161.47
984.27	4110.27
984.43	3975.11
984.59	4212.67
984.75	4196.29
984.91	4116.42
985.08	4196.29
985.24	3993.54
985.40	3952.58
985.56	4122.56
985.72	4155.33
985.88	4059.07
986.04	4018.11
986.20	3870.66
986.37	4001.73
986.53	3934.15
986.69	3934.15
986.85	3893.19
987.01	4097.99
987.17	4038.59
987.33	3950.53
987.49	3944.39
987.65	3936.20
987.82	3938.24
987.98	3760.07
988.14	4007.87
988.30	3985.35
988.46	3952.58
988.62	3948.48
988.78	3823.56
988.94	3903.43
989.10	3796.93
989.26	3768.26
989.42	3805.13
989.59	3633.10
989.75	3755.97
989.91	3846.09
990.07	3712.97
990.23	3651.53
990.39	3841.99
990.55	3778.50
990.71	3702.73
990.87	3665.86
991.03	3784.65
991.19	3610.57
991.35	3610.57
991.51	3719.11
991.67	3749.83
991.83	3653.58
992.00	3618.76
992.16	3690.44
992.32	3700.68
992.48	3665.86
992.64	3598.28
992.80	3567.56
992.96	3620.81
993.12	3639.24
993.28	3674.06
993.44	3614.66
993.60	3583.95
993.76	3626.95
993.92	3588.04
994.08	3686.34
994.24	3592.14
994.40	3475.40
994.56	3745.73
994.72	3420.11
994.88	3397.58
995.04	3522.51
995.20	3459.02
995.36	3432.40
995.52	3477.45
995.68	3493.83
995.84	3432.40
996.00	3561.42
996.16	3452.88
996.32	3270.61
996.48	3430.35
996.64	3540.94
996.80	3420.11
996.96	3436.49
997.12	3442.64
997.28	3370.96
997.44	3346.38
997.60	3307.47
997.76	3344.33
997.92	3377.10
998.08	3325.90
998.24	3317.71
998.40	3360.72
998.56	3356.62
998.72	3330.00
998.88	3289.04
999.04	3260.37
999.20	3332.05
999.36	3262.41
999.52	3434.44
999.68	3215.31
999.84	3235.79
1000.00	3370.96
1000.16	3248.08
1000.32	3145.68
1000.48	3315.66
1000.64	3141.58
1000.80	3035.09
1000.95	3164.11
1001.11	3276.75
1001.27	3078.10
1001.43	3123.15
1001.59	3055.57
1001.75	3063.76
1001.91	3217.36
1002.07	3098.58
1002.23	3133.39
1002.39	3012.56
1002.55	3106.77
1002.71	3160.02
1002.87	3108.82
1003.03	3047.38
1003.19	2965.46
1003.34	3030.99
1003.50	3125.20
1003.66	3059.67
1003.82	3020.75
1003.98	3057.62
1004.14	2981.84
1004.30	3057.62
1004.46	2983.89
1004.62	2957.27
1004.78	2998.23
1004.94	2987.99
1005.09	3082.19
1005.25	2992.08
1005.41	2949.08
1005.57	2904.02
1005.73	2973.65
1005.89	2951.12
1006.05	3000.27
1006.21	2928.60
1006.37	2848.72
1006.52	2824.15
1006.68	2858.96
1006.84	3100.62
1007.00	2826.20
1007.16	2961.36
1007.32	2809.81
1007.48	2971.60
1007.64	2883.54
1007.79	2824.15
1007.95	2830.29
1008.11	2912.21
1008.27	2811.86
1008.43	2799.57
1008.59	2789.33
1008.75	2906.07
1008.91	2731.99
1009.06	2842.58
1009.22	2834.39
1009.38	2770.90
1009.54	2846.68
1009.70	2731.99
1009.86	2682.84
1010.01	2752.47
1010.17	2727.89
1010.33	2762.71
1010.49	2715.61
1010.65	2795.48
1010.81	2637.78
1010.96	2742.23
1011.12	2625.50
1011.28	2609.11
1011.44	2768.85
1011.60	2639.83
1011.76	2639.83
1011.91	2656.22
1012.07	2635.74
1012.23	2592.73
1012.39	2658.26
1012.55	2699.22
1012.71	2643.93
1012.86	2584.54
1013.02	2607.06
1013.18	2527.19
1013.34	2578.39
1013.50	2684.89
1013.65	2617.30
1013.81	2496.47
1013.97	2574.30
1014.13	2602.97
1014.29	2605.02
1014.44	2701.27
1014.60	2502.62
1014.76	2504.67
1014.92	2547.67
1015.07	2592.73
1015.23	2557.91
1015.39	2482.14
1015.55	2473.95
1015.71	2502.62
1015.86	2480.09
1016.02	2396.12
1016.18	2457.56
1016.34	2484.19
1016.49	2500.57
1016.65	2570.20
1016.81	2502.62
1016.97	2519.00
1017.12	2494.43
1017.28	2459.61
1017.44	2383.84
1017.60	2453.47
1017.75	2541.53
1017.91	2377.69
1018.07	2488.28
1018.23	2435.03
1018.38	2342.88
1018.54	2381.79
1018.70	2418.65
1018.86	2279.39
1019.01	2369.50
1019.17	2363.36
1019.33	2426.84
1019.49	2512.86
1019.64	2416.60
1019.80	2340.83
1019.96	2353.12
1020.12	2361.31
1020.27	2273.25
1020.43	2381.79
1020.59	2379.74
1020.74	2332.64
1020.90	2273.25
1021.06	2332.64
1021.22	2365.40
1021.37	2367.45
1021.53	2344.92
1021.69	2373.60
1021.84	2238.43
1022.00	2326.49
1022.16	2207.71
1022.31	2297.82
1022.47	2293.72
1022.63	2389.98
1022.79	2269.15
1022.94	2224.09
1023.10	2428.89
1023.26	2267.10
1023.41	2232.29
1023.57	2273.25
1023.73	2275.29
1023.88	2207.71
1024.04	2232.29
1024.20	2230.24
1024.35	2263.01
1024.51	2275.29
1024.67	2201.57
1024.82	2250.72
1024.98	2179.04
1025.14	2303.96
1025.29	2269.15
1025.45	2240.48
1025.61	2168.80
1025.76	2267.10
1025.92	2150.37
1026.08	2148.32
1026.23	2197.47
1026.39	2301.92
1026.55	2189.28
1026.70	2146.27
1026.86	2121.70
1027.02	2193.37
1027.17	2107.36
1027.33	2142.18
1027.48	2152.42
1027.64	2121.70
1027.80	2138.08
1027.95	2236.38
1028.11	2080.74
1028.27	2199.52
1028.42	2269.15
1028.58	2093.02
1028.73	2088.93
1028.89	2103.26
1029.05	2156.51
1029.20	2121.70
>>>>>End Processed Spectral Data<<<<<
