SpectraSuite Data File
++++++++++++++++++++++++++++++++++++
Date: Fri Jun 02 14:53:28 CEST 2017
User: INFO_000
Dark Spectrum Present: No
Reference Spectrum Present: No
Number of Sampled Component Spectra: 1
Spectrometers: USB4H00879
Integration Time (usec): 80000 (USB4H00879)
Spectra Averaged: 1 (USB4H00879)
Boxcar Smoothing: 0 (USB4H00879)
Correct for Electrical Dark: No (USB4H00879)
Strobe/Lamp Enabled: No (USB4H00879)
Correct for Detector Non-linearity: No (USB4H00879)
Correct for Stray Light: No (USB4H00879)
Number of Pixels in Processed Spectrum: 3648
>>>>>Begin Processed Spectral Data<<<<<
345.13	1232.88
345.34	1232.88
345.56	1232.88
345.78	1284.08
345.99	1257.45
346.21	1789.92
346.42	1716.20
346.64	1650.66
346.86	1832.93
347.07	1658.85
347.29	1615.85
347.50	1695.72
347.72	1677.29
347.94	1751.01
348.15	1613.80
348.37	1658.85
348.59	1699.81
348.80	1683.43
349.02	1714.15
349.23	1746.92
349.45	1787.88
349.67	1814.50
349.88	1691.62
350.10	1929.19
350.31	1773.54
350.53	1767.40
350.75	1939.43
350.96	1634.28
351.18	1789.92
351.39	1785.83
351.61	1748.97
351.82	1798.12
352.04	1818.60
352.26	1804.26
352.47	1859.56
352.69	1822.69
352.90	1753.06
353.12	1863.65
353.34	1779.68
353.55	1851.36
353.77	1724.39
353.98	1783.78
354.20	1820.64
354.41	1863.65
354.63	1789.92
354.85	1984.48
355.06	1820.64
355.28	1781.73
355.49	1853.41
355.71	1828.84
355.92	1806.31
356.14	1804.26
356.35	1808.36
356.57	1812.45
356.79	1812.45
357.00	1763.30
357.22	1986.53
357.43	1839.08
357.65	1896.42
357.86	1738.73
358.08	1787.88
358.29	1824.74
358.51	1964.00
358.72	2004.96
358.94	1820.64
359.16	1908.71
359.37	1802.21
359.59	1890.28
359.80	2025.44
360.02	1906.66
360.23	1896.42
360.45	1970.15
360.66	1830.88
360.88	1746.92
361.09	1822.69
361.31	1802.21
361.52	1789.92
361.74	1986.53
361.95	1988.58
362.17	1902.56
362.38	1988.58
362.60	2076.64
362.81	1886.18
363.03	1875.94
363.24	1843.17
363.46	2019.30
363.67	2000.87
363.89	1918.95
364.10	1992.67
364.32	1834.98
364.53	1888.23
364.75	1802.21
364.96	1927.14
365.18	2007.01
365.39	2025.44
365.61	1892.32
365.82	1990.63
366.04	1978.34
366.25	1916.90
366.47	2004.96
366.68	2029.54
366.90	1890.28
367.11	2078.69
367.33	2029.54
367.54	2047.97
367.76	1994.72
367.97	2115.55
368.19	2050.02
368.40	1978.34
368.62	1906.66
368.83	1957.86
369.05	1931.23
369.26	1898.47
369.48	1855.46
369.69	1957.86
369.91	1974.24
370.12	1941.47
370.33	1966.05
370.55	1886.18
370.76	1943.52
370.98	2019.30
371.19	2002.91
371.41	1986.53
371.62	2002.91
371.84	1918.95
372.05	2043.87
372.27	1920.99
372.48	1959.91
372.69	2037.73
372.91	2076.64
373.12	2086.88
373.34	1929.19
373.55	2060.26
373.77	2074.59
373.98	2019.30
374.20	2193.37
374.41	2181.09
374.62	2125.79
374.84	2119.65
375.05	2123.74
375.27	2152.42
375.48	2179.04
375.70	2121.70
375.91	2140.13
376.12	2248.67
376.34	2088.93
376.55	2107.36
376.77	2254.81
376.98	2168.80
377.19	2025.44
377.41	2070.50
377.62	2160.61
377.84	2263.01
378.05	2361.31
378.27	2193.37
378.48	2293.72
378.69	2312.16
378.91	2228.19
379.12	2250.72
379.34	2162.66
379.55	2248.67
379.76	2115.55
379.98	2195.42
380.19	2232.29
380.41	2234.33
380.62	2314.20
380.83	2252.77
381.05	2224.09
381.26	2414.56
381.47	2242.53
381.69	2281.44
381.90	2338.78
382.12	2158.56
382.33	2277.34
382.54	2265.05
382.76	2295.77
382.97	2355.16
383.19	2148.32
383.40	2318.30
383.61	2330.59
383.83	2283.49
384.04	2336.73
384.25	2322.40
384.47	2379.74
384.68	2369.50
384.89	2394.08
385.11	2334.68
385.32	2318.30
385.54	2316.25
385.75	2275.29
385.96	2398.17
386.18	2471.90
386.39	2396.12
386.60	2398.17
386.82	2367.45
387.03	2439.13
387.24	2490.33
387.46	2463.71
387.67	2428.89
387.88	2488.28
388.10	2519.00
388.31	2418.65
388.52	2523.10
388.74	2519.00
388.95	2539.48
389.16	2529.24
389.38	2539.48
389.59	2494.43
389.80	2547.67
390.02	2582.49
390.23	2576.34
390.44	2609.11
390.66	2531.29
390.87	2592.73
391.08	2529.24
391.30	2623.45
391.51	2531.29
391.72	2598.87
391.94	2684.89
392.15	2613.21
392.36	2625.50
392.58	2652.12
392.79	2715.61
393.00	2658.26
393.22	2727.89
393.43	2688.98
393.64	2920.40
393.85	2842.58
394.07	2688.98
394.28	2707.41
394.49	2785.24
394.71	2815.96
394.92	2918.36
395.13	2725.85
395.35	2715.61
395.56	2729.94
395.77	2916.31
395.98	2926.55
396.20	2934.74
396.41	2854.87
396.62	2852.82
396.84	2824.15
397.05	2740.18
397.26	2846.68
397.47	2951.12
397.69	2846.68
397.90	2975.70
398.11	2865.11
398.32	2918.36
398.54	2811.86
398.75	2904.02
398.96	2926.55
399.18	3127.25
399.39	3100.62
399.60	3145.68
399.81	3010.51
400.03	2983.89
400.24	3334.09
400.45	2965.46
400.66	3092.43
400.88	3024.85
401.09	3174.35
401.30	3127.25
401.51	3110.86
401.73	3084.24
401.94	3174.35
402.15	3182.54
402.36	3139.54
402.58	3155.92
402.79	3076.05
403.00	3258.32
403.21	3319.76
403.43	3194.83
403.64	3248.08
403.85	3176.40
404.06	3260.37
404.27	3157.97
404.49	3143.63
404.70	3252.17
404.91	3305.42
405.12	3295.18
405.34	3297.23
405.55	3483.59
405.76	3254.22
405.97	3192.78
406.19	3487.69
406.40	3203.02
406.61	3346.38
406.82	3377.10
407.03	3405.77
407.25	3422.16
407.46	3409.87
407.67	3434.44
407.88	3538.89
408.09	3473.36
408.31	3313.61
408.52	3440.59
408.73	3436.49
408.94	3325.90
409.15	3344.33
409.37	3567.56
409.58	3512.27
409.79	3555.27
410.00	3524.55
410.21	3491.79
410.43	3559.37
410.64	3416.01
410.85	3590.09
411.06	3592.14
411.27	3600.33
411.48	3565.51
411.70	3549.13
411.91	3604.42
412.12	3629.00
412.33	3452.88
412.54	3674.06
412.76	3745.73
412.97	3727.30
413.18	3612.62
413.39	3739.59
413.60	3710.92
413.81	3641.29
414.03	3690.44
414.24	3704.78
414.45	3780.55
414.66	3579.85
414.87	3651.53
415.08	3755.97
415.30	3708.87
415.51	3801.03
415.72	3731.40
415.93	3829.70
416.14	3835.85
416.35	3790.79
416.56	3768.26
416.78	3817.41
416.99	3942.34
417.20	3928.00
417.41	3889.09
417.62	3825.61
417.83	3999.68
418.04	3964.87
418.26	4028.35
418.47	3948.48
418.68	3991.49
418.89	4003.78
419.10	4249.54
419.31	3966.92
419.52	4085.70
419.73	4112.32
419.95	4212.67
420.16	3968.96
420.37	4208.58
420.58	4159.42
420.79	4032.45
421.00	4112.32
421.21	4118.47
421.42	4032.45
421.63	4208.58
421.85	4210.62
422.06	4112.32
422.27	4177.86
422.48	4214.72
422.69	4222.91
422.90	4229.06
423.11	4216.77
423.32	4378.56
423.53	4356.03
423.75	4308.93
423.96	4513.72
424.17	4429.76
424.38	4413.37
424.59	4472.76
424.80	4661.18
425.01	4493.24
425.22	4407.23
425.43	4378.56
425.64	4726.71
425.85	4607.93
426.06	4702.14
426.28	4544.44
426.49	4503.48
426.70	4603.83
426.91	4757.43
427.12	4618.17
427.33	4771.77
427.54	4474.81
427.75	4720.57
427.96	4962.23
428.17	4829.11
428.38	4759.48
428.59	5003.19
428.80	4833.21
429.01	4861.88
429.23	4917.17
429.44	5042.10
429.65	5124.02
429.86	4888.50
430.07	4808.63
430.28	4911.03
430.49	5058.48
430.70	5097.39
430.91	5025.72
431.12	5085.11
431.33	5236.66
431.54	5162.93
431.75	5179.31
431.96	5236.66
432.17	5199.79
432.38	5234.61
432.59	5349.29
432.80	5332.91
433.01	5314.48
433.22	5429.17
433.43	5255.09
433.64	5386.16
433.85	5275.57
434.06	5322.67
434.27	5353.39
434.49	5482.41
434.70	5572.52
434.91	5369.77
435.12	5537.71
435.33	5570.48
435.54	5418.93
435.75	5470.12
435.96	5533.61
436.17	5433.26
436.38	5558.19
436.59	5580.71
436.80	5570.48
437.01	5838.76
437.22	5799.85
437.43	5722.02
437.64	5531.56
437.85	5863.33
438.06	5984.16
438.27	5681.07
438.48	5748.65
438.69	5842.85
438.90	5922.73
439.11	5717.93
439.32	5994.40
439.53	5973.92
439.74	5785.51
439.95	6002.60
440.16	5906.34
440.37	6094.76
440.57	5775.27
440.78	6088.61
440.99	5961.64
441.20	5986.21
441.41	5939.11
441.62	6143.91
441.83	5939.11
442.04	6141.86
442.25	6104.99
442.46	6178.72
442.67	6307.74
442.88	6602.65
443.09	6143.91
443.30	6262.69
443.51	6258.59
443.72	6438.81
443.93	6215.59
444.14	6496.16
444.35	6369.18
444.56	6461.34
444.77	6277.02
444.98	6569.88
445.19	6455.20
445.40	6528.92
445.61	6418.33
445.81	6584.22
446.02	6621.08
446.23	6526.88
446.44	6313.89
446.65	6635.42
446.86	6559.64
447.07	6553.50
447.28	6795.16
447.49	6832.02
447.70	6664.09
447.91	6698.91
448.12	6678.43
448.33	6893.46
448.54	6852.50
448.74	6743.96
448.95	6803.35
449.16	6813.59
449.37	6987.67
449.58	6764.44
449.79	7100.31
450.00	6739.87
450.21	7032.72
450.42	7131.03
450.63	7262.10
450.84	7022.48
451.05	7085.97
451.25	7081.88
451.46	7102.36
451.67	7421.84
451.88	7405.46
452.09	7225.23
452.30	7286.67
452.51	7303.06
452.72	7378.83
452.93	7552.91
453.13	7264.15
453.34	7212.95
453.55	7344.02
453.76	7288.72
453.97	7694.22
454.18	7352.21
454.39	7595.92
454.60	7503.76
454.81	7616.40
455.01	7622.54
455.22	7401.36
455.43	7679.88
455.64	7790.47
455.85	7874.44
456.06	8079.24
456.27	7710.60
456.48	7921.54
456.68	7602.06
456.89	8107.91
457.10	8071.04
457.31	7989.13
457.52	7878.54
457.73	8200.07
457.94	8300.42
458.14	7985.03
458.35	8636.28
458.56	8191.88
458.77	8284.03
458.98	8318.85
459.19	8251.27
459.39	8556.41
459.60	8544.13
459.81	8380.29
460.02	8630.14
460.23	8763.26
460.44	8609.66
460.65	8662.91
460.85	8798.07
461.06	8750.97
461.27	8431.49
461.48	8994.68
461.69	9195.38
461.89	8712.06
462.10	9058.17
462.31	8730.49
462.52	8943.48
462.73	9062.26
462.94	9090.93
463.14	9060.21
463.35	9289.59
463.56	9570.16
463.77	9439.09
463.98	9179.00
464.18	9408.37
464.39	9480.05
464.60	9527.15
464.81	9527.15
465.02	9461.62
465.23	9928.55
465.43	9590.64
465.64	9768.81
465.85	9914.22
466.06	9768.81
466.27	10159.97
466.47	9973.61
466.68	10096.49
466.89	10192.74
467.10	10200.93
467.30	10035.05
467.51	10354.53
467.72	10420.06
467.93	10162.02
468.14	10334.05
468.34	10628.96
468.55	10520.42
468.76	10583.90
468.97	10514.27
469.17	10698.59
469.38	10878.81
469.59	10790.75
469.80	10964.82
470.01	10981.21
470.21	10760.03
470.42	11157.33
470.63	11317.08
470.84	11280.21
471.04	11222.87
471.25	11470.67
471.46	11339.60
471.67	11751.24
471.87	11429.71
472.08	11585.36
472.29	11876.17
472.50	11519.82
472.70	11636.56
472.91	11792.20
473.12	11931.47
473.33	12158.79
473.53	12152.65
473.74	12160.84
473.95	12302.15
474.16	12410.69
474.36	12435.27
474.57	12977.98
474.78	12867.39
474.99	12791.61
475.19	12758.85
475.40	12928.83
475.61	13178.68
475.81	13082.42
476.02	13438.77
476.23	13143.86
476.44	13330.23
476.64	13442.87
476.85	13768.49
477.06	13776.69
477.27	13981.48
477.47	14061.35
477.68	13924.14
477.89	14012.20
478.09	14008.11
478.30	14262.05
478.51	14114.60
478.71	14276.39
478.92	14585.63
479.13	14542.63
479.34	14589.73
479.54	14980.89
479.75	14659.36
479.96	14923.55
480.16	15087.39
480.37	15265.56
480.58	15257.37
480.78	15638.29
480.99	15249.18
481.20	15658.77
481.41	15548.18
481.61	15808.27
481.82	15752.98
482.03	15748.88
482.23	15689.49
482.44	16033.55
482.65	16299.78
482.85	16140.04
483.06	16043.79
483.27	16289.54
483.47	16453.38
483.68	16473.86
483.89	16459.52
484.09	16764.67
484.30	16785.15
484.51	16983.80
484.71	16928.51
484.92	17092.35
485.13	17344.25
485.33	17266.42
485.54	17102.59
485.75	17540.85
485.95	17387.25
486.16	17719.03
486.37	17942.25
486.57	17872.62
486.78	17518.32
486.98	18065.13
487.19	17981.17
487.40	18145.00
487.60	18013.93
487.81	18556.64
488.02	18433.77
488.22	18159.34
488.43	18806.50
488.64	18484.97
488.84	18702.05
489.05	18917.09
489.25	18970.33
489.46	19060.45
489.67	19168.99
489.87	19234.52
490.08	19482.33
490.29	19496.66
490.49	19711.70
490.70	19674.84
490.90	19943.12
491.11	19711.70
491.32	19629.78
491.52	19939.02
491.73	19769.04
491.94	19988.18
492.14	20111.05
492.35	20365.00
492.55	20463.30
492.76	20319.95
492.97	20641.48
493.17	20635.33
493.38	20727.49
493.58	20991.68
493.79	21100.22
494.00	20870.85
494.20	20803.27
494.41	21180.09
494.61	21219.00
494.82	21210.81
495.02	21241.53
495.23	21214.91
495.44	21612.21
495.64	21395.13
495.85	21550.78
496.05	21880.50
496.26	21788.34
496.47	22107.82
496.67	21792.44
496.88	22206.13
497.08	21874.35
497.29	22433.45
497.49	22154.93
497.70	22056.62
497.91	22574.76
498.11	22466.22
498.32	22515.37
498.52	22630.05
498.73	22894.24
498.93	22843.04
499.14	23070.37
499.34	22992.55
499.55	23031.46
499.76	23019.17
499.96	23484.06
500.17	23043.74
500.37	23312.03
500.58	23459.48
500.78	23512.73
500.99	23631.51
501.19	23705.24
501.40	23578.26
501.60	23602.84
501.81	24102.54
502.02	23658.14
502.22	23912.08
502.43	24090.26
502.63	24170.13
502.84	24352.40
503.04	24094.35
503.25	24456.84
503.45	24467.08
503.66	24757.89
503.86	24432.27
504.07	24909.44
504.27	24563.34
504.48	25011.84
504.68	24768.13
504.89	25024.13
505.09	25104.00
505.30	25036.42
505.50	24948.36
505.71	25126.53
505.91	25425.53
506.12	25294.46
506.32	25572.99
506.53	25212.54
506.73	25652.86
506.94	25779.83
507.14	25783.93
507.35	26054.26
507.55	25671.29
507.76	25880.18
507.96	25859.70
508.17	25839.22
508.37	26076.79
508.58	26103.41
508.78	26369.65
508.99	26426.99
509.19	26150.51
509.40	26214.00
509.60	26332.78
509.81	26422.89
510.01	26375.79
510.22	26363.50
510.42	26340.97
510.63	26740.33
510.83	26625.64
511.04	26447.47
511.24	26961.51
511.44	26658.41
511.65	26930.79
511.85	27096.67
512.06	26971.75
512.26	26988.13
512.47	27180.64
512.67	27141.73
512.88	27199.07
513.08	27326.05
513.29	27657.82
513.49	27194.98
513.69	27371.10
513.90	27520.60
514.10	27760.22
514.31	28024.40
514.51	27887.19
514.72	27950.68
514.92	27639.39
515.13	27817.56
515.33	27872.85
515.53	28366.42
515.74	27885.14
515.94	28345.94
516.15	28360.27
516.35	28157.52
516.56	28411.47
516.76	28397.13
516.96	28227.15
517.17	28653.13
517.37	28399.18
517.58	28554.83
517.78	28661.32
517.99	28962.37
518.19	29075.01
518.39	28937.80
518.60	28997.19
518.80	29025.86
519.01	29169.22
519.21	29173.31
519.41	29249.09
519.62	29226.56
519.82	29582.91
520.03	29810.23
520.23	29814.33
520.43	29400.64
520.64	30064.18
520.84	29853.24
521.05	29736.51
521.25	29822.52
521.45	29996.60
521.66	30246.45
521.86	29974.07
522.07	29953.59
522.27	30465.58
522.47	30129.72
522.68	30375.47
522.88	30529.07
523.08	30899.75
523.29	30621.23
523.49	30639.66
523.70	31086.12
523.90	31049.25
524.10	30944.81
524.31	31045.16
524.51	30578.22
524.71	31567.39
524.92	31245.86
525.12	31469.09
525.33	31442.46
525.53	31436.32
525.73	31698.46
525.94	31643.17
526.14	31649.31
526.34	31680.03
526.55	31874.59
526.75	32101.91
526.95	32267.80
527.16	32239.12
527.36	32044.57
527.56	32505.36
527.77	32349.71
527.97	32394.77
528.17	32267.80
528.38	32716.30
528.58	32695.82
528.78	32933.39
528.99	32937.48
529.19	32843.27
529.39	32792.08
529.60	33265.16
529.80	33046.02
530.00	33005.06
530.21	32886.28
530.41	33373.70
530.61	33306.12
530.82	33449.47
531.02	33568.26
531.22	33969.66
531.43	33654.27
531.63	34022.90
531.83	34158.07
532.04	34295.28
532.24	33924.60
532.44	34467.31
532.64	34432.50
532.85	34514.42
533.05	34364.92
533.25	34534.90
533.46	34393.59
533.66	34823.66
533.86	34971.11
534.07	35405.28
534.27	34801.13
534.47	34964.97
534.67	35018.22
534.88	35050.99
535.08	35685.86
535.28	35933.66
535.49	35829.21
535.69	35796.45
535.89	35761.63
536.09	35872.22
536.30	36376.02
536.50	36115.93
536.70	36191.70
536.91	35730.91
537.11	35931.61
537.31	36533.71
537.51	36148.70
537.72	36498.90
537.92	36777.42
538.12	36537.81
538.32	36539.86
538.53	36795.85
538.73	36648.40
538.93	36789.71
539.13	36863.44
539.34	36898.25
539.54	36775.37
539.74	37369.29
539.94	36812.24
540.15	37320.13
540.35	37477.83
540.55	37111.24
540.75	37365.19
540.96	37916.09
541.16	37590.47
541.36	37916.09
541.56	37782.98
541.77	38108.60
541.97	37801.41
542.17	37817.79
542.37	38077.88
542.58	37977.53
542.78	38411.70
542.98	38258.10
543.18	38059.45
543.38	38860.21
543.59	38561.20
543.79	38581.68
543.99	38512.05
544.19	38962.61
544.40	38892.97
544.60	39185.83
544.80	38944.17
545.00	39275.94
545.20	39349.67
545.41	38575.54
545.61	39497.13
545.81	39650.72
546.01	39249.32
546.21	39415.21
546.42	39525.80
546.62	39462.31
546.82	39564.71
547.02	39689.63
547.22	39640.48
547.43	39521.70
547.63	39691.68
547.83	39925.15
548.03	39546.28
548.23	40275.35
548.44	39902.62
548.64	40125.85
548.84	40236.44
549.04	40254.87
549.24	40189.34
549.45	40629.65
549.65	40039.84
549.85	40547.73
550.05	40723.86
550.25	40363.42
550.45	40932.75
550.66	40897.94
550.86	40578.45
551.06	41143.69
551.26	41035.15
551.46	40889.74
551.66	41074.06
551.87	41104.78
552.07	41266.57
552.27	40977.81
552.47	41129.36
552.67	41399.69
552.87	41483.66
553.07	41557.38
553.28	41573.77
553.48	41670.02
553.68	41549.19
553.88	42114.43
554.08	41964.93
554.28	41647.49
554.48	41719.17
554.69	41735.56
554.89	41905.54
555.09	41823.62
555.29	41581.96
555.49	41928.06
555.69	42116.48
555.89	42261.88
556.10	42311.03
556.30	42057.09
556.50	42055.04
556.70	42405.24
556.90	42798.45
557.10	42663.28
557.30	42345.85
557.50	42784.12
557.70	42894.71
557.91	42861.94
558.11	42739.06
558.31	42687.86
558.51	42481.02
558.71	42653.05
558.91	43357.55
559.11	42634.61
559.31	42728.82
559.51	42863.99
559.72	42913.14
559.92	43341.16
560.12	43222.38
560.32	43156.85
560.52	43064.69
560.72	43386.22
560.92	43490.66
561.12	43316.59
561.32	43754.85
561.52	43412.84
561.72	43885.92
561.93	43408.75
562.13	43722.08
562.33	43490.66
562.53	43986.27
562.73	43474.28
562.93	43505.00
563.13	43869.54
563.33	43529.58
563.53	43926.88
563.73	43480.42
563.93	43896.16
564.13	44277.08
564.33	43758.95
564.53	44164.45
564.74	44293.47
564.94	44078.43
565.14	44477.79
565.34	44019.04
565.54	44678.49
565.74	44426.59
565.94	44653.91
566.14	44156.25
566.34	44234.08
566.54	44952.91
566.74	44062.05
566.94	44574.04
567.14	44799.32
567.34	44623.19
567.54	44707.16
567.74	44854.61
567.94	44365.15
568.14	45090.13
568.34	44979.54
568.54	44719.45
568.74	45190.48
568.94	44971.35
569.14	45331.79
569.34	45249.87
569.54	45284.68
569.75	45460.81
569.95	45247.82
570.15	45577.54
570.35	45544.78
570.55	45555.02
570.75	45647.18
570.95	45419.85
571.15	45454.67
571.35	45452.62
571.55	45636.94
571.75	45655.37
571.95	45802.82
572.15	45438.28
572.35	45655.37
572.55	45774.15
572.75	46122.30
572.95	45741.38
573.15	45888.84
573.35	45880.64
573.55	45880.64
573.75	45915.46
573.95	45868.36
574.15	45940.04
574.35	46189.89
574.55	46384.44
574.75	45903.17
574.95	46392.64
575.15	46255.42
575.34	46550.33
575.54	46781.75
575.74	46742.84
575.94	46935.35
576.14	46646.58
576.34	46974.26
576.54	46650.68
576.74	46900.53
576.94	46513.47
577.14	46982.45
577.34	46986.55
577.54	46167.36
577.74	46900.53
577.94	46908.72
578.14	47121.71
578.34	47480.11
578.54	46689.59
578.74	46861.62
578.94	47351.09
579.14	47332.65
579.34	47334.70
579.54	47807.78
579.74	47641.90
579.94	46871.86
580.13	47871.27
580.33	47600.94
580.53	47770.92
580.73	47492.40
580.93	47781.16
581.13	47705.38
581.33	47803.69
581.53	47926.56
581.73	47887.65
581.93	48491.80
582.13	48127.27
582.33	48002.34
582.53	47998.24
582.73	48071.97
582.92	48239.90
583.12	48373.02
583.32	48280.86
583.52	48055.59
583.72	48592.15
583.92	47836.45
584.12	48270.62
584.32	48815.38
584.52	48588.06
584.72	48833.81
584.92	48565.53
585.11	49229.07
585.31	48749.85
585.51	48872.73
585.71	48354.59
585.91	48942.36
586.11	48782.62
586.31	48856.34
586.51	48997.65
586.71	49057.04
586.91	49044.76
587.10	48995.60
587.30	49014.04
587.50	49192.21
587.70	49042.71
587.90	49358.09
588.10	49200.40
588.30	49122.58
588.50	49466.64
588.69	49417.49
588.89	49386.77
589.09	49868.04
589.29	49566.99
589.49	49581.32
589.69	48995.60
589.89	49894.66
590.08	49755.40
590.28	49386.77
590.48	49390.86
590.68	49190.16
590.88	49569.04
591.08	49810.70
591.28	49560.84
591.47	50152.71
591.67	49806.60
591.87	49968.39
592.07	49892.61
592.27	49931.53
592.47	49997.06
592.67	49902.85
592.86	49599.76
593.06	50273.54
593.26	50504.96
593.46	50404.61
593.66	49992.97
593.86	50195.71
594.05	50259.20
594.25	50435.33
594.45	50230.53
594.65	50443.52
594.85	50042.12
595.05	50513.15
595.24	50722.04
595.44	50240.77
595.64	50199.81
595.84	50222.34
596.04	50283.78
596.23	50533.63
596.43	51084.53
596.63	50689.27
596.83	50363.65
597.03	51483.89
597.22	51604.72
597.42	50849.02
597.62	51078.39
597.82	51002.61
598.02	51164.40
598.21	51238.13
598.41	50799.86
598.61	51129.59
598.81	51504.37
599.01	51434.74
599.20	51590.38
599.40	51139.83
599.60	51490.03
599.80	51942.63
600.00	51520.75
600.19	51873.00
600.39	51530.99
600.59	52010.21
600.79	51641.58
600.98	52239.59
601.18	52067.56
601.38	51850.47
601.58	51754.22
601.78	52247.78
601.97	52065.51
602.17	52444.38
602.37	52790.49
602.57	52397.28
602.76	52630.75
602.96	52436.19
603.16	53036.25
603.36	52362.46
603.55	53021.91
603.75	52749.53
603.95	52819.16
604.15	52843.74
604.34	52548.83
604.54	52790.49
604.74	52729.05
604.94	53122.26
605.13	53009.62
605.33	53241.04
605.53	53023.96
605.73	53325.01
605.92	52745.44
606.12	53689.55
606.32	53599.44
606.52	53300.43
606.71	53155.03
606.91	53720.27
607.11	53556.43
607.30	53855.43
607.50	53581.01
607.70	53734.60
607.90	53810.38
608.09	53863.63
608.29	53646.54
608.49	53937.35
608.68	53796.04
608.88	53992.65
609.08	53976.26
609.28	53963.98
609.47	53703.88
609.67	54371.52
609.87	53640.40
610.06	54738.11
610.26	54203.59
610.46	54424.77
610.66	53984.46
610.85	54437.06
611.05	54023.37
611.25	54580.42
611.44	54336.71
611.64	54600.89
611.84	54256.84
612.03	54330.56
612.23	54506.69
612.43	54416.58
612.62	54691.01
612.82	54854.84
613.02	54594.75
613.21	54314.18
613.41	54559.94
613.61	54666.43
613.80	54498.50
614.00	54990.01
614.20	54824.12
614.39	54582.46
614.59	55088.31
614.79	55006.39
614.98	54944.95
615.18	54916.28
615.38	54869.18
615.57	54758.59
615.77	55147.70
615.97	55030.97
616.16	54842.56
616.36	55121.08
616.56	54955.19
616.75	54990.01
616.95	54797.50
617.15	55018.68
617.34	55112.89
617.54	55022.78
617.74	55655.60
617.93	55542.96
618.13	54846.65
618.32	55397.55
618.52	54994.10
618.72	55231.67
618.91	55352.50
619.11	54979.77
619.31	55004.34
619.50	54817.98
619.70	55260.34
619.90	55350.45
620.09	55162.04
620.29	55399.60
620.48	55246.00
620.68	55577.78
620.88	54723.77
621.07	55329.97
621.27	55354.55
621.46	55137.46
621.66	55407.79
621.86	55002.30
622.05	55162.04
622.25	55487.67
622.44	55350.45
622.64	54926.52
622.84	55694.51
623.03	55053.50
623.23	55475.38
623.42	55106.74
623.62	55663.79
623.82	55590.06
624.01	55186.61
624.21	55684.27
624.40	55606.45
624.60	55305.40
624.80	54998.20
624.99	55149.75
625.19	55002.30
625.38	55497.91
625.58	55708.85
625.77	55563.44
625.97	55860.40
626.17	55260.34
626.36	55520.43
626.56	55522.48
626.75	55129.27
626.95	55600.30
627.14	55545.01
627.34	55506.10
627.54	55458.99
627.73	55481.52
627.93	55770.28
628.12	55467.19
628.32	55346.36
628.51	55710.89
628.71	55309.49
628.90	55270.58
629.10	55686.32
629.30	55532.72
629.49	55549.10
629.69	55604.40
629.88	55551.15
630.08	56169.64
630.27	55868.59
630.47	56165.54
630.66	55712.94
630.86	56153.26
631.05	55112.89
631.25	56122.54
631.44	55907.50
631.64	55411.89
631.84	55784.62
632.03	56190.12
632.23	55747.76
632.42	56210.60
632.62	56100.01
632.81	55366.84
633.01	55516.34
633.20	56022.19
633.40	55954.60
633.59	56118.44
633.79	55598.26
633.98	56048.81
634.18	55727.28
634.37	55917.74
634.57	55938.22
634.76	55911.59
634.96	56020.14
635.15	55844.01
635.35	55940.27
635.54	55772.33
635.74	56081.58
635.93	55923.88
636.13	56329.38
636.32	55956.65
636.52	55643.31
636.71	56116.39
636.91	56138.92
637.10	56384.68
637.30	55907.50
637.49	56011.95
637.69	55995.56
637.88	56450.21
638.08	55925.93
638.27	56208.55
638.46	56143.02
638.66	55854.25
638.85	55862.44
639.05	55819.44
639.24	55977.13
639.44	55751.85
639.63	56026.28
639.83	56300.71
640.02	56378.53
640.22	55997.61
640.41	56421.54
640.61	55626.93
640.80	56353.96
640.99	55743.66
641.19	56902.81
641.38	55958.70
641.58	55755.95
641.77	56276.13
641.97	56216.74
642.16	56073.38
642.36	56642.72
642.55	56562.85
642.74	56026.28
642.94	56048.81
643.13	55880.88
643.33	56390.82
643.52	56353.96
643.72	56171.69
643.91	57011.35
644.10	56366.24
644.30	56558.75
644.49	56186.02
644.69	56616.10
644.88	55952.55
645.08	56417.44
645.27	56132.78
645.46	56087.72
645.66	56575.14
645.85	56257.70
646.05	56730.78
646.24	56249.51
646.43	56153.26
646.63	56777.89
646.82	56853.66
647.02	56528.03
647.21	56964.25
647.40	56673.44
647.60	56632.48
647.79	56579.23
647.99	56657.06
648.18	56439.97
648.37	56779.93
648.57	56822.94
648.76	56392.87
648.96	56220.84
649.15	56439.97
649.34	56757.41
649.54	56597.66
649.73	56456.35
649.92	56618.14
650.12	57037.98
650.31	56612.00
650.51	57087.13
650.70	57076.89
650.89	56554.66
651.09	57361.56
651.28	56833.18
651.47	56956.06
651.67	56747.17
651.86	56882.33
652.06	56470.69
652.25	56235.17
652.44	56476.83
652.64	56419.49
652.83	56265.89
653.02	56898.72
653.22	57138.33
653.41	56679.58
653.60	56425.64
653.80	56693.92
653.99	56587.42
654.18	56751.26
654.38	56491.17
654.57	56702.11
654.76	56757.41
654.96	56476.83
655.15	56734.88
655.34	56224.93
655.54	56634.53
655.73	56386.72
655.92	56720.54
656.12	56888.48
656.31	56493.22
656.50	56683.68
656.70	56523.94
656.89	56257.70
657.08	56673.44
657.28	56636.58
657.47	56628.38
657.66	56480.93
657.86	56865.95
658.05	56482.98
658.24	56734.88
658.43	56325.28
658.63	56517.79
658.82	56716.45
659.01	56853.66
659.21	56820.89
659.40	57087.13
659.59	56640.67
659.79	56808.61
659.98	56779.93
660.17	56753.31
660.36	56491.17
660.56	56767.65
660.75	56720.54
660.94	56886.43
661.14	56439.97
661.33	56298.66
661.52	56341.67
661.71	56747.17
661.91	56390.82
662.10	56325.28
662.29	56808.61
662.49	56427.68
662.68	56636.58
662.87	56620.19
663.06	56566.94
663.26	56374.44
663.45	56622.24
663.64	56435.87
663.83	57040.03
664.03	56786.08
664.22	56618.14
664.41	56472.74
664.60	56702.11
664.80	56870.04
664.99	56538.27
665.18	56845.47
665.37	56470.69
665.57	56562.85
665.76	56480.93
665.95	56407.20
666.14	56478.88
666.34	56634.53
666.53	56300.71
666.72	56417.44
666.91	56300.71
667.11	56607.90
667.30	56671.39
667.49	56358.05
667.68	56284.33
667.87	56067.24
668.07	56521.89
668.26	56247.46
668.45	56990.87
668.64	56179.88
668.84	57062.55
669.03	56802.46
669.22	56726.69
669.41	56683.68
669.60	56179.88
669.80	56192.17
669.99	56472.74
670.18	56267.94
670.37	56384.68
670.57	56591.52
670.76	56321.19
670.95	56843.42
671.14	56267.94
671.33	56093.86
671.53	57021.59
671.72	56319.14
671.91	56628.38
672.10	56439.97
672.29	56403.11
672.48	56313.00
672.68	56620.19
672.87	56411.30
673.06	56517.79
673.25	55794.86
673.44	56050.86
673.64	56519.84
673.83	56226.98
674.02	56452.26
674.21	56245.41
674.40	56321.19
674.59	56229.03
674.79	56124.58
674.98	56243.37
675.17	56122.54
675.36	56022.19
675.55	56665.25
675.74	56405.16
675.94	55983.27
676.13	56347.81
676.32	56743.07
676.51	56777.89
676.70	56196.26
676.89	56153.26
677.08	56665.25
677.28	56390.82
677.47	56628.38
677.66	56605.86
677.85	57040.03
678.04	56657.06
678.23	56779.93
678.42	56423.59
678.62	55825.58
678.81	56763.55
679.00	56423.59
679.19	56999.07
679.38	56405.16
679.57	56575.14
679.76	56386.72
679.96	56321.19
680.15	56493.22
680.34	56300.71
680.53	55899.31
680.72	56579.23
680.91	56403.11
681.10	56337.57
681.29	56718.49
681.48	55772.33
681.68	56464.55
681.87	56057.00
682.06	56130.73
682.25	56296.61
682.44	56075.43
682.63	56585.38
682.82	55835.82
683.01	56478.88
683.20	55571.63
683.39	56124.58
683.59	56173.73
683.78	55915.69
683.97	55915.69
684.16	55948.46
684.35	56069.29
684.54	55833.77
684.73	55968.94
684.92	55721.13
685.11	56028.33
685.30	56036.52
685.49	55985.32
685.69	55839.92
685.88	56122.54
686.07	55731.37
686.26	55669.93
686.45	55821.48
686.64	56280.23
686.83	55985.32
687.02	56075.43
687.21	55645.36
687.40	56186.02
687.59	56018.09
687.78	55942.31
687.97	55882.92
688.16	56200.36
688.35	55573.68
688.54	55958.70
688.74	56108.20
688.93	55901.36
689.12	56222.89
689.31	55768.24
689.50	55903.40
689.69	55581.87
689.88	55395.51
690.07	55555.25
690.26	55499.95
690.45	56573.09
690.64	56001.71
690.83	55639.22
691.02	55553.20
691.21	55579.82
691.40	55432.37
691.59	55866.54
691.78	55293.11
691.97	55786.67
692.16	56054.95
692.35	55768.24
692.54	55776.43
692.73	55803.05
692.92	55588.02
693.11	55680.17
693.30	55489.71
693.49	55508.14
693.68	55827.63
693.87	55553.20
694.06	55342.26
694.25	55082.17
694.44	55203.00
694.63	55397.55
694.82	55749.81
695.01	55893.16
695.20	55088.31
695.39	55450.80
695.58	55428.27
695.77	55633.07
695.96	55129.27
696.15	55121.08
696.34	55342.26
696.53	55276.72
696.72	55502.00
696.91	55458.99
697.10	55596.21
697.29	55133.37
697.48	55667.89
697.67	55176.37
697.86	54670.53
698.05	54750.40
698.24	55497.91
698.43	54473.92
698.62	55418.03
698.81	54994.10
699.00	55260.34
699.19	54752.44
699.38	55065.78
699.57	55045.30
699.76	55641.26
699.95	54940.86
700.14	54967.48
700.32	54693.05
700.51	54846.65
700.70	55106.74
700.89	55010.49
701.08	55172.28
701.27	54686.91
701.46	55235.77
701.65	54105.29
701.84	55096.50
702.03	55065.78
702.22	54760.64
702.41	54252.74
702.60	54637.76
702.79	54613.18
702.98	54377.67
703.17	54396.10
703.35	54496.45
703.54	54324.42
703.73	54246.60
703.92	54353.09
704.11	54279.36
704.30	54136.01
704.49	54664.38
704.68	54027.46
704.87	54254.79
705.06	54023.37
705.25	54047.94
705.43	54457.54
705.62	54211.78
705.81	54416.58
706.00	54432.96
706.19	53941.45
706.38	53773.52
706.57	53767.37
706.76	54017.22
706.95	54146.25
707.14	54076.61
707.32	53697.74
707.51	54129.86
707.70	53814.47
707.89	53765.32
708.08	53695.69
708.27	53882.06
708.46	54070.47
708.65	53820.62
708.84	54197.44
709.02	54006.98
709.21	53925.07
709.40	53296.34
709.59	53951.69
709.78	53791.95
709.97	53963.98
710.16	53435.60
710.34	53626.06
710.53	53808.33
710.72	53265.62
710.91	53406.93
711.10	53564.62
711.29	53685.45
711.48	53292.24
711.66	53179.60
711.85	53548.24
712.04	53204.18
712.23	53347.54
712.42	53355.73
712.61	53294.29
712.80	52868.31
712.98	53296.34
713.17	53152.98
713.36	53189.84
713.55	53239.00
713.74	53271.76
713.93	53394.64
714.11	52948.18
714.30	52874.46
714.49	52837.59
714.68	53054.68
714.87	53011.67
715.06	52942.04
715.24	52518.11
715.43	52710.62
715.62	52219.11
715.81	52286.69
716.00	52655.32
716.18	52575.45
716.37	52131.04
716.56	52507.87
716.75	52864.22
716.94	52200.68
717.12	52167.91
717.31	52270.31
717.50	52241.63
717.69	52219.11
717.88	52212.96
718.06	51924.20
718.25	52376.80
718.44	51920.10
718.63	52122.85
718.82	51807.47
719.00	51705.07
719.19	51719.40
719.38	51860.71
719.57	51399.92
719.76	51182.84
719.94	51109.11
720.13	51301.62
720.32	51580.14
720.51	51193.07
720.69	51121.40
720.88	51000.57
721.07	51379.44
721.26	50431.23
721.44	50992.37
721.63	50808.06
721.82	50599.16
722.01	50705.66
722.20	50451.71
722.38	50849.02
722.57	50130.18
722.76	50232.58
722.95	50349.31
723.13	50203.91
723.32	50271.49
723.51	49949.96
723.70	50038.02
723.88	50017.54
724.07	49898.76
724.26	49896.71
724.44	49499.40
724.63	50013.44
724.82	50001.16
725.01	49480.97
725.19	49702.15
725.38	49679.63
725.57	49585.42
725.76	50046.21
725.94	49530.12
726.13	49392.91
726.32	49147.15
726.51	49001.75
726.69	49757.45
726.88	49454.35
727.07	49724.68
727.25	49265.94
727.44	49700.11
727.63	48966.93
727.82	49429.77
728.00	49208.59
728.19	48940.31
728.38	49251.60
728.56	48831.77
728.75	49284.37
728.94	49294.61
729.12	49241.36
729.31	49057.04
729.50	49521.93
729.69	49362.19
729.87	49206.55
730.06	49247.50
730.25	48768.28
730.43	49067.28
730.62	49075.48
730.81	49147.15
730.99	48837.91
731.18	49001.75
731.37	49120.53
731.55	49147.15
731.74	48950.55
731.93	49018.13
732.11	49034.52
732.30	49298.70
732.49	49009.94
732.67	48649.50
732.86	48659.74
733.05	48803.10
733.23	48469.28
733.42	48567.58
733.61	48346.40
733.79	48815.38
733.98	48657.69
734.17	48532.76
734.35	48706.84
734.54	48510.24
734.73	48645.40
734.91	48598.30
735.10	48237.86
735.29	48618.78
735.47	48209.18
735.66	48567.58
735.84	48551.20
736.03	48065.83
736.22	48700.70
736.40	48323.87
736.59	48241.95
736.78	48094.50
736.96	48086.31
737.15	48272.67
737.33	47760.68
737.52	47500.59
737.71	48082.21
737.89	47758.63
738.08	47199.54
738.27	47594.79
738.45	48047.39
738.64	47942.95
738.82	47492.40
739.01	48049.44
739.20	47203.63
739.38	47797.54
739.57	47775.02
739.75	47740.20
739.94	47766.82
740.13	47662.38
740.31	47156.53
740.50	47351.09
740.68	47344.94
740.87	47154.48
741.06	47256.88
741.24	47019.31
741.43	46925.11
741.61	47383.85
741.80	46839.09
741.99	46644.54
742.17	47115.57
742.36	47207.73
742.54	47076.66
742.73	47021.36
742.91	47058.23
743.10	46843.19
743.29	46955.83
743.47	47299.89
743.66	46718.26
743.84	47160.62
744.03	46884.15
744.21	46310.72
744.40	46789.94
744.59	46761.27
744.77	47103.28
744.96	46437.69
745.14	46605.62
745.33	46861.62
745.51	46605.62
745.70	46679.35
745.88	46191.94
746.07	46308.67
746.26	46415.16
746.44	46435.64
746.63	46439.74
746.81	46570.81
747.00	46347.58
747.18	46232.89
747.37	46286.14
747.55	45958.47
747.74	46073.15
747.92	45966.66
748.11	46218.56
748.29	45966.66
748.48	46447.93
748.66	45778.25
748.85	45897.03
749.03	45714.76
749.22	45710.66
749.41	45530.44
749.59	46005.57
749.78	45778.25
749.96	45237.58
750.15	45405.52
750.33	45753.67
750.52	45444.43
750.70	45385.04
750.89	44954.96
751.07	44805.46
751.26	45327.69
751.44	44801.36
751.63	45327.69
751.81	44844.37
752.00	45067.60
752.18	44854.61
752.37	45321.55
752.55	44952.91
752.74	44971.35
752.92	44914.00
753.10	44832.08
753.29	45026.64
753.47	44508.50
753.66	44670.29
753.84	44901.71
754.03	44692.82
754.21	44340.57
754.40	44526.94
754.58	45047.12
754.77	44617.05
754.95	44199.26
755.14	44481.88
755.32	44311.90
755.51	44115.29
755.69	44402.01
755.88	44203.36
756.06	43984.22
756.24	44033.38
756.43	43500.90
756.61	44014.94
756.80	44238.17
756.98	43634.02
757.17	44135.77
757.35	43861.35
757.54	44287.32
757.72	44119.39
757.90	43752.80
758.09	43883.87
758.27	44143.97
758.46	43906.40
758.64	43599.21
758.83	44070.24
759.01	43840.87
759.19	43754.85
759.38	44027.23
759.56	43791.72
759.75	43681.13
759.93	43761.00
760.12	43314.54
760.30	43724.13
760.48	43275.63
760.67	43578.73
760.85	43603.30
761.04	43664.74
761.22	43830.63
761.40	43269.48
761.59	43105.65
761.77	43197.80
761.96	43193.71
762.14	43343.21
762.32	43007.34
762.51	43197.80
762.69	42831.22
762.88	43527.53
763.06	43443.56
763.24	42995.06
763.43	43251.05
763.61	42694.00
763.80	42843.51
763.98	42876.27
764.16	42788.21
764.35	42440.06
764.53	42546.55
764.72	43079.02
764.90	42395.00
765.08	42567.03
765.27	42777.97
765.45	42413.43
765.63	42403.19
765.82	42392.95
766.00	42233.21
766.18	42351.99
766.37	42708.34
766.55	42204.54
766.74	42036.61
766.92	42034.56
767.10	42284.41
767.29	42392.95
767.47	41713.03
767.65	42030.46
767.84	41835.91
768.02	42098.05
768.20	41610.63
768.39	41932.16
768.57	41901.44
768.75	41940.35
768.94	41809.28
769.12	41805.19
769.30	41743.75
769.49	42038.65
769.67	41534.85
769.85	41239.95
770.04	41291.15
770.22	41180.56
770.40	41141.64
770.59	41256.33
770.77	41440.65
770.95	41371.02
771.14	41121.16
771.32	40846.74
771.50	40703.38
771.69	41241.99
771.87	41350.54
772.05	40895.89
772.24	40531.35
772.42	41100.68
772.60	40834.45
772.78	40764.82
772.97	40623.51
773.15	40390.04
773.33	40564.12
773.52	40547.73
773.70	40801.68
773.88	41153.93
774.07	40506.77
774.25	40752.53
774.43	40856.98
774.61	40732.05
774.80	40877.46
774.98	40961.42
775.16	41014.67
775.34	40990.09
775.53	40621.46
775.71	41147.79
775.89	40914.32
776.08	40680.85
776.26	41080.21
776.44	40928.66
776.62	40787.35
776.81	40689.04
776.99	41201.04
777.17	41190.80
777.35	41399.69
777.54	41672.07
777.72	40981.90
777.90	40930.70
778.08	41178.51
778.27	40879.50
778.45	41549.19
778.63	41627.01
778.81	41205.13
779.00	41917.82
779.18	41055.63
779.36	41586.05
779.54	41457.03
779.73	41520.52
779.91	41584.01
780.09	41436.55
780.27	41682.31
780.46	41457.03
780.64	41926.02
780.82	41403.78
781.00	41659.78
781.19	41915.78
781.37	41987.46
781.55	41952.64
781.73	42192.25
781.91	41964.93
782.10	41874.82
782.28	42057.09
782.46	42192.25
782.64	41999.74
782.82	41833.86
783.01	41926.02
783.19	41813.38
783.37	42169.72
783.55	41858.43
783.74	42087.81
783.92	41688.45
784.10	42409.34
784.28	42065.28
784.46	41971.07
784.64	41897.34
784.83	42179.96
785.01	42220.92
785.19	41944.45
785.37	41852.29
785.55	42503.54
785.74	41805.19
785.92	41911.68
786.10	41930.11
786.28	41944.45
786.46	41997.70
786.64	41717.12
786.83	42075.52
787.01	42057.09
787.19	41911.68
787.37	42159.48
787.55	41627.01
787.74	41653.64
787.92	42169.72
788.10	41391.50
788.28	41457.03
788.46	41803.14
788.64	41377.16
788.82	41573.77
789.01	41362.82
789.19	41497.99
789.37	41301.39
789.55	41805.19
789.73	41358.73
789.91	41452.94
790.09	41231.75
790.28	41201.04
790.46	40754.58
790.64	41297.29
790.82	41100.68
791.00	40840.59
791.18	40867.22
791.36	40725.91
791.55	41033.10
791.73	40754.58
791.91	40611.22
792.09	40818.07
792.27	40383.90
792.45	40795.54
792.63	40580.50
792.81	39970.21
793.00	40101.28
793.18	39916.96
793.36	40027.55
793.54	40140.19
793.72	40021.41
793.90	39761.31
794.08	39564.71
794.26	39800.22
794.44	39558.56
794.62	39478.69
794.81	39687.59
794.99	39429.54
795.17	39269.80
795.35	39261.61
795.53	39798.18
795.71	39400.87
795.89	39052.72
796.07	38757.81
796.25	38602.16
796.43	38430.13
796.61	39146.92
796.80	38790.58
796.98	38974.89
797.16	38286.78
797.34	38507.96
797.52	38362.55
797.70	38518.20
797.88	38061.50
798.06	37950.91
798.24	38376.89
798.42	37885.37
798.60	37864.89
798.78	38280.63
798.96	38022.59
799.14	38108.60
799.32	37975.48
799.51	37160.39
799.69	37510.60
799.87	37778.88
800.05	37191.11
800.23	37748.16
800.41	37090.76
800.59	37148.11
800.77	36926.92
800.95	36562.39
801.13	37168.58
801.31	36767.18
801.49	37131.72
801.67	36681.17
801.85	36390.36
802.03	36353.49
802.21	36054.49
802.39	36236.76
802.57	36406.74
802.75	36615.63
802.93	36165.08
803.11	35892.70
803.29	36044.25
803.47	35872.22
803.65	35675.62
803.83	35915.23
804.01	35835.36
804.19	35325.41
804.37	35425.76
804.55	35436.00
804.73	35288.55
804.91	35259.88
805.09	35562.98
805.27	35266.02
805.45	35182.06
805.63	35014.12
805.81	34975.21
805.99	35108.33
806.17	34911.72
806.35	35423.72
806.53	34575.86
806.71	35210.73
806.89	35157.48
807.07	34551.28
807.25	34770.41
807.43	34512.37
807.61	34776.56
807.79	34383.35
807.97	34338.29
808.15	34080.25
808.33	34137.59
808.51	34217.46
808.69	34274.80
808.87	33953.27
809.05	33560.06
809.23	33654.27
809.41	33639.93
809.59	33578.50
809.77	33771.00
809.95	33138.18
810.13	33916.41
810.31	33416.71
810.49	33283.59
810.67	33306.12
810.84	33046.02
811.02	33097.22
811.20	32931.34
811.38	33156.61
811.56	32681.49
811.74	32448.02
811.92	32992.78
812.10	32697.87
812.28	33041.93
812.46	32953.87
812.64	32716.30
812.82	32370.19
813.00	32495.12
813.18	32245.27
813.36	32396.82
813.53	32054.81
813.71	32296.47
813.89	32187.92
814.07	32056.85
814.25	32400.91
814.43	31796.76
814.61	31921.69
814.79	31948.31
814.97	31784.48
815.15	32019.99
815.33	31280.67
815.50	31532.57
815.68	31718.94
815.86	31690.27
816.04	31084.07
816.22	31329.83
816.40	31374.88
816.58	31303.20
816.76	31170.08
816.94	31325.73
817.11	31254.05
817.29	30957.10
817.47	31059.49
817.65	30715.44
817.83	30873.13
818.01	31077.93
818.19	30783.02
818.37	30883.37
818.54	30729.77
818.72	30737.96
818.90	30522.93
819.08	30410.29
819.26	30201.40
819.44	30156.34
819.62	30398.00
819.80	30457.39
819.97	30344.75
820.15	30377.52
820.33	30311.99
820.51	30109.24
820.69	29963.83
820.87	30207.54
821.05	30099.00
821.22	29986.36
821.40	29904.44
821.58	29748.79
821.76	29713.98
821.94	29531.71
822.12	29726.27
822.29	29517.37
822.47	29709.88
822.65	29683.26
822.83	29484.61
823.01	29316.67
823.19	29185.60
823.36	29068.87
823.54	29097.54
823.72	29259.33
823.90	29347.39
824.08	28814.92
824.25	28855.88
824.43	28874.31
824.61	28948.04
824.79	29052.48
824.97	28722.76
825.15	28907.08
825.32	28816.97
825.50	28976.71
825.68	28456.53
825.86	29042.24
826.04	28694.09
826.21	28757.58
826.39	28554.83
826.57	28548.68
826.75	28350.03
826.93	28302.93
827.10	28042.84
827.28	28304.98
827.46	28583.50
827.64	28053.08
827.81	28253.78
827.99	28495.44
828.17	28036.69
828.35	28048.98
828.53	28046.93
828.70	27971.16
828.88	28083.80
829.06	28010.07
829.24	28143.19
829.41	27666.01
829.59	27891.29
829.77	27868.76
829.95	27969.11
830.12	27623.00
830.30	27715.16
830.48	27700.83
830.66	27840.09
830.84	27782.74
831.01	27221.60
831.19	27518.56
831.37	27311.71
831.55	27045.48
831.72	27252.32
831.90	27190.88
832.08	27242.08
832.25	27086.43
832.43	26975.84
832.61	26934.88
832.79	26984.04
832.96	26787.43
833.14	27131.49
833.32	26918.50
833.50	26707.56
833.67	26613.35
833.85	26863.21
834.03	26572.39
834.20	26619.50
834.38	26990.18
834.56	26642.03
834.74	26371.69
834.91	26504.81
835.09	26586.73
835.27	26293.87
835.44	26433.13
835.62	25982.58
835.80	26234.48
835.98	26203.76
836.15	25951.86
836.33	26021.49
836.51	26400.37
836.68	25898.61
836.86	26044.02
837.04	26297.97
837.21	25964.15
837.39	26003.06
837.57	26029.68
837.75	25994.87
837.92	25708.15
838.10	25835.13
838.28	25425.53
838.45	25429.63
838.63	25542.27
838.81	25581.18
838.98	25386.62
839.16	25431.68
839.34	25593.47
839.51	25521.79
839.69	25626.23
839.87	25335.42
840.04	25171.58
840.22	25572.99
840.40	25540.22
840.57	24944.26
840.75	25140.86
840.93	24909.44
841.10	25247.36
841.28	25439.87
841.46	25147.01
841.63	25226.88
841.81	24796.81
841.98	24946.31
842.16	24962.69
842.34	25044.61
842.51	24600.20
842.69	24948.36
842.87	24893.06
843.04	24710.79
843.22	24366.73
843.40	24520.33
843.57	24448.65
843.75	25013.89
843.92	24761.99
844.10	24471.18
844.28	24434.32
844.45	24475.27
844.63	24747.65
844.81	24311.44
844.98	24319.63
845.16	24544.91
845.33	24360.59
845.51	24250.00
845.69	24037.01
845.86	24116.88
846.04	24204.94
846.21	23944.85
846.39	23826.07
846.57	23830.16
846.74	23948.95
846.92	24026.77
847.09	23809.68
847.27	23778.97
847.45	23592.60
847.62	23957.14
847.80	23912.08
847.97	23776.92
848.15	23887.51
848.32	23553.69
848.50	23717.53
848.68	23641.75
848.85	23258.78
849.03	23314.08
849.20	23484.06
849.38	23396.00
849.56	23396.00
849.73	23330.46
849.91	23459.48
850.08	23660.18
850.26	23236.25
850.43	23416.47
850.61	23070.37
850.78	23172.77
850.96	23359.13
851.14	23006.88
851.31	23074.46
851.49	22726.31
851.66	23178.91
851.84	22941.35
852.01	22914.72
852.19	22875.81
852.36	22779.56
852.54	22761.12
852.71	23006.88
852.89	22904.48
853.07	22728.36
853.24	22621.86
853.42	22619.81
853.59	22795.94
853.77	22681.25
853.94	22906.53
854.12	22824.61
854.29	22609.58
854.47	22609.58
854.64	22300.33
854.82	22376.11
854.99	22388.39
855.17	22369.96
855.34	22548.14
855.52	22302.38
855.69	22427.31
855.87	22304.43
856.04	22128.30
856.22	22310.57
856.39	22343.34
856.57	22468.27
856.74	22173.36
856.92	22056.62
857.09	22050.48
857.27	21941.94
857.44	22204.08
857.62	21911.22
857.79	22001.33
857.97	21585.59
858.14	22017.71
858.32	21829.30
858.49	21919.41
858.67	21759.67
858.84	21829.30
859.02	21745.33
859.19	21647.03
859.37	21413.56
859.54	21608.12
859.72	21673.65
859.89	21591.73
860.06	21776.05
860.24	21518.01
860.41	21452.47
860.59	21173.95
860.76	21364.41
860.94	21319.35
861.11	21415.61
861.29	21487.29
861.46	21438.14
861.64	21141.18
861.81	21098.17
861.98	21202.62
862.16	21124.80
862.33	20819.65
862.51	21147.33
862.68	21149.37
862.86	21204.67
863.03	21003.97
863.21	21010.11
863.38	20797.12
863.55	20770.50
863.73	20946.62
863.90	20833.99
864.08	20860.61
864.25	20606.66
864.43	20752.07
864.60	20885.19
864.77	20508.36
864.95	20731.59
865.12	20483.78
865.30	20641.48
865.47	20555.46
865.64	20506.31
865.82	20596.42
865.99	20629.19
866.17	20655.81
866.34	20483.78
866.51	20328.14
866.69	20547.27
866.86	20426.44
867.04	20426.44
867.21	20338.38
867.38	20186.83
867.56	20313.80
867.73	20133.58
867.91	20035.28
868.08	20016.85
868.25	19922.64
868.43	20018.89
868.60	19908.30
868.78	19738.32
868.95	20025.04
869.12	19572.44
869.30	19820.24
869.47	20037.33
869.64	19422.94
869.82	19695.32
869.99	19779.28
870.16	19760.85
870.34	19828.43
870.51	19766.99
870.69	19576.53
870.86	19623.64
871.03	19834.58
871.21	19308.25
871.38	19826.39
871.55	19447.51
871.73	19138.27
871.90	19164.89
872.07	19279.58
872.25	19019.49
872.42	18906.85
872.59	19099.36
872.77	19197.66
872.94	19072.73
873.11	19320.54
873.29	19087.07
873.46	18888.42
873.63	19009.25
873.81	18992.86
873.98	18595.56
874.15	18714.34
874.33	18763.49
874.50	18489.06
874.67	18767.59
874.85	18593.51
875.02	18779.87
875.19	18511.59
875.37	18556.64
875.54	18474.73
875.71	18308.84
875.88	18511.59
876.06	18487.01
876.23	18401.00
876.40	18128.62
876.58	18237.16
876.75	18204.39
876.92	18181.87
877.10	18218.73
877.27	18091.76
877.44	18020.08
877.61	17942.25
877.79	18011.89
877.96	17940.21
878.13	17929.97
878.31	17712.88
878.48	17518.32
878.65	17698.55
878.82	17702.64
879.00	17788.66
879.17	17850.10
879.34	17813.23
879.51	17647.35
879.69	17714.93
879.86	17497.84
880.03	17684.21
880.21	17563.38
880.38	17452.79
880.55	17452.79
880.72	17340.15
880.90	17530.61
881.07	17274.62
881.24	17149.69
881.41	17467.13
881.59	17436.41
881.76	17168.12
881.93	17219.32
882.10	17131.26
882.28	17053.44
882.45	17325.82
882.62	17213.18
882.79	17286.90
882.96	16848.64
883.14	16924.41
883.31	17270.52
883.48	16905.98
883.65	16844.54
883.83	17231.61
884.00	16690.95
884.17	17053.44
884.34	17145.59
884.51	16865.02
884.69	16781.06
884.86	16703.23
885.03	16850.69
885.20	16713.47
885.38	16846.59
885.55	16695.04
885.72	16815.87
885.89	16609.03
886.06	16680.71
886.24	16629.51
886.41	16615.17
886.58	16754.43
886.75	16885.50
886.92	16609.03
887.10	16699.14
887.27	16559.88
887.44	16582.40
887.61	16727.81
887.78	16643.84
887.95	16604.93
888.13	16398.09
888.30	16387.85
888.47	16533.25
888.64	16561.92
888.81	16535.30
888.99	16523.01
889.16	16437.00
889.33	16191.24
889.50	16215.82
889.67	16152.33
889.84	16127.75
890.01	16361.22
890.19	16228.10
890.36	16121.61
890.53	16262.92
890.70	15972.11
890.87	16123.66
891.04	16015.12
891.22	15929.10
891.39	15793.94
891.56	15642.39
891.73	16004.88
891.90	15904.53
892.07	15914.77
892.24	15689.49
892.42	15585.04
892.59	15836.94
892.76	15476.50
892.93	15675.15
893.10	15804.17
893.27	15503.12
893.44	15609.62
893.61	15703.82
893.79	15703.82
893.96	15591.19
894.13	15771.41
894.30	15718.16
894.47	15599.38
894.64	15652.63
894.81	15394.58
894.98	15945.48
895.15	15509.27
895.33	15560.47
895.50	15613.71
895.67	15738.64
895.84	15351.57
896.01	15429.40
896.18	15380.25
896.35	15568.66
896.52	15410.96
896.69	15181.59
896.86	15752.98
897.04	15533.84
897.21	15419.16
897.38	15277.85
897.55	15255.32
897.72	15611.67
897.89	15302.42
898.06	15816.46
898.23	15261.46
898.40	15546.13
898.57	15685.39
898.74	15429.40
898.91	15576.85
899.08	15382.29
899.26	15245.08
899.43	15464.21
899.60	15300.37
899.77	15386.39
899.94	15107.87
900.11	15200.02
900.28	15619.86
900.45	15214.36
900.62	15222.55
900.79	15234.84
900.96	15367.96
901.13	15240.98
901.30	15316.76
901.47	15298.33
901.64	15417.11
901.81	15392.53
901.98	15335.19
902.15	15236.89
902.32	15286.04
902.49	15173.40
902.66	15425.30
902.83	15443.73
903.01	15290.13
903.18	15363.86
903.35	15472.40
903.52	15388.44
903.69	15351.57
903.86	15415.06
904.03	15320.85
904.20	15484.69
904.37	15425.30
904.54	15472.40
904.71	15351.57
904.88	15288.09
905.05	15302.42
905.22	15251.22
905.39	15183.64
905.56	15210.26
905.73	14987.04
905.90	15288.09
906.07	15279.89
906.24	15503.12
906.41	15298.33
906.58	15263.51
906.75	15308.57
906.92	15017.75
907.09	15302.42
907.26	15169.30
907.43	15122.20
907.60	15134.49
907.77	15314.71
907.93	15468.31
908.10	15267.61
908.27	15603.47
908.44	15003.42
908.61	15202.07
908.78	15159.06
908.95	15132.44
909.12	15331.09
909.29	15034.14
909.46	15122.20
909.63	15283.99
909.80	15167.26
909.97	15175.45
910.14	15064.86
910.31	15095.58
910.48	15073.05
910.65	15091.48
910.82	15050.52
910.99	15128.35
911.16	14929.69
911.33	15095.58
911.50	15206.17
911.66	15073.05
911.83	15015.71
912.00	14999.32
912.17	14933.79
912.34	14888.73
912.51	14907.16
912.68	14833.44
912.85	14925.60
913.02	14741.28
913.19	14780.19
913.36	14798.62
913.53	14935.84
913.70	14513.95
913.86	14825.25
914.03	14784.29
914.20	14599.97
914.37	14663.46
914.54	14688.03
914.71	14905.12
914.88	14536.48
915.05	14841.63
915.22	14403.36
915.39	14458.66
915.55	14622.50
915.72	14282.53
915.89	14546.72
916.06	14669.60
916.23	14292.77
916.40	14241.57
916.57	14378.79
916.74	14059.31
916.91	14182.18
917.07	14057.26
917.24	14212.90
917.41	13891.37
917.58	14192.42
917.75	13977.39
917.92	14051.11
918.09	13692.72
918.26	14116.65
918.42	13971.24
918.59	13846.32
918.76	13653.81
918.93	13725.49
919.10	13496.11
919.27	13739.82
919.44	13889.32
919.60	13690.67
919.77	13702.96
919.94	13602.61
920.11	13510.45
920.28	13592.37
920.45	13559.60
920.61	13360.95
920.78	13274.93
920.95	13424.44
921.12	13281.08
921.29	13209.40
921.46	13256.50
921.62	13094.71
921.79	13137.72
921.96	12955.45
922.13	12951.35
922.30	13018.94
922.47	12957.50
922.63	12873.53
922.80	12857.15
922.97	12709.69
923.14	12488.51
923.31	12781.37
923.47	12681.02
923.64	12853.05
923.81	12447.55
923.98	12691.26
924.15	12244.81
924.32	12654.40
924.48	12498.75
924.65	12412.74
924.82	12255.04
924.99	12308.29
925.15	11976.52
925.32	12427.07
925.49	11951.95
925.66	11929.42
925.83	11894.60
925.99	11870.03
926.16	12056.39
926.33	12078.92
926.50	11759.44
926.67	12066.63
926.83	11861.84
927.00	11794.25
927.17	11493.20
927.34	11499.34
927.50	11669.33
927.67	11761.48
927.84	11544.40
928.01	11450.19
928.17	11272.02
928.34	11456.34
928.51	11315.03
928.68	11263.83
928.84	11300.69
929.01	11032.41
929.18	10864.47
929.35	11114.33
929.51	11075.42
929.68	11151.19
929.85	10671.97
930.02	11048.79
930.18	10948.44
930.35	10706.78
930.52	10807.13
930.69	10811.23
930.85	10741.60
931.02	10620.77
931.19	10657.63
931.36	10575.71
931.52	10508.13
931.69	10483.55
931.86	10461.02
932.02	10381.15
932.19	10151.78
932.36	10248.04
932.53	10268.52
932.69	9989.99
932.86	10229.60
933.03	10104.68
933.19	10045.29
933.36	10020.71
933.53	9946.98
933.70	9766.76
933.86	9869.16
934.03	9815.91
934.20	9715.56
934.36	9815.91
934.53	9652.08
934.70	9459.57
934.86	9672.56
935.03	9193.33
935.20	9572.21
935.36	9191.28
935.53	9154.42
935.70	9140.08
935.86	9135.99
936.03	8939.38
936.20	8832.89
936.36	8851.32
936.53	8892.28
936.70	8912.76
936.86	8732.54
937.03	8540.03
937.20	8525.69
937.36	8451.97
937.53	8357.76
937.70	8101.76
937.86	8116.10
938.03	8148.87
938.20	8089.48
938.36	7876.49
938.53	7929.74
938.70	7724.94
938.86	7733.13
939.03	7704.46
939.20	7573.39
939.36	7608.20
939.53	7362.45
939.70	7540.62
939.86	7100.31
940.03	7188.37
940.19	7026.58
940.36	6938.52
940.53	6848.41
940.69	6920.09
940.86	6754.20
941.03	6703.00
941.19	6530.97
941.36	6522.78
941.52	6500.25
941.69	6360.99
941.86	6371.23
942.02	6358.94
942.19	6250.40
942.35	6268.83
942.52	6221.73
942.69	6027.17
942.85	6098.85
943.02	6086.56
943.18	6055.84
943.35	6068.13
943.52	5926.82
943.68	5869.48
943.85	6002.60
944.01	5730.22
944.18	5705.64
944.35	5830.57
944.51	5689.26
944.68	5488.56
944.84	5564.33
945.01	5687.21
945.17	5629.87
945.34	5664.68
945.51	5617.58
945.67	5482.41
945.84	5453.74
946.00	5492.65
946.17	5541.80
946.33	5488.56
946.50	5527.47
946.67	5476.27
946.83	5431.21
947.00	5498.80
947.16	5457.84
947.33	5363.63
947.49	5595.05
947.66	5334.96
947.82	5566.38
947.99	5412.78
948.16	5408.69
948.32	5539.76
948.49	5480.36
948.65	5533.61
948.82	5470.12
948.98	5445.55
949.15	5255.09
949.31	5425.07
949.48	5414.83
949.64	5382.06
949.81	5324.72
949.97	5388.21
950.14	5482.41
950.30	5408.69
950.47	5523.37
950.63	5238.70
950.80	5404.59
950.96	5488.56
951.13	5291.95
951.30	5400.49
951.46	5578.67
951.63	5466.03
951.79	5517.23
951.96	5572.52
952.12	5404.59
952.29	5584.81
952.45	5377.97
952.62	5414.83
952.78	5603.24
952.94	5502.89
953.11	5443.50
953.27	5416.88
953.44	5689.26
953.60	5576.62
953.77	5539.76
953.93	5615.53
954.10	5531.56
954.26	5517.23
954.43	5478.32
954.59	5455.79
954.76	5586.86
954.92	5572.52
955.09	5523.37
955.25	5545.90
955.42	5539.76
955.58	5754.79
955.75	5670.83
955.91	5511.08
956.07	5519.28
956.24	5642.15
956.40	5580.71
956.57	5611.43
956.73	5468.08
956.90	5627.82
957.06	5480.36
957.23	5554.09
957.39	5445.55
957.56	5550.00
957.72	5476.27
957.88	5527.47
958.05	5527.47
958.21	5707.69
958.38	5687.21
958.54	5576.62
958.71	5738.41
958.87	5568.43
959.03	5517.23
959.20	5513.13
959.36	5384.11
959.53	5562.28
959.69	5511.08
959.85	5525.42
960.02	5365.68
960.18	5498.80
960.35	5486.51
960.51	5529.52
960.68	5470.12
960.84	5484.46
961.00	5519.28
961.17	5533.61
961.33	5506.99
961.50	5595.05
961.66	5574.57
961.82	5552.04
961.99	5552.04
962.15	5494.70
962.31	5648.30
962.48	5459.88
962.64	5593.00
962.81	5558.19
962.97	5425.07
963.13	5539.76
963.30	5556.14
963.46	5488.56
963.62	5597.10
963.79	5474.22
963.95	5437.36
964.12	5490.60
964.28	5386.16
964.44	5502.89
964.61	5502.89
964.77	5595.05
964.93	5556.14
965.10	5517.23
965.26	5404.59
965.42	5457.84
965.59	5492.65
965.75	5435.31
965.92	5392.30
966.08	5353.39
966.24	5451.69
966.41	5316.53
966.57	5482.41
966.73	5341.10
966.90	5490.60
967.06	5310.38
967.22	5334.96
967.39	5253.04
967.55	5345.20
967.71	5298.10
967.88	5218.22
968.04	5287.86
968.20	5105.59
968.37	5257.14
968.53	5322.67
968.69	5382.06
968.85	5318.57
969.02	5345.20
969.18	5175.22
969.34	5214.13
969.51	5273.52
969.67	5296.05
969.83	5046.20
970.00	5185.46
970.16	5068.72
970.32	5126.07
970.48	5304.24
970.65	5130.16
970.81	5015.48
970.97	5105.59
971.14	5076.91
971.30	5099.44
971.46	4992.95
971.63	5109.68
971.79	5148.59
971.95	5068.72
972.11	4958.13
972.28	5070.77
972.44	5025.72
972.60	4931.51
972.76	4962.23
972.93	5027.76
973.09	5046.20
973.25	5160.88
973.42	4951.99
973.58	5115.83
973.74	5017.52
973.90	5015.48
974.07	4806.58
974.23	4841.40
974.39	4929.46
974.55	4962.23
974.72	4929.46
974.88	4792.25
975.04	4974.52
975.20	4745.14
975.37	4808.63
975.53	4775.86
975.69	4857.78
975.85	4775.86
976.01	4702.14
976.18	4765.62
976.34	4816.82
976.50	4810.68
976.66	4949.94
976.83	4810.68
976.99	4718.52
977.15	4714.42
977.31	4642.75
977.47	4739.00
977.64	4675.51
977.80	4646.84
977.96	4673.46
978.12	4532.15
978.29	4706.23
978.45	4530.11
978.61	4693.94
978.77	4673.46
978.93	4655.03
979.10	4491.20
979.26	4720.57
979.42	4556.73
979.58	4497.34
979.74	4450.24
979.91	4573.11
980.07	4435.90
980.23	4638.65
980.39	4509.63
980.55	4446.14
980.71	4405.18
980.88	4368.32
981.04	4569.02
981.20	4454.33
981.36	4470.72
981.52	4429.76
981.68	4323.26
981.85	4364.22
982.01	4417.47
982.17	4292.54
982.33	4425.66
982.49	4384.70
982.65	4337.60
982.82	4333.50
982.98	4200.38
983.14	4198.34
983.30	4417.47
983.46	4313.02
983.62	4345.79
983.79	4186.05
983.95	4196.29
984.11	4175.81
984.27	4241.34
984.43	4198.34
984.59	4136.90
984.75	4306.88
984.91	4218.82
985.08	4227.01
985.24	4132.80
985.40	4147.14
985.56	4067.27
985.72	4147.14
985.88	4247.49
986.04	3985.35
986.20	3981.25
986.37	4081.60
986.53	4112.32
986.69	3997.64
986.85	3977.16
987.01	3928.00
987.17	4167.62
987.33	4030.40
987.49	4085.70
987.65	4118.47
987.82	4003.78
987.98	3940.29
988.14	3915.72
988.30	4042.69
988.46	3897.28
988.62	4038.59
988.78	3966.92
988.94	3954.63
989.10	3897.28
989.26	3878.85
989.42	3837.89
989.59	3735.50
989.75	3735.50
989.91	3936.20
990.07	3760.07
990.23	3788.74
990.39	3772.36
990.55	3813.32
990.71	3801.03
990.87	3788.74
991.03	3837.89
991.19	3710.92
991.35	3772.36
991.51	3790.79
991.67	3809.22
991.83	3850.18
992.00	3776.45
992.16	3760.07
992.32	3678.15
992.48	3790.79
992.64	3663.82
992.80	3758.02
992.96	3581.90
993.12	3653.58
993.28	3690.44
993.44	3665.86
993.60	3655.62
993.76	3717.06
993.92	3643.34
994.08	3651.53
994.24	3495.88
994.40	3571.66
994.56	3653.58
994.72	3610.57
994.88	3502.03
995.04	3524.55
995.20	3436.49
995.36	3518.41
995.52	3520.46
995.68	3575.75
995.84	3475.40
996.00	3608.52
996.16	3473.36
996.32	3420.11
996.48	3452.88
996.64	3442.64
996.80	3504.07
996.96	3583.95
997.12	3483.59
997.28	3413.96
997.44	3270.61
997.60	3377.10
997.76	3286.99
997.92	3438.54
998.08	3426.25
998.24	3196.88
998.40	3467.21
998.56	3403.72
998.72	3409.87
998.88	3258.32
999.04	3354.57
999.20	3510.22
999.36	3250.13
999.52	3393.48
999.68	3416.01
999.84	3233.74
1000.00	3280.85
1000.16	3270.61
1000.32	3241.93
1000.48	3413.96
1000.64	3182.54
1000.80	3190.74
1000.95	3198.93
1001.11	3246.03
1001.27	3086.29
1001.43	3243.98
1001.59	3184.59
1001.75	3053.52
1001.91	3213.26
1002.07	3074.00
1002.23	3174.35
1002.39	3057.62
1002.55	3157.97
1002.71	3180.50
1002.87	3143.63
1003.03	3071.95
1003.19	3090.38
1003.34	3119.06
1003.50	3090.38
1003.66	3162.06
1003.82	3100.62
1003.98	3016.66
1004.14	3078.10
1004.30	2955.22
1004.46	2942.93
1004.62	2959.31
1004.78	2928.60
1004.94	2977.75
1005.09	3014.61
1005.25	3094.48
1005.41	2936.79
1005.57	2934.74
1005.73	2949.08
1005.89	2944.98
1006.05	3012.56
1006.21	2944.98
1006.37	2932.69
1006.52	2955.22
1006.68	2879.44
1006.84	2987.99
1007.00	2914.26
1007.16	3035.09
1007.32	2906.07
1007.48	2854.87
1007.64	2858.96
1007.79	2873.30
1007.95	2826.20
1008.11	2918.36
1008.27	2830.29
1008.43	2987.99
1008.59	2740.18
1008.75	2826.20
1008.91	2822.10
1009.06	2813.91
1009.22	2787.29
1009.38	2789.33
1009.54	2846.68
1009.70	2807.77
1009.86	2695.13
1010.01	2910.16
1010.17	2729.94
1010.33	2863.06
1010.49	2813.91
1010.65	2738.13
1010.81	2742.23
1010.96	2693.08
1011.12	2656.22
1011.28	2721.75
1011.44	2787.29
1011.60	2748.37
1011.76	2717.65
1011.91	2709.46
1012.07	2566.10
1012.23	2619.35
1012.39	2596.82
1012.55	2789.33
1012.71	2549.72
1012.86	2648.02
1013.02	2695.13
1013.18	2658.26
1013.34	2516.95
1013.50	2678.74
1013.65	2668.50
1013.81	2609.11
1013.97	2545.63
1014.13	2641.88
1014.29	2502.62
1014.44	2600.92
1014.60	2545.63
1014.76	2588.63
1014.92	2584.54
1015.07	2584.54
1015.23	2588.63
1015.39	2496.47
1015.55	2549.72
1015.71	2437.08
1015.86	2480.09
1016.02	2457.56
1016.18	2453.47
1016.34	2594.78
1016.49	2576.34
1016.65	2572.25
1016.81	2551.77
1016.97	2514.91
1017.12	2514.91
1017.28	2494.43
1017.44	2326.49
1017.60	2471.90
1017.75	2408.41
1017.91	2435.03
1018.07	2432.99
1018.23	2463.71
1018.38	2375.64
1018.54	2394.08
1018.70	2510.81
1018.86	2394.08
1019.01	2357.21
1019.17	2332.64
1019.33	2543.58
1019.49	2383.84
1019.64	2441.18
1019.80	2334.68
1019.96	2394.08
1020.12	2324.44
1020.27	2263.01
1020.43	2265.05
1020.59	2310.11
1020.74	2312.16
1020.90	2416.60
1021.06	2312.16
1021.22	2334.68
1021.37	2351.07
1021.53	2279.39
1021.69	2318.30
1021.84	2254.81
1022.00	2301.92
1022.16	2176.99
1022.31	2314.20
1022.47	2349.02
1022.63	2359.26
1022.79	2174.94
1022.94	2306.01
1023.10	2420.70
1023.26	2287.58
1023.41	2213.85
1023.57	2131.94
1023.73	2232.29
1023.88	2224.09
1024.04	2154.46
1024.20	2166.75
1024.35	2267.10
1024.51	2213.85
1024.67	2191.33
1024.82	2275.29
1024.98	2142.18
1025.14	2205.66
1025.29	2207.71
1025.45	2160.61
1025.61	2119.65
1025.76	2154.46
1025.92	2097.12
1026.08	2164.70
1026.23	2234.33
1026.39	2172.89
1026.55	2195.42
1026.70	2084.83
1026.86	2111.46
1027.02	2093.02
1027.17	2136.03
1027.33	2207.71
1027.48	2105.31
1027.64	2093.02
1027.80	2088.93
1027.95	2086.88
1028.11	2009.06
1028.27	2093.02
1028.42	2133.98
1028.58	2025.44
1028.73	2035.68
1028.89	1937.38
1029.05	2187.23
1029.20	2007.01
>>>>>End Processed Spectral Data<<<<<
