SpectraSuite Data File
++++++++++++++++++++++++++++++++++++
Date: Fri Jun 02 14:53:33 CEST 2017
User: INFO_000
Dark Spectrum Present: No
Reference Spectrum Present: No
Number of Sampled Component Spectra: 1
Spectrometers: USB4H00879
Integration Time (usec): 80000 (USB4H00879)
Spectra Averaged: 1 (USB4H00879)
Boxcar Smoothing: 0 (USB4H00879)
Correct for Electrical Dark: No (USB4H00879)
Strobe/Lamp Enabled: No (USB4H00879)
Correct for Detector Non-linearity: No (USB4H00879)
Correct for Stray Light: No (USB4H00879)
Number of Pixels in Processed Spectrum: 3648
>>>>>Begin Processed Spectral Data<<<<<
345.13	1363.95
345.34	1363.95
345.56	1363.95
345.78	1234.93
345.99	1245.16
346.21	1773.54
346.42	1716.20
346.64	1691.62
346.86	1806.31
347.07	1638.38
347.29	1662.95
347.50	1626.09
347.72	1722.34
347.94	1755.11
348.15	1638.38
348.37	1658.85
348.59	1669.09
348.80	1656.81
349.02	1769.44
349.23	1890.28
349.45	1896.42
349.67	1877.99
349.88	1761.25
350.10	1970.15
350.31	1880.04
350.53	1837.03
350.75	1984.48
350.96	1783.78
351.18	1886.18
351.39	1953.76
351.61	1816.55
351.82	1845.22
352.04	1923.04
352.26	1820.64
352.47	1902.56
352.69	1912.80
352.90	1761.25
353.12	1796.07
353.34	1765.35
353.55	1888.23
353.77	1890.28
353.98	1851.36
354.20	1855.46
354.41	1908.71
354.63	1984.48
354.85	2041.82
355.06	1933.28
355.28	1828.84
355.49	1918.95
355.71	1906.66
355.92	1877.99
356.14	1884.13
356.35	1894.37
356.57	1877.99
356.79	1920.99
357.00	1888.23
357.22	2013.15
357.43	1912.80
357.65	1980.39
357.86	1837.03
358.08	1964.00
358.29	1935.33
358.51	1972.19
358.72	1943.52
358.94	1929.19
359.16	1957.86
359.37	1931.23
359.59	1951.71
359.80	1998.82
360.02	1996.77
360.23	1966.05
360.45	2029.54
360.66	1902.56
360.88	1824.74
361.09	1896.42
361.31	2019.30
361.52	1937.38
361.74	2041.82
361.95	2039.78
362.17	1927.14
362.38	2127.84
362.60	1972.19
362.81	2017.25
363.03	1947.62
363.24	2023.39
363.46	2115.55
363.67	2013.15
363.89	2029.54
364.10	2041.82
364.32	1947.62
364.53	2025.44
364.75	1912.80
364.96	1957.86
365.18	1976.29
365.39	2031.58
365.61	1888.23
365.82	2154.46
366.04	1998.82
366.25	2023.39
366.47	1976.29
366.68	2058.21
366.90	2015.20
367.11	2050.02
367.33	2101.22
367.54	2115.55
367.76	2023.39
367.97	2084.83
368.19	2000.87
368.40	2078.69
368.62	1996.77
368.83	2045.92
369.05	2060.26
369.26	1994.72
369.48	2017.25
369.69	2021.35
369.91	2119.65
370.12	1984.48
370.33	2133.98
370.55	2007.01
370.76	2072.54
370.98	2072.54
371.19	2084.83
371.41	2076.64
371.62	2142.18
371.84	2052.06
372.05	2093.02
372.27	2037.73
372.48	2070.50
372.69	2138.08
372.91	2142.18
373.12	2234.33
373.34	2121.70
373.55	2166.75
373.77	2195.42
373.98	2109.41
374.20	2199.52
374.41	2252.77
374.62	2193.37
374.84	2148.32
375.05	2234.33
375.27	2146.27
375.48	2158.56
375.70	2142.18
375.91	2203.61
376.12	2277.34
376.34	2146.27
376.55	2133.98
376.77	2248.67
376.98	2109.41
377.19	2168.80
377.41	2183.13
377.62	2222.05
377.84	2154.46
378.05	2338.78
378.27	2183.13
378.48	2369.50
378.69	2361.31
378.91	2289.63
379.12	2215.90
379.34	2207.71
379.55	2336.73
379.76	2246.62
379.98	2226.14
380.19	2297.82
380.41	2303.96
380.62	2279.39
380.83	2252.77
381.05	2293.72
381.26	2426.84
381.47	2277.34
381.69	2207.71
381.90	2351.07
382.12	2334.68
382.33	2263.01
382.54	2283.49
382.76	2275.29
382.97	2332.64
383.19	2265.05
383.40	2363.36
383.61	2295.77
383.83	2338.78
384.04	2336.73
384.25	2301.92
384.47	2422.75
384.68	2375.64
384.89	2275.29
385.11	2342.88
385.32	2346.97
385.54	2346.97
385.75	2328.54
385.96	2412.51
386.18	2473.95
386.39	2410.46
386.60	2322.40
386.82	2443.23
387.03	2402.27
387.24	2424.80
387.46	2469.85
387.67	2541.53
387.88	2465.75
388.10	2422.75
388.31	2416.60
388.52	2656.22
388.74	2516.95
388.95	2525.15
389.16	2545.63
389.38	2482.14
389.59	2600.92
389.80	2582.49
390.02	2598.87
390.23	2641.88
390.44	2570.20
390.66	2574.30
390.87	2482.14
391.08	2639.83
391.30	2818.00
391.51	2709.46
391.72	2738.13
391.94	2705.37
392.15	2592.73
392.36	2590.68
392.58	2641.88
392.79	2670.55
393.00	2746.33
393.22	2738.13
393.43	2758.61
393.64	2770.90
393.85	2680.79
394.07	2752.47
394.28	2721.75
394.49	2779.09
394.71	2723.80
394.92	2856.92
395.13	2754.52
395.35	2758.61
395.56	2789.33
395.77	2695.13
395.98	2797.53
396.20	2852.82
396.41	2891.73
396.62	2922.45
396.84	2789.33
397.05	2846.68
397.26	2889.68
397.47	3016.66
397.69	2840.53
397.90	3069.91
398.11	2951.12
398.32	2875.35
398.54	3037.14
398.75	2912.21
398.96	3104.72
399.18	3147.73
399.39	3010.51
399.60	3067.86
399.81	3020.75
400.03	3012.56
400.24	3307.47
400.45	3026.90
400.66	3211.22
400.88	2983.89
401.09	3194.83
401.30	3094.48
401.51	3356.62
401.73	3129.30
401.94	3129.30
402.15	3248.08
402.36	3334.09
402.58	3256.27
402.79	3143.63
403.00	3243.98
403.21	3243.98
403.43	3276.75
403.64	3303.37
403.85	3239.89
404.06	3344.33
404.27	3170.26
404.49	3153.87
404.70	3309.52
404.91	3352.52
405.12	3325.90
405.34	3286.99
405.55	3452.88
405.76	3243.98
405.97	3332.05
406.19	3416.01
406.40	3282.89
406.61	3393.48
406.82	3330.00
407.03	3348.43
407.25	3379.15
407.46	3442.64
407.67	3532.75
407.88	3434.44
408.09	3465.16
408.31	3405.77
408.52	3422.16
408.73	3393.48
408.94	3411.92
409.15	3389.39
409.37	3350.48
409.58	3547.08
409.79	3547.08
410.00	3577.80
410.21	3436.49
410.43	3444.68
410.64	3469.26
410.85	3530.70
411.06	3434.44
411.27	3557.32
411.48	3616.71
411.70	3516.36
411.91	3629.00
412.12	3721.16
412.33	3575.75
412.54	3547.08
412.76	3805.13
412.97	3633.10
413.18	3624.90
413.39	3770.31
413.60	3688.39
413.81	3706.82
414.03	3622.86
414.24	3663.82
414.45	3954.63
414.66	3526.60
414.87	3717.06
415.08	3833.80
415.30	3725.26
415.51	3692.49
415.72	3764.17
415.93	3780.55
416.14	3733.45
416.35	3729.35
416.56	3798.98
416.78	3860.42
416.99	3979.20
417.20	3817.41
417.41	3928.00
417.62	3946.44
417.83	4009.92
418.04	3864.52
418.26	3956.68
418.47	3819.46
418.68	3946.44
418.89	3850.18
419.10	4007.87
419.31	4026.31
419.52	4081.60
419.73	4097.99
419.95	4050.88
420.16	3903.43
420.37	4063.17
420.58	4140.99
420.79	3932.10
421.00	3997.64
421.21	4220.86
421.42	4073.41
421.63	4095.94
421.85	4261.82
422.06	4169.66
422.27	4120.51
422.48	4198.34
422.69	4128.70
422.90	4140.99
423.11	4218.82
423.32	4327.36
423.53	4345.79
423.75	4284.35
423.96	4472.76
424.17	4364.22
424.38	4476.86
424.59	4358.08
424.80	4589.50
425.01	4464.57
425.22	4282.30
425.43	4456.38
425.64	4681.66
425.85	4566.97
426.06	4562.87
426.28	4632.51
426.49	4501.44
426.70	4521.92
426.91	4652.98
427.12	4597.69
427.33	4620.22
427.54	4501.44
427.75	4698.04
427.96	4747.19
428.17	4749.24
428.38	4794.29
428.59	4779.96
428.80	4726.71
429.01	4648.89
429.23	4853.69
429.44	4902.84
429.65	4945.84
429.86	4982.71
430.07	4951.99
430.28	4843.45
430.49	4988.85
430.70	5050.29
430.91	5025.72
431.12	4980.66
431.33	5044.15
431.54	5146.55
431.75	5150.64
431.96	4999.09
432.17	5064.63
432.38	5056.43
432.59	5314.48
432.80	5343.15
433.01	5164.98
433.22	5298.10
433.43	5328.81
433.64	5365.68
433.85	5230.51
434.06	5384.11
434.27	5304.24
434.49	5427.12
434.70	5408.69
434.91	5578.67
435.12	5492.65
435.33	5513.13
435.54	5429.17
435.75	5326.77
435.96	5478.32
436.17	5627.82
436.38	5644.20
436.59	5699.50
436.80	5509.04
437.01	5832.62
437.22	5875.62
437.43	5752.74
437.64	5572.52
437.85	5803.94
438.06	5738.41
438.27	5578.67
438.48	5783.46
438.69	6004.64
438.90	5834.66
439.11	5771.18
439.32	6053.80
439.53	5894.05
439.74	6041.51
439.95	5889.96
440.16	5975.97
440.37	5914.53
440.57	5865.38
440.78	6092.71
440.99	6131.62
441.20	6135.71
441.41	5892.01
441.62	6125.47
441.83	6072.23
442.04	6244.26
442.25	6051.75
442.46	6143.91
442.67	6178.72
442.88	6569.88
443.09	6191.01
443.30	6270.88
443.51	6350.75
443.72	6512.54
443.93	6483.87
444.14	6666.14
444.35	6188.96
444.56	6455.20
444.77	6350.75
444.98	6543.26
445.19	6471.58
445.40	6588.32
445.61	6481.82
445.81	6741.91
446.02	6602.65
446.23	6551.45
446.44	6367.13
446.65	6713.24
446.86	6694.81
447.07	6549.40
447.28	6836.12
447.49	6778.78
447.70	6746.01
447.91	6959.00
448.12	6838.17
448.33	6897.56
448.54	6909.85
448.74	6664.09
448.95	6909.85
449.16	6815.64
449.37	6995.86
449.58	7016.34
449.79	7122.84
450.00	6754.20
450.21	7083.92
450.42	7155.60
450.63	7266.19
450.84	7190.42
451.05	7303.06
451.25	7055.25
451.46	7120.79
451.67	7485.33
451.88	7237.52
452.09	7407.50
452.30	7333.78
452.51	7374.74
452.72	7466.89
452.93	7520.14
453.13	7290.77
453.34	7401.36
453.55	7589.77
453.76	7395.22
453.97	7847.82
454.18	7620.49
454.39	7765.90
454.60	7497.61
454.81	7690.12
455.01	7808.90
455.22	7616.40
455.43	7827.34
455.64	7911.30
455.85	8075.14
456.06	8204.16
456.27	7952.26
456.48	8050.57
456.68	7929.74
456.89	8052.61
457.10	8087.43
457.31	8210.31
457.52	8173.44
457.73	8124.29
457.94	8415.10
458.14	8138.63
458.35	8548.22
458.56	8411.01
458.77	8431.49
458.98	8499.07
459.19	8341.38
459.39	8716.16
459.60	8619.90
459.81	8544.13
460.02	8589.18
460.23	8605.56
460.44	8826.75
460.65	8765.31
460.85	8972.15
461.06	8957.82
461.27	8662.91
461.48	8972.15
461.69	9062.26
461.89	8839.03
462.10	9004.92
462.31	9017.21
462.52	8986.49
462.73	9037.69
462.94	9357.17
463.14	9201.52
463.35	9179.00
463.56	9590.64
463.77	9432.94
463.98	9213.81
464.18	9396.08
464.39	9572.21
464.60	9650.03
464.81	9527.15
465.02	9588.59
465.23	9928.55
465.43	9695.08
465.64	10004.33
465.85	9781.10
466.06	9926.50
466.27	10129.25
466.47	10100.58
466.68	10047.33
466.89	10051.43
467.10	10270.56
467.30	9932.65
467.51	10137.45
467.72	10542.94
467.93	10225.51
468.14	10262.37
468.34	10512.22
468.55	10422.11
468.76	10710.88
468.97	10401.63
469.17	10731.36
469.38	10676.06
469.59	10958.68
469.80	10667.87
470.01	10837.85
470.21	10626.91
470.42	11167.57
470.63	11245.40
470.84	11157.33
471.04	11339.60
471.25	11175.77
471.46	11192.15
471.67	11536.21
471.87	11439.95
472.08	11489.10
472.29	11759.44
472.50	11380.56
472.70	11380.56
472.91	11456.34
473.12	11751.24
473.33	11997.00
473.53	12017.48
473.74	12027.72
473.95	12107.59
474.16	12156.74
474.36	12193.61
474.57	12554.05
474.78	12332.87
474.99	12523.33
475.19	12525.38
475.40	12676.93
475.61	12808.00
475.81	12939.07
476.02	12998.46
476.23	12941.11
476.44	13006.65
476.64	13272.89
476.85	13174.58
477.06	13264.69
477.27	13569.84
477.47	13682.48
477.68	13512.50
477.89	13827.88
478.09	13838.12
478.30	13831.98
478.51	13842.22
478.71	14047.02
478.92	13958.96
479.13	14157.61
479.34	14442.28
479.54	14343.97
479.75	14350.12
479.96	14749.47
480.16	14589.73
480.37	14593.83
480.58	14602.02
480.78	15116.06
480.99	15095.58
481.20	15234.84
481.41	15306.52
481.61	15337.24
481.82	15339.29
482.03	15410.96
482.23	15367.96
482.44	15640.34
482.65	15847.18
482.85	15925.00
483.06	16072.46
483.27	15933.20
483.47	16082.70
483.68	16250.63
483.89	16238.34
484.09	16428.81
484.30	16424.71
484.51	16631.55
484.71	16525.06
484.92	16729.86
485.13	16838.40
485.33	16875.26
485.54	16752.38
485.75	17188.60
485.95	17155.83
486.16	17174.27
486.37	17497.84
486.57	17460.98
486.78	17387.25
486.98	17667.83
487.19	17721.07
487.40	17825.52
487.60	17819.38
487.81	18355.94
488.02	18241.26
488.22	17981.17
488.43	18507.49
488.64	18384.62
488.84	18482.92
489.05	18732.77
489.25	18540.26
489.46	18829.02
489.67	18935.52
489.87	19070.68
490.08	19146.46
490.29	19246.81
490.49	19586.77
490.70	19205.85
490.90	19601.11
491.11	19785.43
491.32	19715.80
491.52	19881.68
491.73	19783.38
491.94	19816.15
492.14	19920.59
492.35	20276.94
492.55	20229.84
492.76	20375.24
492.97	20571.85
493.17	20426.44
493.38	20987.58
493.58	20993.73
493.79	20854.47
494.00	21126.85
494.20	21040.83
494.41	21114.56
494.61	21266.11
494.82	21399.23
495.02	21251.77
495.23	21685.94
495.44	21581.49
495.64	21802.68
495.85	21669.56
496.05	21892.79
496.26	21687.99
496.47	22382.25
496.67	21911.22
496.88	22455.98
497.08	21919.41
497.29	22460.07
497.49	22541.99
497.70	22752.93
497.91	22800.04
498.11	23060.13
498.32	22914.72
498.52	23115.42
498.73	23240.35
498.93	23348.89
499.14	23314.08
499.34	23252.64
499.55	23695.00
499.76	23553.69
499.96	23725.72
500.17	23463.58
500.37	23750.29
500.58	23752.34
500.78	24116.88
500.99	23901.84
501.19	24131.22
501.40	24495.75
501.60	24010.39
501.81	24493.71
502.02	24217.23
502.22	24311.44
502.43	24415.88
502.63	24741.51
502.84	24542.86
503.04	24528.52
503.25	24772.23
503.45	24714.89
503.66	24909.44
503.86	24747.65
504.07	25122.43
504.27	25155.20
504.48	25620.09
504.68	25286.27
504.89	25738.87
505.09	25581.18
505.30	25505.40
505.50	25577.08
505.71	25478.78
505.91	25915.00
506.12	25726.58
506.32	25917.04
506.53	26019.44
506.73	25982.58
506.94	26162.80
507.14	25992.82
507.35	26144.37
507.55	26220.14
507.76	26383.98
507.96	26424.94
508.17	26834.53
508.37	26279.54
508.58	26773.10
508.78	26674.79
508.99	26609.26
509.19	26834.53
509.40	26834.53
509.60	27129.44
509.81	27149.92
510.01	26986.08
510.22	27006.56
510.42	27207.26
510.63	27367.01
510.83	27350.62
511.04	27268.70
511.24	27420.25
511.44	27342.43
511.65	27471.45
511.85	27735.64
512.06	27428.45
512.26	27641.43
512.47	27858.52
512.67	27663.96
512.88	27829.85
513.08	27659.87
513.29	27979.35
513.49	27717.21
513.69	28223.06
513.90	28319.31
514.10	28098.13
514.31	28073.56
514.51	28597.84
514.72	28206.67
514.92	28358.22
515.13	28239.44
515.33	28268.11
515.53	28532.30
515.74	28436.05
515.94	28552.78
516.15	28626.51
516.35	28661.32
516.56	28823.11
516.76	28687.95
516.96	28866.12
517.17	29072.96
517.37	28933.70
517.58	29099.59
517.78	28984.90
517.99	28868.17
518.19	29392.45
518.39	29234.75
518.60	29355.58
518.80	29142.60
519.01	29236.80
519.21	29353.54
519.41	29310.53
519.62	29429.31
519.82	29707.83
520.03	29644.35
520.23	29687.36
520.43	29609.53
520.64	29890.10
520.84	30146.10
521.05	29902.39
521.25	29853.24
521.45	30432.82
521.66	30086.71
521.86	30602.80
522.07	30365.23
522.27	30443.06
522.47	30180.92
522.68	30815.79
522.88	30379.57
523.08	30733.87
523.29	30670.38
523.49	30443.06
523.70	30897.70
523.90	30909.99
524.10	30823.98
524.31	31311.39
524.51	31063.59
524.71	31458.85
524.92	31323.68
525.12	31581.73
525.33	31051.30
525.53	31354.40
525.73	31690.27
525.94	31628.83
526.14	31661.60
526.34	31864.35
526.55	31583.77
526.75	31933.98
526.95	32187.92
527.16	31884.83
527.36	31829.53
527.56	32216.60
527.77	32271.89
527.97	32194.07
528.17	32568.85
528.38	32677.39
528.58	32527.89
528.78	32718.35
528.99	32382.48
529.19	33162.76
529.39	32574.99
529.60	32900.62
529.80	32841.23
530.00	32904.71
530.21	32884.23
530.41	33359.36
530.61	33187.33
530.82	33353.22
531.02	32855.56
531.22	33302.02
531.43	33351.17
531.63	33435.14
531.83	33725.95
532.04	33639.93
532.24	33453.57
532.44	34297.33
532.64	34065.91
532.85	34147.83
533.05	34190.84
533.25	34074.10
533.46	34184.69
533.66	34469.36
533.86	34086.39
534.07	34643.44
534.27	34561.52
534.47	34657.78
534.67	34799.08
534.88	34663.92
535.08	35034.60
535.28	34901.48
535.49	35098.09
535.69	35679.71
535.89	35599.84
536.09	35528.16
536.30	35587.55
536.50	35509.73
536.70	35886.56
536.91	35483.11
537.11	36185.56
537.31	35702.24
537.51	36101.59
537.72	36351.45
537.92	35980.76
538.12	36363.73
538.32	36339.16
538.53	36408.79
538.73	36144.60
538.93	36224.47
539.13	36087.26
539.34	36517.33
539.54	36423.12
539.74	36892.11
539.94	36378.07
540.15	36347.35
540.35	36658.64
540.55	36885.97
540.75	37070.28
540.96	37166.54
541.16	37033.42
541.36	37051.85
541.56	37209.54
541.77	37778.88
541.97	37283.27
542.17	37551.56
542.37	37479.88
542.58	37383.62
542.78	37819.84
542.98	37668.29
543.18	37705.15
543.38	38172.09
543.59	38016.44
543.79	37813.70
543.99	38030.78
544.19	38006.20
544.40	38051.26
544.60	38196.67
544.80	38260.15
545.00	38018.49
545.20	38616.50
545.41	38516.15
545.61	38028.73
545.81	38550.96
546.01	38858.16
546.21	38663.60
546.42	38876.59
546.62	38978.99
546.82	38639.03
547.02	38905.26
547.22	38800.82
547.43	39032.24
547.63	39202.22
547.83	39220.65
548.03	39214.51
548.23	39116.20
548.44	39030.19
548.64	39343.53
548.84	39794.08
549.04	39460.26
549.24	39646.63
549.45	39884.19
549.65	39589.28
549.85	39323.05
550.05	40129.95
550.25	39910.82
550.45	40474.01
550.66	40193.43
550.86	39859.62
551.06	40285.59
551.26	40242.59
551.46	40289.69
551.66	40109.47
551.87	40189.34
552.07	40629.65
552.27	40351.13
552.47	40385.94
552.67	40662.42
552.87	39878.05
553.07	40629.65
553.28	41020.81
553.48	40723.86
553.68	40717.71
553.88	41262.47
554.08	40705.43
554.28	40514.97
554.48	41074.06
554.69	41051.53
554.89	40990.09
555.09	41178.51
555.29	40916.37
555.49	41012.62
555.69	41178.51
555.89	41303.43
556.10	41581.96
556.30	41313.67
556.50	41608.58
556.70	41229.71
556.90	41522.57
557.10	41960.83
557.30	41254.28
557.50	41827.71
557.70	41729.41
557.91	41796.99
558.11	42231.16
558.31	42300.79
558.51	41823.62
558.71	42382.71
558.91	42292.60
559.11	42192.25
559.31	42208.64
559.51	42012.03
559.72	42521.98
559.92	42554.74
560.12	42220.92
560.32	42829.17
560.52	42265.98
560.72	42497.40
560.92	42950.00
561.12	42624.37
561.32	42849.65
561.52	42939.76
561.72	43242.86
561.93	42806.64
562.13	43144.56
562.33	42900.85
562.53	43165.04
562.73	42921.33
562.93	43009.39
563.13	43326.83
563.33	42976.62
563.53	43130.22
563.73	43009.39
563.93	43390.31
564.13	43881.83
564.33	43517.29
564.53	43738.47
564.74	43576.68
564.94	43619.69
565.14	43687.27
565.34	43345.26
565.54	43853.15
565.74	43558.25
565.94	44086.62
566.14	43879.78
566.34	43859.30
566.54	44340.57
566.74	43674.98
566.94	44387.67
567.14	44281.18
567.34	43965.79
567.54	44768.60
567.74	44311.90
567.94	44203.36
568.14	44414.30
568.34	44879.19
568.54	44559.70
568.74	44905.81
568.94	44526.94
569.14	45278.54
569.34	44961.11
569.54	44911.95
569.75	44741.97
569.95	44914.00
570.15	44875.09
570.35	44821.84
570.55	45167.95
570.75	45176.14
570.95	45368.65
571.15	45063.50
571.35	45094.22
571.55	45454.67
571.75	45499.72
571.95	45768.01
572.15	45124.94
572.35	45526.35
572.55	45503.82
572.75	45681.99
572.95	45559.11
573.15	45903.17
573.35	45686.09
573.55	45931.84
573.75	45921.60
573.95	46193.98
574.15	46073.15
574.35	46185.79
574.55	46116.16
574.75	46163.26
574.95	46417.21
575.15	45989.19
575.34	46355.77
575.54	46806.33
575.74	46787.89
575.94	46761.27
576.14	46495.03
576.34	46996.79
576.54	47303.98
576.74	47011.12
576.94	46961.97
577.14	47392.04
577.34	47123.76
577.54	47238.45
577.74	47435.05
577.94	47396.14
578.14	47074.61
578.34	47985.96
578.54	47103.28
578.74	47447.34
578.94	48162.08
579.14	47453.48
579.34	47625.51
579.54	47871.27
579.74	48141.60
579.94	48104.74
580.13	48495.90
580.33	48024.87
580.53	48545.05
580.73	48096.55
580.93	48301.34
581.13	48266.53
581.33	48471.32
581.53	48778.52
581.73	48516.38
581.93	48903.45
582.13	48489.76
582.33	48581.91
582.53	48747.80
582.73	48786.71
582.92	49098.00
583.12	49235.22
583.32	49100.05
583.52	48811.29
583.72	48975.12
583.92	48866.58
584.12	49321.23
584.32	49767.69
584.52	49691.91
584.72	49511.69
584.92	49526.03
585.11	49837.32
585.31	49730.83
585.51	49630.47
585.71	49192.21
585.91	49929.48
586.11	49677.58
586.31	49954.05
586.51	49732.87
586.71	49986.82
586.91	50558.20
587.10	50236.67
587.30	49956.10
587.50	50451.71
587.70	50365.70
587.90	50244.87
588.10	50552.06
588.30	50582.78
588.50	50756.86
588.69	50863.35
588.89	50498.81
589.09	50304.26
589.29	50496.77
589.49	51055.86
589.69	50644.22
589.89	51057.91
590.08	50853.11
590.28	51205.36
590.48	50676.99
590.68	50685.18
590.88	51109.11
591.08	50683.13
591.28	50799.86
591.47	51127.54
591.67	50922.74
591.87	51197.17
592.07	51334.38
592.27	51318.00
592.47	51375.34
592.67	51510.51
592.86	51332.34
593.06	51399.92
593.26	51690.73
593.46	51846.38
593.66	51696.88
593.86	51870.95
594.05	51737.83
594.25	51950.82
594.45	51690.73
594.65	51897.58
594.85	51922.15
595.05	52028.65
595.24	52298.98
595.44	51842.28
595.64	51707.12
595.84	52149.48
596.04	51834.09
596.23	52286.69
596.43	52536.54
596.63	52436.19
596.83	52395.23
597.03	52643.04
597.22	52810.97
597.42	52681.95
597.62	52290.79
597.82	52530.40
598.02	52417.76
598.21	52700.38
598.41	52765.91
598.61	53216.47
598.81	52833.50
599.01	53425.36
599.20	52708.57
599.40	52851.93
599.60	53056.73
599.80	53460.18
600.00	52894.94
600.19	53556.43
600.39	52688.09
600.59	53521.62
600.79	53435.60
600.98	53449.94
601.18	53255.38
601.38	53644.49
601.58	53529.81
601.78	53396.69
601.97	53699.79
602.17	53789.90
602.37	53894.35
602.57	53583.05
602.76	53822.67
602.96	53482.70
603.16	54041.80
603.36	53705.93
603.55	54330.56
603.75	53673.16
603.95	54111.43
604.15	54523.07
604.34	54049.99
604.54	54385.86
604.74	54387.91
604.94	54383.81
605.13	54170.82
605.33	54357.19
605.53	54099.14
605.73	54664.38
605.92	54658.24
606.12	54830.27
606.32	54719.68
606.52	54267.08
606.71	54252.74
606.91	54557.89
607.11	54385.86
607.30	54512.83
607.50	54596.80
607.70	54705.34
607.90	54545.60
608.09	54521.02
608.29	54844.60
608.49	54858.94
608.68	54445.25
608.88	55108.79
609.08	54916.28
609.28	54781.12
609.47	54723.77
609.67	55350.45
609.87	54809.79
610.06	55168.18
610.26	55112.89
610.46	55090.36
610.66	54691.01
610.85	55297.20
611.05	54826.17
611.25	54957.24
611.44	54949.05
611.64	54834.36
611.84	54975.67
612.03	54858.94
612.23	54965.43
612.43	54897.85
612.62	54822.08
612.82	55071.93
613.02	55104.70
613.21	55205.05
613.41	55039.16
613.61	55106.74
613.80	54183.11
614.00	55426.23
614.20	55264.44
614.39	55121.08
614.59	54822.08
614.79	54822.08
614.98	55037.11
615.18	54488.26
615.38	55153.85
615.57	54883.51
615.77	55100.60
615.97	55028.92
616.16	54566.08
616.36	55248.05
616.56	54944.95
616.75	54815.93
616.95	54826.17
617.15	54906.04
617.34	54912.19
617.54	54949.05
617.74	55270.58
617.93	55078.07
618.13	54273.22
618.32	55055.54
618.52	54809.79
618.72	54713.53
618.91	54834.36
619.11	54656.19
619.31	54854.84
619.50	54598.85
619.70	54093.00
619.90	54713.53
620.09	54740.16
620.29	55024.82
620.48	54713.53
620.68	54871.23
620.88	54181.06
621.07	54324.42
621.27	54738.11
621.46	54465.73
621.66	54750.40
621.86	54490.30
622.05	54455.49
622.25	54666.43
622.44	54244.55
622.64	54176.97
622.84	54682.81
623.03	54527.17
623.23	54834.36
623.42	54484.16
623.62	54559.94
623.82	54682.81
624.01	54310.08
624.21	54613.18
624.40	54486.21
624.60	54340.80
624.80	54400.19
624.99	54320.32
625.19	53744.84
625.38	54465.73
625.58	54490.30
625.77	54383.81
625.97	54506.69
626.17	53853.39
626.36	54152.39
626.56	54127.81
626.75	54039.75
626.95	54293.70
627.14	53949.64
627.34	54217.92
627.54	54017.22
627.73	54230.21
627.93	53779.66
628.12	53966.02
628.32	54373.57
628.51	53976.26
628.71	54277.32
628.90	53976.26
629.10	54013.13
629.30	54217.92
629.49	54443.20
629.69	53722.32
629.88	53822.67
630.08	54183.11
630.27	54543.55
630.47	53974.22
630.66	53959.88
630.86	54269.12
631.05	53994.70
631.25	54445.25
631.44	54310.08
631.64	53963.98
631.84	53853.39
632.03	54645.95
632.23	54025.42
632.42	54113.48
632.62	54119.62
632.81	54090.95
633.01	54000.84
633.20	54406.34
633.40	54410.43
633.59	54119.62
633.79	53959.88
633.98	54310.08
634.18	54133.96
634.37	53847.24
634.57	53994.70
634.76	54797.50
634.96	54086.85
635.15	54373.57
635.35	54322.37
635.54	54035.66
635.74	54359.23
635.93	53619.92
636.13	54275.27
636.32	54174.92
636.52	53720.27
636.71	54076.61
636.91	53984.46
637.10	54195.40
637.30	54015.18
637.49	54072.52
637.69	53953.74
637.88	54535.36
638.08	54287.56
638.27	54815.93
638.46	54375.62
638.66	53777.61
638.85	53994.70
639.05	54506.69
639.24	54219.97
639.44	54203.59
639.63	54371.52
639.83	54109.38
640.02	54133.96
640.22	54310.08
640.41	54652.09
640.61	53789.90
640.80	54248.64
640.99	54142.15
641.19	54709.44
641.38	54156.49
641.58	54367.43
641.77	54078.66
641.97	53968.07
642.16	54203.59
642.36	54809.79
642.55	54885.56
642.74	54060.23
642.94	54723.77
643.13	54377.67
643.33	55104.70
643.52	54684.86
643.72	54869.18
643.91	54443.20
644.10	54764.73
644.30	54903.99
644.49	54310.08
644.69	54928.57
644.88	54656.19
645.08	54736.06
645.27	54758.59
645.46	54525.12
645.66	54731.96
645.85	54553.79
646.05	54858.94
646.24	54785.21
646.43	54748.35
646.63	55211.19
646.82	55307.44
647.02	54727.87
647.21	55276.72
647.40	54604.99
647.60	54645.95
647.79	55215.29
647.99	55153.85
648.18	54801.60
648.37	55610.54
648.57	55268.53
648.76	54658.24
648.96	54633.66
649.15	55309.49
649.34	55409.84
649.54	54727.87
649.73	54621.37
649.92	55141.56
650.12	55309.49
650.31	55698.61
650.51	55669.93
650.70	55592.11
650.89	54998.20
651.09	55639.22
651.28	55334.07
651.47	55370.93
651.67	55225.53
651.86	55962.79
652.06	54731.96
652.25	55409.84
652.44	55516.34
652.64	55084.22
652.83	55254.20
653.02	55596.21
653.22	55360.69
653.41	55409.84
653.60	55389.36
653.80	55241.91
653.99	55516.34
654.18	55256.24
654.38	55639.22
654.57	55766.19
654.76	55194.81
654.96	55657.65
655.15	55084.22
655.34	55383.22
655.54	55522.48
655.73	55389.36
655.92	56224.93
656.12	55612.59
656.31	55653.55
656.50	55876.78
656.70	55686.32
656.89	55641.26
657.08	56057.00
657.28	55688.37
657.47	55559.34
657.66	56087.72
657.86	56036.52
658.05	55925.93
658.24	56136.87
658.43	55674.03
658.63	56059.05
658.82	55968.94
659.01	56487.07
659.21	56038.57
659.40	56464.55
659.59	56038.57
659.79	56308.90
659.98	56288.42
660.17	56302.76
660.36	56134.82
660.56	56009.90
660.75	56118.44
660.94	56243.37
661.14	56302.76
661.33	56632.48
661.52	55694.51
661.71	56796.32
661.91	56063.14
662.10	56024.23
662.29	56224.93
662.49	56116.39
662.68	56349.86
662.87	56198.31
663.06	56286.37
663.26	56106.15
663.45	56253.61
663.64	56511.65
663.83	56702.11
664.03	56376.48
664.22	56079.53
664.41	56786.08
664.60	56513.70
664.80	56501.41
664.99	56384.68
665.18	56261.80
665.37	56657.06
665.57	57121.94
665.76	56542.37
665.95	56972.44
666.14	56685.73
666.34	56642.72
666.53	56665.25
666.72	56609.95
666.91	56659.10
667.11	56286.37
667.30	56792.22
667.49	56720.54
667.68	56718.49
667.87	56341.67
668.07	57021.59
668.26	56513.70
668.45	56790.17
668.64	56485.03
668.84	57097.37
669.03	56810.65
669.22	56505.51
669.41	56941.72
669.60	56833.18
669.80	56800.41
669.99	57306.26
670.18	56485.03
670.37	56601.76
670.57	57126.04
670.76	56702.11
670.95	57085.08
671.14	57015.45
671.33	57048.22
671.53	57169.05
671.72	57265.30
671.91	57095.32
672.10	57015.45
672.29	57103.51
672.48	56759.45
672.68	57732.24
672.87	56493.22
673.06	56708.25
673.25	56868.00
673.44	56968.35
673.64	56630.43
673.83	56495.27
674.02	56851.61
674.21	56489.12
674.40	57017.50
674.59	56511.65
674.79	56933.53
674.98	57013.40
675.17	57117.85
675.36	57105.56
675.55	57099.42
675.74	56685.73
675.94	56620.19
676.13	57441.43
676.32	57375.89
676.51	57480.34
676.70	57365.65
676.89	57001.11
677.08	57222.29
677.28	56878.24
677.47	57549.97
677.66	57539.73
677.85	57146.52
678.04	56870.04
678.23	57695.38
678.42	57158.81
678.62	56939.68
678.81	57767.05
679.00	56949.92
679.19	57537.68
679.38	57365.65
679.57	56913.05
679.76	56978.59
679.96	57459.86
680.15	57302.17
680.34	57425.04
680.53	56915.10
680.72	57537.68
680.91	57414.80
681.10	57042.07
681.29	57277.59
681.48	57072.79
681.68	56960.15
681.87	57078.94
682.06	57257.11
682.25	56618.14
682.44	57244.82
682.63	57191.58
682.82	56853.66
683.01	57242.77
683.20	56800.41
683.39	57296.02
683.59	56704.16
683.78	56812.70
683.97	57046.17
684.16	56865.95
684.35	56710.30
684.54	56853.66
684.73	57029.79
684.92	56997.02
685.11	56816.80
685.30	56804.51
685.49	57302.17
685.69	56990.87
685.88	56980.63
686.07	56816.80
686.26	56818.84
686.45	57285.78
686.64	57017.50
686.83	56931.48
687.02	57191.58
687.21	57103.51
687.40	57324.69
687.59	57058.46
687.78	57279.64
687.97	57189.53
688.16	57099.42
688.35	56644.77
688.54	56988.83
688.74	56710.30
688.93	56655.01
689.12	56949.92
689.31	56915.10
689.50	56890.52
689.69	56491.17
689.88	56339.62
690.07	56671.39
690.26	56603.81
690.45	57156.76
690.64	56558.75
690.83	56872.09
691.02	56485.03
691.21	56806.56
691.40	56456.35
691.59	56802.46
691.78	56931.48
691.97	56827.04
692.16	56399.01
692.35	57074.84
692.54	56747.17
692.73	56403.11
692.92	56603.81
693.11	56573.09
693.30	56626.34
693.49	56550.56
693.68	56407.20
693.87	56489.12
694.06	56726.69
694.25	56030.38
694.44	56186.02
694.63	56458.40
694.82	56630.43
695.01	56292.52
695.20	56460.45
695.39	56589.47
695.58	56339.62
695.77	55917.74
695.96	56071.34
696.15	56083.62
696.34	56458.40
696.53	55895.21
696.72	56577.18
696.91	56112.30
697.10	56218.79
697.29	55778.48
697.48	56472.74
697.67	55809.20
697.86	55989.42
698.05	55667.89
698.24	56161.45
698.43	55614.64
698.62	56298.66
698.81	55739.57
699.00	55940.27
699.19	55661.74
699.38	56407.20
699.57	55125.17
699.76	56124.58
699.95	55661.74
700.14	55624.88
700.32	55499.95
700.51	56007.85
700.70	56382.63
700.89	55637.17
701.08	55669.93
701.27	55841.96
701.46	55669.93
701.65	54918.33
701.84	55434.42
702.03	55389.36
702.22	55067.83
702.41	55528.62
702.60	55866.54
702.79	55172.28
702.98	55334.07
703.17	55391.41
703.35	55268.53
703.54	55448.75
703.73	55602.35
703.92	55170.23
704.11	55127.22
704.30	55024.82
704.49	54789.31
704.68	54408.39
704.87	54779.07
705.06	54711.49
705.25	54502.59
705.43	54785.21
705.62	54684.86
705.81	54670.53
706.00	55166.13
706.19	54621.37
706.38	54697.15
706.57	54723.77
706.76	54705.34
706.95	54496.45
707.14	54111.43
707.32	54279.36
707.51	54504.64
707.70	54435.01
707.89	54277.32
708.08	54678.72
708.27	54613.18
708.46	54830.27
708.65	54240.45
708.84	54641.85
709.02	54617.28
709.21	54486.21
709.40	54463.68
709.59	54260.93
709.78	53916.87
709.97	54004.94
710.16	54066.38
710.34	53773.52
710.53	54224.07
710.72	54021.32
710.91	53667.02
711.10	53953.74
711.29	53984.46
711.48	54043.85
711.66	53759.18
711.85	53451.98
712.04	53564.62
712.23	54035.66
712.42	53451.98
712.61	53626.06
712.80	53982.41
712.98	53773.52
713.17	53521.62
713.36	53894.35
713.55	53945.54
713.74	53347.54
713.93	53439.70
714.11	53630.16
714.30	53417.17
714.49	53296.34
714.68	53372.11
714.87	53359.83
715.06	53867.72
715.24	53312.72
715.43	53703.88
715.62	53048.53
715.81	53019.86
716.00	53253.33
716.18	52995.29
716.37	52958.42
716.56	52761.82
716.75	53318.87
716.94	53075.16
717.12	52575.45
717.31	52434.14
717.50	52337.89
717.69	52608.22
717.88	52407.52
718.06	52284.64
718.25	52384.99
718.44	52239.59
718.63	52348.13
718.82	51686.64
719.00	52370.66
719.19	51717.35
719.38	52364.51
719.57	51684.59
719.76	51682.54
719.94	51223.79
720.13	51789.03
720.32	51989.73
720.51	51647.72
720.69	51461.36
720.88	51252.47
721.07	51766.51
721.26	51213.55
721.44	51414.26
721.63	51315.95
721.82	51195.12
722.01	51254.51
722.20	51471.60
722.38	51145.97
722.57	50484.48
722.76	50779.39
722.95	50607.36
723.13	50287.87
723.32	50527.48
723.51	50365.70
723.70	50025.73
723.88	50834.68
724.07	50156.80
724.26	50601.21
724.44	49861.90
724.63	50531.58
724.82	50238.72
725.01	50330.88
725.19	50271.49
725.38	50058.50
725.57	49966.34
725.76	50097.41
725.94	49616.14
726.13	49681.67
726.32	49964.29
726.51	49405.20
726.69	50107.65
726.88	49872.14
727.07	49464.59
727.25	49822.98
727.44	49741.06
727.63	49333.52
727.82	49894.66
728.00	49665.29
728.19	49448.21
728.38	49945.86
728.56	49386.77
728.75	49779.98
728.94	49374.48
729.12	49581.32
729.31	49671.43
729.50	49374.48
729.69	49685.77
729.87	49513.74
730.06	49261.84
730.25	49390.86
730.43	49419.53
730.62	49186.07
730.81	49243.41
730.99	49261.84
731.18	49417.49
731.37	49415.44
731.55	49374.48
731.74	49714.44
731.93	49364.24
732.11	49007.89
732.30	48946.45
732.49	49243.41
732.67	49143.06
732.86	49411.34
733.05	49198.35
733.23	49009.94
733.42	49028.37
733.61	48657.69
733.79	49032.47
733.98	49411.34
734.17	49175.83
734.35	48723.22
734.54	48727.32
734.73	48899.35
734.91	49284.37
735.10	48559.39
735.29	48915.73
735.47	47985.96
735.66	48495.90
735.84	48637.21
736.03	48416.03
736.22	48913.69
736.40	48596.25
736.59	48411.93
736.78	48325.92
736.96	48430.36
737.15	48436.51
737.33	47957.28
737.52	48278.82
737.71	48084.26
737.89	48014.63
738.08	47904.04
738.27	47783.21
738.45	48211.23
738.64	47660.33
738.82	48217.38
739.01	48424.22
739.20	48002.34
739.38	47967.52
739.57	48373.02
739.75	47912.23
739.94	47799.59
740.13	47949.09
740.31	47684.90
740.50	47813.93
740.68	47865.13
740.87	47723.82
741.06	47594.79
741.24	47482.16
741.43	47473.96
741.61	47568.17
741.80	47600.94
741.99	47277.36
742.17	47158.58
742.36	47355.18
742.54	47256.88
742.73	47308.08
742.91	47303.98
743.10	46816.57
743.29	47232.30
743.47	47433.00
743.66	47260.97
743.84	47269.17
744.03	47209.78
744.21	46841.14
744.40	47494.44
744.59	47039.79
744.77	46751.03
744.96	46941.49
745.14	46822.71
745.33	47134.00
745.51	46869.81
745.70	46691.64
745.88	46175.55
746.07	47074.61
746.26	46568.76
746.44	46662.97
746.63	46976.31
746.81	46460.22
747.00	46228.80
747.18	46480.70
747.37	46372.16
747.55	46292.29
747.74	46492.99
747.92	46130.50
748.11	46372.16
748.29	46314.81
748.48	46425.40
748.66	46169.41
748.85	46013.76
749.03	46204.22
749.22	46093.63
749.41	45927.75
749.59	46220.61
749.78	45751.62
749.96	45311.31
750.15	45471.05
750.33	45428.04
750.52	45469.00
750.70	45577.54
750.89	45296.97
751.07	44875.09
751.26	45647.18
751.44	45380.94
751.63	45313.36
751.81	45251.92
752.00	45225.29
752.18	45319.50
752.37	45040.98
752.55	44682.58
752.74	44963.15
752.92	44842.32
753.10	44938.58
753.29	44668.25
753.47	45251.92
753.66	44629.34
753.84	45026.64
754.03	44995.92
754.21	44508.50
754.40	44696.92
754.58	44731.73
754.77	44449.11
754.95	44064.10
755.14	44272.99
755.32	44752.21
755.51	43898.21
755.69	44334.43
755.88	44148.06
756.06	44363.10
756.24	43871.59
756.43	44180.83
756.61	44260.70
756.80	43965.79
756.98	43640.17
757.17	43488.62
757.35	44121.44
757.54	43756.90
757.72	43738.47
757.90	43844.96
758.09	43668.84
758.27	43859.30
758.46	43287.92
758.64	43851.11
758.83	43580.78
759.01	43787.62
759.19	43521.38
759.38	43836.77
759.56	43717.99
759.75	43732.32
759.93	43414.89
760.12	43128.17
760.30	43353.45
760.48	43341.16
760.67	43488.62
760.85	43193.71
761.04	43701.61
761.22	43003.25
761.40	43134.32
761.59	43138.41
761.77	42642.81
761.96	42712.44
762.14	42823.03
762.32	42943.86
762.51	42483.06
762.69	42501.50
762.88	42896.75
763.06	42444.15
763.24	42620.28
763.43	42792.31
763.61	42618.23
763.80	42689.91
763.98	42618.23
764.16	42661.24
764.35	42282.36
764.53	42018.17
764.72	41991.55
764.90	42294.65
765.08	42124.67
765.27	42345.85
765.45	41854.34
765.63	41551.24
765.82	42454.39
766.00	41710.98
766.18	41690.50
766.37	41958.78
766.55	41692.55
766.74	42087.81
766.92	41706.88
767.10	41692.55
767.29	41391.50
767.47	41153.93
767.65	41448.84
767.84	41229.71
768.02	41459.08
768.20	41198.99
768.39	41436.55
768.57	41121.16
768.75	41366.92
768.94	41487.75
769.12	41235.85
769.30	40689.04
769.49	41264.52
769.67	40844.69
769.85	40789.39
770.04	40828.30
770.22	40433.05
770.40	40727.95
770.59	40494.49
770.77	40684.95
770.95	40967.57
771.14	40250.78
771.32	40127.90
771.50	39859.62
771.69	40408.47
771.87	40564.12
772.05	40508.82
772.24	39876.00
772.42	40320.41
772.60	39955.87
772.78	39859.62
772.97	39660.96
773.15	40179.10
773.33	39863.71
773.52	39630.24
773.70	40242.59
773.88	40482.20
774.07	40152.48
774.25	39777.70
774.43	39865.76
774.61	39986.59
774.80	40072.60
774.98	39703.97
775.16	39925.15
775.34	39820.70
775.53	39755.17
775.71	40062.36
775.89	39867.81
776.08	39867.81
776.26	40215.96
776.44	40142.24
776.62	39761.31
776.81	39966.11
776.99	40088.99
777.17	40048.03
777.35	40129.95
777.54	40263.07
777.72	40220.06
777.90	40238.49
778.08	40254.87
778.27	40340.89
778.45	40484.25
778.63	40154.52
778.81	39814.56
779.00	40572.31
779.18	40064.41
779.36	40678.80
779.54	40275.35
779.73	40539.54
779.91	40459.67
780.09	40324.50
780.27	40811.92
780.46	40627.60
780.64	41031.05
780.82	40666.52
781.00	40781.20
781.19	40846.74
781.37	40777.11
781.55	40818.07
781.73	41139.60
781.91	40768.91
782.10	40979.85
782.28	40844.69
782.46	40918.42
782.64	41074.06
782.82	40314.26
783.01	41256.33
783.19	41219.47
783.37	40924.56
783.55	40549.78
783.74	41354.63
783.92	40838.54
784.10	41477.51
784.28	40609.17
784.46	40695.19
784.64	40654.23
784.83	41047.44
785.01	40975.76
785.19	40840.59
785.37	40990.09
785.55	40899.98
785.74	40514.97
785.92	40179.10
786.10	40953.23
786.28	40555.93
786.46	40813.97
786.64	40500.63
786.83	40773.01
787.01	40435.10
787.19	40459.67
787.37	40656.28
787.55	40504.73
787.74	40175.00
787.92	40367.51
788.10	40328.60
788.28	40201.63
788.46	40830.35
788.64	39843.23
788.82	40324.50
789.01	40050.08
789.19	40402.33
789.37	39882.14
789.55	40226.20
789.73	39777.70
789.91	40109.47
790.09	39742.88
790.28	39568.80
790.46	39716.26
790.64	39888.29
790.82	39736.74
791.00	39300.52
791.18	39425.45
791.36	39660.96
791.55	39632.29
791.73	39228.84
791.91	39099.82
792.09	39179.69
792.27	39105.96
792.45	39347.62
792.63	39134.63
792.81	39167.40
793.00	38639.03
793.18	38616.50
793.36	38694.32
793.54	38786.48
793.72	38436.28
793.90	38393.27
794.08	38358.45
794.26	38600.12
794.44	38479.28
794.62	37807.55
794.81	38634.93
794.99	38149.56
795.17	37979.58
795.35	38069.69
795.53	38022.59
795.71	37895.61
795.89	37578.18
796.07	37653.95
796.25	37705.15
796.43	37305.80
796.61	37287.37
796.80	36926.92
796.98	37086.67
797.16	37246.41
797.34	37299.65
797.52	36773.33
797.70	37397.96
797.88	36818.38
798.06	36640.21
798.24	36705.74
798.42	37045.71
798.60	36623.83
798.78	36330.97
798.96	36730.32
799.14	36568.53
799.32	36339.16
799.51	36029.91
799.69	36363.73
799.87	36224.47
800.05	36138.46
800.23	36333.01
800.41	35976.67
800.59	36070.87
800.77	35436.00
800.95	35368.42
801.13	35780.06
801.31	35683.81
801.49	36019.67
801.67	35399.14
801.85	35530.21
802.03	35075.56
802.21	35081.70
802.39	35137.00
802.57	35212.77
802.75	34944.49
802.93	34874.86
803.11	34727.41
803.29	34373.11
803.47	35001.83
803.65	34932.20
803.83	34641.39
804.01	34305.52
804.19	34119.16
804.37	34235.89
804.55	34448.88
804.73	34432.50
804.91	34127.35
805.09	34133.50
805.27	33926.65
805.45	34149.88
805.63	33891.83
805.81	33717.76
805.99	34053.62
806.17	33943.03
806.35	33648.13
806.53	33596.93
806.71	33598.98
806.89	33570.30
807.07	33562.11
807.25	33684.99
807.43	33361.41
807.61	33562.11
807.79	33246.72
807.97	32902.67
808.15	32808.46
808.33	32830.99
808.51	33095.18
808.69	32906.76
808.87	32781.84
809.05	32744.97
809.23	32618.00
809.41	32525.84
809.59	32531.98
809.77	32376.34
809.95	32239.12
810.13	32650.77
810.31	31976.98
810.49	32523.79
810.67	32429.59
810.84	32284.18
811.02	32349.71
811.20	31825.43
811.38	32019.99
811.56	31782.43
811.74	32179.73
811.92	31976.98
812.10	31700.51
812.28	31663.64
812.46	31958.55
812.64	31897.11
812.82	31446.56
813.00	31417.89
813.18	31487.52
813.36	31645.21
813.53	31274.53
813.71	31675.93
813.89	31249.96
814.07	31442.46
814.25	31268.39
814.43	31092.26
814.61	31073.83
814.79	30934.57
814.97	30922.28
815.15	31116.84
815.33	30498.35
815.50	30512.69
815.68	30606.89
815.86	30805.55
816.04	30680.62
816.22	30742.06
816.40	30473.78
816.58	30398.00
816.76	30402.10
816.94	30264.88
817.11	30027.32
817.29	30340.66
817.47	30142.00
817.65	29967.93
817.83	30346.80
818.01	29953.59
818.19	29980.21
818.37	30039.61
818.54	29869.62
818.72	29828.66
818.90	29703.74
819.08	29961.78
819.26	30142.00
819.44	29883.96
819.62	29992.50
819.80	29693.50
819.97	29902.39
820.15	29511.23
820.33	29646.40
820.51	29603.39
820.69	29201.99
820.87	29402.69
821.05	29752.89
821.22	29183.55
821.40	29251.14
821.58	29144.64
821.76	29238.85
821.94	29222.47
822.12	29283.91
822.29	29201.99
822.47	28708.43
822.65	29369.92
822.83	29294.14
823.01	29054.53
823.19	28935.75
823.36	28786.25
823.54	28939.85
823.72	28829.26
823.90	28628.56
824.08	28603.98
824.25	28798.54
824.43	28335.70
824.61	28560.97
824.79	28333.65
824.97	28644.94
825.15	28542.54
825.32	28407.37
825.50	28327.50
825.68	28173.91
825.86	28442.19
826.04	28522.06
826.21	28196.43
826.39	28130.90
826.57	28175.95
826.75	28161.62
826.93	27862.61
827.10	28233.30
827.28	28186.19
827.46	28020.31
827.64	27852.38
827.81	27672.15
827.99	27684.44
828.17	27844.18
828.35	27905.62
828.53	27549.28
828.70	27641.43
828.88	27790.94
829.06	27491.93
829.24	27799.13
829.41	27567.71
829.59	27903.57
829.77	27469.40
829.95	27434.59
830.12	27450.97
830.30	27567.71
830.48	27631.19
830.66	27258.46
830.84	27477.60
831.01	27223.65
831.19	27190.88
831.37	27201.12
831.55	26955.36
831.72	27199.07
831.90	27203.17
832.08	27268.70
832.25	27272.80
832.43	26981.99
832.61	26760.81
832.79	26961.51
832.96	26871.40
833.14	26895.97
833.32	27055.72
833.50	26916.45
833.67	26715.75
833.85	26723.94
834.03	26771.05
834.20	27096.67
834.38	26736.23
834.56	26881.64
834.74	26574.44
834.91	26386.03
835.09	26617.45
835.27	26525.29
835.44	26281.58
835.62	26170.99
835.80	25917.04
835.98	26269.30
836.15	26443.37
836.33	26383.98
836.51	26566.25
836.68	26254.96
836.86	26351.21
837.04	26381.93
837.21	26343.02
837.39	26240.62
837.57	26388.08
837.75	26306.16
837.92	25927.28
838.10	26011.25
838.28	25878.13
838.45	26310.25
838.63	25822.84
838.81	26025.59
838.98	25783.93
839.16	25708.15
839.34	25697.91
839.51	25734.78
839.69	25327.23
839.87	25613.95
840.04	25345.66
840.22	25796.21
840.40	25615.99
840.57	25067.14
840.75	25462.40
840.93	25192.06
841.10	25618.04
841.28	25869.94
841.46	25536.12
841.63	25427.58
841.81	25609.85
841.98	25325.18
842.16	25282.17
842.34	25409.15
842.51	24936.07
842.69	25400.96
842.87	25247.36
843.04	25187.97
843.22	25024.13
843.40	25097.86
843.57	25140.86
843.75	25155.20
843.92	25192.06
844.10	24901.25
844.28	24991.36
844.45	25099.90
844.63	24958.60
844.81	25171.58
844.98	25212.54
845.16	24927.88
845.33	25065.09
845.51	24876.68
845.69	24833.67
845.86	24557.19
846.04	24555.15
846.21	24917.64
846.39	24274.57
846.57	24755.85
846.74	24510.09
846.92	24438.41
847.09	24227.47
847.27	24211.09
847.45	24389.26
847.62	24622.73
847.80	24321.68
847.97	24092.30
848.15	24307.34
848.32	24077.97
848.50	24239.76
848.68	24069.78
848.85	24155.79
849.03	23862.93
849.20	24114.83
849.38	24161.94
849.56	24202.89
849.73	24073.87
849.91	23932.56
850.08	24297.10
850.26	23809.68
850.43	23834.26
850.61	23875.22
850.78	23522.97
850.96	23977.62
851.14	23770.77
851.31	24069.78
851.49	23805.59
851.66	23658.14
851.84	23533.21
852.01	23903.89
852.19	23588.50
852.36	23385.76
852.54	23670.42
852.71	23416.47
852.89	23506.59
853.07	23469.72
853.24	23854.74
853.42	23621.27
853.59	23369.37
853.77	23643.80
853.94	23488.15
854.12	23230.11
854.29	22867.62
854.47	23514.78
854.64	23418.52
854.82	23195.29
854.99	23516.83
855.17	22896.29
855.34	23164.57
855.52	22830.76
855.69	23103.14
855.87	22843.04
856.04	22841.00
856.22	23178.91
856.39	22845.09
856.57	23295.64
856.74	22578.86
856.92	23015.07
857.09	22908.58
857.27	22939.30
857.44	23006.88
857.62	22752.93
857.79	22904.48
857.97	22779.56
858.14	22521.51
858.32	22533.80
858.49	22869.67
858.67	22427.31
858.84	22474.41
859.02	22490.79
859.19	22382.25
859.37	22419.11
859.54	22386.35
859.72	22380.20
859.89	22431.40
860.06	22671.01
860.24	22568.62
860.41	22660.77
860.59	22183.60
860.76	22320.81
860.94	21857.97
861.11	22580.90
861.29	22402.73
861.46	22224.56
861.64	22079.15
861.81	22144.69
861.98	21870.26
862.16	22099.63
862.33	21849.78
862.51	21696.18
862.68	21939.89
862.86	21884.59
863.03	21675.70
863.21	22066.86
863.38	21788.34
863.55	21671.61
863.73	21696.18
863.90	21722.80
864.08	21583.54
864.25	21706.42
864.43	21601.97
864.60	21434.04
864.77	21135.04
864.95	21497.53
865.12	21333.69
865.30	21622.45
865.47	21583.54
865.64	21431.99
865.82	21526.20
865.99	21335.74
866.17	21399.23
866.34	21511.86
866.51	21145.28
866.69	21513.91
866.86	21159.61
867.04	21169.85
867.21	21472.95
867.38	21030.59
867.56	20985.54
867.73	21212.86
867.91	20866.75
868.08	21020.35
868.25	20780.74
868.43	20707.01
868.60	20799.17
868.78	20848.32
868.95	20874.95
869.12	20741.83
869.30	20336.33
869.47	20639.43
869.64	20367.05
869.82	20346.57
869.99	20414.15
870.16	20385.48
870.34	20479.69
870.51	20451.02
870.69	20137.68
870.86	20530.89
871.03	20461.26
871.21	20463.30
871.38	20401.86
871.55	20057.81
871.73	20410.06
871.90	20129.48
872.07	20145.87
872.25	20031.18
872.42	20334.28
872.59	19898.06
872.77	20242.12
872.94	20035.28
873.11	20016.85
873.29	20106.96
873.46	19953.36
873.63	19678.93
873.81	19977.94
873.98	19891.92
874.15	19818.19
874.33	19486.42
874.50	19265.24
874.67	19693.27
874.85	19234.52
875.02	19597.01
875.19	19121.88
875.37	19304.15
875.54	19308.25
875.71	19386.07
875.88	19011.29
876.06	19279.58
876.23	19181.28
876.40	19005.15
876.58	19078.88
876.75	19064.54
876.92	18990.81
877.10	19289.82
877.27	18949.85
877.44	18800.35
877.61	18841.31
877.79	18788.07
877.96	18896.61
878.13	18757.35
878.31	18675.43
878.48	18593.51
878.65	18564.84
878.82	18568.93
879.00	18564.84
879.17	18609.89
879.34	18605.80
879.51	18558.69
879.69	18657.00
879.86	18323.18
880.03	18376.42
880.21	18165.48
880.38	18265.83
880.55	18511.59
880.72	18083.56
880.90	18439.91
881.07	18251.50
881.24	18106.09
881.41	18073.32
881.59	18132.72
881.76	18099.95
881.93	18083.56
882.10	17747.70
882.28	17712.88
882.45	17942.25
882.62	17825.52
882.79	17972.97
882.96	17452.79
883.14	18044.65
883.31	17821.42
883.48	17661.68
883.65	17467.13
883.83	17657.59
884.00	17596.15
884.17	17573.62
884.34	17612.53
884.51	17706.74
884.69	17544.95
884.86	17506.04
885.03	17391.35
885.20	17334.01
885.38	17549.04
885.55	17377.01
885.72	17614.58
885.89	17288.95
886.06	17563.38
886.24	17374.97
886.41	17426.17
886.58	17358.58
886.75	17768.18
886.92	17073.92
887.10	17293.05
887.27	17121.02
887.44	17280.76
887.61	17585.91
887.78	17379.06
887.95	17485.56
888.13	16963.33
888.30	16883.45
888.47	17161.98
888.64	17295.10
888.81	17014.52
888.99	16936.70
889.16	16740.10
889.33	16738.05
889.50	16926.46
889.67	16809.73
889.84	16854.78
890.01	16582.40
890.19	16961.28
890.36	16891.65
890.53	16729.86
890.70	16731.90
890.87	16617.22
891.04	16469.76
891.22	16490.24
891.39	16439.05
891.56	16539.40
891.73	16502.53
891.90	16363.27
892.07	16350.98
892.24	16322.31
892.42	16275.21
892.59	16404.23
892.76	16072.46
892.93	16150.28
893.10	16330.50
893.27	16119.56
893.44	16088.84
893.61	16006.92
893.79	16324.36
893.96	16142.09
894.13	16125.71
894.30	16027.40
894.47	16240.39
894.64	16166.67
894.81	15908.62
894.98	16287.50
895.15	16217.86
895.33	16002.83
895.50	16068.36
895.67	16115.47
895.84	16234.25
896.01	16045.84
896.18	15822.61
896.35	16078.60
896.52	16043.79
896.69	15798.03
896.86	15937.29
897.04	16051.98
897.21	15953.68
897.38	15980.30
897.55	15896.33
897.72	16041.74
897.89	15793.94
898.06	15808.27
898.23	15920.91
898.40	16027.40
898.57	15847.18
898.74	15750.93
898.91	15918.86
899.08	15845.13
899.26	15808.27
899.43	15910.67
899.60	15599.38
899.77	15871.76
899.94	16047.88
900.11	15855.37
900.28	15759.12
900.45	15693.58
900.62	15757.07
900.79	15900.43
900.96	15904.53
901.13	15916.81
901.30	15763.22
901.47	15482.64
901.64	15748.88
901.81	15697.68
901.98	15607.57
902.15	15865.61
902.32	15499.03
902.49	15824.65
902.66	15591.19
902.83	15664.91
903.01	15826.70
903.18	15429.40
903.35	15673.10
903.52	15705.87
903.69	15558.42
903.86	15941.39
904.03	15681.30
904.20	15914.77
904.37	15775.50
904.54	15652.63
904.71	15519.51
904.88	15640.34
905.05	15499.03
905.22	15671.06
905.39	15679.25
905.56	15626.00
905.73	15441.68
905.90	15501.08
906.07	15417.11
906.24	15673.10
906.41	15589.14
906.58	15832.85
906.75	15646.48
906.92	15527.70
907.09	15605.52
907.26	15722.26
907.43	15456.02
907.60	15752.98
907.77	15787.79
907.93	15499.03
908.10	15447.83
908.27	15525.65
908.44	15271.70
908.61	15425.30
908.78	15591.19
908.95	15730.45
909.12	15425.30
909.29	15222.55
909.46	15376.15
909.63	15519.51
909.80	15480.60
909.97	15353.62
910.14	15408.92
910.31	15386.39
910.48	15275.80
910.65	15286.04
910.82	15361.81
910.99	15126.30
911.16	15279.89
911.33	15337.24
911.50	15427.35
911.66	15011.61
911.83	15505.17
912.00	15046.43
912.17	14972.70
912.34	15159.06
912.51	14933.79
912.68	14913.31
912.85	15066.91
913.02	14958.36
913.19	14735.14
913.36	14817.05
913.53	14915.36
913.70	14720.80
913.86	15091.48
914.03	14741.28
914.20	14728.99
914.37	14642.98
914.54	14845.73
914.71	14815.01
914.88	14948.12
915.05	14653.22
915.22	14626.59
915.39	14511.91
915.55	14708.51
915.72	14485.28
915.89	14374.69
916.06	14280.49
916.23	14282.53
916.40	14247.72
916.57	14141.22
916.74	14149.42
916.91	14307.11
917.07	14090.02
917.24	14182.18
917.41	13954.86
917.58	14104.36
917.75	14042.92
917.92	13938.48
918.09	13842.22
918.26	13918.00
918.42	14012.20
918.59	13815.60
918.76	13713.20
918.93	13623.09
919.10	13606.70
919.27	13369.14
919.44	13678.38
919.60	13635.38
919.77	13524.79
919.94	13688.62
920.11	13621.04
920.28	13698.86
920.45	13258.55
920.61	13279.03
920.78	13354.80
920.95	13356.85
921.12	13139.77
921.29	13215.54
921.46	13168.44
921.62	12920.63
921.79	13104.95
921.96	12980.03
922.13	12969.79
922.30	12814.14
922.47	12738.37
922.63	12891.96
922.80	12803.90
922.97	12707.65
923.14	12508.99
923.31	12756.80
923.47	12541.76
923.64	12615.49
923.81	12347.20
923.98	12678.97
924.15	12556.10
924.32	12343.11
924.48	12379.97
924.65	12513.09
924.82	12121.93
924.99	12121.93
925.15	12156.74
925.32	12197.70
925.49	11939.66
925.66	12091.21
925.83	11953.99
925.99	11943.75
926.16	11829.07
926.33	12033.86
926.50	11628.37
926.67	11863.88
926.83	11722.57
927.00	11683.66
927.17	11603.79
927.34	11382.61
927.50	11530.06
927.67	11556.69
927.84	11355.99
928.01	11435.86
928.17	11317.08
928.34	11300.69
928.51	11206.48
928.68	10973.02
928.84	11341.65
929.01	11011.93
929.18	11091.80
929.35	11083.61
929.51	10762.08
929.68	10651.49
929.85	10774.36
930.02	10821.47
930.18	10557.28
930.35	10651.49
930.52	10567.52
930.69	10751.84
930.85	10803.04
931.02	10329.95
931.19	10342.24
931.36	10473.31
931.52	10221.41
931.69	10348.39
931.86	10405.73
932.02	10264.42
932.19	10104.68
932.36	10086.25
932.53	10133.35
932.69	9994.09
932.86	9893.74
933.03	9850.73
933.19	9772.91
933.36	9930.60
933.53	10176.36
933.70	9791.34
933.86	9629.55
934.03	9684.84
934.20	9471.86
934.36	9713.52
934.53	9394.03
934.70	9125.75
934.86	9400.18
935.03	9142.13
935.20	9125.75
935.36	8970.10
935.53	8904.57
935.70	9015.16
935.86	8982.39
936.03	8789.88
936.20	8789.88
936.36	8720.25
936.53	8607.61
936.70	8398.72
936.86	8548.22
937.03	8384.38
937.20	8257.41
937.36	8228.74
937.53	8138.63
937.70	8097.67
937.86	7966.60
938.03	8032.13
938.20	7950.21
938.36	7747.47
938.53	7587.72
938.70	7409.55
938.86	7442.32
939.03	7575.44
939.20	7413.65
939.36	7266.19
939.53	7157.65
939.70	7387.02
939.86	6983.57
940.03	6868.89
940.19	6993.81
940.36	6856.60
940.53	6739.87
940.69	6696.86
940.86	6653.85
941.03	6580.12
941.19	6447.01
941.36	6449.05
941.52	6576.03
941.69	6311.84
941.86	6246.30
942.02	6244.26
942.19	6082.47
942.35	6272.93
942.52	6072.23
942.69	6010.79
942.85	5826.47
943.02	5994.40
943.18	5844.90
943.35	5619.63
943.52	5955.49
943.68	5658.54
943.85	5812.14
944.01	5719.98
944.18	5584.81
944.35	5748.65
944.51	5595.05
944.68	5500.84
944.84	5478.32
945.01	5410.73
945.17	5453.74
945.34	5337.01
945.51	5547.95
945.67	5404.59
945.84	5349.29
946.00	5248.94
946.17	5228.46
946.33	5236.66
946.50	5457.84
946.67	5353.39
946.83	5351.34
947.00	5449.64
947.16	5339.05
947.33	5191.60
947.49	5267.38
947.66	5308.34
947.82	5244.85
947.99	5281.71
948.16	5388.21
948.32	5259.18
948.49	5490.60
948.65	5205.94
948.82	5351.34
948.98	5365.68
949.15	5234.61
949.31	5382.06
949.48	5255.09
949.64	5167.03
949.81	5294.00
949.97	5222.32
950.14	5271.47
950.30	5128.11
950.47	5320.62
950.63	5425.07
950.80	5312.43
950.96	5353.39
951.13	5222.32
951.30	5238.70
951.46	5439.40
951.63	5257.14
951.79	5334.96
951.96	5289.90
952.12	5351.34
952.29	5318.57
952.45	5310.38
952.62	5345.20
952.78	5330.86
952.94	5287.86
953.11	5439.40
953.27	5224.37
953.44	5353.39
953.60	5482.41
953.77	5404.59
953.93	5441.45
954.10	5324.72
954.26	5396.40
954.43	5300.14
954.59	5382.06
954.76	5545.90
954.92	5427.12
955.09	5425.07
955.25	5451.69
955.42	5556.14
955.58	5316.53
955.75	5427.12
955.91	5310.38
956.07	5314.48
956.24	5533.61
956.40	5504.94
956.57	5373.87
956.73	5380.01
956.90	5533.61
957.06	5351.34
957.23	5410.73
957.39	5435.31
957.56	5382.06
957.72	5339.05
957.88	5328.81
958.05	5509.04
958.21	5453.74
958.38	5435.31
958.54	5349.29
958.71	5566.38
958.87	5408.69
959.03	5537.71
959.20	5349.29
959.36	5449.64
959.53	5521.32
959.69	5418.93
959.85	5408.69
960.02	5390.25
960.18	5502.89
960.35	5375.92
960.51	5447.60
960.68	5371.82
960.84	5371.82
961.00	5302.19
961.17	5326.77
961.33	5394.35
961.50	5474.22
961.66	5480.36
961.82	5480.36
961.99	5476.27
962.15	5384.11
962.31	5257.14
962.48	5367.73
962.64	5515.18
962.81	5320.62
962.97	5435.31
963.13	5410.73
963.30	5414.83
963.46	5398.45
963.62	5326.77
963.79	5345.20
963.95	5207.98
964.12	5257.14
964.28	5394.35
964.44	5298.10
964.61	5334.96
964.77	5386.16
964.93	5455.79
965.10	5296.05
965.26	5230.51
965.42	5246.90
965.59	5189.55
965.75	5191.60
965.92	5248.94
966.08	5289.90
966.24	5304.24
966.41	5267.38
966.57	5304.24
966.73	5287.86
966.90	5310.38
967.06	5121.97
967.22	5087.15
967.39	5240.75
967.55	5117.87
967.71	5207.98
967.88	5160.88
968.04	5146.55
968.20	5097.39
968.37	5218.22
968.53	5052.34
968.69	5152.69
968.85	5246.90
969.02	5042.10
969.18	5169.07
969.34	5027.76
969.51	5136.31
969.67	4956.08
969.83	5111.73
970.00	5019.57
970.16	5015.48
970.32	5040.05
970.48	5078.96
970.65	4919.22
970.81	4919.22
970.97	4933.56
971.14	4984.76
971.30	4964.28
971.46	4976.56
971.63	5033.91
971.79	5099.44
971.95	4847.54
972.11	4782.01
972.28	4802.49
972.44	5031.86
972.60	4833.21
972.76	4949.94
972.93	4839.35
973.09	4921.27
973.25	4943.80
973.42	4870.07
973.58	4888.50
973.74	4849.59
973.90	4927.41
974.07	4804.53
974.23	4788.15
974.39	4812.73
974.55	4718.52
974.72	4812.73
974.88	4722.62
975.04	4843.45
975.20	4632.51
975.37	4741.05
975.53	4739.00
975.69	4718.52
975.85	4644.79
976.01	4650.94
976.18	4632.51
976.34	4595.64
976.50	4648.89
976.66	4761.53
976.83	4710.33
976.99	4751.29
977.15	4638.65
977.31	4550.59
977.47	4693.94
977.64	4673.46
977.80	4558.78
977.96	4442.04
978.12	4530.11
978.29	4411.32
978.45	4433.85
978.61	4419.52
978.77	4591.55
978.93	4483.00
979.10	4491.20
979.26	4546.49
979.42	4454.33
979.58	4411.32
979.74	4442.04
979.91	4509.63
980.07	4444.09
980.23	4483.00
980.39	4245.44
980.55	4499.39
980.71	4431.80
980.88	4288.45
981.04	4472.76
981.20	4415.42
981.36	4403.13
981.52	4302.78
981.68	4190.14
981.85	4276.16
982.01	4327.36
982.17	4214.72
982.33	4288.45
982.49	4198.34
982.65	4261.82
982.82	4222.91
982.98	4257.73
983.14	4243.39
983.30	4300.73
983.46	4212.67
983.62	4198.34
983.79	4110.27
983.95	4118.47
984.11	4100.03
984.27	4218.82
984.43	4122.56
984.59	4065.22
984.75	4036.55
984.91	4069.31
985.08	4147.14
985.24	4005.83
985.40	3948.48
985.56	4079.55
985.72	4194.24
985.88	4145.09
986.04	4124.61
986.20	3942.34
986.37	4087.75
986.53	3887.04
986.69	4024.26
986.85	3934.15
987.01	4001.73
987.17	4024.26
987.33	3958.72
987.49	3944.39
987.65	3942.34
987.82	3915.72
987.98	3762.12
988.14	3979.20
988.30	3811.27
988.46	3897.28
988.62	3885.00
988.78	3934.15
988.94	3807.17
989.10	3721.16
989.26	3774.41
989.42	3809.22
989.59	3643.34
989.75	3753.93
989.91	3678.15
990.07	3841.99
990.23	3659.72
990.39	3721.16
990.55	3792.84
990.71	3682.25
990.87	3776.45
991.03	3712.97
991.19	3684.30
991.35	3727.30
991.51	3669.96
991.67	3741.64
991.83	3706.82
992.00	3688.39
992.16	3669.96
992.32	3682.25
992.48	3622.86
992.64	3590.09
992.80	3745.73
992.96	3598.28
993.12	3626.95
993.28	3674.06
993.44	3583.95
993.60	3585.99
993.76	3616.71
993.92	3688.39
994.08	3700.68
994.24	3612.62
994.40	3532.75
994.56	3590.09
994.72	3520.46
994.88	3489.74
995.04	3475.40
995.20	3506.12
995.36	3506.12
995.52	3510.22
995.68	3364.81
995.84	3424.20
996.00	3659.72
996.16	3416.01
996.32	3301.33
996.48	3375.05
996.64	3444.68
996.80	3387.34
996.96	3524.55
997.12	3397.58
997.28	3272.65
997.44	3411.92
997.60	3325.90
997.76	3397.58
997.92	3284.94
998.08	3366.86
998.24	3354.57
998.40	3239.89
998.56	3327.95
998.72	3194.83
998.88	3280.85
999.04	3260.37
999.20	3207.12
999.36	3266.51
999.52	3313.61
999.68	3209.17
999.84	3403.72
1000.00	3297.23
1000.16	3360.72
1000.32	3190.74
1000.48	3340.24
1000.64	3235.79
1000.80	3143.63
1000.95	3174.35
1001.11	3182.54
1001.27	3166.16
1001.43	3151.82
1001.59	3180.50
1001.75	3162.06
1001.91	3184.59
1002.07	3137.49
1002.23	3121.10
1002.39	3069.91
1002.55	3170.26
1002.71	3026.90
1002.87	3026.90
1003.03	3033.04
1003.19	3041.23
1003.34	3133.39
1003.50	3012.56
1003.66	3121.10
1003.82	3137.49
1003.98	3088.34
1004.14	3043.28
1004.30	3000.27
1004.46	3076.05
1004.62	2947.03
1004.78	2957.27
1004.94	2871.25
1005.09	3004.37
1005.25	2990.03
1005.41	2973.65
1005.57	2875.35
1005.73	2973.65
1005.89	2803.67
1006.05	2963.41
1006.21	2947.03
1006.37	2990.03
1006.52	2846.68
1006.68	2744.28
1006.84	2955.22
1007.00	2901.97
1007.16	2916.31
1007.32	2713.56
1007.48	2836.44
1007.64	2826.20
1007.79	2881.49
1007.95	2904.02
1008.11	2815.96
1008.27	2787.29
1008.43	2754.52
1008.59	2848.72
1008.75	2815.96
1008.91	2856.92
1009.06	2824.15
1009.22	2783.19
1009.38	2822.10
1009.54	2768.85
1009.70	2693.08
1009.86	2731.99
1010.01	2805.72
1010.17	2781.14
1010.33	2746.33
1010.49	2764.76
1010.65	2854.87
1010.81	2691.03
1010.96	2664.41
1011.12	2711.51
1011.28	2686.94
1011.44	2678.74
1011.60	2625.50
1011.76	2609.11
1011.91	2762.71
1012.07	2650.07
1012.23	2555.86
1012.39	2568.15
1012.55	2654.17
1012.71	2617.30
1012.86	2627.54
1013.02	2574.30
1013.18	2557.91
1013.34	2602.97
1013.50	2631.64
1013.65	2570.20
1013.81	2484.19
1013.97	2527.19
1014.13	2633.69
1014.29	2666.46
1014.44	2670.55
1014.60	2564.06
1014.76	2580.44
1014.92	2519.00
1015.07	2598.87
1015.23	2514.91
1015.39	2510.81
1015.55	2525.15
1015.71	2437.08
1015.86	2535.39
1016.02	2486.23
1016.18	2394.08
1016.34	2500.57
1016.49	2439.13
1016.65	2516.95
1016.81	2406.36
1016.97	2494.43
1017.12	2488.28
1017.28	2404.32
1017.44	2465.75
1017.60	2398.17
1017.75	2465.75
1017.91	2482.14
1018.07	2490.33
1018.23	2539.48
1018.38	2359.26
1018.54	2449.37
1018.70	2402.27
1018.86	2344.92
1019.01	2318.30
1019.17	2432.99
1019.33	2435.03
1019.49	2412.51
1019.64	2410.46
1019.80	2387.93
1019.96	2430.94
1020.12	2435.03
1020.27	2295.77
1020.43	2322.40
1020.59	2342.88
1020.74	2396.12
1020.90	2430.94
1021.06	2375.64
1021.22	2428.89
1021.37	2428.89
1021.53	2291.68
1021.69	2283.49
1021.84	2234.33
1022.00	2340.83
1022.16	2254.81
1022.31	2346.97
1022.47	2324.44
1022.63	2267.10
1022.79	2217.95
1022.94	2279.39
1023.10	2308.06
1023.26	2168.80
1023.41	2269.15
1023.57	2238.43
1023.73	2289.63
1023.88	2306.01
1024.04	2281.44
1024.20	2168.80
1024.35	2238.43
1024.51	2238.43
1024.67	2226.14
1024.82	2389.98
1024.98	2209.76
1025.14	2252.77
1025.29	2150.37
1025.45	2353.12
1025.61	2131.94
1025.76	2228.19
1025.92	2242.53
1026.08	2224.09
1026.23	2125.79
1026.39	2246.62
1026.55	2131.94
1026.70	2068.45
1026.86	2097.12
1027.02	2213.85
1027.17	2107.36
1027.33	2193.37
1027.48	2140.13
1027.64	2174.94
1027.80	2138.08
1027.95	2125.79
1028.11	2060.26
1028.27	2213.85
1028.42	2156.51
1028.58	2097.12
1028.73	2136.03
1028.89	2068.45
1029.05	2211.81
1029.20	2191.33
>>>>>End Processed Spectral Data<<<<<
